#Acq. time (s)=	5
#Accumulations=	5
#Range (cm-¹)=	100...3500
#Windows=	4
#Autofocus=	Off
#AutoExposure=	Off
#Spike filter=	Multiple accum.
#Delay time (s)=	0
#Binning=	1
#Readout mode=	Signal
#DeNoise=	Off
#ICS correction=	Off
#Dark correction=	Off
#Inst. Process=	Off
#Instrument=	LabRAM HR Evol
#Detector=	Syncerity OE
#Objective=	x100_VIS
#Grating=	600 (500nm)
#ND Filter=	25%
#Laser=	633nm_Edge
#Hole=	100.021
#Range=	Visible
#Project=	verificaciones
#Sample=	a2
#Site=	lined
#Title=	bolusa2lined
#Remark=	
#Date=	12.01.2026 15:26
#Acquired=	12.01.2026 15:26:47
100.666	23
101.95	30.5
103.233	33.5
104.516	27
105.799	26
107.083	27.5
108.365	23
109.648	24.5
110.93	25
112.212	29
113.493	29.5
114.775	27.5
116.056	27.5
117.337	28.5
118.618	24
119.898	31
121.178	25
122.459	25.5
123.739	27
125.018	29.5
126.298	23
127.577	26.5
128.856	28.5
130.135	27
131.414	28.5
132.692	30.5
133.971	27.5
135.249	31
136.525	24.5
137.803	28.5
139.08	26
140.357	27
141.634	24.5
142.911	28
144.188	26
145.464	27.5
146.74	29.5
148.015	25.5
149.291	24.5
150.566	28.5
151.842	24
153.117	29
154.392	29.5
155.665	28
156.939	29.5
158.214	28.5
159.488	24.5
160.76	26.5
162.034	29
163.307	27.5
164.581	29
165.854	25
167.125	28
168.398	27.5
169.67	27
170.941	25.5
172.213	28.5
173.485	27
174.756	27
176.026	32.5
177.298	25
178.569	28.5
179.838	29
181.109	28.5
182.379	26.5
183.648	31
184.918	27.5
186.187	34
187.455	28
188.725	29.5
189.992	28.5
191.261	30.5
192.53	29
193.797	24
195.065	31
196.332	28
197.6	30
198.866	27
200.134	31.5
201.401	26.5
202.667	24.5
203.933	28
205.199	25.5
206.465	29
207.73	33
208.996	27.5
210.26	28.5
211.526	27.5
212.79	28
214.055	29
215.319	29
216.582	26.5
217.847	31
219.11	26
220.374	30
221.636	28.5
222.9	27.5
224.162	28.5
225.424	26
226.687	28.5
227.949	26
229.212	24.5
230.473	28.5
231.734	23
232.996	23.5
234.256	26.5
235.517	30
236.778	27.5
238.038	23.5
239.298	24.5
240.559	27
241.818	25
243.077	29
244.337	29
245.596	27
246.854	31.5
248.113	24
249.372	26.5
250.63	27
251.887	31
253.145	26.5
254.404	29
255.661	30
256.917	24.5
258.174	25
259.432	25.5
260.688	29.5
261.944	25
263.2	27
264.456	28
265.711	27
266.968	29.5
268.223	22
269.477	30.5
270.732	26.5
271.986	29
273.24	26.5
274.494	25
275.748	25.5
277.003	24
278.257	23.5
279.51	29
280.763	29
282.015	29.5
283.268	26
284.52	26
285.773	25.5
287.024	22
288.276	27
289.528	28
290.779	30
292.03	26
293.281	24.5
294.532	27
295.782	28
297.033	24
298.283	30.5
299.533	27
300.783	24
302.032	26
303.281	28
304.531	24.5
305.78	28
307.028	26
308.275	25.5
309.524	27.5
310.772	30
312.02	27
313.267	24.5
314.515	26.5
315.762	28
317.009	29
318.255	29
319.501	23
320.748	29.5
321.994	28
323.24	28.5
324.486	26
325.731	31
326.976	26
328.221	24.5
329.466	28
330.71	25.5
331.955	23
333.199	29.5
334.443	28
335.686	27.5
336.93	26.5
338.174	27
339.417	31
340.659	26.5
341.902	28.5
343.145	31.5
344.386	26.5
345.629	28
346.871	23.5
348.112	23
349.354	27
350.595	24
351.836	25.5
353.077	26
354.318	30
355.557	24.5
356.798	25.5
358.037	25
359.277	25.5
360.518	23.5
361.756	24
362.996	27
364.234	22
365.473	26.5
366.711	32.5
367.95	24.5
369.187	28
370.426	25
371.662	31
372.901	24.5
374.137	27.5
375.375	27.5
376.611	28
377.848	25
379.084	22
380.321	27
381.556	25
382.793	28
384.027	26.5
385.264	26.5
386.498	30.5
387.732	27.5
388.968	31
390.202	27.5
391.437	24.5
392.671	28
393.904	27
395.138	30.5
396.371	27
397.604	28.5
398.838	24
400.07	29
401.302	27.5
402.536	28.5
403.768	26
404.999	26.5
406.232	25
407.463	30.5
408.694	28
409.925	27.5
411.157	28.5
412.387	24
413.617	25
414.847	23.5
416.078	28
417.308	26
418.537	26
419.767	26.5
420.997	26
422.226	25.5
423.454	28
424.683	24.5
425.911	30.5
427.139	26.5
428.368	25.5
429.596	29
430.823	27
432.05	28
433.277	28
434.504	27.5
435.731	29
436.957	30
438.185	29.5
439.411	24
440.637	25.5
441.862	29
443.088	27
444.313	31
445.538	29
446.763	26
447.988	30
449.212	30
450.436	26.5
451.661	31
452.884	28
454.108	27
455.332	24.5
456.555	30
457.778	29.5
459.001	28
460.224	24.5
461.446	27.5
462.668	28
463.891	30.5
465.111	28
466.333	27.5
467.554	25
468.776	28
469.997	27.5
471.218	26
472.439	30.5
473.659	30
474.878	28
476.098	27
477.318	28.5
478.538	32.5
479.758	31.5
480.977	33
482.195	31
483.414	32.5
484.633	31
485.851	30.5
487.07	32
488.287	31.5
489.505	32
490.723	35
491.94	30
493.156	31.5
494.374	25
495.591	32
496.806	31.5
498.023	30
499.239	29.5
500.456	27.5
501.67	27.5
502.886	36
504.102	30.5
505.316	26
506.531	25
507.745	25
508.96	24
510.175	30.5
511.388	28
512.602	27
513.815	26
515.029	26.5
516.243	27
517.455	28.5
518.669	27
519.88	30.5
521.093	27.5
522.305	28
523.518	30.5
524.729	30
525.941	28.5
527.151	29.5
528.363	25.5
529.574	30.5
530.785	33
531.995	29
533.206	26.5
534.416	25
535.626	31
536.835	24
538.046	25
539.254	25.5
540.463	30
541.673	23
542.881	27.5
544.09	26.5
545.298	27
546.506	27.5
547.714	27.5
548.922	30
550.13	27
551.337	23.5
552.544	30
553.751	27.5
554.958	19
556.164	28
557.37	27
558.577	26
559.782	29
560.987	26.5
562.194	30.5
563.399	24.5
564.604	25.5
565.808	32
567.014	30.5
568.218	29
569.422	27
570.626	22.5
571.829	28
573.034	28.5
574.237	30.5
575.44	30
576.643	27
577.846	25
579.048	28
580.252	22.5
581.454	30
582.656	29
583.857	25.5
585.059	32
586.26	26
587.461	26
588.662	23.5
589.863	31
591.065	24.5
592.265	29.5
593.465	27
594.665	26
595.865	25
597.065	29
598.264	27
599.463	28.5
600.662	28
601.861	26.5
603.06	28
604.258	27.5
605.457	27
606.655	30
607.853	26
609.05	29.5
610.248	30
611.444	30
612.641	24
613.838	33
615.034	25.5
616.231	25
617.427	28.5
618.624	29
619.82	26.5
621.015	26
622.21	26
623.405	29
624.6	28
625.795	28
626.99	26.5
628.185	27
629.378	28
630.572	27
631.766	29.5
632.96	24.5
634.154	30
635.346	31
636.54	25.5
637.733	25.5
638.926	32
640.117	23
641.31	26.5
642.502	30.5
643.693	25
644.885	29
646.077	30.5
647.267	27
648.459	27.5
649.65	29.5
650.84	26.5
652.031	26
653.222	29
654.411	28
655.601	31
656.791	31.5
657.98	25.5
659.17	29.5
660.358	29
661.547	24
662.737	27.5
663.924	23
665.113	29
666.3	29
667.489	27.5
668.676	25
669.864	25
671.05	24.5
672.238	26.5
673.424	26.5
674.612	30
675.798	27.5
676.985	24
678.17	30.5
679.357	29
680.542	26.5
681.728	27.5
682.913	27.5
684.097	27
685.283	26.5
686.467	28
687.652	29
688.836	27.5
690.02	31
691.205	27.5
692.388	30
693.571	30
694.755	26.5
695.938	27.5
697.12	27
698.304	26.5
699.486	27.5
700.668	26.5
701.851	24
703.032	31.5
704.214	29
705.395	32
706.577	33.5
707.758	32.5
708.939	35
710.119	29
711.301	32
712.481	27.5
713.661	29
714.84	31.5
716.02	25
717.201	28.5
718.38	30.5
719.559	28
720.737	28
721.916	30
723.094	25
724.274	31
725.452	31.5
726.63	28.5
727.808	26.5
728.985	30
730.162	26.5
731.339	30.5
732.516	28
733.693	26.5
734.87	23
736.046	28
737.222	32.5
738.398	25
739.574	27
740.75	29
741.925	28.5
743.1	23
744.276	26
745.45	26
746.625	24
747.8	28.5
748.974	22.5
750.148	30
751.322	28.5
752.496	28
753.67	27
754.843	26.5
756.016	24.5
757.189	27
758.362	30
759.534	25.5
760.706	29.5
761.878	27
763.051	27
764.223	28.5
765.394	28
766.565	27.5
767.736	21
768.907	26.5
770.078	28.5
771.249	25.5
772.419	28.5
773.589	24
774.759	27
775.93	24.5
777.098	26
778.268	25.5
779.438	27
780.607	29.5
781.775	27.5
782.944	27
784.113	29
785.28	25
786.449	28.5
787.617	22.5
788.784	28.5
789.952	25
791.12	26
792.286	26
793.453	28
794.62	27.5
795.786	31
796.953	31.5
798.118	26
799.285	26
800.45	29
801.616	26
802.782	30.5
803.946	29
805.112	30
806.276	29
807.441	24
808.605	24
809.77	26
810.933	28
812.098	27.5
813.261	29.5
814.425	28
815.588	31.5
816.75	28
817.914	24
819.076	31
820.239	25
821.401	28
822.564	27
823.725	25
824.886	29
826.048	29
827.209	27.5
828.37	25
829.532	25
830.692	26.5
831.852	27
833.013	27
834.173	29
835.333	25
836.493	30
837.653	28
838.812	26
839.972	25.5
841.13	26.5
842.289	27.5
843.447	32.5
844.607	28
845.765	29.5
846.922	25
848.08	27
849.237	27
850.396	27.5
851.553	28.5
852.71	25
853.867	26
855.023	25
856.179	26.5
857.337	27.5
858.493	24
859.649	28
860.804	28.5
861.96	25.5
863.115	25
864.27	27.5
865.425	28
866.58	26
867.734	28
868.888	26.5
870.043	28
871.197	21.5
872.35	26
873.504	29
874.658	26
875.811	30
876.964	26
878.117	28.5
879.27	25
880.422	28
881.575	29.5
882.727	28
883.879	22
885.031	25
886.182	22.5
887.334	27
888.485	26.5
889.636	24.5
890.787	26
891.937	30.5
893.088	26
894.238	28.5
895.388	24
896.538	29
897.688	29
898.837	24
899.986	27.5
901.136	26.5
902.285	26
903.434	25
904.581	25.5
905.73	27.5
906.878	28
908.027	23
909.174	26
910.321	26.5
911.469	24
912.617	26.5
913.763	22.5
914.91	29
916.057	24
917.203	27
918.35	26.5
919.496	24.5
920.641	24.5
921.787	27.5
922.933	29
924.078	28
925.224	27.5
926.368	28.5
927.513	21
928.658	26
929.802	26
930.946	24
932.09	29
933.234	26
934.377	25.5
935.521	24
936.664	25.5
937.807	26.5
938.95	25
940.093	25
941.235	24
942.378	27
943.519	26.5
944.662	30
945.803	25
946.946	27
948.086	29
949.227	24
950.369	25.5
951.509	25.5
952.651	25.5
953.79	24
954.93	31
956.071	24
957.211	29
958.35	26.5
959.49	28
960.629	25
961.768	26.5
962.908	24
964.046	25.5
965.184	23
966.323	23.5
967.461	25
968.599	26.5
969.736	26
970.875	26.5
972.012	25.5
973.149	25
974.286	27.5
975.424	27.5
976.56	25
977.697	27
978.833	25
979.969	25.5
981.104	29.5
982.241	27
983.377	23
984.512	23.5
985.647	24
986.782	27.5
987.916	24
989.051	22
990.185	24.5
991.321	25
992.455	29.5
993.589	27.5
994.722	28
995.856	26.5
996.989	23
998.122	24
999.255	24
1000.39	22.5
1001.52	23
1002.65	28
1003.79	25
1004.92	26
1006.05	24.5
1007.18	29.5
1008.31	28
1009.44	26.5
1010.57	23.5
1011.7	23.5
1012.84	22.5
1013.97	27
1015.1	24
1016.23	25.5
1017.36	24
1018.49	24.5
1019.62	25.5
1020.75	26
1021.88	25.5
1023	28
1024.13	26
1025.26	27
1026.39	24
1027.52	20
1028.65	23.5
1029.78	27.5
1030.9	29.5
1032.03	26
1033.16	26
1034.29	26
1035.41	27
1036.54	24
1037.67	22.5
1038.79	24
1039.92	27
1041.04	23.5
1042.17	28
1043.3	23.5
1044.42	21
1045.55	28
1046.67	29.5
1047.8	23
1048.92	23.5
1050.05	24
1051.17	25.5
1052.3	28.5
1053.42	27
1054.54	25.5
1055.67	23.5
1056.79	25.5
1057.91	28
1059.04	28.5
1060.16	26.5
1061.28	27
1062.41	25.5
1063.53	25.5
1064.65	28.5
1065.77	24.5
1066.9	23
1068.02	25
1069.14	23
1070.26	24
1071.38	25
1072.5	28.5
1073.62	26
1074.74	24.5
1075.86	29
1076.98	23.5
1078.1	26
1079.22	23
1080.34	26
1081.46	24
1082.58	27
1083.7	26.5
1084.82	27.5
1085.94	26
1087.06	25
1088.18	23
1089.29	26
1090.41	24
1091.53	25
1092.65	24.5
1093.77	25
1094.88	25
1096	22.5
1097.12	21
1098.23	25
1099.35	21.5
1100.47	25
1101.58	25
1102.7	23.5
1103.82	26
1104.93	26.5
1106.05	23
1107.16	26
1108.28	29
1109.39	26.5
1110.51	24
1111.62	24
1112.74	24
1113.85	27.5
1114.96	27.5
1116.08	27.5
1117.19	23
1118.31	25
1119.42	26
1120.53	26.5
1121.65	24.5
1122.76	23.5
1123.87	27
1124.98	23
1126.1	23.5
1127.21	25
1128.32	21.5
1129.43	24
1130.54	23.5
1131.65	24.5
1132.76	24
1133.88	26
1134.99	27.5
1136.1	24
1137.21	28.5
1138.32	23
1139.43	25.5
1140.54	25.5
1141.65	27.5
1142.76	22
1143.87	22.5
1144.98	26
1146.08	24.5
1147.19	24.5
1148.3	24.5
1149.41	26.5
1150.52	22
1151.63	20
1152.73	27
1153.84	26
1154.95	28
1156.06	23.5
1157.17	24
1158.27	28
1159.38	24
1160.49	26.5
1161.59	24.5
1162.7	23
1163.8	23.5
1164.91	28
1166.02	25
1167.12	24
1168.23	27
1169.33	31
1170.44	26
1171.54	23
1172.65	25
1173.75	26
1174.86	25
1175.96	20
1177.06	22.5
1178.17	23
1179.27	23.5
1180.37	25
1181.48	23
1182.58	27.5
1183.68	23
1184.79	27
1185.89	27.5
1186.99	23.5
1188.09	22
1189.2	20.5
1190.3	25.5
1191.4	26.5
1192.5	24.5
1193.6	27
1194.7	23.5003
1195.8	23.9639
1196.9	22.1239
1198.01	21.6195
1199.11	24.4221
1200.21	21.9879
1201.31	25.8559
1202.41	24.5933
1203.5	24.6221
1204.6	24.3306
1205.7	22.5449
1206.8	22.734
1207.9	25.2817
1209	21.2449
1210.1	21.8572
1211.2	23.6747
1212.3	21.3759
1213.39	21.9909
1214.49	24.2198
1215.59	26.6196
1216.69	25.8225
1217.78	22.4068
1218.88	21.3053
1219.98	25.3262
1221.08	21.9818
1222.17	21.2646
1223.27	24.1179
1224.37	23.9369
1225.46	24.3357
1226.56	23.5532
1227.65	25.5019
1228.75	27.4676
1229.84	24.1485
1230.94	21.2245
1232.03	24.3702
1233.13	25.3241
1234.22	25.6154
1235.32	24.7418
1236.41	24.6216
1237.51	25.3726
1238.6	26.7914
1239.69	24.7943
1240.79	24.6772
1241.88	24.5007
1242.97	26.2817
1244.07	23.8483
1245.16	25.2111
1246.25	23.2469
1247.35	21.8782
1248.44	24.2856
1249.53	21.7516
1250.62	23.9906
1251.71	22.5097
1252.81	25.9194
1253.9	22.1731
1254.99	25.1917
1256.08	24.2778
1257.17	22.5856
1258.26	23.2757
1259.35	25.5008
1260.44	22.3495
1261.53	22.7348
1262.62	22.7198
1263.71	21.7126
1264.8	22.5325
1265.89	25.6944
1266.98	25.684
1268.07	25.4581
1269.16	25.8374
1270.25	22.8341
1271.34	25.0886
1272.43	23.1468
1273.52	26.4074
1274.6	25.6551
1275.69	24.224
1276.78	23.58
1277.87	25.9453
1278.95	24.2533
1280.04	23.9075
1281.13	24.07
1282.22	21.5076
1283.3	24.742
1284.39	23.0119
1285.48	23.6849
1286.56	21.5826
1287.65	22.4914
1288.73	22.5995
1289.82	24.4853
1290.91	23.4469
1291.99	24.1519
1293.08	24.6004
1294.16	24.6117
1295.24	23.613
1296.33	22.1271
1297.41	22.6564
1298.5	21.0877
1299.58	22.1722
1300.67	24.3222
1301.75	23.6235
1302.83	23.1189
1303.92	23.1214
1305	23.3747
1306.08	23.8491
1306.4	24
1307.49	21
1308.58	27.5
1309.66	25
1310.75	24.5
1311.84	25
1312.93	25.5
1314.01	26
1315.1	23
1316.19	25.5
1317.27	24
1318.36	24.5
1319.45	24.5
1320.53	23.5
1321.62	23.5
1322.71	21.5
1323.79	24.5
1324.88	26
1325.96	26.5
1327.05	28.5
1328.13	21
1329.22	22
1330.3	27
1331.39	26.5
1332.47	23
1333.55	24
1334.64	25
1335.72	23
1336.81	26
1337.89	24
1338.97	23
1340.06	24.5
1341.14	26
1342.22	24.5
1343.3	26
1344.39	26.5
1345.47	21.5
1346.55	24
1347.63	20
1348.71	23.5
1349.8	23.5
1350.88	21.5
1351.96	23.5
1353.04	25
1354.12	26.5
1355.2	21.5
1356.28	28
1357.36	23
1358.44	20
1359.52	25.5
1360.6	25.5
1361.68	24
1362.76	23.5
1363.84	22.5
1364.92	24
1366	22
1367.08	24.5
1368.16	24
1369.23	23
1370.31	20.5
1371.39	23
1372.47	20
1373.55	24
1374.62	23.5
1375.7	23
1376.78	26
1377.86	24
1378.93	23.5
1380.01	21
1381.09	24
1382.16	25.5
1383.24	22
1384.32	24
1385.39	22.5
1386.47	26.5
1387.54	23
1388.62	28
1389.69	23
1390.77	22.5
1391.84	28.5
1392.92	24
1393.99	21.5
1395.07	24.5
1396.14	24.5
1397.21	27.5
1398.29	26
1399.36	24.5
1400.44	29
1401.51	23
1402.58	25
1403.66	22
1404.73	26
1405.8	26
1406.87	27.5
1407.95	23
1409.02	22
1410.09	23
1411.16	24.5
1412.23	25
1413.3	25.5
1414.38	26.5
1415.45	24
1416.52	24.5
1417.59	22.5
1418.66	23
1419.73	25
1420.8	26.5
1421.87	26.5
1422.94	26.5
1424.01	23.5
1425.08	26
1426.15	24.5
1427.22	24
1428.29	22
1429.36	24.5
1430.43	26.5
1431.49	25.5
1432.56	26.5
1433.63	24
1434.7	24.5
1435.77	23
1436.83	24
1437.9	26.5
1438.97	24
1440.04	22
1441.1	21.5
1442.17	22
1443.24	18.5
1444.3	26
1445.37	21.5
1446.44	22
1447.5	24
1448.57	24.5
1449.63	25
1450.7	27
1451.77	24.5
1452.83	26
1453.9	23
1454.96	21.5
1456.03	26.5
1457.09	23
1458.15	24.5
1459.22	23
1460.28	25
1461.35	25
1462.41	23
1463.47	27
1464.54	25.5
1465.6	22.5
1466.66	25
1467.73	21.5
1468.79	23
1469.85	23.5
1470.91	25.5
1471.98	22.5
1473.04	28
1474.1	26
1475.16	23
1476.22	23.5
1477.28	25
1478.35	22.5
1479.41	25
1480.47	26.5
1481.53	26.5
1482.59	25.5
1483.65	28.5
1484.71	25.5
1485.77	22
1486.83	23.5
1487.89	27
1488.95	24.5
1490.01	27
1491.07	25
1492.13	25.5
1493.18	24
1494.24	23
1495.3	23
1496.36	25
1497.42	23
1498.48	28.5
1499.53	22
1500.59	25
1501.65	25.5
1502.71	20.5
1503.76	25.5
1504.82	26.5
1505.88	22.5
1506.93	22
1507.99	27
1509.05	24.5
1510.1	26.5
1511.16	23.5
1512.21	24
1513.27	29
1514.33	28.5
1515.38	26.5
1516.44	28.5
1517.49	22.5
1518.55	25
1519.6	23
1520.66	24.5
1521.71	23.5
1522.76	21.5
1523.82	21.5
1524.87	26
1525.93	25.5
1526.98	25.5
1528.03	26
1529.08	25
1530.14	24.5
1531.19	29
1532.24	27
1533.3	23
1534.35	25.5
1535.4	24
1536.45	27
1537.5	25
1538.56	24
1539.61	25.5
1540.66	24
1541.71	27.5
1542.76	24
1543.81	22.5
1544.86	29
1545.91	26.5
1546.96	23.5
1548.01	25.5
1549.06	25.5
1550.11	24.5
1551.16	22.5
1552.21	25
1553.26	23.5
1554.31	26
1555.36	24
1556.41	20
1557.46	25
1558.51	28.5
1559.56	21
1560.6	25
1561.65	23
1562.7	26.5
1563.75	26
1564.79	21
1565.84	28
1566.89	24.5
1567.94	29
1568.98	22
1570.03	26
1571.08	24.5
1572.12	25
1573.17	24.5
1574.22	22.5
1575.26	22.5
1576.31	24.5
1577.35	29
1578.4	24
1579.44	25
1580.49	27.5
1581.53	29
1582.58	24.5
1583.62	25
1584.67	22
1585.71	27
1586.76	22
1587.8	24
1588.84	25.5
1589.89	27
1590.93	27
1591.97	23
1593.02	24
1594.06	27
1595.1	26.5
1596.14	26.5
1597.19	24
1598.23	23.5
1599.27	25
1600.31	27
1601.36	25.5
1602.4	23
1603.44	29.5
1604.48	26.5
1605.52	25
1606.56	26
1607.6	25
1608.64	23
1609.68	28
1610.72	23
1611.76	23
1612.81	22.5
1613.84	22
1614.88	22.5
1615.92	24
1616.96	28
1618	25.5
1619.04	22.5
1620.08	26.5
1621.12	24
1622.16	23
1623.2	27.5
1624.23	26.5
1625.27	26.5
1626.31	27
1627.35	22.5
1628.39	25.5
1629.42	24
1630.46	27
1631.5	24.5
1632.53	24.5
1633.57	24
1634.61	23
1635.64	23
1636.68	23
1637.72	23.5
1638.75	24.5
1639.79	22
1640.82	22.5
1641.86	25
1642.89	25
1643.93	26
1644.96	25.5
1646	23.5
1647.03	26.5
1648.07	23
1649.1	23.5
1650.14	23
1651.17	24.5
1652.21	25
1653.24	22
1654.27	29.5
1655.31	25.5
1656.34	23.5
1657.37	24
1658.41	25.5
1659.44	24
1660.47	26
1661.5	25
1662.53	20.5
1663.57	22
1664.6	28
1665.63	24
1666.66	27
1667.69	23.5
1668.72	24
1669.76	23.5
1670.79	27
1671.82	20.5
1672.85	24
1673.88	25.5
1674.91	28
1675.94	27
1676.97	25.5
1678	22
1679.03	24
1680.06	23
1681.09	28.5
1682.12	23
1683.15	28
1684.17	25
1685.2	25
1686.23	23
1687.26	26
1688.29	25
1689.32	23
1690.34	28
1691.37	24
1692.4	26
1693.43	23
1694.45	28
1695.48	23
1696.51	24
1697.54	25
1698.56	25.5
1699.59	20
1700.61	27
1701.64	29
1702.67	25.5
1703.69	24.5
1704.72	25
1705.74	22.5
1706.77	25
1707.79	23
1708.82	29
1709.84	21
1710.87	26.5
1711.89	26
1712.92	22
1713.94	29
1714.97	23.5
1715.99	19.5
1717.01	25
1718.04	22.5
1719.06	26
1720.08	25
1721.11	24
1722.13	31
1723.15	27
1724.18	27
1725.2	28
1726.22	25
1727.24	32
1728.26	24.5
1729.29	20
1730.31	24.5
1731.33	25.5
1732.35	28
1733.37	24
1734.39	25
1735.41	25
1736.43	26.5
1737.45	23
1738.47	22.5
1739.5	22.5
1740.52	26
1741.53	28.5
1742.55	22
1743.57	25
1744.59	22.5
1745.61	25
1746.63	20.5
1747.65	25.5
1748.67	23
1749.69	25
1750.71	24
1751.72	22.5
1752.74	21
1753.76	25
1754.78	30
1755.8	27
1756.81	23.5
1757.83	24.5
1758.85	21.5
1759.87	24
1760.88	25
1761.9	24
1762.92	23.5
1763.93	22
1764.95	27
1765.96	24
1766.98	28
1768	25.5
1769.01	23
1770.03	30
1771.04	25
1772.06	26.5
1773.07	23.5
1774.09	25.5
1775.1	24.5
1776.12	26
1777.13	24
1778.15	30
1779.16	23.5
1780.17	22.5
1781.19	25.5
1782.2	26
1783.21	23
1784.23	26
1785.24	24.5
1786.25	25
1787.27	23.5
1788.28	23
1789.29	24
1790.3	27
1791.32	28.5
1792.33	22.5
1793.34	23
1794.35	23.5
1795.36	22
1796.38	24.5
1797.39	24
1798.4	22.5
1799.41	25.5
1800.42	23
1801.43	25.5
1802.44	26
1803.45	24.5
1804.46	22.5
1805.47	22.5
1806.48	24.5
1807.49	24
1808.5	26
1809.51	24
1810.52	26.5
1811.53	27
1812.53	25
1813.54	26.5
1814.55	30.5
1815.56	26.5
1816.57	23
1817.58	20
1818.59	29
1819.59	21
1820.6	23
1821.61	28.5
1822.62	24
1823.62	20.5
1824.63	25
1825.64	19.5
1826.64	24
1827.65	20
1828.66	26
1829.66	24.5
1830.67	25
1831.67	25.5
1832.68	26
1833.69	27
1834.69	26
1835.7	25
1836.7	25.5
1837.71	25
1838.71	28.5
1839.72	22
1840.72	20.5
1841.72	23
1842.73	23.5
1843.73	27.5
1844.74	28
1845.74	25
1846.74	21.5
1847.75	23
1848.75	23.5
1849.75	22.5
1850.76	30
1851.76	25.5
1852.76	25
1853.76	27.5
1854.77	19
1855.77	26.5
1856.77	29
1857.77	23
1858.78	21
1859.78	26.5
1860.78	28
1861.78	22
1862.78	22.5
1863.78	27
1864.78	25
1865.78	26.5
1866.78	26
1867.78	20.5
1868.78	22.5
1869.78	26.5
1870.78	23
1871.78	28
1872.78	25
1873.78	22
1874.78	26
1875.78	23.5
1876.78	24
1877.78	24
1878.78	21
1879.78	21.5
1880.77	23
1881.77	28.5
1882.77	24
1883.77	26.5
1884.77	24.5
1885.76	22
1886.76	26
1887.76	26
1888.75	24.5
1889.75	27
1890.75	27
1891.74	25
1892.74	24.5
1893.74	26
1894.73	24.5
1895.73	21
1896.73	24
1897.72	24.5
1898.72	26.5
1899.71	27.5
1900.71	26
1901.7	20.5
1902.7	24.5
1903.69	27
1904.69	26
1905.68	25
1906.68	26
1907.67	24
1908.66	24
1909.66	26.5
1910.65	21
1911.64	24
1912.64	24
1913.63	18.5
1914.62	27
1915.62	24.5
1916.61	24
1917.6	25.5
1918.6	23
1919.59	24
1920.58	25.5
1921.57	21.5
1922.56	26
1923.55	24.5
1924.55	25
1925.54	26.5
1926.53	21.5
1927.52	24
1928.51	28
1929.5	26.5
1930.49	25
1931.48	22
1932.47	28.5
1933.46	22
1934.45	23
1935.44	25.5
1936.43	20.5
1937.42	23
1938.41	24.5
1939.4	22.5
1940.39	28
1941.38	21.5
1942.37	26
1943.36	27
1944.35	19.5
1945.33	26.5
1946.32	24.5
1947.31	25
1948.3	26.25
1949.29	25.5
1950.27	26.5
1951.26	25
1952.25	24.5
1953.24	24
1954.22	24.5
1955.21	22
1956.2	26
1957.18	25.5
1958.17	28
1959.16	24.5
1960.14	21
1961.13	26
1962.11	24
1963.1	25
1964.08	20
1965.07	25
1966.05	27
1967.04	25
1968.02	26
1969.01	24
1969.99	23
1970.98	24
1971.96	23
1972.95	24.5
1973.93	24
1974.91	23
1975.9	26
1976.88	20
1977.86	24
1978.85	22
1979.83	21.5
1980.81	26.5
1981.8	23.5
1982.78	23
1983.76	23.5
1984.74	27.5
1985.73	24.5
1986.71	23.5
1987.69	22
1988.67	25.5
1989.65	26
1990.63	20
1991.62	23.5
1992.6	26
1993.58	22
1994.56	22.5
1995.54	23
1996.52	23
1997.5	22.5
1998.48	22.5
1999.46	20.5
2000.44	22.5
2001.42	24
2002.4	26.5
2003.38	21
2004.36	25
2005.34	24
2006.32	22
2007.29	22.5
2008.27	23.5
2009.25	24.5
2010.23	25
2011.21	26
2012.19	26
2013.17	23
2014.14	26.5
2015.12	24.5
2016.1	23.5
2017.07	23
2018.05	23
2019.03	24
2020.01	24.5
2020.98	21.5
2021.96	22.5
2022.94	26.5
2023.91	22.5
2024.89	26.5
2025.86	24
2026.84	23
2027.82	25
2028.79	26.5
2029.77	23
2030.74	23
2031.72	23
2032.69	20.5
2033.67	21.5
2034.64	23
2035.62	22
2036.59	22.5
2037.56	22.5
2038.54	23
2039.51	27
2040.49	26
2041.46	25
2042.43	23
2043.41	22.5
2044.38	20
2045.35	22.5
2046.32	23.5
2047.3	24
2048.27	22
2049.24	21.5
2050.21	24
2051.19	24.5
2052.16	25.5
2053.13	21.5
2054.1	23.5
2055.07	21.5
2056.05	23
2057.02	24.5
2057.99	26.5
2058.96	21.5
2059.93	22.5
2060.9	24.5
2061.87	23
2062.84	24.5
2063.81	24
2064.78	23
2065.75	27
2066.72	27
2067.69	22
2068.66	22.5
2069.63	23.5
2070.6	16
2071.57	21
2072.54	22
2073.5	23.5
2074.47	24
2075.44	20.5
2076.41	24
2077.38	23.5
2078.35	24
2079.31	21.5
2080.28	20
2081.25	21
2082.22	18.5
2083.18	25.5
2084.15	22.5
2085.12	24
2086.08	26
2087.05	23
2088.02	24.5
2088.98	26
2089.95	25
2090.92	22
2091.88	24
2092.85	21.5
2093.81	21.5
2094.78	21
2095.74	23
2096.71	21.5
2097.67	19
2098.64	20.5
2099.6	24
2100.57	22.5
2101.53	25
2102.5	25
2103.46	22.5
2104.42	23
2105.39	23
2106.35	20.5
2107.32	23.5
2108.28	26.5
2109.24	26.5
2110.21	26
2111.17	21.5
2112.13	22.5
2113.09	21.5
2114.06	22
2115.02	21
2115.98	24
2116.94	23.5
2117.91	21.5
2118.87	23
2119.83	18
2120.79	26.5
2121.75	19.5
2122.71	25
2123.67	22.5
2124.63	25
2125.6	19.5
2126.56	26
2127.52	21
2128.48	20
2129.44	24.5
2130.4	23.5
2131.36	19.5
2132.32	22
2133.28	20
2134.23	21.5
2135.19	24.5
2136.15	24
2137.11	26.5
2138.07	25.5
2139.03	25.5
2139.99	22
2140.95	23.5
2141.9	20
2142.86	22.9792
2143.82	22.4624
2144.78	23.0322
2145.74	24.4545
2146.69	24.0324
2147.65	23.4927
2148.61	22.4841
2149.57	22.1643
2150.52	23.9982
2151.48	21.7502
2152.44	23.1315
2153.39	21.7209
2154.35	22.1625
2155.31	17.5009
2156.26	26.7994
2157.22	24.014
2158.17	24.6154
2159.13	22.9506
2160.08	16.2182
2161.04	24.216
2161.99	23.3294
2162.95	22.1508
2163.91	23.7969
2164.86	24.4826
2165.81	21
2166.77	21.4333
2167.72	22.2245
2168.68	22.9572
2169.63	19.2532
2170.58	24.9406
2171.54	23.8345
2172.49	20.4964
2173.45	21.3799
2174.4	22.8282
2175.35	21.4688
2176.31	22.5
2177.26	22.5174
2178.21	25.5437
2179.16	23.0995
2180.12	22.5616
2181.07	24.0605
2182.02	20.9974
2182.97	23.1228
2183.92	22.5351
2184.88	20.6409
2185.83	20.3595
2186.78	22.6879
2187.73	22.3737
2188.68	23.4555
2189.63	21.7939
2190.58	20.9551
2191.53	21.7926
2192.49	24.9468
2193.43	22.1848
2194.39	22.1196
2195.34	23.8449
2196.28	22.412
2197.24	21.9433
2198.19	20.2442
2199.13	20.566
2200.08	23.7499
2201.03	20.3853
2201.98	22.5314
2202.93	20.2662
2203.88	20.3738
2204.83	21.7547
2205.78	23.221
2206.73	22.387
2207.67	21.7348
2208.62	22.2655
2209.57	22.9733
2210.52	21.8883
2211.47	24.1077
2212.41	22.4466
2213.36	22.2416
2214.31	21.4752
2215.26	22.1578
2216.2	23.1762
2217.15	25.751
2218.1	23.7146
2219.04	20.9457
2219.99	20.865
2220.93	19.8099
2221.88	20.6046
2222.83	19.3019
2223.77	24.0925
2224.72	22.6128
2225.66	23.9036
2226.61	24.5023
2227.55	25.2143
2228.5	23.3749
2229.44	24.255
2230.39	23.6038
2231.33	24.7799
2232.28	23
2233.22	23.5316
2234.17	22.0571
2235.11	23.4608
2236.06	24.3068
2237	26.2156
2237.94	24.9809
2238.89	23.7271
2239.83	23.4927
2240.06	23.5
2241.01	20
2241.96	21.5
2242.9	22
2243.85	26
2244.8	23.5
2245.75	23.5
2246.69	21.5
2247.64	18
2248.59	20.5
2249.53	23
2250.48	22
2251.43	18
2252.37	21
2253.32	24
2254.27	22
2255.21	22
2256.16	21
2257.1	23.5
2258.05	21.5
2259	21
2259.94	23
2260.89	24
2261.83	21.5
2262.78	20.5
2263.72	24.5
2264.67	29.5
2265.61	24
2266.56	23.5
2267.5	25
2268.44	27.5
2269.39	20.5
2270.33	21
2271.27	23.5
2272.22	21
2273.16	23.5
2274.1	25.5
2275.05	23.5
2275.99	20
2276.93	26
2277.88	21
2278.82	19
2279.76	22.5
2280.7	24
2281.65	24.5
2282.59	23
2283.53	25
2284.47	19
2285.41	23.5
2286.35	25.5
2287.29	27
2288.24	23.5
2289.18	22
2290.12	24
2291.06	21
2292	21.5
2292.94	26
2293.88	24.5
2294.82	22.5
2295.76	21.5
2296.7	22.5
2297.64	17.5
2298.58	20.5
2299.52	22
2300.46	23
2301.4	26.5
2302.34	25
2303.28	23
2304.21	22.5
2305.15	23.5
2306.09	25
2307.03	21
2307.97	22
2308.91	20
2309.84	18
2310.78	26
2311.72	24.5
2312.66	24
2313.59	21
2314.53	22.5
2315.47	21.5
2316.4	28.5
2317.34	19
2318.28	25
2319.22	26.5
2320.15	19.5
2321.09	22
2322.02	21
2322.96	25
2323.89	23
2324.83	23
2325.77	23
2326.7	23
2327.64	26.5
2328.57	23
2329.51	23
2330.44	25.5
2331.38	25
2332.31	23.5
2333.25	26
2334.18	27
2335.11	23
2336.05	22
2336.98	25.5
2337.92	26
2338.85	21.5
2339.78	22
2340.72	22
2341.65	25
2342.58	24
2343.52	23
2344.45	25
2345.38	20
2346.31	20
2347.25	18
2348.18	23
2349.11	24.5
2350.04	22
2350.97	26
2351.9	25
2352.84	23.5
2353.77	25
2354.7	26
2355.63	23.5
2356.56	21
2357.49	25
2358.42	25.5
2359.35	22.5
2360.28	20.5
2361.21	22.5
2362.14	25.5
2363.07	20.5
2364	24
2364.93	24
2365.86	24
2366.79	24.5
2367.72	23
2368.65	23.5
2369.58	24.5
2370.51	26.5
2371.44	23.5
2372.36	22
2373.29	22.5
2374.22	19.5
2375.15	22
2376.08	22.5
2377.01	21
2377.93	25.5
2378.86	24.5
2379.79	22
2380.72	22.5
2381.64	19.5
2382.57	22
2383.5	27.5
2384.42	24
2385.35	21.5
2386.28	22.5
2387.2	24.5
2388.13	25.5
2389.06	21
2389.98	26
2390.91	23
2391.83	19
2392.76	21
2393.69	24
2394.61	23
2395.54	25
2396.46	24.5
2397.39	23.5
2398.31	24.5
2399.23	23.5
2400.16	26
2401.08	25.5
2402.01	23.5
2402.93	23
2403.86	26.5
2404.78	22
2405.7	29
2406.63	26.5
2407.55	25.5
2408.47	21.5
2409.4	24.5
2410.32	23
2411.24	27.5
2412.17	26
2413.09	22.5
2414.01	26.5
2414.93	24
2415.85	20.5
2416.78	26.5
2417.7	23
2418.62	22.5
2419.54	21
2420.46	23
2421.38	19.5
2422.31	25
2423.23	24.5
2424.15	21
2425.07	20.5
2425.99	23.5
2426.91	25
2427.83	23
2428.75	19.5
2429.67	21.5
2430.59	25
2431.51	21.5
2432.43	22
2433.35	22
2434.27	22
2435.19	21.5
2436.11	26.5
2437.03	20
2437.94	24.5
2438.86	22
2439.78	25
2440.7	27
2441.62	22.5
2442.54	24.5
2443.46	25
2444.37	24.5
2445.29	25
2446.21	21.5
2447.13	23
2448.04	22.5
2448.96	24
2449.88	25.5
2450.8	27
2451.71	22
2452.63	25
2453.55	20
2454.46	26
2455.38	18.5
2456.29	21.5
2457.21	23
2458.13	24.5
2459.04	22.5
2459.96	24
2460.87	22.5
2461.79	26
2462.7	24
2463.62	23.5
2464.53	24
2465.45	20.5
2466.36	25.5
2467.28	24.5
2468.19	24
2469.11	22
2470.02	28
2470.93	24
2471.85	27.5
2472.76	22.5
2473.67	24.5
2474.59	22.5
2475.5	24.5
2476.42	24
2477.33	25
2478.24	23
2479.15	22
2480.07	22.5
2480.98	23
2481.89	23.5
2482.8	21.5
2483.72	25.5
2484.63	26
2485.54	22
2486.45	25.5
2487.36	22.5
2488.27	21
2489.19	22
2490.1	27
2491.01	21.5
2491.92	23.5
2492.83	24
2493.74	24.5
2494.65	22.5
2495.56	23
2496.47	23.5
2497.38	25.5
2498.29	23
2499.2	23.5
2500.11	24
2501.02	25
2501.93	23
2502.84	22.5
2503.75	25.5
2504.66	20.5
2505.57	24.5
2506.47	25
2507.38	21.5
2508.29	21.5
2509.2	23
2510.11	21
2511.02	27
2511.92	26
2512.83	27
2513.74	23
2514.65	24
2515.55	24
2516.46	24
2517.37	25
2518.28	25
2519.18	20
2520.09	24
2521	25
2521.9	27
2522.81	26
2523.72	24.5
2524.62	24.5
2525.53	23
2526.43	22
2527.34	24.5
2528.24	20.5
2529.15	25.5
2530.06	24.5
2530.96	23
2531.87	20.5
2532.77	25.5
2533.68	25.5
2534.58	21
2535.48	24
2536.39	25.5
2537.29	24
2538.2	23.5
2539.1	22
2540	23.5
2540.91	25.5
2541.81	22
2542.72	26
2543.62	23
2544.52	22
2545.42	24
2546.33	23
2547.23	22.5
2548.13	22
2549.04	23.5
2549.94	23
2550.84	22
2551.74	23
2552.64	26.5
2553.55	26
2554.45	27
2555.35	24.5
2556.25	25.5
2557.15	29
2558.05	25.5
2558.95	27
2559.85	23.5
2560.76	23
2561.66	23.5
2562.56	23.5
2563.46	22.5
2564.36	23
2565.26	25
2566.16	25
2567.06	22
2567.96	26.5
2568.86	30
2569.76	21
2570.66	26.5
2571.55	25
2572.45	25.5
2573.35	22
2574.25	23
2575.15	24.5
2576.05	19.5
2576.95	30
2577.84	24
2578.74	25.5
2579.64	23
2580.54	21.5
2581.44	25.5
2582.33	21.5
2583.23	22
2584.13	22.5
2585.03	24
2585.92	30
2586.82	26
2587.72	24
2588.61	18.5
2589.51	25.5
2590.41	26
2591.3	22
2592.2	27
2593.09	20
2593.99	28.5
2594.89	24.5
2595.78	25.5
2596.68	23.5
2597.57	29.5
2598.47	22.5
2599.36	26
2600.26	26
2601.15	20.5
2602.05	24.5
2602.94	22
2603.84	26
2604.73	22
2605.63	27
2606.52	23
2607.41	22
2608.31	27
2609.2	22.5
2610.09	22.5
2610.99	26.5
2611.88	23
2612.77	27
2613.67	22.5
2614.56	26.5
2615.45	25.5
2616.35	26.5
2617.24	23
2618.13	25
2619.02	26
2619.91	22
2620.81	25
2621.7	23.5
2622.59	26
2623.48	27
2624.37	21.5
2625.26	26
2626.15	23.5
2627.05	23
2627.94	26
2628.83	25.5
2629.72	25
2630.61	23
2631.5	25
2632.39	24.5
2633.28	21.5
2634.17	26
2635.06	23.5
2635.95	26
2636.84	24
2637.73	23
2638.62	22.5
2639.51	26.5
2640.4	25
2641.28	27
2642.17	23.5
2643.06	26.5
2643.95	23
2644.84	24
2645.73	24
2646.62	22
2647.5	21
2648.39	27
2649.28	21.5
2650.17	28
2651.05	19.5
2651.94	20
2652.83	26
2653.72	21.5
2654.6	23.5
2655.49	23.5
2656.38	22
2657.26	27
2658.15	26
2659.04	21
2659.92	23.5
2660.81	25
2661.69	24.5
2662.58	21
2663.47	24
2664.35	26.5
2665.24	24.5
2666.12	22
2667.01	27.5
2667.89	20.5
2668.78	22.5
2669.66	21
2670.55	24.5
2671.43	24.5
2672.32	25
2673.2	24.5
2674.08	26.5
2674.97	26
2675.85	23
2676.74	26
2677.62	19
2678.5	26
2679.39	25.5
2680.27	27.5
2681.15	25.5
2682.04	24.5
2682.92	27
2683.8	22.5
2684.68	26
2685.57	27.5
2686.45	26
2687.33	23.5
2688.21	22
2689.09	24
2689.98	25
2690.86	27.5
2691.74	20
2692.62	21.5
2693.5	22
2694.38	25.5
2695.27	21.5
2696.15	25
2697.03	26
2697.91	21.5
2698.79	21
2699.67	25.5
2700.55	20.5
2701.43	25
2702.31	26
2703.19	25.5
2704.07	26
2704.95	20
2705.83	21
2706.71	25.5
2707.59	24
2708.47	26.5
2709.34	24.5
2710.22	22
2711.1	25
2711.98	19
2712.86	22
2713.74	23.5
2714.62	21
2715.49	24
2716.37	22.5
2717.25	23.5
2718.13	24.5
2719.01	28
2719.88	24
2720.76	19.5
2721.64	21.5
2722.51	22
2723.39	21.5
2724.27	25
2725.14	27
2726.02	21
2726.9	23
2727.77	28
2728.65	27.5
2729.53	23
2730.4	23.5
2731.28	23.5
2732.15	26
2733.03	26
2733.91	20.5
2734.78	22
2735.66	22.5
2736.53	21
2737.41	22.5
2738.28	27.5
2739.16	25.5
2740.03	25
2740.9	25
2741.78	26.5
2742.65	21.5
2743.53	24
2744.4	26
2745.27	24
2746.15	28
2747.02	23
2747.89	22
2748.77	24.5
2749.64	23.5
2750.51	22
2751.39	23
2752.26	23
2753.13	23.5
2754.01	22.5
2754.88	26
2755.75	25.5
2756.62	22.5
2757.49	25
2758.37	22
2759.24	23
2760.11	19
2760.98	21.5
2761.85	23.5
2762.72	24
2763.59	27
2764.46	23
2765.34	26
2766.21	24
2767.08	19.5
2767.95	26.5
2768.82	25
2769.69	24
2770.56	23
2771.43	21.5
2772.3	20
2773.17	22
2774.04	23
2774.91	27
2775.78	27
2776.65	24
2777.51	23
2778.38	21
2779.25	21.5
2780.12	24
2780.99	24
2781.86	25.5
2782.73	23
2783.59	26.5
2784.46	24
2785.33	21.5
2786.2	25
2787.07	21
2787.93	21
2788.8	20
2789.67	25.5
2790.54	28.5
2791.4	21
2792.27	22
2793.14	23.5
2794	24
2794.87	22
2795.74	21
2796.6	24
2797.47	21.5
2798.34	23.5
2799.2	24.5
2800.07	26
2800.93	25.5
2801.8	25
2802.66	23
2803.53	24
2804.39	27.5
2805.26	20
2806.12	26.5
2806.99	24
2807.85	23.5
2808.72	23.5
2809.58	27
2810.45	23
2811.31	22
2812.18	24.5
2813.04	25.5
2813.9	24
2814.77	24
2815.63	20.5
2816.49	20.5
2817.36	26
2818.22	18
2819.08	27
2819.95	26
2820.81	23
2821.67	22
2822.53	25
2823.4	25
2824.26	24
2825.12	20
2825.98	21
2826.84	24.5
2827.71	25
2828.57	21.5
2829.43	28
2830.29	24
2831.15	22.5
2832.01	24
2832.88	24
2833.74	25
2834.6	25
2835.46	24.5
2836.32	23.5
2837.18	26.5
2838.04	24.5
2838.9	25
2839.76	25
2840.62	25.5
2841.48	27
2842.34	21
2843.2	23
2844.06	21
2844.92	24.5
2845.78	22
2846.63	21
2847.49	24.5
2848.35	23.5
2849.21	28
2850.07	24
2850.93	23
2851.79	20
2852.64	22.5
2853.5	21.5
2854.36	22.5
2855.22	21
2856.08	26
2856.93	23
2857.79	25.5
2858.65	21
2859.51	23
2860.36	24.5
2861.22	23
2862.08	24.5
2862.93	22
2863.79	22.5
2864.65	25
2865.5	26.5
2866.36	23.5
2867.22	25
2868.07	25.5
2868.93	25.5
2869.78	24
2870.64	20.5
2871.49	24
2872.35	23.5
2873.21	24
2874.06	26
2874.91	20.5
2875.77	23.5
2876.62	23.5
2877.48	22.5
2878.33	23.5
2879.19	24
2880.04	24.5
2880.9	22
2881.75	23.5
2882.6	24
2883.46	24
2884.31	27
2885.17	25.5
2886.02	23.5
2886.87	27.5
2887.73	26
2888.58	19.5
2889.43	23
2890.28	30
2891.14	26
2891.99	27
2892.84	24.5
2893.69	28
2894.55	25.5
2895.4	24
2896.25	28.5
2897.1	28
2897.95	26
2898.8	29.5
2899.66	26
2900.51	28
2901.36	28
2902.21	29
2903.06	31
2903.91	29.5
2904.76	26
2905.61	27.5
2906.46	25
2907.31	27
2908.16	29.5
2909.01	30
2909.86	26.5
2910.71	29
2911.56	29
2912.41	28
2913.26	29
2914.11	25
2914.96	22
2915.81	20
2916.66	25
2917.51	27.5
2918.36	23.5
2919.2	23
2920.05	23
2920.9	23
2921.75	21.5
2922.6	19
2923.45	22.5
2924.29	22
2925.14	27
2925.99	22
2926.84	22.5
2927.68	25
2928.53	19.5
2929.38	26
2930.23	25.5
2931.07	22
2931.92	24.5
2932.77	23.5
2933.61	22
2934.46	23.5
2935.3	24
2936.15	21.5
2937	24
2937.84	25
2938.69	22.5
2939.53	23
2940.38	24.5
2941.23	28.5
2942.07	23
2942.92	26.5
2943.76	21
2944.61	26
2945.45	25
2946.3	22
2947.14	25
2947.98	23
2948.83	25.5
2949.67	24
2950.52	21.5
2951.36	25
2952.2	24.5
2953.05	27
2953.89	23.5
2954.74	26
2955.58	21.5
2956.42	26
2957.27	26.5
2958.11	23.5
2958.95	23.5
2959.79	18
2960.64	25
2961.48	22
2962.32	21
2963.16	23
2964.01	27
2964.85	29
2965.69	23
2966.53	25.5
2967.37	19.5
2968.21	31.5
2969.06	25
2969.9	24
2970.74	24
2971.58	24.0073
2972.42	23.4823
2973.26	24.4837
2974.1	23.5633
2974.94	23.0105
2975.78	26.7864
2976.62	21.0418
2977.46	25.4348
2978.3	22.1748
2979.14	24.1617
2979.98	24.8798
2980.82	24.7841
2981.66	22.613
2982.5	21.8604
2983.34	21.8487
2984.18	20.0438
2985.02	20.5766
2985.86	19.0421
2986.7	22.3179
2987.54	24.1674
2988.38	23.4904
2989.21	25.2888
2990.05	23.1933
2990.89	22.7522
2991.73	22.8583
2992.57	24.7315
2993.41	24.0191
2994.24	20.5216
2995.08	21.8198
2995.92	26.2322
2996.76	23.1227
2997.59	21.5675
2998.43	22.7263
2999.27	23.7848
3000.1	21.5504
3000.94	24.414
3001.78	22.4172
3002.61	21.6295
3003.45	25.8684
3004.29	21.6505
3005.12	22.071
3005.96	24.5898
3006.8	20.4516
3007.63	22.6635
3008.47	21.1809
3009.3	21.8595
3010.14	22.1743
3010.97	23.5505
3011.81	24.2438
3012.64	22.3849
3013.48	21.4222
3014.31	21.827
3015.15	23.3909
3015.98	21.6647
3016.82	22.558
3017.65	22.4499
3018.49	23.0329
3019.32	23.1799
3020.16	22.9104
3020.99	23.2972
3021.82	23.1368
3022.66	21.2535
3023.49	23.8762
3024.32	21.9866
3025.16	21.9169
3025.99	21.182
3026.82	22.9803
3027.66	22.0708
3028.49	22.9979
3029.32	22.1219
3030.16	22.0888
3030.99	23.5365
3031.82	22.4775
3032.65	22.6421
3033.49	21.6168
3034.32	21.6514
3035.15	23.093
3035.98	22.5
3036.81	21.3835
3037.64	19.8436
3038.48	19.6365
3039.31	20.0977
3040.14	23.151
3040.97	22.7876
3041.8	21.2883
3042.63	22.2546
3043.46	22.6006
3044.29	21.1868
3045.12	21.5704
3045.95	22.4132
3046.78	22.0507
3047.61	22.3613
3048.44	22.2046
3049.27	22.617
3050.1	22.3939
3050.93	22.1543
3051.76	23.5873
3052.59	22.214
3053.42	20.2999
3054.25	20.93
3055.08	21.713
3055.91	21.6312
3056.74	22.1231
3057.26	24
3058.09	19
3058.92	22.5
3059.76	23
3060.59	22.5
3061.42	18
3062.26	21.5
3063.09	24.5
3063.92	20
3064.75	26.5
3065.59	23.5
3066.42	22
3067.25	23
3068.08	24.5
3068.91	23
3069.74	22.5
3070.58	23
3071.41	26.5
3072.24	24
3073.07	19.5
3073.9	21
3074.73	22
3075.56	21.5
3076.39	21
3077.22	25
3078.05	20.5
3078.88	21
3079.71	23
3080.55	18.5
3081.38	20
3082.2	25.5
3083.03	23
3083.86	21.5
3084.69	25
3085.52	24.5
3086.35	19
3087.18	21
3088.01	21
3088.84	24.5
3089.67	20
3090.5	23.5
3091.33	24
3092.15	20
3092.98	22.5
3093.81	21
3094.64	21
3095.47	20
3096.29	18
3097.12	22
3097.95	25.5
3098.78	22.5
3099.6	21.5
3100.43	23
3101.26	22.5
3102.09	21.5
3102.91	24
3103.74	20.5
3104.57	21.5
3105.39	22.5
3106.22	22
3107.05	23.5
3107.87	21.5
3108.7	22
3109.52	22
3110.35	22
3111.18	19.5
3112	20.5
3112.83	20
3113.65	23
3114.48	20.5
3115.3	20.5
3116.13	24.5
3116.95	20.5
3117.78	27.5
3118.6	23.5
3119.43	21
3120.25	19
3121.08	21.5
3121.9	19
3122.73	23.5
3123.55	23
3124.37	24.5
3125.2	21.5
3126.02	24.5
3126.84	25.5
3127.67	23.5
3128.49	17
3129.31	25.5
3130.14	20
3130.96	23
3131.78	20
3132.61	24
3133.43	23
3134.25	23.5
3135.07	23.5
3135.9	20.5
3136.72	25.5
3137.54	21
3138.36	25.5
3139.18	22
3140.01	27.5
3140.83	28
3141.65	22.5
3142.47	23
3143.29	20
3144.11	22.5
3144.93	25
3145.75	23
3146.58	19
3147.4	19
3148.22	24
3149.04	23.5
3149.86	27
3150.68	21
3151.5	24.5
3152.32	16.5
3153.14	23
3153.96	24
3154.78	22.5
3155.6	21.5
3156.42	22
3157.23	18.5
3158.05	25
3158.87	22
3159.69	24
3160.51	25
3161.33	26
3162.15	24.5
3162.97	21.5
3163.79	24
3164.6	24
3165.42	23.5
3166.24	24.5
3167.06	23
3167.88	24
3168.69	23.5
3169.51	23
3170.33	20
3171.15	22.5
3171.96	21.5
3172.78	19.5
3173.6	24
3174.41	25.5
3175.23	21
3176.05	23
3176.86	18
3177.68	22
3178.5	20
3179.31	22.5
3180.13	22.5
3180.95	21
3181.76	22.5
3182.58	22
3183.39	21.5
3184.21	20
3185.02	24.5
3185.84	18
3186.65	22.5
3187.47	24.5
3188.28	23.5
3189.1	22.5
3189.91	18
3190.73	22
3191.54	19.5
3192.36	24
3193.17	23
3193.99	21.5
3194.8	23
3195.61	26
3196.43	22
3197.24	24
3198.05	26
3198.87	25
3199.68	27
3200.49	27.5
3201.31	23
3202.12	20
3202.93	23.5
3203.75	21
3204.56	23
3205.37	24
3206.18	21.5
3207	24.5
3207.81	24
3208.62	23
3209.43	22
3210.24	24.5
3211.06	24
3211.87	25
3212.68	21.5
3213.49	26.5
3214.3	23
3215.11	23
3215.92	23.5
3216.74	25.5
3217.55	23
3218.36	21
3219.17	24
3219.98	24.5
3220.79	25.5
3221.6	22.5
3222.41	26
3223.22	24
3224.03	23
3224.84	26
3225.65	19.5
3226.46	22.5
3227.27	24
3228.08	23
3228.89	26
3229.7	26
3230.5	24.5
3231.31	22.5
3232.12	24.5
3232.93	20.5
3233.74	23
3234.55	24.5
3235.36	23.5
3236.16	20.5
3236.97	24
3237.78	26
3238.59	24
3239.4	22.5
3240.2	22
3241.01	21
3241.82	24.5
3242.63	22.5
3243.43	24
3244.24	24
3245.05	25
3245.86	23
3246.66	25
3247.47	21
3248.28	25.5
3249.08	23
3249.89	23.5
3250.69	22
3251.5	23
3252.31	27.5
3253.11	28
3253.92	25.5
3254.72	24.5
3255.53	24
3256.34	25
3257.14	25.5
3257.95	24.5
3258.75	22
3259.56	20
3260.36	23
3261.17	23
3261.97	23
3262.77	22
3263.58	20.5
3264.38	23
3265.19	24
3265.99	22
3266.8	24.5
3267.6	24.5
3268.4	25.5
3269.21	22
3270.01	25.5
3270.81	26.5
3271.62	25.5
3272.42	22
3273.22	27
3274.03	21
3274.83	22
3275.63	24
3276.43	22
3277.24	23
3278.04	25
3278.84	26.5
3279.64	27
3280.45	23
3281.25	24
3282.05	22
3282.85	23.5
3283.65	22.5
3284.46	21.5
3285.26	25
3286.06	22
3286.86	25
3287.66	20.5
3288.46	24
3289.26	23
3290.06	22
3290.86	20
3291.66	24
3292.46	20.5
3293.26	23
3294.06	24.5
3294.86	25.5
3295.66	23
3296.46	21.5
3297.26	22
3298.06	24.5
3298.86	23.5
3299.66	25
3300.46	21.5
3301.26	22.5
3302.06	20
3302.86	23.5
3303.66	24
3304.46	22
3305.26	21
3306.05	22.5
3306.85	21.5
3307.65	26
3308.45	21.5
3309.25	19.5
3310.04	25.5
3310.84	25.5
3311.64	22.5
3312.44	25
3313.24	21
3314.03	18.5
3314.83	21
3315.63	23.5
3316.42	21
3317.22	20
3318.02	26
3318.82	22
3319.61	25
3320.41	23
3321.2	24.5
3322	23
3322.8	23
3323.59	20.5
3324.39	24.5
3325.19	21.5
3325.98	23
3326.78	22
3327.57	26.5
3328.37	23
3329.16	22.5
3329.96	22
3330.75	23.5
3331.55	25
3332.34	21
3333.14	23
3333.93	26
3334.73	23
3335.52	23
3336.32	27
3337.11	26
3337.9	23.5
3338.7	25.5
3339.49	23.5
3340.29	25.5
3341.08	29
3341.87	26.5
3342.67	26
3343.46	23.5
3344.25	26
3345.05	25
3345.84	22
3346.63	25
3347.42	27
3348.22	23
3349.01	21.5
3349.8	26.5
3350.59	24.5
3351.39	24
3352.18	23
3352.97	24
3353.76	23
3354.55	21
3355.35	23
3356.14	24
3356.93	25
3357.72	25.5
3358.51	22.5
3359.3	24
3360.09	19.5
3360.88	22
3361.67	19.5
3362.47	24
3363.26	24.5
3364.05	23.5
3364.84	22
3365.63	23
3366.42	28
3367.21	26.5
3368	20
3368.79	22
3369.58	23.5
3370.37	21.5
3371.16	28
3371.95	22
3372.73	23.5
3373.52	22.5
3374.31	23.5
3375.1	21.5
3375.89	25.5
3376.68	24
3377.47	21
3378.26	28.5
3379.04	23
3379.83	21
3380.62	25.5
3381.41	24
3382.2	22.5
3382.98	23.5
3383.77	23.5
3384.56	23
3385.35	21.5
3386.14	21.5
3386.92	22.5
3387.71	25
3388.5	25.5
3389.28	23.5
3390.07	25
3390.86	25
3391.64	22
3392.43	27.5
3393.22	18
3394	28.5
3394.79	25
3395.58	24
3396.36	25
3397.15	22
3397.93	24.5
3398.72	24
3399.5	19
3400.29	26.5
3401.07	22.5
3401.86	22
3402.65	26
3403.43	26.5
3404.22	25
3405	24.5
3405.79	28
3406.57	25.5
3407.35	24
3408.14	20
3408.92	24
3409.71	20
3410.49	23.5
3411.27	24
3412.06	25.5
3412.84	21
3413.63	23
3414.41	24
3415.19	25
3415.98	27
3416.76	24
3417.54	24
3418.32	22.5
3419.11	24
3419.89	23
3420.67	21
3421.46	25
3422.24	20
3423.02	22
3423.8	23.5
3424.58	23
3425.37	21
3426.15	23
3426.93	21.5
3427.71	21
3428.49	24
3429.27	22
3430.06	24.5
3430.84	23.5
3431.62	25
3432.4	22.5
3433.18	21.5
3433.96	22
3434.74	25
3435.52	22
3436.3	24.5
3437.08	28
3437.86	27
3438.64	24
3439.42	21.5
3440.2	19
3440.98	25.5
3441.76	28.5
3442.54	20
3443.32	22.5
3444.1	26
3444.88	21
3445.66	23
3446.44	23
3447.22	25.5
3448	25
3448.78	26
3449.55	24
3450.33	28
3451.11	22.5
3451.89	21.5
3452.67	25
3453.45	26
3454.22	24.5
3455	22.5
3455.78	23
3456.56	25.5
3457.33	24.5
3458.11	23
3458.89	20.5
3459.67	21
3460.44	23.5
3461.22	24
3462	22.5
3462.77	25
3463.55	23
3464.33	23.5
3465.1	23.5
3465.88	23.5
3466.66	26.5
3467.43	24
3468.21	21.5
3468.99	25.5
3469.76	25
3470.54	24
3471.31	22.5
3472.09	22
3472.86	21.5
3473.64	25
3474.41	27
3475.19	24.5
3475.96	24
3476.74	23.5
3477.51	22
3478.29	26.5
3479.06	21
3479.84	27.5
3480.61	24.5
3481.39	23
3482.16	26.5
3482.93	20
3483.71	26.5
3484.48	22
3485.26	24.5
3486.03	25
3486.8	23.5
3487.58	25
3488.35	21.5
3489.12	23
3489.9	25
3490.67	25.5
3491.44	27
3492.21	20.5
3492.99	24
3493.76	21.5
3494.53	22
3495.3	26
3496.08	23
3496.85	22.5
3497.62	23.5
3498.39	24.5
3499.16	23
3499.94	23
