#Acq. time (s)=	5
#Accumulations=	5
#Range (cm-¹)=	100...3500
#Windows=	4
#Autofocus=	Off
#AutoExposure=	Off
#Spike filter=	Multiple accum.
#Delay time (s)=	0
#Binning=	1
#Readout mode=	Signal
#DeNoise=	Off
#ICS correction=	Off
#Dark correction=	Off
#Inst. Process=	Off
#Instrument=	LabRAM HR Evol
#Detector=	Syncerity OE
#Objective=	x100_VIS
#Grating=	600 (500nm)
#ND Filter=	25%
#Laser=	633nm_Edge
#Hole=	100.021
#Range=	Visible
#Project=	verificaciones
#Sample=	a2
#Site=	plain
#Title=	bolusa2plain
#Remark=	com
#Date=	16.01.2026 14:03
#Acquired=	16.01.2026 14:03:43
100.687	27
101.971	34
103.254	34
104.537	28.5
105.82	33
107.103	33
108.387	30.5
109.669	30
110.951	30
112.233	32
113.514	32.5
114.796	31
116.077	28
117.358	33
118.639	32.5
119.919	30
121.2	30
122.48	34
123.76	36.5
125.039	31
126.319	34
127.598	33
128.877	36.5
130.156	33
131.435	34
132.713	40
133.992	37.5
135.268	36.5
136.546	35
137.824	36.5
139.101	35.5
140.378	38.5
141.655	31.5
142.932	35
144.209	39.5
145.485	34.5
146.76	43
148.036	38
149.312	42.5
150.587	42
151.862	41.5
153.138	42.5
154.411	45
155.686	38.5
156.96	43.5
158.235	38
159.509	40
160.781	46
162.055	41
163.328	41
164.602	41.5
165.873	42.5
167.146	38
168.419	39
169.691	37.5
170.962	37
172.234	37.5
173.506	44.5
174.777	40.5
176.047	42
177.318	41
178.589	39
179.859	38
181.129	41
182.4	41.5
183.668	44.5
184.938	42
186.207	43
187.476	37.5
188.746	41
190.013	39.5
191.282	46
192.551	40.5
193.818	45.5
195.086	40
196.353	38.5
197.621	50
198.887	39
200.154	35
201.422	42
202.687	42
203.954	39
205.219	37
206.486	41.5
207.751	37
209.017	39
210.281	36.5
211.547	39
212.811	35
214.076	34.5
215.339	30
216.603	40
217.867	39.5
219.13	34
220.395	38
221.657	32
222.921	30
224.183	34.5
225.445	33.5
226.708	36.5
227.97	34
229.232	33.5
230.493	32.5
231.754	34.5
233.016	31
234.277	29.5
235.537	31
236.799	32.5
238.059	33.5
239.318	29.5
240.579	36
241.839	33.5
243.098	33
244.358	29
245.617	31
246.875	30.5
248.133	32
249.393	30
250.651	29
251.908	30
253.166	30
254.424	31.5
255.681	32
256.938	29
258.195	29.5
259.451	30
260.709	30
261.965	36
263.221	31.5
264.476	28
265.732	31
266.988	33.5
268.243	32
269.498	33.5
270.753	34
272.007	32
273.261	29.5
274.515	30
275.769	28.5
277.022	28.5
278.277	32.5
279.53	24.5
280.783	29.5
282.036	32.5
283.289	33
284.541	30
285.793	30
287.045	31
288.297	28
289.548	27.5
290.8	27.5
292.051	31
293.302	27
294.552	32
295.803	29.5
297.053	26.5
298.303	30
299.553	26.5
300.803	27
302.053	29.5
303.302	30
304.551	29.5
305.8	27.5
307.047	29
308.296	26.5
309.544	29
310.792	28.5
312.04	28
313.288	34
314.535	34.5
315.783	30
317.03	30
318.275	29
319.522	30.5
320.768	26.5
322.015	32.5
323.261	30.5
324.505	28
325.751	25
326.997	30.5
328.242	28
329.487	29.5
330.73	29.5
331.975	26
333.22	34.5
334.464	28
335.707	30.5
336.95	29.5
338.194	27
339.438	27
340.68	28.5
341.923	32
343.166	31
344.407	30
345.649	29
346.892	30
348.132	28.5
349.374	23
350.616	27
351.856	30.5
353.097	28
354.337	36.5
355.578	25.5
356.818	33
358.058	26
359.298	27.5
360.536	33.5
361.776	29.5
363.016	29.5
364.254	28
365.493	30
366.731	30.5
367.97	27
369.207	30
370.446	30
371.683	27.5
372.921	29.5
374.157	27.5
375.395	26.5
376.631	27
377.868	31
379.104	28
380.341	29
381.576	24
382.813	34
384.048	27
385.284	30
386.518	33
387.753	28
388.988	34
390.222	29
391.457	28
392.691	25
393.924	31
395.159	25.5
396.392	31
397.624	31.5
398.858	28
400.091	27
401.323	30.5
402.556	28
403.788	28.5
405.019	31.5
406.252	27.5
407.483	26
408.714	32
409.945	27
411.177	27
412.407	29.5
413.637	30
414.867	26
416.099	33
417.328	30
418.558	26.5
419.787	27
421.016	31
422.246	29
423.475	27.5
424.703	29.5
425.931	25.5
427.159	30
428.388	30.5
429.616	26
430.843	30
432.071	30
433.298	26
434.524	28
435.751	23.5
436.977	26
438.204	31.5
439.431	30
440.657	31
441.883	30.5
443.108	30
444.333	32
445.558	24.5
446.783	28
448.008	26
449.232	33
450.457	27.5
451.681	32.5
452.905	31.5
454.128	29
455.352	30.5
456.575	30.5
457.798	32
459.021	29.5
460.244	28
461.466	34
462.689	30.5
463.909	32
465.131	34.5
466.353	34.5
467.575	32.5
468.796	32.5
470.017	34
471.238	37
472.459	34.5
473.679	38
474.898	40
476.118	40.5
477.338	43.5
478.558	43.5
479.778	43.5
480.997	50
482.215	52
483.434	54
484.653	52.5
485.871	61
487.09	61
488.307	60
489.525	63.5
490.743	63
491.96	64
493.176	57
494.394	54
495.611	52.5
496.826	50
498.043	52
499.259	48.5
500.474	48
501.69	48.5
502.906	44
504.121	41
505.336	45.5
506.551	38.5
507.765	37.5
508.98	36
510.195	37
511.408	40
512.622	33.5
513.835	37.5
515.049	37
516.263	36.5
517.475	31.5
518.689	32.5
519.9	33
521.113	33
522.325	27.5
523.537	33.5
524.748	36
525.961	32.5
527.171	33.5
528.383	33
529.594	31.5
530.805	30.5
532.015	33
533.226	27
534.435	27
535.646	29
536.855	27.5
538.066	29.5
539.274	32.5
540.483	33
541.693	34
542.901	29
544.11	26
545.318	29
546.526	27
547.734	29.5
548.942	30
550.149	32.5
551.357	30
552.563	34
553.77	30.5
554.978	32
556.184	29
557.389	25
558.596	29
559.802	32
561.007	31.5
562.212	29
563.419	32.5
564.623	27
565.828	30
567.032	29.5
568.238	31
569.442	31
570.646	27
571.849	32
573.054	26.5
574.257	29.5
575.46	31
576.663	28
577.866	28
579.068	29
580.272	29.5
581.474	25.5
582.676	33
583.877	28
585.079	25
586.28	30
587.481	26.5
588.682	27.5
589.883	28
591.083	27.5
592.285	31
593.485	27
594.685	29
595.885	31.5
597.084	30
598.284	33
599.483	33.5
600.682	27.5
601.881	31
603.08	29
604.278	30.5
605.476	27.5
606.674	29.5
607.872	28.5
609.07	27
610.266	27.5
611.463	29.5
612.661	31.5
613.857	29
615.054	28
616.251	25.5
617.447	32
618.643	27
619.839	29.5
621.035	31.5
622.229	33
623.425	32
624.62	28.5
625.815	27
627.01	31
628.205	28.5
629.398	27
630.592	29
631.786	29
632.98	31.5
634.172	28.5
635.366	31
636.559	29
637.753	26
638.944	25
640.137	27
641.33	25
642.522	28
643.713	34
644.905	30.5
646.097	31.5
647.287	28.5
648.478	29
649.67	29.5
650.859	26
652.05	31.5
653.241	30
654.43	29.5
655.621	26
656.811	32
657.999	28.5
659.189	31.5
660.378	30
661.567	33.5
662.755	33
663.944	27.5
665.133	30.5
666.32	29.5
667.508	30.5
668.695	35.5
669.884	32
671.07	25.5
672.258	33
673.444	32.5
674.631	30
675.817	31.5
677.004	33.5
678.19	38.5
679.376	35
680.561	36
681.746	37
682.932	38.5
684.117	34.5
685.302	36
686.487	38
687.672	35
688.856	32.5
690.039	34
691.224	35
692.407	36.5
693.59	36.5
694.774	35
695.957	31.5
697.14	35.5
698.323	35
699.505	39.5
700.687	38
701.87	37
703.052	41.5
704.233	47
705.414	46.5
706.597	49
707.778	55
708.958	56.5
710.139	48.5
711.32	46
712.5	44
713.68	42
714.86	35.5
716.039	39
717.22	31
718.399	29.5
719.578	32.5
720.757	27.5
721.935	31
723.114	27.5
724.292	29
725.471	26.5
726.649	31
727.827	30.5
729.004	31
730.182	33
731.359	28.5
732.536	31
733.712	29
734.889	31
736.065	32
737.242	30.5
738.418	33
739.593	30.5
740.769	30
741.945	30
743.12	29.5
744.295	29
745.47	29.5
746.644	29
747.819	29.5
748.993	30.5
750.168	33.5
751.342	32
752.515	28.5
753.689	33
754.862	33
756.036	27.5
757.209	27
758.382	28.5
759.553	28.5
760.725	27
761.898	29
763.07	32
764.242	34
765.414	32
766.584	33.5
767.755	30
768.927	24.5
770.098	27
771.269	26
772.438	34
773.608	28
774.779	29.5
775.949	30.5
777.117	29
778.287	29
779.457	30.5
780.626	29
781.794	31.5
782.963	29
784.132	31.5
785.299	32.5
786.468	32
787.636	33
788.803	32.5
789.971	30
791.139	32.5
792.305	31
793.472	33.5
794.638	29
795.805	30.5
796.972	30.5
798.138	32
799.304	31
800.469	29
801.635	28
802.801	33.5
803.966	31
805.131	27
806.295	27
807.461	29.5
808.624	32
809.789	27
810.952	30
812.117	28.5
813.28	32.5
814.444	32.5
815.607	28
816.769	30
817.933	29.5
819.095	27.5
820.258	30
821.42	25
822.583	26.5
823.744	29.5
824.905	31
826.068	23
827.228	26
828.389	24
829.551	30
830.711	26.5
831.871	24
833.032	30
834.192	31
835.352	27.5
836.513	28.5
837.672	27
838.831	27.5
839.99	26.5
841.15	27.5
842.308	26
843.466	26.5
844.624	26
845.784	29
846.941	30
848.099	27.5
849.256	27.5
850.414	28
851.572	26
852.729	27.5
853.886	28
855.042	31.5
856.198	28
857.355	31
858.512	28.5
859.668	26
860.823	30
861.979	28
863.134	35
864.289	30.5
865.444	28
866.599	29
867.753	31
868.908	29
870.062	30
871.216	30
872.37	27
873.523	28
874.677	30
875.83	24
876.983	28
878.136	27
879.289	32.5
880.441	26
881.594	29
882.746	30.5
883.898	26.5
885.05	32
886.201	28.5
887.353	25.5
888.504	25.5
889.655	28.5
890.806	31
891.956	28.5
893.107	32
894.257	32
895.407	32
896.557	25
897.707	28.5
898.856	29
900.005	25
901.154	27.5
902.304	28.5
903.453	25.5
904.6	25.5
905.749	27
906.897	25
908.046	28.5
909.192	24.5
910.34	28.5
911.488	26.5
912.634	29.5
913.782	27.5
914.929	26
916.076	28.5
917.222	24
918.368	21.5
919.515	28.5
920.66	28
921.806	24.5
922.951	27
924.097	28
925.242	29.5
926.387	27.5
927.532	20.5
928.676	25
929.821	29.5
930.965	32
932.109	27
933.253	29.5
934.396	27
935.54	25.5
936.683	27
937.826	29.5
938.969	31.5
940.112	26.5
941.254	30.5
942.397	29.5
943.538	26
944.681	28
945.822	25
946.964	26
948.105	30
949.246	26
950.388	25.5
951.528	25
952.669	26.5
953.809	29.5
954.949	29.5
956.09	29
957.229	32
958.369	28
959.509	27.5
960.648	28
961.786	24
962.926	26.5
964.065	25
965.203	30.5
966.342	24.5
967.48	27
968.618	26
969.755	22
970.894	24
972.031	26
973.168	24.5
974.305	24
975.441	27.5
976.579	26.5
977.715	25
978.851	24.5
979.987	25
981.123	28.5
982.26	30
983.395	27
984.531	25
985.666	27.5
986.8	29
987.935	29.5
989.07	24
990.204	26.5
991.338	27
992.472	25
993.607	25
994.741	31.5
995.874	28
997.008	28
998.141	29.5
999.274	27
1000.41	24.5
1001.54	25
1002.67	21
1003.8	25.5
1004.94	27
1006.07	27.5
1007.2	26.5
1008.33	28
1009.46	26
1010.59	25.5
1011.72	27.5
1012.85	28.5
1013.99	27.5
1015.12	25
1016.25	26.5
1017.38	25.5
1018.51	29
1019.63	28.5
1020.76	23
1021.89	26.5
1023.02	28
1024.15	26
1025.28	26.5
1026.41	27
1027.54	30.5
1028.67	27.5
1029.79	27
1030.92	23.5
1032.05	26.5
1033.18	27.5
1034.3	29
1035.43	29
1036.56	26
1037.68	27.5
1038.81	28.5
1039.94	21
1041.06	29
1042.19	25
1043.31	22.5
1044.44	24
1045.57	26.5
1046.69	24.5
1047.82	27
1048.94	25.5
1050.07	30
1051.19	23.5
1052.31	25.5
1053.44	25.5
1054.56	26.5
1055.69	24
1056.81	27.5
1057.93	26
1059.06	26
1060.18	25.5
1061.3	22.5
1062.42	24
1063.55	23
1064.67	26.5
1065.79	22.5
1066.91	29.5
1068.03	21
1069.16	28
1070.28	25
1071.4	27
1072.52	29
1073.64	27
1074.76	26
1075.88	23
1077	24
1078.12	27.5
1079.24	27
1080.36	23
1081.48	22.5
1082.6	26.5
1083.72	25
1084.84	26
1085.96	24.5
1087.08	27
1088.2	22.5
1089.31	29.5
1090.43	28
1091.55	27
1092.67	26
1093.78	26.5
1094.9	26
1096.02	25.5
1097.14	28
1098.25	23
1099.37	25
1100.49	26.5
1101.6	24
1102.72	24.5
1103.83	25.5
1104.95	27
1106.07	26
1107.18	26
1108.3	25
1109.41	25
1110.52	25.5
1111.64	28
1112.75	24
1113.87	25.5
1114.98	19
1116.1	28
1117.21	26
1118.32	25
1119.44	22
1120.55	25
1121.66	20
1122.78	24.5
1123.89	23.5
1125	23.5
1126.11	25
1127.23	25
1128.34	26
1129.45	26
1130.56	25.5
1131.67	25
1132.78	20.5
1133.89	27
1135	23.5
1136.12	28
1137.23	25.5
1138.34	23.5
1139.45	28
1140.56	26.5
1141.67	25.5
1142.78	22.5
1143.89	24.5
1144.99	23.5
1146.1	25
1147.21	24.5
1148.32	26.5
1149.43	26
1150.54	24.5
1151.65	25.5
1152.75	23.5
1153.86	29
1154.97	26.5
1156.08	24.5
1157.18	25.5
1158.29	23
1159.4	23.5
1160.5	28
1161.61	22.5
1162.72	28
1163.82	26
1164.93	27
1166.03	26
1167.14	25.5
1168.24	24.5
1169.35	25
1170.45	25
1171.56	25
1172.66	23.5
1173.77	24.5
1174.87	25.5
1175.98	21
1177.08	26
1178.19	25
1179.29	26
1180.39	27
1181.5	27
1182.6	26
1183.7	26
1184.8	25.5
1185.91	30.5
1187.01	27.5
1188.11	25
1189.21	25
1190.32	22.5
1191.42	26.5
1192.52	24
1193.62	25.5
1194.72	22.5082
1195.82	23.9607
1196.92	24.4681
1198.02	24.0777
1199.12	27.0055
1200.22	25.4661
1201.32	24.8553
1202.42	23.6757
1203.52	27.7868
1204.62	24.0323
1205.72	25.4741
1206.82	24.5358
1207.92	24.6394
1209.02	27.3124
1210.12	22.6506
1211.22	23.6056
1212.31	21.2387
1213.41	24.1284
1214.51	23.5253
1215.61	27.2646
1216.71	28.1598
1217.8	24.6047
1218.9	22.3264
1220	22.9681
1221.09	24.3056
1222.19	27.7971
1223.29	24.4231
1224.38	23.3056
1225.48	24.1818
1226.58	24.0536
1227.67	26.9728
1228.77	23.6911
1229.86	28.3813
1230.96	24.0314
1232.05	24.6845
1233.15	25.6568
1234.24	25.486
1235.34	26.8973
1236.43	21.7832
1237.52	24.6237
1238.62	22.8707
1239.71	28.4801
1240.81	25.0903
1241.9	25.1335
1242.99	26.353
1244.09	23.629
1245.18	25.1549
1246.27	24.7393
1247.36	27.4723
1248.46	25.1678
1249.55	26.9066
1250.64	25.3083
1251.73	25.4736
1252.82	23.835
1253.92	26.9763
1255.01	25.1477
1256.1	25.4378
1257.19	29.1668
1258.28	23.9119
1259.37	26.1644
1260.46	28.221
1261.55	25.6582
1262.64	25.9327
1263.73	27.8081
1264.82	26.3452
1265.91	27.9408
1267	25.9346
1268.09	25.2487
1269.18	24.7894
1270.27	25.245
1271.36	25.6723
1272.45	26.61
1273.53	25.9636
1274.62	25.4949
1275.71	28.2096
1276.8	25.6162
1277.89	21.5597
1278.97	24.3084
1280.06	25.0982
1281.15	23.8886
1282.23	23.4063
1283.32	22.1591
1284.41	23.8145
1285.49	26.8134
1286.58	25.5222
1287.67	26.085
1288.75	21.7832
1289.84	22.5259
1290.92	25.2884
1292.01	24.5314
1293.09	25.202
1294.18	25.8466
1295.26	23.17
1296.35	25.0905
1297.43	27.2595
1298.52	23.417
1299.6	23.0401
1300.69	23.0801
1301.77	26.2068
1302.85	24.616
1303.94	24.6152
1305.02	25
1306.1	24.2944
1306.42	24
1307.51	25.5
1308.59	23
1309.68	24.5
1310.77	24.5
1311.86	24
1312.95	26
1314.03	25.5
1315.12	23.5
1316.21	24
1317.29	25.5
1318.38	23
1319.47	23.5
1320.55	22.5
1321.64	22
1322.72	24.5
1323.81	25
1324.89	23
1325.98	28.5
1327.07	26
1328.15	23.5
1329.24	26.5
1330.32	24.5
1331.4	26.5
1332.49	23.5
1333.57	24
1334.66	22
1335.74	23.5
1336.82	23.5
1337.91	24.5
1338.99	27.5
1340.07	26.5
1341.16	23
1342.24	29.5
1343.32	27
1344.4	25
1345.49	24
1346.57	25.5
1347.65	22
1348.73	22.5
1349.81	22.5
1350.9	23.5
1351.98	27
1353.06	22.5
1354.14	22.5
1355.22	26
1356.3	21.5
1357.38	24.5
1358.46	22
1359.54	24.5
1360.62	27
1361.7	20.5
1362.78	23.5
1363.86	23.5
1364.94	25.5
1366.02	18
1367.1	25.5
1368.17	24
1369.25	21
1370.33	26.5
1371.41	24
1372.49	26.5
1373.57	25
1374.64	25.5
1375.72	27
1376.8	26
1377.87	24.5
1378.95	27
1380.03	24
1381.1	28
1382.18	26
1383.26	25
1384.33	27
1385.41	29
1386.49	22.5
1387.56	29.5
1388.64	26.5
1389.71	29.5
1390.79	26
1391.86	28.5
1392.94	21
1394.01	27
1395.08	27
1396.16	24
1397.23	29
1398.31	30
1399.38	33
1400.45	26
1401.53	33.5
1402.6	28
1403.67	24.5
1404.75	34.5
1405.82	32.5
1406.89	33
1407.96	32
1409.04	27
1410.11	31
1411.18	31.5
1412.25	34
1413.32	28.5
1414.39	29.5
1415.47	27
1416.54	29
1417.61	29
1418.68	29
1419.75	34
1420.82	25.5
1421.89	26
1422.96	30
1424.03	31
1425.1	27.5
1426.17	28
1427.24	27.5
1428.31	29
1429.38	28.5
1430.44	27
1431.51	29
1432.58	28
1433.65	29.5
1434.72	26
1435.79	27
1436.85	22
1437.92	27.5
1438.99	27
1440.05	28
1441.12	27
1442.19	30.5
1443.26	24.5
1444.32	27.5
1445.39	28.5
1446.46	28
1447.52	26
1448.59	27.5
1449.65	27.5
1450.72	28
1451.78	27
1452.85	27
1453.91	26
1454.98	24.5
1456.04	26.5
1457.11	25.5
1458.17	24.5
1459.24	30.5
1460.3	29.5
1461.36	25
1462.43	26.5
1463.49	28
1464.56	27
1465.62	25.5
1466.68	26.5
1467.74	28.5
1468.81	26.5
1469.87	26
1470.93	24
1471.99	28.5
1473.06	24
1474.12	25.5
1475.18	29
1476.24	23
1477.3	26.5
1478.36	28
1479.42	24
1480.49	24
1481.55	26
1482.61	28
1483.67	27.5
1484.73	26.5
1485.79	27.5
1486.85	24.5
1487.91	30.5
1488.97	26
1490.03	26
1491.09	27.5
1492.14	25.5
1493.2	27
1494.26	26.5
1495.32	26
1496.38	23
1497.44	23.5
1498.49	26.5
1499.55	27
1500.61	27.5
1501.67	21
1502.72	26
1503.78	27
1504.84	29
1505.89	25.5
1506.95	20
1508.01	25
1509.07	30
1510.12	26
1511.18	27
1512.23	26
1513.29	27
1514.34	29
1515.4	24.5
1516.45	26.5
1517.51	25
1518.56	24
1519.62	28
1520.67	25
1521.73	27
1522.78	29.5
1523.84	24
1524.89	23.5
1525.94	27
1527	28.5
1528.05	29
1529.1	26
1530.16	26
1531.21	26.5
1532.26	27
1533.32	24
1534.37	26
1535.42	25.5
1536.47	26.5
1537.52	28
1538.57	26.5
1539.63	26.5
1540.68	25
1541.73	29.5
1542.78	28
1543.83	25
1544.88	26.5
1545.93	25
1546.98	25
1548.03	27.5
1549.08	26
1550.13	26
1551.18	27.5
1552.23	23.5
1553.28	25
1554.33	27
1555.38	25
1556.43	27
1557.48	25.5
1558.53	26.5
1559.57	24
1560.62	27
1561.67	26.5
1562.72	25.5
1563.77	24
1564.81	26
1565.86	24.5
1566.91	22.5
1567.96	28
1569	28.5
1570.05	28.5
1571.09	25
1572.14	28
1573.19	27.5
1574.23	24
1575.28	23
1576.33	27.5
1577.37	24
1578.42	26.5
1579.46	22.5
1580.51	31
1581.55	25
1582.6	26
1583.64	23
1584.69	25
1585.73	26
1586.77	27.5
1587.82	26.5
1588.86	24.5
1589.91	29.5
1590.95	26.5
1591.99	26
1593.04	26.5
1594.08	27.5
1595.12	28
1596.16	29
1597.21	28
1598.25	27
1599.29	25.5
1600.33	29.5
1601.37	24.5
1602.42	22.5
1603.46	28
1604.5	23
1605.54	28
1606.58	27
1607.62	26
1608.66	25
1609.7	24.5
1610.74	22
1611.78	26.5
1612.82	23
1613.86	24.5
1614.9	25.5
1615.94	27
1616.98	26
1618.02	27
1619.06	24
1620.1	28.5
1621.14	23.5
1622.18	27
1623.21	23.5
1624.25	26.5
1625.29	21
1626.33	25
1627.37	25
1628.4	26
1629.44	25
1630.48	28.5
1631.52	20
1632.55	27.5
1633.59	25
1634.63	24
1635.66	28
1636.7	26.5
1637.73	28
1638.77	27
1639.81	28.5
1640.84	29
1641.88	26
1642.91	26
1643.95	29.5
1644.98	25
1646.02	23.5
1647.05	25
1648.09	25
1649.12	24
1650.16	25
1651.19	27.5
1652.22	27
1653.26	26.5
1654.29	25.5
1655.32	25
1656.36	27.5
1657.39	29
1658.42	24
1659.46	26
1660.49	26.5
1661.52	22
1662.55	28.5
1663.59	23.5
1664.62	27
1665.65	22.5
1666.68	27.5
1667.71	25.5
1668.74	25.5
1669.77	27
1670.81	25.5
1671.84	22
1672.87	22
1673.9	25.5
1674.93	27.5
1675.96	27
1676.99	25.5
1678.02	25
1679.05	24
1680.08	24.5
1681.11	29.5
1682.13	26.5
1683.16	27.5
1684.19	26
1685.22	22
1686.25	26.5
1687.28	25.5
1688.31	29.5
1689.33	25.5
1690.36	23
1691.39	25.5
1692.42	27.5
1693.45	26
1694.47	25.5
1695.5	24
1696.53	24.5
1697.55	21
1698.58	20.5
1699.61	27
1700.63	26.5
1701.66	28.5
1702.68	23
1703.71	24
1704.74	25
1705.76	24.5
1706.79	25
1707.81	26
1708.84	25
1709.86	23
1710.89	25.5
1711.91	23
1712.94	26
1713.96	27
1714.98	25
1716.01	24.5
1717.03	25.5
1718.05	26.5
1719.08	24
1720.1	23.5
1721.12	26
1722.15	25
1723.17	28
1724.19	24.5
1725.22	26.5
1726.24	27
1727.26	26
1728.28	25.5
1729.3	23.5
1730.32	26
1731.35	26
1732.37	25
1733.39	25.5
1734.41	27.5
1735.43	24
1736.45	23.5
1737.47	24
1738.49	25
1739.51	21
1740.53	25.5
1741.55	30
1742.57	25.5
1743.59	28
1744.61	28
1745.63	26
1746.65	23
1747.67	23.5
1748.69	24
1749.71	25
1750.72	23.5
1751.74	29
1752.76	27
1753.78	23
1754.8	29
1755.81	26
1756.83	23.5
1757.85	25
1758.87	25.5
1759.88	26.5
1760.9	23.5
1761.92	24.5
1762.93	25.5
1763.95	22.5
1764.97	24
1765.98	23.5
1767	25.5
1768.01	24.5
1769.03	26.5
1770.05	20
1771.06	22.5
1772.08	21
1773.09	25.5
1774.11	23
1775.12	27
1776.13	21
1777.15	22.5
1778.16	27
1779.18	25
1780.19	26
1781.2	24
1782.22	26
1783.23	25.5
1784.24	22.5
1785.26	27.5
1786.27	21.5
1787.28	26.5
1788.3	25.5
1789.31	25.5
1790.32	26.5
1791.33	21.5
1792.35	28.5
1793.36	25
1794.37	22
1795.38	27
1796.39	25.5
1797.4	25
1798.41	25
1799.43	25
1800.44	24
1801.45	27.5
1802.46	22
1803.47	28.5
1804.48	25.5
1805.49	25
1806.5	22.5
1807.51	19.5
1808.52	28.5
1809.53	26
1810.53	24.5
1811.54	26.5
1812.55	21
1813.56	25
1814.57	25
1815.58	27.5
1816.59	24.5
1817.6	26
1818.6	25
1819.61	24
1820.62	19.5
1821.63	23.5
1822.63	26
1823.64	23.5
1824.65	24
1825.65	24
1826.66	22.5
1827.67	25
1828.67	22.5
1829.68	24.5
1830.69	26.5
1831.69	23.5
1832.7	23
1833.7	24
1834.71	30
1835.71	27
1836.72	29
1837.72	24.5
1838.73	24.5
1839.73	21.5
1840.74	26
1841.74	28
1842.75	29
1843.75	24.5
1844.75	24
1845.76	26.5
1846.76	22
1847.76	25
1848.77	26.5
1849.77	24
1850.77	23
1851.78	23.5
1852.78	25.5
1853.78	20
1854.78	28
1855.79	26
1856.79	24
1857.79	24.5
1858.79	22
1859.79	23
1860.8	23.5
1861.8	26
1862.8	24.5
1863.8	28.5
1864.8	25.5
1865.8	26.5
1866.8	23.5
1867.8	22.5
1868.8	22
1869.8	23.5
1870.8	25
1871.8	28
1872.8	25
1873.8	21.5
1874.8	25
1875.8	27
1876.8	21
1877.8	25
1878.79	24.5
1879.79	27
1880.79	25
1881.79	24
1882.79	23.5
1883.79	20.5
1884.78	22.5
1885.78	25
1886.78	25.5
1887.77	24.5
1888.77	24.5
1889.77	24
1890.77	26.5
1891.76	23
1892.76	23.5
1893.76	22.5
1894.75	23
1895.75	24
1896.74	26
1897.74	22.5
1898.73	27
1899.73	26
1900.72	23
1901.72	27
1902.72	24.5
1903.71	24.5
1904.7	25.5
1905.7	26
1906.69	25
1907.69	26
1908.68	21.5
1909.67	28
1910.67	23
1911.66	23
1912.66	22.5
1913.65	22.5
1914.64	24.5
1915.63	24
1916.63	26
1917.62	23
1918.61	28
1919.6	27
1920.6	26.5
1921.59	22.5
1922.58	24.5
1923.57	23.5
1924.56	23.5
1925.56	23
1926.55	25
1927.54	23
1928.53	24.5
1929.52	25.5
1930.51	23.5
1931.5	24
1932.49	24
1933.48	23.5
1934.47	24.5
1935.46	27
1936.45	25
1937.44	24
1938.43	26
1939.42	20.5
1940.41	26
1941.4	25.5
1942.39	24.5
1943.37	23
1944.36	28
1945.35	20.5
1946.34	24
1947.33	24
1948.32	24.5
1949.3	25
1950.29	23
1951.28	22
1952.27	21
1953.25	28.5
1954.24	23.5
1955.23	23.5
1956.21	25
1957.2	27.5
1958.19	29
1959.17	23
1960.16	27
1961.14	24.5
1962.13	26.5
1963.12	20
1964.1	28
1965.09	21
1966.07	27
1967.06	25
1968.04	26
1969.03	25
1970.01	24.5
1970.99	26
1971.98	24
1972.96	21.5
1973.95	21
1974.93	22
1975.92	19.5
1976.9	26.5
1977.88	22.5
1978.87	24
1979.85	26
1980.83	25.5
1981.81	23
1982.8	22.5
1983.78	24
1984.76	23
1985.74	25.5
1986.73	23.5
1987.71	26.5
1988.69	23.5
1989.67	28
1990.65	22
1991.63	27.5
1992.61	24.5
1993.59	27
1994.58	25.5
1995.56	22.5
1996.54	22
1997.52	23.5
1998.5	24
1999.48	25.5
2000.46	23
2001.44	23
2002.42	22
2003.4	26
2004.38	24
2005.35	28.5
2006.33	27
2007.31	26
2008.29	26
2009.27	21.5
2010.25	23.5
2011.23	24
2012.2	26
2013.18	22
2014.16	18
2015.14	23.5
2016.11	25
2017.09	21
2018.07	23.5
2019.05	22
2020.02	24.5
2021	23.5
2021.98	26
2022.95	23
2023.93	23.5
2024.91	26
2025.88	27
2026.86	26
2027.83	28
2028.81	25
2029.78	23.5
2030.76	27
2031.73	22
2032.71	24.5
2033.68	20.5
2034.66	24.5
2035.63	25
2036.61	26.5
2037.58	23
2038.56	24
2039.53	27
2040.5	25
2041.48	26.5
2042.45	21.5
2043.42	21
2044.4	26.5
2045.37	22
2046.34	22
2047.32	23
2048.29	22.5
2049.26	24
2050.23	25
2051.2	25.5
2052.18	23.5
2053.15	23.5
2054.12	25
2055.09	24.5
2056.06	20
2057.03	24
2058	24
2058.98	22
2059.95	23
2060.92	23
2061.89	21.5
2062.86	22
2063.83	22
2064.8	23.5
2065.77	23.5
2066.74	22
2067.71	27
2068.68	24.5
2069.65	23
2070.61	24
2071.58	22.5
2072.55	23.5
2073.52	25
2074.49	25
2075.46	22.5
2076.43	20.5
2077.4	25
2078.36	28
2079.33	23
2080.3	21.5
2081.27	24.5
2082.23	20.5
2083.2	21
2084.17	22.5
2085.13	22.5
2086.1	27
2087.07	22
2088.03	25
2089	20
2089.97	22.5
2090.93	24.5
2091.9	25
2092.86	24
2093.83	27
2094.8	25.5
2095.76	28
2096.73	21
2097.69	20.5
2098.66	25.5
2099.62	22
2100.58	24
2101.55	21.5
2102.51	22
2103.48	21
2104.44	21.5
2105.41	23
2106.37	24
2107.33	22.5
2108.3	22
2109.26	24.5
2110.22	27
2111.19	26
2112.15	21.5
2113.11	23
2114.07	22
2115.04	23.5
2116	22.5
2116.96	31
2117.92	21
2118.88	26.5
2119.85	24
2120.81	26
2121.77	20
2122.73	26
2123.69	24
2124.65	25
2125.61	22.5
2126.57	21.5
2127.53	24.5
2128.49	25
2129.45	21
2130.41	24
2131.37	22.5
2132.33	24
2133.29	23.5
2134.25	24
2135.21	23
2136.17	25
2137.13	27
2138.09	20.5
2139.05	20
2140.01	26
2140.96	25
2141.92	26
2142.88	22.5019
2143.84	23.4689
2144.8	24.5154
2145.75	23.5278
2146.71	21.9563
2147.67	22.8932
2148.63	20.0944
2149.58	23.4283
2150.54	22.9037
2151.5	25.3219
2152.45	25.4741
2153.41	19.3848
2154.37	22.7217
2155.32	23.6644
2156.28	21.4972
2157.23	21.3056
2158.19	25.9393
2159.15	21.2907
2160.1	25.1078
2161.06	20.3195
2162.01	23.0956
2162.97	22.9742
2163.92	24.1893
2164.88	23.4332
2165.83	23.3119
2166.78	25.0007
2167.74	20.4889
2168.69	21.9431
2169.65	23.7549
2170.6	24.8944
2171.56	23.5937
2172.51	25.6156
2173.46	24.9445
2174.42	21.4575
2175.37	22.9643
2176.32	23.0882
2177.28	24.5568
2178.23	20.245
2179.18	23.2524
2180.13	20.8295
2181.08	24.2438
2182.04	19.3131
2182.99	21.1189
2183.94	22.8145
2184.89	23.0757
2185.84	19.508
2186.8	20.5524
2187.75	20.767
2188.7	22.1394
2189.65	22.1941
2190.6	23.2488
2191.55	24.005
2192.5	22.2573
2193.45	23.6673
2194.4	20.6556
2195.35	24.5364
2196.3	22.5453
2197.25	22.7791
2198.2	20.649
2199.15	21.9223
2200.1	23.2631
2201.05	22.9213
2202	21.4266
2202.95	18.2526
2203.9	23.3871
2204.85	20.7726
2205.79	23.2301
2206.74	23.3107
2207.69	25.2909
2208.64	24.1869
2209.59	21.5273
2210.53	23.43
2211.48	25.2478
2212.43	23.5199
2213.38	20.6646
2214.32	22.8934
2215.27	25.0827
2216.22	25.0049
2217.17	24.9262
2218.11	20.2685
2219.06	19.1184
2220.01	22.9787
2220.95	24.546
2221.9	22.8554
2222.84	23.2694
2223.79	24.127
2224.73	23.0865
2225.68	22.0606
2226.63	24.42
2227.57	25.9744
2228.52	25.9771
2229.46	21.7428
2230.41	18.6282
2231.35	18.9167
2232.3	21.2812
2233.24	23.0628
2234.18	24.0757
2235.13	20.9543
2236.07	22.6898
2237.02	22.7537
2237.96	21.8367
2238.9	21.1178
2239.85	22.8758
2240.08	23.5
2241.03	20
2241.97	22
2242.92	22.5
2243.87	24
2244.82	23
2245.76	24.5
2246.71	22
2247.66	24
2248.61	22
2249.55	20.5
2250.5	21
2251.45	24.5
2252.39	22.5
2253.34	27.5
2254.29	22
2255.23	24
2256.18	21
2257.12	25.5
2258.07	21.5
2259.01	22
2259.96	25.5
2260.9	24
2261.85	23.5
2262.79	20
2263.74	23.5
2264.68	26
2265.63	24.5
2266.57	19
2267.52	25
2268.46	24.5
2269.41	23.5
2270.35	23.5
2271.29	27.5
2272.24	23.5
2273.18	20.5
2274.12	24.5
2275.07	22
2276.01	23
2276.95	20.5
2277.89	23.5
2278.84	20.5
2279.78	24.5
2280.72	24.5
2281.66	23.5
2282.6	24.5
2283.55	21
2284.49	25
2285.43	25
2286.37	27
2287.31	25
2288.25	21
2289.2	24
2290.14	23.5
2291.08	23.5
2292.02	20
2292.96	26
2293.9	23
2294.84	24
2295.78	22.5
2296.72	23
2297.66	21
2298.6	17.5
2299.54	21
2300.48	20.5
2301.42	23.5
2302.35	24
2303.29	20.5
2304.23	21
2305.17	22.5
2306.11	20
2307.05	21
2307.99	26
2308.92	23
2309.86	23
2310.8	23
2311.74	22.5
2312.67	26
2313.61	24
2314.55	23
2315.49	29.5
2316.42	22.5
2317.36	25
2318.3	22.5
2319.23	23.5
2320.17	22.5
2321.1	25
2322.04	24
2322.98	29
2323.91	25
2324.85	24
2325.78	22.5
2326.72	19.5
2327.66	23.5
2328.59	20
2329.52	22.5
2330.46	24
2331.39	24
2332.33	24
2333.26	23
2334.2	31.5
2335.13	23
2336.07	20.5
2337	24
2337.93	20.5
2338.87	23
2339.8	22
2340.73	21.5
2341.67	22.5
2342.6	22.5
2343.53	26.5
2344.46	25.5
2345.4	22.5
2346.33	27
2347.26	24.5
2348.19	26
2349.13	21
2350.06	24
2350.99	22.5
2351.92	21
2352.85	23.5
2353.79	21
2354.72	20.5
2355.65	24
2356.58	21
2357.51	24.5
2358.44	26
2359.37	23
2360.3	20.5
2361.23	25
2362.16	26
2363.09	22.5
2364.02	25.5
2364.95	26
2365.88	22
2366.81	27
2367.74	25
2368.67	25.5
2369.6	24.5
2370.53	22.5
2371.45	23
2372.38	25
2373.31	20
2374.24	20.5
2375.17	20
2376.1	22.5
2377.02	24.5
2377.95	27
2378.88	25
2379.81	20.5
2380.73	22.5
2381.66	23.5
2382.59	19
2383.52	21.5
2384.44	24.5
2385.37	23.5
2386.3	23
2387.22	27.5
2388.15	26.5
2389.07	24
2390	22.5
2390.93	25
2391.85	24
2392.78	19.5
2393.7	23
2394.63	28.5
2395.55	26
2396.48	21
2397.4	24
2398.33	23.5
2399.25	23
2400.18	25.5
2401.1	21.5
2402.03	23.5
2402.95	23
2403.87	23
2404.8	25
2405.72	27
2406.64	24
2407.57	22
2408.49	22.5
2409.41	23.5
2410.34	25.5
2411.26	23
2412.18	22.5
2413.1	21
2414.03	23.5
2414.95	20
2415.87	24
2416.79	30.5
2417.72	21.5
2418.64	23
2419.56	21
2420.48	25
2421.4	22.5
2422.32	26
2423.24	24.5
2424.16	25
2425.09	21
2426.01	24.5
2426.93	22
2427.85	24.5
2428.77	25
2429.69	22
2430.61	24
2431.53	26
2432.45	24
2433.37	28
2434.29	25.5
2435.21	23
2436.12	24
2437.04	27
2437.96	27
2438.88	23.5
2439.8	26.5
2440.72	26
2441.64	30
2442.55	24.5
2443.47	26
2444.39	26
2445.31	21
2446.23	26
2447.14	24.5
2448.06	19
2448.98	23.5
2449.9	21
2450.81	26
2451.73	20.5
2452.65	22
2453.56	22
2454.48	23.5
2455.39	17.5
2456.31	23.5
2457.23	25
2458.14	21.5
2459.06	22.5
2459.97	25.5
2460.89	25
2461.8	23.5
2462.72	25.5
2463.64	26
2464.55	24
2465.47	24
2466.38	27.5
2467.29	24.5
2468.21	25
2469.12	26
2470.04	26
2470.95	26
2471.86	22.5
2472.78	27
2473.69	24
2474.61	23
2475.52	21
2476.43	25.5
2477.35	27
2478.26	22
2479.17	25.5
2480.08	26.5
2481	23.5
2481.91	22.5
2482.82	19
2483.73	24
2484.64	21
2485.56	25.5
2486.47	26.5
2487.38	24.5
2488.29	27
2489.2	25
2490.11	25.5
2491.03	25
2491.94	26.5
2492.85	23.5
2493.76	19.5
2494.67	23.5
2495.58	26.5
2496.49	24.5
2497.4	25.5
2498.31	19.5
2499.22	28.5
2500.13	23
2501.04	24
2501.95	27
2502.86	24.5
2503.77	25
2504.67	25
2505.58	22
2506.49	25.5
2507.4	24
2508.31	21.5
2509.22	24.5
2510.13	23.5
2511.03	27.5
2511.94	27
2512.85	21
2513.76	27
2514.66	24
2515.57	27
2516.48	25
2517.39	24.5
2518.29	24.5
2519.2	26.5
2520.11	25.5
2521.01	23
2521.92	21
2522.83	26
2523.73	27.5
2524.64	23
2525.54	21.5
2526.45	22
2527.36	23
2528.26	24
2529.17	23
2530.07	22.5
2530.98	27
2531.88	28
2532.79	23.5
2533.69	25
2534.6	24.5
2535.5	24
2536.41	27
2537.31	24
2538.21	21
2539.12	24.5
2540.02	25.5
2540.93	24.5
2541.83	26
2542.73	26
2543.64	20.5
2544.54	27.5
2545.44	25
2546.34	23
2547.25	21
2548.15	25
2549.05	24.5
2549.96	25
2550.86	26.5
2551.76	25.5
2552.66	26.5
2553.56	26
2554.46	24
2555.37	26
2556.27	22
2557.17	25.5
2558.07	24
2558.97	25
2559.87	26
2560.77	22
2561.67	24
2562.57	27
2563.47	21
2564.37	22.5
2565.27	20.5
2566.17	23
2567.07	28
2567.97	26.5
2568.87	25.5
2569.77	25
2570.67	26
2571.57	29.5
2572.47	27
2573.37	21
2574.27	23.5
2575.17	19.5
2576.06	24
2576.96	25
2577.86	21.5
2578.76	23
2579.66	24.5
2580.56	24.5
2581.45	23
2582.35	25.5
2583.25	26.5
2584.15	25
2585.04	24
2585.94	24.5
2586.84	27.5
2587.73	22.5
2588.63	26
2589.53	27.5
2590.42	24
2591.32	22.5
2592.22	23
2593.11	23.5
2594.01	24.5
2594.9	24.5
2595.8	27
2596.69	26
2597.59	27
2598.48	26.5
2599.38	26.5
2600.28	24.5
2601.17	25
2602.06	25.5
2602.96	25
2603.85	26
2604.75	27.5
2605.64	25.5
2606.54	26.5
2607.43	22.5
2608.32	23
2609.22	25
2610.11	24
2611	25.5
2611.9	25.5
2612.79	21.5
2613.68	27.5
2614.58	24
2615.47	21
2616.36	28.5
2617.25	24.5
2618.15	25
2619.04	27.5
2619.93	25.5
2620.82	24
2621.71	23.5
2622.61	20
2623.5	24
2624.39	24.5
2625.28	22.5
2626.17	24
2627.06	21
2627.95	26
2628.84	22
2629.74	24
2630.63	23
2631.52	26.5
2632.41	22
2633.3	25
2634.19	22
2635.08	22.5
2635.97	25
2636.85	19.5
2637.74	22
2638.63	23.5
2639.52	28.5
2640.41	26.5
2641.3	20.5
2642.19	25
2643.08	25
2643.97	24
2644.86	21
2645.74	23.5
2646.63	26
2647.52	25.5
2648.41	24.5
2649.3	25
2650.18	24.5
2651.07	27
2651.96	24
2652.85	24.5
2653.73	23.5
2654.62	22.5
2655.51	23.5
2656.39	22.5
2657.28	28
2658.17	25
2659.05	23.5
2659.94	25.5
2660.83	24
2661.71	23.5
2662.6	22
2663.48	22
2664.37	23.5
2665.25	24
2666.14	22
2667.02	27
2667.91	25.5
2668.79	22.5
2669.68	24.5
2670.56	27
2671.45	27
2672.33	22
2673.22	26.5
2674.1	25.5
2674.98	24.5
2675.87	22
2676.75	27
2677.64	24
2678.52	21.5
2679.4	27.5
2680.29	27
2681.17	25
2682.05	23.5
2682.94	25
2683.82	26
2684.7	22
2685.58	26.5
2686.47	26.5
2687.35	26.5
2688.23	28.5
2689.11	24.5
2689.99	21
2690.88	27
2691.76	22
2692.64	23
2693.52	19
2694.4	23
2695.28	26
2696.16	26
2697.04	23
2697.92	25.5
2698.8	20.5
2699.69	25.5
2700.57	25.5
2701.45	24
2702.33	22.5
2703.21	26
2704.09	23.5
2704.97	24.5
2705.84	27.5
2706.72	23
2707.6	21.5
2708.48	27.5
2709.36	21
2710.24	26.5
2711.12	26.5
2712	27
2712.88	23
2713.75	23.5
2714.63	26
2715.51	23
2716.39	21
2717.27	23
2718.14	25
2719.02	26
2719.9	26
2720.78	25
2721.65	28
2722.53	24.5
2723.41	18.5
2724.28	24.5
2725.16	21
2726.04	27
2726.92	25.5
2727.79	25.5
2728.67	23
2729.54	25
2730.42	23.5
2731.3	25.5
2732.17	24
2733.05	20.5
2733.92	24
2734.8	28
2735.67	24
2736.55	19
2737.42	26
2738.3	26
2739.17	25.5
2740.05	21
2740.92	24.5
2741.79	24
2742.67	26.5
2743.54	25.5
2744.42	24.5
2745.29	23
2746.16	29.5
2747.04	26
2747.91	24
2748.78	23.5
2749.66	29
2750.53	23.5
2751.4	27.5
2752.28	23
2753.15	24.5
2754.02	24
2754.89	27
2755.77	24.5
2756.64	25.5
2757.51	22.5
2758.38	24.5
2759.25	21
2760.13	20
2761	22
2761.87	22
2762.74	23.5
2763.61	21
2764.48	22.5
2765.35	28
2766.22	27
2767.09	26
2767.96	24
2768.83	25.5
2769.71	23
2770.57	24.5
2771.44	26
2772.32	23.5
2773.18	24.5
2774.05	23
2774.92	24
2775.79	27
2776.66	24
2777.53	24.5
2778.4	24
2779.27	21.5
2780.14	24.5
2781.01	24.5
2781.87	24
2782.74	25.5
2783.61	23
2784.48	22
2785.35	26
2786.21	26.5
2787.08	25.5
2787.95	30.5
2788.82	25
2789.69	23
2790.55	24
2791.42	26.5
2792.29	26
2793.15	28
2794.02	25.5
2794.89	27.5
2795.75	27
2796.62	26.5
2797.49	27.5
2798.35	27.5
2799.22	25.5
2800.08	25.5
2800.95	28.5
2801.81	28
2802.68	29
2803.55	25
2804.41	26
2805.28	27.5
2806.14	26
2807	27.5
2807.87	25
2808.73	24
2809.6	27.5
2810.46	28
2811.33	27
2812.19	26
2813.06	28.5
2813.92	28
2814.78	26
2815.65	27
2816.51	25.5
2817.37	28
2818.24	24
2819.1	25
2819.96	22.5
2820.83	23
2821.69	28.5
2822.55	21.5
2823.41	24
2824.28	25
2825.14	25
2826	26.5
2826.86	24
2827.72	27.5
2828.58	29
2829.45	28
2830.31	27
2831.17	25
2832.03	21.5
2832.89	24
2833.75	24.5
2834.61	23.5
2835.47	28
2836.33	27
2837.2	28.5
2838.05	24.5
2838.92	27
2839.78	22
2840.64	28.5
2841.49	26
2842.35	29
2843.21	27
2844.07	27
2844.93	28
2845.79	24.5
2846.65	29
2847.51	27
2848.37	24
2849.23	18
2850.09	28
2850.94	26.5
2851.8	26
2852.66	22.5
2853.52	24
2854.38	27
2855.23	27.5
2856.09	29.5
2856.95	25
2857.81	27
2858.67	28.5
2859.52	24
2860.38	28.5
2861.24	27
2862.09	26.5
2862.95	25
2863.81	26
2864.66	24
2865.52	27.5
2866.38	29.5
2867.23	30
2868.09	30.5
2868.94	27
2869.8	27
2870.65	29.5
2871.51	24
2872.37	29
2873.22	29
2874.08	29
2874.93	31
2875.79	29.5
2876.64	32.5
2877.49	35.5
2878.35	32.5
2879.2	28
2880.06	29.5
2880.91	29.5
2881.77	32.5
2882.62	31
2883.47	30
2884.33	34
2885.18	34.5
2886.03	36
2886.89	36
2887.74	38
2888.59	43
2889.45	37
2890.3	39
2891.15	39
2892	43
2892.86	40
2893.71	47.5
2894.56	47.5
2895.41	42
2896.27	50.5
2897.12	55
2897.97	53.5
2898.82	59.5
2899.67	64
2900.52	61.5
2901.37	62.5
2902.23	64
2903.08	65.5
2903.93	67.5
2904.78	73
2905.63	72.5
2906.48	72.5
2907.33	70
2908.18	72
2909.03	67
2909.88	62.5
2910.73	61
2911.58	62
2912.43	58.5
2913.28	58
2914.13	51
2914.98	41
2915.83	51
2916.67	44
2917.52	44.5
2918.37	39.5
2919.22	38
2920.07	39.5
2920.92	37.5
2921.77	39
2922.61	30
2923.46	30.5
2924.31	28.5
2925.16	39
2926	31
2926.85	29.5
2927.7	32.5
2928.55	30
2929.39	31.5
2930.24	30.5
2931.09	29
2931.94	27.5
2932.78	26.5
2933.63	27.5
2934.47	33
2935.32	29.5
2936.17	33
2937.01	28
2937.86	29.5
2938.7	30
2939.55	29
2940.4	27
2941.24	30
2942.09	29
2942.93	30
2943.78	28.5
2944.62	30
2945.47	24
2946.31	31
2947.16	26
2948	32
2948.84	31.5
2949.69	29
2950.53	29
2951.38	30
2952.22	26.5
2953.06	28
2953.91	29.5
2954.75	32
2955.59	36
2956.44	33
2957.28	32
2958.12	39.5
2958.97	36.5
2959.81	35.5
2960.65	45
2961.5	43
2962.34	43
2963.18	45.5
2964.02	44
2964.86	49.5
2965.71	43
2966.55	47
2967.39	42
2968.23	44.5
2969.07	43.5
2969.91	41
2970.75	41
2971.6	39.9854
2972.44	37.8584
2973.28	38.5544
2974.12	36.0806
2974.96	37.024
2975.8	35.4153
2976.64	30.6331
2977.48	34.5599
2978.32	30.9755
2979.16	26.7132
2980	31.1498
2980.84	28.1933
2981.68	27.4904
2982.52	27.3785
2983.36	29.7463
2984.2	27.2257
2985.04	26.3497
2985.88	30.3249
2986.71	27.2585
2987.55	28.6984
2988.39	27.0024
2989.23	27.6562
2990.07	25.3453
2990.91	24.1311
2991.75	27.4236
2992.58	25.5777
2993.42	21.6853
2994.26	25.2086
2995.1	21.084
2995.93	24.5853
2996.77	25.9374
2997.61	23.1871
2998.45	25.085
2999.28	23.9746
3000.12	23.3441
3000.96	26.458
3001.79	27.4527
3002.63	23.0957
3003.47	25.6571
3004.3	25.2583
3005.14	22.0306
3005.98	21.6702
3006.81	23.6732
3007.65	20.9639
3008.48	20.453
3009.32	22.6286
3010.15	24.0094
3010.99	23.4586
3011.82	24.6282
3012.66	24.7028
3013.5	24.5291
3014.33	24.3264
3015.17	24.1606
3016	24.9617
3016.83	24.0825
3017.67	25.8227
3018.5	24.5306
3019.34	24.1503
3020.17	23.787
3021.01	25.1271
3021.84	23.5492
3022.67	21.8214
3023.51	23.2197
3024.34	24.0437
3025.17	24.6914
3026.01	22.9142
3026.84	22.5917
3027.67	23.6035
3028.51	22.7527
3029.34	22.6996
3030.17	21.7072
3031	22.8504
3031.84	20.9405
3032.67	21.6917
3033.5	25.3041
3034.33	25.4733
3035.17	25.511
3036	24.8266
3036.83	21.8226
3037.66	21.5713
3038.49	23.0519
3039.32	22.868
3040.15	21.9514
3040.99	23.0103
3041.82	21.8593
3042.65	20.7956
3043.48	21.8514
3044.31	22.2859
3045.14	23.0175
3045.97	20.9508
3046.8	21.3344
3047.63	21.1078
3048.46	22.9481
3049.29	24.3948
3050.12	24.4811
3050.95	22.5657
3051.78	22.1718
3052.61	20.7786
3053.44	22.3402
3054.27	24.6773
3055.1	22.7731
3055.92	22.7834
3056.75	22.5
3057.27	22.5
3058.11	25
3058.94	23
3059.77	21
3060.61	23
3061.44	24.5
3062.27	24.5
3063.11	22
3063.94	22.5
3064.77	27.5
3065.6	21
3066.43	22.5
3067.27	22
3068.1	20
3068.93	27
3069.76	21
3070.59	23.5
3071.42	21.5
3072.26	21.5
3073.09	24.5
3073.92	25.5
3074.75	22.5
3075.58	18.5
3076.41	22.5
3077.24	25
3078.07	20
3078.9	23.5
3079.73	18
3080.56	25
3081.39	24.5
3082.22	26
3083.05	24.5
3083.88	23
3084.71	26
3085.54	20
3086.37	21
3087.2	24.5
3088.03	24.5
3088.86	23.5
3089.69	20
3090.51	24.5
3091.34	26.5
3092.17	21
3093	24.5
3093.83	24.5
3094.66	20
3095.48	22.5
3096.31	27.5
3097.14	20.5
3097.97	20.5
3098.79	24.5
3099.62	24.5
3100.45	22
3101.28	25.5
3102.1	23.5
3102.93	29.5
3103.76	23.5
3104.58	24.5
3105.41	24.5
3106.24	23
3107.06	22
3107.89	22
3108.72	22.5
3109.54	20.5
3110.37	25
3111.19	24.5
3112.02	25.5
3112.84	22.5
3113.67	26
3114.49	23.5
3115.32	18.5
3116.15	23.5
3116.97	21
3117.8	26.5
3118.62	24
3119.44	24
3120.27	19.5
3121.09	24.5
3121.92	25.5
3122.74	21
3123.57	21.5
3124.39	25.5
3125.21	24.5
3126.04	23
3126.86	26
3127.68	25
3128.51	27
3129.33	22.5
3130.15	22.5
3130.98	22.5
3131.8	20.5
3132.62	24
3133.44	23.5
3134.27	26
3135.09	26.5
3135.91	22
3136.73	24.5
3137.56	22
3138.38	29
3139.2	23.5
3140.02	31
3140.84	23.5
3141.67	23
3142.49	23
3143.31	22.5
3144.13	24
3144.95	28
3145.77	21.5
3146.59	25.5
3147.41	22
3148.23	23.5
3149.05	19.5
3149.87	21.5
3150.69	19.5
3151.51	22.5
3152.33	22.5
3153.15	24
3153.97	24
3154.79	23
3155.61	21
3156.43	23
3157.25	23
3158.07	23
3158.89	23
3159.71	23.5
3160.53	27.5
3161.35	22
3162.17	25
3162.98	23
3163.8	24.5
3164.62	23
3165.44	22
3166.26	22.5
3167.07	22
3167.89	24.5
3168.71	24
3169.53	21.5
3170.35	23
3171.16	23.5
3171.98	23.5
3172.8	20
3173.61	23.5
3174.43	24
3175.25	21
3176.06	25
3176.88	21.5
3177.7	24.5
3178.51	24
3179.33	25.5
3180.15	24.5
3180.96	23
3181.78	25
3182.59	22
3183.41	22.5
3184.22	25
3185.04	24
3185.85	26
3186.67	21.5
3187.49	24.5
3188.3	22.5
3189.12	17.5
3189.93	24.5
3190.74	23.5
3191.56	24
3192.37	26
3193.19	19
3194	25
3194.82	22.5
3195.63	21.5
3196.44	25.5
3197.26	25
3198.07	21.5
3198.88	21
3199.7	21
3200.51	22.5
3201.32	24
3202.14	25
3202.95	25.5
3203.76	24.5
3204.58	27
3205.39	21.5
3206.2	25
3207.01	21
3207.83	25.5
3208.64	24.5
3209.45	27.5
3210.26	21
3211.07	24
3211.88	20
3212.7	24.5
3213.51	22.5
3214.32	25.5
3215.13	22
3215.94	22
3216.75	22.5
3217.56	25.5
3218.37	21.5
3219.18	18.5
3220	27
3220.8	23
3221.62	20.5
3222.43	22
3223.24	26
3224.05	24
3224.86	25.5
3225.67	17
3226.47	26
3227.28	23
3228.09	23.5
3228.9	24
3229.71	26
3230.52	25
3231.33	28
3232.14	28.5
3232.95	23.5
3233.76	24
3234.56	22
3235.37	24.5
3236.18	25.5
3236.99	23
3237.8	27.5
3238.61	21
3239.41	25
3240.22	24.5
3241.03	21
3241.84	23.5
3242.64	24.5
3243.45	20
3244.26	21
3245.07	20
3245.87	20
3246.68	26
3247.49	26
3248.29	22
3249.1	23.5
3249.9	25.5
3250.71	23
3251.52	24
3252.32	26
3253.13	25.5
3253.93	25
3254.74	24
3255.55	25.5
3256.35	19
3257.16	24
3257.96	24.5
3258.77	25
3259.57	25
3260.38	26.5
3261.18	26
3261.99	26.5
3262.79	21
3263.6	22.5
3264.4	23.5
3265.2	23.5
3266.01	25
3266.81	23
3267.62	24.5
3268.42	23
3269.22	23
3270.03	24
3270.83	22.5
3271.63	23
3272.44	25.5
3273.24	22
3274.04	20
3274.85	24
3275.65	24
3276.45	21.5
3277.25	24
3278.06	24.5
3278.86	24
3279.66	21
3280.46	25
3281.26	24.5
3282.07	24
3282.87	23.5
3283.67	20
3284.47	21.5
3285.27	26.5
3286.07	22.5
3286.87	24.5
3287.68	22.5
3288.48	25
3289.28	26
3290.08	25
3290.88	23
3291.68	23
3292.48	24.5
3293.28	21.5
3294.08	24
3294.88	24
3295.68	25
3296.48	26.5
3297.28	22
3298.08	24
3298.88	22.5
3299.68	21
3300.48	23.5
3301.28	26
3302.08	27.5
3302.88	23.5
3303.67	24
3304.47	24
3305.27	25
3306.07	29
3306.87	20.5
3307.67	22.5
3308.46	28.5
3309.26	24
3310.06	23.5
3310.86	23
3311.66	25.5
3312.45	27.5
3313.25	24.5
3314.05	24
3314.85	23.5
3315.64	24
3316.44	22.5
3317.24	23
3318.03	20.5
3318.83	25
3319.63	23.5
3320.42	21
3321.22	25
3322.02	25
3322.81	23
3323.61	26.5
3324.4	25
3325.2	24
3326	22.5
3326.79	25.5
3327.59	26
3328.38	25
3329.18	21
3329.97	26.5
3330.77	28.5
3331.56	26
3332.36	21
3333.15	25
3333.95	22.5
3334.74	25
3335.54	23.5
3336.33	23.5
3337.13	22.5
3337.92	25.5
3338.71	21.5
3339.51	22
3340.3	23
3341.1	24.5
3341.89	21.5
3342.68	27.5
3343.48	25
3344.27	26
3345.06	21
3345.85	23.5
3346.65	23.5
3347.44	23.5
3348.23	21.5
3349.03	27.5
3349.82	25.5
3350.61	20.5
3351.4	23.5
3352.19	24.5
3352.99	26.5
3353.78	26
3354.57	20
3355.36	25.5
3356.15	19
3356.94	25
3357.74	21
3358.53	25
3359.32	26.5
3360.11	22
3360.9	24
3361.69	25
3362.48	26.5
3363.27	23
3364.06	25
3364.85	20.5
3365.64	25.5
3366.43	22
3367.22	21.5
3368.01	21
3368.8	21
3369.59	22
3370.38	21.5
3371.17	25
3371.96	23.5
3372.75	26
3373.54	19.5
3374.33	22
3375.12	21
3375.91	25.5
3376.69	25
3377.48	26.5
3378.27	26.5
3379.06	27
3379.85	27
3380.64	25.5
3381.42	21.5
3382.21	23
3383	20
3383.79	25.5
3384.58	24.5
3385.36	27.5
3386.15	23
3386.94	24
3387.73	27
3388.51	25
3389.3	28.5
3390.09	23.5
3390.87	23
3391.66	21
3392.45	25
3393.23	23.5
3394.02	27
3394.81	22
3395.59	27.5
3396.38	20.5
3397.16	23
3397.95	23
3398.74	25
3399.52	27.5
3400.31	27
3401.09	23
3401.88	23
3402.66	23.5
3403.45	22.5
3404.23	21.5
3405.02	25
3405.8	24
3406.59	24.5
3407.37	25.5
3408.15	22.5
3408.94	26.5
3409.72	24
3410.51	25
3411.29	22
3412.07	20
3412.86	24
3413.64	23
3414.42	25
3415.21	23
3415.99	20
3416.78	25.5
3417.56	24.5
3418.34	23.5
3419.12	25.5
3419.91	23.5
3420.69	23
3421.47	25.5
3422.25	23
3423.04	24
3423.82	24.5
3424.6	23
3425.38	21.5
3426.16	23
3426.95	26
3427.73	23
3428.51	24.5
3429.29	27
3430.07	24.5
3430.85	23.5
3431.63	26.5
3432.42	20
3433.2	25.5
3433.98	23.5
3434.76	25
3435.54	28.5
3436.32	24.5
3437.1	24
3437.88	23.5
3438.66	25.5
3439.44	23.5
3440.22	25
3441	22
3441.78	22.5
3442.56	26.5
3443.34	23
3444.12	25
3444.9	24.5
3445.68	26
3446.45	22.5
3447.23	27.5
3448.01	20
3448.79	24.5
3449.57	28.5
3450.35	21
3451.13	21.5
3451.91	26
3452.68	23
3453.46	25.5
3454.24	22.5
3455.02	25.5
3455.79	23
3456.57	20.5
3457.35	24.5
3458.13	24
3458.91	24
3459.68	23.5
3460.46	22
3461.24	21.5
3462.01	25
3462.79	24
3463.57	24.5
3464.34	22.5
3465.12	24.5
3465.9	23.5
3466.67	21
3467.45	27
3468.22	23.5
3469	20.5
3469.78	22.5
3470.55	28
3471.33	26
3472.1	28
3472.88	24
3473.65	22.5
3474.43	21.5
3475.2	26
3475.98	29
3476.75	20.5
3477.53	26
3478.3	24.5
3479.08	21
3479.85	24.5
3480.63	22
3481.4	26
3482.18	26
3482.95	22.5
3483.72	25
3484.5	24.5
3485.27	24
3486.04	25
3486.82	24
3487.59	20.5
3488.36	24.5
3489.14	22.5
3489.91	26
3490.68	28
3491.46	25
3492.23	24
3493	25
3493.77	24.5
3494.55	23.5
3495.32	25
3496.09	20
3496.86	24
3497.64	24.5
3498.41	28
3499.18	21
3499.95	22.5
