#Acq. time (s)=	5
#Accumulations=	5
#Range (cm-¹)=	100...3500
#Windows=	4
#Autofocus=	Off
#AutoExposure=	Off
#Spike filter=	Multiple accum.
#Delay time (s)=	0
#Binning=	1
#Readout mode=	Signal
#DeNoise=	Off
#ICS correction=	Off
#Dark correction=	Off
#Inst. Process=	Off
#Instrument=	LabRAM HR Evol
#Detector=	Syncerity OE
#Objective=	x100_VIS
#Grating=	600 (500nm)
#ND Filter=	25%
#Laser=	633nm_Edge
#Hole=	100.021
#Range=	Visible
#Project=	verificaciones
#Sample=	a2
#Site=	plain
#Title=	bolusa2plain
#Remark=	com
#Date=	16.01.2026 12:43
#Acquired=	16.01.2026 12:43:22
100.687	24
101.971	31
103.254	30
104.537	25.5
105.82	30
107.103	23.5
108.387	25
109.669	27.5
110.951	23
112.233	30
113.514	27.5
114.796	28.5
116.077	27
117.358	26.5
118.639	25.5
119.919	24
121.2	26
122.48	28.5
123.76	26.5
125.039	27.5
126.319	27
127.598	27
128.877	26.5
130.156	28.5
131.435	28
132.713	28
133.992	25.5
135.268	25.5
136.546	26
137.824	25.5
139.101	30
140.378	28
141.655	31.5
142.932	29
144.209	27.5
145.485	28
146.76	26.5
148.036	24.5
149.312	27.5
150.587	26
151.862	24
153.138	27
154.411	26.5
155.686	23
156.96	25.5
158.235	27.5
159.509	30
160.781	28.5
162.055	25
163.328	30.5
164.602	27
165.873	28
167.146	29
168.419	28
169.691	29.5
170.962	28
172.234	30
173.506	29
174.777	25
176.047	27
177.318	30.5
178.589	29
179.859	29
181.129	27
182.4	27
183.668	27.5
184.938	29
186.207	28
187.476	22.5
188.746	26
190.013	27
191.282	30.5
192.551	26
193.818	28
195.086	26
196.353	25.5
197.621	31.5
198.887	30.5
200.154	26.5
201.422	26.5
202.687	28.5
203.954	26
205.219	30.5
206.486	25
207.751	31
209.017	27
210.281	25
211.547	28.5
212.811	30
214.076	28
215.339	31
216.603	28.5
217.867	26
219.13	27.5
220.395	27
221.657	28
222.921	26
224.183	29
225.445	26
226.708	29
227.97	27.5
229.232	26.5
230.493	26
231.754	28
233.016	28
234.277	29
235.537	26
236.799	28
238.059	25.5
239.318	28
240.579	26.5
241.839	29
243.098	27
244.358	26
245.617	28
246.875	28
248.133	26
249.393	28.5
250.651	22
251.908	25.5
253.166	26
254.424	27
255.681	26.5
256.938	24.5
258.195	29
259.451	23
260.709	25.5
261.965	24.5
263.221	30.5
264.476	28.5
265.732	28.5
266.988	32
268.243	27
269.498	30
270.753	26.5
272.007	25
273.261	25.5
274.515	25
275.769	28
277.022	23
278.277	27.5
279.53	24.5
280.783	23
282.036	23
283.289	27
284.541	25
285.793	26.5
287.045	28
288.297	26
289.548	27
290.8	25
292.051	28.5
293.302	27.5
294.552	28.5
295.803	26
297.053	28
298.303	26.5
299.553	26.5
300.803	26.5
302.053	27
303.302	25.5
304.551	28.5
305.8	30.5
307.047	24
308.296	26
309.544	27
310.792	26
312.04	30.5
313.288	24
314.535	33
315.783	27.5
317.03	27.5
318.275	27.5
319.522	29
320.768	27.5
322.015	25.5
323.261	23.5
324.505	28
325.751	29.5
326.997	28
328.242	27
329.487	24.5
330.73	27.5
331.975	27
333.22	27.5
334.464	29.5
335.707	22
336.95	30
338.194	26
339.438	29.5
340.68	24
341.923	24
343.166	25.5
344.407	26
345.649	31
346.892	26
348.132	25
349.374	25
350.616	24
351.856	26
353.097	26.5
354.337	31.5
355.578	27.5
356.818	30.5
358.058	28.5
359.298	27.5
360.536	28
361.776	25
363.016	29.5
364.254	30.5
365.493	27
366.731	29.5
367.97	23
369.207	29.5
370.446	29.5
371.683	26
372.921	28
374.157	30
375.395	25
376.631	30
377.868	27
379.104	25
380.341	28.5
381.576	26.5
382.813	26
384.048	23.5
385.284	24
386.518	29.5
387.753	27
388.988	28
390.222	24
391.457	24.5
392.691	29.5
393.924	29.5
395.159	28
396.392	25.5
397.624	29
398.858	26.5
400.091	26
401.323	25
402.556	30
403.788	23.5
405.019	28.5
406.252	30
407.483	26
408.714	26
409.945	23
411.177	29
412.407	28.5
413.637	26
414.867	31
416.099	30.5
417.328	28
418.558	29.5
419.787	29.5
421.016	26
422.246	23
423.475	31.5
424.703	26
425.931	29
427.159	32
428.388	28.5
429.616	27.5
430.843	26
432.071	27
433.298	21
434.524	28
435.751	28
436.977	25
438.204	32
439.431	28
440.657	27
441.883	26
443.108	27
444.333	23.5
445.558	28.5
446.783	27.5
448.008	29.5
449.232	29.5
450.457	30
451.681	28
452.905	27.5
454.128	27.5
455.352	25
456.575	27.5
457.798	28
459.021	27.5
460.244	28
461.466	28.5
462.689	26.5
463.909	27.5
465.131	27
466.353	28.5
467.575	31
468.796	29.5
470.017	26.5
471.238	28.5
472.459	31
473.679	27.5
474.898	30
476.118	30
477.338	29
478.558	27.5
479.778	31
480.997	29
482.215	28
483.434	26.5
484.653	31
485.871	36
487.09	35.5
488.307	36
489.525	32.5
490.743	37
491.96	33
493.176	29
494.394	34
495.611	31
496.826	30
498.043	29.5
499.259	28.5
500.474	30.5
501.69	24.5
502.906	31
504.121	26
505.336	29.5
506.551	31.5
507.765	27
508.98	31
510.195	30.5
511.408	28
512.622	27
513.835	27.5
515.049	26.5
516.263	26
517.475	26.5
518.689	29
519.9	27
521.113	28
522.325	34
523.537	28.5
524.748	28
525.961	32
527.171	27.5
528.383	27
529.594	28.5
530.805	31
532.015	29
533.226	27.5
534.435	22
535.646	30
536.855	29
538.066	26
539.274	24
540.483	30.5
541.693	23.5
542.901	25.5
544.11	25
545.318	27.5
546.526	27.5
547.734	27.5
548.942	31
550.149	25
551.357	24.5
552.563	25
553.77	30
554.978	28.5
556.184	29.5
557.389	26
558.596	26.5
559.802	30
561.007	27
562.212	27.5
563.419	27
564.623	30.5
565.828	31
567.032	24
568.238	30.5
569.442	29.5
570.646	26
571.849	23.5
573.054	27
574.257	24
575.46	27
576.663	24
577.866	26.5
579.068	31
580.272	29
581.474	30
582.676	27.5
583.877	26
585.079	26
586.28	27.5
587.481	25
588.682	29
589.883	25
591.083	28
592.285	29
593.485	29
594.685	27.5
595.885	30.5
597.084	29
598.284	24
599.483	29.5
600.682	25.5
601.881	23
603.08	30
604.278	28.5
605.476	28.5
606.674	24.5
607.872	24
609.07	26.5
610.266	30.5
611.463	27
612.661	27.5
613.857	30.5
615.054	29.5
616.251	24
617.447	30.5
618.643	29
619.839	29
621.035	23
622.229	28
623.425	27.5
624.62	28.5
625.815	26.5
627.01	25
628.205	27.5
629.398	30
630.592	28
631.786	25
632.98	29
634.172	32
635.366	22.5
636.559	25.5
637.753	24.5
638.944	25
640.137	24
641.33	25.5
642.522	23.5
643.713	27.5
644.905	25
646.097	28.5
647.287	26
648.478	26
649.67	23
650.859	27.5
652.05	30
653.241	27.5
654.43	27.5
655.621	29
656.811	28
657.999	24.5
659.189	29.5
660.378	23.5
661.567	29.5
662.755	26.5
663.944	28
665.133	23
666.32	28
667.508	26.5
668.695	26.5
669.884	24
671.07	29
672.258	27.5
673.444	29.5
674.631	27
675.817	27.5
677.004	28.5
678.19	27.5
679.376	27
680.561	30
681.746	28.5
682.932	28.5
684.117	26.5
685.302	29.5
686.487	31
687.672	27.5
688.856	27.5
690.039	27.5
691.224	29.5
692.407	27
693.59	31.5
694.774	28
695.957	25
697.14	31
698.323	25.5
699.505	26.5
700.687	28
701.87	30.5
703.052	30
704.233	30
705.414	31
706.597	30.5
707.778	26.5
708.958	33
710.139	31
711.32	31.5
712.5	31
713.68	28
714.86	30.5
716.039	27.5
717.22	29
718.399	28.5
719.578	26
720.757	29
721.935	27
723.114	22
724.292	25
725.471	31
726.649	26.5
727.827	27.5
729.004	26.5
730.182	28
731.359	27.5
732.536	25.5
733.712	30
734.889	25
736.065	30.5
737.242	26
738.418	28.5
739.593	27.5
740.769	24.5
741.945	23.5
743.12	27.5
744.295	24.5
745.47	26.5
746.644	29
747.819	27.5
748.993	27.5
750.168	31.5
751.342	24.5
752.515	26.5
753.689	24
754.862	30
756.036	27.5
757.209	27
758.382	28.5
759.553	29
760.725	23
761.898	29.5
763.07	27.5
764.242	28
765.414	31
766.584	27
767.755	30
768.927	24
770.098	26.5
771.269	32.5
772.438	31
773.608	29
774.779	30
775.949	29
777.117	26
778.287	30
779.457	29.5
780.626	26
781.794	28
782.963	26
784.132	29
785.299	31
786.468	26
787.636	31
788.803	30.5
789.971	26
791.139	27
792.305	26
793.472	26
794.638	24.5
795.805	29
796.972	28.5
798.138	28.5
799.304	26
800.469	29
801.635	26.5
802.801	27
803.966	25
805.131	25.5
806.295	25.5
807.461	30.5
808.624	26
809.789	29
810.952	28
812.117	30
813.28	25
814.444	26
815.607	26.5
816.769	31
817.933	28.5
819.095	31.5
820.258	28
821.42	28.5
822.583	27.5
823.744	31
824.905	26
826.068	24.5
827.228	30.5
828.389	28
829.551	26
830.711	22.5
831.871	25
833.032	26
834.192	30.5
835.352	26
836.513	28.5
837.672	26
838.831	24
839.99	24
841.15	28.5
842.308	25
843.466	30
844.624	26
845.784	24
846.941	26
848.099	25
849.256	28
850.414	24.5
851.572	28.5
852.729	29
853.886	28
855.042	28.5
856.198	27.5
857.355	29
858.512	24
859.668	27
860.823	26
861.979	32
863.134	32.5
864.289	26.5
865.444	24
866.599	26.5
867.753	25
868.908	25.5
870.062	29.5
871.216	27.5
872.37	28
873.523	25.5
874.677	27
875.83	24
876.983	25
878.136	27
879.289	24.5
880.441	27
881.594	27.5
882.746	23.5
883.898	28.5
885.05	25.5
886.201	25
887.353	21.5
888.504	26.5
889.655	28
890.806	25.5
891.956	22.5
893.107	25.5
894.257	28
895.407	28
896.557	26.5
897.707	27
898.856	28.5
900.005	28.5
901.154	24.5
902.304	27
903.453	25.5
904.6	23
905.749	30
906.897	27
908.046	24
909.192	27
910.34	26.5
911.488	26
912.634	26.5
913.782	29
914.929	25.5
916.076	21.5
917.222	27.5
918.368	26
919.515	32.5
920.66	28.5
921.806	25
922.951	24
924.097	26
925.242	26
926.387	29
927.532	25.5
928.676	22.5
929.821	24.5
930.965	22
932.109	27.5
933.253	29.5
934.396	25
935.54	28
936.683	23
937.826	24
938.969	26
940.112	23
941.254	25
942.397	23
943.538	24.5
944.681	26.5
945.822	28
946.964	22.5
948.105	28.5
949.246	25.5
950.388	27
951.528	26
952.669	23.5
953.809	24
954.949	28.5
956.09	27.5
957.229	26.5
958.369	29.5
959.509	28
960.648	25.5
961.786	22
962.926	25
964.065	23.5
965.203	28
966.342	28.5
967.48	26.5
968.618	25
969.755	27.5
970.894	29
972.031	27.5
973.168	25
974.305	26
975.441	26.5
976.579	25.5
977.715	25
978.851	25
979.987	26
981.123	26
982.26	31
983.395	25.5
984.531	28
985.666	23
986.8	28.5
987.935	26
989.07	23
990.204	24
991.338	25
992.472	26
993.607	28.5
994.741	29
995.874	25.5
997.008	23
998.141	25
999.274	25.5
1000.41	27
1001.54	27.5
1002.67	25
1003.8	25
1004.94	23.5
1006.07	26
1007.2	29.5
1008.33	28
1009.46	31
1010.59	23
1011.72	26
1012.85	25
1013.99	28
1015.12	25.5
1016.25	26
1017.38	21
1018.51	27
1019.63	25
1020.76	27.5
1021.89	24.5
1023.02	29
1024.15	28.5
1025.28	25
1026.41	26.5
1027.54	26
1028.67	25.5
1029.79	30.5
1030.92	24
1032.05	25.5
1033.18	26
1034.3	24
1035.43	28
1036.56	25.5
1037.68	24.5
1038.81	22.5
1039.94	25.5
1041.06	23.5
1042.19	23
1043.31	25.5
1044.44	26
1045.57	24.5
1046.69	23.5
1047.82	25.5
1048.94	24.5
1050.07	26
1051.19	24
1052.31	25
1053.44	26
1054.56	25
1055.69	26
1056.81	25.5
1057.93	27.5
1059.06	22
1060.18	22
1061.3	26
1062.42	23
1063.55	30.5
1064.67	21.5
1065.79	24.5
1066.91	26.5
1068.03	28
1069.16	26
1070.28	25
1071.4	25.5
1072.52	28
1073.64	24.5
1074.76	26.5
1075.88	25
1077	28
1078.12	27
1079.24	21.5
1080.36	25.5
1081.48	25
1082.6	24.5
1083.72	29
1084.84	24.5
1085.96	24
1087.08	23
1088.2	26
1089.31	24.5
1090.43	25
1091.55	25.5
1092.67	27
1093.78	24.5
1094.9	28.5
1096.02	27.5
1097.14	26
1098.25	25.5
1099.37	27
1100.49	26
1101.6	25.5
1102.72	26.5
1103.83	26.5
1104.95	27
1106.07	22.5
1107.18	24
1108.3	25
1109.41	28.5
1110.52	24
1111.64	25.5
1112.75	24.5
1113.87	24.5
1114.98	25
1116.1	26
1117.21	24
1118.32	22.5
1119.44	24
1120.55	25
1121.66	27
1122.78	25.5
1123.89	23
1125	26
1126.11	23.5
1127.23	27
1128.34	23.5
1129.45	26.5
1130.56	26.5
1131.67	20.5
1132.78	26
1133.89	21
1135	25.5
1136.12	24.5
1137.23	21.5
1138.34	24
1139.45	25.5
1140.56	25.5
1141.67	27
1142.78	24.5
1143.89	21.5
1144.99	28.5
1146.1	23.5
1147.21	23.5
1148.32	25
1149.43	24
1150.54	26.5
1151.65	24
1152.75	25.5
1153.86	25
1154.97	25
1156.08	24
1157.18	29.5
1158.29	24
1159.4	25
1160.5	26
1161.61	25
1162.72	24.5
1163.82	26
1164.93	26
1166.03	29.5
1167.14	25
1168.24	24
1169.35	28.5
1170.45	23.5
1171.56	24
1172.66	23
1173.77	27.5
1174.87	26.5
1175.98	23
1177.08	25.5
1178.19	26
1179.29	20
1180.39	25
1181.5	27.5
1182.6	21.5
1183.7	25
1184.8	25
1185.91	25.5
1187.01	25
1188.11	24
1189.21	22
1190.32	23.5
1191.42	25.5
1192.52	20
1193.62	23.5
1194.72	23.9995
1195.82	25.9695
1196.92	22.0921
1198.02	24.5752
1199.12	22.1161
1200.22	22.9658
1201.32	22.8675
1202.42	24.6807
1203.52	26.7661
1204.62	25.2383
1205.72	25.7532
1206.82	26.6223
1207.92	25.5259
1209.02	22.865
1210.12	25.3085
1211.22	21.1772
1212.31	22.0295
1213.41	26.075
1214.51	22.1568
1215.61	27.3616
1216.71	24.978
1217.8	26.703
1218.9	24.9962
1220	21.1081
1221.09	23.0758
1222.19	25.6916
1223.29	24.7533
1224.38	22.6571
1225.48	21.538
1226.58	24.1735
1227.67	23.9451
1228.77	23.3208
1229.86	25.0367
1230.96	24.7226
1232.05	25.8423
1233.15	25.1553
1234.24	26.0849
1235.34	23.2821
1236.43	24.5567
1237.52	22.631
1238.62	24.2978
1239.71	22.074
1240.81	20.8923
1241.9	24.5
1242.99	25.7819
1244.09	22.5125
1245.18	24.332
1246.27	22.0779
1247.36	21.5
1248.46	21.9929
1249.55	24.9136
1250.64	23.5194
1251.73	24.7535
1252.82	21.5866
1253.92	21.8824
1255.01	23.2592
1256.1	24.7671
1257.19	26.7882
1258.28	25.3047
1259.37	22.8004
1260.46	27.0778
1261.55	21.9725
1262.64	21.7973
1263.73	22.2029
1264.82	24.03
1265.91	22.1275
1267	25.6084
1268.09	24.1121
1269.18	25.8775
1270.27	24.3191
1271.36	21.8301
1272.45	22.922
1273.53	24.3008
1274.62	22.6902
1275.71	25.2871
1276.8	23.4287
1277.89	26.329
1278.97	23.4872
1280.06	21.5816
1281.15	22.3191
1282.23	24.498
1283.32	26.0715
1284.41	22.4632
1285.49	22.4887
1286.58	25.9942
1287.67	24.671
1288.75	23.9974
1289.84	21.6943
1290.92	26.8304
1292.01	24.6977
1293.09	21.3712
1294.18	20.8862
1295.26	22.148
1296.35	21.8336
1297.43	25.4316
1298.52	22.5352
1299.6	24.902
1300.69	20.3193
1301.77	24.4792
1302.85	26.0013
1303.94	23.3909
1305.02	23.1536
1306.1	24.1983
1306.42	24.5
1307.51	25.5
1308.59	26
1309.68	24
1310.77	24
1311.86	25
1312.95	26.5
1314.03	22.5
1315.12	22.5
1316.21	26
1317.29	25.5
1318.38	23.5
1319.47	19
1320.55	23
1321.64	26.5
1322.72	24
1323.81	24.5
1324.89	25.5
1325.98	22.5
1327.07	26.5
1328.15	21
1329.24	23.5
1330.32	21
1331.4	23.5
1332.49	24
1333.57	24.5
1334.66	24
1335.74	25
1336.82	27
1337.91	27
1338.99	28.5
1340.07	24.5
1341.16	22.5
1342.24	23.5
1343.32	24.5
1344.4	23
1345.49	25
1346.57	23.5
1347.65	24.5
1348.73	25
1349.81	25
1350.9	25
1351.98	23
1353.06	17.5
1354.14	26
1355.22	27.5
1356.3	23.5
1357.38	22.5
1358.46	23
1359.54	25.5
1360.62	25
1361.7	22
1362.78	24
1363.86	21.5
1364.94	22
1366.02	23.5
1367.1	23
1368.17	22
1369.25	22.5
1370.33	24.5
1371.41	23.5
1372.49	24.5
1373.57	20.5
1374.64	24
1375.72	23.5
1376.8	21.5
1377.87	22.5
1378.95	21
1380.03	22
1381.1	20.5
1382.18	23
1383.26	23
1384.33	20.5
1385.41	24.5
1386.49	24.5
1387.56	27.5
1388.64	24.5
1389.71	26
1390.79	26.5
1391.86	26.5
1392.94	22.5
1394.01	27
1395.08	23.5
1396.16	19
1397.23	26
1398.31	23
1399.38	26
1400.45	24
1401.53	22
1402.6	24.5
1403.67	23.5
1404.75	22.5
1405.82	23.5
1406.89	25
1407.96	22.5
1409.04	23
1410.11	28.5
1411.18	29
1412.25	27
1413.32	27.5
1414.39	30.5
1415.47	25
1416.54	24.5
1417.61	25.5
1418.68	26.5
1419.75	25.5
1420.82	24.5
1421.89	25
1422.96	22
1424.03	25
1425.1	26.5
1426.17	24
1427.24	26.5
1428.31	20.5
1429.38	24.5
1430.44	24
1431.51	23
1432.58	29.5
1433.65	24
1434.72	23
1435.79	23.5
1436.85	25.5
1437.92	24.5
1438.99	25
1440.05	26
1441.12	21
1442.19	26
1443.26	26
1444.32	22
1445.39	26
1446.46	21
1447.52	25
1448.59	29.5
1449.65	20.5
1450.72	21.5
1451.78	22.5
1452.85	25
1453.91	24
1454.98	27
1456.04	25.5
1457.11	25
1458.17	25.5
1459.24	22
1460.3	23.5
1461.36	25.5
1462.43	28.5
1463.49	29
1464.56	26
1465.62	22
1466.68	25
1467.74	25.5
1468.81	23.5
1469.87	26
1470.93	23
1471.99	19.5
1473.06	24.5
1474.12	27
1475.18	25.5
1476.24	27
1477.3	28.5
1478.36	27
1479.42	25
1480.49	26
1481.55	25
1482.61	26
1483.67	25.5
1484.73	25.5
1485.79	26
1486.85	26
1487.91	23.5
1488.97	23.5
1490.03	23
1491.09	25
1492.14	24
1493.2	27
1494.26	24.5
1495.32	26.5
1496.38	25
1497.44	27
1498.49	24.5
1499.55	26
1500.61	20.5
1501.67	27
1502.72	24.5
1503.78	28
1504.84	24.5
1505.89	25
1506.95	22.5
1508.01	27.5
1509.07	22
1510.12	27
1511.18	26.5
1512.23	23.5
1513.29	25
1514.34	25
1515.4	24.5
1516.45	25.5
1517.51	22.5
1518.56	22
1519.62	26
1520.67	22
1521.73	20.5
1522.78	23
1523.84	27
1524.89	25.5
1525.94	24.5
1527	24
1528.05	24.5
1529.1	23.5
1530.16	24.5
1531.21	26
1532.26	23
1533.32	22
1534.37	23.5
1535.42	21.5
1536.47	26
1537.52	23
1538.57	27
1539.63	24.5
1540.68	25.5
1541.73	23
1542.78	25.5
1543.83	26
1544.88	22.5
1545.93	25.5
1546.98	24.5
1548.03	25.5
1549.08	22
1550.13	24.5
1551.18	24.5
1552.23	22.5
1553.28	21
1554.33	23
1555.38	28.5
1556.43	25
1557.48	24
1558.53	28
1559.57	24.5
1560.62	23
1561.67	23.5
1562.72	25.5
1563.77	25
1564.81	23
1565.86	24.5
1566.91	25
1567.96	23.5
1569	24.5
1570.05	23
1571.09	25
1572.14	25
1573.19	25.5
1574.23	25
1575.28	23
1576.33	26
1577.37	27
1578.42	25.5
1579.46	22
1580.51	23.5
1581.55	26.5
1582.6	27.5
1583.64	30.5
1584.69	25.5
1585.73	22
1586.77	26.5
1587.82	26.5
1588.86	24.5
1589.91	23
1590.95	26
1591.99	25.5
1593.04	27.5
1594.08	24
1595.12	23
1596.16	25.5
1597.21	25
1598.25	24
1599.29	21
1600.33	30.5
1601.37	22
1602.42	22.5
1603.46	26
1604.5	24.5
1605.54	25.5
1606.58	23.5
1607.62	27
1608.66	22
1609.7	20.5
1610.74	23
1611.78	28.5
1612.82	27.5
1613.86	23
1614.9	25.5
1615.94	27
1616.98	23.5
1618.02	26
1619.06	24.5
1620.1	24
1621.14	25
1622.18	21
1623.21	25.5
1624.25	24.5
1625.29	24
1626.33	26
1627.37	21.5
1628.4	26
1629.44	22.5
1630.48	25
1631.52	27
1632.55	23.5
1633.59	25.5
1634.63	22.5
1635.66	27
1636.7	26
1637.73	24
1638.77	26.5
1639.81	25.5
1640.84	22
1641.88	23.5
1642.91	25
1643.95	27
1644.98	26
1646.02	27.5
1647.05	22.5
1648.09	25
1649.12	25
1650.16	26
1651.19	18
1652.22	24.5
1653.26	25.5
1654.29	25.5
1655.32	20.5
1656.36	24
1657.39	24.5
1658.42	22.5
1659.46	26
1660.49	23
1661.52	26
1662.55	29
1663.59	21
1664.62	26.5
1665.65	25
1666.68	23.5
1667.71	29
1668.74	20
1669.77	25.5
1670.81	25
1671.84	29
1672.87	19
1673.9	24
1674.93	27
1675.96	27.5
1676.99	21.5
1678.02	25
1679.05	26.5
1680.08	22
1681.11	22
1682.13	28.5
1683.16	23
1684.19	24
1685.22	25
1686.25	28
1687.28	21
1688.31	24
1689.33	25.5
1690.36	26
1691.39	27.5
1692.42	27.5
1693.45	23
1694.47	25.5
1695.5	26.5
1696.53	24
1697.55	23
1698.58	22
1699.61	24.5
1700.63	23
1701.66	24.5
1702.68	26
1703.71	25
1704.74	26
1705.76	21
1706.79	25
1707.81	24
1708.84	25
1709.86	24.5
1710.89	24.5
1711.91	30
1712.94	22
1713.96	29
1714.98	27
1716.01	25
1717.03	26
1718.05	25.5
1719.08	27
1720.1	23.5
1721.12	24
1722.15	25
1723.17	26
1724.19	27
1725.22	28
1726.24	25
1727.26	23.5
1728.28	23
1729.3	24
1730.32	23
1731.35	25
1732.37	24
1733.39	25
1734.41	26.5
1735.43	24.5
1736.45	21
1737.47	23
1738.49	23.5
1739.51	25
1740.53	24.5
1741.55	19
1742.57	27.5
1743.59	24
1744.61	22.5
1745.63	28
1746.65	23.5
1747.67	27.5
1748.69	26
1749.71	25.5
1750.72	23
1751.74	22
1752.76	24.5
1753.78	25.5
1754.8	26.5
1755.81	28
1756.83	28
1757.85	24
1758.87	22
1759.88	22.5
1760.9	26.5
1761.92	25
1762.93	26.5
1763.95	29.5
1764.97	21.5
1765.98	22
1767	27.5
1768.01	28.5
1769.03	22
1770.05	23
1771.06	21
1772.08	26
1773.09	24
1774.11	26.5
1775.12	24.5
1776.13	24.5
1777.15	27
1778.16	25
1779.18	24.5
1780.19	27
1781.2	24
1782.22	24.5
1783.23	25
1784.24	27
1785.26	23
1786.27	24
1787.28	26
1788.3	24
1789.31	24.5
1790.32	27
1791.33	23
1792.35	20.5
1793.36	26.5
1794.37	29
1795.38	20.5
1796.39	22.5
1797.4	26
1798.41	23
1799.43	24
1800.44	24
1801.45	22.5
1802.46	26
1803.47	23.5
1804.48	24
1805.49	25.5
1806.5	22
1807.51	21
1808.52	25
1809.53	24.5
1810.53	22
1811.54	24.5
1812.55	25
1813.56	29
1814.57	28
1815.58	26
1816.59	26
1817.6	23
1818.6	24.5
1819.61	21
1820.62	21
1821.63	21.5
1822.63	28
1823.64	24
1824.65	23.5
1825.65	25.5
1826.66	24
1827.67	23.5
1828.67	25
1829.68	24.5
1830.69	21
1831.69	19.5
1832.7	25
1833.7	25.5
1834.71	25
1835.71	23
1836.72	24
1837.72	26.5
1838.73	24
1839.73	23
1840.74	22.5
1841.74	23.5
1842.75	25.5
1843.75	24.5
1844.75	23
1845.76	25
1846.76	26
1847.76	26
1848.77	20
1849.77	23
1850.77	26.5
1851.78	23
1852.78	28.5
1853.78	24
1854.78	23
1855.79	22
1856.79	23
1857.79	25.5
1858.79	26
1859.79	27
1860.8	24.5
1861.8	25
1862.8	25.5
1863.8	23
1864.8	25.5
1865.8	24.5
1866.8	24.5
1867.8	23
1868.8	26.5
1869.8	22.5
1870.8	25
1871.8	25.5
1872.8	26.5
1873.8	22.5
1874.8	24.5
1875.8	26.5
1876.8	24.5
1877.8	25.5
1878.79	25.5
1879.79	21
1880.79	21.5
1881.79	27
1882.79	22.5
1883.79	24
1884.78	26.5
1885.78	29
1886.78	22
1887.77	25
1888.77	25.5
1889.77	23
1890.77	22
1891.76	21
1892.76	26
1893.76	23.5
1894.75	25.5
1895.75	25.5
1896.74	23.5
1897.74	25
1898.73	25
1899.73	23.5
1900.72	25
1901.72	28
1902.72	25
1903.71	21.5
1904.7	24.5
1905.7	25
1906.69	24
1907.69	24
1908.68	30.5
1909.67	24
1910.67	22
1911.66	25.5
1912.66	26.5
1913.65	24.5
1914.64	26.5
1915.63	22
1916.63	26
1917.62	23.5
1918.61	26
1919.6	26
1920.6	21
1921.59	25
1922.58	25
1923.57	24.5
1924.56	25.5
1925.56	25.5
1926.55	27.5
1927.54	24
1928.53	23.5
1929.52	27.5
1930.51	20
1931.5	20
1932.49	25
1933.48	23.5
1934.47	26
1935.46	24.5
1936.45	24
1937.44	25
1938.43	25
1939.42	25.5
1940.41	26.5
1941.4	23.5
1942.39	22
1943.37	22
1944.36	26.5
1945.35	19
1946.34	21
1947.33	25
1948.32	24.25
1949.3	21.5
1950.29	26
1951.28	21.5
1952.27	26
1953.25	26.5
1954.24	24.5
1955.23	26
1956.21	24
1957.2	26
1958.19	24.5
1959.17	24
1960.16	23
1961.14	29
1962.13	25
1963.12	22
1964.1	24
1965.09	25
1966.07	22.5
1967.06	24
1968.04	22
1969.03	30
1970.01	26.5
1970.99	24
1971.98	25
1972.96	23
1973.95	22.5
1974.93	24
1975.92	27
1976.9	24
1977.88	27
1978.87	25
1979.85	21
1980.83	30.5
1981.81	22.5
1982.8	23.5
1983.78	24
1984.76	24
1985.74	27
1986.73	25.5
1987.71	24.5
1988.69	26
1989.67	20
1990.65	21.5
1991.63	22.5
1992.61	24.5
1993.59	25
1994.58	24
1995.56	28.5
1996.54	21.5
1997.52	23.5
1998.5	24
1999.48	24.5
2000.46	27
2001.44	22
2002.42	22.5
2003.4	24
2004.38	22
2005.35	22
2006.33	23
2007.31	26
2008.29	24.5
2009.27	25.5
2010.25	26.5
2011.23	22
2012.2	20
2013.18	24.5
2014.16	23
2015.14	27.5
2016.11	24.5
2017.09	24
2018.07	23
2019.05	25.5
2020.02	22
2021	23
2021.98	23
2022.95	27
2023.93	24
2024.91	21.5
2025.88	25.5
2026.86	25.5
2027.83	24
2028.81	26
2029.78	21
2030.76	24
2031.73	25
2032.71	21.5
2033.68	26
2034.66	21.5
2035.63	25
2036.61	26
2037.58	28
2038.56	22.5
2039.53	22.5
2040.5	22.5
2041.48	21.5
2042.45	23.5
2043.42	24
2044.4	23
2045.37	21.5
2046.34	23.5
2047.32	21.5
2048.29	23.5
2049.26	25.5
2050.23	22
2051.2	23.5
2052.18	21
2053.15	23.5
2054.12	25
2055.09	19
2056.06	25
2057.03	22
2058	25
2058.98	23
2059.95	26
2060.92	18
2061.89	23
2062.86	27
2063.83	28
2064.8	21.5
2065.77	26
2066.74	23.5
2067.71	22
2068.68	19
2069.65	22
2070.61	23.5
2071.58	22.5
2072.55	22.5
2073.52	24
2074.49	22
2075.46	25.5
2076.43	22.5
2077.4	21
2078.36	19
2079.33	21
2080.3	21.5
2081.27	27
2082.23	19
2083.2	21.5
2084.17	26.5
2085.13	22.5
2086.1	22.5
2087.07	22.5
2088.03	22
2089	23.5
2089.97	24
2090.93	23.5
2091.9	24
2092.86	20.5
2093.83	19.5
2094.8	23
2095.76	28
2096.73	22.5
2097.69	23
2098.66	20.5
2099.62	25
2100.58	20.5
2101.55	26.5
2102.51	22.5
2103.48	25
2104.44	25
2105.41	22
2106.37	23.5
2107.33	24.5
2108.3	20
2109.26	23
2110.22	23
2111.19	24
2112.15	23.5
2113.11	20.5
2114.07	26
2115.04	24
2116	24
2116.96	23
2117.92	26
2118.88	26.5
2119.85	22.5
2120.81	23
2121.77	23.5
2122.73	24
2123.69	22.5
2124.65	25
2125.61	23.5
2126.57	24
2127.53	22
2128.49	24
2129.45	23.5
2130.41	27.5
2131.37	19
2132.33	23
2133.29	22
2134.25	26.5
2135.21	24.5
2136.17	21
2137.13	25.5
2138.09	22
2139.05	25
2140.01	22
2140.96	24
2141.92	22.5
2142.88	23.4737
2143.84	24.4087
2144.8	24.4467
2145.75	23.5295
2146.71	25.9183
2147.67	22.6068
2148.63	23.5083
2149.58	21.9713
2150.54	21.5571
2151.5	19.9014
2152.45	22.4259
2153.41	22.7767
2154.37	22.8101
2155.32	24.7797
2156.28	22.7523
2157.23	22.0582
2158.19	20.1945
2159.15	21.781
2160.1	22.0955
2161.06	23.4655
2162.01	21.5226
2162.97	21.0786
2163.92	21.3267
2164.88	20.6321
2165.83	24.0661
2166.78	21.6613
2167.74	23.6672
2168.69	19.534
2169.65	22.1419
2170.6	23.5892
2171.56	22.2961
2172.51	20.186
2173.46	23.5818
2174.42	20.8982
2175.37	19.8682
2176.32	21.4304
2177.28	20.1232
2178.23	25.4582
2179.18	20.865
2180.13	22.6605
2181.08	22.5621
2182.04	23.8841
2182.99	24.28
2183.94	21.4652
2184.89	21.212
2185.84	18.7413
2186.8	21.5766
2187.75	21.5777
2188.7	20.5259
2189.65	22.549
2190.6	23.1867
2191.55	20.505
2192.5	20.2512
2193.45	20.0074
2194.4	21.505
2195.35	23.0388
2196.3	23.1893
2197.25	23.5089
2198.2	22.1655
2199.15	23.2642
2200.1	21.3711
2201.05	21.3058
2202	22.9443
2202.95	19.5736
2203.9	23.5788
2204.85	23.4126
2205.79	23.7861
2206.74	22.5976
2207.69	22.4046
2208.64	22.4349
2209.59	19.7627
2210.53	20.8725
2211.48	20.9192
2212.43	22.2962
2213.38	20.1295
2214.32	20.9967
2215.27	23.6032
2216.22	24.4577
2217.17	21.8365
2218.11	22.1408
2219.06	23.1277
2220.01	24.9224
2220.95	21.5033
2221.9	19.8331
2222.84	19.8097
2223.79	25.7215
2224.73	20.7402
2225.68	21.0195
2226.63	22.9228
2227.57	20.8916
2228.52	21.9434
2229.46	20.0801
2230.41	23.7982
2231.35	21.8943
2232.3	22.9658
2233.24	23.0232
2234.18	21.429
2235.13	19.4122
2236.07	23.5705
2237.02	21.4209
2237.96	23.1796
2238.9	22.4711
2239.85	21.6214
2240.08	21.5
2241.03	24.5
2241.97	19
2242.92	26
2243.87	18
2244.82	19.5
2245.76	22.5
2246.71	25.5
2247.66	23
2248.61	22
2249.55	24
2250.5	24
2251.45	22
2252.39	26
2253.34	23
2254.29	22
2255.23	23
2256.18	25.5
2257.12	22
2258.07	19
2259.01	25
2259.96	25
2260.9	23
2261.85	20.5
2262.79	23
2263.74	21.5
2264.68	22.5
2265.63	22.5
2266.57	23
2267.52	24.5
2268.46	30.5
2269.41	23
2270.35	24
2271.29	24.5
2272.24	20
2273.18	18
2274.12	17.5
2275.07	22.5
2276.01	22
2276.95	22.5
2277.89	22
2278.84	24
2279.78	22.5
2280.72	15.5
2281.66	26
2282.6	20
2283.55	22
2284.49	22.5
2285.43	21
2286.37	23
2287.31	24
2288.25	24.5
2289.2	22.5
2290.14	23.5
2291.08	24.5
2292.02	24
2292.96	23
2293.9	24.5
2294.84	26
2295.78	22
2296.72	23
2297.66	24
2298.6	23
2299.54	21
2300.48	19
2301.42	20.5
2302.35	24.5
2303.29	21
2304.23	24.5
2305.17	25.5
2306.11	23
2307.05	23.5
2307.99	22.5
2308.92	23.5
2309.86	21.5
2310.8	25.5
2311.74	19.5
2312.67	24.5
2313.61	23.5
2314.55	23
2315.49	22.5
2316.42	27
2317.36	23
2318.3	25
2319.23	25
2320.17	26
2321.1	25
2322.04	23
2322.98	21
2323.91	22
2324.85	23
2325.78	24.5
2326.72	24.5
2327.66	24
2328.59	27
2329.52	22
2330.46	22.5
2331.39	26.5
2332.33	21
2333.26	22.5
2334.2	26.5
2335.13	27
2336.07	27
2337	20
2337.93	21
2338.87	26
2339.8	21.5
2340.73	20
2341.67	21
2342.6	23
2343.53	22.5
2344.46	18.5
2345.4	25
2346.33	23.5
2347.26	22
2348.19	26
2349.13	21
2350.06	25
2350.99	26
2351.92	23
2352.85	24
2353.79	24.5
2354.72	20
2355.65	22.5
2356.58	25.5
2357.51	26
2358.44	24.5
2359.37	22
2360.3	21
2361.23	21
2362.16	23
2363.09	24.5
2364.02	27.5
2364.95	25
2365.88	20.5
2366.81	23
2367.74	25
2368.67	22
2369.6	29
2370.53	23
2371.45	22
2372.38	26
2373.31	21
2374.24	24.5
2375.17	24
2376.1	25.5
2377.02	24.5
2377.95	26
2378.88	22
2379.81	23
2380.73	23.5
2381.66	23.5
2382.59	21.5
2383.52	25
2384.44	27.5
2385.37	24
2386.3	19
2387.22	25.5
2388.15	26
2389.07	23
2390	24.5
2390.93	24.5
2391.85	26.5
2392.78	23.5
2393.7	27
2394.63	22.5
2395.55	22
2396.48	27.5
2397.4	26.5
2398.33	23.5
2399.25	20
2400.18	27.5
2401.1	22
2402.03	22.5
2402.95	22
2403.87	24.5
2404.8	22.5
2405.72	25
2406.64	21
2407.57	22
2408.49	21
2409.41	25
2410.34	21.5
2411.26	22
2412.18	25.5
2413.1	23
2414.03	23
2414.95	27
2415.87	23.5
2416.79	24
2417.72	23.5
2418.64	21.5
2419.56	24
2420.48	23.5
2421.4	26.5
2422.32	26.5
2423.24	23
2424.16	25.5
2425.09	23
2426.01	24.5
2426.93	21
2427.85	21.5
2428.77	23.5
2429.69	19
2430.61	23
2431.53	23.5
2432.45	24.5
2433.37	23
2434.29	24.5
2435.21	20
2436.12	29
2437.04	25
2437.96	24.5
2438.88	22
2439.8	24
2440.72	27
2441.64	22.5
2442.55	24
2443.47	27
2444.39	24
2445.31	30
2446.23	22.5
2447.14	22
2448.06	24.5
2448.98	22
2449.9	21.5
2450.81	22.5
2451.73	23.5
2452.65	25.5
2453.56	24.5
2454.48	24
2455.39	23.5
2456.31	25
2457.23	21.5
2458.14	26.5
2459.06	24.5
2459.97	23.5
2460.89	27
2461.8	24
2462.72	25.5
2463.64	23.5
2464.55	23
2465.47	28
2466.38	23
2467.29	22
2468.21	24
2469.12	23.5
2470.04	24
2470.95	24
2471.86	21.5
2472.78	25.5
2473.69	24
2474.61	23.5
2475.52	22
2476.43	24
2477.35	26
2478.26	25.5
2479.17	25
2480.08	26
2481	22.5
2481.91	20
2482.82	20
2483.73	23.5
2484.64	26
2485.56	26.5
2486.47	18
2487.38	20.5
2488.29	22.5
2489.2	22.5
2490.11	23.5
2491.03	23
2491.94	25
2492.85	23.5
2493.76	23
2494.67	26
2495.58	25.5
2496.49	21
2497.4	23.5
2498.31	25
2499.22	24.5
2500.13	26.5
2501.04	24
2501.95	21
2502.86	27
2503.77	24.5
2504.67	23.5
2505.58	21.5
2506.49	25.5
2507.4	22
2508.31	21
2509.22	21
2510.13	23
2511.03	28.5
2511.94	26
2512.85	25
2513.76	24.5
2514.66	21.5
2515.57	24
2516.48	22.5
2517.39	21.5
2518.29	28
2519.2	24
2520.11	26.5
2521.01	23.5
2521.92	24.5
2522.83	25.5
2523.73	22
2524.64	24
2525.54	24
2526.45	24
2527.36	22.5
2528.26	23.5
2529.17	23
2530.07	28.5
2530.98	24
2531.88	21
2532.79	24
2533.69	24
2534.6	27
2535.5	24.5
2536.41	24.5
2537.31	26.5
2538.21	23
2539.12	23.5
2540.02	24
2540.93	22
2541.83	25.5
2542.73	23
2543.64	24
2544.54	22.5
2545.44	24
2546.34	26
2547.25	28.5
2548.15	25
2549.05	24
2549.96	19.5
2550.86	26
2551.76	24
2552.66	26.5
2553.56	21
2554.46	24
2555.37	24
2556.27	25
2557.17	21.5
2558.07	27
2558.97	18
2559.87	26
2560.77	19
2561.67	26.5
2562.57	27.5
2563.47	24
2564.37	23.5
2565.27	24
2566.17	22.5
2567.07	25.5
2567.97	22.5
2568.87	30
2569.77	23.5
2570.67	24.5
2571.57	23
2572.47	23.5
2573.37	25
2574.27	22.5
2575.17	20.5
2576.06	26.5
2576.96	25.5
2577.86	23
2578.76	26.5
2579.66	22.5
2580.56	23
2581.45	21
2582.35	26
2583.25	27
2584.15	21
2585.04	28
2585.94	24.5
2586.84	22.5
2587.73	26.5
2588.63	25.5
2589.53	20
2590.42	21
2591.32	28
2592.22	22
2593.11	17.5
2594.01	26
2594.9	21.5
2595.8	21.5
2596.69	25.5
2597.59	31
2598.48	23
2599.38	20.5
2600.28	24
2601.17	24.5
2602.06	27
2602.96	21.5
2603.85	28
2604.75	25
2605.64	24
2606.54	24.5
2607.43	24.5
2608.32	23.5
2609.22	27.5
2610.11	20.5
2611	22
2611.9	22
2612.79	25
2613.68	22.5
2614.58	25
2615.47	21.5
2616.36	23
2617.25	27.5
2618.15	21
2619.04	25
2619.93	25
2620.82	27
2621.71	24
2622.61	22.5
2623.5	21.5
2624.39	24
2625.28	23
2626.17	25
2627.06	23
2627.95	23.5
2628.84	25.5
2629.74	26
2630.63	24.5
2631.52	27.5
2632.41	25
2633.3	24
2634.19	24
2635.08	23
2635.97	26
2636.85	23
2637.74	21
2638.63	26
2639.52	28
2640.41	22
2641.3	25
2642.19	21
2643.08	24.5
2643.97	22
2644.86	28.5
2645.74	20
2646.63	24
2647.52	22
2648.41	24
2649.3	25.5
2650.18	25
2651.07	25.5
2651.96	24.5
2652.85	19.5
2653.73	26
2654.62	22
2655.51	27
2656.39	24.5
2657.28	25.5
2658.17	21.5
2659.05	19
2659.94	24
2660.83	22.5
2661.71	24
2662.6	26
2663.48	25.5
2664.37	25
2665.25	24
2666.14	24.5
2667.02	20
2667.91	24.5
2668.79	26.5
2669.68	21.5
2670.56	24
2671.45	26
2672.33	26.5
2673.22	24.5
2674.1	22.5
2674.98	22
2675.87	23.5
2676.75	26.5
2677.64	23.5
2678.52	23
2679.4	25
2680.29	27.5
2681.17	25
2682.05	24
2682.94	23.5
2683.82	26
2684.7	26.5
2685.58	23.5
2686.47	23
2687.35	27.5
2688.23	27.5
2689.11	20.5
2689.99	23
2690.88	23
2691.76	25.5
2692.64	23
2693.52	27.5
2694.4	25
2695.28	25.5
2696.16	23.5
2697.04	24
2697.92	27
2698.8	28
2699.69	26
2700.57	23.5
2701.45	22
2702.33	23
2703.21	24.5
2704.09	23
2704.97	22
2705.84	24.5
2706.72	25.5
2707.6	26.5
2708.48	24
2709.36	28
2710.24	25.5
2711.12	24
2712	24.5
2712.88	25
2713.75	25
2714.63	22.5
2715.51	25
2716.39	24.5
2717.27	22
2718.14	27
2719.02	26.5
2719.9	21
2720.78	24.5
2721.65	22
2722.53	21
2723.41	23
2724.28	22
2725.16	22.5
2726.04	22
2726.92	21.5
2727.79	28
2728.67	24
2729.54	24
2730.42	24
2731.3	22
2732.17	28.5
2733.05	24
2733.92	26.5
2734.8	24.5
2735.67	21.5
2736.55	27
2737.42	25.5
2738.3	22
2739.17	27
2740.05	21.5
2740.92	25
2741.79	24
2742.67	26
2743.54	27.5
2744.42	23
2745.29	24.5
2746.16	23
2747.04	24
2747.91	24
2748.78	24
2749.66	20
2750.53	25
2751.4	21
2752.28	26.5
2753.15	24.5
2754.02	27
2754.89	24
2755.77	22
2756.64	19
2757.51	28.5
2758.38	21
2759.25	26
2760.13	23
2761	24
2761.87	22
2762.74	24.5
2763.61	24.5
2764.48	23.5
2765.35	26.5
2766.22	20.5
2767.09	24
2767.96	25
2768.83	23.5
2769.71	20
2770.57	24
2771.44	22
2772.32	21.5
2773.18	25.5
2774.05	26.5
2774.92	22
2775.79	21.5
2776.66	22
2777.53	24.5
2778.4	26
2779.27	23
2780.14	24
2781.01	23.5
2781.87	29
2782.74	25.5
2783.61	21
2784.48	21
2785.35	24
2786.21	22
2787.08	24.5
2787.95	24
2788.82	26
2789.69	18.5
2790.55	25
2791.42	25.5
2792.29	23
2793.15	23
2794.02	25.5
2794.89	21
2795.75	25.5
2796.62	21.5
2797.49	24.5
2798.35	22
2799.22	22
2800.08	22.5
2800.95	23.25
2801.81	20
2802.68	24.5
2803.55	24.5
2804.41	25.5
2805.28	22.5
2806.14	21
2807	24
2807.87	24
2808.73	23
2809.6	27.5
2810.46	24
2811.33	21
2812.19	26
2813.06	23
2813.92	21.5
2814.78	25.5
2815.65	25
2816.51	23
2817.37	26.5
2818.24	24
2819.1	27
2819.96	22.5
2820.83	22.5
2821.69	25
2822.55	26
2823.41	23
2824.28	20.5
2825.14	22
2826	23
2826.86	22.5
2827.72	26
2828.58	20
2829.45	23
2830.31	20
2831.17	25.5
2832.03	20
2832.89	23
2833.75	28
2834.61	23
2835.47	24.5
2836.33	25
2837.2	25.5
2838.05	25.5
2838.92	19.5
2839.78	23
2840.64	23.5
2841.49	22
2842.35	25
2843.21	21
2844.07	24
2844.93	21
2845.79	23
2846.65	23
2847.51	24.5
2848.37	19
2849.23	23
2850.09	26
2850.94	19
2851.8	23.5
2852.66	23
2853.52	20
2854.38	22
2855.23	21
2856.09	22
2856.95	23
2857.81	23
2858.67	23
2859.52	23.5
2860.38	27
2861.24	24
2862.09	24.5
2862.95	23
2863.81	25.5
2864.66	22.5
2865.52	28
2866.38	23.5
2867.23	23.5
2868.09	23.5
2868.94	23
2869.8	21.5
2870.65	21.5
2871.51	24
2872.37	24
2873.22	24.5
2874.08	24
2874.93	26
2875.79	25.5
2876.64	24.5
2877.49	26
2878.35	23.5
2879.2	25
2880.06	24.5
2880.91	20
2881.77	22.5
2882.62	21.5
2883.47	22.5
2884.33	21
2885.18	24.5
2886.03	25.5
2886.89	22.5
2887.74	24
2888.59	22.5
2889.45	26.5
2890.3	22.5
2891.15	23
2892	22.5
2892.86	28.5
2893.71	29.5
2894.56	26.5
2895.41	23
2896.27	28.5
2897.12	25.5
2897.97	23
2898.82	25.5
2899.67	29.5
2900.52	25
2901.37	24
2902.23	29
2903.08	27.5
2903.93	30
2904.78	28.5
2905.63	28
2906.48	26
2907.33	24.5
2908.18	33
2909.03	27.5
2909.88	30
2910.73	26.5
2911.58	27
2912.43	25.5
2913.28	27.5
2914.13	23
2914.98	28.5
2915.83	23
2916.67	23
2917.52	25.5
2918.37	22.5
2919.22	25.5
2920.07	24.5
2920.92	23.5
2921.77	25.5
2922.61	22
2923.46	23
2924.31	23.5
2925.16	23
2926	23
2926.85	24.5
2927.7	23
2928.55	23
2929.39	22
2930.24	23
2931.09	26
2931.94	22
2932.78	22.5
2933.63	26.5
2934.47	24.5
2935.32	23.5
2936.17	23.5
2937.01	23
2937.86	22
2938.7	20.5
2939.55	24.5
2940.4	21
2941.24	26
2942.09	22.5
2942.93	22.5
2943.78	22
2944.62	25
2945.47	20
2946.31	21
2947.16	21
2948	23.5
2948.84	26.5
2949.69	24
2950.53	22
2951.38	22
2952.22	21.5
2953.06	23.5
2953.91	24
2954.75	24
2955.59	24.5
2956.44	23.5
2957.28	25.5
2958.12	23.5
2958.97	25
2959.81	22.5
2960.65	24
2961.5	26.5
2962.34	24
2963.18	22
2964.02	26.5
2964.86	26
2965.71	26.5
2966.55	23.5
2967.39	25
2968.23	22.5
2969.07	22
2969.91	25
2970.75	19
2971.6	20.0024
2972.44	23.9156
2973.28	20.6166
2974.12	25.4862
2974.96	22.9494
2975.8	24.7652
2976.64	25.9621
2977.48	25.2784
2978.32	24.2573
2979.16	19.7248
2980	20.4755
2980.84	24.7409
2981.68	21.6274
2982.52	23.6245
2983.36	21.0704
2984.2	18.8443
2985.04	20.7917
2985.88	21.7171
2986.71	20.6332
2987.55	19.707
2988.39	19.783
2989.23	23.1148
2990.07	25.9785
2990.91	22.7023
2991.75	21.4758
2992.58	20.8455
2993.42	24.5664
2994.26	19.7914
2995.1	21.4518
2995.93	24.5237
2996.77	21.5188
2997.61	21.8698
2998.45	21.5073
2999.28	23.6609
3000.12	21.6788
3000.96	21.7746
3001.79	23.8071
3002.63	22.1889
3003.47	18.4865
3004.3	21.3705
3005.14	24.4442
3005.98	22.121
3006.81	20.391
3007.65	20.5
3008.48	20.1725
3009.32	24.2117
3010.15	20.6685
3010.99	19.5467
3011.82	21.2646
3012.66	20.2209
3013.5	23.5638
3014.33	22.8368
3015.17	23.5152
3016	23.3677
3016.83	21.2744
3017.67	21.1586
3018.5	23.5123
3019.34	22.7312
3020.17	22.6278
3021.01	21.8447
3021.84	20.7648
3022.67	21.4771
3023.51	21.2468
3024.34	20.6592
3025.17	22.1633
3026.01	21.2308
3026.84	22.3859
3027.67	22.8918
3028.51	24.011
3029.34	22.0019
3030.17	20.689
3031	22.531
3031.84	23.6065
3032.67	23.4767
3033.5	21.9588
3034.33	23.4175
3035.17	23.7823
3036	22.2248
3036.83	22.1787
3037.66	21.7268
3038.49	20.0249
3039.32	21.3637
3040.15	21.1785
3040.99	20.6326
3041.82	20.2094
3042.65	21.2074
3043.48	23.5847
3044.31	22.9965
3045.14	21.8059
3045.97	22.0792
3046.8	21.6462
3047.63	20.33
3048.46	22.2328
3049.29	21.6595
3050.12	22.0602
3050.95	24.437
3051.78	24.5878
3052.61	22.7868
3053.44	20.7332
3054.27	21.138
3055.1	21.4636
3055.92	23.0217
3056.75	25.6575
3057.27	26
3058.11	23
3058.94	22.5
3059.77	23
3060.61	22.5
3061.44	18.5
3062.27	23
3063.11	16.5
3063.94	18.5
3064.77	25
3065.6	23
3066.43	23.5
3067.27	23
3068.1	21
3068.93	22
3069.76	22.5
3070.59	21
3071.42	18.5
3072.26	21
3073.09	23
3073.92	19.5
3074.75	20
3075.58	24
3076.41	27
3077.24	21
3078.07	22.5
3078.9	23.5
3079.73	22
3080.56	19.5
3081.39	21.5
3082.22	22
3083.05	28
3083.88	20
3084.71	21.5
3085.54	24.5
3086.37	21
3087.2	22
3088.03	22.5
3088.86	21
3089.69	20
3090.51	24
3091.34	22.5
3092.17	21.5
3093	20
3093.83	21
3094.66	19.5
3095.48	20.5
3096.31	21
3097.14	21
3097.97	22
3098.79	27
3099.62	22.5
3100.45	22
3101.28	22
3102.1	25
3102.93	21
3103.76	22
3104.58	26
3105.41	20
3106.24	24
3107.06	20.5
3107.89	22
3108.72	24
3109.54	24.5
3110.37	26
3111.19	21.5
3112.02	24.5
3112.84	22
3113.67	22.5
3114.49	21.5
3115.32	24
3116.15	26.5
3116.97	23
3117.8	23
3118.62	24
3119.44	24
3120.27	21.5
3121.09	23.5
3121.92	20
3122.74	23.5
3123.57	24.5
3124.39	24
3125.21	27
3126.04	21
3126.86	22.5
3127.68	26
3128.51	23
3129.33	24
3130.15	22.5
3130.98	26
3131.8	24.5
3132.62	20.5
3133.44	22
3134.27	22
3135.09	20
3135.91	20
3136.73	23
3137.56	23
3138.38	20.5
3139.2	26
3140.02	26
3140.84	23
3141.67	21.5
3142.49	23
3143.31	26.5
3144.13	25
3144.95	22
3145.77	24.5
3146.59	22.5
3147.41	20.5
3148.23	23.5
3149.05	27
3149.87	26
3150.69	22
3151.51	19.5
3152.33	21.5
3153.15	24.5
3153.97	18
3154.79	24.5
3155.61	25
3156.43	23
3157.25	21
3158.07	20
3158.89	20.5
3159.71	24
3160.53	23.5
3161.35	23
3162.17	23
3162.98	22.5
3163.8	25
3164.62	20.5
3165.44	24.5
3166.26	26.5
3167.07	22.5
3167.89	19.5
3168.71	24.5
3169.53	25
3170.35	18.5
3171.16	26
3171.98	21
3172.8	23
3173.61	20
3174.43	22.5
3175.25	22.5
3176.06	22
3176.88	19
3177.7	23
3178.51	23.5
3179.33	21.5
3180.15	24
3180.96	23.5
3181.78	22.5
3182.59	23
3183.41	22
3184.22	24
3185.04	22
3185.85	24
3186.67	24.5
3187.49	19.5
3188.3	27.5
3189.12	21
3189.93	22
3190.74	22
3191.56	25
3192.37	23.5
3193.19	17
3194	26
3194.82	23
3195.63	24.5
3196.44	23
3197.26	24.5
3198.07	22.5
3198.88	19
3199.7	22.5
3200.51	23
3201.32	23.5
3202.14	23
3202.95	23
3203.76	24
3204.58	21.5
3205.39	25.5
3206.2	20
3207.01	26
3207.83	24
3208.64	27
3209.45	22
3210.26	24
3211.07	24
3211.88	24.5
3212.7	25.5
3213.51	20
3214.32	24.5
3215.13	30.5
3215.94	22
3216.75	22
3217.56	24
3218.37	25.5
3219.18	26
3220	20.5
3220.8	26
3221.62	24
3222.43	21
3223.24	20
3224.05	20
3224.86	25
3225.67	24
3226.47	22
3227.28	18
3228.09	23.5
3228.9	21
3229.71	28
3230.52	24
3231.33	24.5
3232.14	20
3232.95	22.5
3233.76	20
3234.56	22
3235.37	23.5
3236.18	24
3236.99	22.5
3237.8	25.5
3238.61	22
3239.41	24.5
3240.22	20
3241.03	22
3241.84	20.5
3242.64	21.5
3243.45	24
3244.26	24
3245.07	22
3245.87	22
3246.68	24.5
3247.49	20
3248.29	22
3249.1	25.5
3249.9	21
3250.71	25
3251.52	22
3252.32	20
3253.13	23
3253.93	23
3254.74	22.5
3255.55	21
3256.35	20
3257.16	22.5
3257.96	24
3258.77	21.5
3259.57	23.5
3260.38	25.5
3261.18	22.5
3261.99	25
3262.79	27
3263.6	21.5
3264.4	25
3265.2	24.5
3266.01	19.5
3266.81	24.5
3267.62	27.5
3268.42	21
3269.22	22
3270.03	27
3270.83	23
3271.63	21.5
3272.44	21
3273.24	22.5
3274.04	22.5
3274.85	22
3275.65	21.5
3276.45	25
3277.25	26.5
3278.06	20
3278.86	20.5
3279.66	25.5
3280.46	23
3281.26	21.5
3282.07	21.5
3282.87	21
3283.67	22
3284.47	22.5
3285.27	23
3286.07	21
3286.87	21.5
3287.68	26
3288.48	22
3289.28	21.5
3290.08	20.5
3290.88	25
3291.68	24.5
3292.48	22.5
3293.28	26.5
3294.08	25.5
3294.88	27
3295.68	22
3296.48	22
3297.28	22.5
3298.08	23.5
3298.88	22.5
3299.68	26
3300.48	26.5
3301.28	22.5
3302.08	25.5
3302.88	23.5
3303.67	25.5
3304.47	25
3305.27	20
3306.07	22
3306.87	25.5
3307.67	22
3308.46	23
3309.26	24
3310.06	23.5
3310.86	25
3311.66	27.5
3312.45	21
3313.25	25.5
3314.05	22
3314.85	22
3315.64	25
3316.44	26
3317.24	21
3318.03	25.5
3318.83	23
3319.63	29
3320.42	23.5
3321.22	24
3322.02	24
3322.81	23
3323.61	21
3324.4	23.5
3325.2	23.5
3326	24
3326.79	22.5
3327.59	22.5
3328.38	26.5
3329.18	23
3329.97	22
3330.77	21
3331.56	23.5
3332.36	24
3333.15	22.5
3333.95	23.5
3334.74	20
3335.54	22.5
3336.33	23
3337.13	26.5
3337.92	19
3338.71	23.5
3339.51	28
3340.3	18.5
3341.1	23.5
3341.89	24.5
3342.68	25.5
3343.48	22
3344.27	23.5
3345.06	25
3345.85	22.5
3346.65	25.5
3347.44	22
3348.23	23
3349.03	26
3349.82	25
3350.61	23
3351.4	25.5
3352.19	20.5
3352.99	25
3353.78	25
3354.57	24.5
3355.36	27
3356.15	24.5
3356.94	26
3357.74	23
3358.53	23.5
3359.32	23
3360.11	23
3360.9	23
3361.69	20
3362.48	21
3363.27	22
3364.06	25.5
3364.85	24.5
3365.64	26
3366.43	26
3367.22	22
3368.01	24.5
3368.8	26.5
3369.59	20
3370.38	25.5
3371.17	21
3371.96	23
3372.75	26.5
3373.54	23
3374.33	29.5
3375.12	22
3375.91	23.5
3376.69	23.5
3377.48	21
3378.27	25.5
3379.06	21.5
3379.85	22
3380.64	25
3381.42	25.5
3382.21	24
3383	24
3383.79	26.5
3384.58	22
3385.36	23.5
3386.15	24
3386.94	23.5
3387.73	24.5
3388.51	23.5
3389.3	27
3390.09	25
3390.87	21
3391.66	21.5
3392.45	22.5
3393.23	19.5
3394.02	24.5
3394.81	23
3395.59	21
3396.38	24
3397.16	21
3397.95	23.5
3398.74	23
3399.52	27
3400.31	23.5
3401.09	22.5
3401.88	24
3402.66	23
3403.45	23
3404.23	24.5
3405.02	24.5
3405.8	25.5
3406.59	23
3407.37	24.5
3408.15	22
3408.94	22.5
3409.72	23.5
3410.51	27
3411.29	25.5
3412.07	27
3412.86	23
3413.64	23
3414.42	21.5
3415.21	23
3415.99	23
3416.78	22
3417.56	23
3418.34	23
3419.12	21
3419.91	23
3420.69	23
3421.47	23.5
3422.25	25
3423.04	24.5
3423.82	24
3424.6	21
3425.38	24.5
3426.16	21
3426.95	27
3427.73	23
3428.51	24
3429.29	27.5
3430.07	24
3430.85	21.5
3431.63	25
3432.42	20
3433.2	24
3433.98	21
3434.76	27
3435.54	25.5
3436.32	21
3437.1	22
3437.88	23
3438.66	23
3439.44	22.5
3440.22	23
3441	28
3441.78	22.5
3442.56	22.5
3443.34	26
3444.12	20.5
3444.9	24
3445.68	27.5
3446.45	22.5
3447.23	24
3448.01	19
3448.79	18
3449.57	26
3450.35	23.5
3451.13	25.5
3451.91	23.5
3452.68	20.5
3453.46	21.5
3454.24	23.5
3455.02	24
3455.79	27.5
3456.57	25.5
3457.35	22.5
3458.13	26
3458.91	24
3459.68	23
3460.46	22.5
3461.24	24.5
3462.01	26.5
3462.79	21
3463.57	23.5
3464.34	22
3465.12	22
3465.9	25
3466.67	21
3467.45	23.5
3468.22	23.5
3469	24.5
3469.78	24
3470.55	24
3471.33	22.5
3472.1	21
3472.88	21.5
3473.65	26
3474.43	19.5
3475.2	22
3475.98	24
3476.75	25.5
3477.53	25.5
3478.3	22.5
3479.08	27
3479.85	23
3480.63	25
3481.4	25
3482.18	24.5
3482.95	23
3483.72	26.5
3484.5	24
3485.27	23
3486.04	20
3486.82	23
3487.59	25
3488.36	23
3489.14	25.5
3489.91	27
3490.68	25.5
3491.46	21
3492.23	21
3493	23.5
3493.77	22.5
3494.55	24.5
3495.32	24
3496.09	25
3496.86	24
3497.64	24
3498.41	21
3499.18	21
3499.95	22.5
