#Acq. time (s)=	5
#Accumulations=	5
#Range (cm-¹)=	100...3500
#Windows=	4
#Autofocus=	Off
#AutoExposure=	Off
#Spike filter=	Multiple accum.
#Delay time (s)=	0
#Binning=	1
#Readout mode=	Signal
#DeNoise=	Off
#ICS correction=	Off
#Dark correction=	Off
#Inst. Process=	Off
#Instrument=	LabRAM HR Evol
#Detector=	Syncerity OE
#Objective=	x100_VIS
#Grating=	600 (500nm)
#ND Filter=	25%
#Laser=	633nm_Edge
#Hole=	100.021
#Range=	Visible
#Project=	verificaciones
#Sample=	a2
#Site=	plain
#Title=	bolusa2plain
#Remark=	com
#Date=	16.01.2026 14:08
#Acquired=	16.01.2026 14:08:48
100.687	29
101.971	28.5
103.254	31.5
104.537	33.5
105.82	27
107.103	31.5
108.387	27.5
109.669	33
110.951	31
112.233	27
113.514	31
114.796	34
116.077	31
117.358	27.5
118.639	30
119.919	32
121.2	29
122.48	28
123.76	33
125.039	34
126.319	32.5
127.598	34.5
128.877	32
130.156	35
131.435	35.5
132.713	33.5
133.992	36.5
135.268	32.5
136.546	33
137.824	33
139.101	35
140.378	36.5
141.655	34.5
142.932	39
144.209	39
145.485	39.5
146.76	39.5
148.036	33.5
149.312	38
150.587	37.5
151.862	44
153.138	43
154.411	44
155.686	40.5
156.96	42.5
158.235	42
159.509	44
160.781	45
162.055	43
163.328	39
164.602	45
165.873	42.5
167.146	45.5
168.419	40.5
169.691	38
170.962	43
172.234	42
173.506	36.5
174.777	39
176.047	39
177.318	41
178.589	40.5
179.859	46.5
181.129	38.5
182.4	47
183.668	42
184.938	42
186.207	42.5
187.476	39
188.746	37.5
190.013	44.5
191.282	42
192.551	42
193.818	42
195.086	41.5
196.353	44
197.621	40.5
198.887	42
200.154	38
201.422	39
202.687	43
203.954	38.5
205.219	35.5
206.486	40
207.751	37
209.017	41.5
210.281	38
211.547	37
212.811	33
214.076	35
215.339	35
216.603	39
217.867	37
219.13	35
220.395	34.5
221.657	31
222.921	35
224.183	30
225.445	34
226.708	33
227.97	31
229.232	32
230.493	31
231.754	33
233.016	30.5
234.277	31.5
235.537	36
236.799	35
238.059	33.5
239.318	32
240.579	33.5
241.839	34.5
243.098	31
244.358	32.5
245.617	28.5
246.875	29.5
248.133	31
249.393	30.5
250.651	31
251.908	31.5
253.166	28
254.424	32
255.681	28
256.938	32
258.195	28.5
259.451	27
260.709	31
261.965	32
263.221	27.5
264.476	27.5
265.732	29.5
266.988	34
268.243	32
269.498	29
270.753	30.5
272.007	33.5
273.261	34
274.515	29
275.769	29
277.022	31
278.277	29.5
279.53	30.5
280.783	30.5
282.036	28
283.289	29.5
284.541	29
285.793	28
287.045	29.5
288.297	28.5
289.548	29.5
290.8	27.5
292.051	33
293.302	28.5
294.552	29
295.803	29
297.053	31.5
298.303	28.5
299.553	29
300.803	27
302.053	32.5
303.302	26.5
304.551	27.5
305.8	28.5
307.047	28.5
308.296	27
309.544	24.5
310.792	30.5
312.04	32
313.288	27
314.535	31
315.783	25
317.03	28.5
318.275	28
319.522	26.5
320.768	28
322.015	27
323.261	27
324.505	29
325.751	24
326.997	30
328.242	29.5
329.487	27.5
330.73	26
331.975	31
333.22	31.5
334.464	25.5
335.707	24.5
336.95	30.5
338.194	32.5
339.438	29.5
340.68	33
341.923	30
343.166	30.5
344.407	24.5
345.649	32.5
346.892	29
348.132	26
349.374	34.5
350.616	32.5
351.856	34
353.097	29.5
354.337	34
355.578	32.5
356.818	30
358.058	30.5
359.298	29
360.536	30
361.776	27
363.016	32
364.254	29
365.493	30.5
366.731	31.5
367.97	29
369.207	29.5
370.446	25
371.683	27
372.921	27.5
374.157	31
375.395	28.5
376.631	27
377.868	29
379.104	29
380.341	22
381.576	27.5
382.813	29.5
384.048	29
385.284	31
386.518	33
387.753	29.5
388.988	23
390.222	30
391.457	29.5
392.691	31
393.924	26.5
395.159	26
396.392	32
397.624	28.5
398.858	22
400.091	27.5
401.323	29.5
402.556	28.5
403.788	31
405.019	28.5
406.252	27
407.483	26
408.714	25.5
409.945	32
411.177	25
412.407	25.5
413.637	25
414.867	30
416.099	29.5
417.328	27.5
418.558	30.5
419.787	30.5
421.016	23
422.246	32
423.475	28
424.703	29.5
425.931	27.5
427.159	27.5
428.388	30
429.616	29.5
430.843	28.5
432.071	28
433.298	27
434.524	30.5
435.751	29
436.977	32
438.204	28
439.431	32
440.657	31.5
441.883	28.5
443.108	31
444.333	34.5
445.558	29.5
446.783	32
448.008	29.5
449.232	27.5
450.457	27.5
451.681	28
452.905	27.5
454.128	30
455.352	34
456.575	30
457.798	27
459.021	33
460.244	33.5
461.466	30.5
462.689	35
463.909	32.5
465.131	32
466.353	31.5
467.575	32
468.796	35.5
470.017	33
471.238	38
472.459	37.5
473.679	37
474.898	40.5
476.118	39.5
477.338	46
478.558	42.5
479.778	51.5
480.997	53
482.215	56
483.434	57.5
484.653	57
485.871	62
487.09	65.5
488.307	65.5
489.525	66
490.743	55.5
491.96	59.5
493.176	60
494.394	63.5
495.611	56
496.826	53
498.043	51
499.259	48.5
500.474	43.5
501.69	44
502.906	46
504.121	39.5
505.336	43
506.551	41
507.765	35.5
508.98	34
510.195	34.5
511.408	35.5
512.622	32
513.835	34.5
515.049	36
516.263	36
517.475	32
518.689	34.5
519.9	31.5
521.113	33
522.325	29
523.537	36
524.748	35.5
525.961	33
527.171	32.5
528.383	28
529.594	34
530.805	26.5
532.015	31.5
533.226	30
534.435	29
535.646	28.5
536.855	32.5
538.066	32
539.274	25
540.483	31
541.693	27.5
542.901	27
544.11	30
545.318	30.5
546.526	32
547.734	34
548.942	32
550.149	27
551.357	28.5
552.563	31.5
553.77	28.5
554.978	28
556.184	31.5
557.389	25
558.596	31
559.802	28
561.007	32
562.212	29
563.419	27
564.623	28.5
565.828	26
567.032	29
568.238	30
569.442	27.5
570.646	33.5
571.849	28.5
573.054	28.5
574.257	31.5
575.46	32
576.663	28.5
577.866	28.5
579.068	27.5
580.272	30.5
581.474	29
582.676	27.5
583.877	29
585.079	28
586.28	29.5
587.481	32
588.682	26.5
589.883	31
591.083	29
592.285	26.5
593.485	31
594.685	29
595.885	21.5
597.084	28
598.284	32
599.483	30
600.682	26
601.881	28.5
603.08	27
604.278	32
605.476	32
606.674	27.5
607.872	24.5
609.07	31
610.266	32.5
611.463	28.5
612.661	31.5
613.857	28
615.054	28
616.251	26
617.447	30.5
618.643	29
619.839	27.5
621.035	30
622.229	32
623.425	31
624.62	26
625.815	32.5
627.01	33
628.205	30.5
629.398	30
630.592	28
631.786	28.5
632.98	29
634.172	28.5
635.366	31
636.559	30
637.753	26
638.944	25.5
640.137	28.5
641.33	31.5
642.522	33.5
643.713	34.5
644.905	30.5
646.097	30.5
647.287	28.5
648.478	28
649.67	25.5
650.859	26.5
652.05	25
653.241	26
654.43	30
655.621	34.5
656.811	29.5
657.999	30
659.189	29.5
660.378	33
661.567	32
662.755	29.5
663.944	31
665.133	26.5
666.32	25.5
667.508	33
668.695	36
669.884	33.5
671.07	29
672.258	31.5
673.444	35
674.631	32
675.817	29.5
677.004	30
678.19	33.5
679.376	35
680.561	34
681.746	35
682.932	36.5
684.117	39
685.302	34.5
686.487	37.5
687.672	31
688.856	36.5
690.039	31.5
691.224	39
692.407	33
693.59	39
694.774	36
695.957	34.5
697.14	33
698.323	36.5
699.505	40
700.687	36.5
701.87	41.5
703.052	41.5
704.233	44.5
705.414	49.5
706.597	53
707.778	59.5
708.958	54.5
710.139	55
711.32	51
712.5	42
713.68	47.5
714.86	41.5
716.039	35.5
717.22	36.5
718.399	34
719.578	33.5
720.757	34
721.935	36.5
723.114	28
724.292	28
725.471	29
726.649	32
727.827	33.5
729.004	30.5
730.182	31
731.359	30
732.536	33.5
733.712	30
734.889	27.5
736.065	31.5
737.242	28
738.418	28
739.593	29.5
740.769	29
741.945	31.5
743.12	31
744.295	27
745.47	26.5
746.644	25
747.819	32
748.993	29.5
750.168	27.5
751.342	27.5
752.515	28.5
753.689	31.5
754.862	29
756.036	30.5
757.209	28
758.382	28.5
759.553	31.5
760.725	29
761.898	29
763.07	30.5
764.242	29
765.414	31
766.584	27
767.755	27.5
768.927	31.5
770.098	25
771.269	29.5
772.438	31
773.608	30
774.779	31.5
775.949	27.5
777.117	26.5
778.287	27
779.457	23
780.626	34
781.794	34
782.963	33
784.132	35
785.299	28.5
786.468	33
787.636	34
788.803	30.5
789.971	33
791.139	32.5
792.305	33
793.472	35
794.638	31.5
795.805	29
796.972	27.5
798.138	32
799.304	30
800.469	32
801.635	32
802.801	32
803.966	30
805.131	29.5
806.295	27.5
807.461	28.5
808.624	29
809.789	29
810.952	24
812.117	30
813.28	35
814.444	28
815.607	27
816.769	31
817.933	26
819.095	32
820.258	29
821.42	28
822.583	28.5
823.744	29
824.905	25
826.068	30.5
827.228	31
828.389	29.5
829.551	29.5
830.711	28.5
831.871	27.5
833.032	27
834.192	28
835.352	27
836.513	30.5
837.672	30.5
838.831	30
839.99	29.5
841.15	26
842.308	30
843.466	29.5
844.624	28.5
845.784	31
846.941	28.5
848.099	33
849.256	27.5
850.414	29
851.572	24
852.729	32
853.886	26.5
855.042	29.5
856.198	32.5
857.355	31
858.512	27
859.668	34
860.823	30.5
861.979	28
863.134	28
864.289	33
865.444	28.5
866.599	31
867.753	28.5
868.908	31
870.062	28.5
871.216	33
872.37	28
873.523	29.5
874.677	28.5
875.83	29
876.983	26
878.136	29.5
879.289	24
880.441	30
881.594	30.5
882.746	26
883.898	31.5
885.05	30.5
886.201	24
887.353	25
888.504	27.5
889.655	27.5
890.806	27.5
891.956	29
893.107	26.5
894.257	34
895.407	27.5
896.557	24.5
897.707	32
898.856	28
900.005	28
901.154	25.5
902.304	26
903.453	26
904.6	30.5
905.749	26
906.897	29.5
908.046	25
909.192	32
910.34	24.5
911.488	27.5
912.634	25
913.782	28
914.929	28
916.076	29
917.222	31.5
918.368	27.5
919.515	28.5
920.66	23.5
921.806	28
922.951	28
924.097	28
925.242	28
926.387	26
927.532	31
928.676	26.5
929.821	25
930.965	27.5
932.109	28.5
933.253	27.5
934.396	24.5
935.54	27
936.683	25.5
937.826	28
938.969	27
940.112	28
941.254	29
942.397	25
943.538	27
944.681	25
945.822	30.5
946.964	26.5
948.105	27.5
949.246	27
950.388	28.5
951.528	30
952.669	27.5
953.809	27
954.949	28.5
956.09	31.5
957.229	27.5
958.369	29.5
959.509	30
960.648	27.5
961.786	26
962.926	31.5
964.065	24
965.203	24
966.342	29.5
967.48	26
968.618	25.5
969.755	23.5
970.894	25.75
972.031	26
973.168	28
974.305	28.5
975.441	28.5
976.579	24
977.715	30
978.851	26
979.987	29
981.123	29
982.26	29
983.395	26
984.531	27
985.666	27.5
986.8	26.5
987.935	27
989.07	27
990.204	24
991.338	25
992.472	25
993.607	25
994.741	29
995.874	28
997.008	31
998.141	24.5
999.274	26
1000.41	24
1001.54	29
1002.67	21.5
1003.8	24.5
1004.94	25
1006.07	28.5
1007.2	27
1008.33	30
1009.46	28.5
1010.59	27.5
1011.72	25
1012.85	23.5
1013.99	24
1015.12	24.5
1016.25	25.5
1017.38	29.5
1018.51	27
1019.63	29.5
1020.76	27
1021.89	26.5
1023.02	26
1024.15	27
1025.28	23.5
1026.41	25
1027.54	25.5
1028.67	27.5
1029.79	24
1030.92	23
1032.05	25.5
1033.18	24.5
1034.3	24
1035.43	28.5
1036.56	29
1037.68	28.5
1038.81	28.5
1039.94	24
1041.06	27.5
1042.19	27.5
1043.31	26
1044.44	24.5
1045.57	26
1046.69	25
1047.82	25
1048.94	25.5
1050.07	24.5
1051.19	29
1052.31	22
1053.44	31
1054.56	26
1055.69	28.5
1056.81	26
1057.93	24.5
1059.06	28
1060.18	23.5
1061.3	27
1062.42	23
1063.55	23
1064.67	23
1065.79	26.5
1066.91	25.5
1068.03	25
1069.16	20.5
1070.28	28
1071.4	27.5
1072.52	21
1073.64	27.5
1074.76	27.5
1075.88	28
1077	21
1078.12	29
1079.24	25
1080.36	28.5
1081.48	26
1082.6	26
1083.72	28
1084.84	27
1085.96	26.5
1087.08	26.5
1088.2	28.5
1089.31	27
1090.43	25
1091.55	25
1092.67	25.5
1093.78	22
1094.9	24
1096.02	30
1097.14	25.5
1098.25	27
1099.37	24
1100.49	28
1101.6	25.5
1102.72	27
1103.83	28
1104.95	20.5
1106.07	27
1107.18	28.5
1108.3	24
1109.41	26.5
1110.52	28
1111.64	27.5
1112.75	25.5
1113.87	26.5
1114.98	28
1116.1	30.5
1117.21	21
1118.32	24.5
1119.44	23
1120.55	26
1121.66	27
1122.78	21
1123.89	18
1125	26
1126.11	24
1127.23	25
1128.34	24.5
1129.45	24.5
1130.56	26
1131.67	27
1132.78	26
1133.89	25
1135	24.5
1136.12	26
1137.23	23
1138.34	23.5
1139.45	27.5
1140.56	28.5
1141.67	23.5
1142.78	25
1143.89	24.5
1144.99	24
1146.1	26.5
1147.21	27
1148.32	25
1149.43	25
1150.54	23
1151.65	24.5
1152.75	25
1153.86	26
1154.97	24
1156.08	25
1157.18	25
1158.29	21
1159.4	24.5
1160.5	26.5
1161.61	22
1162.72	24
1163.82	27
1164.93	27.5
1166.03	24
1167.14	26
1168.24	30
1169.35	25
1170.45	22
1171.56	24
1172.66	23
1173.77	25.5
1174.87	24.5
1175.98	25
1177.08	27.5
1178.19	27.5
1179.29	24
1180.39	24.5
1181.5	23.5
1182.6	19
1183.7	25
1184.8	26
1185.91	24
1187.01	24
1188.11	24
1189.21	26
1190.32	26.5
1191.42	27
1192.52	26.5
1193.62	22
1194.72	24.998
1195.82	25.4709
1196.92	27.9512
1198.02	27.9935
1199.12	25.9947
1200.22	23.8785
1201.32	21.258
1202.42	25.9699
1203.52	25.9517
1204.62	25.7297
1205.72	23.2249
1206.82	26.3985
1207.92	24.5877
1209.02	25.1966
1210.12	26.9296
1211.22	22.6671
1212.31	25.1187
1213.41	21.9671
1214.51	23.0859
1215.61	27.2536
1216.71	26.0248
1217.8	24.9784
1218.9	24.422
1220	24.4075
1221.09	27.7055
1222.19	23.9477
1223.29	26.0717
1224.38	22.7164
1225.48	25.4341
1226.58	24.6449
1227.67	26.0189
1228.77	24.3883
1229.86	23.0084
1230.96	24.2219
1232.05	25.4514
1233.15	25.6798
1234.24	25.1877
1235.34	25.2257
1236.43	21.7564
1237.52	23.3871
1238.62	25.7164
1239.71	24.6996
1240.81	24.2053
1241.9	24.5777
1242.99	25.075
1244.09	24.6668
1245.18	24.6616
1246.27	23.7219
1247.36	23.6096
1248.46	24.3851
1249.55	26.0723
1250.64	23.4611
1251.73	23.8049
1252.82	25.6662
1253.92	27.9277
1255.01	24.3239
1256.1	28.6701
1257.19	26.1616
1258.28	27.6123
1259.37	26.8665
1260.46	25.3905
1261.55	26.7087
1262.64	29.3527
1263.73	27.9581
1264.82	25.413
1265.91	28.8061
1267	25.6955
1268.09	24.7293
1269.18	27.0018
1270.27	25.4015
1271.36	25.1272
1272.45	26.2567
1273.53	22.7941
1274.62	23.5051
1275.71	25.9203
1276.8	24.0048
1277.89	23.7688
1278.97	22.0542
1280.06	25.706
1281.15	23.7005
1282.23	23.1495
1283.32	24.7289
1284.41	23.2037
1285.49	25.8134
1286.58	25.6581
1287.67	25.895
1288.75	26.9419
1289.84	25.8073
1290.92	25.0597
1292.01	25.552
1293.09	21.8384
1294.18	23.7233
1295.26	22.46
1296.35	23.9712
1297.43	24.1564
1298.52	23.2726
1299.6	26.5603
1300.69	24.6637
1301.77	23.8927
1302.85	24.3499
1303.94	26.1969
1305.02	26.5968
1306.1	25.4149
1306.42	25
1307.51	24.5
1308.59	23.5
1309.68	20
1310.77	26.5
1311.86	25.5
1312.95	22
1314.03	25
1315.12	22
1316.21	21.5
1317.29	22.5
1318.38	30.5
1319.47	27.5
1320.55	27
1321.64	25
1322.72	22
1323.81	22
1324.89	25.5
1325.98	22
1327.07	24.5
1328.15	23.5
1329.24	25.5
1330.32	26
1331.4	24
1332.49	21
1333.57	23.5
1334.66	27
1335.74	25
1336.82	24
1337.91	28
1338.99	26.5
1340.07	25
1341.16	24.5
1342.24	27.5
1343.32	27
1344.4	24
1345.49	25
1346.57	25.5
1347.65	26
1348.73	26
1349.81	26
1350.9	28
1351.98	23.5
1353.06	22
1354.14	28
1355.22	24.5
1356.3	26.5
1357.38	24.5
1358.46	26.5
1359.54	27.5
1360.62	26.5
1361.7	27.5
1362.78	26
1363.86	28
1364.94	25
1366.02	25.5
1367.1	24
1368.17	25
1369.25	32
1370.33	25
1371.41	24.5
1372.49	24.5
1373.57	24
1374.64	22
1375.72	22
1376.8	26.5
1377.87	30
1378.95	24
1380.03	25
1381.1	29
1382.18	27.5
1383.26	24
1384.33	26.5
1385.41	28.5
1386.49	24.5
1387.56	24
1388.64	23
1389.71	28
1390.79	30
1391.86	27
1392.94	25
1394.01	26
1395.08	25.5
1396.16	23.5
1397.23	27
1398.31	29.5
1399.38	28
1400.45	28
1401.53	30
1402.6	32
1403.67	30.5
1404.75	30
1405.82	31.5
1406.89	32.5
1407.96	31
1409.04	27.5
1410.11	28.5
1411.18	26.5
1412.25	34
1413.32	33.5
1414.39	31
1415.47	36.5
1416.54	27
1417.61	29
1418.68	28.5
1419.75	30
1420.82	29
1421.89	26
1422.96	28.5
1424.03	25
1425.1	32.5
1426.17	27
1427.24	26.5
1428.31	25.5
1429.38	30
1430.44	23.5
1431.51	28.5
1432.58	25
1433.65	25
1434.72	27
1435.79	22.5
1436.85	25
1437.92	24.5
1438.99	26.5
1440.05	23.5
1441.12	23.5
1442.19	28.5
1443.26	26
1444.32	26
1445.39	22.5
1446.46	25.5
1447.52	24.5
1448.59	30.5
1449.65	26.5
1450.72	27
1451.78	27
1452.85	28
1453.91	26.5
1454.98	25
1456.04	28
1457.11	25
1458.17	26
1459.24	26.5
1460.3	25
1461.36	24
1462.43	26.5
1463.49	25.5
1464.56	27
1465.62	26.5
1466.68	27.5
1467.74	27
1468.81	26.5
1469.87	25.5
1470.93	22
1471.99	28
1473.06	25.5
1474.12	22
1475.18	31
1476.24	25.5
1477.3	24
1478.36	21
1479.42	24
1480.49	27.5
1481.55	26
1482.61	26.5
1483.67	24.5
1484.73	25
1485.79	25.5
1486.85	24.5
1487.91	28.5
1488.97	24
1490.03	27
1491.09	24.5
1492.14	23.5
1493.2	28
1494.26	27
1495.32	26
1496.38	29
1497.44	24.5
1498.49	26.5
1499.55	25
1500.61	27.5
1501.67	22.5
1502.72	28
1503.78	24.5
1504.84	29
1505.89	25
1506.95	26
1508.01	25.5
1509.07	26.5
1510.12	26.5
1511.18	26
1512.23	27
1513.29	24
1514.34	24
1515.4	23
1516.45	26.5
1517.51	26
1518.56	28
1519.62	22
1520.67	29
1521.73	29
1522.78	29.5
1523.84	23
1524.89	26.5
1525.94	27
1527	21.5
1528.05	26
1529.1	25.5
1530.16	20
1531.21	27
1532.26	24.5
1533.32	26
1534.37	26
1535.42	26
1536.47	26.5
1537.52	27.5
1538.57	27
1539.63	28
1540.68	26
1541.73	30
1542.78	26.5
1543.83	26
1544.88	24
1545.93	26
1546.98	27
1548.03	24
1549.08	22
1550.13	28.5
1551.18	24.5
1552.23	18.5
1553.28	26
1554.33	24
1555.38	26
1556.43	25.5
1557.48	24.5
1558.53	25
1559.57	23
1560.62	21
1561.67	28
1562.72	26.5
1563.77	23
1564.81	26
1565.86	25
1566.91	26
1567.96	32
1569	25
1570.05	26
1571.09	25.5
1572.14	27.5
1573.19	29
1574.23	29
1575.28	25.5
1576.33	22.5
1577.37	26
1578.42	27
1579.46	27
1580.51	29
1581.55	26.5
1582.6	27.5
1583.64	21
1584.69	24
1585.73	23.5
1586.77	27.5
1587.82	25.5
1588.86	25
1589.91	22
1590.95	24.5
1591.99	26
1593.04	24.5
1594.08	28.5
1595.12	27.5
1596.16	26.5
1597.21	26
1598.25	26.5
1599.29	25.5
1600.33	25
1601.37	28.5
1602.42	23
1603.46	22
1604.5	26.5
1605.54	26
1606.58	25.5
1607.62	25.5
1608.66	27
1609.7	23
1610.74	29
1611.78	25
1612.82	26
1613.86	26.5
1614.9	27
1615.94	24.5
1616.98	26
1618.02	27
1619.06	25
1620.1	24
1621.14	23.5
1622.18	25
1623.21	26
1624.25	27
1625.29	25.5
1626.33	24
1627.37	24
1628.4	24.5
1629.44	27
1630.48	25
1631.52	25
1632.55	26
1633.59	26
1634.63	26.5
1635.66	27
1636.7	25
1637.73	23
1638.77	25
1639.81	27
1640.84	27.5
1641.88	22
1642.91	29.5
1643.95	27
1644.98	24.5
1646.02	23
1647.05	27
1648.09	26
1649.12	24
1650.16	28.5
1651.19	26
1652.22	22
1653.26	27
1654.29	24.5
1655.32	21
1656.36	23
1657.39	32.5
1658.42	25.5
1659.46	25
1660.49	25
1661.52	22.5
1662.55	25
1663.59	23.5
1664.62	26
1665.65	24
1666.68	25
1667.71	24.5
1668.74	22.5
1669.77	27
1670.81	26.5
1671.84	23
1672.87	27
1673.9	25.5
1674.93	22.5
1675.96	25
1676.99	26
1678.02	23.5
1679.05	27
1680.08	24
1681.11	26.5
1682.13	26
1683.16	29
1684.19	25
1685.22	27.5
1686.25	26.5
1687.28	25
1688.31	27.5
1689.33	22.5
1690.36	26
1691.39	28.5
1692.42	25
1693.45	23
1694.47	23.5
1695.5	24.5
1696.53	27
1697.55	26
1698.58	27
1699.61	26
1700.63	30
1701.66	26
1702.68	27
1703.71	22
1704.74	26
1705.76	21.5
1706.79	24
1707.81	24.5
1708.84	23
1709.86	29
1710.89	24.5
1711.91	24.5
1712.94	21
1713.96	27.5
1714.98	24.5
1716.01	23.5
1717.03	24.5
1718.05	22.5
1719.08	25
1720.1	25
1721.12	26
1722.15	29.5
1723.17	24
1724.19	22
1725.22	27.5
1726.24	30
1727.26	29
1728.28	29
1729.3	23.5
1730.32	24.5
1731.35	25
1732.37	25.5
1733.39	24
1734.41	27.5
1735.43	27.5
1736.45	25.5
1737.47	25.5
1738.49	29.5
1739.51	25
1740.53	27
1741.55	26
1742.57	22
1743.59	25.5
1744.61	25
1745.63	25.5
1746.65	20
1747.67	24
1748.69	23
1749.71	23
1750.72	26.5
1751.74	22
1752.76	27.5
1753.78	29
1754.8	26
1755.81	22
1756.83	26.5
1757.85	23
1758.87	22.5
1759.88	27.5
1760.9	27.5
1761.92	27
1762.93	23.5
1763.95	28
1764.97	24
1765.98	27.5
1767	24
1768.01	26
1769.03	23
1770.05	23
1771.06	25.5
1772.08	21.5
1773.09	24.5
1774.11	28
1775.12	25
1776.13	22
1777.15	23.5
1778.16	23
1779.18	25.5
1780.19	23
1781.2	27.5
1782.22	24.5
1783.23	28
1784.24	24
1785.26	25.5
1786.27	23
1787.28	25
1788.3	21
1789.31	23.5
1790.32	27.5
1791.33	25.5
1792.35	25.5
1793.36	26
1794.37	26
1795.38	28
1796.39	23
1797.4	26
1798.41	27
1799.43	24
1800.44	26
1801.45	27.5
1802.46	26
1803.47	25.5
1804.48	22
1805.49	20.5
1806.5	22
1807.51	26.5
1808.52	26
1809.53	28.5
1810.53	27
1811.54	27.5
1812.55	23
1813.56	27
1814.57	27
1815.58	25.5
1816.59	26.5
1817.6	25.5
1818.6	25
1819.61	24
1820.62	27
1821.63	25.5
1822.63	25
1823.64	23.5
1824.65	21.5
1825.65	22.5
1826.66	25
1827.67	24.5
1828.67	25
1829.68	26
1830.69	20
1831.69	27.5
1832.7	22.5
1833.7	31
1834.71	23.5
1835.71	26.5
1836.72	23
1837.72	23.5
1838.73	25.5
1839.73	30.5
1840.74	25.5
1841.74	22
1842.75	25.5
1843.75	25
1844.75	25.5
1845.76	24.5
1846.76	23.5
1847.76	24
1848.77	22
1849.77	27.5
1850.77	25.5
1851.78	23.5
1852.78	26.5
1853.78	27.5
1854.78	26.5
1855.79	25
1856.79	23
1857.79	24.5
1858.79	22
1859.79	20
1860.8	28
1861.8	21
1862.8	25.5
1863.8	23
1864.8	25
1865.8	24.5
1866.8	30
1867.8	25.5
1868.8	24
1869.8	27
1870.8	25.5
1871.8	25.5
1872.8	22
1873.8	27.5
1874.8	27
1875.8	24
1876.8	25
1877.8	25
1878.79	25
1879.79	24
1880.79	24
1881.79	24
1882.79	28
1883.79	22
1884.78	25
1885.78	27.5
1886.78	24.5
1887.77	22.5
1888.77	27
1889.77	27.5
1890.77	24.5
1891.76	28.5
1892.76	20.5
1893.76	22
1894.75	24
1895.75	21.5
1896.74	25
1897.74	23
1898.73	26
1899.73	28
1900.72	27
1901.72	22
1902.72	23
1903.71	22
1904.7	22
1905.7	24.5
1906.69	23.5
1907.69	26
1908.68	25
1909.67	26
1910.67	29
1911.66	24
1912.66	24.5
1913.65	28
1914.64	24
1915.63	22.5
1916.63	25
1917.62	23
1918.61	23
1919.6	19.5
1920.6	23.5
1921.59	23
1922.58	27
1923.57	25
1924.56	24
1925.56	25.5
1926.55	26.5
1927.54	20
1928.53	28
1929.52	25.5
1930.51	25
1931.5	24
1932.49	27
1933.48	22
1934.47	24
1935.46	25.5
1936.45	26
1937.44	24
1938.43	24.5
1939.42	22.5
1940.41	22
1941.4	23.5
1942.39	25
1943.37	27.5
1944.36	20
1945.35	26
1946.34	26.5
1947.33	27.5
1948.32	25.75
1949.3	23
1950.29	24
1951.28	25.5
1952.27	25
1953.25	25
1954.24	17
1955.23	24
1956.21	23.5
1957.2	19.5
1958.19	29
1959.17	22.5
1960.16	22
1961.14	27
1962.13	23.5
1963.12	26.5
1964.1	22
1965.09	24
1966.07	22
1967.06	22
1968.04	27
1969.03	27.5
1970.01	24
1970.99	25
1971.98	22.5
1972.96	26.5
1973.95	22
1974.93	24
1975.92	28.5
1976.9	24
1977.88	27
1978.87	23.5
1979.85	23
1980.83	28
1981.81	23
1982.8	23.5
1983.78	21.5
1984.76	23
1985.74	28
1986.73	24.5
1987.71	26
1988.69	25
1989.67	22
1990.65	27.5
1991.63	23.5
1992.61	24.5
1993.59	26.5
1994.58	23
1995.56	20
1996.54	26
1997.52	27.5
1998.5	24
1999.48	21.5
2000.46	24
2001.44	25
2002.42	27.5
2003.4	26.5
2004.38	25
2005.35	25.5
2006.33	24
2007.31	21
2008.29	23
2009.27	23.5
2010.25	27.5
2011.23	23.5
2012.2	27.5
2013.18	21.5
2014.16	23
2015.14	23
2016.11	24.5
2017.09	25
2018.07	20.5
2019.05	24.5
2020.02	22.5
2021	24
2021.98	25
2022.95	22.5
2023.93	22
2024.91	26
2025.88	22
2026.86	23.5
2027.83	22.5
2028.81	24.5
2029.78	24.5
2030.76	25
2031.73	25
2032.71	25
2033.68	23
2034.66	24
2035.63	24
2036.61	23.5
2037.58	23
2038.56	22
2039.53	26
2040.5	23.5
2041.48	22.5
2042.45	25
2043.42	25
2044.4	24
2045.37	23.5
2046.34	25.5
2047.32	22.5
2048.29	22.5
2049.26	25
2050.23	21
2051.2	24.5
2052.18	22
2053.15	23.5
2054.12	25
2055.09	20
2056.06	27
2057.03	18.5
2058	21
2058.98	23
2059.95	26.5
2060.92	26.5
2061.89	25.5
2062.86	27
2063.83	24
2064.8	23.5
2065.77	21.5
2066.74	26
2067.71	21
2068.68	23
2069.65	26
2070.61	21.5
2071.58	24
2072.55	25
2073.52	26
2074.49	26
2075.46	23
2076.43	26
2077.4	26.5
2078.36	27.5
2079.33	26.5
2080.3	25.5
2081.27	24
2082.23	22.5
2083.2	22
2084.17	21
2085.13	25
2086.1	22.5
2087.07	22.5
2088.03	24.5
2089	19
2089.97	23
2090.93	19.5
2091.9	21
2092.86	26.5
2093.83	22.5
2094.8	21
2095.76	23
2096.73	21.5
2097.69	26
2098.66	24.5
2099.62	26
2100.58	24.5
2101.55	23
2102.51	23
2103.48	25.5
2104.44	23.5
2105.41	24.5
2106.37	23.5
2107.33	24
2108.3	24
2109.26	27
2110.22	26.5
2111.19	24.5
2112.15	22
2113.11	23
2114.07	25
2115.04	23
2116	23
2116.96	26.5
2117.92	26
2118.88	23.5
2119.85	24
2120.81	27
2121.77	22.5
2122.73	26
2123.69	27.5
2124.65	21
2125.61	21.5
2126.57	23
2127.53	25
2128.49	23.5
2129.45	21
2130.41	29
2131.37	21.5
2132.33	23.5
2133.29	26
2134.25	21.5
2135.21	24.5
2136.17	24.5
2137.13	24
2138.09	18
2139.05	23
2140.01	23.5
2140.96	20
2141.92	24
2142.88	23.4977
2143.84	20.0212
2144.8	25.4766
2145.75	24.0635
2146.71	27.3901
2147.67	26.8266
2148.63	19.2531
2149.58	24.1603
2150.54	23.0334
2151.5	25.6386
2152.45	22.1691
2153.41	19.8225
2154.37	21.9471
2155.32	22.7604
2156.28	22.8345
2157.23	24.1229
2158.19	20.4516
2159.15	23.8071
2160.1	23.534
2161.06	19.4378
2162.01	20.2343
2162.97	22.7913
2163.92	22.8545
2164.88	20.8386
2165.83	21.9252
2166.78	22.6335
2167.74	21.1896
2168.69	23.8325
2169.65	21.6953
2170.6	21.716
2171.56	23.0918
2172.51	21.2685
2173.46	20.9261
2174.42	22.839
2175.37	22.1496
2176.32	21.3447
2177.28	22.0516
2178.23	21.5922
2179.18	21.3567
2180.13	23.0879
2181.08	25.6263
2182.04	21.5612
2182.99	23.0831
2183.94	24.3054
2184.89	22.584
2185.84	24.455
2186.8	22.8368
2187.75	23.2587
2188.7	23.4156
2189.65	21.9685
2190.6	23.2025
2191.55	21.495
2192.5	22.9501
2193.45	23.1818
2194.4	20.8428
2195.35	24.0777
2196.3	24.5397
2197.25	22.1686
2198.2	24.715
2199.15	21.4469
2200.1	20.4608
2201.05	23.3497
2202	24.3879
2202.95	23.0511
2203.9	20.4606
2204.85	24.11
2205.79	22.442
2206.74	21.6751
2207.69	19.9035
2208.64	23.1182
2209.59	22.2375
2210.53	24.3887
2211.48	22.9058
2212.43	22.9073
2213.38	24.3763
2214.32	22.2264
2215.27	22.4055
2216.22	23.8387
2217.17	22.6066
2218.11	21.9424
2219.06	23.5776
2220.01	23.0529
2220.95	24.8683
2221.9	23.6351
2222.84	25.0121
2223.79	25.8624
2224.73	24.1752
2225.68	22.7864
2226.63	21.928
2227.57	23.5186
2228.52	21.8645
2229.46	21.8908
2230.41	20.2714
2231.35	22.8319
2232.3	24.5993
2233.24	23.3147
2234.18	23.7113
2235.13	23.3663
2236.07	21.4255
2237.02	24.4261
2237.96	24.2927
2238.9	23.5741
2239.85	23.8713
2240.08	24
2241.03	23.5
2241.97	25.5
2242.92	23.5
2243.87	23
2244.82	20.5
2245.76	23.5
2246.71	24
2247.66	25.5
2248.61	20.5
2249.55	20
2250.5	23.5
2251.45	24.5
2252.39	23
2253.34	24
2254.29	22.5
2255.23	23.5
2256.18	18
2257.12	24
2258.07	23
2259.01	24
2259.96	23.5
2260.9	23
2261.85	24
2262.79	23
2263.74	26
2264.68	22
2265.63	20
2266.57	22
2267.52	20.5
2268.46	25
2269.41	19
2270.35	22
2271.29	21
2272.24	29
2273.18	24
2274.12	24
2275.07	23
2276.01	25.5
2276.95	23.5
2277.89	23.5
2278.84	20.5
2279.78	27
2280.72	22
2281.66	26
2282.6	24
2283.55	23.5
2284.49	21.5
2285.43	24
2286.37	24
2287.31	21
2288.25	22.5
2289.2	22.5
2290.14	21.5
2291.08	23
2292.02	22
2292.96	23
2293.9	23.5
2294.84	22.5
2295.78	23.5
2296.72	22.5
2297.66	21
2298.6	22
2299.54	24
2300.48	22
2301.42	26.5
2302.35	23
2303.29	23.5
2304.23	22
2305.17	24.5
2306.11	29.5
2307.05	23.5
2307.99	24.5
2308.92	23
2309.86	24
2310.8	22
2311.74	22.5
2312.67	23.5
2313.61	22.5
2314.55	20.5
2315.49	22
2316.42	25.5
2317.36	22.5
2318.3	24.5
2319.23	23
2320.17	23
2321.1	22
2322.04	25
2322.98	22.5
2323.91	23
2324.85	23.5
2325.78	24
2326.72	23
2327.66	22.5
2328.59	25
2329.52	25
2330.46	22
2331.39	21
2332.33	23.5
2333.26	25
2334.2	27
2335.13	22
2336.07	22
2337	25
2337.93	23
2338.87	23
2339.8	21.5
2340.73	26.5
2341.67	22
2342.6	22.5
2343.53	23.5
2344.46	24
2345.4	25
2346.33	24
2347.26	21.5
2348.19	28
2349.13	24
2350.06	23.5
2350.99	18.5
2351.92	20.5
2352.85	20.5
2353.79	21
2354.72	23
2355.65	25
2356.58	22.5
2357.51	23.5
2358.44	19
2359.37	22.5
2360.3	21.5
2361.23	24.5
2362.16	26.5
2363.09	22
2364.02	24
2364.95	25.5
2365.88	25.5
2366.81	24
2367.74	24.5
2368.67	23
2369.6	23
2370.53	25.5
2371.45	27
2372.38	22.5
2373.31	24.5
2374.24	27
2375.17	27.5
2376.1	24
2377.02	24.5
2377.95	23
2378.88	24.5
2379.81	24.5
2380.73	25
2381.66	24
2382.59	23
2383.52	26.5
2384.44	27.5
2385.37	27.5
2386.3	27.5
2387.22	26.5
2388.15	27
2389.07	25.5
2390	23
2390.93	22.5
2391.85	29
2392.78	26.5
2393.7	24
2394.63	23
2395.55	24.5
2396.48	23
2397.4	24
2398.33	21
2399.25	21
2400.18	23
2401.1	24
2402.03	27
2402.95	27
2403.87	29
2404.8	25.5
2405.72	26.5
2406.64	23.5
2407.57	23.5
2408.49	25
2409.41	25
2410.34	27
2411.26	21
2412.18	23.5
2413.1	22.5
2414.03	22.5
2414.95	26
2415.87	21
2416.79	22.5
2417.72	21.5
2418.64	25
2419.56	22.5
2420.48	25
2421.4	27
2422.32	22
2423.24	23
2424.16	25.5
2425.09	21
2426.01	26
2426.93	22.5
2427.85	24
2428.77	24
2429.69	21.5
2430.61	29
2431.53	23
2432.45	21
2433.37	20.5
2434.29	20.5
2435.21	21
2436.12	26.5
2437.04	22.5
2437.96	26
2438.88	24
2439.8	26
2440.72	26
2441.64	25.5
2442.55	22
2443.47	21.5
2444.39	23
2445.31	22.5
2446.23	23
2447.14	20
2448.06	26.5
2448.98	25
2449.9	21
2450.81	24
2451.73	24
2452.65	22.5
2453.56	24.5
2454.48	23
2455.39	24
2456.31	20
2457.23	24.5
2458.14	23
2459.06	21
2459.97	25
2460.89	26
2461.8	24.5
2462.72	27
2463.64	22.5
2464.55	26.5
2465.47	25.5
2466.38	22
2467.29	25
2468.21	24
2469.12	23.5
2470.04	26.5
2470.95	23.5
2471.86	24.5
2472.78	29
2473.69	24.5
2474.61	27.5
2475.52	23.5
2476.43	23
2477.35	23.5
2478.26	25
2479.17	24.5
2480.08	29
2481	24
2481.91	24.5
2482.82	25
2483.73	27
2484.64	25.5
2485.56	25.5
2486.47	24.5
2487.38	23
2488.29	24
2489.2	21.5
2490.11	26
2491.03	21
2491.94	23
2492.85	26
2493.76	22.5
2494.67	25.5
2495.58	30
2496.49	26
2497.4	26
2498.31	23.5
2499.22	22.5
2500.13	25
2501.04	23
2501.95	26.5
2502.86	25
2503.77	25.5
2504.67	22
2505.58	22.5
2506.49	25
2507.4	30
2508.31	25.5
2509.22	26
2510.13	25.5
2511.03	23
2511.94	25.5
2512.85	24.5
2513.76	26
2514.66	23
2515.57	24
2516.48	26
2517.39	23.5
2518.29	25.5
2519.2	20
2520.11	22
2521.01	27
2521.92	26
2522.83	21.5
2523.73	24.5
2524.64	22
2525.54	23
2526.45	23
2527.36	25
2528.26	24.5
2529.17	23
2530.07	25
2530.98	27.5
2531.88	24.5
2532.79	29
2533.69	24
2534.6	22.5
2535.5	26.5
2536.41	26
2537.31	27
2538.21	23.5
2539.12	24
2540.02	25.5
2540.93	25.5
2541.83	26.5
2542.73	23
2543.64	26.5
2544.54	26
2545.44	26.5
2546.34	26
2547.25	24.5
2548.15	22
2549.05	22
2549.96	26
2550.86	22
2551.76	23.5
2552.66	22
2553.56	20
2554.46	21.5
2555.37	24.5
2556.27	23
2557.17	23
2558.07	24
2558.97	24
2559.87	26.5
2560.77	28
2561.67	26
2562.57	29.5
2563.47	20
2564.37	26
2565.27	24
2566.17	21.5
2567.07	24.5
2567.97	26
2568.87	25
2569.77	26
2570.67	20
2571.57	26
2572.47	26
2573.37	25.5
2574.27	26
2575.17	23
2576.06	27.5
2576.96	27
2577.86	21.5
2578.76	27
2579.66	23
2580.56	23
2581.45	23
2582.35	22.5
2583.25	22
2584.15	22.5
2585.04	23
2585.94	27.5
2586.84	27
2587.73	23
2588.63	25
2589.53	24
2590.42	23
2591.32	26
2592.22	22.5
2593.11	23.5
2594.01	27.5
2594.9	22.5
2595.8	24
2596.69	22
2597.59	23
2598.48	25
2599.38	23.5
2600.28	27
2601.17	21
2602.06	22
2602.96	27.5
2603.85	24.5
2604.75	24
2605.64	26.5
2606.54	21
2607.43	23
2608.32	20
2609.22	22
2610.11	25.5
2611	19
2611.9	27.5
2612.79	20
2613.68	25.5
2614.58	25
2615.47	26.5
2616.36	26
2617.25	25
2618.15	23
2619.04	24
2619.93	25
2620.82	21
2621.71	22
2622.61	21
2623.5	25
2624.39	25.5
2625.28	26
2626.17	23.5
2627.06	24
2627.95	29.5
2628.84	23
2629.74	23.5
2630.63	29
2631.52	26
2632.41	20
2633.3	28
2634.19	25
2635.08	21
2635.97	25.5
2636.85	24
2637.74	25.5
2638.63	26
2639.52	26
2640.41	25
2641.3	23
2642.19	22.5
2643.08	24.5
2643.97	25
2644.86	24
2645.74	27.5
2646.63	26.5
2647.52	24.5
2648.41	23
2649.3	27.5
2650.18	26.5
2651.07	23
2651.96	24
2652.85	22
2653.73	19
2654.62	25.5
2655.51	25
2656.39	26
2657.28	20.5
2658.17	19.5
2659.05	24.5
2659.94	23
2660.83	20.5
2661.71	21
2662.6	22.5
2663.48	27
2664.37	25.5
2665.25	25.5
2666.14	25
2667.02	28.5
2667.91	24
2668.79	26
2669.68	25
2670.56	23.5
2671.45	23.5
2672.33	26.5
2673.22	26.5
2674.1	24
2674.98	23
2675.87	26.5
2676.75	23.5
2677.64	24
2678.52	24
2679.4	23
2680.29	27.5
2681.17	27.5
2682.05	29
2682.94	24.5
2683.82	24
2684.7	23.5
2685.58	25.5
2686.47	27.5
2687.35	24
2688.23	24
2689.11	27.5
2689.99	25
2690.88	27
2691.76	25.5
2692.64	23.5
2693.52	24
2694.4	24.5
2695.28	20.5
2696.16	25
2697.04	28
2697.92	23
2698.8	23
2699.69	25
2700.57	26
2701.45	25.5
2702.33	19.5
2703.21	26
2704.09	28
2704.97	23.5
2705.84	23.5
2706.72	26
2707.6	21.5
2708.48	28.5
2709.36	25.5
2710.24	27
2711.12	23.5
2712	23.5
2712.88	23.5
2713.75	20.5
2714.63	23
2715.51	21.5
2716.39	28
2717.27	22.5
2718.14	22.5
2719.02	25
2719.9	25.5
2720.78	25
2721.65	24
2722.53	24.5
2723.41	24
2724.28	26
2725.16	24.5
2726.04	24.5
2726.92	28
2727.79	24.5
2728.67	26
2729.54	21
2730.42	24.5
2731.3	24
2732.17	23
2733.05	23.5
2733.92	23.5
2734.8	27
2735.67	24
2736.55	22
2737.42	24
2738.3	25
2739.17	23
2740.05	25.5
2740.92	25.5
2741.79	23.5
2742.67	25
2743.54	25
2744.42	25.5
2745.29	26
2746.16	28
2747.04	23.5
2747.91	21
2748.78	21
2749.66	24
2750.53	19.5
2751.4	24.5
2752.28	24.5
2753.15	25
2754.02	25.5
2754.89	24
2755.77	21.5
2756.64	26.5
2757.51	26
2758.38	24
2759.25	22.5
2760.13	26
2761	26.5
2761.87	27.5
2762.74	21
2763.61	25
2764.48	23
2765.35	25.5
2766.22	24
2767.09	26
2767.96	22
2768.83	26
2769.71	25.5
2770.57	22.5
2771.44	23.5
2772.32	24.5
2773.18	26
2774.05	21
2774.92	22.5
2775.79	23.5
2776.66	23
2777.53	26.5
2778.4	24.5
2779.27	25.5
2780.14	22
2781.01	24
2781.87	24.5
2782.74	23.5
2783.61	28
2784.48	27
2785.35	24
2786.21	22
2787.08	25
2787.95	24.5
2788.82	25
2789.69	29.5
2790.55	27.5
2791.42	29
2792.29	27.5
2793.15	25
2794.02	27
2794.89	26.5
2795.75	23
2796.62	28.5
2797.49	26.5
2798.35	25
2799.22	29
2800.08	27
2800.95	27.75
2801.81	25.5
2802.68	25
2803.55	26.5
2804.41	29.5
2805.28	26.5
2806.14	22.5
2807	26
2807.87	27.5
2808.73	24
2809.6	30.5
2810.46	26.5
2811.33	25.5
2812.19	29
2813.06	25
2813.92	24
2814.78	23
2815.65	24
2816.51	29
2817.37	25.5
2818.24	27
2819.1	29.5
2819.96	27
2820.83	28
2821.69	27.5
2822.55	26
2823.41	25
2824.28	25.5
2825.14	30
2826	24.5
2826.86	28
2827.72	27
2828.58	27
2829.45	24.5
2830.31	26
2831.17	28
2832.03	26
2832.89	25
2833.75	28.5
2834.61	25
2835.47	28.5
2836.33	24
2837.2	23.5
2838.05	27.5
2838.92	22
2839.78	27
2840.64	21
2841.49	28
2842.35	27
2843.21	25
2844.07	22
2844.93	26.5
2845.79	29.5
2846.65	21.5
2847.51	27
2848.37	25.5
2849.23	27
2850.09	26
2850.94	26
2851.8	27.5
2852.66	27
2853.52	26
2854.38	23
2855.23	28.5
2856.09	31
2856.95	31
2857.81	26.5
2858.67	28.5
2859.52	26
2860.38	22
2861.24	22
2862.09	26.5
2862.95	22
2863.81	25.5
2864.66	25
2865.52	25
2866.38	27.5
2867.23	28
2868.09	26
2868.94	22.5
2869.8	24.5
2870.65	31
2871.51	25.5
2872.37	30
2873.22	25.5
2874.08	29.5
2874.93	30.5
2875.79	28
2876.64	31.5
2877.49	28
2878.35	31
2879.2	32.5
2880.06	32
2880.91	32
2881.77	35.5
2882.62	33
2883.47	31
2884.33	35.5
2885.18	34
2886.03	33
2886.89	36.5
2887.74	36
2888.59	37
2889.45	37.5
2890.3	35.5
2891.15	39.5
2892	44
2892.86	44.5
2893.71	43.5
2894.56	46.5
2895.41	48.5
2896.27	50
2897.12	49.5
2897.97	55
2898.82	59.5
2899.67	59
2900.52	62
2901.37	63
2902.23	71
2903.08	67.5
2903.93	67.5
2904.78	69.5
2905.63	68.5
2906.48	71.5
2907.33	70.5
2908.18	71.5
2909.03	70
2909.88	63
2910.73	62
2911.58	61
2912.43	56.5
2913.28	50.5
2914.13	53
2914.98	53
2915.83	47
2916.67	38
2917.52	41
2918.37	41
2919.22	35.5
2920.07	34.5
2920.92	35.5
2921.77	34.5
2922.61	37
2923.46	35.5
2924.31	34
2925.16	30
2926	29.5
2926.85	33.5
2927.7	31
2928.55	26
2929.39	28.5
2930.24	28.5
2931.09	28
2931.94	28
2932.78	31.5
2933.63	26.5
2934.47	27.5
2935.32	26.5
2936.17	26
2937.01	28
2937.86	30
2938.7	30
2939.55	30.5
2940.4	27.5
2941.24	29
2942.09	31
2942.93	25
2943.78	25.5
2944.62	26.5
2945.47	28
2946.31	26.5
2947.16	31
2948	28.5
2948.84	32
2949.69	28.5
2950.53	28
2951.38	30.5
2952.22	34
2953.06	30.5
2953.91	31.5
2954.75	32
2955.59	36
2956.44	36
2957.28	38
2958.12	34.5
2958.97	37.5
2959.81	42.5
2960.65	41
2961.5	42
2962.34	45
2963.18	41.5
2964.02	45.5
2964.86	49.5
2965.71	41.5
2966.55	40.5
2967.39	38.5
2968.23	45
2969.07	41
2969.91	41
2970.75	39
2971.6	38.983
2972.44	38.8688
2973.28	36.9953
2974.12	39.3087
2974.96	31.1487
2975.8	34.9494
2976.64	33.035
2977.48	35.6043
2978.32	31.1257
2979.16	28.7711
2980	28.9455
2980.84	29.06
2981.68	28.9177
2982.52	27.8675
2983.36	29.1474
2984.2	29.0788
2985.04	30.468
2985.88	24.0431
2986.71	23.2742
2987.55	23.3067
2988.39	29.6948
2989.23	24.6828
2990.07	26.7393
2990.91	26.9547
2991.75	28.5243
2992.58	26.7064
2993.42	23.2388
2994.26	22.767
2995.1	27.5057
2995.93	24.198
2996.77	28.2995
2997.61	25.6405
2998.45	25.2888
2999.28	23.5237
3000.12	23.9115
3000.96	22.7805
3001.79	26.5191
3002.63	25.1385
3003.47	24.7796
3004.3	23.8256
3005.14	25.365
3005.98	21.8283
3006.81	23.3411
3007.65	23.4209
3008.48	24.8032
3009.32	21.6271
3010.15	23.2587
3010.99	25.3108
3011.82	24.923
3012.66	22.8849
3013.5	21.5907
3014.33	22.75
3015.17	21.1649
3016	23.3685
3016.83	22.0202
3017.67	23.7212
3018.5	22.2111
3019.34	22.9399
3020.17	20.1623
3021.01	24.3241
3021.84	23.4941
3022.67	20.7556
3023.51	23.9632
3024.34	23.4854
3025.17	23.2478
3026.01	23.9472
3026.84	22.5762
3027.67	21.2235
3028.51	22.4446
3029.34	24.7144
3030.17	23.8195
3031	22.7439
3031.84	22.3883
3032.67	22.9791
3033.5	22.0858
3034.33	21.5752
3035.17	22.2811
3036	23.1747
3036.83	23.3325
3037.66	21.9554
3038.49	22.1479
3039.32	24.1102
3040.15	24.0181
3040.99	23.6729
3041.82	23.6258
3042.65	24.4231
3043.48	23.2842
3044.31	21.7651
3045.14	22.9706
3045.97	23.3991
3046.8	21.818
3047.63	24.1549
3048.46	24.2853
3049.29	21.0616
3050.12	21.3845
3050.95	22.3935
3051.78	22.5101
3052.61	22.736
3053.44	25.195
3054.27	22.6051
3055.1	22.777
3055.92	23.1918
3056.75	22.2012
3057.27	22.5
3058.11	24
3058.94	22.5
3059.77	21.5
3060.61	24
3061.44	22
3062.27	21.5
3063.11	22.5
3063.94	22.5
3064.77	23
3065.6	23
3066.43	23.5
3067.27	28.5
3068.1	23.5
3068.93	25.5
3069.76	21.5
3070.59	26.5
3071.42	18
3072.26	24.5
3073.09	24.5
3073.92	19.5
3074.75	23
3075.58	24.5
3076.41	25
3077.24	22
3078.07	24
3078.9	22
3079.73	21.5
3080.56	21
3081.39	19
3082.22	22
3083.05	20
3083.88	25.5
3084.71	22.5
3085.54	22.5
3086.37	24.5
3087.2	18
3088.03	23
3088.86	26
3089.69	20.5
3090.51	21.5
3091.34	23
3092.17	26
3093	22.5
3093.83	23
3094.66	26
3095.48	25
3096.31	22
3097.14	23.5
3097.97	23.5
3098.79	27.5
3099.62	22
3100.45	23.5
3101.28	25
3102.1	24
3102.93	21.5
3103.76	25.5
3104.58	26
3105.41	26
3106.24	25.5
3107.06	26
3107.89	21.5
3108.72	20
3109.54	20.5
3110.37	23.5
3111.19	22
3112.02	21.5
3112.84	25
3113.67	21
3114.49	23.5
3115.32	25
3116.15	25
3116.97	25
3117.8	23.5
3118.62	22.5
3119.44	21.5
3120.27	26
3121.09	25.5
3121.92	22
3122.74	23
3123.57	24
3124.39	21
3125.21	25
3126.04	23
3126.86	23.5
3127.68	24.5
3128.51	21.5
3129.33	22
3130.15	23.5
3130.98	26.5
3131.8	26
3132.62	19
3133.44	24
3134.27	22
3135.09	25.5
3135.91	22
3136.73	21
3137.56	21.5
3138.38	21
3139.2	25.5
3140.02	24
3140.84	24
3141.67	21.5
3142.49	25
3143.31	20
3144.13	20
3144.95	24.5
3145.77	21.5
3146.59	22.5
3147.41	21.5
3148.23	23.5
3149.05	25
3149.87	24
3150.69	28.5
3151.51	25
3152.33	22
3153.15	25
3153.97	23
3154.79	29
3155.61	28
3156.43	24
3157.25	24
3158.07	19
3158.89	27
3159.71	23
3160.53	23.5
3161.35	23.5
3162.17	24
3162.98	22
3163.8	26
3164.62	25
3165.44	21.5
3166.26	23.5
3167.07	23
3167.89	24.5
3168.71	23
3169.53	20.5
3170.35	21.5
3171.16	22
3171.98	22.5
3172.8	23
3173.61	23
3174.43	24.5
3175.25	25
3176.06	25.5
3176.88	22
3177.7	26
3178.51	25
3179.33	25
3180.15	23
3180.96	21.5
3181.78	26.5
3182.59	29
3183.41	27
3184.22	23
3185.04	25
3185.85	23
3186.67	23.5
3187.49	23
3188.3	23
3189.12	26
3189.93	24.5
3190.74	22
3191.56	21
3192.37	22.5
3193.19	26
3194	21.5
3194.82	25
3195.63	25.5
3196.44	21.5
3197.26	23.5
3198.07	21
3198.88	20
3199.7	26.5
3200.51	22.5
3201.32	25.5
3202.14	23
3202.95	23
3203.76	22
3204.58	22.5
3205.39	21
3206.2	23
3207.01	26.5
3207.83	23.5
3208.64	24
3209.45	25
3210.26	21
3211.07	26.5
3211.88	21.5
3212.7	26
3213.51	25.5
3214.32	24
3215.13	24
3215.94	27.5
3216.75	21.5
3217.56	26
3218.37	22
3219.18	22
3220	24.5
3220.8	23
3221.62	23
3222.43	23.5
3223.24	22.5
3224.05	24.5
3224.86	24.5
3225.67	21
3226.47	20.5
3227.28	23.5
3228.09	22.5
3228.9	25
3229.71	26
3230.52	23
3231.33	24
3232.14	20
3232.95	23
3233.76	27
3234.56	23
3235.37	25
3236.18	22
3236.99	28
3237.8	22.5
3238.61	27
3239.41	22
3240.22	25.5
3241.03	22.5
3241.84	22
3242.64	23
3243.45	20.5
3244.26	23
3245.07	22.5
3245.87	23.5
3246.68	24
3247.49	21
3248.29	19.5
3249.1	25
3249.9	22.5
3250.71	25.5
3251.52	24
3252.32	20.5
3253.13	25
3253.93	21
3254.74	25
3255.55	21.5
3256.35	22.5
3257.16	23.5
3257.96	23
3258.77	26
3259.57	22.5
3260.38	22.5
3261.18	25
3261.99	26
3262.79	23
3263.6	25
3264.4	21.5
3265.2	23.5
3266.01	22
3266.81	20
3267.62	24
3268.42	24
3269.22	21
3270.03	26
3270.83	22.5
3271.63	26
3272.44	25
3273.24	23
3274.04	27.5
3274.85	19.5
3275.65	22
3276.45	24
3277.25	26
3278.06	23
3278.86	22.5
3279.66	25
3280.46	25
3281.26	21
3282.07	24.5
3282.87	22
3283.67	28
3284.47	23.5
3285.27	23
3286.07	22
3286.87	28.5
3287.68	25.5
3288.48	24
3289.28	26
3290.08	25
3290.88	27
3291.68	22
3292.48	22
3293.28	24.5
3294.08	26.5
3294.88	26
3295.68	25.5
3296.48	25
3297.28	20.5
3298.08	20.5
3298.88	25
3299.68	25
3300.48	22
3301.28	28
3302.08	26
3302.88	25
3303.67	22
3304.47	22.5
3305.27	26.5
3306.07	22
3306.87	24.5
3307.67	21.5
3308.46	21
3309.26	25
3310.06	23
3310.86	20.5
3311.66	25
3312.45	27
3313.25	26
3314.05	20
3314.85	23
3315.64	21
3316.44	25.5
3317.24	25.5
3318.03	23.5
3318.83	23
3319.63	22
3320.42	24.5
3321.22	22
3322.02	22.5
3322.81	25
3323.61	21.5
3324.4	23
3325.2	25
3326	25
3326.79	20.5
3327.59	21.5
3328.38	25
3329.18	26.5
3329.97	23
3330.77	27.5
3331.56	23.5
3332.36	24.5
3333.15	26
3333.95	22
3334.74	23
3335.54	24
3336.33	21.5
3337.13	22.5
3337.92	25
3338.71	22.5
3339.51	26.5
3340.3	27
3341.1	28.5
3341.89	27
3342.68	22.5
3343.48	25.5
3344.27	21
3345.06	24
3345.85	24
3346.65	25.5
3347.44	27
3348.23	24.5
3349.03	25.5
3349.82	24
3350.61	28.5
3351.4	26
3352.19	24.5
3352.99	22
3353.78	22.5
3354.57	25
3355.36	23
3356.15	23
3356.94	23.5
3357.74	21
3358.53	20.5
3359.32	20.5
3360.11	21
3360.9	20
3361.69	25
3362.48	22
3363.27	24
3364.06	23
3364.85	22
3365.64	21
3366.43	24
3367.22	27.5
3368.01	23.5
3368.8	23
3369.59	27.5
3370.38	21.5
3371.17	21.5
3371.96	26
3372.75	24.5
3373.54	23
3374.33	24
3375.12	26
3375.91	27.5
3376.69	25
3377.48	22
3378.27	20.5
3379.06	26.5
3379.85	25.5
3380.64	28.5
3381.42	23.5
3382.21	23
3383	25.5
3383.79	25
3384.58	26.5
3385.36	23.5
3386.15	26
3386.94	18.5
3387.73	23
3388.51	29.5
3389.3	24.5
3390.09	23
3390.87	25
3391.66	24
3392.45	24.5
3393.23	24
3394.02	26
3394.81	25
3395.59	23
3396.38	27.5
3397.16	27.5
3397.95	22.5
3398.74	24
3399.52	20
3400.31	25.5
3401.09	24.5
3401.88	22.5
3402.66	24.5
3403.45	24
3404.23	30
3405.02	24.5
3405.8	22.5
3406.59	26
3407.37	24
3408.15	22.5
3408.94	24.5
3409.72	22
3410.51	25
3411.29	23.5
3412.07	23.5
3412.86	24.5
3413.64	23.5
3414.42	21
3415.21	29
3415.99	27
3416.78	20.5
3417.56	24
3418.34	21.5
3419.12	21
3419.91	25
3420.69	24.5
3421.47	26.5
3422.25	20
3423.04	22.5
3423.82	22.5
3424.6	21.5
3425.38	21
3426.16	21.5
3426.95	25
3427.73	26
3428.51	25
3429.29	25
3430.07	20
3430.85	24
3431.63	26
3432.42	26
3433.2	26.5
3433.98	22
3434.76	23
3435.54	28
3436.32	20.5
3437.1	23
3437.88	23
3438.66	21.5
3439.44	24
3440.22	26
3441	22.5
3441.78	28
3442.56	22.5
3443.34	22.5
3444.12	23
3444.9	25.5
3445.68	27
3446.45	25
3447.23	24
3448.01	23.5
3448.79	24
3449.57	25.5
3450.35	19
3451.13	22.5
3451.91	24
3452.68	24
3453.46	20.5
3454.24	24
3455.02	24
3455.79	23.5
3456.57	25
3457.35	23
3458.13	24.5
3458.91	26
3459.68	23
3460.46	20.5
3461.24	24.5
3462.01	25
3462.79	23.5
3463.57	25
3464.34	24
3465.12	22.5
3465.9	24
3466.67	20
3467.45	25
3468.22	28
3469	26
3469.78	21
3470.55	26
3471.33	24.5
3472.1	24.5
3472.88	22
3473.65	23
3474.43	20.5
3475.2	25.5
3475.98	22
3476.75	27
3477.53	22
3478.3	23
3479.08	28
3479.85	25.5
3480.63	20
3481.4	22
3482.18	23
3482.95	24
3483.72	22.5
3484.5	26
3485.27	22.5
3486.04	25.5
3486.82	27
3487.59	26
3488.36	26
3489.14	19.5
3489.91	22
3490.68	23
3491.46	27
3492.23	22
3493	24
3493.77	27
3494.55	25
3495.32	25.5
3496.09	24.5
3496.86	21
3497.64	24.5
3498.41	25.5
3499.18	23.5
3499.95	25
