#Acq. time (s)=	5
#Accumulations=	5
#Range (cm-¹)=	100...3500
#Windows=	4
#Autofocus=	Off
#AutoExposure=	Off
#Spike filter=	Multiple accum.
#Delay time (s)=	0
#Binning=	1
#Readout mode=	Signal
#DeNoise=	Off
#ICS correction=	Off
#Dark correction=	Off
#Inst. Process=	Off
#Instrument=	LabRAM HR Evol
#Detector=	Syncerity OE
#Objective=	x100_VIS
#Grating=	600 (500nm)
#ND Filter=	25%
#Laser=	633nm_Edge
#Hole=	100.021
#Range=	Visible
#Project=	verificaciones
#Sample=	a2
#Site=	plain
#Title=	bolusa2plain
#Remark=	com
#Date=	16.01.2026 14:15
#Acquired=	16.01.2026 14:15:28
100.687	27
101.971	35.5
103.254	33
104.537	32
105.82	28
107.103	28
108.387	27.5
109.669	33
110.951	29.5
112.233	27
113.514	27.5
114.796	29
116.077	33.5
117.358	29.5
118.639	30
119.919	33.5
121.2	34
122.48	36
123.76	33.5
125.039	28
126.319	33.5
127.598	31.5
128.877	34.5
130.156	39.5
131.435	34.5
132.713	35.5
133.992	36.5
135.268	36
136.546	35
137.824	36
139.101	37.5
140.378	34.5
141.655	39.5
142.932	43
144.209	38.5
145.485	38.5
146.76	42
148.036	38.5
149.312	45.5
150.587	41
151.862	45
153.138	43.5
154.411	43.5
155.686	45
156.96	43.5
158.235	42.5
159.509	41
160.781	41.5
162.055	40
163.328	44.5
164.602	42
165.873	46
167.146	42
168.419	43
169.691	43
170.962	37
172.234	43.5
173.506	45.5
174.777	43
176.047	44.5
177.318	38
178.589	44
179.859	41
181.129	46
182.4	40
183.668	43.5
184.938	43
186.207	49.5
187.476	48
188.746	49
190.013	43.5
191.282	48
192.551	42.5
193.818	43
195.086	44
196.353	47.5
197.621	41
198.887	41.5
200.154	43.5
201.422	37
202.687	41
203.954	37.5
205.219	32
206.486	38
207.751	41
209.017	38
210.281	40
211.547	34.5
212.811	35
214.076	30.5
215.339	38
216.603	36
217.867	40.5
219.13	35.5
220.395	31
221.657	37
222.921	34
224.183	34
225.445	36
226.708	33
227.97	31.5
229.232	33.5
230.493	33
231.754	34
233.016	33.5
234.277	34.5
235.537	35.5
236.799	31.5
238.059	31.5
239.318	29
240.579	31.5
241.839	28
243.098	27
244.358	30.5
245.617	31.5
246.875	32
248.133	29
249.393	31.5
250.651	32
251.908	28
253.166	31.5
254.424	29
255.681	30
256.938	34.5
258.195	31.5
259.451	25.5
260.709	34
261.965	26.5
263.221	30.5
264.476	30.5
265.732	31
266.988	31
268.243	31
269.498	32.5
270.753	34.5
272.007	31.5
273.261	29
274.515	28
275.769	29.5
277.022	28.5
278.277	25.5
279.53	28
280.783	23
282.036	30
283.289	32
284.541	32.5
285.793	28.5
287.045	29
288.297	30.5
289.548	30
290.8	26
292.051	25
293.302	27.5
294.552	26
295.803	28.5
297.053	30
298.303	30.5
299.553	27.5
300.803	26.5
302.053	31.5
303.302	31.5
304.551	28.5
305.8	29.5
307.047	31
308.296	26.5
309.544	28
310.792	29
312.04	32.5
313.288	30
314.535	25
315.783	29.5
317.03	32
318.275	31.5
319.522	28
320.768	31
322.015	30
323.261	30
324.505	31
325.751	27
326.997	29
328.242	29.5
329.487	28.5
330.73	29
331.975	31
333.22	26
334.464	28.5
335.707	29.5
336.95	29
338.194	28.5
339.438	27
340.68	28
341.923	27
343.166	27
344.407	29
345.649	29
346.892	27
348.132	30
349.374	29.5
350.616	29.5
351.856	33.5
353.097	30.5
354.337	34.5
355.578	25
356.818	28.5
358.058	26.5
359.298	26
360.536	25
361.776	26.5
363.016	32
364.254	26.5
365.493	25
366.731	29
367.97	29
369.207	31
370.446	32
371.683	28
372.921	25.5
374.157	31
375.395	31
376.631	28.5
377.868	27
379.104	30
380.341	28.5
381.576	28
382.813	31
384.048	27
385.284	28.5
386.518	30
387.753	33
388.988	30.5
390.222	29
391.457	29
392.691	27
393.924	33.5
395.159	29
396.392	27.5
397.624	30
398.858	30.5
400.091	28
401.323	30.5
402.556	27
403.788	28
405.019	25
406.252	26
407.483	26.5
408.714	29
409.945	29.5
411.177	27
412.407	29.5
413.637	27
414.867	33
416.099	28
417.328	30.5
418.558	29.5
419.787	31.5
421.016	25
422.246	27.5
423.475	31
424.703	28
425.931	29
427.159	29
428.388	30
429.616	33.5
430.843	28.5
432.071	29
433.298	26
434.524	30
435.751	28.5
436.977	28.5
438.204	27
439.431	31
440.657	26
441.883	29.5
443.108	29
444.333	31
445.558	29.5
446.783	26.5
448.008	29
449.232	29
450.457	29.5
451.681	27
452.905	30
454.128	31
455.352	29.5
456.575	32.5
457.798	31
459.021	28.5
460.244	35
461.466	28
462.689	32
463.909	31
465.131	32.5
466.353	35
467.575	35
468.796	35.5
470.017	33
471.238	38
472.459	39.5
473.679	34
474.898	41.5
476.118	35.5
477.338	46
478.558	47
479.778	49
480.997	51.5
482.215	55
483.434	62
484.653	65
485.871	62
487.09	60
488.307	57
489.525	58
490.743	58
491.96	56
493.176	57
494.394	56.5
495.611	52
496.826	55
498.043	53
499.259	48
500.474	45.5
501.69	52.5
502.906	42
504.121	43.5
505.336	39.5
506.551	42.5
507.765	37.5
508.98	39.5
510.195	37
511.408	37
512.622	31
513.835	31
515.049	36
516.263	38
517.475	34.5
518.689	33
519.9	33
521.113	34
522.325	33
523.537	29
524.748	31
525.961	37
527.171	30.5
528.383	30
529.594	33.5
530.805	31
532.015	34
533.226	28.5
534.435	28
535.646	31
536.855	32
538.066	29
539.274	29.5
540.483	32
541.693	30.5
542.901	27.5
544.11	29
545.318	32.5
546.526	27
547.734	31
548.942	27
550.149	32
551.357	29.5
552.563	32
553.77	30.5
554.978	28
556.184	30
557.389	31
558.596	30
559.802	25.5
561.007	28.5
562.212	29
563.419	26.5
564.623	29
565.828	29
567.032	29
568.238	30.5
569.442	29
570.646	29
571.849	26
573.054	28
574.257	29.5
575.46	30
576.663	29
577.866	33.5
579.068	30
580.272	26.5
581.474	30.5
582.676	31.5
583.877	28
585.079	29.5
586.28	29.5
587.481	24.5
588.682	31.5
589.883	29.5
591.083	29
592.285	31.5
593.485	27.5
594.685	29.5
595.885	27
597.084	31.5
598.284	29
599.483	30
600.682	30.5
601.881	32.5
603.08	27.5
604.278	29.5
605.476	28
606.674	33.5
607.872	33
609.07	23
610.266	28.5
611.463	25
612.661	26.5
613.857	29
615.054	30
616.251	30
617.447	32.5
618.643	28
619.839	26.5
621.035	35
622.229	25.5
623.425	30
624.62	31
625.815	26
627.01	32.5
628.205	31.5
629.398	28
630.592	29
631.786	27.5
632.98	31
634.172	31.5
635.366	29
636.559	31
637.753	33.5
638.944	31
640.137	28
641.33	27.5
642.522	32
643.713	32.5
644.905	33
646.097	32.5
647.287	26.5
648.478	31.5
649.67	33
650.859	32.5
652.05	31.5
653.241	28
654.43	31.5
655.621	27
656.811	31
657.999	24
659.189	29.5
660.378	31.5
661.567	29
662.755	29.5
663.944	31.5
665.133	34
666.32	31
667.508	30
668.695	35
669.884	32.5
671.07	31.5
672.258	30
673.444	30.5
674.631	31
675.817	32.5
677.004	32.5
678.19	34
679.376	34
680.561	36.5
681.746	32
682.932	37
684.117	34.5
685.302	36.5
686.487	39.5
687.672	41.5
688.856	37
690.039	39
691.224	35
692.407	36.5
693.59	38
694.774	35.5
695.957	38
697.14	38.5
698.323	40
699.505	31.5
700.687	37.5
701.87	41.5
703.052	38.5
704.233	41.5
705.414	47
706.597	47
707.778	54
708.958	57.5
710.139	57.5
711.32	46.5
712.5	45
713.68	45
714.86	39
716.039	36
717.22	35.5
718.399	32.5
719.578	36
720.757	28
721.935	34.5
723.114	30
724.292	29.5
725.471	32
726.649	32
727.827	28
729.004	26
730.182	29.5
731.359	27
732.536	30
733.712	28.5
734.889	34
736.065	29.5
737.242	31
738.418	28
739.593	29.5
740.769	30.5
741.945	32
743.12	27.5
744.295	32
745.47	33
746.644	27
747.819	33
748.993	26
750.168	29
751.342	33.5
752.515	30
753.689	32.5
754.862	29
756.036	33
757.209	28
758.382	27.5
759.553	30.5
760.725	31
761.898	28
763.07	27.5
764.242	31
765.414	23
766.584	28.5
767.755	29
768.927	27
770.098	32
771.269	27
772.438	30
773.608	27
774.779	29.5
775.949	29.5
777.117	33
778.287	29
779.457	31.5
780.626	34.5
781.794	35.5
782.963	29
784.132	32.5
785.299	33
786.468	31
787.636	32
788.803	34
789.971	30
791.139	34
792.305	29.5
793.472	26.5
794.638	31
795.805	34
796.972	27.5
798.138	29
799.304	30
800.469	30
801.635	33.5
802.801	30
803.966	35.5
805.131	28.5
806.295	35.5
807.461	26
808.624	27.5
809.789	27
810.952	31
812.117	28.5
813.28	33.5
814.444	31.5
815.607	30.5
816.769	25.5
817.933	30.5
819.095	27.5
820.258	28.5
821.42	30.5
822.583	28.5
823.744	27.5
824.905	33.5
826.068	29
827.228	30
828.389	27
829.551	34
830.711	29.5
831.871	26.5
833.032	31
834.192	26
835.352	32.5
836.513	28
837.672	28.5
838.831	28
839.99	33.5
841.15	30
842.308	31
843.466	25
844.624	27
845.784	31
846.941	26.5
848.099	26
849.256	30
850.414	29
851.572	30
852.729	28
853.886	33
855.042	30
856.198	30
857.355	35
858.512	33
859.668	30.5
860.823	33
861.979	30
863.134	29.5
864.289	30
865.444	27
866.599	27.5
867.753	25.5
868.908	31
870.062	28
871.216	28.5
872.37	29
873.523	32
874.677	33.5
875.83	30
876.983	32
878.136	28
879.289	30.5
880.441	26.5
881.594	29
882.746	29
883.898	21
885.05	32.5
886.201	24
887.353	31
888.504	27.5
889.655	29.5
890.806	27
891.956	27
893.107	24.5
894.257	29
895.407	28
896.557	29
897.707	29
898.856	28
900.005	31.5
901.154	28
902.304	27
903.453	30.5
904.6	31
905.749	29.5
906.897	25.5
908.046	30
909.192	27
910.34	29
911.488	30
912.634	27.5
913.782	26
914.929	29
916.076	27
917.222	30
918.368	29.5
919.515	27.5
920.66	25.5
921.806	24
922.951	28
924.097	28.5
925.242	25
926.387	25.5
927.532	27
928.676	27
929.821	29
930.965	29
932.109	28.5
933.253	27
934.396	29
935.54	27
936.683	25.5
937.826	28.5
938.969	25.5
940.112	23.5
941.254	27
942.397	26
943.538	26
944.681	26
945.822	26
946.964	26
948.105	29.5
949.246	27
950.388	28
951.528	28.5
952.669	27
953.809	27.5
954.949	24
956.09	26.5
957.229	28.5
958.369	28.5
959.509	28.5
960.648	26
961.786	24.5
962.926	26
964.065	29
965.203	26.5
966.342	30
967.48	27.5
968.618	28
969.755	23
970.894	24.5
972.031	24
973.168	27
974.305	23.5
975.441	25.5
976.579	26
977.715	28
978.851	28
979.987	28
981.123	23
982.26	29
983.395	27
984.531	23.5
985.666	26
986.8	29.5
987.935	28
989.07	27
990.204	24
991.338	24
992.472	28
993.607	28
994.741	27.5
995.874	25
997.008	27.5
998.141	26.5
999.274	28.5
1000.41	24
1001.54	27
1002.67	30
1003.8	23.5
1004.94	24
1006.07	27
1007.2	24
1008.33	31
1009.46	25.5
1010.59	28
1011.72	26
1012.85	24
1013.99	26
1015.12	28.5
1016.25	27
1017.38	23
1018.51	27
1019.63	25
1020.76	26.5
1021.89	26
1023.02	29
1024.15	28.5
1025.28	26
1026.41	27
1027.54	25.5
1028.67	25.5
1029.79	27
1030.92	26
1032.05	26
1033.18	25.5
1034.3	23.5
1035.43	30
1036.56	26
1037.68	25
1038.81	24
1039.94	30
1041.06	26
1042.19	25.5
1043.31	27.5
1044.44	24
1045.57	24.5
1046.69	28.5
1047.82	25.5
1048.94	27
1050.07	27
1051.19	26
1052.31	23
1053.44	29
1054.56	24
1055.69	24
1056.81	25
1057.93	27.5
1059.06	27.5
1060.18	28
1061.3	28
1062.42	25
1063.55	24.5
1064.67	25
1065.79	25
1066.91	25
1068.03	29.5
1069.16	23
1070.28	24.5
1071.4	24
1072.52	25.5
1073.64	27
1074.76	27
1075.88	24.5
1077	28
1078.12	23
1079.24	26
1080.36	27.5
1081.48	22
1082.6	23.5
1083.72	26.5
1084.84	24.5
1085.96	23
1087.08	28.5
1088.2	27
1089.31	29.5
1090.43	25.5
1091.55	28
1092.67	25.5
1093.78	26
1094.9	27.5
1096.02	24
1097.14	26
1098.25	24.5
1099.37	26.5
1100.49	27
1101.6	24.5
1102.72	24
1103.83	22.5
1104.95	27
1106.07	25
1107.18	26
1108.3	29
1109.41	26
1110.52	27
1111.64	26
1112.75	29
1113.87	26
1114.98	22.5
1116.1	29
1117.21	28
1118.32	22.5
1119.44	27.5
1120.55	23
1121.66	27
1122.78	24
1123.89	24.5
1125	28.5
1126.11	25.5
1127.23	23
1128.34	23.5
1129.45	25.5
1130.56	24.5
1131.67	28.5
1132.78	28
1133.89	27
1135	26.5
1136.12	26.5
1137.23	25
1138.34	24.5
1139.45	25
1140.56	22
1141.67	25.5
1142.78	27
1143.89	28
1144.99	28
1146.1	25.5
1147.21	23
1148.32	26
1149.43	26
1150.54	24.5
1151.65	27
1152.75	24.5
1153.86	24.5
1154.97	27.5
1156.08	25
1157.18	24
1158.29	25.5
1159.4	26.5
1160.5	24
1161.61	23
1162.72	22.5
1163.82	28
1164.93	26.5
1166.03	26.5
1167.14	29
1168.24	29.5
1169.35	26
1170.45	33.5
1171.56	23
1172.66	27.5
1173.77	24.5
1174.87	23.5
1175.98	26
1177.08	25
1178.19	24
1179.29	24.5
1180.39	25.5
1181.5	24.5
1182.6	26
1183.7	25.5
1184.8	24
1185.91	31
1187.01	24
1188.11	23
1189.21	28.5
1190.32	24
1191.42	25
1192.52	23.5
1193.62	24
1194.72	24.9989
1195.82	24.9389
1196.92	24.5092
1198.02	23.1706
1199.12	26.4536
1200.22	27.7572
1201.32	25.5111
1202.42	26.951
1203.52	26.7934
1204.62	26.7846
1205.72	25.0089
1206.82	22.2545
1207.92	23.9404
1209.02	23.7154
1210.12	27.679
1211.22	26.589
1212.31	24.2374
1213.41	24.8736
1214.51	23.7602
1215.61	21.6469
1216.71	24.5665
1217.8	25.0383
1218.9	23.476
1220	22.1903
1221.09	27.0569
1222.19	26.9227
1223.29	24.6247
1224.38	26.6174
1225.48	22.7642
1226.58	25.8904
1227.67	25.0283
1228.77	24.4969
1229.86	22.3299
1230.96	27.699
1232.05	25.3325
1233.15	24.974
1234.24	25.5884
1235.34	20.9666
1236.43	23.909
1237.52	26.636
1238.62	24.3512
1239.71	22.618
1240.81	27.784
1241.9	25.0995
1242.99	24.642
1244.09	22.7916
1245.18	26.5935
1246.27	26.9223
1247.36	26.4473
1248.46	25.0619
1249.55	24.0265
1250.64	22.0097
1251.73	26.6716
1252.82	26.9636
1253.92	26.2764
1255.01	27.6451
1256.1	25.3266
1257.19	25.1224
1258.28	26.9764
1259.37	27.3222
1260.46	27.5147
1261.55	26.1655
1262.64	25.5109
1263.73	27.729
1264.82	24.9729
1265.91	23.6138
1267	24.2506
1268.09	26.2852
1269.18	26.3754
1270.27	25.4969
1271.36	23.6539
1272.45	24.211
1273.53	24.006
1274.62	23.0131
1275.71	22.6624
1276.8	24.5292
1277.89	22.823
1278.97	23.8736
1280.06	26.0183
1281.15	23.885
1282.23	21.37
1283.32	24.3719
1284.41	27.095
1285.49	25.3079
1286.58	23.8448
1287.67	26.7238
1288.75	26.6054
1289.84	25.7584
1290.92	25.6408
1292.01	22.5361
1293.09	24.0673
1294.18	21.6604
1295.26	22.8968
1296.35	23.5262
1297.43	22.2714
1298.52	25.7463
1299.6	23.2194
1300.69	23.1237
1301.77	22.5184
1302.85	24.7991
1303.94	25.9515
1305.02	25.2663
1306.1	23.6033
1306.42	23
1307.51	21
1308.59	24
1309.68	26.5
1310.77	23
1311.86	25
1312.95	24.5
1314.03	26
1315.12	24
1316.21	24
1317.29	28
1318.38	23
1319.47	27
1320.55	26.5
1321.64	25
1322.72	26
1323.81	29
1324.89	19
1325.98	24.5
1327.07	26
1328.15	26
1329.24	27
1330.32	25.5
1331.4	24
1332.49	30
1333.57	20.5
1334.66	25
1335.74	24
1336.82	27
1337.91	28
1338.99	30
1340.07	27
1341.16	24
1342.24	29
1343.32	22
1344.4	24.5
1345.49	24.5
1346.57	23
1347.65	28
1348.73	29
1349.81	28
1350.9	24
1351.98	24
1353.06	23
1354.14	24.5
1355.22	21
1356.3	25
1357.38	25.5
1358.46	25
1359.54	26.5
1360.62	25
1361.7	27.5
1362.78	27.5
1363.86	22.5
1364.94	22.5
1366.02	22.5
1367.1	24
1368.17	25.5
1369.25	24
1370.33	25.5
1371.41	24.5
1372.49	26
1373.57	27.5
1374.64	27
1375.72	23
1376.8	24.5
1377.87	24.5
1378.95	22.5
1380.03	27
1381.1	27
1382.18	23
1383.26	25.5
1384.33	23.5
1385.41	25.5
1386.49	27
1387.56	26
1388.64	27.5
1389.71	28.5
1390.79	29
1391.86	27
1392.94	27
1394.01	29
1395.08	28
1396.16	23
1397.23	26
1398.31	28
1399.38	30.5
1400.45	30.5
1401.53	28
1402.6	29.5
1403.67	31
1404.75	30
1405.82	31.5
1406.89	29.5
1407.96	31
1409.04	31.5
1410.11	31.5
1411.18	30
1412.25	32.5
1413.32	34.5
1414.39	31.5
1415.47	31
1416.54	31
1417.61	26
1418.68	30.5
1419.75	30
1420.82	29.5
1421.89	26
1422.96	30
1424.03	24
1425.1	29
1426.17	28
1427.24	24.5
1428.31	25.5
1429.38	29
1430.44	25
1431.51	27
1432.58	28
1433.65	30
1434.72	29
1435.79	24.5
1436.85	25
1437.92	29.5
1438.99	24
1440.05	25
1441.12	24
1442.19	27.5
1443.26	30
1444.32	25
1445.39	28.5
1446.46	26.5
1447.52	28
1448.59	30
1449.65	28.5
1450.72	26.5
1451.78	25
1452.85	24.5
1453.91	28.5
1454.98	24
1456.04	24
1457.11	26.5
1458.17	23.5
1459.24	23.5
1460.3	25.5
1461.36	27
1462.43	24.5
1463.49	24.5
1464.56	22.5
1465.62	25
1466.68	25.5
1467.74	26.5
1468.81	24
1469.87	23.5
1470.93	25
1471.99	27.5
1473.06	25
1474.12	28
1475.18	27.5
1476.24	30
1477.3	27
1478.36	24.5
1479.42	25.5
1480.49	24.5
1481.55	26
1482.61	27.5
1483.67	27.5
1484.73	29.5
1485.79	27.5
1486.85	24.5
1487.91	27
1488.97	23
1490.03	27
1491.09	26
1492.14	26
1493.2	24
1494.26	25.5
1495.32	25
1496.38	22
1497.44	24.5
1498.49	24.5
1499.55	26.5
1500.61	23.5
1501.67	28
1502.72	26.5
1503.78	24
1504.84	28
1505.89	27
1506.95	21
1508.01	25
1509.07	29
1510.12	22.5
1511.18	28.5
1512.23	25
1513.29	28.5
1514.34	26
1515.4	23.5
1516.45	25
1517.51	25
1518.56	28.5
1519.62	23.5
1520.67	22
1521.73	23
1522.78	28
1523.84	28.5
1524.89	25
1525.94	25
1527	24
1528.05	30
1529.1	23.5
1530.16	24
1531.21	29
1532.26	23
1533.32	25
1534.37	24.5
1535.42	27.5
1536.47	26.5
1537.52	26.5
1538.57	25.5
1539.63	22
1540.68	26
1541.73	25
1542.78	27
1543.83	27
1544.88	29.5
1545.93	26.5
1546.98	26
1548.03	26
1549.08	28.5
1550.13	30.5
1551.18	22
1552.23	25
1553.28	25.5
1554.33	26.5
1555.38	30.5
1556.43	26.5
1557.48	27
1558.53	25
1559.57	21.5
1560.62	29
1561.67	30.5
1562.72	25.5
1563.77	28
1564.81	26.5
1565.86	28.5
1566.91	24.5
1567.96	29
1569	28.5
1570.05	27
1571.09	28.5
1572.14	24
1573.19	27
1574.23	27.5
1575.28	28.5
1576.33	24.5
1577.37	23.5
1578.42	24
1579.46	23.5
1580.51	25.5
1581.55	23
1582.6	25
1583.64	24
1584.69	26
1585.73	24.5
1586.77	26.5
1587.82	22.5
1588.86	20
1589.91	26
1590.95	27.5
1591.99	25.5
1593.04	28
1594.08	27.5
1595.12	27
1596.16	26.5
1597.21	24.5
1598.25	28
1599.29	26.5
1600.33	26
1601.37	29
1602.42	23
1603.46	23.5
1604.5	25.5
1605.54	24.5
1606.58	24
1607.62	25
1608.66	26.5
1609.7	26
1610.74	23.5
1611.78	30
1612.82	28.5
1613.86	23.5
1614.9	24
1615.94	27.5
1616.98	20.5
1618.02	26.5
1619.06	26
1620.1	22.5
1621.14	19.5
1622.18	28.5
1623.21	27
1624.25	26.5
1625.29	27.5
1626.33	26.5
1627.37	21
1628.4	22.5
1629.44	26
1630.48	23.5
1631.52	26.5
1632.55	24
1633.59	26.5
1634.63	28
1635.66	28
1636.7	25
1637.73	31.5
1638.77	29
1639.81	20.5
1640.84	26
1641.88	24.5
1642.91	26
1643.95	22
1644.98	24
1646.02	24.5
1647.05	27.5
1648.09	28
1649.12	23
1650.16	25.5
1651.19	24.5
1652.22	27
1653.26	22.5
1654.29	24
1655.32	25
1656.36	25.5
1657.39	26.5
1658.42	22
1659.46	25
1660.49	28
1661.52	24
1662.55	28.5
1663.59	27
1664.62	28
1665.65	23.5
1666.68	25.5
1667.71	23
1668.74	25.5
1669.77	24.5
1670.81	23.5
1671.84	24.5
1672.87	27
1673.9	24.5
1674.93	22.5
1675.96	29
1676.99	24
1678.02	26
1679.05	23.5
1680.08	24
1681.11	23.5
1682.13	26.5
1683.16	21.5
1684.19	24.5
1685.22	24.5
1686.25	27
1687.28	30
1688.31	24.5
1689.33	20.5
1690.36	24.5
1691.39	26
1692.42	25.5
1693.45	27.5
1694.47	26.5
1695.5	25.5
1696.53	24.5
1697.55	27
1698.58	25.5
1699.61	26
1700.63	23
1701.66	24.5
1702.68	24.5
1703.71	24.5
1704.74	23
1705.76	25.5
1706.79	27.5
1707.81	29
1708.84	23
1709.86	26
1710.89	27
1711.91	24
1712.94	26.5
1713.96	26.5
1714.98	24.5
1716.01	25.5
1717.03	25.5
1718.05	27.5
1719.08	24
1720.1	23.5
1721.12	20.5
1722.15	23.5
1723.17	25
1724.19	25
1725.22	27
1726.24	23.5
1727.26	26.5
1728.28	26
1729.3	23
1730.32	26.5
1731.35	27.5
1732.37	25
1733.39	21
1734.41	21.5
1735.43	29
1736.45	25.5
1737.47	25
1738.49	29.5
1739.51	26
1740.53	27
1741.55	28.5
1742.57	23
1743.59	24.5
1744.61	25
1745.63	22
1746.65	23.5
1747.67	24.5
1748.69	24.5
1749.71	24.5
1750.72	27.5
1751.74	24.5
1752.76	25.5
1753.78	23
1754.8	25
1755.81	28
1756.83	25
1757.85	30.5
1758.87	24
1759.88	28
1760.9	28.5
1761.92	23.5
1762.93	26.5
1763.95	24.5
1764.97	23
1765.98	25
1767	30
1768.01	25.5
1769.03	26
1770.05	25.5
1771.06	24
1772.08	24
1773.09	28
1774.11	23
1775.12	25.5
1776.13	23
1777.15	24
1778.16	24
1779.18	24.5
1780.19	26
1781.2	26
1782.22	23
1783.23	22
1784.24	22
1785.26	25.5
1786.27	22.5
1787.28	23.5
1788.3	25.5
1789.31	25
1790.32	22.5
1791.33	23.5
1792.35	22.5
1793.36	22.5
1794.37	24.5
1795.38	24.5
1796.39	23
1797.4	26
1798.41	22
1799.43	25.5
1800.44	26.5
1801.45	20
1802.46	24
1803.47	24.5
1804.48	24
1805.49	24.5
1806.5	24
1807.51	25
1808.52	26
1809.53	23
1810.53	25
1811.54	26.5
1812.55	23
1813.56	23.5
1814.57	26
1815.58	23
1816.59	19.5
1817.6	24
1818.6	22
1819.61	23
1820.62	25
1821.63	22
1822.63	23
1823.64	27
1824.65	23.5
1825.65	24.5
1826.66	24
1827.67	24
1828.67	26.5
1829.68	23
1830.69	24.5
1831.69	27
1832.7	26
1833.7	25
1834.71	24.5
1835.71	22
1836.72	27
1837.72	26
1838.73	21.5
1839.73	24
1840.74	26.5
1841.74	25
1842.75	25
1843.75	26
1844.75	22
1845.76	25
1846.76	25.5
1847.76	25
1848.77	26
1849.77	24.5
1850.77	22
1851.78	24.5
1852.78	28.5
1853.78	28.5
1854.78	28
1855.79	29
1856.79	26
1857.79	25.5
1858.79	24.5
1859.79	28
1860.8	24
1861.8	27
1862.8	25.5
1863.8	23
1864.8	26.5
1865.8	26
1866.8	23
1867.8	24.5
1868.8	27
1869.8	28.5
1870.8	24.5
1871.8	25
1872.8	23.5
1873.8	26
1874.8	23.5
1875.8	25
1876.8	23.5
1877.8	25.5
1878.79	24
1879.79	25.5
1880.79	23.5
1881.79	28
1882.79	23.5
1883.79	23.5
1884.78	24.5
1885.78	29.5
1886.78	25
1887.77	24
1888.77	22.5
1889.77	24
1890.77	24
1891.76	24.5
1892.76	27
1893.76	27.5
1894.75	24
1895.75	25.5
1896.74	23
1897.74	24
1898.73	22.5
1899.73	28
1900.72	29.5
1901.72	24.5
1902.72	28
1903.71	22
1904.7	24
1905.7	22
1906.69	25
1907.69	25.5
1908.68	27.5
1909.67	27
1910.67	21.5
1911.66	21
1912.66	19
1913.65	26.5
1914.64	19
1915.63	23.5
1916.63	25.5
1917.62	28
1918.61	24
1919.6	24.5
1920.6	27.5
1921.59	21
1922.58	27.5
1923.57	20.5
1924.56	21.5
1925.56	25
1926.55	28.5
1927.54	22
1928.53	23.5
1929.52	24
1930.51	25
1931.5	25
1932.49	24.5
1933.48	28
1934.47	23
1935.46	21
1936.45	26.5
1937.44	24
1938.43	24
1939.42	21
1940.41	24
1941.4	24
1942.39	25
1943.37	24.5
1944.36	22.5
1945.35	26.5
1946.34	25.5
1947.33	24
1948.32	26
1949.3	26
1950.29	20.5
1951.28	22.5
1952.27	24.5
1953.25	25
1954.24	27
1955.23	24.5
1956.21	24
1957.2	24.5
1958.19	27
1959.17	25
1960.16	23.5
1961.14	23
1962.13	24.5
1963.12	23
1964.1	23
1965.09	24
1966.07	25
1967.06	22
1968.04	25
1969.03	25
1970.01	27
1970.99	25
1971.98	24
1972.96	25.5
1973.95	21
1974.93	23.5
1975.92	25
1976.9	24.5
1977.88	20
1978.87	24
1979.85	27.5
1980.83	25.5
1981.81	24.5
1982.8	23.5
1983.78	23.5
1984.76	23.5
1985.74	26
1986.73	25.5
1987.71	27
1988.69	20
1989.67	24.5
1990.65	21.5
1991.63	29
1992.61	24
1993.59	23
1994.58	24.5
1995.56	28
1996.54	26
1997.52	25
1998.5	20.5
1999.48	25.5
2000.46	19.5
2001.44	22.5
2002.42	25
2003.4	22
2004.38	23.5
2005.35	25
2006.33	23
2007.31	20
2008.29	23.5
2009.27	23
2010.25	21.5
2011.23	22.5
2012.2	26
2013.18	20.5
2014.16	21
2015.14	24
2016.11	26.5
2017.09	22
2018.07	25
2019.05	24
2020.02	25
2021	24
2021.98	23
2022.95	25
2023.93	26.5
2024.91	25.5
2025.88	23
2026.86	27.5
2027.83	24
2028.81	25
2029.78	24
2030.76	25.5
2031.73	23.5
2032.71	22.5
2033.68	25.5
2034.66	25
2035.63	21.5
2036.61	25
2037.58	22
2038.56	26.5
2039.53	21.5
2040.5	25
2041.48	21
2042.45	22
2043.42	23.5
2044.4	26.5
2045.37	24
2046.34	23
2047.32	24
2048.29	20.5
2049.26	22
2050.23	20
2051.2	27
2052.18	23
2053.15	22.5
2054.12	24
2055.09	22
2056.06	21.5
2057.03	26.5
2058	23
2058.98	23
2059.95	24
2060.92	27.5
2061.89	25.5
2062.86	26
2063.83	23
2064.8	25
2065.77	26.5
2066.74	24.5
2067.71	23.5
2068.68	20
2069.65	23.5
2070.61	27
2071.58	19
2072.55	25.5
2073.52	26
2074.49	23.5
2075.46	25.5
2076.43	23.5
2077.4	23
2078.36	23
2079.33	23
2080.3	24.5
2081.27	23.5
2082.23	20
2083.2	25
2084.17	22.5
2085.13	23
2086.1	23.5
2087.07	23
2088.03	20.5
2089	25
2089.97	26
2090.93	23.5
2091.9	22
2092.86	27
2093.83	24.5
2094.8	26.5
2095.76	23.5
2096.73	22
2097.69	26
2098.66	24
2099.62	24.5
2100.58	26
2101.55	25.5
2102.51	24
2103.48	21
2104.44	26.5
2105.41	23
2106.37	24
2107.33	20
2108.3	24
2109.26	23.5
2110.22	24.5
2111.19	24.5
2112.15	22
2113.11	29
2114.07	25
2115.04	24.5
2116	23
2116.96	26.5
2117.92	23.5
2118.88	25.5
2119.85	26
2120.81	24
2121.77	19.5
2122.73	22.5
2123.69	25
2124.65	23
2125.61	24
2126.57	24.5
2127.53	25.5
2128.49	23.5
2129.45	25.5
2130.41	22
2131.37	24
2132.33	22
2133.29	22
2134.25	24.5
2135.21	26
2136.17	19
2137.13	23
2138.09	21.5
2139.05	23.5
2140.01	21.5
2140.96	26
2141.92	21
2142.88	23.9867
2143.84	25.9093
2144.8	20.1255
2145.75	22.1431
2146.71	21.1029
2147.67	22.3857
2148.63	24.5813
2149.58	23.8289
2150.54	23.6659
2151.5	25.1513
2152.45	23.9022
2153.41	22.0558
2154.37	26.0278
2155.32	23.0558
2156.28	26.6306
2157.23	24.6095
2158.19	23.0652
2159.15	24.304
2160.1	22.5846
2161.06	25.6052
2162.01	22.5642
2162.97	22.0716
2163.92	21.6189
2164.88	23.6609
2165.83	25.2789
2166.78	21.9797
2167.74	21.3147
2168.69	21.7938
2169.65	24.9311
2170.6	21.9672
2171.56	21.4802
2172.51	22.4627
2173.46	23.5904
2174.42	23.1748
2175.37	22.2567
2176.32	24.8772
2177.28	18.7666
2178.23	23.4367
2179.18	21.2554
2180.13	23.774
2181.08	21.6961
2182.04	23.7444
2182.99	24.2706
2183.94	23.7888
2184.89	23.4399
2185.84	21.6369
2186.8	23.1182
2187.75	22.9223
2188.7	25.0496
2189.65	21.6525
2190.6	24.1156
2191.55	23.4396
2192.5	20.7766
2193.45	25.1892
2194.4	21.5013
2195.35	22
2196.3	20.7686
2197.25	23.7464
2198.2	20.4417
2199.15	20.1615
2200.1	22.1252
2201.05	23.5931
2202	21.2798
2202.95	22.3324
2203.9	25.8457
2204.85	22.911
2205.79	23.5173
2206.74	19.6206
2207.69	22.9226
2208.64	24.6017
2209.59	24.0519
2210.53	22.6692
2211.48	23.5806
2212.43	20.2669
2213.38	20.1771
2214.32	23.3656
2215.27	22.5945
2216.22	23.9907
2217.17	23.5208
2218.11	24.1237
2219.06	22.5884
2220.01	19.1883
2220.95	23.1061
2221.9	21.8959
2222.84	25.3097
2223.79	26.2985
2224.73	21.7574
2225.68	24.0559
2226.63	21.5857
2227.57	21.817
2228.52	20.4814
2229.46	23.034
2230.41	24.7989
2231.35	20.8523
2232.3	21.5651
2233.24	21.8776
2234.18	20.8296
2235.13	22.9884
2236.07	21.9255
2237.02	22.2633
2237.96	21.414
2238.9	22.8601
2239.85	21.6121
2240.08	21
2241.03	20.5
2241.97	29
2242.92	23
2243.87	22
2244.82	22.5
2245.76	22
2246.71	21
2247.66	23
2248.61	25.5
2249.55	20
2250.5	26.5
2251.45	24.5
2252.39	22
2253.34	24
2254.29	24
2255.23	23
2256.18	22.5
2257.12	24.5
2258.07	27
2259.01	22
2259.96	24
2260.9	24
2261.85	23.5
2262.79	18
2263.74	23
2264.68	22.5
2265.63	20.5
2266.57	23
2267.52	26
2268.46	24
2269.41	22
2270.35	24.5
2271.29	20
2272.24	25.5
2273.18	24
2274.12	23
2275.07	24
2276.01	24.5
2276.95	23.5
2277.89	22.5
2278.84	23
2279.78	23.5
2280.72	24
2281.66	23
2282.6	21.5
2283.55	21
2284.49	21.5
2285.43	23
2286.37	20.5
2287.31	23
2288.25	26
2289.2	21.5
2290.14	20
2291.08	23.5
2292.02	25
2292.96	27
2293.9	19.5
2294.84	21.5
2295.78	24
2296.72	24.5
2297.66	23
2298.6	17.5
2299.54	23.5
2300.48	23.5
2301.42	21.5
2302.35	21
2303.29	24.5
2304.23	19
2305.17	22
2306.11	28.5
2307.05	22
2307.99	23.5
2308.92	22.5
2309.86	24.5
2310.8	24.5
2311.74	23.5
2312.67	27
2313.61	21
2314.55	26
2315.49	23
2316.42	24.5
2317.36	22
2318.3	21
2319.23	24.5
2320.17	23.5
2321.1	22
2322.04	21.5
2322.98	23.5
2323.91	23.5
2324.85	21.5
2325.78	22
2326.72	25.5
2327.66	20
2328.59	21
2329.52	24
2330.46	23
2331.39	26.5
2332.33	24
2333.26	25.5
2334.2	24
2335.13	21.5
2336.07	24.5
2337	24.5
2337.93	22
2338.87	23
2339.8	27
2340.73	25.5
2341.67	25
2342.6	24.5
2343.53	25
2344.46	26
2345.4	25
2346.33	22.5
2347.26	23.5
2348.19	25.5
2349.13	27
2350.06	23
2350.99	26
2351.92	22.5
2352.85	23.5
2353.79	22
2354.72	25
2355.65	23
2356.58	23.5
2357.51	27
2358.44	28.5
2359.37	24
2360.3	25
2361.23	23.5
2362.16	21
2363.09	26.5
2364.02	24
2364.95	21
2365.88	26
2366.81	23
2367.74	18.5
2368.67	23.5
2369.6	23.5
2370.53	26
2371.45	28.5
2372.38	23.5
2373.31	23
2374.24	26
2375.17	20.5
2376.1	25
2377.02	25
2377.95	22
2378.88	23.5
2379.81	28.5
2380.73	23
2381.66	25
2382.59	23.5
2383.52	25
2384.44	24.5
2385.37	24.5
2386.3	23
2387.22	26
2388.15	24
2389.07	25.5
2390	21
2390.93	24.5
2391.85	23
2392.78	20
2393.7	25
2394.63	22
2395.55	20.5
2396.48	21
2397.4	23
2398.33	24
2399.25	22.5
2400.18	25
2401.1	28
2402.03	19.5
2402.95	27.5
2403.87	21.5
2404.8	22
2405.72	28.5
2406.64	22.5
2407.57	21.5
2408.49	20
2409.41	24
2410.34	20
2411.26	24
2412.18	25
2413.1	23
2414.03	23.5
2414.95	22
2415.87	22
2416.79	22.5
2417.72	24
2418.64	23.5
2419.56	23
2420.48	28
2421.4	24.5
2422.32	25.5
2423.24	25.5
2424.16	26.5
2425.09	24.5
2426.01	23
2426.93	26
2427.85	28.5
2428.77	19.5
2429.69	23
2430.61	24
2431.53	22
2432.45	23
2433.37	24.5
2434.29	24
2435.21	25
2436.12	25
2437.04	27
2437.96	21
2438.88	21
2439.8	23.5
2440.72	23.5
2441.64	23.5
2442.55	20
2443.47	22
2444.39	29.5
2445.31	27.5
2446.23	24
2447.14	23
2448.06	23.5
2448.98	26.5
2449.9	26.5
2450.81	24
2451.73	26.5
2452.65	24
2453.56	23
2454.48	24
2455.39	23
2456.31	25.5
2457.23	24
2458.14	22.5
2459.06	19.5
2459.97	20.5
2460.89	21.5
2461.8	20
2462.72	22
2463.64	26
2464.55	21.5
2465.47	23
2466.38	23
2467.29	26.5
2468.21	21
2469.12	24
2470.04	26.5
2470.95	22.5
2471.86	22
2472.78	22
2473.69	24.5
2474.61	24.5
2475.52	24
2476.43	22.5
2477.35	27.5
2478.26	23.5
2479.17	25.5
2480.08	26.5
2481	23
2481.91	25
2482.82	24
2483.73	22.5
2484.64	24.5
2485.56	23
2486.47	20
2487.38	24
2488.29	22.5
2489.2	22
2490.11	24.5
2491.03	28
2491.94	23
2492.85	26
2493.76	21
2494.67	28
2495.58	26
2496.49	23.5
2497.4	23.5
2498.31	24.5
2499.22	24.5
2500.13	25
2501.04	26.5
2501.95	21.5
2502.86	24.5
2503.77	20
2504.67	23
2505.58	24.5
2506.49	22.5
2507.4	28.5
2508.31	26.5
2509.22	22
2510.13	27.5
2511.03	27
2511.94	25
2512.85	22.5
2513.76	24.5
2514.66	25
2515.57	24.5
2516.48	25
2517.39	24
2518.29	23
2519.2	23
2520.11	26.5
2521.01	23.5
2521.92	26.5
2522.83	24
2523.73	25
2524.64	23.5
2525.54	23.5
2526.45	25
2527.36	23.5
2528.26	25
2529.17	21.5
2530.07	25
2530.98	24.5
2531.88	23.5
2532.79	29
2533.69	23
2534.6	22
2535.5	25
2536.41	24
2537.31	26.5
2538.21	25.5
2539.12	20.5
2540.02	26
2540.93	24
2541.83	26.5
2542.73	22
2543.64	25
2544.54	21.5
2545.44	20.5
2546.34	26
2547.25	26
2548.15	24
2549.05	25
2549.96	23
2550.86	23
2551.76	25
2552.66	25.5
2553.56	26
2554.46	23
2555.37	23.5
2556.27	25
2557.17	26
2558.07	24.5
2558.97	28.5
2559.87	21
2560.77	28
2561.67	26.5
2562.57	28
2563.47	26
2564.37	24
2565.27	26
2566.17	26
2567.07	24.5
2567.97	22.5
2568.87	23
2569.77	27
2570.67	24
2571.57	20
2572.47	27
2573.37	25.5
2574.27	26
2575.17	27.5
2576.06	25
2576.96	23
2577.86	24
2578.76	25.5
2579.66	23
2580.56	23
2581.45	25
2582.35	23.5
2583.25	24
2584.15	26
2585.04	22.5
2585.94	24.5
2586.84	24
2587.73	24.5
2588.63	23.5
2589.53	25.5
2590.42	26
2591.32	26
2592.22	28
2593.11	24.5
2594.01	26.5
2594.9	24.5
2595.8	21.5
2596.69	22
2597.59	23
2598.48	27.5
2599.38	26.5
2600.28	24
2601.17	23.5
2602.06	22
2602.96	22
2603.85	23
2604.75	27.5
2605.64	25.5
2606.54	22.5
2607.43	29
2608.32	26
2609.22	21.5
2610.11	27
2611	24.5
2611.9	27
2612.79	22.5
2613.68	26.5
2614.58	21.5
2615.47	21
2616.36	24.5
2617.25	26
2618.15	24
2619.04	21.5
2619.93	23
2620.82	24.5
2621.71	25.5
2622.61	26
2623.5	25
2624.39	25.5
2625.28	25
2626.17	27.5
2627.06	24
2627.95	26.5
2628.84	20
2629.74	23
2630.63	21.5
2631.52	28
2632.41	24
2633.3	21.5
2634.19	23.5
2635.08	29.5
2635.97	24.5
2636.85	25
2637.74	26
2638.63	22
2639.52	22.5
2640.41	23
2641.3	25
2642.19	22.5
2643.08	26
2643.97	21.5
2644.86	27.5
2645.74	22
2646.63	26.5
2647.52	25.5
2648.41	24.5
2649.3	24
2650.18	23
2651.07	22.5
2651.96	26.5
2652.85	27.5
2653.73	23.5
2654.62	24.5
2655.51	25
2656.39	23
2657.28	28.5
2658.17	22.5
2659.05	19.5
2659.94	27
2660.83	21
2661.71	26.5
2662.6	21
2663.48	24
2664.37	26
2665.25	24
2666.14	27
2667.02	23
2667.91	24.5
2668.79	26
2669.68	23
2670.56	26
2671.45	25.5
2672.33	26
2673.22	22
2674.1	26
2674.98	23
2675.87	23
2676.75	25.5
2677.64	26.5
2678.52	25.5
2679.4	25.5
2680.29	24.5
2681.17	26.5
2682.05	23
2682.94	24
2683.82	27.5
2684.7	26
2685.58	25.5
2686.47	24
2687.35	21.5
2688.23	24
2689.11	24
2689.99	27
2690.88	26.5
2691.76	23.5
2692.64	24.5
2693.52	24
2694.4	21
2695.28	28
2696.16	25
2697.04	26
2697.92	23.5
2698.8	24
2699.69	27
2700.57	24.5
2701.45	22
2702.33	24
2703.21	24
2704.09	22.5
2704.97	26
2705.84	27
2706.72	26
2707.6	21
2708.48	29
2709.36	25
2710.24	26
2711.12	25
2712	25.5
2712.88	24
2713.75	22.5
2714.63	24
2715.51	26
2716.39	26
2717.27	25.5
2718.14	22.5
2719.02	24
2719.9	25
2720.78	21.5
2721.65	25
2722.53	27
2723.41	25
2724.28	26
2725.16	24
2726.04	24
2726.92	25
2727.79	20.5
2728.67	26
2729.54	26
2730.42	21
2731.3	26
2732.17	25.5
2733.05	27
2733.92	26
2734.8	20.5
2735.67	24
2736.55	20.5
2737.42	24
2738.3	27.5
2739.17	25.5
2740.05	26
2740.92	25
2741.79	29.5
2742.67	23
2743.54	24
2744.42	26
2745.29	25.5
2746.16	27
2747.04	22.5
2747.91	26
2748.78	24
2749.66	23.5
2750.53	26
2751.4	17
2752.28	27.5
2753.15	24
2754.02	27
2754.89	21.5
2755.77	25
2756.64	20.5
2757.51	26
2758.38	21.5
2759.25	29.5
2760.13	22.5
2761	21
2761.87	23
2762.74	26
2763.61	25
2764.48	27.5
2765.35	24.5
2766.22	26
2767.09	23
2767.96	24.5
2768.83	24.5
2769.71	25.5
2770.57	20.5
2771.44	22
2772.32	23.5
2773.18	22
2774.05	26
2774.92	23
2775.79	26
2776.66	23.5
2777.53	25
2778.4	20
2779.27	22.5
2780.14	24
2781.01	26
2781.87	26.5
2782.74	26
2783.61	24.5
2784.48	26
2785.35	26.5
2786.21	23
2787.08	26.5
2787.95	24.5
2788.82	24.5
2789.69	27
2790.55	28.5
2791.42	26.5
2792.29	24.5
2793.15	27
2794.02	23
2794.89	27
2795.75	24
2796.62	29.5
2797.49	24
2798.35	26
2799.22	23
2800.08	26
2800.95	29
2801.81	30
2802.68	27.5
2803.55	27.5
2804.41	30
2805.28	23.5
2806.14	24
2807	24.5
2807.87	23.5
2808.73	28.5
2809.6	29
2810.46	26
2811.33	22
2812.19	28
2813.06	25
2813.92	23
2814.78	27.5
2815.65	29.5
2816.51	22
2817.37	27
2818.24	27
2819.1	25
2819.96	30.5
2820.83	28.5
2821.69	24
2822.55	23
2823.41	26.5
2824.28	27
2825.14	24
2826	27
2826.86	27
2827.72	28
2828.58	25
2829.45	26.5
2830.31	28
2831.17	21
2832.03	25
2832.89	27
2833.75	25.5
2834.61	24
2835.47	26
2836.33	26
2837.2	26
2838.05	24
2838.92	23.5
2839.78	29
2840.64	26
2841.49	26.5
2842.35	26.5
2843.21	23
2844.07	27.5
2844.93	25
2845.79	25
2846.65	28.5
2847.51	25.5
2848.37	29
2849.23	30
2850.09	24
2850.94	22
2851.8	27
2852.66	25
2853.52	25
2854.38	26
2855.23	26.5
2856.09	26.5
2856.95	26
2857.81	25
2858.67	27.5
2859.52	26
2860.38	24
2861.24	27
2862.09	25
2862.95	26.5
2863.81	31
2864.66	25.5
2865.52	26.5
2866.38	29
2867.23	29.5
2868.09	28.5
2868.94	30.5
2869.8	24.5
2870.65	28
2871.51	29
2872.37	27.5
2873.22	30.5
2874.08	28
2874.93	26
2875.79	28.5
2876.64	31
2877.49	27.5
2878.35	30.5
2879.2	30.5
2880.06	26
2880.91	32.5
2881.77	32
2882.62	31
2883.47	34.5
2884.33	32.5
2885.18	36
2886.03	33
2886.89	36
2887.74	34.5
2888.59	35
2889.45	43
2890.3	42
2891.15	39
2892	40
2892.86	33
2893.71	44.5
2894.56	47.5
2895.41	50
2896.27	49
2897.12	54.5
2897.97	56
2898.82	55
2899.67	55
2900.52	59
2901.37	63.5
2902.23	63.5
2903.08	69
2903.93	71
2904.78	73
2905.63	67
2906.48	71
2907.33	70
2908.18	68
2909.03	72.5
2909.88	66.5
2910.73	64
2911.58	64.5
2912.43	53.5
2913.28	53.5
2914.13	51
2914.98	52.5
2915.83	47
2916.67	42.5
2917.52	42.5
2918.37	36.5
2919.22	34
2920.07	38
2920.92	38
2921.77	32
2922.61	30.5
2923.46	31.5
2924.31	34.5
2925.16	31
2926	30.5
2926.85	31
2927.7	29.5
2928.55	27
2929.39	29.5
2930.24	27.5
2931.09	26.5
2931.94	26
2932.78	30
2933.63	29.5
2934.47	29.5
2935.32	32
2936.17	26.5
2937.01	26
2937.86	30
2938.7	28.5
2939.55	27
2940.4	27.5
2941.24	28
2942.09	30
2942.93	30.5
2943.78	27
2944.62	29
2945.47	27
2946.31	29
2947.16	29.5
2948	27.5
2948.84	31.5
2949.69	27.5
2950.53	32
2951.38	35
2952.22	27.5
2953.06	31.5
2953.91	37
2954.75	31
2955.59	34.5
2956.44	28
2957.28	36.5
2958.12	36.5
2958.97	37
2959.81	43.5
2960.65	41
2961.5	42
2962.34	43.5
2963.18	38.5
2964.02	46
2964.86	39
2965.71	44
2966.55	41
2967.39	42.5
2968.23	43
2969.07	41
2969.91	43
2970.75	37.5
2971.6	41.4782
2972.44	37.3991
2973.28	30.6763
2974.12	36.9739
2974.96	31.6769
2975.8	29.4668
2976.64	32.5379
2977.48	30.2465
2978.32	30.7476
2979.16	31.1499
2980	29.9443
2980.84	29.3383
2981.68	29.2903
2982.52	31.4006
2983.36	27.0704
2984.2	29.1355
2985.04	28.8141
2985.88	25.9248
2986.71	25.9133
2987.55	27.0108
2988.39	28.1382
2989.23	24.8045
2990.07	27.9362
2990.91	24.9053
2991.75	25.7139
2992.58	23.4021
2993.42	23.6416
2994.26	27.8367
2995.1	24.7352
2995.93	26.6894
2996.77	26.653
2997.61	26.2565
2998.45	25.1723
2999.28	25.0932
3000.12	23.0046
3000.96	22.2455
3001.79	23.1806
3002.63	21.9931
3003.47	23.7785
3004.3	24.5752
3005.14	22.3976
3005.98	24.5167
3006.81	25.2453
3007.65	26.9273
3008.48	24.5576
3009.32	23.559
3010.15	22.0804
3010.99	22.0104
3011.82	23.1573
3012.66	25.714
3013.5	25.6649
3014.33	22.934
3015.17	22.59
3016	24.1282
3016.83	24.0963
3017.67	24.0734
3018.5	22.4661
3019.34	23.1729
3020.17	24.4056
3021.01	23.5635
3021.84	25.4481
3022.67	24.5057
3023.51	21.9268
3024.34	22.9801
3025.17	24.3086
3026.01	23.1573
3026.84	23.0735
3027.67	22.1893
3028.51	21.8912
3029.34	23.4879
3030.17	22.6232
3031	24.0877
3031.84	23.9184
3032.67	22.3568
3033.5	21.5979
3034.33	21.6262
3035.17	22.7975
3036	23.0826
3036.83	21.1874
3037.66	20.5014
3038.49	24.5063
3039.32	24.2189
3040.15	23.207
3040.99	23.0403
3041.82	23.506
3042.65	22.8757
3043.48	22.232
3044.31	22.802
3045.14	22.5047
3045.97	23.6448
3046.8	24.7455
3047.63	23.7259
3048.46	23.4154
3049.29	22.3026
3050.12	20.4447
3050.95	23.4272
3051.78	22.6718
3052.61	21.5267
3053.44	22.5133
3054.27	23.6051
3055.1	23.0971
3055.92	24.0812
3056.75	25.6147
3057.27	25
3058.11	26
3058.94	23.5
3059.77	21
3060.61	24.5
3061.44	18.5
3062.27	23
3063.11	24.5
3063.94	19.5
3064.77	24
3065.6	22.5
3066.43	21
3067.27	21
3068.1	20.5
3068.93	23
3069.76	21
3070.59	23
3071.42	24.5
3072.26	22.5
3073.09	23
3073.92	22.5
3074.75	23
3075.58	19
3076.41	22
3077.24	24
3078.07	23
3078.9	21.5
3079.73	28
3080.56	26
3081.39	24
3082.22	21.5
3083.05	24.5
3083.88	21.5
3084.71	22
3085.54	24.5
3086.37	22.5
3087.2	23.5
3088.03	23
3088.86	20.5
3089.69	21.5
3090.51	22
3091.34	27
3092.17	24.5
3093	25.5
3093.83	23.5
3094.66	24
3095.48	24
3096.31	28
3097.14	25
3097.97	22
3098.79	24
3099.62	24
3100.45	21
3101.28	23.5
3102.1	20
3102.93	22.5
3103.76	22
3104.58	26
3105.41	22
3106.24	26
3107.06	25
3107.89	24
3108.72	24
3109.54	23
3110.37	25
3111.19	21
3112.02	25
3112.84	21
3113.67	21
3114.49	21.5
3115.32	24.5
3116.15	26
3116.97	26.5
3117.8	21.5
3118.62	25.5
3119.44	26
3120.27	23.5
3121.09	22
3121.92	24
3122.74	24
3123.57	24.5
3124.39	25
3125.21	23.5
3126.04	19.5
3126.86	25.5
3127.68	25.5
3128.51	23.5
3129.33	28.5
3130.15	25
3130.98	23
3131.8	22.5
3132.62	24.5
3133.44	24
3134.27	22
3135.09	23.5
3135.91	21
3136.73	21
3137.56	25.5
3138.38	20.5
3139.2	20
3140.02	21.5
3140.84	23
3141.67	23
3142.49	21
3143.31	24
3144.13	24.5
3144.95	23
3145.77	24
3146.59	25
3147.41	21.5
3148.23	25
3149.05	24
3149.87	20
3150.69	23.5
3151.51	25.5
3152.33	25
3153.15	25
3153.97	27.5
3154.79	24
3155.61	25
3156.43	23
3157.25	24.5
3158.07	29.5
3158.89	23
3159.71	20.5
3160.53	22
3161.35	21.5
3162.17	26
3162.98	23
3163.8	20.5
3164.62	24.5
3165.44	25.5
3166.26	26
3167.07	23
3167.89	23.5
3168.71	24
3169.53	25
3170.35	25.5
3171.16	25.5
3171.98	23
3172.8	27.5
3173.61	21
3174.43	22
3175.25	23.5
3176.06	20
3176.88	23
3177.7	20
3178.51	23
3179.33	26.5
3180.15	28
3180.96	24
3181.78	22
3182.59	23
3183.41	27.5
3184.22	25.5
3185.04	24
3185.85	22
3186.67	25.5
3187.49	25
3188.3	20.5
3189.12	23.5
3189.93	27
3190.74	21
3191.56	26
3192.37	23.5
3193.19	21.5
3194	26
3194.82	23
3195.63	23.5
3196.44	26
3197.26	20
3198.07	23
3198.88	23.5
3199.7	25
3200.51	23.5
3201.32	23
3202.14	22.5
3202.95	25
3203.76	20.5
3204.58	24.5
3205.39	24.5
3206.2	22.5
3207.01	25
3207.83	22
3208.64	25
3209.45	26
3210.26	20.5
3211.07	25.5
3211.88	24.5
3212.7	28.5
3213.51	22.5
3214.32	25
3215.13	28
3215.94	17
3216.75	25.5
3217.56	22
3218.37	23
3219.18	22.5
3220	25
3220.8	27.5
3221.62	22
3222.43	25
3223.24	23
3224.05	23
3224.86	23
3225.67	22
3226.47	22.5
3227.28	25.5
3228.09	25
3228.9	19
3229.71	24.5
3230.52	20.5
3231.33	22
3232.14	22
3232.95	26
3233.76	18.5
3234.56	19.5
3235.37	23
3236.18	25
3236.99	24.5
3237.8	23
3238.61	21.5
3239.41	22
3240.22	23
3241.03	24.5
3241.84	21.5
3242.64	22
3243.45	27.5
3244.26	25.5
3245.07	20
3245.87	24.5
3246.68	23
3247.49	26
3248.29	26
3249.1	23
3249.9	24.5
3250.71	27
3251.52	24.5
3252.32	22.5
3253.13	24
3253.93	20.5
3254.74	26
3255.55	24.5
3256.35	21
3257.16	21.5
3257.96	25.5
3258.77	22.5
3259.57	27.5
3260.38	26.5
3261.18	24.5
3261.99	24
3262.79	21
3263.6	24
3264.4	26
3265.2	24.5
3266.01	24
3266.81	21.5
3267.62	23
3268.42	24.5
3269.22	24.5
3270.03	23
3270.83	25
3271.63	26
3272.44	27
3273.24	21
3274.04	25
3274.85	25
3275.65	24
3276.45	23.5
3277.25	21.5
3278.06	22
3278.86	27.5
3279.66	22.5
3280.46	20.5
3281.26	19.5
3282.07	26
3282.87	26
3283.67	20.5
3284.47	30.5
3285.27	24.5
3286.07	25
3286.87	22.5
3287.68	25
3288.48	24
3289.28	19
3290.08	23.5
3290.88	23
3291.68	27
3292.48	23
3293.28	24.5
3294.08	22.5
3294.88	22
3295.68	22.5
3296.48	22
3297.28	22
3298.08	23
3298.88	25.5
3299.68	23
3300.48	24
3301.28	24
3302.08	28
3302.88	25
3303.67	21
3304.47	21
3305.27	23.5
3306.07	23
3306.87	27
3307.67	20
3308.46	24.5
3309.26	24.5
3310.06	27
3310.86	24
3311.66	25
3312.45	23.5
3313.25	25
3314.05	29
3314.85	24.5
3315.64	24
3316.44	20.5
3317.24	22.5
3318.03	23.5
3318.83	24
3319.63	24
3320.42	23
3321.22	25
3322.02	25
3322.81	19
3323.61	24
3324.4	26.5
3325.2	21
3326	20
3326.79	23.5
3327.59	19
3328.38	27
3329.18	20.5
3329.97	21.5
3330.77	25
3331.56	25.5
3332.36	24.5
3333.15	25
3333.95	25
3334.74	25
3335.54	22
3336.33	26.5
3337.13	23
3337.92	25
3338.71	21.5
3339.51	25
3340.3	24
3341.1	24.5
3341.89	20.5
3342.68	25.5
3343.48	25
3344.27	27.5
3345.06	22
3345.85	24
3346.65	29.5
3347.44	24
3348.23	24.5
3349.03	25
3349.82	24
3350.61	25
3351.4	23.5
3352.19	27
3352.99	25.5
3353.78	26
3354.57	23.5
3355.36	26.5
3356.15	25
3356.94	25.5
3357.74	25
3358.53	22.5
3359.32	24
3360.11	23
3360.9	26.5
3361.69	22.5
3362.48	23
3363.27	22
3364.06	25.5
3364.85	22
3365.64	23.5
3366.43	26.5
3367.22	20
3368.01	24
3368.8	22
3369.59	29
3370.38	26.5
3371.17	29.5
3371.96	25
3372.75	25.5
3373.54	24
3374.33	22
3375.12	21
3375.91	25
3376.69	25.5
3377.48	27
3378.27	23.5
3379.06	26
3379.85	25
3380.64	23
3381.42	25
3382.21	26
3383	23
3383.79	23.5
3384.58	23
3385.36	24
3386.15	26.5
3386.94	23
3387.73	25
3388.51	23.5
3389.3	21
3390.09	26
3390.87	23.5
3391.66	25
3392.45	27.5
3393.23	23.5
3394.02	24
3394.81	28
3395.59	21.5
3396.38	21.5
3397.16	25.5
3397.95	25
3398.74	23.5
3399.52	24.5
3400.31	22
3401.09	25
3401.88	25
3402.66	23.5
3403.45	27.5
3404.23	24.5
3405.02	27.5
3405.8	25
3406.59	25.5
3407.37	24
3408.15	25.5
3408.94	25
3409.72	24.5
3410.51	24.5
3411.29	21
3412.07	24.5
3412.86	25.5
3413.64	28
3414.42	25.5
3415.21	24
3415.99	23
3416.78	25
3417.56	24
3418.34	25
3419.12	22
3419.91	26
3420.69	22
3421.47	23.5
3422.25	23.5
3423.04	19
3423.82	24
3424.6	21.5
3425.38	24.5
3426.16	23.5
3426.95	25
3427.73	24
3428.51	26
3429.29	26.5
3430.07	20
3430.85	26
3431.63	23
3432.42	21
3433.2	24.5
3433.98	24.5
3434.76	23.5
3435.54	27.5
3436.32	21
3437.1	19
3437.88	25.5
3438.66	22
3439.44	26
3440.22	26
3441	25
3441.78	22
3442.56	24.5
3443.34	19.5
3444.12	26
3444.9	23
3445.68	28
3446.45	26
3447.23	24.5
3448.01	22
3448.79	23.5
3449.57	20
3450.35	25
3451.13	26.5
3451.91	23
3452.68	25
3453.46	25
3454.24	27
3455.02	25.5
3455.79	23.5
3456.57	22
3457.35	26.5
3458.13	24
3458.91	26
3459.68	24.5
3460.46	24.5
3461.24	23
3462.01	22
3462.79	23.5
3463.57	23
3464.34	23.5
3465.12	24
3465.9	23.5
3466.67	22.5
3467.45	24
3468.22	25
3469	25
3469.78	23
3470.55	24
3471.33	24.5
3472.1	24
3472.88	21
3473.65	22.5
3474.43	25.5
3475.2	25.5
3475.98	23
3476.75	23
3477.53	23
3478.3	18
3479.08	21.5
3479.85	26
3480.63	26
3481.4	25
3482.18	21.5
3482.95	23
3483.72	21
3484.5	26
3485.27	24
3486.04	26
3486.82	23.5
3487.59	20
3488.36	26
3489.14	24
3489.91	19
3490.68	21.5
3491.46	29.5
3492.23	20.5
3493	20
3493.77	27.5
3494.55	25
3495.32	26.5
3496.09	23.5
3496.86	25
3497.64	23.5
3498.41	23
3499.18	22.5
3499.95	24
