#Acq. time (s)=	5
#Accumulations=	5
#Range (cm-¹)=	100...3500
#Windows=	4
#Autofocus=	Off
#AutoExposure=	Off
#Spike filter=	Multiple accum.
#Delay time (s)=	0
#Binning=	1
#Readout mode=	Signal
#DeNoise=	Off
#ICS correction=	Off
#Dark correction=	Off
#Inst. Process=	Off
#Instrument=	LabRAM HR Evol
#Detector=	Syncerity OE
#Objective=	x100_VIS
#Grating=	600 (500nm)
#ND Filter=	25%
#Laser=	633nm_Edge
#Hole=	100.021
#Range=	Visible
#Project=	verificaciones
#Sample=	a2
#Site=	lined
#Title=	bolusa2lined
#Remark=	
#Date=	12.01.2026 15:22
#Acquired=	12.01.2026 15:22:51
100.666	22.5
101.95	29.5
103.233	27.5
104.516	33
105.799	31.5
107.083	24
108.365	25
109.648	27
110.93	23
112.212	24
113.493	28
114.775	26.5
116.056	29
117.337	30
118.618	26
119.898	26
121.178	28
122.459	29.5
123.739	25
125.018	26
126.298	26.5
127.577	31
128.856	25
130.135	24.5
131.414	29
132.692	29
133.971	24.5
135.249	27.5
136.525	28
137.803	27
139.08	24.5
140.357	30
141.634	29.5
142.911	29
144.188	27
145.464	23
146.74	29
148.015	27.5
149.291	28.5
150.566	29
151.842	31.5
153.117	30.5
154.392	27.5
155.665	31.5
156.939	30.5
158.214	27
159.488	26.5
160.76	27.5
162.034	31.5
163.307	32.5
164.581	28.5
165.854	29
167.125	26
168.398	26
169.67	28.5
170.941	31.5
172.213	26.5
173.485	27
174.756	25.5
176.026	28
177.298	22
178.569	33.5
179.838	27
181.109	26.5
182.379	28.5
183.648	31
184.918	26.5
186.187	28.5
187.455	26
188.725	32
189.992	28
191.261	33.5
192.53	30
193.797	24.5
195.065	29.5
196.332	26
197.6	28.5
198.866	29
200.134	30
201.401	25
202.667	28
203.933	31.5
205.199	26.5
206.465	28.5
207.73	30
208.996	28
210.26	27
211.526	26.5
212.79	27.5
214.055	31
215.319	29.5
216.582	24.5
217.847	29.5
219.11	26
220.374	31
221.636	26
222.9	30
224.162	27
225.424	25
226.687	26.5
227.949	24.5
229.212	22.5
230.473	24.5
231.734	25
232.996	23
234.256	26.5
235.517	25
236.778	28.5
238.038	27
239.298	26
240.559	25
241.818	28
243.077	29.5
244.337	25
245.596	27.5
246.854	28
248.113	24
249.372	26
250.63	28
251.887	26
253.145	24.5
254.404	29
255.661	22
256.917	28
258.174	28.5
259.432	27
260.688	27
261.944	24.5
263.2	27
264.456	30
265.711	28
266.968	23.5
268.223	25
269.477	23
270.732	31.5
271.986	28.5
273.24	25.5
274.494	29
275.748	24
277.003	27.5
278.257	28.5
279.51	28
280.763	22
282.015	26
283.268	26
284.52	27.5
285.773	25
287.024	25.5
288.276	30
289.528	28.5
290.779	27
292.03	26
293.281	24
294.532	27.5
295.782	28
297.033	26.5
298.283	29
299.533	23.5
300.783	29
302.032	25.5
303.281	28
304.531	28
305.78	21
307.028	24.5
308.275	27
309.524	27
310.772	29.5
312.02	21
313.267	26
314.515	23
315.762	23
317.009	27.5
318.255	26.5
319.501	24.5
320.748	25.5
321.994	24.5
323.24	27.5
324.486	28.5
325.731	27.5
326.976	23.5
328.221	26
329.466	26
330.71	24.5
331.955	26.5
333.199	26
334.443	24
335.686	25
336.93	29.5
338.174	24.5
339.417	28.5
340.659	26
341.902	25
343.145	27.5
344.386	28
345.629	24
346.871	23.5
348.112	27.5
349.354	28
350.595	26.5
351.836	27
353.077	24.5
354.318	29.5
355.557	26.5
356.798	27
358.037	28.5
359.277	30
360.518	28.5
361.756	28.5
362.996	26
364.234	25
365.473	30
366.711	27
367.95	30
369.187	24
370.426	23
371.662	28
372.901	26
374.137	24
375.375	27.5
376.611	26
377.848	28
379.084	25
380.321	29
381.556	28.5
382.793	26.5
384.027	26
385.264	26.5
386.498	23.5
387.732	22
388.968	29
390.202	25
391.437	26.5
392.671	26
393.904	30
395.138	32
396.371	27.5
397.604	29
398.838	30.5
400.07	30.5
401.302	28.5
402.536	23.5
403.768	27
404.999	27.5
406.232	25
407.463	23.5
408.694	26
409.925	27
411.157	27
412.387	28
413.617	28
414.847	28
416.078	25.5
417.308	26.5
418.537	27.5
419.767	25.5
420.997	27.5
422.226	27
423.454	29.5
424.683	28
425.911	27.5
427.139	29
428.368	28
429.596	25
430.823	26.5
432.05	27.5
433.277	28.5
434.504	26
435.731	22
436.957	24.5
438.185	29
439.411	27.5
440.637	27
441.862	25
443.088	31.5
444.313	28.5
445.538	25
446.763	27
447.988	29.5
449.212	26
450.436	25.5
451.661	27
452.884	25
454.108	29
455.332	27
456.555	29
457.778	28
459.001	26
460.224	23.5
461.446	28.5
462.668	27.5
463.891	27
465.111	27
466.333	27.5
467.554	26.5
468.776	30.5
469.997	30.5
471.218	27
472.439	28
473.659	24
474.878	29.5
476.098	28.5
477.318	29
478.538	28.5
479.758	27
480.977	31.5
482.195	29.5
483.414	33.5
484.633	30.5
485.851	31.5
487.07	29
488.287	31
489.505	31
490.723	32
491.94	33.5
493.156	30.5
494.374	31
495.591	30
496.806	35
498.023	30.5
499.239	28.5
500.456	32.5
501.67	29.5
502.886	27.5
504.102	31
505.316	26.5
506.531	28.5
507.745	26.5
508.96	27.5
510.175	30.5
511.388	25.5
512.602	26
513.815	27
515.029	26.5
516.243	30.5
517.455	27
518.669	26
519.88	27
521.093	24
522.305	26.5
523.518	23
524.729	32
525.941	24.5
527.151	29
528.363	26
529.574	27.5
530.785	26
531.995	30.5
533.206	25
534.416	31
535.626	24
536.835	27.5
538.046	29.5
539.254	30
540.463	27
541.673	27
542.881	26
544.09	29.5
545.298	26.5
546.506	26.5
547.714	29
548.922	25
550.13	31
551.337	27
552.544	26.5
553.751	32
554.958	25.5
556.164	29
557.37	28.5
558.577	28
559.782	21.5
560.987	26.5
562.194	28
563.399	24
564.604	30.5
565.808	28
567.014	28.5
568.218	25.5
569.422	26.5
570.626	28
571.829	28.5
573.034	28.5
574.237	23
575.44	27
576.643	27
577.846	26.5
579.048	27.5
580.252	28
581.454	24.5
582.656	24
583.857	29
585.059	27
586.26	25.5
587.461	27.5
588.662	24.5
589.863	28
591.065	30
592.265	24.5
593.465	29
594.665	26
595.865	30
597.065	31.5
598.264	21
599.463	29.5
600.662	23.5
601.861	26
603.06	26.5
604.258	29.5
605.457	24.5
606.655	27
607.853	28
609.05	24
610.248	28.5
611.444	30
612.641	26.5
613.838	27
615.034	26.5
616.231	29.5
617.427	29.5
618.624	24.5
619.82	27
621.015	27
622.21	24
623.405	28.5
624.6	26.5
625.795	24
626.99	23
628.185	27
629.378	25.5
630.572	28
631.766	27
632.96	23
634.154	23.5
635.346	32.5
636.54	30.5
637.733	29
638.926	27
640.117	26
641.31	27.5
642.502	21
643.693	27
644.885	25
646.077	30.5
647.267	28
648.459	29
649.65	25.5
650.84	31
652.031	27.5
653.222	27.5
654.411	29
655.601	26.5
656.791	32
657.98	28.5
659.17	28.5
660.358	28.5
661.547	28
662.737	30
663.924	25
665.113	28.5
666.3	30.5
667.489	27.5
668.676	30
669.864	31
671.05	27
672.238	28
673.424	30
674.612	26
675.798	31
676.985	26
678.17	27.5
679.357	30.5
680.542	29.5
681.728	30
682.913	28
684.097	24
685.283	30.5
686.467	30
687.652	26.5
688.836	30
690.02	23
691.205	31
692.388	25
693.571	31
694.755	31.5
695.938	27
697.12	30
698.304	29
699.486	30.5
700.668	28.5
701.851	28.5
703.032	31
704.214	28.5
705.395	30.5
706.577	29
707.758	33
708.939	33.5
710.119	29
711.301	30
712.481	31
713.661	32
714.84	32.5
716.02	30
717.201	28.5
718.38	29
719.559	26.5
720.737	24.5
721.916	26.5
723.094	29
724.274	28
725.452	25.5
726.63	26
727.808	23
728.985	28
730.162	28.5
731.339	26.5
732.516	26.5
733.693	28
734.87	29
736.046	26.5
737.222	27
738.398	27
739.574	28.5
740.75	27.5
741.925	28
743.1	28.5
744.276	31
745.45	25.5
746.625	29.5
747.8	30.5
748.974	25
750.148	28
751.322	28.5
752.496	28
753.67	29.5
754.843	28
756.016	29
757.189	27.5
758.362	28
759.534	26.5
760.706	30.5
761.878	26
763.051	28.5
764.223	27.5
765.394	26
766.565	30.5
767.736	24
768.907	29
770.078	25
771.249	28
772.419	26
773.589	27.5
774.759	26.5
775.93	30.5
777.098	27.5
778.268	29.5
779.438	28
780.607	30
781.775	29.5
782.944	26.5
784.113	26.5
785.28	23
786.449	28.5
787.617	27
788.784	28
789.952	27.5
791.12	28
792.286	27
793.453	28
794.62	27
795.786	28
796.953	30
798.118	29
799.285	29
800.45	23.5
801.616	28
802.782	28.5
803.946	25
805.112	26
806.276	29
807.441	26
808.605	29.5
809.77	30.5
810.933	26.5
812.098	28.5
813.261	27.5
814.425	25.5
815.588	25
816.75	28
817.914	26
819.076	26.5
820.239	28
821.401	23.5
822.564	28.5
823.725	27
824.886	28.5
826.048	29.5
827.209	28
828.37	24
829.532	25
830.692	24.5
831.852	34
833.013	29.5
834.173	27.5
835.333	30.5
836.493	27
837.653	31
838.812	27.5
839.972	27.5
841.13	26.5
842.289	25.5
843.447	25.5
844.607	29.5
845.765	26
846.922	26.5
848.08	26
849.237	26
850.396	23
851.553	25.5
852.71	30.5
853.867	27
855.023	22.5
856.179	26.5
857.337	26.5
858.493	28.5
859.649	27
860.804	25.5
861.96	27.5
863.115	26.5
864.27	26
865.425	22.5
866.58	31.5
867.734	25
868.888	26
870.043	23
871.197	30
872.35	27
873.504	29
874.658	29
875.811	28.5
876.964	26
878.117	27
879.27	28
880.422	28.5
881.575	27.5
882.727	28.5
883.879	27
885.031	25
886.182	25
887.334	23
888.485	24.5
889.636	25
890.787	28.5
891.937	29
893.088	26
894.238	26.5
895.388	28
896.538	29
897.688	28.5
898.837	26.5
899.986	24.5
901.136	25.5
902.285	23
903.434	25
904.581	26.5
905.73	28
906.878	24
908.027	28.5
909.174	25
910.321	24.5
911.469	26
912.617	30
913.763	29
914.91	26.5
916.057	26
917.203	26
918.35	30
919.496	27.5
920.641	23.5
921.787	22.5
922.933	27
924.078	26
925.224	30
926.368	21.5
927.513	24
928.658	25.5
929.802	25
930.946	25.5
932.09	26
933.234	23.5
934.377	26.5
935.521	25.5
936.664	29
937.807	24
938.95	26
940.093	25.5
941.235	26
942.378	24.5
943.519	26
944.662	24
945.803	26
946.946	25
948.086	30
949.227	22.5
950.369	28.5
951.509	26.5
952.651	26.5
953.79	27.5
954.93	23.5
956.071	26
957.211	27
958.35	27.5
959.49	25.5
960.629	24.5
961.768	23
962.908	26
964.046	25
965.184	25
966.323	27.5
967.461	23
968.599	24
969.736	25
970.875	27
972.012	26.5
973.149	26.5
974.286	25.5
975.424	30
976.56	23.5
977.697	25.5
978.833	26.5
979.969	26
981.104	24
982.241	29
983.377	25.5
984.512	29.5
985.647	26.5
986.782	24.5
987.916	28.5
989.051	23.5
990.185	32.5
991.321	27
992.455	26
993.589	22
994.722	30.5
995.856	24
996.989	21.5
998.122	28
999.255	22.5
1000.39	27
1001.52	27.5
1002.65	21
1003.79	28
1004.92	22
1006.05	27.5
1007.18	24.5
1008.31	24
1009.44	26.5
1010.57	22
1011.7	26.5
1012.84	29
1013.97	26
1015.1	24.5
1016.23	26
1017.36	26
1018.49	25
1019.62	26
1020.75	25.5
1021.88	26.5
1023	26
1024.13	27.5
1025.26	22
1026.39	25
1027.52	27
1028.65	28
1029.78	26
1030.9	27
1032.03	25
1033.16	25
1034.29	27
1035.41	25
1036.54	25
1037.67	25
1038.79	25
1039.92	23
1041.04	26
1042.17	26
1043.3	26
1044.42	26.5
1045.55	29.5
1046.67	24
1047.8	26
1048.92	23
1050.05	24
1051.17	27.5
1052.3	25
1053.42	25
1054.54	25
1055.67	22.5
1056.79	23
1057.91	28
1059.04	26
1060.16	26.5
1061.28	25.5
1062.41	25
1063.53	27
1064.65	25
1065.77	23
1066.9	25.5
1068.02	22
1069.14	28.5
1070.26	22
1071.38	25
1072.5	24.5
1073.62	27
1074.74	25
1075.86	25
1076.98	23
1078.1	29
1079.22	24
1080.34	27
1081.46	21.5
1082.58	23.5
1083.7	23
1084.82	28
1085.94	22
1087.06	28
1088.18	22
1089.29	28.5
1090.41	23
1091.53	26.5
1092.65	26.5
1093.77	26
1094.88	26
1096	26.5
1097.12	26.5
1098.23	25.5
1099.35	22.5
1100.47	24
1101.58	23.5
1102.7	24
1103.82	27
1104.93	28.5
1106.05	27.5
1107.16	29
1108.28	28.5
1109.39	25.5
1110.51	23.5
1111.62	29
1112.74	23
1113.85	19
1114.96	28.5
1116.08	23.5
1117.19	26
1118.31	30.5
1119.42	29
1120.53	24.5
1121.65	27.5
1122.76	25
1123.87	23
1124.98	25
1126.1	24.5
1127.21	26
1128.32	24
1129.43	24
1130.54	26
1131.65	26
1132.76	26
1133.88	23.5
1134.99	28.5
1136.1	26.5
1137.21	21
1138.32	24
1139.43	24
1140.54	25.5
1141.65	25
1142.76	25.5
1143.87	25
1144.98	25.5
1146.08	23.5
1147.19	28
1148.3	25
1149.41	26.5
1150.52	28
1151.63	25.5
1152.73	27.5
1153.84	27
1154.95	28
1156.06	21.5
1157.17	25.5
1158.27	25.5
1159.38	21.5
1160.49	20.5
1161.59	24.5
1162.7	22.5
1163.8	28.5
1164.91	25
1166.02	26.5
1167.12	26
1168.23	26
1169.33	23.5
1170.44	24.5
1171.54	26
1172.65	25
1173.75	25.5
1174.86	29.5
1175.96	26
1177.06	20
1178.17	24
1179.27	26.5
1180.37	23
1181.48	26.5
1182.58	24
1183.68	25
1184.79	25
1185.89	25.5
1186.99	27
1188.09	23
1189.2	26
1190.3	22.5
1191.4	25.5
1192.5	26.5
1193.6	26
1194.7	22.4984
1195.8	18.5279
1196.9	23.0752
1198.01	24.0817
1199.11	25.019
1200.21	22.0583
1201.31	25.8366
1202.41	22.0728
1203.5	25.3215
1204.6	24.5688
1205.7	22.3935
1206.8	19.8349
1207.9	24.3117
1209	26.331
1210.1	24.779
1211.2	22.949
1212.3	22.232
1213.39	23.8515
1214.49	23.1472
1215.59	24.1214
1216.69	24.0685
1217.78	25.1129
1218.88	23.5785
1219.98	23.7349
1221.08	25.5752
1222.17	23.2585
1223.27	25.3073
1224.37	24.0962
1225.46	25.0417
1226.56	26.915
1227.65	23.1756
1228.75	23.4746
1229.84	25.9127
1230.94	26.1467
1232.03	23.3526
1233.13	26.1013
1234.22	22.7062
1235.32	22.511
1236.41	22.8923
1237.51	23.3384
1238.6	23.7714
1239.69	25.2125
1240.79	27.3155
1241.88	23.9223
1242.97	22.5121
1244.07	26.8319
1245.16	21.6807
1246.25	23.3737
1247.35	24.0662
1248.44	22.9419
1249.53	24.2532
1250.62	22.5565
1251.71	21.0119
1252.81	23.4481
1253.9	26.2543
1254.99	24.8456
1256.08	24.3228
1257.17	24.6211
1258.26	24.0543
1259.35	24.6332
1260.44	22.786
1261.53	26.9647
1262.62	27.7183
1263.71	22.1838
1264.8	24.7442
1265.89	22.8631
1266.98	22.2624
1268.07	22.8485
1269.16	20.4471
1270.25	19.6033
1271.34	22.985
1272.43	22.9764
1273.52	22.8819
1274.6	24.1525
1275.69	25.6529
1276.78	24.4754
1277.87	26.2026
1278.95	23.8727
1280.04	24.254
1281.13	24.1369
1282.22	29.3662
1283.3	23.2562
1284.39	24.2445
1285.48	26.5064
1286.56	26.1841
1287.65	25.603
1288.73	23.0104
1289.82	23.2001
1290.91	24.6545
1291.99	23.4212
1293.08	22.3473
1294.16	24.8397
1295.24	26.2906
1296.33	24.0052
1297.41	26.0564
1298.5	24.6588
1299.58	23.9733
1300.67	26.734
1301.75	24.0015
1302.83	24.2693
1303.92	24.3444
1305	25.044
1306.08	23.3639
1306.4	22.5
1307.49	23
1308.58	24.5
1309.66	28
1310.75	22
1311.84	22
1312.93	24
1314.01	22.5
1315.1	24
1316.19	24.5
1317.27	27
1318.36	25
1319.45	23.5
1320.53	24.5
1321.62	24
1322.71	27
1323.79	21.5
1324.88	21.5
1325.96	24.5
1327.05	20
1328.13	28.5
1329.22	23
1330.3	25.5
1331.39	27
1332.47	25
1333.55	23
1334.64	29
1335.72	26.5
1336.81	21
1337.89	22
1338.97	27
1340.06	22
1341.14	22
1342.22	30.5
1343.3	25
1344.39	21
1345.47	22
1346.55	23.5
1347.63	23
1348.71	23
1349.8	27
1350.88	25.5
1351.96	24.5
1353.04	21
1354.12	23.5
1355.2	24
1356.28	23
1357.36	23.5
1358.44	29
1359.52	27.5
1360.6	24
1361.68	29.5
1362.76	22.5
1363.84	23
1364.92	23.5
1366	26.5
1367.08	24
1368.16	24.5
1369.23	25
1370.31	23
1371.39	24
1372.47	24.5
1373.55	24
1374.62	28
1375.7	24
1376.78	21
1377.86	25
1378.93	27
1380.01	25.5
1381.09	23.5
1382.16	25
1383.24	25.5
1384.32	26
1385.39	24.5
1386.47	21
1387.54	25
1388.62	21
1389.69	25.5
1390.77	26
1391.84	23
1392.92	25
1393.99	23
1395.07	24
1396.14	23
1397.21	24.5
1398.29	24.5
1399.36	30
1400.44	23.5
1401.51	28
1402.58	24
1403.66	27
1404.73	25
1405.8	22.5
1406.87	21.5
1407.95	24.5
1409.02	24
1410.09	23
1411.16	27
1412.23	27
1413.3	26.5
1414.38	28
1415.45	27
1416.52	25.5
1417.59	26.5
1418.66	26.5
1419.73	25.5
1420.8	27.5
1421.87	26.5
1422.94	26
1424.01	26.5
1425.08	22
1426.15	24.5
1427.22	26
1428.29	23
1429.36	24
1430.43	24.5
1431.49	22
1432.56	22
1433.63	27
1434.7	22.5
1435.77	23.5
1436.83	24
1437.9	29
1438.97	26.5
1440.04	21
1441.1	27.5
1442.17	26
1443.24	23
1444.3	21
1445.37	27
1446.44	26.5
1447.5	25
1448.57	29
1449.63	26
1450.7	25.5
1451.77	21.5
1452.83	23.5
1453.9	23.5
1454.96	26.5
1456.03	27
1457.09	22
1458.15	26
1459.22	23.5
1460.28	28
1461.35	26.5
1462.41	25.5
1463.47	26.5
1464.54	18
1465.6	27
1466.66	26
1467.73	30.5
1468.79	23.5
1469.85	27
1470.91	24
1471.98	24.5
1473.04	19
1474.1	27
1475.16	24.5
1476.22	27
1477.28	23
1478.35	24
1479.41	26.5
1480.47	24
1481.53	25
1482.59	26.5
1483.65	25.5
1484.71	25.5
1485.77	24.5
1486.83	21.5
1487.89	24
1488.95	26.5
1490.01	28
1491.07	25
1492.13	23.5
1493.18	25
1494.24	25
1495.3	22
1496.36	24
1497.42	25.5
1498.48	24
1499.53	24
1500.59	26.5
1501.65	26
1502.71	26
1503.76	20.5
1504.82	24.5
1505.88	21
1506.93	28.5
1507.99	23.5
1509.05	21
1510.1	22
1511.16	28.5
1512.21	22.5
1513.27	28.5
1514.33	26
1515.38	27
1516.44	28
1517.49	23.5
1518.55	22.5
1519.6	23.5
1520.66	24
1521.71	26.5
1522.76	25
1523.82	29.5
1524.87	27
1525.93	26.5
1526.98	25
1528.03	22.5
1529.08	21.5
1530.14	23
1531.19	23
1532.24	26
1533.3	23
1534.35	27.5
1535.4	25.5
1536.45	24
1537.5	25
1538.56	22
1539.61	26
1540.66	24
1541.71	24
1542.76	29.5
1543.81	25.5
1544.86	24
1545.91	28.5
1546.96	24
1548.01	24.5
1549.06	24
1550.11	21
1551.16	22
1552.21	25
1553.26	25.5
1554.31	22
1555.36	20.5
1556.41	23.5
1557.46	23
1558.51	21
1559.56	24
1560.6	29
1561.65	26
1562.7	24.5
1563.75	23
1564.79	25
1565.84	24
1566.89	26.5
1567.94	23
1568.98	21.5
1570.03	22
1571.08	22.5
1572.12	22
1573.17	27.5
1574.22	22.5
1575.26	30.5
1576.31	25
1577.35	24.5
1578.4	25.5
1579.44	25
1580.49	24
1581.53	27
1582.58	27
1583.62	26
1584.67	22.5
1585.71	24.5
1586.76	24.5
1587.8	25.5
1588.84	24
1589.89	21.5
1590.93	28
1591.97	24
1593.02	26.5
1594.06	26
1595.1	24
1596.14	22
1597.19	25.5
1598.23	23
1599.27	26.5
1600.31	25
1601.36	23
1602.4	24
1603.44	25
1604.48	26.5
1605.52	27
1606.56	25
1607.6	23.5
1608.64	25.5
1609.68	23.5
1610.72	21.5
1611.76	24
1612.81	25.5
1613.84	26
1614.88	25.5
1615.92	25
1616.96	22.5
1618	24.5
1619.04	21
1620.08	25.5
1621.12	24
1622.16	23.5
1623.2	25
1624.23	27.5
1625.27	25.5
1626.31	26
1627.35	25
1628.39	24
1629.42	26
1630.46	26.5
1631.5	26
1632.53	24.5
1633.57	22.5
1634.61	27.5
1635.64	24
1636.68	25.5
1637.72	26.5
1638.75	27
1639.79	25
1640.82	23
1641.86	26
1642.89	23
1643.93	26
1644.96	24
1646	26
1647.03	22
1648.07	25.5
1649.1	23
1650.14	29
1651.17	23
1652.21	29
1653.24	23.5
1654.27	26
1655.31	27.5
1656.34	22.5
1657.37	28.5
1658.41	27
1659.44	23
1660.47	21
1661.5	25.5
1662.53	26
1663.57	27
1664.6	24.5
1665.63	23
1666.66	26.5
1667.69	25.5
1668.72	21.5
1669.76	26.5
1670.79	21
1671.82	23
1672.85	24.5
1673.88	24
1674.91	24
1675.94	23.5
1676.97	27.5
1678	24
1679.03	25
1680.06	24.5
1681.09	24.5
1682.12	27
1683.15	25
1684.17	26
1685.2	25
1686.23	25.5
1687.26	23.5
1688.29	24
1689.32	24.5
1690.34	24
1691.37	26.5
1692.4	27
1693.43	25
1694.45	29
1695.48	22
1696.51	24
1697.54	23.5
1698.56	30.5
1699.59	23
1700.61	23.5
1701.64	26
1702.67	21.5
1703.69	22
1704.72	22
1705.74	25.5
1706.77	18.5
1707.79	26.5
1708.82	26.5
1709.84	26.5
1710.87	24
1711.89	26.5
1712.92	24
1713.94	27
1714.97	21
1715.99	25
1717.01	28
1718.04	25
1719.06	23.5
1720.08	29.5
1721.11	25.5
1722.13	22.5
1723.15	26
1724.18	24
1725.2	27
1726.22	28
1727.24	28.5
1728.26	26
1729.29	23
1730.31	28
1731.33	23
1732.35	24
1733.37	24
1734.39	22
1735.41	22.5
1736.43	23.5
1737.45	25
1738.47	26
1739.5	27
1740.52	22
1741.53	24
1742.55	22.5
1743.57	28
1744.59	26
1745.61	26
1746.63	26.5
1747.65	26
1748.67	22.5
1749.69	25
1750.71	24.5
1751.72	21
1752.74	26
1753.76	27
1754.78	28
1755.8	26.5
1756.81	24
1757.83	28.5
1758.85	22.5
1759.87	25
1760.88	29
1761.9	28
1762.92	23
1763.93	27.5
1764.95	22.5
1765.96	25
1766.98	23.5
1768	26.5
1769.01	27.5
1770.03	26.5
1771.04	27
1772.06	18.5
1773.07	27
1774.09	23.5
1775.1	26
1776.12	26
1777.13	27
1778.15	26.5
1779.16	23.5
1780.17	26
1781.19	27.5
1782.2	26.5
1783.21	24
1784.23	28
1785.24	23
1786.25	24.5
1787.27	27
1788.28	25
1789.29	27
1790.3	26.5
1791.32	21
1792.33	26.5
1793.34	26.5
1794.35	25
1795.36	24
1796.38	22
1797.39	21.5
1798.4	22.5
1799.41	24
1800.42	25
1801.43	24.5
1802.44	24
1803.45	28.5
1804.46	26.5
1805.47	25.5
1806.48	24.5
1807.49	25.5
1808.5	24
1809.51	25.5
1810.52	25.5
1811.53	26
1812.53	27.5
1813.54	25
1814.55	25
1815.56	21
1816.57	27
1817.58	24
1818.59	26.5
1819.59	27
1820.6	28
1821.61	27
1822.62	22
1823.62	25.5
1824.63	24
1825.64	21
1826.64	27
1827.65	22
1828.66	25
1829.66	27
1830.67	27
1831.67	26
1832.68	21
1833.69	24
1834.69	21
1835.7	22
1836.7	28
1837.71	23
1838.71	28
1839.72	24
1840.72	25
1841.72	22
1842.73	25
1843.73	23
1844.74	23
1845.74	26
1846.74	27
1847.75	25.5
1848.75	27.5
1849.75	24
1850.76	28.5
1851.76	25.5
1852.76	24
1853.76	25
1854.77	24.5
1855.77	24.5
1856.77	26
1857.77	24.5
1858.78	28.5
1859.78	24.5
1860.78	24.5
1861.78	24.5
1862.78	24.5
1863.78	22
1864.78	24.5
1865.78	22.5
1866.78	24.5
1867.78	27.5
1868.78	25.5
1869.78	27
1870.78	29.5
1871.78	24.5
1872.78	22.5
1873.78	26
1874.78	25.5
1875.78	27
1876.78	25
1877.78	26.5
1878.78	25
1879.78	24
1880.77	26.5
1881.77	21
1882.77	27
1883.77	28
1884.77	22
1885.76	27
1886.76	27
1887.76	26
1888.75	25
1889.75	22.5
1890.75	21
1891.74	26
1892.74	24.5
1893.74	25
1894.73	25.5
1895.73	25
1896.73	22.5
1897.72	25.5
1898.72	23.5
1899.71	22.5
1900.71	26
1901.7	25.5
1902.7	22.5
1903.69	25
1904.69	16.5
1905.68	24.5
1906.68	26
1907.67	26
1908.66	29
1909.66	30
1910.65	26.5
1911.64	25
1912.64	26.5
1913.63	23
1914.62	24
1915.62	27.5
1916.61	20.5
1917.6	25
1918.6	25.5
1919.59	23
1920.58	30.5
1921.57	25
1922.56	23
1923.55	26.5
1924.55	24.5
1925.54	23
1926.53	25
1927.52	25
1928.51	25.5
1929.5	22
1930.49	25.5
1931.48	24
1932.47	24
1933.46	25
1934.45	24
1935.44	23
1936.43	26
1937.42	21
1938.41	26.5
1939.4	24
1940.39	24.5
1941.38	25.5
1942.37	23.5
1943.36	25
1944.35	24.5
1945.33	20
1946.32	24
1947.31	26
1948.3	27
1949.29	27.5
1950.27	24.5
1951.26	22
1952.25	27.5
1953.24	27
1954.22	25
1955.21	24
1956.2	27
1957.18	22.5
1958.17	27.5
1959.16	26
1960.14	24
1961.13	26
1962.11	26.5
1963.1	25.5
1964.08	23.5
1965.07	22
1966.05	24
1967.04	23
1968.02	21
1969.01	27.5
1969.99	25.5
1970.98	21
1971.96	22
1972.95	20.5
1973.93	23
1974.91	24
1975.9	24
1976.88	25
1977.86	24.5
1978.85	22
1979.83	26
1980.81	27
1981.8	24.5
1982.78	25.5
1983.76	26.5
1984.74	25
1985.73	29.5
1986.71	25.5
1987.69	23.5
1988.67	27
1989.65	23
1990.63	28
1991.62	22.5
1992.6	24.5
1993.58	27
1994.56	25.5
1995.54	23.5
1996.52	24.5
1997.5	23.5
1998.48	26
1999.46	22
2000.44	28.5
2001.42	20
2002.4	25
2003.38	23
2004.36	22
2005.34	20.5
2006.32	22
2007.29	24.5
2008.27	24
2009.25	23.5
2010.23	23
2011.21	22.5
2012.19	26
2013.17	26.5
2014.14	25.5
2015.12	23.5
2016.1	25.5
2017.07	20
2018.05	23.5
2019.03	24
2020.01	24
2020.98	24.5
2021.96	24.5
2022.94	22.5
2023.91	20
2024.89	28.5
2025.86	25.5
2026.84	24.5
2027.82	26
2028.79	26
2029.77	25
2030.74	27
2031.72	23
2032.69	23.5
2033.67	22.5
2034.64	20
2035.62	24
2036.59	23
2037.56	20
2038.54	25
2039.51	25
2040.49	25
2041.46	24
2042.43	20
2043.41	24
2044.38	21.5
2045.35	24
2046.32	22
2047.3	20
2048.27	25
2049.24	26
2050.21	21
2051.19	23.5
2052.16	26.5
2053.13	25.5
2054.1	24
2055.07	21
2056.05	23
2057.02	23
2057.99	24.5
2058.96	24.5
2059.93	22
2060.9	22
2061.87	25
2062.84	22
2063.81	22.5
2064.78	23
2065.75	22
2066.72	21.5
2067.69	22
2068.66	24
2069.63	23
2070.6	23.5
2071.57	24.5
2072.54	21
2073.5	26
2074.47	24
2075.44	22.5
2076.41	26.5
2077.38	26.5
2078.35	24.5
2079.31	25.5
2080.28	24.5
2081.25	24.5
2082.22	21.5
2083.18	23.5
2084.15	30
2085.12	20
2086.08	26
2087.05	24
2088.02	23
2088.98	25.5
2089.95	24
2090.92	26.5
2091.88	21.5
2092.85	24
2093.81	24.5
2094.78	23
2095.74	25.5
2096.71	21
2097.67	28
2098.64	21.5
2099.6	25
2100.57	23
2101.53	21.5
2102.5	23.5
2103.46	21
2104.42	20.5
2105.39	28
2106.35	24
2107.32	23.5
2108.28	23
2109.24	23
2110.21	23.5
2111.17	24
2112.13	24
2113.09	24
2114.06	23.5
2115.02	21
2115.98	21.5
2116.94	25
2117.91	25
2118.87	26
2119.83	23
2120.79	27
2121.75	22
2122.71	25
2123.67	24.5
2124.63	24.5
2125.6	20.5
2126.56	22
2127.52	24
2128.48	22
2129.44	20.5
2130.4	22
2131.36	22
2132.32	23
2133.28	22
2134.23	25
2135.19	23.5
2136.15	25
2137.11	24
2138.07	19.5
2139.03	25
2139.99	19
2140.95	22.5
2141.9	23.5
2142.86	24.9721
2143.82	22.93
2144.78	22.5397
2145.74	22.0805
2146.69	25.4005
2147.65	19.6344
2148.61	22.6342
2149.57	18.3384
2150.52	22.2345
2151.48	23.084
2152.44	23.1144
2153.39	21.8463
2154.35	24.4203
2155.31	23.6864
2156.26	23.2299
2157.22	20.8955
2158.17	20.5806
2159.13	19.3821
2160.08	22.2371
2161.04	24.4668
2161.99	25.1268
2162.95	25.6546
2163.91	22.526
2164.86	23.3545
2165.81	24.1677
2166.77	24.2192
2167.72	19.0857
2168.68	23.6271
2169.63	20.5534
2170.58	24.2736
2171.54	22.8661
2172.49	23.1013
2173.45	24.5241
2174.4	22.3617
2175.35	22.7323
2176.31	21.3801
2177.26	24.5793
2178.21	23.6919
2179.16	20.5999
2180.12	24.4524
2181.07	23.1975
2182.02	23.5847
2182.97	24.6544
2183.92	23.3808
2184.88	22.4579
2185.83	21.5698
2186.78	22.0592
2187.73	23.935
2188.68	23.4061
2189.63	22.0175
2190.58	22.4259
2191.53	21.5107
2192.49	22.2755
2193.43	22.9972
2194.39	20.3936
2195.34	23.4992
2196.28	20.6101
2197.24	24.4841
2198.19	21.4206
2199.13	21.3947
2200.08	21.4369
2201.03	23.0353
2201.98	23.9892
2202.93	19.8198
2203.88	22.8526
2204.83	23.5619
2205.78	23.9649
2206.73	20.8475
2207.67	23.1329
2208.62	22.2469
2209.57	20.8133
2210.52	21.7362
2211.47	21.4442
2212.41	18.8453
2213.36	21.5015
2214.31	23.1424
2215.26	25.3959
2216.2	23.0454
2217.15	22.9014
2218.1	22.3897
2219.04	22.5461
2219.99	22.7306
2220.93	21.9005
2221.88	22.1893
2222.83	20.7835
2223.77	22.971
2224.72	20.6735
2225.66	17.5425
2226.61	21.419
2227.55	25.0217
2228.5	22.3326
2229.44	23.6458
2230.39	20.5248
2231.33	22.2904
2232.28	22.3393
2233.22	25.6085
2234.17	21.0135
2235.11	21.5676
2236.06	22.6791
2237	24.1721
2237.94	21.0427
2238.89	20.7729
2239.83	22.1586
2240.06	22.5
2241.01	21.5
2241.96	25
2242.9	24.5
2243.85	20
2244.8	22
2245.75	22.5
2246.69	25
2247.64	20
2248.59	24.5
2249.53	20.5
2250.48	18
2251.43	21.5
2252.37	24.5
2253.32	21.5
2254.27	22
2255.21	18.5
2256.16	24.5
2257.1	25
2258.05	20
2259	22
2259.94	22
2260.89	21.5
2261.83	22
2262.78	24
2263.72	23
2264.67	21.5
2265.61	26.5
2266.56	25.5
2267.5	27.5
2268.44	27.5
2269.39	20.5
2270.33	21.5
2271.27	24
2272.22	25.5
2273.16	25.5
2274.1	21.5
2275.05	24.5
2275.99	23.5
2276.93	20.5
2277.88	24.5
2278.82	22.5
2279.76	26.5
2280.7	20
2281.65	24.5
2282.59	23.5
2283.53	25
2284.47	25
2285.41	25
2286.35	22.5
2287.29	20.5
2288.24	22
2289.18	18
2290.12	23
2291.06	21
2292	23
2292.94	22
2293.88	17
2294.82	23
2295.76	23
2296.7	20.5
2297.64	20.5
2298.58	23
2299.52	23
2300.46	21
2301.4	25
2302.34	23
2303.28	24
2304.21	23
2305.15	22.5
2306.09	25
2307.03	24.5
2307.97	22.5
2308.91	22
2309.84	23
2310.78	23.5
2311.72	24
2312.66	19
2313.59	23
2314.53	25
2315.47	20
2316.4	23.5
2317.34	23.5
2318.28	25
2319.22	19.5
2320.15	21
2321.09	19.5
2322.02	28
2322.96	23
2323.89	23
2324.83	19.5
2325.77	21
2326.7	22
2327.64	24.5
2328.57	24
2329.51	24
2330.44	21
2331.38	24
2332.31	23.5
2333.25	25
2334.18	25
2335.11	21
2336.05	25
2336.98	24.5
2337.92	22
2338.85	18.5
2339.78	25
2340.72	22.5
2341.65	21.5
2342.58	22.5
2343.52	23.5
2344.45	22
2345.38	24
2346.31	23.5
2347.25	23
2348.18	22.5
2349.11	25.5
2350.04	19
2350.97	24
2351.9	20.5
2352.84	21.5
2353.77	24.5
2354.7	20
2355.63	23.5
2356.56	22
2357.49	20
2358.42	20
2359.35	25.5
2360.28	23
2361.21	20
2362.14	22.5
2363.07	22
2364	24
2364.93	21.5
2365.86	27.5
2366.79	22.5
2367.72	19.5
2368.65	25
2369.58	21
2370.51	23
2371.44	22
2372.36	24
2373.29	22
2374.22	25
2375.15	26.5
2376.08	24.5
2377.01	23.5
2377.93	20.5
2378.86	21.5
2379.79	21.5
2380.72	25
2381.64	19.5
2382.57	24.5
2383.5	24
2384.42	24
2385.35	24.5
2386.28	25
2387.2	21
2388.13	19.5
2389.06	23.5
2389.98	21.5
2390.91	22.5
2391.83	23.5
2392.76	23
2393.69	21
2394.61	24
2395.54	22.5
2396.46	19.5
2397.39	21
2398.31	22.5
2399.23	25.5
2400.16	23.5
2401.08	21
2402.01	29.5
2402.93	25.5
2403.86	25.5
2404.78	25.5
2405.7	29.5
2406.63	23.5
2407.55	25
2408.47	22
2409.4	23.5
2410.32	25.5
2411.24	23.5
2412.17	24
2413.09	23.5
2414.01	25.5
2414.93	27.5
2415.85	23.5
2416.78	24
2417.7	27.5
2418.62	20
2419.54	23.5
2420.46	25
2421.38	26.5
2422.31	23
2423.23	22
2424.15	25.5
2425.07	23
2425.99	21
2426.91	23
2427.83	22
2428.75	23
2429.67	25
2430.59	24.5
2431.51	20.5
2432.43	23
2433.35	20.5
2434.27	26.5
2435.19	25.5
2436.11	25.5
2437.03	24
2437.94	23
2438.86	23.5
2439.78	25
2440.7	20
2441.62	25
2442.54	21
2443.46	24.5
2444.37	22
2445.29	23
2446.21	26
2447.13	23.5
2448.04	22
2448.96	24.5
2449.88	24.5
2450.8	20
2451.71	27
2452.63	20.5
2453.55	26
2454.46	21.5
2455.38	24
2456.29	24
2457.21	23.5
2458.13	25.5
2459.04	25.5
2459.96	26
2460.87	26
2461.79	24
2462.7	23
2463.62	23.5
2464.53	22
2465.45	23
2466.36	22
2467.28	18.5
2468.19	26.5
2469.11	22.5
2470.02	25.5
2470.93	24
2471.85	25
2472.76	23
2473.67	23
2474.59	24.5
2475.5	24.5
2476.42	24
2477.33	25
2478.24	25
2479.15	26
2480.07	24
2480.98	20
2481.89	23
2482.8	23.5
2483.72	27
2484.63	21.5
2485.54	24.5
2486.45	26
2487.36	22.5
2488.27	25
2489.19	23
2490.1	22
2491.01	24
2491.92	25
2492.83	26.5
2493.74	24.5
2494.65	25
2495.56	23.5
2496.47	23
2497.38	23
2498.29	23.5
2499.2	22.5
2500.11	22
2501.02	27.5
2501.93	23.5
2502.84	25.5
2503.75	27.5
2504.66	26.5
2505.57	25
2506.47	24
2507.38	21.5
2508.29	21.5
2509.2	23.5
2510.11	22
2511.02	24
2511.92	26
2512.83	20
2513.74	27
2514.65	26
2515.55	25.5
2516.46	20
2517.37	22.5
2518.28	26
2519.18	23.5
2520.09	24.5
2521	22
2521.9	22
2522.81	24
2523.72	22
2524.62	21
2525.53	27
2526.43	24.5
2527.34	24.5
2528.24	22.5
2529.15	26
2530.06	23.5
2530.96	27
2531.87	27.5
2532.77	25
2533.68	25.5
2534.58	23.5
2535.48	27.5
2536.39	21
2537.29	24
2538.2	22
2539.1	20
2540	23.5
2540.91	24
2541.81	26
2542.72	19
2543.62	25
2544.52	23
2545.42	24
2546.33	23
2547.23	21.5
2548.13	25
2549.04	23.5
2549.94	24
2550.84	20.5
2551.74	21.5
2552.64	28
2553.55	26
2554.45	22
2555.35	24.5
2556.25	22
2557.15	28
2558.05	26.5
2558.95	25.5
2559.85	25.5
2560.76	20.5
2561.66	23
2562.56	25
2563.46	20.5
2564.36	26
2565.26	25
2566.16	26
2567.06	23.5
2567.96	25.5
2568.86	21
2569.76	25.5
2570.66	24.5
2571.55	26.5
2572.45	26
2573.35	23.5
2574.25	25.5
2575.15	22.5
2576.05	23.5
2576.95	25.5
2577.84	25.5
2578.74	26
2579.64	24
2580.54	22.5
2581.44	23
2582.33	23.5
2583.23	23.5
2584.13	23
2585.03	23
2585.92	22.5
2586.82	26.5
2587.72	26.5
2588.61	25.5
2589.51	22.5
2590.41	23
2591.3	24
2592.2	24.5
2593.09	24
2593.99	21
2594.89	25
2595.78	22
2596.68	25
2597.57	23
2598.47	25
2599.36	23.5
2600.26	25
2601.15	27
2602.05	25.5
2602.94	24.5
2603.84	24.5
2604.73	23.5
2605.63	23.5
2606.52	22
2607.41	22
2608.31	21.5
2609.2	24.5
2610.09	26
2610.99	22.5
2611.88	23.5
2612.77	22
2613.67	25
2614.56	18.5
2615.45	24.5
2616.35	22.5
2617.24	25.5
2618.13	21
2619.02	24
2619.91	24.5
2620.81	23
2621.7	27.5
2622.59	24.5
2623.48	24
2624.37	27
2625.26	27
2626.15	22
2627.05	23.5
2627.94	25.5
2628.83	24
2629.72	25
2630.61	25
2631.5	25.5
2632.39	22.5
2633.28	25
2634.17	27.5
2635.06	23.5
2635.95	26
2636.84	27
2637.73	24.5
2638.62	26
2639.51	26
2640.4	24.5
2641.28	24
2642.17	19
2643.06	25
2643.95	23
2644.84	25
2645.73	22
2646.62	26
2647.5	20.5
2648.39	24
2649.28	22.5
2650.17	24.5
2651.05	23.5
2651.94	25.5
2652.83	24
2653.72	23.5
2654.6	24
2655.49	23
2656.38	27
2657.26	28
2658.15	22.5
2659.04	26.5
2659.92	22
2660.81	24.5
2661.69	22
2662.58	19.5
2663.47	24
2664.35	26
2665.24	25.5
2666.12	24.5
2667.01	24.5
2667.89	22
2668.78	22.5
2669.66	23.5
2670.55	26
2671.43	25.5
2672.32	21
2673.2	26
2674.08	25.5
2674.97	25.5
2675.85	24
2676.74	25
2677.62	22.5
2678.5	24.5
2679.39	25
2680.27	22.5
2681.15	27
2682.04	24
2682.92	24.5
2683.8	26.5
2684.68	23
2685.57	21
2686.45	21.5
2687.33	24
2688.21	27
2689.09	22.5
2689.98	25
2690.86	23.5
2691.74	27.5
2692.62	26
2693.5	22.5
2694.38	25.5
2695.27	24
2696.15	20.5
2697.03	23.5
2697.91	23
2698.79	23
2699.67	24
2700.55	22
2701.43	22.5
2702.31	23
2703.19	23
2704.07	25.5
2704.95	25.5
2705.83	23.5
2706.71	28
2707.59	24
2708.47	26.5
2709.34	21.5
2710.22	21.5
2711.1	27
2711.98	27
2712.86	25.5
2713.74	22.5
2714.62	21
2715.49	23.5
2716.37	22
2717.25	26
2718.13	23
2719.01	24.5
2719.88	26
2720.76	24
2721.64	25
2722.51	23
2723.39	22
2724.27	23.5
2725.14	20.5
2726.02	25.5
2726.9	25.5
2727.77	22
2728.65	24.5
2729.53	22.5
2730.4	23.5
2731.28	26
2732.15	28.5
2733.03	27
2733.91	24.5
2734.78	22.5
2735.66	23.5
2736.53	24.5
2737.41	23.5
2738.28	20.5
2739.16	21
2740.03	22.5
2740.9	28
2741.78	24.5
2742.65	27.5
2743.53	24
2744.4	22.5
2745.27	24.5
2746.15	26
2747.02	26
2747.89	27.5
2748.77	26.5
2749.64	20.5
2750.51	21
2751.39	22.5
2752.26	22.5
2753.13	22
2754.01	25.5
2754.88	26
2755.75	21
2756.62	24
2757.49	21.5
2758.37	24.5
2759.24	27.5
2760.11	24
2760.98	23
2761.85	24.5
2762.72	21.5
2763.59	25.5
2764.46	25
2765.34	29
2766.21	24
2767.08	24
2767.95	25.5
2768.82	24.5
2769.69	23
2770.56	20.5
2771.43	26
2772.3	22
2773.17	27.5
2774.04	20
2774.91	22
2775.78	24.5
2776.65	24.5
2777.51	21.5
2778.38	20.5
2779.25	21.5
2780.12	22.5
2780.99	26
2781.86	23.5
2782.73	21.5
2783.59	24
2784.46	25.5
2785.33	23
2786.2	24
2787.07	26
2787.93	23
2788.8	23.5
2789.67	25.5
2790.54	20
2791.4	24
2792.27	19.5
2793.14	24
2794	24
2794.87	28
2795.74	25
2796.6	24
2797.47	24
2798.34	23
2799.2	26.5
2800.07	26
2800.93	26
2801.8	24.5
2802.66	18.5
2803.53	23.5
2804.39	25
2805.26	27.5
2806.12	21
2806.99	26.5
2807.85	22.5
2808.72	24.5
2809.58	24
2810.45	23.5
2811.31	25
2812.18	28
2813.04	25
2813.9	22
2814.77	22.5
2815.63	23.5
2816.49	24
2817.36	24
2818.22	23.5
2819.08	27.5
2819.95	23
2820.81	21.5
2821.67	25.5
2822.53	25
2823.4	23.5
2824.26	24.5
2825.12	23
2825.98	23
2826.84	23.5
2827.71	25.5
2828.57	24
2829.43	21
2830.29	20.5
2831.15	26
2832.01	24
2832.88	25
2833.74	26
2834.6	24.5
2835.46	27
2836.32	22
2837.18	26.5
2838.04	20.5
2838.9	28
2839.76	22
2840.62	24.5
2841.48	24
2842.34	26.5
2843.2	22
2844.06	27
2844.92	23
2845.78	22.5
2846.63	24.5
2847.49	23.5
2848.35	24.5
2849.21	26
2850.07	26
2850.93	25.5
2851.79	23
2852.64	23.5
2853.5	25
2854.36	20
2855.22	22
2856.08	24.5
2856.93	23.5
2857.79	25.5
2858.65	21
2859.51	23
2860.36	23.5
2861.22	25.5
2862.08	24.5
2862.93	27
2863.79	25
2864.65	26
2865.5	23
2866.36	21.5
2867.22	22
2868.07	24.5
2868.93	24.5
2869.78	24
2870.64	25.5
2871.49	21
2872.35	26.5
2873.21	23
2874.06	24
2874.91	22.5
2875.77	24.5
2876.62	20.5
2877.48	27
2878.33	25.5
2879.19	23
2880.04	25
2880.9	23.5
2881.75	26.5
2882.6	22
2883.46	22.5
2884.31	23
2885.17	23
2886.02	27.5
2886.87	24.5
2887.73	26.5
2888.58	21
2889.43	20.5
2890.28	19
2891.14	21
2891.99	26.5
2892.84	27
2893.69	27
2894.55	25.5
2895.4	26
2896.25	25.5
2897.1	31
2897.95	26
2898.8	28.5
2899.66	31
2900.51	28.5
2901.36	30
2902.21	26.5
2903.06	32
2903.91	30.5
2904.76	27.5
2905.61	32
2906.46	26.5
2907.31	34
2908.16	27
2909.01	30
2909.86	25.5
2910.71	32
2911.56	30.5
2912.41	28.5
2913.26	28
2914.11	25.5
2914.96	30
2915.81	27.5
2916.66	22
2917.51	25
2918.36	20.5
2919.2	24
2920.05	22.5
2920.9	24.5
2921.75	24
2922.6	26
2923.45	24
2924.29	26.5
2925.14	27.5
2925.99	24.5
2926.84	23.5
2927.68	23.5
2928.53	22.5
2929.38	24
2930.23	24.5
2931.07	22
2931.92	23
2932.77	25.5
2933.61	24
2934.46	23.5
2935.3	26.5
2936.15	22
2937	22
2937.84	22.5
2938.69	21.5
2939.53	20
2940.38	22.5
2941.23	26
2942.07	24
2942.92	22.5
2943.76	23.5
2944.61	18.5
2945.45	23.5
2946.3	20
2947.14	23
2947.98	25
2948.83	23.5
2949.67	24
2950.52	23
2951.36	27
2952.2	24
2953.05	24
2953.89	23.5
2954.74	23.5
2955.58	27
2956.42	27
2957.27	24.5
2958.11	26.5
2958.95	30.5
2959.79	26
2960.64	25
2961.48	29
2962.32	26
2963.16	24.5
2964.01	26
2964.85	25
2965.69	24
2966.53	26
2967.37	22
2968.21	25
2969.06	28
2969.9	26.5
2970.74	23.5
2971.58	25
2972.42	23.9945
2973.26	27.4362
2974.1	24.1112
2974.94	24.1134
2975.78	22.5216
2976.62	23.1836
2977.46	25.406
2978.3	25.0947
2979.14	21.6042
2979.98	23.9473
2980.82	24.7098
2981.66	25.092
2982.5	22.4767
2983.34	20.5668
2984.18	26.8057
2985.02	23.1537
2985.86	22.647
2986.7	20.0825
2987.54	20.568
2988.38	24.1128
2989.21	23.1356
2990.05	21.8991
2990.89	23.2915
2991.73	24.2143
2992.57	20.4792
2993.41	21.249
2994.24	22.9728
2995.08	24.4836
2995.92	25.6008
2996.76	24.1235
2997.59	23.0458
2998.43	22.6072
2999.27	21.7846
3000.1	23.248
3000.94	21.6407
3001.78	20.5591
3002.61	23.3455
3003.45	23.2073
3004.29	19.713
3005.12	23.1238
3005.96	21.468
3006.8	21.5409
3007.63	22.4809
3008.47	24.5858
3009.3	22.8116
3010.14	23.5684
3010.97	23.0781
3011.81	24.0221
3012.64	23.0029
3013.48	22.6887
3014.31	23.6445
3015.15	21.4679
3015.98	20.35
3016.82	22.1365
3017.65	22.1721
3018.49	21.3789
3019.32	23.6439
3020.16	21.4659
3020.99	21.8268
3021.82	23.0209
3022.66	19.284
3023.49	22.6309
3024.32	21.6887
3025.16	20.0049
3025.99	22.4185
3026.82	22.4212
3027.66	23.017
3028.49	23.0982
3029.32	22.8965
3030.16	20.9938
3030.99	20.4377
3031.82	22.19
3032.65	20.9275
3033.49	19.0955
3034.32	17.4166
3035.15	20.4333
3035.98	22.782
3036.81	21.9563
3037.64	21.2282
3038.48	21.5575
3039.31	21.6544
3040.14	20.5837
3040.97	22.0273
3041.8	22.1653
3042.63	21.2298
3043.46	22.2062
3044.29	20.9192
3045.12	21.3251
3045.95	20.9421
3046.78	20.2873
3047.61	21.0297
3048.44	20.7239
3049.27	22.4961
3050.1	23.5596
3050.93	22.9799
3051.76	21.2078
3052.59	19.7132
3053.42	22.6501
3054.25	23.123
3055.08	21.8598
3055.91	23.4171
3056.74	25.5277
3057.26	24
3058.09	20
3058.92	25.5
3059.76	22
3060.59	20.5
3061.42	21.5
3062.26	18
3063.09	20.5
3063.92	25
3064.75	23.5
3065.59	23.5
3066.42	22.5
3067.25	23
3068.08	24
3068.91	23.5
3069.74	21.5
3070.58	23.5
3071.41	21.5
3072.24	22.5
3073.07	19.5
3073.9	24
3074.73	20.5
3075.56	21.5
3076.39	24
3077.22	21
3078.05	21.5
3078.88	21.5
3079.71	23
3080.55	19
3081.38	19
3082.2	25.5
3083.03	23
3083.86	22
3084.69	23
3085.52	21.5
3086.35	23
3087.18	21.5
3088.01	25
3088.84	23
3089.67	21
3090.5	21.5
3091.33	25
3092.15	24
3092.98	21.5
3093.81	24
3094.64	21
3095.47	24.5
3096.29	23.5
3097.12	21
3097.95	22.5
3098.78	20.5
3099.6	21
3100.43	23
3101.26	21.5
3102.09	18
3102.91	21.5
3103.74	22
3104.57	21
3105.39	21
3106.22	19
3107.05	20.5
3107.87	20
3108.7	25.5
3109.52	21
3110.35	23
3111.18	22
3112	20.5
3112.83	24.5
3113.65	24.5
3114.48	22
3115.3	21.5
3116.13	22.5
3116.95	24
3117.78	24.5
3118.6	21
3119.43	24.5
3120.25	21
3121.08	25.5
3121.9	21
3122.73	20.5
3123.55	23.5
3124.37	21.5
3125.2	22.5
3126.02	23.5
3126.84	22.5
3127.67	21
3128.49	24.5
3129.31	23.5
3130.14	23.5
3130.96	23.5
3131.78	23.5
3132.61	19.5
3133.43	24.5
3134.25	20
3135.07	22
3135.9	23.5
3136.72	25.5
3137.54	25
3138.36	22
3139.18	25.5
3140.01	26.5
3140.83	24
3141.65	24
3142.47	24.5
3143.29	25.5
3144.11	23.5
3144.93	22
3145.75	21
3146.58	25
3147.4	23
3148.22	20.5
3149.04	25
3149.86	20
3150.68	20.5
3151.5	24
3152.32	22
3153.14	24
3153.96	27.5
3154.78	23.5
3155.6	25
3156.42	24.5
3157.23	24.5
3158.05	23
3158.87	21.5
3159.69	24
3160.51	23.5
3161.33	21.5
3162.15	26
3162.97	23
3163.79	22.5
3164.6	22
3165.42	23.5
3166.24	21.5
3167.06	25
3167.88	21.5
3168.69	22
3169.51	19
3170.33	24.5
3171.15	23.5
3171.96	25.5
3172.78	21
3173.6	20
3174.41	23
3175.23	22.5
3176.05	24
3176.86	24.5
3177.68	26
3178.5	23.5
3179.31	20.5
3180.13	27
3180.95	24
3181.76	18
3182.58	23.5
3183.39	22.5
3184.21	23
3185.02	20.5
3185.84	21.5
3186.65	25.5
3187.47	22
3188.28	20.5
3189.1	25
3189.91	21
3190.73	25.5
3191.54	26.5
3192.36	23
3193.17	23
3193.99	25
3194.8	23.5
3195.61	24
3196.43	22.5
3197.24	23.5
3198.05	21
3198.87	26
3199.68	23.5
3200.49	18.5
3201.31	23
3202.12	25
3202.93	22
3203.75	23.5
3204.56	23.5
3205.37	24.5
3206.18	20.5
3207	21.5
3207.81	24.5
3208.62	22.5
3209.43	24
3210.24	23
3211.06	24
3211.87	26
3212.68	23
3213.49	23
3214.3	23
3215.11	19
3215.92	20.5
3216.74	22.5
3217.55	24.5
3218.36	20.5
3219.17	24
3219.98	26
3220.79	25
3221.6	20
3222.41	26.5
3223.22	24
3224.03	23
3224.84	17
3225.65	26.5
3226.46	22
3227.27	24
3228.08	23.5
3228.89	21
3229.7	21.5
3230.5	26
3231.31	24
3232.12	26
3232.93	23.5
3233.74	26
3234.55	24
3235.36	22.5
3236.16	18.5
3236.97	21
3237.78	21
3238.59	22
3239.4	21.5
3240.2	24.5
3241.01	21.5
3241.82	23.5
3242.63	22
3243.43	25.5
3244.24	23.5
3245.05	24
3245.86	22.5
3246.66	23
3247.47	27.5
3248.28	25
3249.08	25.5
3249.89	27.5
3250.69	26
3251.5	22
3252.31	26
3253.11	23.5
3253.92	21.5
3254.72	24
3255.53	22.5
3256.34	21
3257.14	21.5
3257.95	25
3258.75	25.5
3259.56	19
3260.36	23.5
3261.17	25
3261.97	21
3262.77	20.5
3263.58	21.5
3264.38	23
3265.19	25
3265.99	20
3266.8	25
3267.6	24
3268.4	24
3269.21	26
3270.01	27.5
3270.81	24
3271.62	23.5
3272.42	24.5
3273.22	24.5
3274.03	20.5
3274.83	22.5
3275.63	20.5
3276.43	23
3277.24	27
3278.04	23
3278.84	19
3279.64	26
3280.45	22.5
3281.25	27
3282.05	24.5
3282.85	23
3283.65	23.5
3284.46	24
3285.26	23
3286.06	22
3286.86	25
3287.66	26
3288.46	27.5
3289.26	22
3290.06	22
3290.86	22
3291.66	29
3292.46	24.5
3293.26	25
3294.06	22.5
3294.86	23.5
3295.66	19.5
3296.46	23
3297.26	24
3298.06	25
3298.86	22.5
3299.66	25
3300.46	24.5
3301.26	25.5
3302.06	28.5
3302.86	22
3303.66	23.5
3304.46	26.5
3305.26	26
3306.05	22.5
3306.85	23.5
3307.65	21.5
3308.45	25
3309.25	25.5
3310.04	28.5
3310.84	19
3311.64	20
3312.44	21.5
3313.24	26
3314.03	25.5
3314.83	29
3315.63	23.5
3316.42	24.5
3317.22	26.5
3318.02	20.5
3318.82	26
3319.61	23
3320.41	26.5
3321.2	25.5
3322	22.5
3322.8	25
3323.59	22.5
3324.39	22.5
3325.19	20.5
3325.98	25
3326.78	22
3327.57	26
3328.37	23.5
3329.16	25
3329.96	25.5
3330.75	26
3331.55	28.5
3332.34	21
3333.14	24.5
3333.93	26.5
3334.73	23
3335.52	23
3336.32	26.5
3337.11	23.5
3337.9	20
3338.7	23.5
3339.49	23
3340.29	23
3341.08	27
3341.87	26.5
3342.67	22.5
3343.46	20.5
3344.25	25.5
3345.05	25
3345.84	24.5
3346.63	23
3347.42	24
3348.22	22
3349.01	27
3349.8	21
3350.59	24.5
3351.39	26
3352.18	24
3352.97	21
3353.76	26.5
3354.55	25
3355.35	26
3356.14	24
3356.93	26.5
3357.72	23
3358.51	24.5
3359.3	20
3360.09	21.5
3360.88	22
3361.67	24.5
3362.47	19.5
3363.26	22
3364.05	24
3364.84	23.5
3365.63	24
3366.42	27
3367.21	24
3368	24
3368.79	24.5
3369.58	20
3370.37	23
3371.16	23
3371.95	25
3372.73	24
3373.52	27.5
3374.31	20.5
3375.1	24.5
3375.89	26
3376.68	24
3377.47	23
3378.26	24.5
3379.04	27
3379.83	24.5
3380.62	23
3381.41	28.5
3382.2	22.5
3382.98	23
3383.77	22
3384.56	25.5
3385.35	22
3386.14	24.5
3386.92	24
3387.71	24
3388.5	23
3389.28	28
3390.07	21.5
3390.86	23
3391.64	20.5
3392.43	25
3393.22	23
3394	25
3394.79	23.5
3395.58	20.5
3396.36	23
3397.15	21
3397.93	24.5
3398.72	22.5
3399.5	24
3400.29	23.5
3401.07	23
3401.86	24
3402.65	23.5
3403.43	28.5
3404.22	24
3405	26.5
3405.79	22
3406.57	21.5
3407.35	29
3408.14	25.5
3408.92	23
3409.71	20.5
3410.49	23.5
3411.27	21
3412.06	26.5
3412.84	25.5
3413.63	24.5
3414.41	24
3415.19	25
3415.98	25.5
3416.76	23.5
3417.54	25.5
3418.32	25.5
3419.11	26
3419.89	26
3420.67	26.5
3421.46	25
3422.24	24
3423.02	23
3423.8	24
3424.58	28
3425.37	21.5
3426.15	24.5
3426.93	27
3427.71	24
3428.49	24
3429.27	24.5
3430.06	23
3430.84	25.5
3431.62	24.5
3432.4	22.5
3433.18	26.5
3433.96	21
3434.74	22.5
3435.52	24
3436.3	21.5
3437.08	27
3437.86	21
3438.64	22
3439.42	23
3440.2	21.5
3440.98	25
3441.76	25
3442.54	23
3443.32	25
3444.1	21.5
3444.88	24.5
3445.66	25
3446.44	24.5
3447.22	27
3448	23
3448.78	24
3449.55	22
3450.33	20
3451.11	21
3451.89	24
3452.67	22
3453.45	25.5
3454.22	23.5
3455	23.5
3455.78	20.5
3456.56	26
3457.33	24.5
3458.11	20
3458.89	19
3459.67	26
3460.44	25
3461.22	28.5
3462	22
3462.77	24
3463.55	26
3464.33	23.5
3465.1	26.5
3465.88	23
3466.66	23.5
3467.43	23
3468.21	23.5
3468.99	24.5
3469.76	25
3470.54	22.5
3471.31	21.5
3472.09	24
3472.86	28
3473.64	22.5
3474.41	23.5
3475.19	22
3475.96	24
3476.74	23
3477.51	22
3478.29	22
3479.06	24
3479.84	21
3480.61	22
3481.39	21
3482.16	23
3482.93	26.5
3483.71	21
3484.48	25.5
3485.26	24.5
3486.03	21
3486.8	24.5
3487.58	22
3488.35	24
3489.12	21
3489.9	22
3490.67	27.5
3491.44	23
3492.21	24
3492.99	22.5
3493.76	24
3494.53	22.5
3495.3	24.5
3496.08	23.5
3496.85	22.5
3497.62	22.5
3498.39	22.5
3499.16	21.5
3499.94	25
