#Acq. time (s)=	5
#Accumulations=	5
#Range (cm-¹)=	100...3500
#Windows=	4
#Autofocus=	Off
#AutoExposure=	Off
#Spike filter=	Multiple accum.
#Delay time (s)=	0
#Binning=	1
#Readout mode=	Signal
#DeNoise=	Off
#ICS correction=	Off
#Dark correction=	Off
#Inst. Process=	Off
#Instrument=	LabRAM HR Evol
#Detector=	Syncerity OE
#Objective=	x100_VIS
#Grating=	600 (500nm)
#ND Filter=	25%
#Laser=	633nm_Edge
#Hole=	100.021
#Range=	Visible
#Project=	verificaciones
#Sample=	a2
#Site=	plain
#Title=	bolusa2plain
#Remark=	com
#Date=	16.01.2026 14:11
#Acquired=	16.01.2026 14:11:42
100.687	26
101.971	33
103.254	34.5
104.537	33
105.82	31.5
107.103	32
108.387	31.5
109.669	31
110.951	29
112.233	28
113.514	31
114.796	33
116.077	35
117.358	32
118.639	31
119.919	34.5
121.2	34
122.48	34.5
123.76	32
125.039	30.5
126.319	34
127.598	39.5
128.877	36
130.156	31
131.435	32
132.713	37.5
133.992	38
135.268	34
136.546	34
137.824	39.5
139.101	32.5
140.378	35
141.655	39.5
142.932	43
144.209	39
145.485	44
146.76	39
148.036	37
149.312	40.5
150.587	41.5
151.862	45.5
153.138	39
154.411	43
155.686	41
156.96	39
158.235	40
159.509	42.5
160.781	42.5
162.055	44
163.328	46.5
164.602	40.5
165.873	43
167.146	38.5
168.419	40.5
169.691	38.5
170.962	40
172.234	40
173.506	39
174.777	42.5
176.047	41
177.318	44.5
178.589	41.5
179.859	46
181.129	45
182.4	43
183.668	41.5
184.938	41.5
186.207	46
187.476	42
188.746	45
190.013	44.5
191.282	40
192.551	38
193.818	41.5
195.086	44.5
196.353	42
197.621	43
198.887	39
200.154	42
201.422	40.5
202.687	39
203.954	38
205.219	36.5
206.486	35.5
207.751	36.5
209.017	35.5
210.281	37
211.547	35
212.811	37
214.076	36
215.339	35
216.603	38
217.867	35
219.13	38
220.395	38
221.657	27
222.921	37
224.183	33.5
225.445	33
226.708	32.5
227.97	33.5
229.232	32
230.493	25.5
231.754	36.5
233.016	32.5
234.277	30.5
235.537	31.5
236.799	32.5
238.059	30
239.318	28.5
240.579	31.5
241.839	33
243.098	25
244.358	30.5
245.617	31
246.875	33.5
248.133	33
249.393	29.5
250.651	30
251.908	27.5
253.166	27
254.424	33
255.681	31.5
256.938	30
258.195	34
259.451	26
260.709	32
261.965	32
263.221	30.5
264.476	31
265.732	31
266.988	32.5
268.243	32
269.498	30.5
270.753	32.5
272.007	27
273.261	28
274.515	30.5
275.769	29
277.022	28.5
278.277	30
279.53	31.5
280.783	24
282.036	31.5
283.289	32.5
284.541	29
285.793	33
287.045	28.5
288.297	31.5
289.548	29
290.8	30.5
292.051	30.5
293.302	28.5
294.552	29
295.803	33
297.053	29.5
298.303	32
299.553	31
300.803	27.5
302.053	31
303.302	29.5
304.551	29.5
305.8	28.5
307.047	28.5
308.296	32.5
309.544	27.5
310.792	28
312.04	33.5
313.288	28.5
314.535	27
315.783	28
317.03	31
318.275	28
319.522	29
320.768	28
322.015	30.5
323.261	30.5
324.505	27.5
325.751	28.5
326.997	28
328.242	26
329.487	29.5
330.73	27
331.975	33
333.22	27
334.464	25
335.707	29.5
336.95	29.5
338.194	32.5
339.438	23
340.68	29
341.923	30
343.166	22
344.407	30.5
345.649	33
346.892	31
348.132	30.5
349.374	28.5
350.616	28.5
351.856	27
353.097	30
354.337	31
355.578	23.5
356.818	30
358.058	28
359.298	25
360.536	28
361.776	30.5
363.016	30
364.254	25
365.493	28.5
366.731	28.5
367.97	28
369.207	31.5
370.446	28
371.683	34
372.921	27
374.157	27.5
375.395	30.5
376.631	29
377.868	26.5
379.104	26
380.341	26.5
381.576	28.5
382.813	30
384.048	29
385.284	29.5
386.518	31
387.753	30
388.988	29
390.222	29.5
391.457	30.5
392.691	29.5
393.924	30
395.159	33.5
396.392	27.5
397.624	33
398.858	29.5
400.091	29
401.323	31
402.556	29.5
403.788	28
405.019	27.5
406.252	29
407.483	27.5
408.714	32.5
409.945	26.5
411.177	31.5
412.407	28.5
413.637	30.5
414.867	28
416.099	26.5
417.328	30.5
418.558	29.5
419.787	29.5
421.016	27.5
422.246	25
423.475	29
424.703	29.5
425.931	33
427.159	30.5
428.388	29.5
429.616	28.5
430.843	29
432.071	28.5
433.298	26
434.524	32
435.751	26.5
436.977	32
438.204	31
439.431	30
440.657	26
441.883	32
443.108	31
444.333	30
445.558	28
446.783	28
448.008	29
449.232	30
450.457	31.5
451.681	29
452.905	30
454.128	30.5
455.352	28.5
456.575	30
457.798	28.5
459.021	29.5
460.244	30.5
461.466	29
462.689	29
463.909	33.5
465.131	30.5
466.353	33
467.575	34
468.796	38.5
470.017	38
471.238	35.5
472.459	38.5
473.679	41
474.898	40
476.118	44
477.338	43
478.558	47
479.778	47.5
480.997	52
482.215	56
483.434	61
484.653	61
485.871	67.5
487.09	62
488.307	61.5
489.525	60
490.743	60
491.96	62.5
493.176	55.5
494.394	57.5
495.611	54.5
496.826	54
498.043	48
499.259	48.5
500.474	44.5
501.69	42
502.906	44
504.121	42.5
505.336	36.5
506.551	36
507.765	37.5
508.98	35
510.195	35
511.408	36.5
512.622	36.5
513.835	30.5
515.049	37.5
516.263	33
517.475	37
518.689	36
519.9	35
521.113	33
522.325	34.5
523.537	32.5
524.748	31
525.961	31
527.171	32
528.383	32
529.594	31
530.805	27.5
532.015	32
533.226	29
534.435	29
535.646	34
536.855	29
538.066	28.5
539.274	30
540.483	30.5
541.693	31
542.901	30.5
544.11	29.5
545.318	27.5
546.526	29.5
547.734	29
548.942	27.5
550.149	28
551.357	31
552.563	33
553.77	30.5
554.978	30
556.184	30
557.389	28.5
558.596	32
559.802	33.5
561.007	27
562.212	23
563.419	29.5
564.623	28.5
565.828	30.5
567.032	27
568.238	26.5
569.442	33.5
570.646	31
571.849	26
573.054	31
574.257	27
575.46	28.5
576.663	28
577.866	27
579.068	28
580.272	27.5
581.474	29.5
582.676	28.5
583.877	32.5
585.079	29
586.28	29.5
587.481	28
588.682	29
589.883	29
591.083	25
592.285	24
593.485	22
594.685	26
595.885	28
597.084	27
598.284	28
599.483	29
600.682	29
601.881	25.5
603.08	28.5
604.278	31.5
605.476	29
606.674	30
607.872	27
609.07	27
610.266	28.5
611.463	30.5
612.661	27
613.857	26
615.054	31.5
616.251	32.5
617.447	27
618.643	28.5
619.839	29
621.035	29.5
622.229	32.5
623.425	30
624.62	29
625.815	28
627.01	33
628.205	29
629.398	26.5
630.592	26
631.786	30
632.98	30
634.172	25
635.366	32
636.559	28
637.753	29
638.944	27.5
640.137	31.5
641.33	28.5
642.522	30
643.713	30.5
644.905	30.5
646.097	27.5
647.287	28
648.478	36
649.67	27
650.859	28
652.05	28
653.241	29
654.43	31
655.621	28
656.811	32
657.999	30.5
659.189	30.5
660.378	31
661.567	33
662.755	25.5
663.944	32
665.133	31
666.32	29.5
667.508	31.5
668.695	30.5
669.884	29.5
671.07	30
672.258	32.5
673.444	33
674.631	31.5
675.817	31.5
677.004	34
678.19	32.5
679.376	34.5
680.561	37
681.746	31.5
682.932	35.5
684.117	34
685.302	35
686.487	38
687.672	33.5
688.856	35
690.039	34
691.224	36
692.407	34.5
693.59	34.5
694.774	33.5
695.957	34
697.14	36
698.323	39.5
699.505	37.5
700.687	36.5
701.87	39
703.052	35.5
704.233	41.5
705.414	46
706.597	51.5
707.778	49.5
708.958	53.5
710.139	50
711.32	48
712.5	46.5
713.68	42
714.86	42
716.039	37.5
717.22	33
718.399	36
719.578	33
720.757	33.5
721.935	30
723.114	30.5
724.292	32.5
725.471	30.5
726.649	30.5
727.827	25
729.004	30
730.182	31
731.359	29.5
732.536	30.5
733.712	29.5
734.889	25.5
736.065	23
737.242	31
738.418	26
739.593	29.5
740.769	35.5
741.945	26.5
743.12	27
744.295	26.5
745.47	30
746.644	30
747.819	27
748.993	31
750.168	29
751.342	29
752.515	29
753.689	30
754.862	30.5
756.036	32.5
757.209	28
758.382	29.5
759.553	24
760.725	27.5
761.898	30
763.07	27.5
764.242	25.5
765.414	27.5
766.584	27.5
767.755	28
768.927	31
770.098	29
771.269	31.5
772.438	27
773.608	30
774.779	29
775.949	32
777.117	27.5
778.287	32.5
779.457	29
780.626	31.5
781.794	28.5
782.963	32
784.132	34
785.299	31.5
786.468	30
787.636	34
788.803	31.5
789.971	34
791.139	33.5
792.305	32.5
793.472	35
794.638	31.5
795.805	30
796.972	30
798.138	29
799.304	32.5
800.469	30
801.635	33.5
802.801	30.5
803.966	25
805.131	29.5
806.295	32
807.461	26.5
808.624	23
809.789	28
810.952	31.5
812.117	33.5
813.28	32.5
814.444	28
815.607	26
816.769	31
817.933	27.5
819.095	27
820.258	29
821.42	32.5
822.583	27.5
823.744	31.5
824.905	29
826.068	28
827.228	27
828.389	33
829.551	26
830.711	28
831.871	28
833.032	27
834.192	26.5
835.352	30
836.513	26.5
837.672	33
838.831	25
839.99	29.5
841.15	30.5
842.308	30
843.466	25.5
844.624	31
845.784	31.5
846.941	29
848.099	29
849.256	28
850.414	28
851.572	27
852.729	25.5
853.886	25.5
855.042	27.5
856.198	30.5
857.355	33.5
858.512	30
859.668	32
860.823	33
861.979	33
863.134	30
864.289	31
865.444	30
866.599	31
867.753	25
868.908	28
870.062	26
871.216	27.5
872.37	27
873.523	26
874.677	35
875.83	29.5
876.983	27
878.136	27
879.289	27
880.441	30
881.594	26
882.746	28.5
883.898	30.5
885.05	23
886.201	28
887.353	27.5
888.504	26
889.655	29
890.806	27
891.956	23
893.107	28
894.257	29
895.407	28
896.557	30
897.707	30.5
898.856	26
900.005	28.5
901.154	28.5
902.304	27
903.453	28.5
904.6	26
905.749	32
906.897	26.5
908.046	27
909.192	26
910.34	25.5
911.488	25.5
912.634	30
913.782	28
914.929	28
916.076	24
917.222	26.5
918.368	31
919.515	25
920.66	26
921.806	30.5
922.951	29
924.097	30.5
925.242	27.5
926.387	25.5
927.532	28.5
928.676	26
929.821	29
930.965	27
932.109	26.5
933.253	23.5
934.396	27.5
935.54	26.5
936.683	27
937.826	25
938.969	25.5
940.112	26.5
941.254	23.5
942.397	28
943.538	29.5
944.681	26.5
945.822	28
946.964	27
948.105	25
949.246	27.5
950.388	30.5
951.528	30
952.669	26.5
953.809	28
954.949	23.5
956.09	25.5
957.229	26
958.369	28
959.509	21
960.648	24.5
961.786	24
962.926	20.5
964.065	26.5
965.203	25
966.342	28.5
967.48	31
968.618	27.5
969.755	26
970.894	25.25
972.031	24
973.168	26
974.305	22.5
975.441	26
976.579	24
977.715	27.5
978.851	28
979.987	29
981.123	26.5
982.26	27.5
983.395	26.5
984.531	25
985.666	27
986.8	30
987.935	26
989.07	26
990.204	29.5
991.338	29
992.472	27.5
993.607	31.5
994.741	29
995.874	19
997.008	21.5
998.141	27
999.274	25.5
1000.41	28.5
1001.54	24.5
1002.67	27.5
1003.8	27.5
1004.94	27.5
1006.07	25.5
1007.2	27.5
1008.33	28
1009.46	28
1010.59	25.5
1011.72	29
1012.85	25
1013.99	27.5
1015.12	20
1016.25	25
1017.38	25
1018.51	28.5
1019.63	28
1020.76	27
1021.89	22.5
1023.02	29.5
1024.15	25
1025.28	26.5
1026.41	24
1027.54	23
1028.67	29
1029.79	21.5
1030.92	22
1032.05	26
1033.18	23
1034.3	28
1035.43	23.5
1036.56	22
1037.68	26.5
1038.81	27
1039.94	24
1041.06	22
1042.19	25.5
1043.31	24.5
1044.44	25.5
1045.57	26.5
1046.69	25
1047.82	23
1048.94	23
1050.07	24
1051.19	27.5
1052.31	26
1053.44	25.5
1054.56	25
1055.69	27
1056.81	25.5
1057.93	28
1059.06	25
1060.18	23
1061.3	27.5
1062.42	22
1063.55	25
1064.67	27
1065.79	25.5
1066.91	28
1068.03	25.5
1069.16	25
1070.28	25.5
1071.4	25.5
1072.52	28.5
1073.64	26
1074.76	26.5
1075.88	26
1077	22
1078.12	25
1079.24	24.5
1080.36	25
1081.48	24.5
1082.6	26
1083.72	23
1084.84	27
1085.96	22
1087.08	23.5
1088.2	25.5
1089.31	26
1090.43	30
1091.55	24
1092.67	23.5
1093.78	24
1094.9	25.5
1096.02	27.5
1097.14	25
1098.25	25
1099.37	28
1100.49	22
1101.6	24
1102.72	27
1103.83	23
1104.95	25.5
1106.07	25.5
1107.18	27
1108.3	27.5
1109.41	26.5
1110.52	29.5
1111.64	23
1112.75	20.5
1113.87	26
1114.98	28
1116.1	30
1117.21	24
1118.32	31.5
1119.44	26
1120.55	23
1121.66	25
1122.78	24.5
1123.89	23.5
1125	23
1126.11	27
1127.23	26
1128.34	25
1129.45	26.5
1130.56	25
1131.67	24
1132.78	23.5
1133.89	26.5
1135	28
1136.12	21.5
1137.23	26
1138.34	24
1139.45	19
1140.56	26
1141.67	23.5
1142.78	25
1143.89	26
1144.99	24
1146.1	24.5
1147.21	25
1148.32	25
1149.43	25
1150.54	27
1151.65	25.5
1152.75	21
1153.86	27
1154.97	22
1156.08	25
1157.18	26.5
1158.29	24.5
1159.4	25
1160.5	25
1161.61	19.5
1162.72	27
1163.82	21.5
1164.93	22.5
1166.03	25
1167.14	22.5
1168.24	30
1169.35	25
1170.45	25
1171.56	24.5
1172.66	23
1173.77	26.5
1174.87	27
1175.98	24.5
1177.08	25
1178.19	26
1179.29	23.5
1180.39	25.5
1181.5	28
1182.6	23
1183.7	27.5
1184.8	23
1185.91	26.5
1187.01	25
1188.11	23
1189.21	27
1190.32	22.5
1191.42	24.5
1192.52	24.5
1193.62	22.5
1194.72	23.0014
1195.82	26.4491
1196.92	23.553
1198.02	26.0458
1199.12	23.4808
1200.22	28.3156
1201.32	26.2959
1202.42	25.3957
1203.52	23.4107
1204.62	26.7319
1205.72	23.4604
1206.82	24.5326
1207.92	23.4651
1209.02	23.0848
1210.12	26.493
1211.22	20.9708
1212.31	23.5221
1213.41	24.0951
1214.51	21.769
1215.61	23.557
1216.71	26.7565
1217.8	25.593
1218.9	22.9057
1220	24.8861
1221.09	20.3026
1222.19	25.5049
1223.29	23.1512
1224.38	26.7277
1225.48	22.4673
1226.58	27.0247
1227.67	24.9534
1228.77	25.4323
1229.86	26.7279
1230.96	27.3181
1232.05	24.9903
1233.15	24.4895
1234.24	25.3029
1235.34	26.241
1236.43	22.6438
1237.52	24.6165
1238.62	23.3932
1239.71	27.2726
1240.81	22.7738
1241.9	25.5558
1242.99	26.432
1244.09	24.9102
1245.18	24.2349
1246.27	23.9397
1247.36	23.1481
1248.46	24.2739
1249.55	23.7813
1250.64	24.9708
1251.73	22.5486
1252.82	22.7302
1253.92	25.2063
1255.01	23.1398
1256.1	27.187
1257.19	24.1335
1258.28	26.9499
1259.37	25.5455
1260.46	27.7895
1261.55	27.8069
1262.64	28.7187
1263.73	25.0683
1264.82	24.9331
1265.91	25.7737
1267	26.7202
1268.09	26.0424
1269.18	27.1295
1270.27	24.6869
1271.36	24.9058
1272.45	25.2276
1273.53	24.6447
1274.62	23.6953
1275.71	23.4087
1276.8	26.7277
1277.89	25.2221
1278.97	24.8185
1280.06	23.723
1281.15	27.2729
1282.23	26.4501
1283.32	26.3005
1284.41	23.5603
1285.49	23.4411
1286.58	26.5553
1287.67	22.9467
1288.75	24.4604
1289.84	26.3006
1290.92	25.1621
1292.01	25.1166
1293.09	24.9863
1294.18	25.914
1295.26	24.3362
1296.35	24
1297.43	24.6048
1298.52	25.8731
1299.6	26.5668
1300.69	25.2607
1301.77	27.9466
1302.85	24.8326
1303.94	23.7394
1305.02	22.6128
1306.1	23.0779
1306.42	23.5
1307.51	25
1308.59	25.5
1309.68	25
1310.77	23.5
1311.86	22.5
1312.95	24.5
1314.03	28.5
1315.12	24
1316.21	26
1317.29	28
1318.38	23.5
1319.47	24.5
1320.55	26.5
1321.64	22.5
1322.72	23
1323.81	26
1324.89	25
1325.98	26.5
1327.07	25
1328.15	26.5
1329.24	24
1330.32	24.5
1331.4	27.5
1332.49	22
1333.57	27
1334.66	27.5
1335.74	27.5
1336.82	24.5
1337.91	25.5
1338.99	29.5
1340.07	25.5
1341.16	26.5
1342.24	25
1343.32	25
1344.4	21.5
1345.49	27.5
1346.57	23
1347.65	25.5
1348.73	22
1349.81	27
1350.9	23
1351.98	23.5
1353.06	26.5
1354.14	21
1355.22	27.5
1356.3	24
1357.38	24.5
1358.46	26
1359.54	25.5
1360.62	25
1361.7	21
1362.78	26.5
1363.86	27.5
1364.94	20.5
1366.02	26
1367.1	27
1368.17	27
1369.25	27.5
1370.33	25.5
1371.41	25
1372.49	25
1373.57	27
1374.64	20
1375.72	22
1376.8	21
1377.87	24
1378.95	27
1380.03	27.5
1381.1	25.5
1382.18	27.5
1383.26	24
1384.33	27
1385.41	27
1386.49	23.5
1387.56	29
1388.64	30.5
1389.71	27
1390.79	27
1391.86	25.5
1392.94	26.5
1394.01	28.5
1395.08	29
1396.16	25
1397.23	30
1398.31	28
1399.38	29
1400.45	30.5
1401.53	24
1402.6	31
1403.67	32
1404.75	28
1405.82	31
1406.89	30
1407.96	31
1409.04	31.5
1410.11	28
1411.18	29
1412.25	33.5
1413.32	30
1414.39	33.5
1415.47	33.5
1416.54	26
1417.61	30.5
1418.68	30.5
1419.75	29.5
1420.82	29.5
1421.89	28.5
1422.96	28
1424.03	27
1425.1	29
1426.17	27.5
1427.24	26
1428.31	25
1429.38	28
1430.44	28
1431.51	25.5
1432.58	29.5
1433.65	27.5
1434.72	26
1435.79	26
1436.85	26.5
1437.92	28
1438.99	30
1440.05	27
1441.12	29
1442.19	27.5
1443.26	27
1444.32	25
1445.39	27
1446.46	28.5
1447.52	24
1448.59	28
1449.65	26
1450.72	26.5
1451.78	23.5
1452.85	27
1453.91	26
1454.98	28.5
1456.04	25.5
1457.11	26.5
1458.17	24
1459.24	26
1460.3	24.5
1461.36	28
1462.43	24
1463.49	28
1464.56	27
1465.62	24.5
1466.68	23
1467.74	26
1468.81	25.5
1469.87	27
1470.93	21
1471.99	25
1473.06	25.5
1474.12	27
1475.18	26.5
1476.24	29.5
1477.3	25
1478.36	26
1479.42	24
1480.49	25
1481.55	23.5
1482.61	24.5
1483.67	30
1484.73	22.5
1485.79	27
1486.85	26.5
1487.91	25.5
1488.97	26
1490.03	25
1491.09	24
1492.14	22
1493.2	22.5
1494.26	25
1495.32	25
1496.38	28
1497.44	23.5
1498.49	25
1499.55	28
1500.61	27
1501.67	27.5
1502.72	25
1503.78	23
1504.84	22
1505.89	25
1506.95	29
1508.01	27.5
1509.07	28.5
1510.12	25
1511.18	23.5
1512.23	19.5
1513.29	26
1514.34	25.5
1515.4	29
1516.45	22
1517.51	24.5
1518.56	25.5
1519.62	27.5
1520.67	29.5
1521.73	28
1522.78	28
1523.84	24.5
1524.89	26
1525.94	30.5
1527	23.5
1528.05	28.5
1529.1	27
1530.16	26
1531.21	27.5
1532.26	28
1533.32	27
1534.37	30
1535.42	25.5
1536.47	25.5
1537.52	24
1538.57	26
1539.63	25.5
1540.68	27
1541.73	27.5
1542.78	25.5
1543.83	23.5
1544.88	24.5
1545.93	28.5
1546.98	25.5
1548.03	29
1549.08	26
1550.13	23.5
1551.18	27
1552.23	25.5
1553.28	25
1554.33	20.5
1555.38	24
1556.43	26
1557.48	27.5
1558.53	28.5
1559.57	26.5
1560.62	23.5
1561.67	28.5
1562.72	27.5
1563.77	23.5
1564.81	23
1565.86	26.5
1566.91	26
1567.96	28
1569	23
1570.05	25.5
1571.09	25
1572.14	28
1573.19	26
1574.23	25
1575.28	21
1576.33	30.5
1577.37	25
1578.42	27
1579.46	25.5
1580.51	27
1581.55	23.5
1582.6	22
1583.64	26.5
1584.69	25.5
1585.73	24
1586.77	22
1587.82	22.5
1588.86	27
1589.91	27.5
1590.95	26.5
1591.99	25.5
1593.04	26
1594.08	26.5
1595.12	26
1596.16	26.5
1597.21	26.5
1598.25	23.5
1599.29	26
1600.33	21.5
1601.37	25.5
1602.42	26
1603.46	25
1604.5	25
1605.54	23.5
1606.58	26
1607.62	20
1608.66	22.5
1609.7	24
1610.74	26.5
1611.78	27
1612.82	25
1613.86	25
1614.9	28.5
1615.94	20.5
1616.98	27
1618.02	23
1619.06	23.5
1620.1	26.5
1621.14	23.5
1622.18	29
1623.21	26
1624.25	27
1625.29	28.5
1626.33	24.5
1627.37	25
1628.4	29.5
1629.44	26
1630.48	27.5
1631.52	25.5
1632.55	27
1633.59	25
1634.63	28
1635.66	27.5
1636.7	31
1637.73	24
1638.77	25.5
1639.81	25
1640.84	21
1641.88	26
1642.91	25
1643.95	25
1644.98	26
1646.02	24
1647.05	28
1648.09	25.5
1649.12	27
1650.16	22.5
1651.19	26
1652.22	25.5
1653.26	26
1654.29	26
1655.32	25.5
1656.36	24.5
1657.39	25.5
1658.42	26.5
1659.46	22.5
1660.49	26.5
1661.52	25
1662.55	27
1663.59	27.5
1664.62	22
1665.65	25
1666.68	25
1667.71	19.5
1668.74	22.5
1669.77	27
1670.81	25
1671.84	25
1672.87	26.5
1673.9	26.5
1674.93	23.5
1675.96	30
1676.99	24.5
1678.02	23.5
1679.05	24
1680.08	26
1681.11	25
1682.13	25.5
1683.16	28.5
1684.19	30.5
1685.22	26
1686.25	26
1687.28	25
1688.31	25
1689.33	25
1690.36	26.5
1691.39	21
1692.42	24.5
1693.45	28
1694.47	25
1695.5	26
1696.53	25.5
1697.55	24
1698.58	23.5
1699.61	25
1700.63	22
1701.66	26.5
1702.68	24
1703.71	23
1704.74	26.5
1705.76	28
1706.79	23
1707.81	27
1708.84	24.5
1709.86	25.5
1710.89	22
1711.91	25.5
1712.94	23
1713.96	23
1714.98	24
1716.01	23
1717.03	24
1718.05	25.5
1719.08	27.5
1720.1	27.5
1721.12	27.5
1722.15	24.5
1723.17	28.5
1724.19	28.5
1725.22	24.5
1726.24	25
1727.26	25.5
1728.28	29
1729.3	25.5
1730.32	25
1731.35	24.5
1732.37	26
1733.39	28.5
1734.41	22.5
1735.43	25
1736.45	24
1737.47	24
1738.49	22.5
1739.51	25.5
1740.53	22.5
1741.55	21.5
1742.57	26
1743.59	23
1744.61	22.5
1745.63	25
1746.65	22.5
1747.67	27
1748.69	25
1749.71	23.5
1750.72	29
1751.74	25.5
1752.76	26
1753.78	26
1754.8	25
1755.81	26
1756.83	26
1757.85	24
1758.87	21
1759.88	27
1760.9	25.5
1761.92	24
1762.93	27
1763.95	27.5
1764.97	24
1765.98	28.5
1767	25.5
1768.01	22.5
1769.03	24.5
1770.05	27
1771.06	23
1772.08	24
1773.09	25.5
1774.11	27.5
1775.12	25
1776.13	29.5
1777.15	27.5
1778.16	26
1779.18	24
1780.19	25
1781.2	24
1782.22	26
1783.23	27
1784.24	24
1785.26	28
1786.27	24
1787.28	25.5
1788.3	23
1789.31	28
1790.32	20
1791.33	23.5
1792.35	21
1793.36	25.5
1794.37	27
1795.38	21
1796.39	27
1797.4	27.5
1798.41	24
1799.43	25
1800.44	25.5
1801.45	26.5
1802.46	23.5
1803.47	22.5
1804.48	27
1805.49	24.5
1806.5	25
1807.51	24
1808.52	24.5
1809.53	22
1810.53	26.5
1811.54	26
1812.55	25
1813.56	27
1814.57	27.5
1815.58	23.5
1816.59	24.5
1817.6	22.5
1818.6	24.5
1819.61	25
1820.62	26.5
1821.63	22
1822.63	19.5
1823.64	22.5
1824.65	25
1825.65	22
1826.66	20.5
1827.67	25
1828.67	25
1829.68	27.5
1830.69	22.5
1831.69	19
1832.7	23
1833.7	26
1834.71	23
1835.71	27.5
1836.72	31.5
1837.72	22
1838.73	23.5
1839.73	23.5
1840.74	28.5
1841.74	24
1842.75	26.5
1843.75	24.5
1844.75	22
1845.76	20.5
1846.76	23
1847.76	24.5
1848.77	18.5
1849.77	23.5
1850.77	23.5
1851.78	24.5
1852.78	24.5
1853.78	24.5
1854.78	26.5
1855.79	22.5
1856.79	27.5
1857.79	24
1858.79	24.5
1859.79	23.5
1860.8	25
1861.8	25
1862.8	24.5
1863.8	24.5
1864.8	30
1865.8	28.5
1866.8	23.5
1867.8	24
1868.8	26.5
1869.8	25.5
1870.8	29.5
1871.8	27
1872.8	21
1873.8	27
1874.8	25
1875.8	28
1876.8	24
1877.8	25.5
1878.79	25
1879.79	27.5
1880.79	22.5
1881.79	26
1882.79	25.5
1883.79	25.5
1884.78	27.5
1885.78	25.5
1886.78	23.5
1887.77	22
1888.77	20
1889.77	27.5
1890.77	23.5
1891.76	23
1892.76	22.5
1893.76	28
1894.75	27.5
1895.75	26
1896.74	23
1897.74	26.5
1898.73	25.5
1899.73	25.5
1900.72	23
1901.72	22.5
1902.72	26
1903.71	20
1904.7	24
1905.7	24
1906.69	24.5
1907.69	27.5
1908.68	30.5
1909.67	23
1910.67	26
1911.66	23.5
1912.66	28
1913.65	21.5
1914.64	24
1915.63	24.5
1916.63	27
1917.62	27.5
1918.61	26
1919.6	23
1920.6	24
1921.59	21
1922.58	25.5
1923.57	22.5
1924.56	27
1925.56	20.5
1926.55	24.5
1927.54	25
1928.53	25.5
1929.52	25
1930.51	21
1931.5	23.5
1932.49	23.5
1933.48	23
1934.47	26
1935.46	24
1936.45	26.5
1937.44	27.5
1938.43	24.5
1939.42	26.5
1940.41	24.5
1941.4	27.5
1942.39	23
1943.37	24
1944.36	25
1945.35	22
1946.34	23.5
1947.33	25.5
1948.32	24.25
1949.3	22
1950.29	25
1951.28	27
1952.27	25
1953.25	24
1954.24	25.5
1955.23	23.5
1956.21	25.5
1957.2	24
1958.19	25
1959.17	25.5
1960.16	22
1961.14	23
1962.13	23.5
1963.12	21.5
1964.1	24.5
1965.09	27
1966.07	26.5
1967.06	26.5
1968.04	25
1969.03	26
1970.01	22
1970.99	23
1971.98	24
1972.96	23
1973.95	26
1974.93	22
1975.92	21
1976.9	23.5
1977.88	23.5
1978.87	25.5
1979.85	20.5
1980.83	23
1981.81	27
1982.8	22.5
1983.78	25.5
1984.76	21
1985.74	27
1986.73	27.5
1987.71	25.5
1988.69	25.5
1989.67	25.5
1990.65	21.5
1991.63	28
1992.61	23.5
1993.59	24.5
1994.58	21
1995.56	28.5
1996.54	27
1997.52	23
1998.5	24.5
1999.48	20
2000.46	22
2001.44	24
2002.42	21.5
2003.4	26
2004.38	23
2005.35	25
2006.33	25
2007.31	24.5
2008.29	25.5
2009.27	28
2010.25	23
2011.23	22.5
2012.2	26
2013.18	24.5
2014.16	28
2015.14	25.5
2016.11	25.5
2017.09	22.5
2018.07	20
2019.05	25
2020.02	23.5
2021	24.5
2021.98	21.5
2022.95	25
2023.93	25.5
2024.91	25.5
2025.88	24
2026.86	23
2027.83	24.5
2028.81	24.5
2029.78	26.5
2030.76	22
2031.73	21.5
2032.71	24
2033.68	23
2034.66	24.5
2035.63	22
2036.61	26
2037.58	24
2038.56	22.5
2039.53	22.5
2040.5	25
2041.48	24
2042.45	23
2043.42	25
2044.4	23.5
2045.37	24
2046.34	25
2047.32	23.5
2048.29	24
2049.26	23
2050.23	29.5
2051.2	21
2052.18	25
2053.15	26
2054.12	21.5
2055.09	22.5
2056.06	23.5
2057.03	24
2058	24
2058.98	20
2059.95	24
2060.92	24.5
2061.89	24.5
2062.86	23
2063.83	24.5
2064.8	21.5
2065.77	25.5
2066.74	25
2067.71	25.5
2068.68	21
2069.65	27.5
2070.61	23.5
2071.58	24
2072.55	24
2073.52	23
2074.49	26.5
2075.46	24
2076.43	23.5
2077.4	21
2078.36	24.5
2079.33	26.5
2080.3	20
2081.27	22.5
2082.23	24.5
2083.2	23
2084.17	22
2085.13	23
2086.1	25
2087.07	18.5
2088.03	25.5
2089	20.5
2089.97	24
2090.93	24.5
2091.9	22
2092.86	21
2093.83	22.5
2094.8	24.5
2095.76	25.5
2096.73	22
2097.69	21
2098.66	24
2099.62	24
2100.58	22
2101.55	24.5
2102.51	23.5
2103.48	24.5
2104.44	22.5
2105.41	26.5
2106.37	20.5
2107.33	21
2108.3	23.5
2109.26	20
2110.22	29.5
2111.19	22
2112.15	22
2113.11	29
2114.07	23
2115.04	25
2116	26
2116.96	24
2117.92	22
2118.88	23
2119.85	26.5
2120.81	21
2121.77	25
2122.73	23
2123.69	22.5
2124.65	26.5
2125.61	20
2126.57	23
2127.53	24
2128.49	21.5
2129.45	23
2130.41	21
2131.37	24
2132.33	22
2133.29	23
2134.25	24
2135.21	26.5
2136.17	22.5
2137.13	24.5
2138.09	23.5
2139.05	25.5
2140.01	23
2140.96	26
2141.92	21
2142.88	26.4806
2143.84	23.4834
2144.8	26.4167
2145.75	23.0796
2146.71	21.098
2147.67	23.8996
2148.63	22.8268
2149.58	25.9606
2150.54	26.1895
2151.5	23.4893
2152.45	22.4815
2153.41	21.4074
2154.37	23.36
2155.32	23.5036
2156.28	21.0439
2157.23	23.38
2158.19	22.1453
2159.15	23.9186
2160.1	22.1183
2161.06	23.1224
2162.01	23.8034
2162.97	23.4633
2163.92	26.9623
2164.88	22.6979
2165.83	21.4869
2166.78	21.8585
2167.74	26.3911
2168.69	24.0608
2169.65	25.5715
2170.6	25.0188
2171.56	19.5911
2172.51	24.5825
2173.46	23.9429
2174.42	24.8009
2175.37	23.393
2176.32	20.8803
2177.28	22.7144
2178.23	22.745
2179.18	23.8899
2180.13	23.1192
2181.08	22.617
2182.04	25.5556
2182.99	19.0357
2183.94	21.5854
2184.89	22.2959
2185.84	22.1502
2186.8	22.6909
2187.75	19.0579
2188.7	21.9588
2189.65	23.5101
2190.6	23.1783
2191.55	22.995
2192.5	23.2392
2193.45	22.4248
2194.4	21.0025
2195.35	22.6917
2196.3	23.4482
2197.25	23.0548
2198.2	25.7272
2199.15	24.7296
2200.1	21.7053
2201.05	23.6574
2202	22.8368
2202.95	23.2075
2203.9	19.557
2204.85	22.6351
2205.79	21.5102
2206.74	22.2534
2207.69	23.7616
2208.64	20.894
2209.59	22.2095
2210.53	21.955
2211.48	20.5002
2212.43	20.8198
2213.38	23.1896
2214.32	22.767
2215.27	21.3032
2216.22	22.6625
2217.17	20.7047
2218.11	21.9041
2219.06	23.2146
2220.01	21.2631
2220.95	21.199
2221.9	21.6626
2222.84	22.8325
2223.79	23.9587
2224.73	22.3701
2225.68	18.3858
2226.63	25.2542
2227.57	24.326
2228.52	21.4773
2229.46	22.6966
2230.41	22.6212
2231.35	20.811
2232.3	22.7812
2233.24	21.5529
2234.18	23.6152
2235.13	24.023
2236.07	25.8589
2237.02	25.2957
2237.96	22.6824
2238.9	24.9703
2239.85	22.2169
2240.08	21
2241.03	21
2241.97	25
2242.92	23.5
2243.87	23.5
2244.82	21.5
2245.76	24
2246.71	23
2247.66	22
2248.61	22.5
2249.55	23.5
2250.5	25
2251.45	20
2252.39	23
2253.34	23.5
2254.29	22
2255.23	23
2256.18	21.5
2257.12	23
2258.07	21
2259.01	23
2259.96	26.5
2260.9	25
2261.85	24
2262.79	25.5
2263.74	18
2264.68	24
2265.63	25
2266.57	23.5
2267.52	26
2268.46	31
2269.41	23
2270.35	23
2271.29	22.5
2272.24	27.5
2273.18	22
2274.12	21.5
2275.07	25.5
2276.01	22
2276.95	22
2277.89	24
2278.84	23
2279.78	20.5
2280.72	22
2281.66	22.5
2282.6	22.5
2283.55	22.5
2284.49	22.5
2285.43	22
2286.37	25
2287.31	23
2288.25	21
2289.2	22.5
2290.14	21.5
2291.08	25
2292.02	25.5
2292.96	25.5
2293.9	20
2294.84	26
2295.78	24
2296.72	23
2297.66	24.5
2298.6	20.5
2299.54	22
2300.48	28
2301.42	19.5
2302.35	24.5
2303.29	18
2304.23	23.5
2305.17	25
2306.11	19.5
2307.05	25.5
2307.99	25
2308.92	23
2309.86	24.5
2310.8	24
2311.74	25.5
2312.67	23.5
2313.61	23.5
2314.55	20
2315.49	26.5
2316.42	23.5
2317.36	20
2318.3	20
2319.23	23
2320.17	26.5
2321.1	27
2322.04	25
2322.98	26.5
2323.91	23.5
2324.85	24.5
2325.78	25
2326.72	24.5
2327.66	23
2328.59	21
2329.52	24.5
2330.46	24
2331.39	26
2332.33	25.5
2333.26	23
2334.2	24.5
2335.13	21
2336.07	22
2337	25.5
2337.93	25
2338.87	24
2339.8	25
2340.73	21
2341.67	23
2342.6	22.5
2343.53	22.5
2344.46	19.5
2345.4	19
2346.33	23
2347.26	24.5
2348.19	24.5
2349.13	18
2350.06	23
2350.99	20.5
2351.92	21.5
2352.85	24.5
2353.79	21
2354.72	21.5
2355.65	25
2356.58	23.5
2357.51	25
2358.44	25.5
2359.37	24
2360.3	26.5
2361.23	20.5
2362.16	24
2363.09	23.5
2364.02	23.5
2364.95	25.5
2365.88	21.5
2366.81	24
2367.74	24
2368.67	24.5
2369.6	24
2370.53	17
2371.45	23.5
2372.38	26
2373.31	20
2374.24	21.5
2375.17	22
2376.1	26
2377.02	23
2377.95	24.5
2378.88	24.5
2379.81	23
2380.73	23
2381.66	20
2382.59	23
2383.52	19
2384.44	25
2385.37	20
2386.3	23.5
2387.22	23
2388.15	24.5
2389.07	23.5
2390	25.5
2390.93	23
2391.85	29.5
2392.78	24
2393.7	22
2394.63	27
2395.55	20
2396.48	23.5
2397.4	26
2398.33	26
2399.25	23.5
2400.18	22.5
2401.1	23
2402.03	22.5
2402.95	24.5
2403.87	28
2404.8	24
2405.72	25.5
2406.64	27
2407.57	19
2408.49	24
2409.41	25.5
2410.34	22.5
2411.26	25.5
2412.18	26.5
2413.1	23
2414.03	25
2414.95	25
2415.87	24
2416.79	22
2417.72	25
2418.64	24.5
2419.56	23
2420.48	27
2421.4	20.5
2422.32	22
2423.24	25.5
2424.16	22.5
2425.09	23.5
2426.01	21
2426.93	22
2427.85	23
2428.77	23
2429.69	27
2430.61	23
2431.53	22.5
2432.45	23
2433.37	25.5
2434.29	24.5
2435.21	28
2436.12	25.5
2437.04	27.5
2437.96	27
2438.88	21
2439.8	24.5
2440.72	26
2441.64	23.5
2442.55	25
2443.47	20.5
2444.39	21
2445.31	25
2446.23	25
2447.14	23
2448.06	24
2448.98	24
2449.9	25
2450.81	28.5
2451.73	23
2452.65	23.5
2453.56	25.5
2454.48	23.5
2455.39	26
2456.31	21.5
2457.23	24.5
2458.14	22.5
2459.06	22.5
2459.97	24
2460.89	22
2461.8	24
2462.72	27.5
2463.64	22.5
2464.55	24.5
2465.47	24.5
2466.38	22
2467.29	25
2468.21	24.5
2469.12	25
2470.04	19.5
2470.95	24
2471.86	26.5
2472.78	24.5
2473.69	20
2474.61	22.5
2475.52	23
2476.43	26
2477.35	23
2478.26	26
2479.17	26
2480.08	22
2481	25.5
2481.91	25
2482.82	26
2483.73	23
2484.64	25
2485.56	24
2486.47	24
2487.38	25.5
2488.29	25
2489.2	26
2490.11	22
2491.03	23
2491.94	26.5
2492.85	28
2493.76	26
2494.67	27
2495.58	27
2496.49	23.5
2497.4	25.5
2498.31	23.5
2499.22	26
2500.13	21
2501.04	25
2501.95	25.5
2502.86	26
2503.77	25
2504.67	24
2505.58	25.5
2506.49	25
2507.4	20.5
2508.31	23.5
2509.22	23
2510.13	22
2511.03	24
2511.94	20
2512.85	24.5
2513.76	25.5
2514.66	26.5
2515.57	27
2516.48	22
2517.39	25
2518.29	26
2519.2	24
2520.11	24
2521.01	24
2521.92	25.5
2522.83	24
2523.73	21
2524.64	24
2525.54	26
2526.45	21
2527.36	23.5
2528.26	26.5
2529.17	24.5
2530.07	21
2530.98	22.5
2531.88	23
2532.79	24.5
2533.69	22.5
2534.6	25
2535.5	24
2536.41	23.5
2537.31	21.5
2538.21	20.5
2539.12	26
2540.02	25
2540.93	21.5
2541.83	26.5
2542.73	23.5
2543.64	21.5
2544.54	23
2545.44	23
2546.34	23
2547.25	21
2548.15	29
2549.05	24
2549.96	28
2550.86	26.5
2551.76	24
2552.66	21
2553.56	22.5
2554.46	27
2555.37	24
2556.27	25
2557.17	26.5
2558.07	25.5
2558.97	27
2559.87	22.5
2560.77	24.5
2561.67	25.5
2562.57	24
2563.47	26
2564.37	23.5
2565.27	23
2566.17	25
2567.07	23.5
2567.97	23
2568.87	27
2569.77	24.5
2570.67	25
2571.57	27
2572.47	26
2573.37	25
2574.27	26
2575.17	24
2576.06	23.5
2576.96	23.5
2577.86	24
2578.76	25.5
2579.66	23
2580.56	23
2581.45	25.5
2582.35	25
2583.25	26
2584.15	25.5
2585.04	24
2585.94	24.5
2586.84	24.5
2587.73	26.5
2588.63	27
2589.53	22
2590.42	26.5
2591.32	20
2592.22	27
2593.11	23
2594.01	25
2594.9	26
2595.8	23.5
2596.69	26
2597.59	25
2598.48	25.5
2599.38	20
2600.28	23
2601.17	24.5
2602.06	23
2602.96	27
2603.85	24
2604.75	25
2605.64	27
2606.54	21
2607.43	21
2608.32	23.5
2609.22	24
2610.11	25.5
2611	20.5
2611.9	25
2612.79	22.5
2613.68	26
2614.58	22
2615.47	22
2616.36	24
2617.25	28
2618.15	24.5
2619.04	22.5
2619.93	25.5
2620.82	25
2621.71	23.5
2622.61	28
2623.5	26
2624.39	22
2625.28	25
2626.17	27
2627.06	18.5
2627.95	23
2628.84	25
2629.74	29
2630.63	23
2631.52	27.5
2632.41	25.5
2633.3	24
2634.19	26.5
2635.08	25.5
2635.97	22.5
2636.85	23.5
2637.74	24
2638.63	22
2639.52	24
2640.41	27
2641.3	25
2642.19	28
2643.08	24
2643.97	29
2644.86	25.5
2645.74	24
2646.63	24
2647.52	23.5
2648.41	24
2649.3	28.5
2650.18	27
2651.07	25
2651.96	23
2652.85	20.5
2653.73	23
2654.62	23.5
2655.51	19.5
2656.39	28
2657.28	26
2658.17	27
2659.05	27
2659.94	22
2660.83	25
2661.71	22.5
2662.6	25
2663.48	25
2664.37	24
2665.25	29
2666.14	21
2667.02	22
2667.91	23
2668.79	21.5
2669.68	27.5
2670.56	25
2671.45	26.5
2672.33	25.5
2673.22	21
2674.1	19.5
2674.98	24
2675.87	23.5
2676.75	22.5
2677.64	20
2678.52	26.5
2679.4	26
2680.29	27.5
2681.17	28
2682.05	26.5
2682.94	24
2683.82	26
2684.7	26.5
2685.58	27
2686.47	24
2687.35	19
2688.23	25.5
2689.11	19
2689.99	27
2690.88	19.5
2691.76	24
2692.64	22
2693.52	22.5
2694.4	26
2695.28	28
2696.16	25
2697.04	24.5
2697.92	20.5
2698.8	22
2699.69	24
2700.57	26.5
2701.45	25
2702.33	24.5
2703.21	25.5
2704.09	21
2704.97	27.5
2705.84	25
2706.72	25
2707.6	22
2708.48	23
2709.36	22.5
2710.24	25
2711.12	28
2712	24
2712.88	26.5
2713.75	25
2714.63	25
2715.51	21.5
2716.39	22.5
2717.27	24
2718.14	22.5
2719.02	27
2719.9	24.5
2720.78	23.5
2721.65	27.5
2722.53	25
2723.41	23
2724.28	23
2725.16	25
2726.04	20.5
2726.92	24
2727.79	25.5
2728.67	24
2729.54	22.5
2730.42	22
2731.3	23
2732.17	24.5
2733.05	23
2733.92	21
2734.8	24.5
2735.67	23
2736.55	27
2737.42	25.5
2738.3	22.5
2739.17	27
2740.05	23
2740.92	23
2741.79	27
2742.67	23
2743.54	23.5
2744.42	24
2745.29	24.5
2746.16	21.5
2747.04	22
2747.91	26
2748.78	21
2749.66	27
2750.53	23
2751.4	23.5
2752.28	24
2753.15	20
2754.02	21
2754.89	20
2755.77	22
2756.64	25.5
2757.51	26.5
2758.38	23
2759.25	27
2760.13	18
2761	24.5
2761.87	23
2762.74	23
2763.61	24
2764.48	26
2765.35	26.5
2766.22	22
2767.09	26
2767.96	24.5
2768.83	23
2769.71	20.5
2770.57	26.5
2771.44	19
2772.32	27
2773.18	23
2774.05	28
2774.92	25
2775.79	28.5
2776.66	29.5
2777.53	27.5
2778.4	26
2779.27	26.5
2780.14	22
2781.01	21
2781.87	26
2782.74	22
2783.61	27.5
2784.48	22.5
2785.35	26
2786.21	24
2787.08	25.5
2787.95	24
2788.82	27
2789.69	25.5
2790.55	25
2791.42	28
2792.29	24.5
2793.15	25
2794.02	25
2794.89	26.5
2795.75	23
2796.62	22
2797.49	20
2798.35	27
2799.22	25.5
2800.08	28
2800.95	27
2801.81	23
2802.68	29
2803.55	24.5
2804.41	28
2805.28	24.5
2806.14	27.5
2807	28
2807.87	28.5
2808.73	24.5
2809.6	27.5
2810.46	26
2811.33	28
2812.19	22
2813.06	25.5
2813.92	30.5
2814.78	26
2815.65	26
2816.51	24.5
2817.37	27.5
2818.24	25.5
2819.1	31.5
2819.96	26
2820.83	21
2821.69	25
2822.55	23.5
2823.41	28
2824.28	24.5
2825.14	28
2826	23.5
2826.86	27.5
2827.72	27.5
2828.58	24.5
2829.45	28
2830.31	22
2831.17	24.5
2832.03	24.5
2832.89	25
2833.75	26.5
2834.61	25
2835.47	24
2836.33	22.5
2837.2	27
2838.05	21.5
2838.92	25
2839.78	26.5
2840.64	27
2841.49	27.5
2842.35	29.5
2843.21	27.5
2844.07	27.5
2844.93	21.5
2845.79	26
2846.65	24.5
2847.51	23.5
2848.37	27
2849.23	26
2850.09	29
2850.94	22.5
2851.8	26
2852.66	25.5
2853.52	25
2854.38	25
2855.23	30.5
2856.09	27.5
2856.95	28.5
2857.81	28
2858.67	25
2859.52	28.5
2860.38	29
2861.24	24
2862.09	25
2862.95	24
2863.81	24
2864.66	26
2865.52	28
2866.38	30.5
2867.23	26
2868.09	27.5
2868.94	27
2869.8	29
2870.65	29
2871.51	27.5
2872.37	29.5
2873.22	28.5
2874.08	32.5
2874.93	26
2875.79	31
2876.64	31.5
2877.49	29
2878.35	28.5
2879.2	34
2880.06	33.5
2880.91	31.5
2881.77	31.5
2882.62	33.5
2883.47	35
2884.33	32
2885.18	34
2886.03	32
2886.89	37.5
2887.74	35.5
2888.59	38
2889.45	40.5
2890.3	40
2891.15	41
2892	43
2892.86	45.5
2893.71	50.5
2894.56	48.5
2895.41	49.5
2896.27	49
2897.12	55.5
2897.97	47.5
2898.82	57
2899.67	60
2900.52	60
2901.37	64.5
2902.23	66.5
2903.08	67
2903.93	73
2904.78	70
2905.63	71
2906.48	73
2907.33	77
2908.18	71
2909.03	71
2909.88	63.5
2910.73	57.5
2911.58	58
2912.43	54
2913.28	50
2914.13	42
2914.98	49
2915.83	47
2916.67	44
2917.52	45
2918.37	37.5
2919.22	35.5
2920.07	34.5
2920.92	38.5
2921.77	38
2922.61	33
2923.46	27.5
2924.31	34
2925.16	34
2926	30.5
2926.85	31
2927.7	31
2928.55	31.5
2929.39	29
2930.24	32
2931.09	24
2931.94	28
2932.78	33
2933.63	31
2934.47	27
2935.32	28.5
2936.17	25
2937.01	28.5
2937.86	27
2938.7	24
2939.55	25
2940.4	30
2941.24	29.5
2942.09	31.5
2942.93	30.5
2943.78	30
2944.62	27
2945.47	31
2946.31	27
2947.16	30
2948	29.5
2948.84	35
2949.69	28
2950.53	29.5
2951.38	31.5
2952.22	32
2953.06	31
2953.91	31
2954.75	34.5
2955.59	34
2956.44	38
2957.28	38
2958.12	38
2958.97	41.5
2959.81	39
2960.65	41.5
2961.5	42.5
2962.34	44
2963.18	45.5
2964.02	46.5
2964.86	50
2965.71	43
2966.55	42.5
2967.39	40
2968.23	43.5
2969.07	43.5
2969.91	41
2970.75	36.5
2971.6	40.9782
2972.44	35.4745
2973.28	41.3502
2974.12	35.6079
2974.96	34.179
2975.8	36.8619
2976.64	29.8964
2977.48	33.3918
2978.32	32.6581
2979.16	32.3329
2980	31.6319
2980.84	29.8733
2981.68	27.4954
2982.52	31.7158
2983.36	28.9715
2984.2	24.1003
2985.04	25.9684
2985.88	26.1037
2986.71	24.2587
2987.55	29.4824
2988.39	24.5157
2989.23	24.3805
2990.07	26.2496
2990.91	24.1149
2991.75	26.4275
2992.58	26.0106
2993.42	26.0921
2994.26	23.1264
2995.1	27.6212
2995.93	27.7285
2996.77	24.1067
2997.61	26.3303
2998.45	23.1383
2999.28	22.2558
3000.12	22.3734
3000.96	23.7736
3001.79	22.3926
3002.63	23.4299
3003.47	22.1127
3004.3	22.1085
3005.14	24.2874
3005.98	24.2873
3006.81	23.6889
3007.65	25.692
3008.48	24.1714
3009.32	23.9773
3010.15	23.1453
3010.99	21.5802
3011.82	22.6677
3012.66	21.7994
3013.5	23.3485
3014.33	22.9132
3015.17	22.3321
3016	22.1637
3016.83	23.428
3017.67	23.413
3018.5	21.7889
3019.34	24.4502
3020.17	23.3022
3021.01	23.267
3021.84	22.3548
3022.67	22.24
3023.51	21.8034
3024.34	21.8296
3025.17	21.5514
3026.01	22.9102
3026.84	23.477
3027.67	24.5688
3028.51	24.3537
3029.34	25.0769
3030.17	22.5312
3031	20.8504
3031.84	21.2984
3032.67	23.2607
3033.5	22.788
3034.33	21.699
3035.17	21.7701
3036	22.9903
3036.83	23.3063
3037.66	22.839
3038.49	21.8091
3039.32	22.7178
3040.15	23.6476
3040.99	25.4002
3041.82	23.8773
3042.65	23.1961
3043.48	21.2532
3044.31	18.6343
3045.14	19.8319
3045.97	21.3552
3046.8	20.0978
3047.63	21.0209
3048.46	21.0277
3049.29	21.6137
3050.12	25.5519
3050.95	25.8961
3051.78	25.326
3052.61	22.8432
3053.44	22.6076
3054.27	22.6465
3055.1	24.8103
3055.92	23.324
3056.75	23.0768
3057.27	21.5
3058.11	25
3058.94	24
3059.77	21.5
3060.61	22
3061.44	26
3062.27	22
3063.11	17.5
3063.94	24.5
3064.77	20.5
3065.6	19.5
3066.43	23
3067.27	24
3068.1	23.5
3068.93	21.5
3069.76	23.5
3070.59	23
3071.42	29
3072.26	27.5
3073.09	22.5
3073.92	23
3074.75	23
3075.58	23
3076.41	21.5
3077.24	23
3078.07	21
3078.9	25
3079.73	23.5
3080.56	23
3081.39	19.5
3082.22	26
3083.05	19.5
3083.88	25.5
3084.71	27.5
3085.54	26
3086.37	23
3087.2	21.5
3088.03	27.5
3088.86	22
3089.69	22
3090.51	27
3091.34	22.5
3092.17	23.5
3093	22.5
3093.83	20
3094.66	24
3095.48	24.5
3096.31	19
3097.14	24.5
3097.97	25.5
3098.79	26
3099.62	25.5
3100.45	24
3101.28	23.5
3102.1	23
3102.93	24
3103.76	23
3104.58	26.5
3105.41	29
3106.24	26.5
3107.06	25
3107.89	20
3108.72	24
3109.54	28.5
3110.37	24.5
3111.19	25.5
3112.02	21.5
3112.84	23.5
3113.67	22
3114.49	26
3115.32	24.5
3116.15	20
3116.97	22.5
3117.8	27.5
3118.62	22
3119.44	25
3120.27	19
3121.09	26
3121.92	23
3122.74	25
3123.57	24.5
3124.39	22
3125.21	20
3126.04	22
3126.86	22
3127.68	26
3128.51	25.5
3129.33	21
3130.15	22
3130.98	23
3131.8	26.5
3132.62	21
3133.44	24
3134.27	24
3135.09	23
3135.91	21
3136.73	23
3137.56	20.5
3138.38	21.5
3139.2	27.5
3140.02	25
3140.84	24
3141.67	18
3142.49	25
3143.31	23
3144.13	24.5
3144.95	25
3145.77	25
3146.59	22
3147.41	17.5
3148.23	24
3149.05	24
3149.87	24
3150.69	26.5
3151.51	28.5
3152.33	22.5
3153.15	23.5
3153.97	23
3154.79	25
3155.61	21.5
3156.43	25
3157.25	26.5
3158.07	24.5
3158.89	21.5
3159.71	24.5
3160.53	21
3161.35	24
3162.17	22.5
3162.98	21
3163.8	21.5
3164.62	23
3165.44	24.5
3166.26	23.5
3167.07	22.5
3167.89	21
3168.71	22.5
3169.53	25.5
3170.35	19.5
3171.16	23.5
3171.98	24
3172.8	22.5
3173.61	25
3174.43	19.5
3175.25	25.5
3176.06	24.5
3176.88	21
3177.7	23.5
3178.51	24
3179.33	22
3180.15	22
3180.96	26.5
3181.78	24.5
3182.59	23
3183.41	24
3184.22	24
3185.04	26
3185.85	25.5
3186.67	21.5
3187.49	20
3188.3	20
3189.12	25.5
3189.93	23.5
3190.74	22.5
3191.56	27
3192.37	24.5
3193.19	24.5
3194	22
3194.82	19.5
3195.63	22.5
3196.44	24.5
3197.26	25
3198.07	21
3198.88	25
3199.7	22
3200.51	21.5
3201.32	26
3202.14	25.5
3202.95	28
3203.76	25
3204.58	23
3205.39	26
3206.2	22
3207.01	23.5
3207.83	22
3208.64	25
3209.45	24
3210.26	22
3211.07	17
3211.88	22
3212.7	20.5
3213.51	23
3214.32	24.5
3215.13	24.5
3215.94	24.5
3216.75	24.5
3217.56	23
3218.37	24.5
3219.18	22
3220	23
3220.8	25.5
3221.62	21
3222.43	22.5
3223.24	22
3224.05	22
3224.86	22
3225.67	23.5
3226.47	23
3227.28	23.5
3228.09	23.5
3228.9	21
3229.71	24
3230.52	26
3231.33	26
3232.14	22
3232.95	24.5
3233.76	24.5
3234.56	23
3235.37	23
3236.18	24
3236.99	24
3237.8	24
3238.61	25.5
3239.41	25.5
3240.22	24
3241.03	23.5
3241.84	21.5
3242.64	21.5
3243.45	24
3244.26	23
3245.07	23
3245.87	25
3246.68	24
3247.49	20.5
3248.29	24
3249.1	24
3249.9	23.5
3250.71	25.5
3251.52	25.5
3252.32	25.5
3253.13	24
3253.93	24.5
3254.74	26.5
3255.55	26
3256.35	24.5
3257.16	28.5
3257.96	27.5
3258.77	28
3259.57	21
3260.38	24
3261.18	22
3261.99	23.5
3262.79	28
3263.6	21.5
3264.4	26
3265.2	24
3266.01	25
3266.81	21
3267.62	25
3268.42	25
3269.22	23.5
3270.03	20.5
3270.83	24
3271.63	26
3272.44	20
3273.24	24.5
3274.04	25
3274.85	25
3275.65	24
3276.45	21
3277.25	21.5
3278.06	19
3278.86	26.5
3279.66	24.5
3280.46	24.5
3281.26	21.5
3282.07	21.5
3282.87	22
3283.67	21.5
3284.47	27
3285.27	24.5
3286.07	25.5
3286.87	26
3287.68	23.5
3288.48	20.5
3289.28	24.5
3290.08	22
3290.88	20
3291.68	22
3292.48	23
3293.28	22
3294.08	23
3294.88	25.5
3295.68	24
3296.48	26
3297.28	23
3298.08	24
3298.88	25
3299.68	22.5
3300.48	23.5
3301.28	20.5
3302.08	19.5
3302.88	22
3303.67	24.5
3304.47	26
3305.27	24
3306.07	24
3306.87	20
3307.67	19.5
3308.46	22.5
3309.26	28.5
3310.06	21
3310.86	25.5
3311.66	22
3312.45	22
3313.25	22.5
3314.05	25.5
3314.85	23
3315.64	23.5
3316.44	26.5
3317.24	25
3318.03	23.5
3318.83	24.5
3319.63	25
3320.42	25.5
3321.22	23
3322.02	23
3322.81	25
3323.61	22.5
3324.4	23
3325.2	27
3326	27.5
3326.79	21.5
3327.59	21.5
3328.38	27
3329.18	23
3329.97	22.5
3330.77	27
3331.56	20.5
3332.36	24
3333.15	22.5
3333.95	24
3334.74	25
3335.54	22.5
3336.33	21.5
3337.13	21
3337.92	21
3338.71	22
3339.51	29.5
3340.3	23.5
3341.1	25
3341.89	23.5
3342.68	25
3343.48	26
3344.27	21.5
3345.06	21
3345.85	20.5
3346.65	22
3347.44	25
3348.23	26
3349.03	22.5
3349.82	22
3350.61	22
3351.4	26
3352.19	20
3352.99	24
3353.78	25
3354.57	27.5
3355.36	25
3356.15	19
3356.94	21.5
3357.74	26
3358.53	22
3359.32	22.5
3360.11	22
3360.9	23
3361.69	24
3362.48	23
3363.27	21
3364.06	25.5
3364.85	24.5
3365.64	23.5
3366.43	25
3367.22	24
3368.01	27
3368.8	27
3369.59	22
3370.38	24
3371.17	24.5
3371.96	22
3372.75	23
3373.54	24
3374.33	26.5
3375.12	22.5
3375.91	30
3376.69	26.5
3377.48	24.5
3378.27	24.5
3379.06	24
3379.85	21
3380.64	26.5
3381.42	23.5
3382.21	23
3383	25.5
3383.79	22
3384.58	28
3385.36	21.5
3386.15	24.5
3386.94	26
3387.73	22.5
3388.51	22.5
3389.3	26
3390.09	24
3390.87	26
3391.66	24.5
3392.45	21.5
3393.23	22.5
3394.02	26
3394.81	23.5
3395.59	20.5
3396.38	25
3397.16	25
3397.95	22.5
3398.74	21.5
3399.52	22.5
3400.31	22.5
3401.09	19
3401.88	24.5
3402.66	22
3403.45	22
3404.23	22.5
3405.02	25
3405.8	25.5
3406.59	25
3407.37	27
3408.15	27
3408.94	24
3409.72	27
3410.51	22.5
3411.29	25.5
3412.07	26
3412.86	24
3413.64	22.5
3414.42	26
3415.21	21.5
3415.99	22
3416.78	23
3417.56	24.5
3418.34	24
3419.12	29
3419.91	25
3420.69	22.5
3421.47	25.5
3422.25	24
3423.04	24
3423.82	23
3424.6	23.5
3425.38	27
3426.16	23.5
3426.95	24.5
3427.73	21.5
3428.51	20
3429.29	23.5
3430.07	23
3430.85	23
3431.63	25.5
3432.42	24.5
3433.2	24
3433.98	21.5
3434.76	25.5
3435.54	22
3436.32	21.5
3437.1	23
3437.88	22
3438.66	27
3439.44	22
3440.22	25
3441	27
3441.78	23
3442.56	23
3443.34	24
3444.12	19
3444.9	23.5
3445.68	22.5
3446.45	26
3447.23	24.5
3448.01	25
3448.79	25
3449.57	23
3450.35	25
3451.13	26.5
3451.91	26
3452.68	22.5
3453.46	19
3454.24	23
3455.02	25
3455.79	23.5
3456.57	25.5
3457.35	23
3458.13	23
3458.91	20.5
3459.68	22
3460.46	21
3461.24	26.5
3462.01	21
3462.79	23.5
3463.57	23
3464.34	24.5
3465.12	25.5
3465.9	21.5
3466.67	24.5
3467.45	22
3468.22	24
3469	24
3469.78	25
3470.55	28
3471.33	23
3472.1	26.5
3472.88	21.5
3473.65	19.5
3474.43	25.5
3475.2	22.5
3475.98	23
3476.75	26.5
3477.53	22
3478.3	23
3479.08	30
3479.85	22
3480.63	24.5
3481.4	27
3482.18	24
3482.95	25
3483.72	23
3484.5	26
3485.27	21
3486.04	23
3486.82	25
3487.59	26
3488.36	25
3489.14	23.5
3489.91	26
3490.68	26
3491.46	24.5
3492.23	23
3493	21
3493.77	26.5
3494.55	22.5
3495.32	25
3496.09	19
3496.86	21.5
3497.64	23.5
3498.41	26
3499.18	23
3499.95	23
