#Acq. time (s)=	5
#Accumulations=	5
#Range (cm-¹)=	100...3500
#Windows=	4
#Autofocus=	Off
#AutoExposure=	Off
#Spike filter=	Multiple accum.
#Delay time (s)=	0
#Binning=	1
#Readout mode=	Signal
#DeNoise=	Off
#ICS correction=	Off
#Dark correction=	Off
#Inst. Process=	Off
#Instrument=	LabRAM HR Evol
#Detector=	Syncerity OE
#Objective=	x100_VIS
#Grating=	600 (500nm)
#ND Filter=	25%
#Laser=	633nm_Edge
#Hole=	100.021
#Range=	Visible
#Project=	verificaciones
#Sample=	a2
#Site=	lined
#Title=	bolusa2lined
#Remark=	
#Date=	12.01.2026 15:06
#Acquired=	12.01.2026 15:06:44
100.666	21.5
101.95	30
103.233	27.5
104.516	25
105.799	24
107.083	24.5
108.365	26.5
109.648	28.5
110.93	29.5
112.212	30
113.493	24.5
114.775	28.5
116.056	27
117.337	31
118.618	25
119.898	28
121.178	27.5
122.459	27
123.739	30.5
125.018	31
126.298	25
127.577	23
128.856	27.5
130.135	27.5
131.414	25.5
132.692	28
133.971	24
135.249	30
136.525	28
137.803	26.5
139.08	26.5
140.357	27
141.634	28
142.911	31.5
144.188	27
145.464	29
146.74	32
148.015	33
149.291	25.5
150.566	27.5
151.842	24
153.117	26.5
154.392	26.5
155.665	27.5
156.939	23.5
158.214	27.5
159.488	26.5
160.76	23.5
162.034	26
163.307	30.5
164.581	33.5
165.854	30
167.125	26
168.398	24
169.67	28.5
170.941	26
172.213	29
173.485	29.5
174.756	25.5
176.026	28.5
177.298	27
178.569	27
179.838	25.5
181.109	28
182.379	33
183.648	26
184.918	25
186.187	28.5
187.455	30
188.725	27.5
189.992	30.5
191.261	26.5
192.53	30.5
193.797	29.5
195.065	30
196.332	27.5
197.6	27.5
198.866	30.5
200.134	26.5
201.401	33.5
202.667	28
203.933	28.5
205.199	30
206.465	31
207.73	30
208.996	32
210.26	28.5
211.526	26
212.79	28.5
214.055	28
215.319	29
216.582	30.5
217.847	30
219.11	29
220.374	24.5
221.636	29.5
222.9	26.5
224.162	30
225.424	23.5
226.687	28
227.949	25.5
229.212	27
230.473	27.5
231.734	25
232.996	30
234.256	29.5
235.517	26.5
236.778	30.5
238.038	26.5
239.298	29
240.559	30.5
241.818	26
243.077	28
244.337	27.5
245.596	25.5
246.854	26
248.113	21
249.372	26
250.63	30
251.887	23
253.145	26.5
254.404	27
255.661	30.5
256.917	27
258.174	29
259.432	28
260.688	31
261.944	25
263.2	30
264.456	28.5
265.711	26
266.968	26
268.223	24
269.477	30
270.732	30
271.986	25
273.24	25
274.494	26.5
275.748	27
277.003	25
278.257	24.5
279.51	21
280.763	28
282.015	26
283.268	27
284.52	28
285.773	25
287.024	25
288.276	31
289.528	26.5
290.779	22
292.03	27
293.281	25.5
294.532	25
295.782	26
297.033	28.5
298.283	21.5
299.533	23.5
300.783	22
302.032	26.5
303.281	21.5
304.531	27.5
305.78	27
307.028	29
308.275	29
309.524	29.5
310.772	27.5
312.02	25.5
313.267	25.5
314.515	27
315.762	22.5
317.009	26.5
318.255	26.5
319.501	31
320.748	33.5
321.994	28
323.24	26
324.486	28
325.731	25.5
326.976	27
328.221	27.5
329.466	28
330.71	23
331.955	25
333.199	29
334.443	23.5
335.686	31.5
336.93	27.5
338.174	25.5
339.417	25
340.659	29
341.902	28.5
343.145	23.5
344.386	27.5
345.629	29.5
346.871	33
348.112	31.5
349.354	25
350.595	24
351.836	27
353.077	27.5
354.318	30
355.557	22
356.798	25
358.037	29.5
359.277	27
360.518	29.5
361.756	26
362.996	25
364.234	19
365.473	28.5
366.711	26
367.95	28
369.187	26.5
370.426	27
371.662	31
372.901	27
374.137	26
375.375	27
376.611	29.5
377.848	25
379.084	28.5
380.321	26.5
381.556	25.5
382.793	27
384.027	24
385.264	30
386.498	27
387.732	27
388.968	25.5
390.202	26.5
391.437	28
392.671	26.5
393.904	28
395.138	27
396.371	26
397.604	28.5
398.838	28.5
400.07	27.5
401.302	26
402.536	28
403.768	28.5
404.999	25.5
406.232	27
407.463	28.5
408.694	29
409.925	28.5
411.157	27.5
412.387	22
413.617	30
414.847	25.5
416.078	26.5
417.308	27
418.537	28.5
419.767	24.5
420.997	30
422.226	25.5
423.454	28
424.683	27.5
425.911	27
427.139	25
428.368	27
429.596	25.5
430.823	25
432.05	25
433.277	30
434.504	23.5
435.731	24
436.957	24.5
438.185	27.5
439.411	26.5
440.637	27.5
441.862	22
443.088	26
444.313	27
445.538	28
446.763	28
447.988	24.5
449.212	28
450.436	28.5
451.661	31.5
452.884	27.5
454.108	28
455.332	25.5
456.555	29
457.778	28.5
459.001	29
460.224	26
461.446	28
462.668	25.5
463.891	30
465.111	27
466.333	28.5
467.554	28.5
468.776	23.5
469.997	26
471.218	31
472.439	29
473.659	28
474.878	27
476.098	31
477.318	27.5
478.538	29.5
479.758	33
480.977	28
482.195	31
483.414	27
484.633	33
485.851	33
487.07	34.5
488.287	31
489.505	37
490.723	32
491.94	31
493.156	33.5
494.374	33
495.591	32.5
496.806	32
498.023	33.5
499.239	29.5
500.456	28
501.67	31
502.886	27
504.102	30.5
505.316	29
506.531	28
507.745	26.5
508.96	29
510.175	30.5
511.388	27.5
512.602	26
513.815	27
515.029	26
516.243	21.5
517.455	27
518.669	26
519.88	29
521.093	30.5
522.305	31
523.518	27.5
524.729	29.5
525.941	27
527.151	28.5
528.363	28.5
529.574	24
530.785	26.5
531.995	29.5
533.206	27.5
534.416	29
535.626	25.5
536.835	27
538.046	27.5
539.254	30
540.463	25.5
541.673	25.5
542.881	25
544.09	23
545.298	25
546.506	28
547.714	28
548.922	26
550.13	28
551.337	27
552.544	28.5
553.751	27
554.958	24
556.164	25.5
557.37	26
558.577	27.5
559.782	28.5
560.987	28
562.194	30
563.399	25.5
564.604	26.5
565.808	23
567.014	27.5
568.218	28
569.422	29.5
570.626	28
571.829	28.5
573.034	28.5
574.237	27.5
575.44	33
576.643	27.5
577.846	27
579.048	25.5
580.252	26
581.454	27
582.656	25
583.857	28.5
585.059	24.5
586.26	27.5
587.461	28
588.662	29
589.863	30.5
591.065	24
592.265	26
593.465	25
594.665	29.5
595.865	28
597.065	29.5
598.264	28.5
599.463	25.5
600.662	25.5
601.861	28.5
603.06	25.5
604.258	30
605.457	31
606.655	32.5
607.853	31.5
609.05	27.5
610.248	27
611.444	30
612.641	30.5
613.838	31
615.034	25.5
616.231	31
617.427	25
618.624	29.5
619.82	26
621.015	27
622.21	26.5
623.405	27
624.6	24.5
625.795	28
626.99	28
628.185	26.5
629.378	30.5
630.572	26
631.766	29.5
632.96	27.5
634.154	23
635.346	22
636.54	25
637.733	25
638.926	27
640.117	25.5
641.31	24.5
642.502	28
643.693	27
644.885	32
646.077	28.5
647.267	27.5
648.459	25
649.65	27.5
650.84	26
652.031	28.5
653.222	30.5
654.411	26.5
655.601	28.5
656.791	29
657.98	28
659.17	32
660.358	31
661.547	28.5
662.737	27.5
663.924	33
665.113	28.5
666.3	28
667.489	28
668.676	25
669.864	28
671.05	28.5
672.238	31.5
673.424	25.5
674.612	27.5
675.798	24
676.985	29
678.17	28.5
679.357	26.5
680.542	28.5
681.728	27.5
682.913	28.5
684.097	27.5
685.283	28
686.467	28.5
687.652	28.5
688.836	27
690.02	24
691.205	30
692.388	26
693.571	27.5
694.755	29.5
695.938	28.5
697.12	35
698.304	30.5
699.486	30.5
700.668	29.5
701.851	23.5
703.032	31
704.214	34
705.395	34
706.577	28.5
707.758	35.5
708.939	26
710.119	32
711.301	32.5
712.481	29
713.661	30
714.84	29
716.02	29.5
717.201	28
718.38	30.5
719.559	25
720.737	30
721.916	25
723.094	28
724.274	29.5
725.452	25.5
726.63	29
727.808	29.5
728.985	29
730.162	24
731.339	28
732.516	30.5
733.693	31
734.87	26
736.046	26
737.222	28.5
738.398	30
739.574	24.5
740.75	25
741.925	27
743.1	28
744.276	26
745.45	25.5
746.625	24
747.8	30
748.974	26.5
750.148	28.5
751.322	24.5
752.496	25
753.67	29
754.843	24.5
756.016	27.5
757.189	31
758.362	26
759.534	26
760.706	31
761.878	27
763.051	29.5
764.223	24.5
765.394	26
766.565	25
767.736	28
768.907	27.5
770.078	28
771.249	27
772.419	27
773.589	27.5
774.759	30
775.93	23
777.098	29.5
778.268	29
779.438	27.5
780.607	30
781.775	30.5
782.944	26
784.113	24.5
785.28	25
786.449	27
787.617	27
788.784	28
789.952	27
791.12	31.5
792.286	27
793.453	27
794.62	22
795.786	27
796.953	28.5
798.118	29
799.285	29.5
800.45	26
801.616	27
802.782	28
803.946	26.5
805.112	24
806.276	29.5
807.441	23
808.605	26.5
809.77	27.5
810.933	27
812.098	31
813.261	26
814.425	30.5
815.588	27.5
816.75	29
817.914	27.5
819.076	26.5
820.239	23
821.401	28
822.564	27
823.725	27.5
824.886	26
826.048	24.5
827.209	26.5
828.37	27.5
829.532	23
830.692	27
831.852	24.5
833.013	24
834.173	23
835.333	28
836.493	28
837.653	26.5
838.812	28.5
839.972	24
841.13	27
842.289	27.5
843.447	24
844.607	27.5
845.765	28
846.922	29
848.08	29.5
849.237	27.5
850.396	28
851.553	24.5
852.71	24
853.867	26.5
855.023	28
856.179	25.5
857.337	27.5
858.493	25.5
859.649	24.5
860.804	26
861.96	25
863.115	29.5
864.27	27
865.425	24
866.58	27
867.734	29
868.888	23
870.043	27
871.197	28.5
872.35	24
873.504	24
874.658	31
875.811	25
876.964	25.5
878.117	26.5
879.27	27
880.422	24
881.575	32
882.727	27.5
883.879	22.5
885.031	30
886.182	27
887.334	28
888.485	26.5
889.636	28
890.787	29
891.937	23.5
893.088	24.5
894.238	27.5
895.388	25.5
896.538	26
897.688	26
898.837	25
899.986	27
901.136	26.5
902.285	24
903.434	27.5
904.581	26
905.73	29
906.878	25
908.027	27
909.174	27
910.321	22.5
911.469	26
912.617	29
913.763	28.5
914.91	28
916.057	23
917.203	28
918.35	27
919.496	27.5
920.641	24.5
921.787	24
922.933	26
924.078	24.5
925.224	22.5
926.368	25
927.513	25
928.658	29.5
929.802	25.5
930.946	26
932.09	26
933.234	26
934.377	22.5
935.521	26
936.664	23.5
937.807	27
938.95	24.5
940.093	26.5
941.235	26.5
942.378	27
943.519	26
944.662	24
945.803	23
946.946	23
948.086	27.5
949.227	24.5
950.369	29.5
951.509	25
952.651	24.5
953.79	24
954.93	25
956.071	30.5
957.211	22
958.35	26
959.49	23.5
960.629	24.5
961.768	27.5
962.908	24
964.046	27.5
965.184	27
966.323	26
967.461	24
968.599	24.5
969.736	27
970.875	28.75
972.012	28.5
973.149	25.5
974.286	24.5
975.424	29.5
976.56	25.5
977.697	26.5
978.833	23
979.969	31
981.104	27.5
982.241	29
983.377	28.5
984.512	26
985.647	27.5
986.782	26.5
987.916	24
989.051	24
990.185	22.5
991.321	22.5
992.455	26
993.589	22
994.722	28
995.856	23.5
996.989	28
998.122	26
999.255	28.5
1000.39	20
1001.52	25.5
1002.65	30
1003.79	23.5
1004.92	26
1006.05	28
1007.18	27.5
1008.31	29.5
1009.44	23
1010.57	26
1011.7	24
1012.84	28
1013.97	26.5
1015.1	27
1016.23	26.5
1017.36	24
1018.49	27.5
1019.62	23.5
1020.75	20.5
1021.88	27
1023	27
1024.13	27.5
1025.26	24
1026.39	29.5
1027.52	26
1028.65	27.5
1029.78	25
1030.9	25
1032.03	23
1033.16	23
1034.29	28
1035.41	25
1036.54	25.5
1037.67	28.5
1038.79	26
1039.92	24
1041.04	27
1042.17	23
1043.3	24
1044.42	27.5
1045.55	26
1046.67	24
1047.8	23
1048.92	26
1050.05	25
1051.17	25
1052.3	24.5
1053.42	23.5
1054.54	23.5
1055.67	24.5
1056.79	28
1057.91	29
1059.04	22.5
1060.16	23.5
1061.28	24.5
1062.41	25
1063.53	23
1064.65	26.5
1065.77	28
1066.9	29
1068.02	27.5
1069.14	25
1070.26	17.5
1071.38	26
1072.5	26
1073.62	24.5
1074.74	25
1075.86	28.5
1076.98	23
1078.1	24.5
1079.22	20.5
1080.34	25.5
1081.46	28.5
1082.58	25.5
1083.7	24
1084.82	24
1085.94	26
1087.06	22
1088.18	25
1089.29	24.5
1090.41	26.5
1091.53	22
1092.65	25
1093.77	23.5
1094.88	26
1096	30
1097.12	27
1098.23	26.5
1099.35	24
1100.47	21.5
1101.58	25
1102.7	23.5
1103.82	24
1104.93	26
1106.05	24
1107.16	24
1108.28	26
1109.39	26
1110.51	26
1111.62	26.5
1112.74	25.5
1113.85	27.5
1114.96	27.5
1116.08	23.5
1117.19	27
1118.31	25.5
1119.42	26
1120.53	26
1121.65	26
1122.76	26
1123.87	25
1124.98	21
1126.1	22
1127.21	24.5
1128.32	26.5
1129.43	24.5
1130.54	23
1131.65	27
1132.76	26
1133.88	25.5
1134.99	21
1136.1	26
1137.21	25
1138.32	24.5
1139.43	21
1140.54	24
1141.65	24.5
1142.76	24.5
1143.87	20.5
1144.98	22.5
1146.08	26
1147.19	24.5
1148.3	25
1149.41	22
1150.52	23.5
1151.63	27
1152.73	26
1153.84	26.5
1154.95	21
1156.06	25
1157.17	21
1158.27	24
1159.38	24.5
1160.49	22.5
1161.59	23
1162.7	26
1163.8	25
1164.91	26
1166.02	30
1167.12	24.5
1168.23	30
1169.33	29
1170.44	21
1171.54	26
1172.65	23.5
1173.75	23
1174.86	26
1175.96	21
1177.06	26
1178.17	24
1179.27	29
1180.37	25.5
1181.48	23
1182.58	21
1183.68	23
1184.79	22.5
1185.89	26.5
1186.99	21.5
1188.09	25
1189.2	26
1190.3	22
1191.4	27.5
1192.5	23
1193.6	24.5
1194.7	22.5076
1195.8	24.9566
1196.9	23.6092
1198.01	26.5247
1199.11	22.0709
1200.21	25.318
1201.31	24.3681
1202.41	25.2705
1203.5	24.4518
1204.6	23.969
1205.7	26.6962
1206.8	22.867
1207.9	26.5299
1209	19.8104
1210.1	27.3112
1211.2	27.7961
1212.3	23.5194
1213.39	20.2768
1214.49	24.7586
1215.59	25.0947
1216.69	27.0129
1217.78	22.6869
1218.88	24.2019
1219.98	25.05
1221.08	25.648
1222.17	25.6944
1223.27	26.6282
1224.37	23.6885
1225.46	21.7435
1226.56	26.7264
1227.65	24.3224
1228.75	22.2878
1229.84	25.7646
1230.94	23.7513
1232.03	22.2898
1233.13	24.1718
1234.22	24.0255
1235.32	24.4946
1236.41	22.7337
1237.51	24.0374
1238.6	22.006
1239.69	24.8019
1240.79	26.9624
1241.88	25.0211
1242.97	23.7741
1244.07	24.7081
1245.16	27.2626
1246.25	25.2119
1247.35	22.9362
1248.44	24.766
1249.53	24.466
1250.62	21.566
1251.71	24.1911
1252.81	22.7626
1253.9	22.2217
1254.99	24.9558
1256.08	24.0354
1257.17	24.8648
1258.26	22.8723
1259.35	25.456
1260.44	22.6351
1261.53	23.1897
1262.62	24.0974
1263.71	24.7147
1264.8	21.9096
1265.89	22.4786
1266.98	24.3639
1268.07	22.1003
1269.16	20.1969
1270.25	22.5276
1271.34	22.6939
1272.43	24.3708
1273.52	19.8265
1274.6	23.9712
1275.69	22.378
1276.78	23.7151
1277.87	23.0098
1278.95	23.4467
1280.04	23.1153
1281.13	21.9768
1282.22	21.1796
1283.3	22.8024
1284.39	24.3949
1285.48	22.7299
1286.56	22.3083
1287.65	25.7949
1288.73	25.1248
1289.82	25.8834
1290.91	22.2163
1291.99	23.3936
1293.08	23.6756
1294.16	24.675
1295.24	25.285
1296.33	22.7338
1297.41	23.1336
1298.5	23.8461
1299.58	24.8203
1300.67	22.1058
1301.75	23.2505
1302.83	25.7523
1303.92	25.0916
1305	20.9569
1306.08	22.0095
1306.4	23
1307.49	26
1308.58	22.5
1309.66	23.5
1310.75	24.5
1311.84	25.5
1312.93	19
1314.01	25.5
1315.1	25.5
1316.19	26
1317.27	24
1318.36	26.5
1319.45	22.5
1320.53	22.5
1321.62	26.5
1322.71	24.5
1323.79	22
1324.88	23.5
1325.96	21.5
1327.05	23
1328.13	22
1329.22	22.5
1330.3	25
1331.39	24
1332.47	24.5
1333.55	22.5
1334.64	26
1335.72	23.5
1336.81	20.5
1337.89	25
1338.97	23
1340.06	22
1341.14	24
1342.22	26.5
1343.3	22
1344.39	21
1345.47	22
1346.55	24.5
1347.63	25.5
1348.71	23
1349.8	25
1350.88	23
1351.96	19
1353.04	24.5
1354.12	22
1355.2	23.5
1356.28	24.5
1357.36	27
1358.44	24.5
1359.52	24
1360.6	26.5
1361.68	25
1362.76	22.5
1363.84	23
1364.92	24
1366	23
1367.08	24.5
1368.16	25
1369.23	27.5
1370.31	22.5
1371.39	22.5
1372.47	24.5
1373.55	26
1374.62	24
1375.7	29
1376.78	27.5
1377.86	25
1378.93	23
1380.01	26
1381.09	24.5
1382.16	24
1383.24	22.5
1384.32	24
1385.39	21.5
1386.47	26.5
1387.54	24
1388.62	24
1389.69	25.5
1390.77	22
1391.84	21
1392.92	26.5
1393.99	24
1395.07	24
1396.14	24
1397.21	24
1398.29	23.5
1399.36	26
1400.44	25
1401.51	24.5
1402.58	26.5
1403.66	27
1404.73	24.5
1405.8	26
1406.87	26
1407.95	23
1409.02	24.5
1410.09	26.5
1411.16	21
1412.23	21.5
1413.3	25
1414.38	29.5
1415.45	26
1416.52	22
1417.59	23.5
1418.66	27.5
1419.73	26
1420.8	26
1421.87	21
1422.94	29
1424.01	25
1425.08	26
1426.15	27
1427.22	22.5
1428.29	26.5
1429.36	21
1430.43	24.5
1431.49	26.5
1432.56	22
1433.63	20
1434.7	25.5
1435.77	31.5
1436.83	24
1437.9	29.5
1438.97	20
1440.04	27.5
1441.1	26.5
1442.17	22
1443.24	26.5
1444.3	21
1445.37	23.5
1446.44	24.5
1447.5	23
1448.57	24
1449.63	26.5
1450.7	25
1451.77	24.5
1452.83	29
1453.9	23
1454.96	24
1456.03	23
1457.09	24
1458.15	21
1459.22	24
1460.28	24.5
1461.35	22
1462.41	21
1463.47	25.5
1464.54	25.5
1465.6	24
1466.66	24
1467.73	26.5
1468.79	29.5
1469.85	22
1470.91	19
1471.98	27
1473.04	27
1474.1	22.5
1475.16	26
1476.22	24
1477.28	24
1478.35	24
1479.41	25
1480.47	24
1481.53	27.5
1482.59	25
1483.65	21
1484.71	23.5
1485.77	28
1486.83	29
1487.89	26.5
1488.95	22
1490.01	22
1491.07	28
1492.13	28
1493.18	20.5
1494.24	27
1495.3	26
1496.36	24
1497.42	24.5
1498.48	26
1499.53	22.5
1500.59	23.5
1501.65	24
1502.71	25.5
1503.76	23.5
1504.82	27
1505.88	25.5
1506.93	21.5
1507.99	23
1509.05	28
1510.1	22.5
1511.16	26.5
1512.21	27
1513.27	23.5
1514.33	22.5
1515.38	26.5
1516.44	22
1517.49	26.5
1518.55	25.5
1519.6	24
1520.66	24.5
1521.71	21.5
1522.76	27.5
1523.82	21
1524.87	23.5
1525.93	26.5
1526.98	25.5
1528.03	26.5
1529.08	23
1530.14	25.5
1531.19	25
1532.24	24
1533.3	25
1534.35	25
1535.4	26
1536.45	26
1537.5	28
1538.56	22
1539.61	25
1540.66	24
1541.71	25
1542.76	24.5
1543.81	23.5
1544.86	21.5
1545.91	25
1546.96	26
1548.01	25
1549.06	22.5
1550.11	21
1551.16	23.5
1552.21	26.5
1553.26	23.5
1554.31	25.5
1555.36	23.5
1556.41	25
1557.46	24
1558.51	30
1559.56	20
1560.6	28
1561.65	25.5
1562.7	25
1563.75	29
1564.79	25.5
1565.84	23
1566.89	26
1567.94	29
1568.98	21
1570.03	24.5
1571.08	24
1572.12	27.5
1573.17	22
1574.22	22.5
1575.26	21
1576.31	26.5
1577.35	22
1578.4	24.5
1579.44	20
1580.49	23
1581.53	24.5
1582.58	24
1583.62	25.5
1584.67	24.5
1585.71	24
1586.76	27
1587.8	23.5
1588.84	22.5
1589.89	25.5
1590.93	27
1591.97	23.5
1593.02	25
1594.06	26
1595.1	22.5
1596.14	26
1597.19	24.5
1598.23	23.5
1599.27	29
1600.31	24.5
1601.36	26
1602.4	25.5
1603.44	26.5
1604.48	23
1605.52	24
1606.56	25
1607.6	22.5
1608.64	25
1609.68	21.5
1610.72	23.5
1611.76	21
1612.81	24.5
1613.84	22.5
1614.88	25.5
1615.92	26.5
1616.96	26.5
1618	28
1619.04	24.5
1620.08	25
1621.12	28
1622.16	28
1623.2	27.5
1624.23	27
1625.27	22
1626.31	26
1627.35	25.5
1628.39	27.5
1629.42	24.5
1630.46	24
1631.5	26
1632.53	24
1633.57	27
1634.61	21.5
1635.64	22
1636.68	26
1637.72	24.5
1638.75	27.5
1639.79	24.5
1640.82	22.5
1641.86	23
1642.89	21
1643.93	25.5
1644.96	21.5
1646	25.5
1647.03	26
1648.07	27
1649.1	27.5
1650.14	23.5
1651.17	24.5
1652.21	24
1653.24	24
1654.27	23
1655.31	23.5
1656.34	26.5
1657.37	25.5
1658.41	25.5
1659.44	24
1660.47	24.5
1661.5	24.5
1662.53	27.5
1663.57	26
1664.6	28
1665.63	27.5
1666.66	20.5
1667.69	22
1668.72	22
1669.76	26
1670.79	24
1671.82	25
1672.85	27.5
1673.88	23.5
1674.91	20
1675.94	25
1676.97	22
1678	25
1679.03	26
1680.06	24.5
1681.09	25.5
1682.12	26
1683.15	26
1684.17	27
1685.2	27
1686.23	26
1687.26	25
1688.29	26
1689.32	22.5
1690.34	26
1691.37	23.5
1692.4	30.5
1693.43	27.5
1694.45	23.5
1695.48	29
1696.51	22.5
1697.54	21
1698.56	26
1699.59	26
1700.61	27
1701.64	25
1702.67	24
1703.69	25
1704.72	21
1705.74	24.5
1706.77	24.5
1707.79	26.5
1708.82	24.5
1709.84	28
1710.87	23
1711.89	24.5
1712.92	20
1713.94	23.5
1714.97	24
1715.99	27.5
1717.01	25
1718.04	29
1719.06	31.5
1720.08	23.5
1721.11	25.5
1722.13	25.5
1723.15	27
1724.18	28
1725.2	28
1726.22	28.5
1727.24	26
1728.26	25
1729.29	27.5
1730.31	22.5
1731.33	27
1732.35	24
1733.37	25
1734.39	24.5
1735.41	23.5
1736.43	26.5
1737.45	22.5
1738.47	26
1739.5	23.5
1740.52	24
1741.53	29.5
1742.55	28
1743.57	22.5
1744.59	23.5
1745.61	24.5
1746.63	25.5
1747.65	27.5
1748.67	25
1749.69	27
1750.71	26
1751.72	27.5
1752.74	20.5
1753.76	27
1754.78	29
1755.8	25
1756.81	25.5
1757.83	27
1758.85	27
1759.87	26.5
1760.88	22
1761.9	24.5
1762.92	23.5
1763.93	24
1764.95	26
1765.96	25.5
1766.98	26.5
1768	23.5
1769.01	22.5
1770.03	21
1771.04	22
1772.06	26.5
1773.07	24.5
1774.09	24.5
1775.1	25
1776.12	25.5
1777.13	26.5
1778.15	25
1779.16	23.5
1780.17	24.5
1781.19	28
1782.2	23
1783.21	23.5
1784.23	27
1785.24	23.5
1786.25	22
1787.27	22.5
1788.28	24
1789.29	24.5
1790.3	26
1791.32	22
1792.33	21
1793.34	30
1794.35	25
1795.36	27.5
1796.38	23
1797.39	22
1798.4	21
1799.41	21
1800.42	26.5
1801.43	25
1802.44	21.5
1803.45	26
1804.46	23.5
1805.47	26
1806.48	23
1807.49	22
1808.5	22
1809.51	22
1810.52	27
1811.53	24
1812.53	24.5
1813.54	27
1814.55	27
1815.56	25
1816.57	24
1817.58	27.5
1818.59	25.5
1819.59	22.5
1820.6	23
1821.61	23
1822.62	25
1823.62	23
1824.63	25.5
1825.64	23
1826.64	24.5
1827.65	26
1828.66	27.5
1829.66	27.5
1830.67	17
1831.67	26.5
1832.68	20
1833.69	27.5
1834.69	26.5
1835.7	23.5
1836.7	25
1837.71	23
1838.71	24
1839.72	28
1840.72	27
1841.72	26
1842.73	25
1843.73	24
1844.74	23
1845.74	24
1846.74	26
1847.75	23.5
1848.75	22.5
1849.75	22
1850.76	22
1851.76	22.5
1852.76	25
1853.76	24.5
1854.77	26
1855.77	22.5
1856.77	21.5
1857.77	25.5
1858.78	24
1859.78	27.5
1860.78	24
1861.78	27.5
1862.78	22.5
1863.78	25
1864.78	26.5
1865.78	23.5
1866.78	25
1867.78	25
1868.78	24
1869.78	23
1870.78	27
1871.78	25.5
1872.78	21
1873.78	23.5
1874.78	24.5
1875.78	22.5
1876.78	22
1877.78	22
1878.78	20.5
1879.78	23
1880.77	25.5
1881.77	25.5
1882.77	22
1883.77	24.5
1884.77	25
1885.76	22
1886.76	27
1887.76	24
1888.75	25
1889.75	23.5
1890.75	26.5
1891.74	21.5
1892.74	22
1893.74	25.5
1894.73	22.5
1895.73	27.5
1896.73	21.5
1897.72	23.5
1898.72	24.5
1899.71	21.5
1900.71	23
1901.7	23.5
1902.7	26
1903.69	20
1904.69	28
1905.68	26.5
1906.68	29
1907.67	27.5
1908.66	29.5
1909.66	27
1910.65	25.5
1911.64	27.5
1912.64	19
1913.63	24
1914.62	22.5
1915.62	25
1916.61	23
1917.6	23.5
1918.6	24.5
1919.59	24.5
1920.58	19
1921.57	24.5
1922.56	22.5
1923.55	20
1924.55	21
1925.54	22
1926.53	24.5
1927.52	27
1928.51	24
1929.5	30
1930.49	27
1931.48	25
1932.47	24.5
1933.46	23.5
1934.45	21.5
1935.44	24.5
1936.43	24.5
1937.42	25.5
1938.41	26.5
1939.4	24.5
1940.39	24
1941.38	25
1942.37	25.5
1943.36	25
1944.35	23.5
1945.33	22
1946.32	24
1947.31	21.5
1948.3	23.25
1949.29	24.5
1950.27	20
1951.26	23.5
1952.25	25
1953.24	22
1954.22	25
1955.21	22.5
1956.2	24.5
1957.18	28
1958.17	30
1959.16	23
1960.14	25.5
1961.13	25
1962.11	23.5
1963.1	20.5
1964.08	23
1965.07	23
1966.05	22.5
1967.04	26.5
1968.02	21.5
1969.01	23
1969.99	25
1970.98	24.5
1971.96	25
1972.95	23
1973.93	23
1974.91	25.5
1975.9	26.5
1976.88	26.5
1977.86	22.5
1978.85	26.5
1979.83	24
1980.81	28
1981.8	20
1982.78	25
1983.76	21
1984.74	27.5
1985.73	23.5
1986.71	21
1987.69	23
1988.67	21
1989.65	24.5
1990.63	20.5
1991.62	21.5
1992.6	22.5
1993.58	24
1994.56	24
1995.54	26
1996.52	22.5
1997.5	24.5
1998.48	23
1999.46	22
2000.44	27
2001.42	23.5
2002.4	24
2003.38	23
2004.36	23
2005.34	22.5
2006.32	26.5
2007.29	22
2008.27	19
2009.25	25
2010.23	21
2011.21	20.5
2012.19	23
2013.17	20
2014.14	26
2015.12	27
2016.1	21.5
2017.07	25
2018.05	24
2019.03	22
2020.01	21.5
2020.98	24.5
2021.96	27
2022.94	24
2023.91	22.5
2024.89	25
2025.86	23
2026.84	26
2027.82	23
2028.79	26.5
2029.77	21
2030.74	28.5
2031.72	27
2032.69	23
2033.67	22
2034.64	24
2035.62	22
2036.59	25.5
2037.56	22
2038.54	23.5
2039.51	24
2040.49	22
2041.46	22.5
2042.43	27
2043.41	23
2044.38	20.5
2045.35	24
2046.32	25
2047.3	24
2048.27	23
2049.24	21
2050.21	22.5
2051.19	21
2052.16	25
2053.13	24
2054.1	23.5
2055.07	22
2056.05	24
2057.02	24
2057.99	26.5
2058.96	26
2059.93	21.5
2060.9	23.5
2061.87	19
2062.84	20.5
2063.81	23.5
2064.78	24
2065.75	23.5
2066.72	25
2067.69	23
2068.66	24
2069.63	25.5
2070.6	21
2071.57	22
2072.54	23
2073.5	21.5
2074.47	26.5
2075.44	21.5
2076.41	23
2077.38	23
2078.35	26.5
2079.31	24
2080.28	26
2081.25	22
2082.22	23.5
2083.18	24
2084.15	24
2085.12	20
2086.08	19.5
2087.05	24.5
2088.02	23
2088.98	24
2089.95	25.5
2090.92	22
2091.88	20
2092.85	24
2093.81	23.5
2094.78	26
2095.74	26
2096.71	26.5
2097.67	24.5
2098.64	21.5
2099.6	20
2100.57	24
2101.53	21
2102.5	22
2103.46	21.5
2104.42	22
2105.39	24
2106.35	22.5
2107.32	18
2108.28	19.5
2109.24	22
2110.21	24
2111.17	21
2112.13	24
2113.09	22.5
2114.06	19
2115.02	27.5
2115.98	24
2116.94	23
2117.91	19
2118.87	20.5
2119.83	22.5
2120.79	26.5
2121.75	21.5
2122.71	23.5
2123.67	21
2124.63	25
2125.6	23
2126.56	25
2127.52	21
2128.48	22
2129.44	23
2130.4	24
2131.36	21
2132.32	18.5
2133.28	23.5
2134.23	26
2135.19	23.5
2136.15	22
2137.11	25.5
2138.07	23
2139.03	25.5
2139.99	20.5
2140.95	27
2141.9	18.5
2142.86	21.0045
2143.82	24.4782
2144.78	24.4897
2145.74	23.5965
2146.69	23.0542
2147.65	27.2728
2148.61	23.4369
2149.57	20.5746
2150.52	20.8331
2151.48	22.791
2152.44	20.9808
2153.39	22.6856
2154.35	20.5953
2155.31	24.6863
2156.26	21.4495
2157.22	21.6352
2158.17	21.6119
2159.13	22.5191
2160.08	18.1624
2161.04	23.5345
2161.99	24.7241
2162.95	22.0323
2163.91	24.7186
2164.86	22.5795
2165.81	21.3626
2166.77	21.8762
2167.72	21.0135
2168.68	19.7524
2169.63	20.2344
2170.58	21.4462
2171.54	21.2039
2172.49	20.6129
2173.45	22.492
2174.4	24.0606
2175.35	20.3021
2176.31	22.2271
2177.26	21.4381
2178.21	23.4951
2179.16	24.466
2180.12	19.2022
2181.07	24.4556
2182.02	21.4611
2182.97	22.6887
2183.92	22.3021
2184.88	24.7092
2185.83	22.325
2186.78	22.0801
2187.73	20.4877
2188.68	23.2176
2189.63	21.1793
2190.58	24.0519
2191.53	20.282
2192.49	23.7409
2193.43	20.5833
2194.39	21.9142
2195.34	22.6163
2196.28	21.7822
2197.24	22.6202
2198.19	22.5559
2199.13	20.4616
2200.08	21.8203
2201.03	21.0691
2201.98	22.7388
2202.93	21.7125
2203.88	23.6368
2204.83	22.9893
2205.78	21.8228
2206.73	21.5565
2207.67	24.0135
2208.62	23.8377
2209.57	19.9398
2210.52	21.6932
2211.47	22.348
2212.41	21.6716
2213.36	23.8891
2214.31	22.2954
2215.26	21.8859
2216.2	21.1286
2217.15	24.4292
2218.1	22.8991
2219.04	22.1592
2219.99	24.685
2220.93	22.6247
2221.88	20.5376
2222.83	19.6612
2223.77	22.1409
2224.72	23.2538
2225.66	20.9459
2226.61	17.9993
2227.55	20.1669
2228.5	21.7629
2229.44	20.7188
2230.39	23.0607
2231.33	22.5817
2232.28	24.6607
2233.22	22.7775
2234.17	22.6762
2235.11	20.882
2236.06	21.7962
2237	20.6825
2237.94	25.2944
2238.89	21.6627
2239.83	23.7901
2240.06	25
2241.01	21.5
2241.96	23.5
2242.9	20.5
2243.85	21.5
2244.8	21
2245.75	22
2246.69	21.5
2247.64	26
2248.59	22.5
2249.53	17
2250.48	21.5
2251.43	27
2252.37	23
2253.32	24
2254.27	22
2255.21	23.5
2256.16	24
2257.1	21.5
2258.05	21.5
2259	25.5
2259.94	23
2260.89	18
2261.83	21.5
2262.78	23
2263.72	24.5
2264.67	19.5
2265.61	26
2266.56	20.5
2267.5	23.5
2268.44	25.5
2269.39	18.5
2270.33	25.5
2271.27	25
2272.22	24
2273.16	26
2274.1	22
2275.05	23.5
2275.99	22.5
2276.93	24.5
2277.88	21.5
2278.82	23.5
2279.76	24.5
2280.7	23.5
2281.65	23
2282.59	22
2283.53	21.5
2284.47	23
2285.41	24
2286.35	23.5
2287.29	21.5
2288.24	22
2289.18	24
2290.12	22.5
2291.06	20.5
2292	23
2292.94	21
2293.88	16
2294.82	22
2295.76	21.5
2296.7	23.5
2297.64	24
2298.58	24.5
2299.52	24
2300.46	24.5
2301.4	23
2302.34	22
2303.28	23
2304.21	22.5
2305.15	19
2306.09	22
2307.03	22.5
2307.97	24
2308.91	23.5
2309.84	21
2310.78	26
2311.72	23
2312.66	23
2313.59	22
2314.53	20
2315.47	23.5
2316.4	23
2317.34	18
2318.28	24.5
2319.22	21.5
2320.15	19.5
2321.09	24.5
2322.02	24.5
2322.96	24.5
2323.89	22
2324.83	22
2325.77	25
2326.7	26
2327.64	19.5
2328.57	22.5
2329.51	23.5
2330.44	23
2331.38	22.5
2332.31	21
2333.25	23.5
2334.18	22.5
2335.11	25.5
2336.05	24.5
2336.98	26.5
2337.92	19
2338.85	26.5
2339.78	23
2340.72	21
2341.65	25.5
2342.58	21.5
2343.52	22
2344.45	23
2345.38	24.5
2346.31	23.5
2347.25	27
2348.18	25.5
2349.11	29
2350.04	25
2350.97	26
2351.9	23
2352.84	22
2353.77	23
2354.7	23
2355.63	22
2356.56	24
2357.49	22
2358.42	21
2359.35	21.5
2360.28	23
2361.21	23.5
2362.14	26
2363.07	24.5
2364	25.5
2364.93	23
2365.86	23.5
2366.79	25
2367.72	23.5
2368.65	24
2369.58	19.5
2370.51	23
2371.44	16.5
2372.36	26.5
2373.29	23.5
2374.22	23.5
2375.15	21
2376.08	25.5
2377.01	22
2377.93	24
2378.86	24.5
2379.79	24.5
2380.72	21
2381.64	23
2382.57	28.5
2383.5	23.5
2384.42	25
2385.35	23.5
2386.28	24
2387.2	20
2388.13	25.5
2389.06	22
2389.98	24.5
2390.91	24
2391.83	24
2392.76	24.5
2393.69	21
2394.61	22.5
2395.54	26
2396.46	23
2397.39	25.5
2398.31	23.5
2399.23	21
2400.16	22
2401.08	26
2402.01	22
2402.93	27.5
2403.86	23
2404.78	23
2405.7	25.5
2406.63	24
2407.55	27
2408.47	24
2409.4	22
2410.32	27
2411.24	24.5
2412.17	28.5
2413.09	22.5
2414.01	25
2414.93	23.5
2415.85	24.5
2416.78	22
2417.7	22
2418.62	23
2419.54	21
2420.46	25.5
2421.38	21
2422.31	23
2423.23	19
2424.15	24
2425.07	21.5
2425.99	23
2426.91	22
2427.83	23.5
2428.75	21
2429.67	24
2430.59	26.5
2431.51	20.5
2432.43	21
2433.35	23
2434.27	26
2435.19	26.5
2436.11	22
2437.03	24
2437.94	27
2438.86	25
2439.78	24
2440.7	26
2441.62	28
2442.54	23
2443.46	22.5
2444.37	23
2445.29	24
2446.21	24
2447.13	23
2448.04	21
2448.96	24
2449.88	22.5
2450.8	24
2451.71	26
2452.63	25
2453.55	22
2454.46	25.5
2455.38	23.5
2456.29	22
2457.21	26
2458.13	23
2459.04	22.5
2459.96	23
2460.87	21.5
2461.79	23
2462.7	25
2463.62	26
2464.53	23
2465.45	22
2466.36	22.5
2467.28	21
2468.19	26.5
2469.11	22.5
2470.02	23
2470.93	25
2471.85	27.5
2472.76	27
2473.67	23
2474.59	21
2475.5	21.5
2476.42	23
2477.33	24
2478.24	24
2479.15	26.5
2480.07	25
2480.98	24
2481.89	25
2482.8	19
2483.72	24
2484.63	27.5
2485.54	26.5
2486.45	25.5
2487.36	24
2488.27	22.5
2489.19	21
2490.1	23.5
2491.01	27
2491.92	27
2492.83	26
2493.74	23
2494.65	23
2495.56	21.5
2496.47	21
2497.38	25.5
2498.29	21.5
2499.2	26.5
2500.11	22
2501.02	25.5
2501.93	24
2502.84	25
2503.75	20
2504.66	25
2505.57	22
2506.47	22.5
2507.38	23.5
2508.29	25
2509.2	25.5
2510.11	26
2511.02	22
2511.92	25.5
2512.83	25
2513.74	24.5
2514.65	21.5
2515.55	21
2516.46	19
2517.37	24.5
2518.28	25
2519.18	26
2520.09	25
2521	24.5
2521.9	23
2522.81	22
2523.72	27
2524.62	23.5
2525.53	22
2526.43	23
2527.34	22.5
2528.24	25
2529.15	26
2530.06	27.5
2530.96	26
2531.87	23.5
2532.77	27
2533.68	22.5
2534.58	19
2535.48	20
2536.39	24
2537.29	26.5
2538.2	24.5
2539.1	22.5
2540	27
2540.91	24.5
2541.81	28.5
2542.72	19.5
2543.62	24.5
2544.52	24
2545.42	27.5
2546.33	27
2547.23	23
2548.13	26.5
2549.04	19.5
2549.94	22
2550.84	27.5
2551.74	23.5
2552.64	21.5
2553.55	21
2554.45	21.5
2555.35	26.5
2556.25	22
2557.15	26
2558.05	24.5
2558.95	24.5
2559.85	24
2560.76	23
2561.66	23
2562.56	28.5
2563.46	25
2564.36	24.5
2565.26	20
2566.16	27
2567.06	22.5
2567.96	24.5
2568.86	25
2569.76	22
2570.66	24
2571.55	28
2572.45	23
2573.35	22.5
2574.25	25
2575.15	25.5
2576.05	24.5
2576.95	27.5
2577.84	24
2578.74	24
2579.64	20
2580.54	23.5
2581.44	25.5
2582.33	22.5
2583.23	25.5
2584.13	23
2585.03	22
2585.92	24
2586.82	22
2587.72	22.5
2588.61	25
2589.51	23.5
2590.41	24
2591.3	21
2592.2	23
2593.09	24.5
2593.99	25.5
2594.89	22
2595.78	22
2596.68	26.5
2597.57	26.5
2598.47	23.5
2599.36	23
2600.26	24
2601.15	23.5
2602.05	25.5
2602.94	26.5
2603.84	27
2604.73	29
2605.63	23.5
2606.52	29
2607.41	24.5
2608.31	25.5
2609.2	25.5
2610.09	28
2610.99	24.5
2611.88	24
2612.77	22
2613.67	23
2614.56	23
2615.45	23
2616.35	27
2617.24	25.5
2618.13	24
2619.02	26
2619.91	24
2620.81	22
2621.7	25
2622.59	22
2623.48	24
2624.37	24.5
2625.26	26.5
2626.15	22.5
2627.05	29
2627.94	22.5
2628.83	27.5
2629.72	23.5
2630.61	22.5
2631.5	22.5
2632.39	23.5
2633.28	28.5
2634.17	25
2635.06	27.5
2635.95	24
2636.84	23.5
2637.73	29.5
2638.62	25
2639.51	21
2640.4	23.5
2641.28	26
2642.17	21.5
2643.06	22.5
2643.95	23
2644.84	24.5
2645.73	24
2646.62	21.5
2647.5	20.5
2648.39	26.5
2649.28	25
2650.17	22.5
2651.05	25
2651.94	27
2652.83	27.5
2653.72	25
2654.6	24
2655.49	20
2656.38	28.5
2657.26	26
2658.15	24
2659.04	22
2659.92	25
2660.81	23
2661.69	26
2662.58	25
2663.47	24.5
2664.35	24
2665.24	25
2666.12	22
2667.01	23
2667.89	23
2668.78	25.5
2669.66	24
2670.55	26
2671.43	27.5
2672.32	25.5
2673.2	20
2674.08	21.5
2674.97	28
2675.85	25
2676.74	25
2677.62	24
2678.5	25
2679.39	24
2680.27	26
2681.15	27
2682.04	24
2682.92	24
2683.8	25
2684.68	25
2685.57	28
2686.45	23
2687.33	24
2688.21	24.5
2689.09	22
2689.98	24
2690.86	22.5
2691.74	26
2692.62	22
2693.5	25
2694.38	23
2695.27	22
2696.15	24.5
2697.03	19.5
2697.91	23
2698.79	24.5
2699.67	26.5
2700.55	18
2701.43	30
2702.31	22.5
2703.19	24
2704.07	22.5
2704.95	23
2705.83	21
2706.71	23.5
2707.59	21.5
2708.47	22
2709.34	24.5
2710.22	25.5
2711.1	22
2711.98	26
2712.86	24.5
2713.74	23.5
2714.62	23
2715.49	23
2716.37	25
2717.25	23
2718.13	24.5
2719.01	27
2719.88	22.5
2720.76	23.5
2721.64	19
2722.51	23.5
2723.39	25
2724.27	24
2725.14	25
2726.02	25
2726.9	24.5
2727.77	25.5
2728.65	24
2729.53	21.5
2730.4	25
2731.28	22.5
2732.15	26
2733.03	23
2733.91	24.5
2734.78	25
2735.66	24.5
2736.53	24
2737.41	27.5
2738.28	26
2739.16	24
2740.03	22.5
2740.9	24
2741.78	25
2742.65	23.5
2743.53	23
2744.4	24
2745.27	26.5
2746.15	22.5
2747.02	24
2747.89	25.5
2748.77	21.5
2749.64	21
2750.51	29.5
2751.39	26
2752.26	22
2753.13	28
2754.01	26
2754.88	25
2755.75	22
2756.62	21
2757.49	25
2758.37	21
2759.24	21
2760.11	24.5
2760.98	24
2761.85	27
2762.72	21
2763.59	23
2764.46	27
2765.34	29.5
2766.21	26.5
2767.08	19.5
2767.95	22.5
2768.82	23.5
2769.69	25.5
2770.56	21.5
2771.43	21.5
2772.3	24.5
2773.17	24
2774.04	24
2774.91	24
2775.78	23
2776.65	21
2777.51	25
2778.38	24
2779.25	25
2780.12	23.5
2780.99	26
2781.86	24
2782.73	27
2783.59	25.5
2784.46	23.5
2785.33	25
2786.2	26
2787.07	24
2787.93	22
2788.8	23.5
2789.67	24.5
2790.54	26.5
2791.4	25.5
2792.27	27
2793.14	21
2794	21.5
2794.87	26
2795.74	23
2796.6	24.5
2797.47	21.5
2798.34	20.5
2799.2	28.5
2800.07	23
2800.93	22.5
2801.8	21.5
2802.66	19
2803.53	25
2804.39	28
2805.26	17
2806.12	22
2806.99	23
2807.85	20
2808.72	21.5
2809.58	28.5
2810.45	26.5
2811.31	21
2812.18	22
2813.04	23
2813.9	24
2814.77	24.5
2815.63	26
2816.49	26.5
2817.36	24
2818.22	22.5
2819.08	23
2819.95	21
2820.81	25.5
2821.67	23.5
2822.53	23
2823.4	19
2824.26	26.5
2825.12	24.5
2825.98	27
2826.84	24
2827.71	21.5
2828.57	24
2829.43	23
2830.29	25.5
2831.15	26.5
2832.01	24
2832.88	22
2833.74	24.5
2834.6	26.5
2835.46	21
2836.32	21
2837.18	20
2838.04	21
2838.9	24
2839.76	26
2840.62	25.5
2841.48	24.5
2842.34	20
2843.2	20.5
2844.06	23
2844.92	21.5
2845.78	23.5
2846.63	22
2847.49	26
2848.35	26
2849.21	21.5
2850.07	22.5
2850.93	21
2851.79	28
2852.64	24.5
2853.5	25
2854.36	25.5
2855.22	22
2856.08	24
2856.93	23
2857.79	23.5
2858.65	21
2859.51	26
2860.36	22
2861.22	21.5
2862.08	19
2862.93	25
2863.79	25.5
2864.65	21
2865.5	26.5
2866.36	23.5
2867.22	27
2868.07	21
2868.93	21
2869.78	22.5
2870.64	27.5
2871.49	25
2872.35	25.5
2873.21	20.5
2874.06	26
2874.91	22
2875.77	25.5
2876.62	22
2877.48	26
2878.33	27.5
2879.19	25
2880.04	25.5
2880.9	24
2881.75	25
2882.6	26
2883.46	26
2884.31	24.5
2885.17	26
2886.02	23
2886.87	24.5
2887.73	25.5
2888.58	26.5
2889.43	28
2890.28	25
2891.14	27
2891.99	28.5
2892.84	22.5
2893.69	27
2894.55	28.5
2895.4	32
2896.25	25
2897.1	28.5
2897.95	29.5
2898.8	24
2899.66	27.5
2900.51	30.5
2901.36	33
2902.21	29
2903.06	26
2903.91	31
2904.76	29
2905.61	32.5
2906.46	29
2907.31	28
2908.16	30
2909.01	29
2909.86	33.5
2910.71	31
2911.56	27.5
2912.41	26
2913.26	29.5
2914.11	25.5
2914.96	27
2915.81	26.5
2916.66	22
2917.51	24.5
2918.36	27.5
2919.2	28
2920.05	23
2920.9	26
2921.75	27
2922.6	22.5
2923.45	27
2924.29	25.5
2925.14	26
2925.99	26
2926.84	25.5
2927.68	24.5
2928.53	25
2929.38	23
2930.23	21
2931.07	26
2931.92	26
2932.77	23
2933.61	26
2934.46	25
2935.3	23
2936.15	24
2937	26
2937.84	22
2938.69	18
2939.53	23
2940.38	24.5
2941.23	24
2942.07	22
2942.92	27
2943.76	21
2944.61	27.5
2945.45	25
2946.3	22.5
2947.14	23
2947.98	24
2948.83	24.5
2949.67	27
2950.52	25
2951.36	23.5
2952.2	21
2953.05	23
2953.89	24
2954.74	28
2955.58	23
2956.42	25
2957.27	24.5
2958.11	25.5
2958.95	25
2959.79	23.5
2960.64	22
2961.48	27.5
2962.32	23
2963.16	28
2964.01	25
2964.85	29
2965.69	27.5
2966.53	25
2967.37	26.5
2968.21	27
2969.06	24
2969.9	24.5
2970.74	26
2971.58	24.9854
2972.42	21.5207
2973.26	25.5725
2974.1	26.4923
2974.94	23.0916
2975.78	26.7492
2976.62	27.5651
2977.46	25.3661
2978.3	24.8811
2979.14	24.156
2979.98	22.5902
2980.82	23.7916
2981.66	24.3744
2982.5	22.9335
2983.34	19.7426
2984.18	23.8844
2985.02	24.1765
2985.86	23.3433
2986.7	23.0056
2987.54	22.4453
2988.38	23.7626
2989.21	19.5724
2990.05	23.1682
2990.89	24.1861
2991.73	22.001
2992.57	23.9167
2993.41	21.8568
2994.24	22.3035
2995.08	19.415
2995.92	28.7651
2996.76	24.8173
2997.59	21.8351
2998.43	22.3303
2999.27	20.5119
3000.1	22.325
3000.94	24.3834
3001.78	21.4844
3002.61	23.3738
3003.45	23.6907
3004.29	21.9407
3005.12	22.0047
3005.96	20.711
3006.8	18.8215
3007.63	24.0464
3008.47	24.1724
3009.3	21.5343
3010.14	20.5819
3010.97	21.7242
3011.81	22.2175
3012.64	20.3863
3013.48	21.9728
3014.31	22.923
3015.15	23.4
3015.98	22.9968
3016.82	20.4246
3017.65	23.944
3018.49	22.6772
3019.32	24.382
3020.16	23.0557
3020.99	19.8716
3021.82	21.9804
3022.66	21.3127
3023.49	22.2947
3024.32	21.8113
3025.16	19.9739
3025.99	21.8017
3026.82	22.689
3027.66	20.7802
3028.49	21.8349
3029.32	21.5
3030.16	20.1137
3030.99	22.3186
3031.82	23.3019
3032.65	22.14
3033.49	21.3833
3034.32	22.3188
3035.15	23.2847
3035.98	23.5049
3036.81	23.3308
3037.64	21.9959
3038.48	21.1309
3039.31	22.5687
3040.14	24.4133
3040.97	22.9166
3041.8	22.6653
3042.63	23.3743
3043.46	24.2444
3044.29	22.9404
3045.12	20.355
3045.95	20.4511
3046.78	21.7934
3047.61	21.5822
3048.44	19.5827
3049.27	18.8967
3050.1	21.2331
3050.93	21.2151
3051.76	24.8961
3052.59	25.165
3053.42	21.9308
3054.25	20.1535
3055.08	20.5254
3055.91	21.5336
3056.74	23.6135
3057.26	23
3058.09	24
3058.92	24.5
3059.76	24
3060.59	18.5
3061.42	15
3062.26	21
3063.09	20
3063.92	20
3064.75	21.5
3065.59	24
3066.42	21
3067.25	20.5
3068.08	25
3068.91	21.5
3069.74	21.5
3070.58	23
3071.41	20
3072.24	23.5
3073.07	24
3073.9	23
3074.73	20.5
3075.56	23.5
3076.39	20
3077.22	22
3078.05	24
3078.88	25
3079.71	20
3080.55	23.5
3081.38	24.5
3082.2	24
3083.03	21
3083.86	22
3084.69	26
3085.52	22
3086.35	21.5
3087.18	20
3088.01	22
3088.84	23.5
3089.67	21
3090.5	23
3091.33	21
3092.15	19.5
3092.98	19.5
3093.81	21
3094.64	22
3095.47	18
3096.29	23
3097.12	20.5
3097.95	24.5
3098.78	20.5
3099.6	19.5
3100.43	25.5
3101.26	24.5
3102.09	25.5
3102.91	19.5
3103.74	24.5
3104.57	23.5
3105.39	21
3106.22	22
3107.05	24
3107.87	22
3108.7	22.5
3109.52	19.5
3110.35	23.5
3111.18	25
3112	21.5
3112.83	25.5
3113.65	25.5
3114.48	21.5
3115.3	19
3116.13	24.5
3116.95	22
3117.78	22.5
3118.6	21
3119.43	22.5
3120.25	23.5
3121.08	23
3121.9	23
3122.73	22.5
3123.55	22.5
3124.37	21.5
3125.2	20
3126.02	22
3126.84	24
3127.67	20.5
3128.49	26
3129.31	21.5
3130.14	23
3130.96	21.5
3131.78	20.5
3132.61	19
3133.43	20
3134.25	21.5
3135.07	24
3135.9	20.5
3136.72	23
3137.54	24
3138.36	22
3139.18	22.5
3140.01	26
3140.83	23
3141.65	23
3142.47	21
3143.29	22.5
3144.11	21.5
3144.93	20.5
3145.75	23.5
3146.58	24
3147.4	19
3148.22	26
3149.04	23
3149.86	22
3150.68	24.5
3151.5	23
3152.32	23.5
3153.14	24
3153.96	22.5
3154.78	22
3155.6	23
3156.42	21
3157.23	23.5
3158.05	23.5
3158.87	20
3159.69	21.5
3160.51	24
3161.33	24
3162.15	20
3162.97	24
3163.79	21
3164.6	23
3165.42	24
3166.24	24
3167.06	24.5
3167.88	20
3168.69	22.5
3169.51	24
3170.33	23
3171.15	26.5
3171.96	21
3172.78	22.5
3173.6	21
3174.41	19.5
3175.23	22
3176.05	23
3176.86	23
3177.68	23.5
3178.5	24
3179.31	26
3180.13	23
3180.95	23
3181.76	23.5
3182.58	24
3183.39	27
3184.21	24.5
3185.02	21
3185.84	22
3186.65	27
3187.47	25.5
3188.28	21.5
3189.1	24
3189.91	23
3190.73	26
3191.54	24
3192.36	21.5
3193.17	22
3193.99	19
3194.8	23
3195.61	23
3196.43	27
3197.24	26
3198.05	23
3198.87	21
3199.68	20
3200.49	23
3201.31	29
3202.12	20
3202.93	22
3203.75	23.5
3204.56	27
3205.37	21.5
3206.18	24
3207	25
3207.81	22.5
3208.62	25
3209.43	25
3210.24	23
3211.06	28
3211.87	22
3212.68	22.5
3213.49	23
3214.3	24
3215.11	25.5
3215.92	23
3216.74	21
3217.55	25.5
3218.36	23
3219.17	24
3219.98	25
3220.79	22
3221.6	19
3222.41	25.5
3223.22	20
3224.03	23
3224.84	23.5
3225.65	18
3226.46	25
3227.27	23.5
3228.08	20.5
3228.89	22.5
3229.7	26
3230.5	27.5
3231.31	22.5
3232.12	22
3232.93	21.5
3233.74	26
3234.55	23
3235.36	20.5
3236.16	27
3236.97	22
3237.78	24
3238.59	20
3239.4	22.5
3240.2	22
3241.01	20.5
3241.82	27
3242.63	25.5
3243.43	25
3244.24	21
3245.05	25
3245.86	25.5
3246.66	24.5
3247.47	23.5
3248.28	24
3249.08	25
3249.89	24
3250.69	25
3251.5	23
3252.31	23.5
3253.11	23.5
3253.92	25.5
3254.72	22.5
3255.53	20
3256.34	24.5
3257.14	21
3257.95	23.5
3258.75	23.5
3259.56	21.5
3260.36	21.5
3261.17	23.5
3261.97	20
3262.77	23.5
3263.58	21.5
3264.38	22
3265.19	23.5
3265.99	24
3266.8	24
3267.6	23
3268.4	22.5
3269.21	19.5
3270.01	17
3270.81	26.5
3271.62	17
3272.42	24
3273.22	24
3274.03	23.5
3274.83	22.5
3275.63	25
3276.43	23
3277.24	23.5
3278.04	23
3278.84	26
3279.64	24.5
3280.45	25.5
3281.25	27
3282.05	21
3282.85	21
3283.65	18.5
3284.46	22
3285.26	22.5
3286.06	23
3286.86	23
3287.66	21
3288.46	23
3289.26	22
3290.06	23.5
3290.86	21
3291.66	24.5
3292.46	25.5
3293.26	24.5
3294.06	24
3294.86	19.5
3295.66	23.5
3296.46	26
3297.26	20
3298.06	22.5
3298.86	24
3299.66	21.5
3300.46	25
3301.26	24.5
3302.06	24.5
3302.86	23
3303.66	26
3304.46	23.5
3305.26	21
3306.05	24.5
3306.85	27
3307.65	23.5
3308.45	25.5
3309.25	25
3310.04	20.5
3310.84	22
3311.64	23
3312.44	25.5
3313.24	21
3314.03	22.5
3314.83	22.5
3315.63	23.5
3316.42	25
3317.22	26
3318.02	25
3318.82	24
3319.61	25
3320.41	23.5
3321.2	22.5
3322	25
3322.8	25
3323.59	24.5
3324.39	23
3325.19	24
3325.98	25
3326.78	23.5
3327.57	24.5
3328.37	22
3329.16	23.5
3329.96	22.5
3330.75	22.5
3331.55	24.5
3332.34	24.5
3333.14	26
3333.93	21
3334.73	22.5
3335.52	21
3336.32	25
3337.11	27
3337.9	21
3338.7	26.5
3339.49	25.5
3340.29	25
3341.08	27
3341.87	24.5
3342.67	21
3343.46	20
3344.25	25
3345.05	23.5
3345.84	21.5
3346.63	24
3347.42	21.5
3348.22	23
3349.01	24
3349.8	23
3350.59	24.5
3351.39	23
3352.18	25
3352.97	22
3353.76	29
3354.55	24
3355.35	21
3356.14	25
3356.93	24
3357.72	21
3358.51	22.5
3359.3	24
3360.09	25
3360.88	23
3361.67	21.5
3362.47	25.5
3363.26	26.5
3364.05	22.5
3364.84	24.5
3365.63	23.5
3366.42	26
3367.21	28
3368	27
3368.79	24
3369.58	21.5
3370.37	21
3371.16	22.5
3371.95	21
3372.73	26
3373.52	22.5
3374.31	21.5
3375.1	23
3375.89	24
3376.68	22.5
3377.47	24
3378.26	24.5
3379.04	19
3379.83	21
3380.62	26.5
3381.41	23.5
3382.2	23
3382.98	24
3383.77	24
3384.56	21
3385.35	21
3386.14	26
3386.92	24
3387.71	25
3388.5	24.5
3389.28	24
3390.07	23
3390.86	20
3391.64	24.5
3392.43	23
3393.22	23.5
3394	22
3394.79	23.5
3395.58	25.5
3396.36	24.5
3397.15	26
3397.93	21.5
3398.72	24.5
3399.5	20.5
3400.29	24.5
3401.07	21
3401.86	25
3402.65	20
3403.43	26.5
3404.22	25
3405	26.5
3405.79	24.5
3406.57	22
3407.35	22.5
3408.14	24.5
3408.92	23
3409.71	25.5
3410.49	25
3411.27	21
3412.06	24
3412.84	26
3413.63	27
3414.41	23
3415.19	25.5
3415.98	23.5
3416.76	23
3417.54	26
3418.32	28
3419.11	24.5
3419.89	23.5
3420.67	23
3421.46	23.5
3422.24	22.5
3423.02	21
3423.8	22.5
3424.58	23
3425.37	27.5
3426.15	22
3426.93	25
3427.71	25
3428.49	25
3429.27	22
3430.06	18.5
3430.84	24.5
3431.62	23
3432.4	28.5
3433.18	26
3433.96	26
3434.74	21.5
3435.52	23.5
3436.3	25
3437.08	24
3437.86	22
3438.64	23
3439.42	24.5
3440.2	21.5
3440.98	22.5
3441.76	25
3442.54	23
3443.32	27
3444.1	21
3444.88	24
3445.66	26
3446.44	27
3447.22	24
3448	24
3448.78	23.5
3449.55	24
3450.33	24.5
3451.11	21.5
3451.89	24
3452.67	24
3453.45	23
3454.22	24
3455	22
3455.78	22.5
3456.56	21
3457.33	24.5
3458.11	25.5
3458.89	24.5
3459.67	19.5
3460.44	26
3461.22	23.5
3462	23
3462.77	23.5
3463.55	22.5
3464.33	26.5
3465.1	24
3465.88	28.5
3466.66	23.5
3467.43	24.5
3468.21	24
3468.99	21.5
3469.76	19.5
3470.54	23.5
3471.31	20
3472.09	21
3472.86	26.5
3473.64	22.5
3474.41	23
3475.19	21.5
3475.96	25.5
3476.74	22
3477.51	26.5
3478.29	22
3479.06	28
3479.84	26.5
3480.61	26
3481.39	24
3482.16	23
3482.93	22
3483.71	26
3484.48	23.5
3485.26	22
3486.03	23
3486.8	20.5
3487.58	23
3488.35	23.5
3489.12	22
3489.9	25
3490.67	25
3491.44	28.5
3492.21	23
3492.99	25.5
3493.76	23.5
3494.53	23.5
3495.3	26
3496.08	22.5
3496.85	22
3497.62	23
3498.39	22
3499.16	26.5
3499.94	21
