#Acq. time (s)=	5
#Accumulations=	5
#Range (cm-¹)=	100...3500
#Windows=	4
#Autofocus=	Off
#AutoExposure=	Off
#Spike filter=	Multiple accum.
#Delay time (s)=	0
#Binning=	1
#Readout mode=	Signal
#DeNoise=	Off
#ICS correction=	Off
#Dark correction=	Off
#Inst. Process=	Off
#Instrument=	LabRAM HR Evol
#Detector=	Syncerity OE
#Objective=	x100_VIS
#Grating=	600 (500nm)
#ND Filter=	25%
#Laser=	633nm_Edge
#Hole=	100.021
#Range=	Visible
#Project=	verificaciones
#Sample=	a2
#Site=	plain
#Title=	bolusa2plain
#Remark=	com
#Date=	16.01.2026 14:00
#Acquired=	16.01.2026 14:00:53
100.687	28
101.971	31
103.254	37
104.537	29
105.82	33
107.103	31
108.387	30
109.669	28
110.951	34
112.233	30.5
113.514	27
114.796	33
116.077	28
117.358	36.5
118.639	31.5
119.919	28
121.2	30.5
122.48	32
123.76	34
125.039	32
126.319	32
127.598	32.5
128.877	37
130.156	35
131.435	33.5
132.713	32
133.992	35
135.268	39
136.546	36.5
137.824	33
139.101	35
140.378	38
141.655	40
142.932	37
144.209	42.5
145.485	39
146.76	38.5
148.036	38
149.312	37.5
150.587	42
151.862	36.5
153.138	38
154.411	43
155.686	45.5
156.96	41.5
158.235	43.5
159.509	43
160.781	44
162.055	41
163.328	46.5
164.602	42
165.873	45
167.146	43
168.419	42
169.691	40
170.962	41.5
172.234	38.5
173.506	38.5
174.777	39.5
176.047	41.5
177.318	42
178.589	36.5
179.859	42
181.129	44
182.4	44
183.668	43
184.938	42
186.207	44.5
187.476	36.5
188.746	45.5
190.013	38
191.282	40.5
192.551	44.5
193.818	43.5
195.086	37
196.353	40
197.621	38.5
198.887	39.5
200.154	41
201.422	40.5
202.687	43.5
203.954	33.5
205.219	40.5
206.486	34.5
207.751	37.5
209.017	36.5
210.281	32
211.547	38.5
212.811	32.5
214.076	34.5
215.339	39
216.603	36
217.867	32.5
219.13	34
220.395	36
221.657	36
222.921	34
224.183	39
225.445	33
226.708	32
227.97	35
229.232	31
230.493	35.5
231.754	31.5
233.016	36
234.277	35.5
235.537	31.5
236.799	37
238.059	34
239.318	29.5
240.579	31
241.839	31.5
243.098	30.5
244.358	30
245.617	30
246.875	29
248.133	30.5
249.393	32
250.651	29
251.908	31.5
253.166	31.5
254.424	30.5
255.681	31
256.938	29
258.195	29
259.451	28.5
260.709	29
261.965	32.5
263.221	32
264.476	33
265.732	29
266.988	31.5
268.243	31
269.498	35
270.753	30.5
272.007	32
273.261	30.5
274.515	31
275.769	27
277.022	28.5
278.277	28
279.53	30
280.783	26.5
282.036	28
283.289	26.5
284.541	30
285.793	25.5
287.045	26
288.297	33
289.548	32
290.8	28
292.051	28.5
293.302	29.5
294.552	31.5
295.803	30.5
297.053	26.5
298.303	28
299.553	28
300.803	25
302.053	23.5
303.302	28.5
304.551	30
305.8	28
307.047	27.5
308.296	31.5
309.544	24
310.792	28
312.04	22
313.288	30
314.535	31.5
315.783	29
317.03	30
318.275	27.5
319.522	32
320.768	33.5
322.015	26.5
323.261	28
324.505	29
325.751	29
326.997	28
328.242	29
329.487	31
330.73	27.5
331.975	26
333.22	29
334.464	27
335.707	29
336.95	28
338.194	29.5
339.438	32
340.68	24.5
341.923	29
343.166	22.5
344.407	23
345.649	32
346.892	30.5
348.132	27.5
349.374	31
350.616	26
351.856	30.5
353.097	29
354.337	33
355.578	27.5
356.818	26
358.058	28
359.298	31.5
360.536	27
361.776	29.5
363.016	28
364.254	28.5
365.493	30.5
366.731	32
367.97	31.5
369.207	29.5
370.446	30
371.683	28.5
372.921	32
374.157	24.5
375.395	30
376.631	30.5
377.868	29
379.104	28.5
380.341	28.5
381.576	28.5
382.813	28.5
384.048	27
385.284	28.5
386.518	28.5
387.753	32
388.988	29.5
390.222	29
391.457	29.5
392.691	26
393.924	31.5
395.159	30.5
396.392	28
397.624	27
398.858	24.5
400.091	26
401.323	27.5
402.556	30
403.788	27.5
405.019	29.5
406.252	30.5
407.483	23.5
408.714	31.5
409.945	27
411.177	31
412.407	31
413.637	26
414.867	27
416.099	25
417.328	25.5
418.558	30
419.787	27
421.016	30
422.246	29
423.475	29.5
424.703	29
425.931	25
427.159	29
428.388	29
429.616	28
430.843	30
432.071	31
433.298	26
434.524	28
435.751	26.5
436.977	29
438.204	29.5
439.431	31
440.657	29.5
441.883	33.5
443.108	27.5
444.333	31.5
445.558	28
446.783	29.5
448.008	32
449.232	31
450.457	31.5
451.681	30
452.905	28
454.128	28.5
455.352	29.5
456.575	28.5
457.798	30.5
459.021	28.5
460.244	32
461.466	32.5
462.689	32
463.909	30.5
465.131	35.5
466.353	33
467.575	33
468.796	33
470.017	31.5
471.238	35
472.459	34
473.679	37.5
474.898	40
476.118	44
477.338	44
478.558	46
479.778	47.5
480.997	48.5
482.215	53.5
483.434	58
484.653	60
485.871	58
487.09	59.5
488.307	64
489.525	64.5
490.743	62
491.96	56.5
493.176	54
494.394	51
495.611	55
496.826	47
498.043	48
499.259	47
500.474	45.5
501.69	44
502.906	43
504.121	39.5
505.336	39
506.551	39.5
507.765	34
508.98	37
510.195	36
511.408	34.5
512.622	35
513.835	35.5
515.049	32.5
516.263	36.5
517.475	32.5
518.689	30
519.9	32.5
521.113	34
522.325	34.5
523.537	28.5
524.748	33
525.961	32.5
527.171	33
528.383	29
529.594	28.5
530.805	28
532.015	32.5
533.226	33
534.435	26
535.646	28
536.855	26
538.066	28.5
539.274	30
540.483	27.5
541.693	30.5
542.901	32
544.11	29.5
545.318	29.5
546.526	32
547.734	32
548.942	27
550.149	30
551.357	26.5
552.563	33
553.77	31.5
554.978	28
556.184	28
557.389	29
558.596	30.5
559.802	26
561.007	28.5
562.212	29
563.419	29.5
564.623	29
565.828	29
567.032	31
568.238	26.5
569.442	25
570.646	29.5
571.849	28.5
573.054	34
574.257	31.5
575.46	28
576.663	26.5
577.866	27
579.068	25.5
580.272	26
581.474	32
582.676	28.5
583.877	30.5
585.079	26.5
586.28	26.5
587.481	29
588.682	30.5
589.883	31.5
591.083	31
592.285	29.5
593.485	31
594.685	30
595.885	30.5
597.084	29
598.284	27.5
599.483	30
600.682	26.5
601.881	31
603.08	28
604.278	31.5
605.476	26
606.674	28
607.872	31
609.07	30
610.266	27.5
611.463	31.5
612.661	30
613.857	29
615.054	28
616.251	31
617.447	28.5
618.643	29
619.839	28.5
621.035	31
622.229	25
623.425	30
624.62	27
625.815	29.5
627.01	28
628.205	30
629.398	27
630.592	25.5
631.786	30
632.98	32
634.172	21.5
635.366	27
636.559	29
637.753	29
638.944	32
640.137	32.5
641.33	30.5
642.522	29.5
643.713	30.5
644.905	28
646.097	31.5
647.287	31
648.478	29.5
649.67	31.5
650.859	31
652.05	28
653.241	30.5
654.43	28
655.621	29.5
656.811	32.5
657.999	30
659.189	30.5
660.378	33
661.567	31.5
662.755	29.5
663.944	32.5
665.133	30.5
666.32	33
667.508	28.5
668.695	31.5
669.884	34
671.07	33
672.258	29
673.444	33.5
674.631	33.5
675.817	31
677.004	28.5
678.19	30.5
679.376	35
680.561	36
681.746	33
682.932	34.5
684.117	38.5
685.302	38.5
686.487	39
687.672	35
688.856	35.5
690.039	28
691.224	36
692.407	34
693.59	34.5
694.774	35.5
695.957	35.5
697.14	36.5
698.323	38
699.505	37.5
700.687	39
701.87	39
703.052	44.5
704.233	42
705.414	47.5
706.597	47
707.778	52
708.958	55.5
710.139	50
711.32	48
712.5	45
713.68	41
714.86	39.5
716.039	35
717.22	35.5
718.399	33
719.578	32
720.757	37
721.935	32.5
723.114	32
724.292	31
725.471	31
726.649	30
727.827	30
729.004	29.5
730.182	28.5
731.359	31
732.536	30.5
733.712	30.5
734.889	28
736.065	31
737.242	29.5
738.418	30
739.593	29.5
740.769	33
741.945	31
743.12	31
744.295	27.5
745.47	32.5
746.644	29
747.819	27
748.993	35
750.168	30
751.342	30.5
752.515	27.5
753.689	30
754.862	30
756.036	30
757.209	26.5
758.382	29
759.553	31
760.725	31
761.898	31
763.07	28.5
764.242	29.5
765.414	34.5
766.584	30.5
767.755	30
768.927	26
770.098	32.5
771.269	30
772.438	27.5
773.608	31.5
774.779	25
775.949	31
777.117	33
778.287	31.5
779.457	28.5
780.626	30
781.794	35
782.963	35
784.132	31.5
785.299	30
786.468	33
787.636	31
788.803	36
789.971	30.5
791.139	33
792.305	29
793.472	31
794.638	31.5
795.805	35.5
796.972	31
798.138	30.5
799.304	33.5
800.469	28
801.635	27
802.801	28.5
803.966	29
805.131	30.5
806.295	27
807.461	25
808.624	28.5
809.789	30
810.952	31
812.117	29.5
813.28	29.5
814.444	31
815.607	30.5
816.769	26
817.933	28
819.095	29.5
820.258	28.5
821.42	29
822.583	25
823.744	29
824.905	26
826.068	29
827.228	30
828.389	30.5
829.551	31
830.711	29.5
831.871	28.5
833.032	25.5
834.192	28.5
835.352	27
836.513	26
837.672	27
838.831	28
839.99	31.5
841.15	26
842.308	29
843.466	27
844.624	28
845.784	26
846.941	30.5
848.099	27
849.256	32
850.414	27.5
851.572	31
852.729	31
853.886	28.5
855.042	30
856.198	31
857.355	25
858.512	30.5
859.668	27
860.823	30
861.979	34
863.134	30
864.289	33
865.444	27
866.599	30
867.753	24
868.908	22.5
870.062	31.5
871.216	32.5
872.37	30
873.523	27.5
874.677	32
875.83	26.5
876.983	28
878.136	30.5
879.289	29.5
880.441	23
881.594	29
882.746	25
883.898	23
885.05	30
886.201	30
887.353	25
888.504	26
889.655	33
890.806	28
891.956	26.5
893.107	29
894.257	27.5
895.407	23.5
896.557	29
897.707	25.5
898.856	25
900.005	27
901.154	26.5
902.304	31.5
903.453	29
904.6	29
905.749	26.5
906.897	25
908.046	28
909.192	24
910.34	30
911.488	29
912.634	27.5
913.782	28
914.929	29
916.076	30
917.222	25.5
918.368	29.5
919.515	28.5
920.66	27
921.806	27
922.951	26
924.097	29
925.242	30.5
926.387	26.5
927.532	25
928.676	21.5
929.821	27.5
930.965	26
932.109	22.5
933.253	29.5
934.396	23
935.54	25
936.683	29
937.826	32
938.969	29
940.112	25.5
941.254	25.5
942.397	27.5
943.538	27
944.681	27
945.822	26
946.964	28
948.105	29
949.246	26
950.388	24
951.528	30
952.669	27.5
953.809	27
954.949	29
956.09	21
957.229	28.5
958.369	27.5
959.509	29.5
960.648	25
961.786	29.5
962.926	28
964.065	30
965.203	26
966.342	27
967.48	29
968.618	26.5
969.755	26
970.894	26.5
972.031	26
973.168	29
974.305	25.5
975.441	28.5
976.579	24.5
977.715	24.5
978.851	28.5
979.987	27
981.123	24
982.26	30.5
983.395	27.5
984.531	25.5
985.666	24
986.8	24
987.935	26.5
989.07	27
990.204	28
991.338	26
992.472	26
993.607	22.5
994.741	29
995.874	26
997.008	28.5
998.141	26
999.274	27.5
1000.41	24.5
1001.54	25.5
1002.67	28
1003.8	24
1004.94	25
1006.07	30
1007.2	25
1008.33	27
1009.46	25.5
1010.59	29
1011.72	24
1012.85	25.5
1013.99	28
1015.12	26
1016.25	30
1017.38	27.5
1018.51	28.5
1019.63	27
1020.76	29
1021.89	23
1023.02	27
1024.15	25
1025.28	25.5
1026.41	23
1027.54	23.5
1028.67	21
1029.79	24.5
1030.92	28
1032.05	28
1033.18	23.5
1034.3	24.5
1035.43	28
1036.56	29
1037.68	25
1038.81	29
1039.94	27
1041.06	29
1042.19	23.5
1043.31	25
1044.44	27.5
1045.57	25.5
1046.69	26.5
1047.82	26
1048.94	24.5
1050.07	23.5
1051.19	26.5
1052.31	28.5
1053.44	25.5
1054.56	26
1055.69	26
1056.81	25
1057.93	26
1059.06	24.5
1060.18	23
1061.3	23
1062.42	27.5
1063.55	26.5
1064.67	28.5
1065.79	25
1066.91	27.5
1068.03	29.5
1069.16	26
1070.28	22.5
1071.4	29
1072.52	24.5
1073.64	28.5
1074.76	22
1075.88	28.5
1077	29
1078.12	27
1079.24	26
1080.36	30
1081.48	25
1082.6	27.5
1083.72	25.5
1084.84	22
1085.96	28
1087.08	27.5
1088.2	24
1089.31	27.5
1090.43	23
1091.55	23
1092.67	28
1093.78	29
1094.9	24
1096.02	24
1097.14	26
1098.25	32.5
1099.37	24.5
1100.49	25
1101.6	25.5
1102.72	27.5
1103.83	24
1104.95	23.5
1106.07	27
1107.18	22.5
1108.3	23
1109.41	27
1110.52	24
1111.64	26.5
1112.75	25.5
1113.87	28
1114.98	23.5
1116.1	27.5
1117.21	23.5
1118.32	24.5
1119.44	24.5
1120.55	22.5
1121.66	29.5
1122.78	25
1123.89	24.5
1125	27
1126.11	25.5
1127.23	21
1128.34	25.5
1129.45	28.5
1130.56	29
1131.67	26
1132.78	22.5
1133.89	27.5
1135	26.5
1136.12	23.5
1137.23	26
1138.34	20
1139.45	22.5
1140.56	21
1141.67	25.5
1142.78	25.5
1143.89	24.5
1144.99	28.5
1146.1	27.5
1147.21	25
1148.32	26.5
1149.43	27.5
1150.54	30
1151.65	25.5
1152.75	26
1153.86	26
1154.97	24
1156.08	23
1157.18	24
1158.29	24
1159.4	24
1160.5	27
1161.61	26.5
1162.72	28
1163.82	26
1164.93	27.5
1166.03	24
1167.14	25
1168.24	26.5
1169.35	30
1170.45	25
1171.56	24.5
1172.66	26
1173.77	24
1174.87	27
1175.98	27
1177.08	27.5
1178.19	26
1179.29	28.5
1180.39	20.5
1181.5	23
1182.6	21.5
1183.7	20
1184.8	28.5
1185.91	27
1187.01	25
1188.11	25
1189.21	26
1190.32	24.5
1191.42	28.5
1192.52	22.5
1193.62	23.5
1194.72	25.9801
1195.82	23.9797
1196.92	23.1018
1198.02	21.2052
1199.12	28.7542
1200.22	23.0971
1201.32	20.732
1202.42	24.9622
1203.52	24.7869
1204.62	25.4378
1205.72	25.0962
1206.82	22.5729
1207.92	20.9428
1209.02	24.1593
1210.12	26.031
1211.22	24.055
1212.31	20.9702
1213.41	22.9047
1214.51	23.151
1215.61	25.7888
1216.71	28.7728
1217.8	24.5445
1218.9	25.4668
1220	23.9347
1221.09	24.897
1222.19	23.1296
1223.29	26.2321
1224.38	23.8694
1225.48	23.1881
1226.58	28.0927
1227.67	25.6856
1228.77	25.4263
1229.86	27.5825
1230.96	22.4722
1232.05	24.8495
1233.15	25.6903
1234.24	27.3368
1235.34	23.2792
1236.43	24.0875
1237.52	24.6881
1238.62	23.9071
1239.71	24.606
1240.81	24.617
1241.9	24.7888
1242.99	26.2809
1244.09	26.2188
1245.18	22.4738
1246.27	25.2849
1247.36	23.8117
1248.46	21.2544
1249.55	27.6001
1250.64	25.5777
1251.73	22.7993
1252.82	26.3778
1253.92	28.3889
1255.01	27.7307
1256.1	25.7606
1257.19	26.7861
1258.28	24.9729
1259.37	26.4672
1260.46	24.5095
1261.55	28.9978
1262.64	27.6857
1263.73	27.2662
1264.82	26.2553
1265.91	27.5114
1267	26.0665
1268.09	25.7997
1269.18	24.7079
1270.27	24.1903
1271.36	23.2971
1272.45	23.3471
1273.53	22.1554
1274.62	25.4555
1275.71	25
1276.8	22.6115
1277.89	25.4664
1278.97	24.3114
1280.06	23.0112
1281.15	24.525
1282.23	24.2893
1283.32	26.5698
1284.41	27.426
1285.49	24.2554
1286.58	26.0236
1287.67	27.1503
1288.75	23.5539
1289.84	25.0474
1290.92	25.2397
1292.01	22.8493
1293.09	23.5943
1294.18	23.8883
1295.26	22.534
1296.35	22.3689
1297.43	27.3475
1298.52	27.8721
1299.6	26.8343
1300.69	24.3327
1301.77	21.6456
1302.85	23.6191
1303.94	24.9971
1305.02	25.6827
1306.1	29.1802
1306.42	30.5
1307.51	20
1308.59	27.5
1309.68	22.5
1310.77	24
1311.86	25
1312.95	25
1314.03	23
1315.12	21
1316.21	21
1317.29	28
1318.38	24
1319.47	28.5
1320.55	23
1321.64	23
1322.72	21
1323.81	25
1324.89	24.5
1325.98	27.5
1327.07	20.5
1328.15	25
1329.24	24.5
1330.32	29
1331.4	23
1332.49	24
1333.57	25
1334.66	28
1335.74	23.5
1336.82	29
1337.91	26
1338.99	24
1340.07	23.5
1341.16	24.5
1342.24	29
1343.32	23
1344.4	25
1345.49	26
1346.57	28
1347.65	25.5
1348.73	25.5
1349.81	27
1350.9	27
1351.98	25
1353.06	21.5
1354.14	24
1355.22	24
1356.3	28
1357.38	24
1358.46	27
1359.54	22
1360.62	25
1361.7	29
1362.78	22
1363.86	24
1364.94	23.5
1366.02	26
1367.1	24.5
1368.17	26
1369.25	25.5
1370.33	25.5
1371.41	24.5
1372.49	24.5
1373.57	29
1374.64	25.5
1375.72	28
1376.8	28.5
1377.87	28
1378.95	26
1380.03	26
1381.1	27.5
1382.18	29
1383.26	26.5
1384.33	27
1385.41	26
1386.49	26.5
1387.56	30
1388.64	27
1389.71	27
1390.79	25.5
1391.86	26.5
1392.94	27
1394.01	25.5
1395.08	26.5
1396.16	27
1397.23	28.5
1398.31	30.5
1399.38	30
1400.45	29
1401.53	28.5
1402.6	29
1403.67	28.5
1404.75	28
1405.82	30.5
1406.89	30
1407.96	31.5
1409.04	32
1410.11	30.5
1411.18	29.5
1412.25	31
1413.32	29.5
1414.39	35.5
1415.47	30.5
1416.54	32
1417.61	30.5
1418.68	30
1419.75	31.5
1420.82	27.5
1421.89	28
1422.96	26
1424.03	28
1425.1	27.5
1426.17	26
1427.24	25.5
1428.31	29
1429.38	28.5
1430.44	27
1431.51	26.5
1432.58	26
1433.65	26
1434.72	30
1435.79	22
1436.85	25
1437.92	28
1438.99	25
1440.05	30.5
1441.12	26.5
1442.19	25.5
1443.26	26.5
1444.32	26
1445.39	27.5
1446.46	27.5
1447.52	28
1448.59	28
1449.65	25
1450.72	24.5
1451.78	27.5
1452.85	25.5
1453.91	25
1454.98	25
1456.04	26
1457.11	27.5
1458.17	30
1459.24	24.5
1460.3	23.5
1461.36	26.5
1462.43	26
1463.49	22
1464.56	22.5
1465.62	23
1466.68	24.5
1467.74	25
1468.81	23.5
1469.87	28
1470.93	28
1471.99	25.5
1473.06	27
1474.12	31
1475.18	23
1476.24	26.5
1477.3	25.5
1478.36	28
1479.42	23
1480.49	24
1481.55	23.5
1482.61	27
1483.67	24
1484.73	26.5
1485.79	24
1486.85	25.5
1487.91	25
1488.97	29.5
1490.03	27
1491.09	27.5
1492.14	26
1493.2	26
1494.26	27.5
1495.32	24.5
1496.38	27
1497.44	30.5
1498.49	25.5
1499.55	24.5
1500.61	28
1501.67	25
1502.72	27
1503.78	27.5
1504.84	26
1505.89	22
1506.95	25
1508.01	26
1509.07	25.5
1510.12	23
1511.18	28.5
1512.23	27.5
1513.29	26.5
1514.34	27.5
1515.4	25.5
1516.45	22.5
1517.51	30.5
1518.56	29.5
1519.62	27
1520.67	23
1521.73	23
1522.78	27
1523.84	25
1524.89	27
1525.94	22
1527	25
1528.05	25
1529.1	28
1530.16	24.5
1531.21	28
1532.26	24
1533.32	28.5
1534.37	25.5
1535.42	25
1536.47	26.5
1537.52	24.5
1538.57	26
1539.63	26.5
1540.68	24.5
1541.73	25
1542.78	25
1543.83	24
1544.88	24
1545.93	30
1546.98	26.5
1548.03	24.5
1549.08	26
1550.13	25
1551.18	26
1552.23	27
1553.28	27
1554.33	25.5
1555.38	29
1556.43	22
1557.48	28
1558.53	23.5
1559.57	25
1560.62	25.5
1561.67	27.5
1562.72	25.5
1563.77	27
1564.81	27.5
1565.86	26.5
1566.91	24.5
1567.96	28
1569	27.5
1570.05	25.5
1571.09	25
1572.14	23.5
1573.19	27.5
1574.23	27
1575.28	23
1576.33	28.5
1577.37	26
1578.42	23
1579.46	22.5
1580.51	26
1581.55	26.5
1582.6	25.5
1583.64	27.5
1584.69	26
1585.73	24
1586.77	26
1587.82	23.5
1588.86	21.5
1589.91	27.5
1590.95	25
1591.99	26
1593.04	22.5
1594.08	24
1595.12	25.5
1596.16	29
1597.21	23
1598.25	25.5
1599.29	27
1600.33	25.5
1601.37	24
1602.42	25
1603.46	25
1604.5	23
1605.54	25
1606.58	25.5
1607.62	29
1608.66	22
1609.7	24
1610.74	23.5
1611.78	25.5
1612.82	22.5
1613.86	23.5
1614.9	23
1615.94	26
1616.98	27.5
1618.02	28.5
1619.06	24
1620.1	32.5
1621.14	23
1622.18	28.5
1623.21	26.5
1624.25	22.5
1625.29	26
1626.33	27.5
1627.37	21
1628.4	25
1629.44	23
1630.48	25
1631.52	25
1632.55	24.5
1633.59	26.5
1634.63	21.5
1635.66	29
1636.7	26
1637.73	28
1638.77	28
1639.81	20
1640.84	26
1641.88	28
1642.91	25
1643.95	26
1644.98	25.5
1646.02	24.5
1647.05	26
1648.09	27
1649.12	23
1650.16	24
1651.19	27.5
1652.22	20
1653.26	22
1654.29	25
1655.32	25.5
1656.36	25
1657.39	24
1658.42	23.5
1659.46	29
1660.49	23
1661.52	26
1662.55	24
1663.59	24
1664.62	27
1665.65	25
1666.68	28.5
1667.71	25
1668.74	29
1669.77	30
1670.81	22.5
1671.84	22.5
1672.87	22.5
1673.9	26
1674.93	25.5
1675.96	29
1676.99	27.5
1678.02	24
1679.05	25
1680.08	28
1681.11	24.5
1682.13	25.5
1683.16	21
1684.19	29
1685.22	25
1686.25	27
1687.28	21.5
1688.31	27
1689.33	26.5
1690.36	24.5
1691.39	24.5
1692.42	24
1693.45	26
1694.47	28
1695.5	27
1696.53	24.5
1697.55	25.5
1698.58	22
1699.61	25
1700.63	26
1701.66	28.5
1702.68	27
1703.71	23.5
1704.74	21.5
1705.76	23
1706.79	21.5
1707.81	27
1708.84	22.5
1709.86	27.5
1710.89	25.5
1711.91	24
1712.94	27.5
1713.96	26
1714.98	26
1716.01	24.5
1717.03	24.5
1718.05	27
1719.08	23
1720.1	22.5
1721.12	25.5
1722.15	27.5
1723.17	26
1724.19	26.5
1725.22	29
1726.24	22
1727.26	24
1728.28	28.5
1729.3	24
1730.32	22
1731.35	27
1732.37	22.5
1733.39	25.5
1734.41	25
1735.43	26.5
1736.45	22.5
1737.47	25
1738.49	28.5
1739.51	26
1740.53	23
1741.55	24.5
1742.57	25.5
1743.59	28.5
1744.61	27
1745.63	30.5
1746.65	26
1747.67	24.5
1748.69	28
1749.71	27
1750.72	24
1751.74	22
1752.76	24.5
1753.78	24.5
1754.8	26
1755.81	24.5
1756.83	26.5
1757.85	25.5
1758.87	26.5
1759.88	25.5
1760.9	23.5
1761.92	24.5
1762.93	25
1763.95	24
1764.97	24
1765.98	22
1767	23.5
1768.01	23
1769.03	25
1770.05	24
1771.06	23.5
1772.08	23
1773.09	25
1774.11	26
1775.12	26
1776.13	26
1777.15	29
1778.16	24
1779.18	27
1780.19	29
1781.2	24
1782.22	23.5
1783.23	26.5
1784.24	27.5
1785.26	25
1786.27	23.5
1787.28	26
1788.3	24
1789.31	25
1790.32	27
1791.33	25
1792.35	25.5
1793.36	26
1794.37	28
1795.38	23.5
1796.39	27.5
1797.4	25
1798.41	26
1799.43	27.5
1800.44	27
1801.45	27
1802.46	20.5
1803.47	28
1804.48	25.5
1805.49	25
1806.5	24.5
1807.51	26.5
1808.52	21
1809.53	23.5
1810.53	24
1811.54	26
1812.55	25.5
1813.56	27
1814.57	26
1815.58	25
1816.59	24.5
1817.6	20
1818.6	23.5
1819.61	29
1820.62	26.5
1821.63	26.5
1822.63	24.5
1823.64	25.5
1824.65	26
1825.65	20
1826.66	19
1827.67	23.5
1828.67	26
1829.68	29.5
1830.69	25
1831.69	27.5
1832.7	28.5
1833.7	24
1834.71	29
1835.71	23
1836.72	26.5
1837.72	24.5
1838.73	26
1839.73	23
1840.74	25
1841.74	26.5
1842.75	23
1843.75	26.5
1844.75	22.5
1845.76	27
1846.76	19.5
1847.76	27.5
1848.77	23.5
1849.77	24
1850.77	25
1851.78	27
1852.78	23.5
1853.78	25.5
1854.78	30.5
1855.79	25
1856.79	25
1857.79	26
1858.79	23
1859.79	27
1860.8	25
1861.8	24.5
1862.8	24.5
1863.8	24
1864.8	23.5
1865.8	24
1866.8	25
1867.8	28
1868.8	23
1869.8	26.5
1870.8	26.5
1871.8	25
1872.8	25.5
1873.8	25.5
1874.8	28.5
1875.8	19
1876.8	23.5
1877.8	26
1878.79	24.5
1879.79	26.5
1880.79	23
1881.79	25
1882.79	23
1883.79	29.5
1884.78	28
1885.78	29.5
1886.78	22
1887.77	26
1888.77	26
1889.77	29
1890.77	24
1891.76	25.5
1892.76	26
1893.76	21.5
1894.75	23.5
1895.75	25
1896.74	28.5
1897.74	24
1898.73	24
1899.73	22.5
1900.72	24.5
1901.72	25.5
1902.72	24
1903.71	24
1904.7	25
1905.7	25.5
1906.69	24
1907.69	27
1908.68	22
1909.67	24
1910.67	26
1911.66	23.5
1912.66	26
1913.65	23.5
1914.64	25.5
1915.63	24
1916.63	28.5
1917.62	22.5
1918.61	25
1919.6	26
1920.6	23
1921.59	23.5
1922.58	27
1923.57	25
1924.56	26
1925.56	26.5
1926.55	24.5
1927.54	23.5
1928.53	23
1929.52	23
1930.51	26.5
1931.5	25
1932.49	23
1933.48	26
1934.47	24.5
1935.46	20.5
1936.45	24
1937.44	23
1938.43	20.5
1939.42	24.5
1940.41	22
1941.4	22.5
1942.39	26
1943.37	27
1944.36	28
1945.35	24
1946.34	25.5
1947.33	22
1948.32	25.25
1949.3	25.5
1950.29	27
1951.28	24.5
1952.27	26.5
1953.25	21.5
1954.24	25
1955.23	25
1956.21	23.5
1957.2	26
1958.19	28.5
1959.17	20.5
1960.16	24.5
1961.14	26
1962.13	25.5
1963.12	24.5
1964.1	25.5
1965.09	21.5
1966.07	24.5
1967.06	26
1968.04	22
1969.03	26
1970.01	25
1970.99	24.5
1971.98	25
1972.96	24
1973.95	26.5
1974.93	25.5
1975.92	23
1976.9	24.5
1977.88	22
1978.87	28.5
1979.85	24
1980.83	26
1981.81	22.5
1982.8	24
1983.78	26
1984.76	24
1985.74	22.5
1986.73	25.5
1987.71	24
1988.69	27
1989.67	21
1990.65	27
1991.63	26.5
1992.61	21.5
1993.59	25
1994.58	23.5
1995.56	24.5
1996.54	23.5
1997.52	26.5
1998.5	25.5
1999.48	23
2000.46	24
2001.44	27
2002.42	20
2003.4	24
2004.38	24.5
2005.35	25
2006.33	25
2007.31	26
2008.29	22.5
2009.27	22.5
2010.25	22
2011.23	22.5
2012.2	19.5
2013.18	26.5
2014.16	23
2015.14	26
2016.11	23
2017.09	22.5
2018.07	24
2019.05	23.5
2020.02	22
2021	24
2021.98	23.5
2022.95	22.5
2023.93	22
2024.91	23.5
2025.88	26
2026.86	26.5
2027.83	22.5
2028.81	24
2029.78	23
2030.76	24.5
2031.73	24
2032.71	21.5
2033.68	20.5
2034.66	25.5
2035.63	25.5
2036.61	24
2037.58	23
2038.56	22
2039.53	23.5
2040.5	23
2041.48	20
2042.45	25
2043.42	23.5
2044.4	21.5
2045.37	26.5
2046.34	20.5
2047.32	24
2048.29	21.5
2049.26	26.5
2050.23	24
2051.2	20.5
2052.18	26
2053.15	23
2054.12	26.5
2055.09	25.5
2056.06	27
2057.03	18.5
2058	24
2058.98	25.5
2059.95	19
2060.92	27
2061.89	25
2062.86	22
2063.83	22.5
2064.8	24
2065.77	26
2066.74	24
2067.71	25
2068.68	23
2069.65	25
2070.61	24
2071.58	25
2072.55	25.5
2073.52	22
2074.49	26.5
2075.46	21
2076.43	23
2077.4	24
2078.36	26.5
2079.33	25
2080.3	25.5
2081.27	24
2082.23	24
2083.2	23.5
2084.17	25
2085.13	24
2086.1	22
2087.07	25
2088.03	21
2089	22
2089.97	19
2090.93	26.5
2091.9	22.5
2092.86	25
2093.83	24
2094.8	21
2095.76	26
2096.73	19.5
2097.69	24
2098.66	24
2099.62	20.5
2100.58	26
2101.55	24
2102.51	21
2103.48	21
2104.44	26
2105.41	23.5
2106.37	24
2107.33	23
2108.3	23.5
2109.26	22
2110.22	24
2111.19	21.5
2112.15	25
2113.11	22.5
2114.07	22
2115.04	25
2116	27.5
2116.96	27.5
2117.92	25.5
2118.88	21
2119.85	26.5
2120.81	26.5
2121.77	27.5
2122.73	24
2123.69	24.5
2124.65	24
2125.61	21.5
2126.57	20
2127.53	22
2128.49	23.5
2129.45	23.5
2130.41	23.5
2131.37	25
2132.33	26
2133.29	25
2134.25	21.5
2135.21	21
2136.17	22.5
2137.13	25
2138.09	22
2139.05	22
2140.01	21
2140.96	23
2141.92	23.5
2142.88	25.9747
2143.84	20.9405
2144.8	21.5576
2145.75	22.6807
2146.71	18.3065
2147.67	22.2132
2148.63	21.6267
2149.58	22.3897
2150.54	23.9155
2151.5	22.1017
2152.45	20.8146
2153.41	24.6466
2154.37	23.8654
2155.32	22.9484
2156.28	23.9032
2157.23	23.0887
2158.19	20.1583
2159.15	24.0717
2160.1	19.9826
2161.06	22.9482
2162.01	23.9911
2162.97	23.5506
2163.92	24.3445
2164.88	22.9733
2165.83	20.4117
2166.78	24.1587
2167.74	20.7042
2168.69	24.8325
2169.65	23.2478
2170.6	25.2955
2171.56	17.6129
2172.51	25.3737
2173.46	21.8792
2174.42	25.0712
2175.37	23.8872
2176.32	23.5164
2177.28	24.2856
2178.23	21.7954
2179.18	22.1013
2180.13	23.9005
2181.08	24.2615
2182.04	23.9744
2182.99	25.1695
2183.94	24.1462
2184.89	23.9518
2185.84	21.6839
2186.8	24.3124
2187.75	22.4994
2188.7	24.1545
2189.65	20.9981
2190.6	22.9404
2191.55	22.2601
2192.5	23
2193.45	22.9902
2194.4	22.8835
2195.35	22.6141
2196.3	23.1634
2197.25	23.1475
2198.2	21.8597
2199.15	24.1027
2200.1	21.6572
2201.05	21.5787
2202	22
2202.95	21.7045
2203.9	22.5077
2204.85	23.3228
2205.79	22.8859
2206.74	23.649
2207.69	22.3301
2208.64	20.1583
2209.59	25.0278
2210.53	23.2338
2211.48	24.1248
2212.43	23.9902
2213.38	21.9911
2214.32	20.3764
2215.27	22.5914
2216.22	22.0855
2217.17	22.336
2218.11	23.2857
2219.06	22.2
2220.01	21.1213
2220.95	20.2501
2221.9	20.8924
2222.84	23.1985
2223.79	24.1602
2224.73	26.842
2225.68	22.3882
2226.63	22.7832
2227.57	20.7542
2228.52	23.6959
2229.46	22.3544
2230.41	22.8278
2231.35	21.9062
2232.3	23.456
2233.24	23.0793
2234.18	21.3927
2235.13	20.4197
2236.07	23.3241
2237.02	22.9735
2237.96	23.6345
2238.9	23.9053
2239.85	24.7401
2240.08	25
2241.03	23
2241.97	26
2242.92	22
2243.87	23
2244.82	21
2245.76	24.5
2246.71	25
2247.66	25.5
2248.61	24.5
2249.55	19
2250.5	23
2251.45	22
2252.39	20
2253.34	23
2254.29	21
2255.23	23.5
2256.18	20
2257.12	23
2258.07	22
2259.01	22
2259.96	23.5
2260.9	26
2261.85	22
2262.79	25
2263.74	23
2264.68	23.5
2265.63	21.5
2266.57	25
2267.52	25.5
2268.46	22
2269.41	24.5
2270.35	21.5
2271.29	25.5
2272.24	24.5
2273.18	20.5
2274.12	24
2275.07	23.5
2276.01	24.5
2276.95	24
2277.89	20
2278.84	24
2279.78	20.5
2280.72	22.5
2281.66	23
2282.6	21.5
2283.55	22
2284.49	22
2285.43	23.5
2286.37	23
2287.31	20.5
2288.25	21
2289.2	26.5
2290.14	24
2291.08	23.5
2292.02	21
2292.96	25
2293.9	23.5
2294.84	23
2295.78	20
2296.72	25
2297.66	21
2298.6	20.5
2299.54	21
2300.48	22
2301.42	20.5
2302.35	20.5
2303.29	23.5
2304.23	19.5
2305.17	25
2306.11	23
2307.05	25
2307.99	24
2308.92	26
2309.86	24.5
2310.8	27.5
2311.74	18
2312.67	22
2313.61	22.5
2314.55	23
2315.49	22
2316.42	22.5
2317.36	21
2318.3	25.5
2319.23	21
2320.17	25.5
2321.1	30
2322.04	25
2322.98	24
2323.91	26
2324.85	26
2325.78	24
2326.72	20.5
2327.66	22.5
2328.59	25
2329.52	25.5
2330.46	24
2331.39	24
2332.33	23
2333.26	24
2334.2	26.5
2335.13	27.5
2336.07	24
2337	24
2337.93	26
2338.87	22
2339.8	18.5
2340.73	23
2341.67	21.5
2342.6	23
2343.53	30
2344.46	25
2345.4	20
2346.33	24
2347.26	24
2348.19	22
2349.13	21.5
2350.06	21.5
2350.99	25
2351.92	21.5
2352.85	24
2353.79	19
2354.72	21
2355.65	21
2356.58	24
2357.51	24.5
2358.44	25.5
2359.37	20.5
2360.3	22
2361.23	22.5
2362.16	22.5
2363.09	23
2364.02	24
2364.95	22.5
2365.88	25.5
2366.81	21
2367.74	22
2368.67	22.5
2369.6	20
2370.53	27
2371.45	21
2372.38	25
2373.31	23.5
2374.24	23.5
2375.17	26
2376.1	27
2377.02	27
2377.95	24
2378.88	23.5
2379.81	23
2380.73	18.5
2381.66	22.5
2382.59	23.5
2383.52	27
2384.44	24
2385.37	22.5
2386.3	20
2387.22	26
2388.15	23
2389.07	21
2390	25
2390.93	22
2391.85	24.5
2392.78	23.5
2393.7	22.5
2394.63	26.5
2395.55	21.5
2396.48	22.5
2397.4	24.5
2398.33	22
2399.25	25
2400.18	24
2401.1	27.5
2402.03	25
2402.95	20
2403.87	25.5
2404.8	23
2405.72	26.5
2406.64	28
2407.57	19
2408.49	24.5
2409.41	26
2410.34	23
2411.26	22
2412.18	24
2413.1	21
2414.03	26
2414.95	22.5
2415.87	24
2416.79	26
2417.72	24
2418.64	21
2419.56	26
2420.48	23
2421.4	26
2422.32	24
2423.24	28.5
2424.16	23
2425.09	24.5
2426.01	23.5
2426.93	20.5
2427.85	25
2428.77	24
2429.69	26.5
2430.61	23
2431.53	26
2432.45	22.5
2433.37	24
2434.29	24.5
2435.21	22.5
2436.12	27
2437.04	29.5
2437.96	24
2438.88	24.5
2439.8	25
2440.72	26
2441.64	24
2442.55	24.5
2443.47	21
2444.39	27
2445.31	27
2446.23	23.5
2447.14	22
2448.06	24.5
2448.98	25
2449.9	25
2450.81	26
2451.73	24.5
2452.65	22
2453.56	25.5
2454.48	20
2455.39	25
2456.31	23
2457.23	25
2458.14	24
2459.06	24.5
2459.97	27
2460.89	24
2461.8	25
2462.72	24
2463.64	24.5
2464.55	24
2465.47	20
2466.38	26
2467.29	27
2468.21	21.5
2469.12	25.5
2470.04	25.5
2470.95	25.5
2471.86	25
2472.78	26
2473.69	20.5
2474.61	25.5
2475.52	26
2476.43	25
2477.35	29
2478.26	22.5
2479.17	24
2480.08	24.5
2481	24
2481.91	24.5
2482.82	24
2483.73	25
2484.64	22
2485.56	25.5
2486.47	21.5
2487.38	26
2488.29	23.5
2489.2	25.5
2490.11	23.5
2491.03	21
2491.94	23.5
2492.85	25
2493.76	24
2494.67	22.5
2495.58	25
2496.49	26
2497.4	22.5
2498.31	24.5
2499.22	24
2500.13	23.5
2501.04	23.5
2501.95	23
2502.86	25
2503.77	26
2504.67	25
2505.58	23.5
2506.49	22
2507.4	25.5
2508.31	23
2509.22	22
2510.13	27
2511.03	27.5
2511.94	25.5
2512.85	26
2513.76	26.5
2514.66	25.5
2515.57	26
2516.48	22
2517.39	23
2518.29	25
2519.2	28.5
2520.11	25.5
2521.01	23.5
2521.92	26.5
2522.83	24.5
2523.73	23
2524.64	26.5
2525.54	22
2526.45	27.5
2527.36	22.5
2528.26	29
2529.17	25
2530.07	26
2530.98	24
2531.88	23.5
2532.79	26
2533.69	20.5
2534.6	25.5
2535.5	26
2536.41	22.5
2537.31	23
2538.21	26
2539.12	22.5
2540.02	25
2540.93	24.5
2541.83	27
2542.73	23
2543.64	26.5
2544.54	23
2545.44	21
2546.34	22.5
2547.25	25
2548.15	24.5
2549.05	27.5
2549.96	20
2550.86	25
2551.76	24
2552.66	25
2553.56	23.5
2554.46	27
2555.37	24
2556.27	26
2557.17	28
2558.07	26.5
2558.97	23
2559.87	26
2560.77	25
2561.67	24
2562.57	24.5
2563.47	24
2564.37	23.5
2565.27	24
2566.17	22
2567.07	25
2567.97	26.5
2568.87	26.5
2569.77	26.5
2570.67	25.5
2571.57	24
2572.47	25
2573.37	27
2574.27	24
2575.17	25
2576.06	25
2576.96	25
2577.86	21
2578.76	24
2579.66	28.5
2580.56	20
2581.45	26.5
2582.35	25
2583.25	23.5
2584.15	24
2585.04	26
2585.94	25.5
2586.84	27
2587.73	24.5
2588.63	22.5
2589.53	23
2590.42	26
2591.32	23
2592.22	22.5
2593.11	22.5
2594.01	29
2594.9	27
2595.8	20
2596.69	25.5
2597.59	22.5
2598.48	27
2599.38	26
2600.28	24
2601.17	26
2602.06	29.5
2602.96	23.5
2603.85	27
2604.75	24
2605.64	27
2606.54	24
2607.43	26
2608.32	25
2609.22	26.5
2610.11	24.5
2611	26
2611.9	26.5
2612.79	22.5
2613.68	25
2614.58	21
2615.47	26.5
2616.36	22.5
2617.25	27.5
2618.15	26
2619.04	22
2619.93	21
2620.82	25
2621.71	23
2622.61	23
2623.5	25.5
2624.39	24
2625.28	24.5
2626.17	21
2627.06	25
2627.95	24.5
2628.84	21
2629.74	20
2630.63	25
2631.52	24
2632.41	25.5
2633.3	29
2634.19	24
2635.08	25
2635.97	23.5
2636.85	27
2637.74	22
2638.63	22
2639.52	20
2640.41	23
2641.3	21
2642.19	23.5
2643.08	21.5
2643.97	25.5
2644.86	25.5
2645.74	23.5
2646.63	24.5
2647.52	25.5
2648.41	22.5
2649.3	23.5
2650.18	25.5
2651.07	24
2651.96	26
2652.85	25
2653.73	26
2654.62	22
2655.51	21.5
2656.39	23
2657.28	26.5
2658.17	22
2659.05	26
2659.94	26.5
2660.83	24
2661.71	26
2662.6	26
2663.48	26
2664.37	20.5
2665.25	21
2666.14	24
2667.02	21.5
2667.91	22.5
2668.79	24
2669.68	22.5
2670.56	20
2671.45	26.5
2672.33	22.5
2673.22	26.5
2674.1	24
2674.98	26.5
2675.87	21
2676.75	25
2677.64	19.5
2678.52	22
2679.4	24
2680.29	25.5
2681.17	21
2682.05	27
2682.94	27
2683.82	23
2684.7	24.5
2685.58	23
2686.47	25
2687.35	23.5
2688.23	22.5
2689.11	25.5
2689.99	25
2690.88	24
2691.76	23.5
2692.64	23.5
2693.52	24.5
2694.4	32
2695.28	23
2696.16	26
2697.04	22
2697.92	24.5
2698.8	22
2699.69	19.5
2700.57	25
2701.45	23
2702.33	21
2703.21	23.5
2704.09	23
2704.97	28
2705.84	23.5
2706.72	25.5
2707.6	22.5
2708.48	25
2709.36	24.5
2710.24	27.5
2711.12	24
2712	27
2712.88	24
2713.75	25
2714.63	22.5
2715.51	28
2716.39	25.5
2717.27	28.5
2718.14	21.5
2719.02	27.5
2719.9	27.5
2720.78	22.5
2721.65	24.5
2722.53	21
2723.41	26
2724.28	26.5
2725.16	25
2726.04	25
2726.92	24
2727.79	27
2728.67	26
2729.54	20
2730.42	29.5
2731.3	24
2732.17	23
2733.05	31
2733.92	25
2734.8	20
2735.67	26
2736.55	24
2737.42	25
2738.3	20.5
2739.17	27.5
2740.05	21.5
2740.92	26
2741.79	24.5
2742.67	26
2743.54	22
2744.42	23
2745.29	23
2746.16	23
2747.04	25.5
2747.91	27.5
2748.78	26.5
2749.66	25
2750.53	24.5
2751.4	22.5
2752.28	22.5
2753.15	23.5
2754.02	23.5
2754.89	25
2755.77	24
2756.64	23.5
2757.51	23.5
2758.38	26
2759.25	27.5
2760.13	25.5
2761	24
2761.87	21
2762.74	23.5
2763.61	25
2764.48	26
2765.35	27
2766.22	23.5
2767.09	24.5
2767.96	26.5
2768.83	18
2769.71	25
2770.57	23
2771.44	26.5
2772.32	26.5
2773.18	22
2774.05	24
2774.92	23
2775.79	24.5
2776.66	24.5
2777.53	23
2778.4	26.5
2779.27	25.5
2780.14	20.5
2781.01	26.5
2781.87	25.5
2782.74	24
2783.61	23.5
2784.48	25.5
2785.35	25
2786.21	22.5
2787.08	21.5
2787.95	27.5
2788.82	24.5
2789.69	28.5
2790.55	25
2791.42	27
2792.29	26
2793.15	21
2794.02	28
2794.89	28
2795.75	28
2796.62	26.5
2797.49	22.5
2798.35	26
2799.22	31
2800.08	28
2800.95	28.5
2801.81	28
2802.68	26.5
2803.55	28
2804.41	27
2805.28	26
2806.14	22
2807	29.5
2807.87	23
2808.73	26
2809.6	32
2810.46	23.5
2811.33	26
2812.19	27.5
2813.06	26.5
2813.92	20
2814.78	26
2815.65	26.5
2816.51	26.5
2817.37	26.5
2818.24	25.5
2819.1	27
2819.96	29.5
2820.83	25.5
2821.69	24.5
2822.55	26.5
2823.41	29.5
2824.28	25.5
2825.14	29
2826	25
2826.86	25.5
2827.72	26
2828.58	25
2829.45	25
2830.31	26.5
2831.17	26
2832.03	24.5
2832.89	26.5
2833.75	26
2834.61	26
2835.47	25
2836.33	28
2837.2	22.5
2838.05	23
2838.92	22
2839.78	30
2840.64	24
2841.49	26.5
2842.35	25
2843.21	28.5
2844.07	23.5
2844.93	20
2845.79	25
2846.65	25
2847.51	27
2848.37	24
2849.23	24.5
2850.09	28
2850.94	24
2851.8	30
2852.66	24.5
2853.52	28
2854.38	23.5
2855.23	26
2856.09	27
2856.95	30.5
2857.81	25
2858.67	28
2859.52	29
2860.38	29
2861.24	20
2862.09	28
2862.95	27.5
2863.81	29.5
2864.66	25
2865.52	29
2866.38	26
2867.23	26
2868.09	29.5
2868.94	25
2869.8	29.5
2870.65	29
2871.51	31.5
2872.37	24.5
2873.22	28.5
2874.08	32.5
2874.93	26.5
2875.79	31
2876.64	26.5
2877.49	28.5
2878.35	33
2879.2	31
2880.06	33.5
2880.91	33.5
2881.77	32
2882.62	35.5
2883.47	32
2884.33	38.5
2885.18	32.5
2886.03	37.5
2886.89	36
2887.74	34
2888.59	36.5
2889.45	41
2890.3	37
2891.15	39
2892	46
2892.86	42.5
2893.71	47
2894.56	39
2895.41	45
2896.27	48.5
2897.12	54
2897.97	50.5
2898.82	56
2899.67	57.5
2900.52	65
2901.37	66
2902.23	66.5
2903.08	68
2903.93	71
2904.78	70
2905.63	72.5
2906.48	72
2907.33	72.5
2908.18	66.5
2909.03	70
2909.88	60
2910.73	67
2911.58	63
2912.43	57
2913.28	52.5
2914.13	53.5
2914.98	43
2915.83	42
2916.67	46.5
2917.52	40.5
2918.37	43.5
2919.22	38.5
2920.07	40.5
2920.92	34.5
2921.77	37
2922.61	38.5
2923.46	33
2924.31	34
2925.16	33.5
2926	31.5
2926.85	36
2927.7	31.5
2928.55	30.5
2929.39	31.5
2930.24	27.5
2931.09	28
2931.94	28.5
2932.78	27
2933.63	27
2934.47	28.5
2935.32	32
2936.17	27.5
2937.01	29.5
2937.86	29
2938.7	28
2939.55	27
2940.4	29
2941.24	32.5
2942.09	27.5
2942.93	29
2943.78	30.5
2944.62	30.5
2945.47	25.5
2946.31	27
2947.16	28.5
2948	33
2948.84	30
2949.69	29.5
2950.53	34.5
2951.38	32
2952.22	37
2953.06	33
2953.91	35.5
2954.75	32
2955.59	33
2956.44	35
2957.28	36.5
2958.12	32.5
2958.97	40
2959.81	37
2960.65	41.5
2961.5	40
2962.34	44.5
2963.18	40.5
2964.02	45
2964.86	48
2965.71	48
2966.55	41.5
2967.39	47
2968.23	39
2969.07	41.5
2969.91	40
2970.75	34
2971.6	38.0024
2972.44	39.8512
2973.28	36.4953
2974.12	33.2593
2974.96	29.2088
2975.8	37.7569
2976.64	34.3245
2977.48	30.5083
2978.32	31.4902
2979.16	32.8213
2980	29.4755
2980.84	30.5351
2981.68	28.2573
2982.52	29.8211
2983.36	30.2291
2984.2	26.9716
2985.04	24.417
2985.88	27.2447
2986.71	27.2818
2987.55	27.0671
2988.39	29.3215
2989.23	25.9914
2990.07	27.2812
2990.91	22.9078
2991.75	28.1877
2992.58	23.8359
2993.42	24.4229
2994.26	25.8743
2995.1	26.4207
2995.93	26.15
2996.77	26.3412
2997.61	25.3719
2998.45	25.4684
2999.28	24.3099
3000.12	25.4887
3000.96	23.5971
3001.79	23.9751
3002.63	22.5093
3003.47	23.8651
3004.3	24.7996
3005.14	23.017
3005.98	21.7706
3006.81	22.4784
3007.65	20.8545
3008.48	24.4912
3009.32	24.6264
3010.15	23.8467
3010.99	23.5
3011.82	25.3519
3012.66	23.3997
3013.5	25.087
3014.33	22.7708
3015.17	22.1606
3016	21.3335
3016.83	23.5478
3017.67	24.6342
3018.5	24.4524
3019.34	23.1372
3020.17	24.8428
3021.01	24.303
3021.84	23.5841
3022.67	23.6858
3023.51	22.7536
3024.34	23.6054
3025.17	21.3039
3026.01	23.4155
3026.84	22.1743
3027.67	23.5039
3028.51	22.705
3029.34	21.8646
3030.17	20.5652
3031	23.5877
3031.84	24.6389
3032.67	24.9524
3033.5	22.4394
3034.33	24.2525
3035.17	23.9505
3036	23.0908
3036.83	25.0791
3037.66	24.7967
3038.49	22.9926
3039.32	21.4655
3040.15	21.8919
3040.99	23.8876
3041.82	23.0957
3042.65	24.2826
3043.48	20.1323
3044.31	20.8105
3045.14	24.7304
3045.97	24.5741
3046.8	23.5579
3047.63	23.4405
3048.46	24.1028
3049.29	22.7682
3050.12	20.9704
3050.95	21.2096
3051.78	23.2033
3052.61	22.7097
3053.44	25.2684
3054.27	25.4544
3055.1	23.2489
3055.92	21.6034
3056.75	21.1365
3057.27	25.5
3058.11	23
3058.94	28
3059.77	23.5
3060.61	26
3061.44	21
3062.27	20.5
3063.11	24
3063.94	25
3064.77	22.5
3065.6	24.5
3066.43	16
3067.27	23.5
3068.1	19.5
3068.93	17
3069.76	23
3070.59	23
3071.42	25.5
3072.26	23.5
3073.09	24.5
3073.92	19
3074.75	24
3075.58	22.5
3076.41	22
3077.24	24.5
3078.07	21
3078.9	23
3079.73	22
3080.56	25.5
3081.39	19
3082.22	27
3083.05	23
3083.88	23.5
3084.71	26
3085.54	25
3086.37	25
3087.2	23.5
3088.03	29
3088.86	19.5
3089.69	20.5
3090.51	22
3091.34	22.5
3092.17	24.5
3093	23
3093.83	20
3094.66	23.5
3095.48	25.5
3096.31	23
3097.14	24
3097.97	26.5
3098.79	22
3099.62	23.5
3100.45	26
3101.28	23.5
3102.1	21.5
3102.93	23.5
3103.76	21.5
3104.58	26
3105.41	26.5
3106.24	18
3107.06	26.5
3107.89	25
3108.72	25
3109.54	24
3110.37	20
3111.19	25
3112.02	22
3112.84	27.5
3113.67	24
3114.49	26
3115.32	22.5
3116.15	24.5
3116.97	24.5
3117.8	22
3118.62	28
3119.44	21
3120.27	27.5
3121.09	23
3121.92	23.5
3122.74	21.5
3123.57	20.5
3124.39	23.5
3125.21	22
3126.04	22.5
3126.86	23
3127.68	25
3128.51	21
3129.33	22.5
3130.15	22.5
3130.98	17
3131.8	24
3132.62	25.5
3133.44	22
3134.27	22
3135.09	24
3135.91	22
3136.73	22.5
3137.56	26
3138.38	21
3139.2	24
3140.02	28.5
3140.84	24
3141.67	23
3142.49	25.5
3143.31	22.5
3144.13	19.5
3144.95	20.5
3145.77	23.5
3146.59	23
3147.41	25
3148.23	22
3149.05	24
3149.87	24.5
3150.69	22
3151.51	26
3152.33	23
3153.15	26
3153.97	22
3154.79	21
3155.61	22
3156.43	23
3157.25	22
3158.07	22.5
3158.89	23
3159.71	24
3160.53	20.5
3161.35	20.5
3162.17	24
3162.98	22
3163.8	24.5
3164.62	26
3165.44	24.5
3166.26	28
3167.07	22
3167.89	22.5
3168.71	23
3169.53	21
3170.35	25.5
3171.16	23
3171.98	22.5
3172.8	21
3173.61	28.5
3174.43	26
3175.25	24.5
3176.06	20.5
3176.88	22
3177.7	20.5
3178.51	24
3179.33	25.5
3180.15	25.5
3180.96	22
3181.78	23.5
3182.59	24.5
3183.41	21
3184.22	20
3185.04	22
3185.85	25
3186.67	22
3187.49	25
3188.3	21
3189.12	27.5
3189.93	19.5
3190.74	25
3191.56	22
3192.37	28
3193.19	22.5
3194	24
3194.82	24
3195.63	23
3196.44	26.5
3197.26	26
3198.07	19
3198.88	20
3199.7	25
3200.51	24.5
3201.32	24
3202.14	24.5
3202.95	25
3203.76	23
3204.58	20.5
3205.39	24
3206.2	23.5
3207.01	21.5
3207.83	27
3208.64	23
3209.45	22.5
3210.26	24
3211.07	22.5
3211.88	21.5
3212.7	25.5
3213.51	25
3214.32	27
3215.13	23
3215.94	26
3216.75	25
3217.56	26.5
3218.37	20.5
3219.18	25.5
3220	23
3220.8	24
3221.62	25.5
3222.43	26
3223.24	22.5
3224.05	17
3224.86	24
3225.67	23.5
3226.47	25.5
3227.28	24
3228.09	22.5
3228.9	24
3229.71	25.5
3230.52	23.5
3231.33	23
3232.14	22
3232.95	27.5
3233.76	24
3234.56	21
3235.37	25
3236.18	22
3236.99	25.5
3237.8	22
3238.61	24
3239.41	25
3240.22	27
3241.03	25.5
3241.84	24
3242.64	22.5
3243.45	24
3244.26	23
3245.07	22
3245.87	24
3246.68	23
3247.49	23.5
3248.29	20.5
3249.1	25.5
3249.9	24.5
3250.71	24.5
3251.52	23
3252.32	23.5
3253.13	26.5
3253.93	21
3254.74	23
3255.55	22.5
3256.35	24
3257.16	26
3257.96	28
3258.77	25.5
3259.57	20
3260.38	23.5
3261.18	25.5
3261.99	20.5
3262.79	22.5
3263.6	22.5
3264.4	22
3265.2	22
3266.01	26.5
3266.81	23
3267.62	28
3268.42	23
3269.22	26
3270.03	26.5
3270.83	23.5
3271.63	27
3272.44	24.5
3273.24	21
3274.04	26.5
3274.85	22
3275.65	25.5
3276.45	23
3277.25	21
3278.06	24.5
3278.86	23
3279.66	24
3280.46	23.5
3281.26	24.5
3282.07	23
3282.87	25.5
3283.67	24
3284.47	24.5
3285.27	24.5
3286.07	21
3286.87	20
3287.68	24.5
3288.48	23
3289.28	24.5
3290.08	22
3290.88	20.5
3291.68	22.5
3292.48	26.5
3293.28	20.5
3294.08	27
3294.88	20
3295.68	23
3296.48	23
3297.28	25
3298.08	22.5
3298.88	22.5
3299.68	21.5
3300.48	24
3301.28	20
3302.08	24
3302.88	24
3303.67	25
3304.47	22
3305.27	25
3306.07	25
3306.87	23
3307.67	25
3308.46	25
3309.26	25
3310.06	32.5
3310.86	24
3311.66	21.5
3312.45	24.5
3313.25	21
3314.05	21
3314.85	22
3315.64	23.5
3316.44	25.5
3317.24	23.5
3318.03	27
3318.83	25.5
3319.63	23
3320.42	21.5
3321.22	20
3322.02	24
3322.81	21
3323.61	24
3324.4	23
3325.2	24
3326	24.5
3326.79	25
3327.59	23
3328.38	24
3329.18	21
3329.97	26
3330.77	20.5
3331.56	25
3332.36	27.5
3333.15	22
3333.95	25.5
3334.74	24.5
3335.54	24
3336.33	26
3337.13	23.5
3337.92	24.5
3338.71	22.5
3339.51	26
3340.3	24
3341.1	23.5
3341.89	27
3342.68	24.5
3343.48	25.5
3344.27	25.5
3345.06	21
3345.85	23
3346.65	23.5
3347.44	23.5
3348.23	26.5
3349.03	23.5
3349.82	24.5
3350.61	22.5
3351.4	27.5
3352.19	25
3352.99	23
3353.78	24.5
3354.57	26
3355.36	22
3356.15	23
3356.94	26
3357.74	26.5
3358.53	20.5
3359.32	25
3360.11	25
3360.9	25
3361.69	22
3362.48	25
3363.27	22
3364.06	27
3364.85	24
3365.64	21
3366.43	22
3367.22	25.5
3368.01	24
3368.8	23
3369.59	28
3370.38	25.5
3371.17	25
3371.96	25.5
3372.75	23
3373.54	23.5
3374.33	24
3375.12	26
3375.91	26
3376.69	21.5
3377.48	21
3378.27	25.5
3379.06	25
3379.85	23.5
3380.64	28.5
3381.42	23.5
3382.21	25
3383	26
3383.79	24
3384.58	21.5
3385.36	27
3386.15	27
3386.94	26
3387.73	25
3388.51	25.5
3389.3	17
3390.09	26
3390.87	24.5
3391.66	23
3392.45	27
3393.23	24.5
3394.02	19
3394.81	28
3395.59	21.5
3396.38	22.5
3397.16	19.5
3397.95	21.5
3398.74	22
3399.52	26.5
3400.31	26
3401.09	19
3401.88	21
3402.66	26
3403.45	21.5
3404.23	26
3405.02	24
3405.8	18.5
3406.59	25
3407.37	24.5
3408.15	24
3408.94	25
3409.72	25.5
3410.51	22.5
3411.29	27
3412.07	24
3412.86	24
3413.64	22.5
3414.42	25
3415.21	23
3415.99	23
3416.78	27
3417.56	23
3418.34	26.5
3419.12	22.5
3419.91	23.5
3420.69	23
3421.47	24.5
3422.25	30.5
3423.04	23.5
3423.82	29.5
3424.6	23.5
3425.38	21
3426.16	25.5
3426.95	21
3427.73	24
3428.51	22
3429.29	24.5
3430.07	26.5
3430.85	19
3431.63	25
3432.42	22
3433.2	22
3433.98	22
3434.76	24.5
3435.54	24.5
3436.32	28
3437.1	21.5
3437.88	24.5
3438.66	26
3439.44	25.5
3440.22	27
3441	24.5
3441.78	24.5
3442.56	20
3443.34	21
3444.12	25
3444.9	26
3445.68	22
3446.45	25
3447.23	23.5
3448.01	25.5
3448.79	19
3449.57	23.5
3450.35	19.5
3451.13	25
3451.91	20.5
3452.68	23.5
3453.46	24.5
3454.24	24.5
3455.02	26
3455.79	24
3456.57	25.5
3457.35	24
3458.13	25
3458.91	24.5
3459.68	27.5
3460.46	25.5
3461.24	24.5
3462.01	23.5
3462.79	25
3463.57	24.5
3464.34	26
3465.12	23
3465.9	25.5
3466.67	27
3467.45	27
3468.22	22.5
3469	21
3469.78	21.5
3470.55	25
3471.33	23
3472.1	24.5
3472.88	26
3473.65	24.5
3474.43	25
3475.2	25.5
3475.98	24.5
3476.75	22.5
3477.53	27
3478.3	22
3479.08	25
3479.85	25.5
3480.63	23
3481.4	22
3482.18	25
3482.95	19.5
3483.72	23.5
3484.5	25
3485.27	24
3486.04	22
3486.82	22.5
3487.59	27
3488.36	22.5
3489.14	19
3489.91	25.5
3490.68	24
3491.46	26.5
3492.23	22.5
3493	20.5
3493.77	25
3494.55	27
3495.32	21.5
3496.09	26.5
3496.86	28.5
3497.64	19
3498.41	23.5
3499.18	21.5
3499.95	21
