#Acq. time (s)=	5
#Accumulations=	5
#Range (cm-ｹ)=	100...3500
#Windows=	4
#Autofocus=	Off
#AutoExposure=	Off
#Spike filter=	Multiple accum.
#Delay time (s)=	0
#Binning=	1
#Readout mode=	Signal
#DeNoise=	Off
#ICS correction=	Off
#Dark correction=	Off
#Inst. Process=	Off
#Instrument=	LabRAM HR Evol
#Detector=	Syncerity OE
#Objective=	x100_VIS
#Grating=	600 (500nm)
#ND Filter=	25%
#Laser=	633nm_Edge
#Hole=	100.021
#Range=	Visible
#Project=	verificaciones
#Sample=	a2
#Site=	lined
#Title=	bolusa2lined
#Remark=	
#Date=	12.01.2026 15:20
#Acquired=	12.01.2026 15:20:25
100.666	24
101.95	28.5
103.233	34
104.516	28.5
105.799	26.5
107.083	27.5
108.365	26
109.648	23
110.93	25.5
112.212	27
113.493	28
114.775	27
116.056	24
117.337	28
118.618	28
119.898	25
121.178	27.5
122.459	24
123.739	25.5
125.018	24.5
126.298	28.5
127.577	27.5
128.856	24
130.135	31.5
131.414	27
132.692	27.5
133.971	27.5
135.249	27
136.525	28
137.803	31.5
139.08	31.5
140.357	29
141.634	29
142.911	28
144.188	30
145.464	28.5
146.74	28
148.015	28.5
149.291	31
150.566	29
151.842	29
153.117	29.5
154.392	26.5
155.665	29
156.939	31
158.214	24
159.488	26
160.76	26
162.034	28
163.307	28
164.581	25
165.854	27
167.125	29
168.398	31
169.67	27
170.941	24
172.213	24.5
173.485	29.5
174.756	29.5
176.026	29
177.298	31
178.569	24
179.838	26
181.109	28.5
182.379	27
183.648	25.5
184.918	27.5
186.187	27.5
187.455	31
188.725	29
189.992	31
191.261	25.5
192.53	29
193.797	26.5
195.065	26
196.332	29.5
197.6	29
198.866	26
200.134	29
201.401	28
202.667	29.5
203.933	26.5
205.199	26.5
206.465	30
207.73	27.5
208.996	29
210.26	30.5
211.526	27
212.79	25.5
214.055	28.5
215.319	27
216.582	28
217.847	27.5
219.11	29
220.374	31.5
221.636	24
222.9	29.5
224.162	26.5
225.424	29
226.687	26
227.949	27
229.212	28
230.473	25
231.734	28
232.996	28
234.256	28.5
235.517	28
236.778	27.5
238.038	26
239.298	26
240.559	27
241.818	27.5
243.077	27
244.337	24
245.596	26
246.854	25.5
248.113	26
249.372	28.5
250.63	25.5
251.887	27
253.145	30
254.404	29.5
255.661	27.5
256.917	27.5
258.174	25.5
259.432	25
260.688	25.5
261.944	30.5
263.2	30
264.456	29
265.711	29.5
266.968	30.5
268.223	27
269.477	30
270.732	30
271.986	27.5
273.24	26.5
274.494	27
275.748	26
277.003	26
278.257	27
279.51	28
280.763	27
282.015	30
283.268	26.5
284.52	27.5
285.773	26
287.024	25.5
288.276	24.5
289.528	23.5
290.779	26.5
292.03	22
293.281	28
294.532	26
295.782	28
297.033	25.5
298.283	26
299.533	28
300.783	25.5
302.032	29
303.281	31.5
304.531	26.5
305.78	27.5
307.028	30
308.275	25.5
309.524	29
310.772	26.5
312.02	25
313.267	22
314.515	26.5
315.762	25
317.009	30
318.255	26
319.501	29
320.748	28.5
321.994	27
323.24	26
324.486	27.5
325.731	30
326.976	30.5
328.221	27
329.466	27.5
330.71	27.5
331.955	31.5
333.199	26
334.443	27
335.686	30.5
336.93	31
338.174	26
339.417	25
340.659	24.5
341.902	26.5
343.145	27.5
344.386	30.5
345.629	28
346.871	26.5
348.112	27
349.354	25.5
350.595	24
351.836	26
353.077	27
354.318	32
355.557	29
356.798	26.5
358.037	27.5
359.277	27
360.518	26.5
361.756	26.5
362.996	28.5
364.234	21
365.473	27
366.711	28
367.95	28
369.187	27
370.426	26.5
371.662	26.5
372.901	27
374.137	22.5
375.375	27
376.611	25
377.848	23
379.084	28.5
380.321	25.5
381.556	28.5
382.793	24
384.027	27
385.264	26.5
386.498	27
387.732	28.5
388.968	29
390.202	25
391.437	28
392.671	25
393.904	29.5
395.138	28
396.371	28
397.604	25.5
398.838	28
400.07	28.5
401.302	29.5
402.536	26.5
403.768	26.5
404.999	29.5
406.232	27
407.463	29
408.694	26
409.925	28.5
411.157	29
412.387	24.5
413.617	26
414.847	26
416.078	26
417.308	23
418.537	27.5
419.767	29
420.997	27
422.226	26
423.454	28.5
424.683	28.5
425.911	30
427.139	27.5
428.368	28
429.596	27
430.823	28
432.05	28.5
433.277	24.5
434.504	29
435.731	29
436.957	27.5
438.185	26
439.411	27.5
440.637	27
441.862	24.5
443.088	28.5
444.313	29.5
445.538	27.5
446.763	24.5
447.988	25.5
449.212	33
450.436	27
451.661	26
452.884	25
454.108	25.5
455.332	27.5
456.555	28
457.778	24.5
459.001	29
460.224	29
461.446	27
462.668	25
463.891	32
465.111	27
466.333	26
467.554	27
468.776	28.5
469.997	28.5
471.218	32
472.439	30
473.659	25
474.878	28.5
476.098	31
477.318	26.5
478.538	30.5
479.758	32.5
480.977	34.5
482.195	29
483.414	31
484.633	34
485.851	31.5
487.07	32
488.287	32
489.505	36.5
490.723	32.5
491.94	31
493.156	33.5
494.374	32
495.591	32
496.806	33.5
498.023	26
499.239	33
500.456	30.5
501.67	32
502.886	31
504.102	28
505.316	29.5
506.531	29
507.745	30.5
508.96	29.5
510.175	30
511.388	32.5
512.602	30
513.815	27.5
515.029	24
516.243	29
517.455	31.5
518.669	28
519.88	27.5
521.093	28
522.305	29
523.518	31.5
524.729	28.5
525.941	27
527.151	29.5
528.363	27.5
529.574	29
530.785	27
531.995	29
533.206	28
534.416	26
535.626	25
536.835	26
538.046	31
539.254	23.5
540.463	27
541.673	28
542.881	28
544.09	27
545.298	28.5
546.506	25
547.714	27.5
548.922	26
550.13	31.5
551.337	29.5
552.544	26
553.751	22.5
554.958	24.5
556.164	26
557.37	30
558.577	27.5
559.782	25
560.987	22
562.194	29
563.399	27.5
564.604	29
565.808	22
567.014	26.5
568.218	28
569.422	25.5
570.626	28
571.829	30.5
573.034	29
574.237	28
575.44	26
576.643	28.5
577.846	28
579.048	23.5
580.252	25.5
581.454	32
582.656	27.5
583.857	27
585.059	31
586.26	28.5
587.461	26.5
588.662	30
589.863	26
591.065	24
592.265	28.5
593.465	27
594.665	25.5
595.865	27.5
597.065	27.5
598.264	28
599.463	31.5
600.662	29.5
601.861	27
603.06	28.5
604.258	25.5
605.457	28
606.655	27
607.853	25
609.05	28
610.248	28
611.444	29.5
612.641	28
613.838	26.5
615.034	25.5
616.231	29.5
617.427	30
618.624	30.5
619.82	29
621.015	27.5
622.21	26.5
623.405	29
624.6	26
625.795	25
626.99	25.5
628.185	29.5
629.378	27
630.572	26
631.766	29.5
632.96	29.5
634.154	32
635.346	29
636.54	30
637.733	28.5
638.926	27.5
640.117	27
641.31	30
642.502	27.5
643.693	26.5
644.885	26.5
646.077	28
647.267	30
648.459	28.5
649.65	29
650.84	26.5
652.031	30.5
653.222	27.5
654.411	26.5
655.601	27.5
656.791	27.5
657.98	24
659.17	31.5
660.358	30
661.547	25
662.737	28
663.924	30
665.113	30.5
666.3	25
667.489	31.5
668.676	31
669.864	29.5
671.05	30.5
672.238	29
673.424	28
674.612	26
675.798	31.5
676.985	25.5
678.17	31
679.357	30.5
680.542	30.5
681.728	29.5
682.913	31
684.097	33
685.283	24
686.467	30
687.652	24
688.836	28
690.02	29
691.205	29
692.388	26.5
693.571	30
694.755	29.5
695.938	27
697.12	30.5
698.304	29
699.486	29
700.668	31.5
701.851	26.5
703.032	33
704.214	32
705.395	31.5
706.577	30
707.758	32
708.939	31
710.119	34
711.301	29
712.481	30.5
713.661	30
714.84	27.5
716.02	32.5
717.201	27
718.38	29
719.559	28.5
720.737	30
721.916	27
723.094	28
724.274	29.5
725.452	27
726.63	30.5
727.808	29.5
728.985	26
730.162	25.5
731.339	27
732.516	29
733.693	26.5
734.87	29
736.046	28
737.222	31
738.398	29
739.574	27.5
740.75	28.5
741.925	27
743.1	23.5
744.276	29.5
745.45	26.5
746.625	28.5
747.8	28
748.974	24.5
750.148	32
751.322	27
752.496	29.5
753.67	29
754.843	29.5
756.016	23.5
757.189	26
758.362	28
759.534	28
760.706	31
761.878	31
763.051	23.5
764.223	29
765.394	25
766.565	29.5
767.736	24
768.907	25
770.078	29
771.249	28
772.419	22.5
773.589	30.5
774.759	27.5
775.93	20
777.098	23
778.268	28
779.438	26.5
780.607	26
781.775	28.5
782.944	32
784.113	29
785.28	32.5
786.449	26.5
787.617	29.5
788.784	29
789.952	31
791.12	22
792.286	32.5
793.453	28.5
794.62	26
795.786	30
796.953	25.5
798.118	26
799.285	25.5
800.45	31
801.616	30.5
802.782	26.5
803.946	27
805.112	24
806.276	25
807.441	25.5
808.605	26
809.77	27
810.933	29
812.098	28
813.261	28.5
814.425	28
815.588	27.5
816.75	25.5
817.914	28
819.076	26.5
820.239	25
821.401	28
822.564	25
823.725	24.5
824.886	28.5
826.048	24.5
827.209	26
828.37	28
829.532	29.5
830.692	23
831.852	27.5
833.013	24.5
834.173	25
835.333	23
836.493	30
837.653	23
838.812	29
839.972	25.5
841.13	25
842.289	28.5
843.447	30.5
844.607	29
845.765	26.5
846.922	28
848.08	28.5
849.237	28
850.396	25
851.553	29
852.71	28.5
853.867	26.5
855.023	25.5
856.179	26.5
857.337	24
858.493	26.5
859.649	26.5
860.804	32
861.96	27
863.115	29
864.27	29.5
865.425	27.5
866.58	27
867.734	30
868.888	25
870.043	24
871.197	26
872.35	28
873.504	27
874.658	30.5
875.811	30
876.964	27
878.117	25.5
879.27	30
880.422	28
881.575	27
882.727	21
883.879	26
885.031	27
886.182	24
887.334	21.5
888.485	25
889.636	24.5
890.787	23.5
891.937	24
893.088	25
894.238	28.5
895.388	27
896.538	27
897.688	30.5
898.837	22.5
899.986	28.5
901.136	26
902.285	28
903.434	30.5
904.581	25
905.73	25
906.878	26.5
908.027	27
909.174	25
910.321	26
911.469	26
912.617	25.5
913.763	27.5
914.91	26
916.057	27
917.203	30.5
918.35	27.5
919.496	31
920.641	27
921.787	29.5
922.933	25.5
924.078	27
925.224	29
926.368	27.5
927.513	25
928.658	24.5
929.802	25
930.946	25
932.09	23.5
933.234	24.5
934.377	24.5
935.521	26.5
936.664	24.5
937.807	29.5
938.95	25.5
940.093	29
941.235	25
942.378	26
943.519	29.5
944.662	24.5
945.803	26
946.946	28
948.086	26.5
949.227	27
950.369	29.5
951.509	26.5
952.651	24
953.79	25.5
954.93	26
956.071	25.5
957.211	24.5
958.35	31.5
959.49	26
960.629	25
961.768	26
962.908	27.5
964.046	27
965.184	24.5
966.323	26
967.461	24
968.599	28.5
969.736	25
970.875	27
972.012	24.5
973.149	24
974.286	26.5
975.424	25.5
976.56	25
977.697	27
978.833	29
979.969	25
981.104	25
982.241	29
983.377	24.5
984.512	23.5
985.647	27
986.782	25.5
987.916	20
989.051	28
990.185	28
991.321	21
992.455	24
993.589	24
994.722	27.5
995.856	27
996.989	24.5
998.122	30
999.255	25
1000.39	28.5
1001.52	22.5
1002.65	24
1003.79	28
1004.92	27.5
1006.05	28
1007.18	25.5
1008.31	31.5
1009.44	28
1010.57	24.5
1011.7	21
1012.84	25.5
1013.97	31
1015.1	27.5
1016.23	28
1017.36	26
1018.49	29
1019.62	22
1020.75	25.5
1021.88	22
1023	25.5
1024.13	28
1025.26	27
1026.39	30
1027.52	24
1028.65	26
1029.78	24.5
1030.9	26.5
1032.03	27
1033.16	24
1034.29	28
1035.41	20.5
1036.54	27
1037.67	26
1038.79	26.5
1039.92	26
1041.04	25.5
1042.17	26.5
1043.3	24.5
1044.42	25
1045.55	27
1046.67	25.5
1047.8	26.5
1048.92	25.5
1050.05	28
1051.17	26
1052.3	29
1053.42	25.5
1054.54	25
1055.67	26
1056.79	26.5
1057.91	26
1059.04	29
1060.16	26.5
1061.28	28
1062.41	24
1063.53	23
1064.65	27.5
1065.77	26.5
1066.9	25.5
1068.02	24.5
1069.14	22.5
1070.26	28
1071.38	28.5
1072.5	29
1073.62	25
1074.74	28
1075.86	25.5
1076.98	22.5
1078.1	27
1079.22	23.5
1080.34	24
1081.46	24
1082.58	25
1083.7	25.5
1084.82	22
1085.94	25.5
1087.06	24.5
1088.18	26
1089.29	23
1090.41	23.5
1091.53	27.5
1092.65	26
1093.77	26
1094.88	27
1096	24.5
1097.12	27
1098.23	25
1099.35	23
1100.47	24.5
1101.58	26.5
1102.7	23
1103.82	25.5
1104.93	25.5
1106.05	29
1107.16	25.5
1108.28	24
1109.39	25
1110.51	27
1111.62	24.5
1112.74	28.5
1113.85	25
1114.96	23.5
1116.08	25
1117.19	24
1118.31	26
1119.42	27
1120.53	25.5
1121.65	27
1122.76	21.5
1123.87	23
1124.98	26
1126.1	23.5
1127.21	23.5
1128.32	24.5
1129.43	25
1130.54	28
1131.65	21
1132.76	25
1133.88	23
1134.99	26
1136.1	30.5
1137.21	25
1138.32	23
1139.43	22
1140.54	23
1141.65	24
1142.76	25
1143.87	26
1144.98	24
1146.08	25
1147.19	23.5
1148.3	25
1149.41	25
1150.52	24.5
1151.63	23
1152.73	26
1153.84	26.5
1154.95	26
1156.06	24
1157.17	25.5
1158.27	26
1159.38	26.5
1160.49	27.5
1161.59	24
1162.7	26
1163.8	27.5
1164.91	29
1166.02	24.5
1167.12	26.5
1168.23	28
1169.33	24
1170.44	27
1171.54	27
1172.65	25.5
1173.75	21
1174.86	21
1175.96	26
1177.06	25
1178.17	27.5
1179.27	23
1180.37	26
1181.48	26.5
1182.58	28
1183.68	28.5
1184.79	26
1185.89	28.5
1186.99	23.5
1188.09	21
1189.2	24
1190.3	28
1191.4	25.5
1192.5	24
1193.6	24
1194.7	22.9996
1195.8	24.9942
1196.9	28.4174
1198.01	25.9764
1199.11	24.974
1200.21	24.4928
1201.31	24.098
1202.41	27.1517
1203.5	25.4918
1204.6	25.7929
1205.7	26.9821
1206.8	22.0431
1207.9	24.5091
1209	22.8087
1210.1	22.2618
1211.2	23.8801
1212.3	26.9566
1213.39	24.4802
1214.49	24.9461
1215.59	23.7712
1216.69	25.3114
1217.78	22.6273
1218.88	23.7257
1219.98	21.2829
1221.08	22.5243
1222.17	24.3969
1223.27	21.5645
1224.37	25.4943
1225.46	24.2924
1226.56	24.3372
1227.65	23.0283
1228.75	24.1259
1229.84	25.0705
1230.94	23.3252
1232.03	23.6974
1233.13	24.6692
1234.22	24.1953
1235.32	24.0922
1236.41	26.5985
1237.51	24.861
1238.6	24.8094
1239.69	26.0864
1240.79	24.1833
1241.88	26.5007
1242.97	26.0098
1244.07	25.4102
1245.16	22.0117
1246.25	24.2102
1247.35	25.1667
1248.44	22.0584
1249.53	23.1513
1250.62	23.4812
1251.71	24.0421
1252.81	24.9806
1253.9	24.9863
1254.99	24.0305
1256.08	25.3826
1257.17	25.0334
1258.26	23.7622
1259.35	24.7786
1260.44	26.1505
1261.53	25.2532
1262.62	26.2075
1263.71	25.0684
1264.8	22.4702
1265.89	21.9771
1266.98	25.4107
1268.07	22.164
1269.16	26.9782
1270.25	24.4617
1271.34	23.9788
1272.43	20.9878
1273.52	22.1243
1274.6	24.7721
1275.69	25.4542
1276.78	23.7654
1277.87	22.1239
1278.95	26.0599
1280.04	23.9017
1281.13	23.0441
1282.22	21.5536
1283.3	26.0895
1284.39	25.432
1285.48	20.7134
1286.56	21.6791
1287.65	25.5586
1288.73	23.2879
1289.82	24.5447
1290.91	26.4124
1291.99	25.1928
1293.08	25.3641
1294.16	23.7565
1295.24	20.3752
1296.33	21.7715
1297.41	24.3447
1298.5	26.6575
1299.58	25.1652
1300.67	24.5801
1301.75	24.9807
1302.83	24.3331
1303.92	26.5132
1305	24.2224
1306.08	23.3613
1306.4	23.5
1307.49	23
1308.58	26
1309.66	23
1310.75	24.5
1311.84	26.5
1312.93	21
1314.01	24
1315.1	26
1316.19	24
1317.27	22
1318.36	24.5
1319.45	23.5
1320.53	21
1321.62	21.5
1322.71	20
1323.79	26.5
1324.88	22.5
1325.96	27
1327.05	25
1328.13	27
1329.22	24
1330.3	23.5
1331.39	23.5
1332.47	27
1333.55	27
1334.64	24.5
1335.72	25
1336.81	25
1337.89	22.5
1338.97	25.5
1340.06	23
1341.14	27
1342.22	25.5
1343.3	25
1344.39	25.5
1345.47	26.5
1346.55	21.5
1347.63	25
1348.71	22.5
1349.8	28.5
1350.88	22
1351.96	26
1353.04	23.5
1354.12	23.5
1355.2	25
1356.28	24.5
1357.36	23.5
1358.44	23
1359.52	23
1360.6	25
1361.68	24
1362.76	26.5
1363.84	21
1364.92	23
1366	22.5
1367.08	27.5
1368.16	23
1369.23	26
1370.31	25.5
1371.39	25
1372.47	18
1373.55	23
1374.62	21.5
1375.7	26
1376.78	25
1377.86	24.5
1378.93	22
1380.01	26
1381.09	25.5
1382.16	26.5
1383.24	28
1384.32	26
1385.39	24.5
1386.47	25
1387.54	22.5
1388.62	26
1389.69	24
1390.77	23
1391.84	25.5
1392.92	22
1393.99	23
1395.07	25.5
1396.14	24
1397.21	27.5
1398.29	25
1399.36	27
1400.44	26.5
1401.51	25
1402.58	27.5
1403.66	24
1404.73	27
1405.8	26.5
1406.87	25
1407.95	24
1409.02	27.5
1410.09	28
1411.16	23.5
1412.23	23.5
1413.3	23
1414.38	30
1415.45	22.5
1416.52	25.5
1417.59	22.5
1418.66	22
1419.73	25
1420.8	25.5
1421.87	24.5
1422.94	26.5
1424.01	23.5
1425.08	25
1426.15	27
1427.22	26
1428.29	25.5
1429.36	30.5
1430.43	27
1431.49	26.5
1432.56	24.5
1433.63	25
1434.7	30
1435.77	22.5
1436.83	22
1437.9	28
1438.97	25.5
1440.04	25.5
1441.1	23
1442.17	26.5
1443.24	25
1444.3	22
1445.37	23.5
1446.44	23.5
1447.5	27
1448.57	24.5
1449.63	25.5
1450.7	20
1451.77	24.5
1452.83	24.5
1453.9	23
1454.96	24.5
1456.03	25
1457.09	25.5
1458.15	23
1459.22	26
1460.28	23.5
1461.35	26.5
1462.41	22
1463.47	22
1464.54	26
1465.6	25
1466.66	22
1467.73	26
1468.79	24.5
1469.85	21
1470.91	28
1471.98	25
1473.04	25
1474.1	26
1475.16	25
1476.22	22
1477.28	27
1478.35	22
1479.41	25
1480.47	24
1481.53	27.5
1482.59	24
1483.65	26.5
1484.71	26
1485.77	27
1486.83	23.5
1487.89	24
1488.95	25
1490.01	25
1491.07	26
1492.13	26
1493.18	23
1494.24	28
1495.3	26.5
1496.36	26
1497.42	23
1498.48	23.5
1499.53	25
1500.59	23.5
1501.65	23
1502.71	26
1503.76	26
1504.82	22
1505.88	21.5
1506.93	22.5
1507.99	25.5
1509.05	20
1510.1	26
1511.16	26
1512.21	23.5
1513.27	25
1514.33	28
1515.38	23.5
1516.44	25.5
1517.49	26
1518.55	21
1519.6	20
1520.66	29
1521.71	22
1522.76	18.5
1523.82	25
1524.87	21.5
1525.93	26
1526.98	27
1528.03	22.5
1529.08	25
1530.14	25
1531.19	28.5
1532.24	26.5
1533.3	24
1534.35	24
1535.4	28
1536.45	30
1537.5	27
1538.56	26
1539.61	22.5
1540.66	23
1541.71	25
1542.76	23.5
1543.81	24.5
1544.86	25
1545.91	22
1546.96	26
1548.01	25
1549.06	28
1550.11	26
1551.16	20.5
1552.21	21
1553.26	23.5
1554.31	24
1555.36	29.5
1556.41	19
1557.46	24.5
1558.51	29.5
1559.56	26.5
1560.6	23.5
1561.65	25
1562.7	24.5
1563.75	28.5
1564.79	26.5
1565.84	21.5
1566.89	26.5
1567.94	21.5
1568.98	23
1570.03	18
1571.08	22
1572.12	24
1573.17	23.5
1574.22	25.5
1575.26	23
1576.31	23.5
1577.35	26
1578.4	28
1579.44	24
1580.49	26.5
1581.53	25
1582.58	27
1583.62	28
1584.67	27
1585.71	26
1586.76	28.5
1587.8	25.5
1588.84	28
1589.89	26.5
1590.93	27.5
1591.97	22
1593.02	24
1594.06	23
1595.1	26
1596.14	28
1597.19	23
1598.23	25
1599.27	27
1600.31	25
1601.36	23
1602.4	22.5
1603.44	25
1604.48	21
1605.52	24.5
1606.56	22.5
1607.6	27.5
1608.64	24.5
1609.68	27.5
1610.72	24
1611.76	28
1612.81	26.5
1613.84	27.5
1614.88	26
1615.92	23
1616.96	25.5
1618	23
1619.04	25.5
1620.08	26
1621.12	24.5
1622.16	27.5
1623.2	23.5
1624.23	24.5
1625.27	21
1626.31	23
1627.35	25
1628.39	24.5
1629.42	24
1630.46	25
1631.5	27
1632.53	24.5
1633.57	25
1634.61	24.5
1635.64	26
1636.68	26.5
1637.72	28
1638.75	27.5
1639.79	24.5
1640.82	23
1641.86	29
1642.89	25.5
1643.93	26.5
1644.96	26
1646	24
1647.03	28
1648.07	25.5
1649.1	22
1650.14	25
1651.17	25.5
1652.21	25
1653.24	27.5
1654.27	23
1655.31	26.5
1656.34	24
1657.37	26.5
1658.41	29
1659.44	26.5
1660.47	26
1661.5	27.5
1662.53	27
1663.57	24.5
1664.6	26.5
1665.63	29
1666.66	27.5
1667.69	21.5
1668.72	26.5
1669.76	22
1670.79	26.5
1671.82	30
1672.85	26
1673.88	22
1674.91	23
1675.94	26.5
1676.97	28.5
1678	25
1679.03	26
1680.06	26.5
1681.09	28.5
1682.12	29.5
1683.15	22
1684.17	23
1685.2	26.5
1686.23	27
1687.26	21.5
1688.29	23
1689.32	23.5
1690.34	28
1691.37	23
1692.4	30
1693.43	29
1694.45	28.5
1695.48	24
1696.51	23
1697.54	28.5
1698.56	24
1699.59	26
1700.61	25
1701.64	28.5
1702.67	25
1703.69	26
1704.72	27
1705.74	26.5
1706.77	29.5
1707.79	25.5
1708.82	29
1709.84	23
1710.87	24
1711.89	27.5
1712.92	26.5
1713.94	26
1714.97	23.5
1715.99	28.5
1717.01	23
1718.04	24
1719.06	25
1720.08	25
1721.11	28.5
1722.13	25.5
1723.15	24.5
1724.18	27
1725.2	26
1726.22	25.5
1727.24	27
1728.26	25.5
1729.29	26
1730.31	25
1731.33	26.5
1732.35	27.5
1733.37	25
1734.39	21
1735.41	25.5
1736.43	27
1737.45	23.5
1738.47	24
1739.5	21
1740.52	25.5
1741.53	26
1742.55	21
1743.57	27.5
1744.59	23.5
1745.61	29
1746.63	27.5
1747.65	28.5
1748.67	22.5
1749.69	24
1750.71	25.5
1751.72	29.5
1752.74	27.5
1753.76	26
1754.78	26.5
1755.8	19
1756.81	25
1757.83	24.5
1758.85	27.5
1759.87	24
1760.88	23.5
1761.9	24.5
1762.92	26.5
1763.93	22
1764.95	28
1765.96	25.5
1766.98	24
1768	23
1769.01	27
1770.03	24.5
1771.04	27
1772.06	28.5
1773.07	24.5
1774.09	25
1775.1	20.5
1776.12	25.5
1777.13	26.5
1778.15	23
1779.16	24
1780.17	22
1781.19	30.5
1782.2	24.5
1783.21	26
1784.23	24.5
1785.24	23
1786.25	25
1787.27	22
1788.28	28
1789.29	24
1790.3	27
1791.32	24.5
1792.33	23.5
1793.34	23
1794.35	26.5
1795.36	24.5
1796.38	25.5
1797.39	29
1798.4	23
1799.41	21.5
1800.42	26
1801.43	24
1802.44	23
1803.45	23.5
1804.46	24
1805.47	29
1806.48	27
1807.49	27
1808.5	28.5
1809.51	23.5
1810.52	20
1811.53	23.5
1812.53	23.5
1813.54	28.5
1814.55	25
1815.56	23
1816.57	24.5
1817.58	21.5
1818.59	28
1819.59	23.5
1820.6	25
1821.61	27
1822.62	24
1823.62	26.5
1824.63	27
1825.64	24.5
1826.64	24.5
1827.65	23.5
1828.66	25
1829.66	25
1830.67	21.5
1831.67	22.5
1832.68	30
1833.69	26.5
1834.69	29.5
1835.7	25
1836.7	26.5
1837.71	25.5
1838.71	24
1839.72	28
1840.72	26.5
1841.72	22.5
1842.73	24
1843.73	26
1844.74	28
1845.74	22.5
1846.74	26
1847.75	24.5
1848.75	23
1849.75	25
1850.76	22
1851.76	26
1852.76	26.5
1853.76	28
1854.77	26.5
1855.77	18
1856.77	24.5
1857.77	20
1858.78	27
1859.78	24
1860.78	27
1861.78	23.5
1862.78	28
1863.78	22.5
1864.78	26
1865.78	26.5
1866.78	30
1867.78	27
1868.78	27
1869.78	24.5
1870.78	24
1871.78	20
1872.78	22.5
1873.78	23
1874.78	24
1875.78	24
1876.78	23
1877.78	29
1878.78	27
1879.78	26.5
1880.77	26.5
1881.77	24.5
1882.77	25
1883.77	23.5
1884.77	23
1885.76	27.5
1886.76	26
1887.76	26.5
1888.75	25.5
1889.75	27
1890.75	27
1891.74	24
1892.74	24
1893.74	22.5
1894.73	23.5
1895.73	24
1896.73	22
1897.72	25
1898.72	25.5
1899.71	25
1900.71	28
1901.7	23
1902.7	23
1903.69	20.5
1904.69	23
1905.68	23
1906.68	26
1907.67	30
1908.66	28
1909.66	24.5
1910.65	23.5
1911.64	24
1912.64	27
1913.63	24
1914.62	23.5
1915.62	23
1916.61	24
1917.6	21.5
1918.6	26
1919.59	26.5
1920.58	23
1921.57	23.5
1922.56	21
1923.55	25.5
1924.55	22.5
1925.54	25
1926.53	26.5
1927.52	22.5
1928.51	28.5
1929.5	27
1930.49	22.5
1931.48	22.5
1932.47	27
1933.46	22
1934.45	25.5
1935.44	23.5
1936.43	26.5
1937.42	27.5
1938.41	20
1939.4	21.5
1940.39	18.5
1941.38	25
1942.37	23
1943.36	24
1944.35	22.5
1945.33	24.5
1946.32	25.5
1947.31	26
1948.3	24.75
1949.29	21
1950.27	21
1951.26	27
1952.25	25
1953.24	24.5
1954.22	24.5
1955.21	24.5
1956.2	26
1957.18	26
1958.17	23.5
1959.16	21
1960.14	22.5
1961.13	24.5
1962.11	23
1963.1	27
1964.08	27
1965.07	24.5
1966.05	26.5
1967.04	23
1968.02	25.5
1969.01	25.5
1969.99	23.5
1970.98	25
1971.96	22.5
1972.95	23.5
1973.93	26
1974.91	22
1975.9	24
1976.88	24.5
1977.86	28
1978.85	24
1979.83	24.5
1980.81	27.5
1981.8	26
1982.78	27
1983.76	26
1984.74	24.5
1985.73	26
1986.71	22
1987.69	26.5
1988.67	23
1989.65	23.5
1990.63	24
1991.62	24.5
1992.6	25
1993.58	23
1994.56	24
1995.54	24.5
1996.52	25
1997.5	24.5
1998.48	25
1999.46	24
2000.44	25.5
2001.42	22
2002.4	26.5
2003.38	26.5
2004.36	23
2005.34	24
2006.32	24
2007.29	24.5
2008.27	25
2009.25	26
2010.23	23
2011.21	24.5
2012.19	26.5
2013.17	22
2014.14	21.5
2015.12	23.5
2016.1	22.5
2017.07	20.5
2018.05	23.5
2019.03	22.5
2020.01	25.5
2020.98	20
2021.96	25
2022.94	26.5
2023.91	23.5
2024.89	22
2025.86	22
2026.84	22.5
2027.82	22.5
2028.79	22.5
2029.77	27.5
2030.74	24
2031.72	24
2032.69	26
2033.67	25.5
2034.64	25
2035.62	23.5
2036.59	26
2037.56	22.5
2038.54	26.5
2039.51	21.5
2040.49	22.5
2041.46	24.5
2042.43	24
2043.41	25.5
2044.38	27.5
2045.35	23
2046.32	24.5
2047.3	24
2048.27	23.5
2049.24	26.5
2050.21	23
2051.19	27
2052.16	26
2053.13	23.5
2054.1	23
2055.07	25
2056.05	19.5
2057.02	17
2057.99	24.5
2058.96	22
2059.93	25.5
2060.9	21
2061.87	25
2062.84	21
2063.81	22
2064.78	25.5
2065.75	25
2066.72	22.5
2067.69	23
2068.66	24.5
2069.63	23
2070.6	20.5
2071.57	23.5
2072.54	25.5
2073.5	22
2074.47	25.5
2075.44	24
2076.41	22
2077.38	21.5
2078.35	22.5
2079.31	24
2080.28	26.5
2081.25	19.5
2082.22	23.5
2083.18	21.5
2084.15	27.5
2085.12	20
2086.08	26
2087.05	24
2088.02	21
2088.98	23
2089.95	24
2090.92	22
2091.88	24
2092.85	24
2093.81	23.5
2094.78	20.5
2095.74	22
2096.71	25
2097.67	22
2098.64	23
2099.6	24
2100.57	22
2101.53	23.5
2102.5	26
2103.46	25
2104.42	24
2105.39	22
2106.35	21.5
2107.32	25
2108.28	23
2109.24	26
2110.21	22.5
2111.17	24.5
2112.13	24
2113.09	26
2114.06	22.5
2115.02	26
2115.98	25
2116.94	28.5
2117.91	22
2118.87	24.5
2119.83	27
2120.79	27.5
2121.75	24.5
2122.71	24
2123.67	23
2124.63	23
2125.6	25.5
2126.56	25.5
2127.52	26
2128.48	25
2129.44	22.5
2130.4	25.5
2131.36	23
2132.32	24.5
2133.28	23
2134.23	26.5
2135.19	25
2136.15	20.5
2137.11	19.5
2138.07	20.5
2139.03	23
2139.99	21.5
2140.95	24.5
2141.9	19
2142.86	26.4765
2143.82	19.0372
2144.78	24.0533
2145.74	22.5465
2146.69	20.6084
2147.65	22.4806
2148.61	22.1341
2149.57	23.5462
2150.52	25.2641
2151.48	20.1815
2152.44	22.0944
2153.39	23.6274
2154.35	25.2776
2155.31	23.9204
2156.26	24.442
2157.22	22.8495
2158.17	22.404
2159.13	20.2878
2160.08	24.8429
2161.04	21.0788
2161.99	23.7039
2162.95	21.094
2163.91	21.5906
2164.86	24.8546
2165.81	22.1432
2166.77	25.1003
2167.72	23.9054
2168.68	22.3198
2169.63	25.3314
2170.58	24.7895
2171.54	22.9574
2172.49	23.312
2173.45	21.9759
2174.4	23.2975
2175.35	22.4227
2176.31	23.8092
2177.26	23.7184
2178.21	22.1579
2179.16	21.8904
2180.12	23.9406
2181.07	23.9556
2182.02	20.808
2182.97	24.21
2183.92	24.0805
2184.88	21.2961
2185.83	24.6288
2186.78	21.0534
2187.73	22.8924
2188.68	21.6497
2189.63	23.1959
2190.58	22.7873
2191.53	22.5426
2192.49	23.2857
2193.43	24.8014
2194.39	23.5031
2195.34	23.8067
2196.28	23.3609
2197.24	20.8941
2198.19	22.9758
2199.13	20.8077
2200.08	23.1891
2201.03	23.4927
2201.98	22.7397
2202.93	23.2123
2203.88	21.8265
2204.83	22.0568
2205.78	23.642
2206.73	22.1329
2207.67	23.3918
2208.62	23.6508
2209.57	23.5251
2210.52	20.463
2211.47	24.344
2212.41	24.2136
2213.36	22.8174
2214.31	20.7704
2215.26	22.4355
2216.2	22.7542
2217.15	23.2825
2218.1	21.19
2219.04	24.382
2219.99	24.135
2220.93	25.4356
2221.88	23.2849
2222.83	24.2451
2223.77	24.7451
2224.72	20.9863
2225.66	22.172
2226.61	23.0707
2227.55	24.1209
2228.5	24.4172
2229.44	24.0524
2230.39	24
2231.33	25.0992
2232.28	20.7568
2233.22	21.5591
2234.17	22.0947
2235.11	22.0801
2236.06	23.4894
2237	22.3353
2237.94	21.2385
2238.89	21.7874
2239.83	22.7546
2240.06	23
2241.01	20
2241.96	24.5
2242.9	23.5
2243.85	27
2244.8	22
2245.75	19.5
2246.69	23.5
2247.64	20.5
2248.59	24
2249.53	25
2250.48	22
2251.43	23
2252.37	23.5
2253.32	25.5
2254.27	23.5
2255.21	24.5
2256.16	23
2257.1	21.5
2258.05	25
2259	21.5
2259.94	23
2260.89	22
2261.83	25
2262.78	23
2263.72	23
2264.67	24.5
2265.61	21
2266.56	22.5
2267.5	23.5
2268.44	25
2269.39	22
2270.33	25.5
2271.27	25
2272.22	22.5
2273.16	24.5
2274.1	26
2275.05	23
2275.99	22
2276.93	23.5
2277.88	23
2278.82	26
2279.76	26
2280.7	25.5
2281.65	23.5
2282.59	24.5
2283.53	21.5
2284.47	19.5
2285.41	21.5
2286.35	28
2287.29	19
2288.24	23.5
2289.18	21.5
2290.12	20.5
2291.06	22.5
2292	22
2292.94	24
2293.88	23
2294.82	21.5
2295.76	23.5
2296.7	22.5
2297.64	22.5
2298.58	22
2299.52	24.5
2300.46	23.5
2301.4	26
2302.34	25
2303.28	24
2304.21	24
2305.15	25
2306.09	23
2307.03	28.5
2307.97	21
2308.91	26.5
2309.84	24.5
2310.78	24.5
2311.72	22.5
2312.66	26
2313.59	22.5
2314.53	24
2315.47	24
2316.4	26.5
2317.34	20
2318.28	23
2319.22	19.5
2320.15	23.5
2321.09	25
2322.02	25
2322.96	25.5
2323.89	21.5
2324.83	27.5
2325.77	21
2326.7	25.5
2327.64	22.5
2328.57	25
2329.51	23.5
2330.44	21.5
2331.38	25.5
2332.31	23
2333.25	23.5
2334.18	28
2335.11	24.5
2336.05	24
2336.98	21
2337.92	17.5
2338.85	21.5
2339.78	26.5
2340.72	23
2341.65	24.5
2342.58	23
2343.52	21.5
2344.45	24
2345.38	21.5
2346.31	21.5
2347.25	20.5
2348.18	25
2349.11	25
2350.04	21
2350.97	21.5
2351.9	24
2352.84	23.5
2353.77	23.5
2354.7	25.5
2355.63	25
2356.56	23.5
2357.49	25
2358.42	20
2359.35	21.5
2360.28	24
2361.21	23
2362.14	21.5
2363.07	23
2364	25.5
2364.93	26
2365.86	24
2366.79	24
2367.72	23.5
2368.65	26
2369.58	24
2370.51	22.5
2371.44	25.5
2372.36	20
2373.29	24
2374.22	23
2375.15	25
2376.08	23
2377.01	23
2377.93	25
2378.86	25.5
2379.79	25
2380.72	22
2381.64	21
2382.57	23.5
2383.5	22
2384.42	24.5
2385.35	25.5
2386.28	26.5
2387.2	22
2388.13	23.5
2389.06	25
2389.98	22
2390.91	21
2391.83	21
2392.76	25
2393.69	24
2394.61	23
2395.54	23
2396.46	21.5
2397.39	26.5
2398.31	25.5
2399.23	27
2400.16	27
2401.08	23.5
2402.01	23
2402.93	26
2403.86	24
2404.78	22
2405.7	23.5
2406.63	24.5
2407.55	26
2408.47	20.5
2409.4	23
2410.32	20
2411.24	24.5
2412.17	25
2413.09	25
2414.01	20
2414.93	25.5
2415.85	25.5
2416.78	25
2417.7	26
2418.62	23.5
2419.54	27
2420.46	24
2421.38	26
2422.31	25.5
2423.23	23.5
2424.15	26
2425.07	23
2425.99	26.5
2426.91	26
2427.83	23
2428.75	26.5
2429.67	24
2430.59	23
2431.51	24.5
2432.43	21.5
2433.35	22
2434.27	23.5
2435.19	25
2436.11	29
2437.03	24.5
2437.94	25.5
2438.86	22.5
2439.78	26.5
2440.7	25.5
2441.62	24
2442.54	23
2443.46	22
2444.37	22.5
2445.29	22.5
2446.21	22.5
2447.13	28
2448.04	21
2448.96	21
2449.88	23.5
2450.8	28
2451.71	21
2452.63	25.5
2453.55	18.5
2454.46	25.5
2455.38	24
2456.29	26
2457.21	22
2458.13	22
2459.04	23.5
2459.96	28
2460.87	22.5
2461.79	25
2462.7	24
2463.62	24
2464.53	23
2465.45	21.5
2466.36	25
2467.28	24
2468.19	23.5
2469.11	27
2470.02	24
2470.93	27
2471.85	24
2472.76	25
2473.67	23
2474.59	25.5
2475.5	25
2476.42	22.5
2477.33	19
2478.24	23
2479.15	25
2480.07	28
2480.98	25
2481.89	24
2482.8	27
2483.72	21
2484.63	26
2485.54	25
2486.45	23.5
2487.36	24.5
2488.27	23.5
2489.19	24
2490.1	27
2491.01	24.5
2491.92	27.5
2492.83	28
2493.74	24.5
2494.65	21
2495.56	23
2496.47	24
2497.38	26
2498.29	23.5
2499.2	22.5
2500.11	24.5
2501.02	27.5
2501.93	25
2502.84	25
2503.75	27
2504.66	24.5
2505.57	24.5
2506.47	25
2507.38	26
2508.29	25
2509.2	25
2510.11	28
2511.02	25.5
2511.92	24.5
2512.83	24.5
2513.74	25
2514.65	25
2515.55	19.5
2516.46	24
2517.37	22.5
2518.28	24.5
2519.18	23.5
2520.09	30.5
2521	26.5
2521.9	28
2522.81	23.5
2523.72	28.5
2524.62	20
2525.53	28.5
2526.43	22
2527.34	23.5
2528.24	25
2529.15	25.5
2530.06	23
2530.96	25.5
2531.87	22.5
2532.77	24.5
2533.68	24
2534.58	26
2535.48	24
2536.39	23
2537.29	25
2538.2	22.5
2539.1	26
2540	22.5
2540.91	24
2541.81	27
2542.72	26.5
2543.62	23
2544.52	23
2545.42	24
2546.33	24.5
2547.23	25
2548.13	23.5
2549.04	22
2549.94	22
2550.84	22
2551.74	22
2552.64	25.5
2553.55	26
2554.45	25
2555.35	27
2556.25	24.5
2557.15	22
2558.05	24.5
2558.95	24.5
2559.85	22
2560.76	24
2561.66	21.5
2562.56	24.5
2563.46	20
2564.36	27
2565.26	27
2566.16	20
2567.06	23.5
2567.96	24
2568.86	20
2569.76	23
2570.66	27.5
2571.55	26
2572.45	29.5
2573.35	23.5
2574.25	24
2575.15	26.5
2576.05	23.5
2576.95	20
2577.84	24.5
2578.74	26.5
2579.64	26
2580.54	27.5
2581.44	27.5
2582.33	21.5
2583.23	27
2584.13	27.5
2585.03	25.5
2585.92	23
2586.82	27
2587.72	21
2588.61	24.5
2589.51	25.5
2590.41	25.5
2591.3	22
2592.2	23
2593.09	22
2593.99	27
2594.89	26.5
2595.78	25
2596.68	26.5
2597.57	24
2598.47	22
2599.36	25
2600.26	26
2601.15	21
2602.05	27
2602.94	22
2603.84	24.5
2604.73	23.5
2605.63	27
2606.52	26
2607.41	27
2608.31	27.5
2609.2	28.5
2610.09	23
2610.99	25
2611.88	26
2612.77	24.5
2613.67	22
2614.56	26
2615.45	27
2616.35	23
2617.24	24
2618.13	26
2619.02	24.5
2619.91	23.5
2620.81	21
2621.7	24
2622.59	26
2623.48	28
2624.37	24
2625.26	23
2626.15	24.5
2627.05	26
2627.94	28
2628.83	27
2629.72	22
2630.61	21.5
2631.5	28
2632.39	23
2633.28	29
2634.17	26.5
2635.06	25
2635.95	25
2636.84	24.5
2637.73	24.5
2638.62	22.5
2639.51	25
2640.4	24
2641.28	22
2642.17	21.5
2643.06	27
2643.95	25
2644.84	21.5
2645.73	23.5
2646.62	22
2647.5	23.5
2648.39	25.5
2649.28	25
2650.17	25.5
2651.05	24
2651.94	24.5
2652.83	22
2653.72	25
2654.6	26
2655.49	26.5
2656.38	26
2657.26	25
2658.15	21.5
2659.04	25
2659.92	30.5
2660.81	28.5
2661.69	20
2662.58	22
2663.47	26.5
2664.35	24
2665.24	22.5
2666.12	23
2667.01	21
2667.89	24.5
2668.78	23.5
2669.66	25.5
2670.55	24
2671.43	26
2672.32	24
2673.2	28.5
2674.08	24.5
2674.97	24
2675.85	22
2676.74	26
2677.62	24
2678.5	21
2679.39	25
2680.27	20.5
2681.15	27.5
2682.04	24
2682.92	27
2683.8	28
2684.68	23.5
2685.57	26
2686.45	24
2687.33	26
2688.21	22.5
2689.09	25.5
2689.98	21
2690.86	22
2691.74	28
2692.62	28.5
2693.5	24
2694.38	22.5
2695.27	24
2696.15	28.5
2697.03	27
2697.91	26.5
2698.79	28.5
2699.67	25.5
2700.55	23.5
2701.43	22
2702.31	24
2703.19	25.5
2704.07	20
2704.95	26.5
2705.83	25.5
2706.71	24.5
2707.59	25.5
2708.47	23.5
2709.34	24.5
2710.22	25
2711.1	24
2711.98	26.5
2712.86	21
2713.74	24
2714.62	23.5
2715.49	25.5
2716.37	24.5
2717.25	23
2718.13	26
2719.01	25.5
2719.88	27
2720.76	26.5
2721.64	22.5
2722.51	23.5
2723.39	24
2724.27	26.5
2725.14	25
2726.02	21.5
2726.9	23.5
2727.77	26
2728.65	27
2729.53	21.5
2730.4	24.5
2731.28	24
2732.15	25.5
2733.03	26
2733.91	21.5
2734.78	26
2735.66	23
2736.53	25
2737.41	26
2738.28	22
2739.16	26
2740.03	27
2740.9	24
2741.78	23.5
2742.65	27
2743.53	25
2744.4	23.5
2745.27	23.5
2746.15	25.5
2747.02	23.5
2747.89	27
2748.77	26.5
2749.64	23.5
2750.51	26
2751.39	23
2752.26	24.5
2753.13	27.5
2754.01	26.5
2754.88	24.5
2755.75	24
2756.62	21.5
2757.49	21.5
2758.37	21
2759.24	24.5
2760.11	25
2760.98	22
2761.85	22
2762.72	25
2763.59	23.5
2764.46	22
2765.34	25
2766.21	25
2767.08	23
2767.95	23.5
2768.82	24.5
2769.69	24.5
2770.56	22.5
2771.43	20.5
2772.3	26
2773.17	26
2774.04	27
2774.91	23
2775.78	25.5
2776.65	23.5
2777.51	24
2778.38	23
2779.25	28
2780.12	22
2780.99	21.5
2781.86	24
2782.73	25
2783.59	22.5
2784.46	23.5
2785.33	19.5
2786.2	24
2787.07	20
2787.93	26
2788.8	25
2789.67	23
2790.54	25
2791.4	26.5
2792.27	25
2793.14	24.5
2794	23.5
2794.87	25
2795.74	21
2796.6	25
2797.47	19
2798.34	24
2799.2	23.5
2800.07	23.5
2800.93	24.5
2801.8	25
2802.66	27.5
2803.53	24.5
2804.39	30.5
2805.26	25
2806.12	27
2806.99	23.5
2807.85	26.5
2808.72	24
2809.58	27.5
2810.45	24.5
2811.31	26
2812.18	26
2813.04	26.5
2813.9	25
2814.77	23.5
2815.63	27.5
2816.49	24
2817.36	24.5
2818.22	28.5
2819.08	22
2819.95	24.5
2820.81	22.5
2821.67	25.5
2822.53	24.5
2823.4	21.5
2824.26	26
2825.12	21.5
2825.98	22
2826.84	23
2827.71	24.5
2828.57	26.5
2829.43	23
2830.29	24
2831.15	22.5
2832.01	23
2832.88	24.5
2833.74	24
2834.6	24
2835.46	24
2836.32	23.5
2837.18	23
2838.04	25.5
2838.9	24
2839.76	27
2840.62	25
2841.48	25
2842.34	24
2843.2	24
2844.06	23
2844.92	21.5
2845.78	24
2846.63	26.5
2847.49	23.5
2848.35	22
2849.21	25.5
2850.07	27
2850.93	24
2851.79	22
2852.64	21
2853.5	22
2854.36	25
2855.22	27.5
2856.08	25
2856.93	25
2857.79	25
2858.65	22
2859.51	24
2860.36	22
2861.22	26
2862.08	21.5
2862.93	19.5
2863.79	24
2864.65	25
2865.5	26
2866.36	22.5
2867.22	25
2868.07	26
2868.93	26
2869.78	26
2870.64	23
2871.49	21
2872.35	24.5
2873.21	24
2874.06	24.5
2874.91	24
2875.77	22
2876.62	27.5
2877.48	20.5
2878.33	23
2879.19	26
2880.04	22
2880.9	24
2881.75	24.5
2882.6	24
2883.46	26
2884.31	24
2885.17	24.5
2886.02	24
2886.87	25.5
2887.73	25
2888.58	24
2889.43	26
2890.28	25
2891.14	28.5
2891.99	26.5
2892.84	29.5
2893.69	27.5
2894.55	28
2895.4	29
2896.25	25
2897.1	26.5
2897.95	31
2898.8	27
2899.66	24.5
2900.51	30.5
2901.36	30
2902.21	25
2903.06	33.5
2903.91	34
2904.76	32
2905.61	25
2906.46	34
2907.31	30.5
2908.16	33
2909.01	31.5
2909.86	33
2910.71	26
2911.56	31
2912.41	29
2913.26	31.5
2914.11	31.5
2914.96	28.5
2915.81	28
2916.66	27.5
2917.51	30
2918.36	22
2919.2	24.5
2920.05	24.5
2920.9	27
2921.75	22.5
2922.6	26
2923.45	27.5
2924.29	25
2925.14	24.5
2925.99	20.5
2926.84	23
2927.68	25
2928.53	23
2929.38	21
2930.23	23
2931.07	23.5
2931.92	21.5
2932.77	24
2933.61	23.5
2934.46	27
2935.3	24
2936.15	23.5
2937	23.5
2937.84	22.5
2938.69	21
2939.53	24
2940.38	24.5
2941.23	19
2942.07	23.5
2942.92	26.5
2943.76	24
2944.61	23
2945.45	21
2946.3	23
2947.14	25
2947.98	27
2948.83	27
2949.67	24.5
2950.52	29
2951.36	24
2952.2	22.5
2953.05	27.5
2953.89	25.5
2954.74	21
2955.58	25.5
2956.42	26.5
2957.27	28.5
2958.11	26
2958.95	23.5
2959.79	26.5
2960.64	22
2961.48	27.5
2962.32	29
2963.16	24.5
2964.01	27
2964.85	25
2965.69	24
2966.53	23
2967.37	24.5
2968.21	22
2969.06	24.5
2969.9	26.5
2970.74	23.5
2971.58	24.4927
2972.42	25.4837
2973.26	24.5666
2974.1	27.3919
2974.94	23.9803
2975.78	21.5588
2976.62	19.5205
2977.46	24.761
2978.3	26.1286
2979.14	23.2808
2979.98	28.2289
2980.82	24.6576
2981.66	23.7888
2982.5	22.8423
2983.34	25.4158
2984.18	21.0869
2985.02	21.8526
2985.86	23.9053
2986.7	22.3794
2987.54	23.7147
2988.38	23.9305
2989.21	24.3182
2990.05	23.8615
2990.89	20.7972
2991.73	24.3828
2992.57	20.9742
2993.41	23.7008
2994.24	21.2892
2995.08	21.9096
2995.92	22.4014
2996.76	20.9789
2997.59	23.9693
2998.43	25.6004
2999.27	23.9598
3000.1	25.4575
3000.94	21.2817
3001.78	23.0787
3002.61	20.873
3003.45	23.0849
3004.29	21.6557
3005.12	24.5457
3005.96	25.1734
3006.8	23.8011
3007.63	23.6799
3008.47	20.0537
3009.3	23.5422
3010.14	24.4387
3010.97	20.2851
3011.81	21.6246
3012.64	20.5971
3013.48	20.6265
3014.31	22.519
3015.15	18.8491
3015.98	22.4397
3016.82	23.7992
3017.65	22.2989
3018.49	22.1166
3019.32	24.2893
3020.16	22.9898
3020.99	18.9139
3021.82	20.3645
3022.66	21.3793
3023.49	21.7623
3024.32	21.1917
3025.16	20.639
3025.99	21.7053
3026.82	23.7834
3027.66	20.7494
3028.49	21.8735
3029.32	22.4482
3030.16	23.1044
3030.99	21.3221
3031.82	21.3021
3032.65	23.6905
3033.49	22.9569
3034.32	21.5569
3035.15	20.885
3035.98	20.8517
3036.81	21.6727
3037.64	23.2001
3038.48	24.3118
3039.31	24.7007
3040.14	23.2882
3040.97	24.0309
3041.8	22.8359
3042.63	22.4752
3043.46	21.135
3044.29	22.5615
3045.12	21.003
3045.95	21.3835
3046.78	23.5246
3047.61	23.115
3048.44	23.1008
3049.27	24.6437
3050.1	23.835
3050.93	22.7729
3051.76	22.377
3052.59	25.4138
3053.42	25.1811
3054.25	22.8804
3055.08	22.2926
3055.91	21.8789
3056.74	20.756
3057.26	22
3058.09	22
3058.92	17
3059.76	22.5
3060.59	22.5
3061.42	24
3062.26	22
3063.09	22.5
3063.92	18
3064.75	23.5
3065.59	21.5
3066.42	24
3067.25	20.5
3068.08	20
3068.91	22
3069.74	20
3070.58	23
3071.41	21
3072.24	22.5
3073.07	23
3073.9	21
3074.73	21.5
3075.56	24
3076.39	20
3077.22	24.5
3078.05	21.5
3078.88	23.5
3079.71	22
3080.55	23
3081.38	25.5
3082.2	27.5
3083.03	22.5
3083.86	20.5
3084.69	23.5
3085.52	22.5
3086.35	19
3087.18	19.5
3088.01	23.5
3088.84	22
3089.67	22
3090.5	22.5
3091.33	24
3092.15	23.5
3092.98	21.5
3093.81	25
3094.64	20
3095.47	20
3096.29	21
3097.12	22
3097.95	20
3098.78	21.5
3099.6	23
3100.43	24.5
3101.26	25
3102.09	24.5
3102.91	24
3103.74	19.5
3104.57	21.5
3105.39	23.5
3106.22	24
3107.05	20.5
3107.87	20.5
3108.7	23.5
3109.52	20
3110.35	20.5
3111.18	21.5
3112	22
3112.83	20.5
3113.65	24
3114.48	25.5
3115.3	19
3116.13	21.5
3116.95	23.5
3117.78	24
3118.6	19.5
3119.43	20
3120.25	21.5
3121.08	22
3121.9	20
3122.73	25
3123.55	23
3124.37	22.5
3125.2	20.5
3126.02	22.5
3126.84	24
3127.67	23.5
3128.49	23
3129.31	23
3130.14	22.5
3130.96	23
3131.78	19
3132.61	22.5
3133.43	26
3134.25	21.5
3135.07	23.5
3135.9	22
3136.72	26
3137.54	22
3138.36	22
3139.18	25.5
3140.01	27.5
3140.83	24
3141.65	19
3142.47	21
3143.29	23.5
3144.11	23.5
3144.93	25
3145.75	24
3146.58	27.5
3147.4	19
3148.22	25.5
3149.04	23
3149.86	25
3150.68	23.5
3151.5	24.5
3152.32	22.5
3153.14	22
3153.96	25.5
3154.78	23
3155.6	21
3156.42	24.5
3157.23	20
3158.05	26.5
3158.87	25.5
3159.69	22.5
3160.51	22
3161.33	22
3162.15	23
3162.97	23.5
3163.79	26
3164.6	18
3165.42	23
3166.24	26
3167.06	21
3167.88	26.5
3168.69	24.5
3169.51	23
3170.33	25
3171.15	20.5
3171.96	28.5
3172.78	21
3173.6	25
3174.41	23.5
3175.23	21.5
3176.05	22
3176.86	23
3177.68	20.5
3178.5	24
3179.31	23.5
3180.13	21
3180.95	22
3181.76	24
3182.58	23.5
3183.39	23
3184.21	26.5
3185.02	23
3185.84	22.5
3186.65	18.5
3187.47	21.5
3188.28	21
3189.1	21.5
3189.91	22.5
3190.73	19
3191.54	22
3192.36	20
3193.17	20.5
3193.99	23
3194.8	22.5
3195.61	21.5
3196.43	26
3197.24	26.5
3198.05	25.5
3198.87	19.5
3199.68	23.5
3200.49	26.5
3201.31	24.5
3202.12	26
3202.93	26.5
3203.75	22
3204.56	24
3205.37	21
3206.18	22.5
3207	21
3207.81	19.5
3208.62	24
3209.43	23.5
3210.24	23
3211.06	27.5
3211.87	22
3212.68	25
3213.49	23.5
3214.3	22.5
3215.11	22
3215.92	22.5
3216.74	22
3217.55	23.5
3218.36	23
3219.17	23.5
3219.98	27
3220.79	25
3221.6	23
3222.41	21
3223.22	19
3224.03	25.5
3224.84	23
3225.65	24
3226.46	28
3227.27	18
3228.08	20.5
3228.89	23
3229.7	20.5
3230.5	27
3231.31	23
3232.12	24
3232.93	27
3233.74	29
3234.55	21
3235.36	23.5
3236.16	22
3236.97	21
3237.78	22
3238.59	23
3239.4	20
3240.2	23
3241.01	23
3241.82	24.5
3242.63	21
3243.43	22.5
3244.24	27
3245.05	24
3245.86	26
3246.66	20
3247.47	25
3248.28	26.5
3249.08	24
3249.89	26
3250.69	23.5
3251.5	24
3252.31	23.5
3253.11	26.5
3253.92	23
3254.72	19
3255.53	22.5
3256.34	24
3257.14	21.5
3257.95	22.5
3258.75	24
3259.56	20.5
3260.36	24.5
3261.17	23
3261.97	21.5
3262.77	27
3263.58	20
3264.38	25.5
3265.19	27
3265.99	21.5
3266.8	22
3267.6	23
3268.4	19.5
3269.21	22
3270.01	22
3270.81	22
3271.62	23
3272.42	24.5
3273.22	22
3274.03	23
3274.83	25
3275.63	23.5
3276.43	24
3277.24	22.5
3278.04	24
3278.84	23.5
3279.64	24.5
3280.45	22.5
3281.25	25.5
3282.05	21.5
3282.85	21
3283.65	21.5
3284.46	21
3285.26	20
3286.06	22.5
3286.86	24
3287.66	23
3288.46	20
3289.26	26.5
3290.06	21
3290.86	24.5
3291.66	24
3292.46	22
3293.26	22
3294.06	21
3294.86	24.5
3295.66	20
3296.46	23.5
3297.26	24.5
3298.06	19
3298.86	24.5
3299.66	25.5
3300.46	25
3301.26	25
3302.06	24
3302.86	22.5
3303.66	21.5
3304.46	23
3305.26	22.5
3306.05	21
3306.85	23
3307.65	26
3308.45	24
3309.25	20.5
3310.04	21.5
3310.84	25.5
3311.64	27.5
3312.44	26
3313.24	26
3314.03	22
3314.83	24
3315.63	20.5
3316.42	23.5
3317.22	23
3318.02	22
3318.82	25.5
3319.61	26
3320.41	22
3321.2	25.5
3322	25
3322.8	21
3323.59	25
3324.39	23
3325.19	24
3325.98	23
3326.78	22
3327.57	26
3328.37	24.5
3329.16	24
3329.96	24
3330.75	25
3331.55	24.5
3332.34	21.5
3333.14	25.5
3333.93	23
3334.73	23
3335.52	23
3336.32	23
3337.11	24
3337.9	26
3338.7	23.5
3339.49	26.5
3340.29	24.5
3341.08	23
3341.87	24.5
3342.67	22.5
3343.46	26
3344.25	21.5
3345.05	24
3345.84	22
3346.63	23
3347.42	22
3348.22	23
3349.01	23.5
3349.8	25
3350.59	22.5
3351.39	22.5
3352.18	25
3352.97	24
3353.76	23.5
3354.55	24.5
3355.35	23
3356.14	20.5
3356.93	22.5
3357.72	23
3358.51	25.5
3359.3	26
3360.09	25.5
3360.88	24.5
3361.67	24
3362.47	24
3363.26	23
3364.05	26
3364.84	26.5
3365.63	24.5
3366.42	23.5
3367.21	25
3368	25.5
3368.79	22.5
3369.58	19
3370.37	19
3371.16	25.5
3371.95	25
3372.73	21.5
3373.52	20.5
3374.31	22
3375.1	22.5
3375.89	22
3376.68	21
3377.47	29
3378.26	26
3379.04	25
3379.83	24
3380.62	18
3381.41	24
3382.2	26.5
3382.98	21
3383.77	26
3384.56	23.5
3385.35	25
3386.14	24
3386.92	20
3387.71	21
3388.5	25
3389.28	26
3390.07	25.5
3390.86	27
3391.64	21.5
3392.43	26
3393.22	23
3394	23.5
3394.79	24.5
3395.58	24.5
3396.36	25.5
3397.15	25
3397.93	26
3398.72	26.5
3399.5	20.5
3400.29	25.5
3401.07	22.5
3401.86	25.5
3402.65	24
3403.43	22.5
3404.22	28
3405	22
3405.79	24
3406.57	24.5
3407.35	26
3408.14	24.5
3408.92	24
3409.71	22
3410.49	23.5
3411.27	22
3412.06	24
3412.84	23.5
3413.63	24
3414.41	23
3415.19	25.5
3415.98	28
3416.76	22
3417.54	25.5
3418.32	26.5
3419.11	20
3419.89	25.5
3420.67	21
3421.46	26.5
3422.24	25.5
3423.02	24.5
3423.8	29.5
3424.58	21
3425.37	26
3426.15	21.5
3426.93	24
3427.71	24
3428.49	22
3429.27	18.5
3430.06	27.5
3430.84	25
3431.62	23.5
3432.4	21.5
3433.18	24.5
3433.96	21
3434.74	24.5
3435.52	26.5
3436.3	20
3437.08	25
3437.86	24.5
3438.64	23.5
3439.42	22.5
3440.2	23
3440.98	25
3441.76	22
3442.54	24
3443.32	21.5
3444.1	22
3444.88	24
3445.66	25
3446.44	23.5
3447.22	27.5
3448	21
3448.78	21.5
3449.55	24
3450.33	22
3451.11	24
3451.89	25.5
3452.67	25
3453.45	24
3454.22	23
3455	21.5
3455.78	24
3456.56	24.5
3457.33	21.5
3458.11	21.5
3458.89	26
3459.67	23.5
3460.44	21
3461.22	20
3462	24
3462.77	22.5
3463.55	23.5
3464.33	20
3465.1	24
3465.88	24.5
3466.66	23
3467.43	26
3468.21	22.5
3468.99	21.5
3469.76	24.5
3470.54	28
3471.31	19.5
3472.09	24
3472.86	23
3473.64	21.5
3474.41	26
3475.19	21
3475.96	26
3476.74	25
3477.51	24.5
3478.29	22
3479.06	26.5
3479.84	23
3480.61	18.5
3481.39	26.5
3482.16	24.5
3482.93	19.5
3483.71	24.5
3484.48	21.5
3485.26	24.5
3486.03	23.5
3486.8	23.5
3487.58	25.5
3488.35	21
3489.12	23.5
3489.9	25
3490.67	19
3491.44	22
3492.21	24.5
3492.99	24
3493.76	19.5
3494.53	22.5
3495.3	21
3496.08	21.5
3496.85	25.5
3497.62	25
3498.39	25
3499.16	22
3499.94	23.5
