#Acq. time (s)=	5
#Accumulations=	5
#Range (cm-¹)=	100...3500
#Windows=	4
#Autofocus=	Off
#AutoExposure=	Off
#Spike filter=	Multiple accum.
#Delay time (s)=	0
#Binning=	1
#Readout mode=	Signal
#DeNoise=	Off
#ICS correction=	Off
#Dark correction=	Off
#Inst. Process=	Off
#Instrument=	LabRAM HR Evol
#Detector=	Syncerity OE
#Objective=	x100_VIS
#Grating=	600 (500nm)
#ND Filter=	25%
#Laser=	633nm_Edge
#Hole=	100.021
#Range=	Visible
#Project=	verificaciones
#Sample=	a2
#Site=	plain
#Title=	bolusa2plain
#Remark=	com
#Date=	16.01.2026 12:56
#Acquired=	16.01.2026 12:56:59
100.687	27.5
101.971	36.5
103.254	34
104.537	30.5
105.82	30
107.103	32
108.387	33.5
109.669	31
110.951	33
112.233	29.5
113.514	33.5
114.796	35
116.077	31
117.358	35
118.639	29.5
119.919	35.5
121.2	33
122.48	31
123.76	34
125.039	32
126.319	34
127.598	36
128.877	36
130.156	37
131.435	34.5
132.713	37.5
133.992	36
135.268	34.5
136.546	43.5
137.824	36
139.101	36
140.378	39
141.655	39.5
142.932	37.5
144.209	40
145.485	42
146.76	40
148.036	39.5
149.312	42
150.587	40
151.862	44.5
153.138	42
154.411	41
155.686	46.5
156.96	42
158.235	46
159.509	43
160.781	43.5
162.055	43
163.328	41
164.602	47
165.873	41
167.146	41
168.419	39
169.691	36
170.962	41.5
172.234	43
173.506	42.5
174.777	41.5
176.047	41
177.318	39
178.589	45.5
179.859	41.5
181.129	42
182.4	43
183.668	42.5
184.938	42
186.207	44
187.476	43
188.746	42
190.013	45
191.282	38.5
192.551	45
193.818	45.5
195.086	40
196.353	40
197.621	40.5
198.887	40.5
200.154	42
201.422	42
202.687	40.5
203.954	34
205.219	39
206.486	34.5
207.751	37.5
209.017	37.5
210.281	36
211.547	36.5
212.811	32.5
214.076	36.5
215.339	37.5
216.603	36
217.867	35.5
219.13	33
220.395	30.5
221.657	33
222.921	34
224.183	38
225.445	35
226.708	32.5
227.97	33
229.232	33.5
230.493	32.5
231.754	34
233.016	33.5
234.277	34
235.537	30.5
236.799	30.5
238.059	32.5
239.318	31.5
240.579	34.5
241.839	30
243.098	28.5
244.358	32.5
245.617	33
246.875	32.5
248.133	32.5
249.393	29
250.651	28.5
251.908	37
253.166	33
254.424	29
255.681	32.5
256.938	33.5
258.195	27.5
259.451	28.5
260.709	26.5
261.965	32.5
263.221	34.5
264.476	32
265.732	30
266.988	36
268.243	32
269.498	28.5
270.753	33
272.007	30
273.261	32.5
274.515	29.5
275.769	27.5
277.022	28.5
278.277	30.5
279.53	31.5
280.783	32
282.036	32.5
283.289	30.5
284.541	31.5
285.793	28
287.045	33.5
288.297	33
289.548	29
290.8	32.5
292.051	27
293.302	31
294.552	32
295.803	35.5
297.053	33
298.303	29
299.553	27
300.803	33
302.053	33
303.302	30.5
304.551	30.5
305.8	29.5
307.047	34
308.296	31
309.544	31
310.792	31.5
312.04	27.5
313.288	29
314.535	29
315.783	29
317.03	31.5
318.275	30
319.522	31.5
320.768	29.5
322.015	26
323.261	33
324.505	32
325.751	33
326.997	26
328.242	29
329.487	29
330.73	29.5
331.975	28
333.22	26
334.464	29
335.707	31
336.95	31
338.194	32
339.438	28
340.68	33.5
341.923	28.5
343.166	28.5
344.407	31
345.649	29.5
346.892	30.5
348.132	31
349.374	36
350.616	28
351.856	27
353.097	30
354.337	31.5
355.578	28
356.818	32.5
358.058	33
359.298	30.5
360.536	28
361.776	31.5
363.016	31
364.254	35
365.493	32
366.731	29.5
367.97	27
369.207	28
370.446	33
371.683	29.5
372.921	29
374.157	27
375.395	31.5
376.631	26
377.868	29
379.104	34
380.341	28
381.576	33
382.813	28
384.048	32.5
385.284	28.5
386.518	28.5
387.753	29.5
388.988	28
390.222	28.5
391.457	32.5
392.691	29.5
393.924	33
395.159	29.5
396.392	33.5
397.624	32.5
398.858	27.5
400.091	29
401.323	26.5
402.556	25.5
403.788	33
405.019	29
406.252	32
407.483	29
408.714	31.5
409.945	31
411.177	26.5
412.407	27.5
413.637	28
414.867	29
416.099	30
417.328	32.5
418.558	32
419.787	29.5
421.016	30.5
422.246	31
423.475	30
424.703	27
425.931	29
427.159	26.5
428.388	28
429.616	28.5
430.843	32
432.071	33
433.298	29
434.524	24
435.751	30
436.977	28
438.204	32.5
439.431	29.5
440.657	30.5
441.883	25.5
443.108	30.5
444.333	32
445.558	29
446.783	29.5
448.008	30.5
449.232	31
450.457	32.5
451.681	32.5
452.905	29
454.128	31.5
455.352	29
456.575	32
457.798	33.5
459.021	32
460.244	33.5
461.466	31.5
462.689	31.5
463.909	36
465.131	35
466.353	32
467.575	35
468.796	32
470.017	34
471.238	39.5
472.459	37.5
473.679	37
474.898	42.5
476.118	43.5
477.338	41
478.558	45
479.778	50.5
480.997	47
482.215	50.5
483.434	55.5
484.653	61.5
485.871	59.5
487.09	59.5
488.307	64.5
489.525	62
490.743	66
491.96	58.5
493.176	66.5
494.394	53
495.611	54.5
496.826	50.5
498.043	50
499.259	48
500.474	49.5
501.69	45.5
502.906	45
504.121	38.5
505.336	47
506.551	37
507.765	40
508.98	37.5
510.195	40.5
511.408	36
512.622	31
513.835	32
515.049	34.5
516.263	38
517.475	34.5
518.689	31.5
519.9	35
521.113	33
522.325	32
523.537	30
524.748	35.5
525.961	31
527.171	32
528.383	35
529.594	35
530.805	29.5
532.015	33.5
533.226	30.5
534.435	31
535.646	31
536.855	34
538.066	32
539.274	31
540.483	29.5
541.693	32
542.901	33
544.11	29
545.318	29
546.526	31.5
547.734	28.5
548.942	31.5
550.149	29.5
551.357	25.5
552.563	29.5
553.77	30
554.978	31.5
556.184	29.5
557.389	31.5
558.596	27.5
559.802	30
561.007	28
562.212	33.5
563.419	30.5
564.623	29
565.828	28.5
567.032	32.5
568.238	26.5
569.442	28
570.646	32
571.849	28.5
573.054	32
574.257	27
575.46	34
576.663	32.5
577.866	28
579.068	32.5
580.272	28.5
581.474	29
582.676	30.5
583.877	29
585.079	28
586.28	28.5
587.481	28.5
588.682	31.5
589.883	31
591.083	29
592.285	32.5
593.485	26
594.685	32.5
595.885	30
597.084	31.5
598.284	31.5
599.483	32
600.682	26
601.881	24.5
603.08	31
604.278	32
605.476	24.5
606.674	31
607.872	28
609.07	30
610.266	29.5
611.463	32.5
612.661	29.5
613.857	30
615.054	32
616.251	32
617.447	27.5
618.643	30.5
619.839	30
621.035	25.5
622.229	28.5
623.425	26
624.62	28
625.815	30
627.01	30
628.205	30.5
629.398	33
630.592	29
631.786	29
632.98	33
634.172	25.5
635.366	32.5
636.559	26
637.753	33
638.944	32.5
640.137	28.5
641.33	29
642.522	31
643.713	27.5
644.905	30.5
646.097	33
647.287	30
648.478	30.5
649.67	30.5
650.859	29.5
652.05	33
653.241	29
654.43	30.5
655.621	33
656.811	32
657.999	28
659.189	30
660.378	33
661.567	33
662.755	29
663.944	30
665.133	32
666.32	27.5
667.508	28
668.695	33.5
669.884	30
671.07	26
672.258	34
673.444	33.5
674.631	30
675.817	34
677.004	35.5
678.19	36.5
679.376	33
680.561	33
681.746	32.5
682.932	36.5
684.117	33.5
685.302	42.5
686.487	41
687.672	41.5
688.856	38
690.039	36.5
691.224	36
692.407	34
693.59	38
694.774	38.5
695.957	35.5
697.14	34.5
698.323	37.5
699.505	36
700.687	34
701.87	44
703.052	44
704.233	43.5
705.414	48
706.597	50
707.778	56
708.958	48
710.139	55.5
711.32	53
712.5	45.5
713.68	41.5
714.86	39
716.039	41.5
717.22	33.5
718.399	37.5
719.578	31
720.757	34.5
721.935	26.5
723.114	32.5
724.292	27
725.471	33
726.649	31
727.827	27.5
729.004	29.5
730.182	31.5
731.359	32
732.536	30
733.712	29.5
734.889	33
736.065	26
737.242	31.5
738.418	28.5
739.593	31
740.769	33
741.945	27.5
743.12	30
744.295	30
745.47	29.5
746.644	29
747.819	27.5
748.993	29
750.168	28.5
751.342	25
752.515	28
753.689	35
754.862	31
756.036	28.5
757.209	30
758.382	30.5
759.553	30
760.725	26
761.898	30
763.07	28.5
764.242	31
765.414	30
766.584	34.5
767.755	27
768.927	28
770.098	29
771.269	33
772.438	31.5
773.608	30
774.779	29.5
775.949	28
777.117	30
778.287	33
779.457	29.5
780.626	32.5
781.794	34.5
782.963	32
784.132	31.5
785.299	33
786.468	27
787.636	32.5
788.803	35.5
789.971	36
791.139	35
792.305	33.5
793.472	34.5
794.638	29
795.805	32
796.972	33
798.138	28.5
799.304	32
800.469	33
801.635	32.5
802.801	30
803.966	30.5
805.131	29.5
806.295	28
807.461	31
808.624	31.5
809.789	32.5
810.952	29.5
812.117	33
813.28	30
814.444	31
815.607	31.5
816.769	28.5
817.933	29.5
819.095	30.5
820.258	29
821.42	28.5
822.583	30
823.744	29
824.905	27
826.068	31.5
827.228	31
828.389	28.5
829.551	26.5
830.711	30
831.871	32
833.032	29
834.192	33
835.352	29
836.513	27.5
837.672	27
838.831	28.5
839.99	26.5
841.15	27.5
842.308	26.5
843.466	30
844.624	33
845.784	29
846.941	30
848.099	29.5
849.256	29
850.414	31
851.572	28.5
852.729	26.5
853.886	28.5
855.042	28
856.198	30.5
857.355	33.5
858.512	31.5
859.668	27.5
860.823	27.5
861.979	32
863.134	32.5
864.289	32
865.444	30.5
866.599	30
867.753	30.5
868.908	29.5
870.062	32.5
871.216	32
872.37	29
873.523	25
874.677	34
875.83	28
876.983	28
878.136	33
879.289	28.5
880.441	28
881.594	32
882.746	31
883.898	31
885.05	27.5
886.201	28.5
887.353	23.5
888.504	32
889.655	28
890.806	25
891.956	30
893.107	30
894.257	30.5
895.407	25
896.557	28
897.707	31
898.856	23
900.005	28.5
901.154	31
902.304	30.5
903.453	28.5
904.6	28.5
905.749	27
906.897	28.5
908.046	28
909.192	26.5
910.34	27
911.488	25
912.634	33
913.782	27.5
914.929	27.5
916.076	29
917.222	31
918.368	26
919.515	28
920.66	27.5
921.806	25
922.951	27.5
924.097	28
925.242	27.5
926.387	25
927.532	28
928.676	27
929.821	29
930.965	30
932.109	27
933.253	28
934.396	30.5
935.54	26
936.683	27
937.826	33
938.969	33
940.112	33
941.254	24
942.397	30.5
943.538	26.5
944.681	31
945.822	28
946.964	28
948.105	28.5
949.246	27
950.388	28.5
951.528	26
952.669	30
953.809	26.5
954.949	25.5
956.09	24.5
957.229	27.5
958.369	29
959.509	26.5
960.648	29.5
961.786	26
962.926	28
964.065	25.5
965.203	30
966.342	26
967.48	26
968.618	25.5
969.755	25
970.894	28
972.031	30.5
973.168	31
974.305	28.5
975.441	28.5
976.579	26
977.715	30
978.851	25
979.987	26.5
981.123	26.5
982.26	31
983.395	26.5
984.531	30
985.666	27
986.8	31
987.935	25.5
989.07	30.5
990.204	29
991.338	29.5
992.472	24.5
993.607	27
994.741	30.5
995.874	25
997.008	26.5
998.141	25
999.274	30.5
1000.41	31.5
1001.54	27
1002.67	27
1003.8	22.5
1004.94	29
1006.07	30
1007.2	27
1008.33	29.5
1009.46	28
1010.59	29.5
1011.72	27
1012.85	23
1013.99	27
1015.12	31
1016.25	28.5
1017.38	27
1018.51	32
1019.63	26
1020.76	29.5
1021.89	28
1023.02	29
1024.15	30
1025.28	27
1026.41	28.5
1027.54	28
1028.67	32
1029.79	24
1030.92	23
1032.05	27.5
1033.18	25
1034.3	25
1035.43	29.5
1036.56	26
1037.68	28
1038.81	27.5
1039.94	28.5
1041.06	26
1042.19	26.5
1043.31	27
1044.44	24.5
1045.57	28
1046.69	28
1047.82	30
1048.94	22.5
1050.07	25
1051.19	27.5
1052.31	22.5
1053.44	25
1054.56	28.5
1055.69	26.5
1056.81	26.5
1057.93	28.5
1059.06	28.5
1060.18	25
1061.3	27
1062.42	30
1063.55	30.5
1064.67	26
1065.79	30.5
1066.91	24.5
1068.03	29.5
1069.16	26
1070.28	26.5
1071.4	25.5
1072.52	26
1073.64	28
1074.76	26.5
1075.88	29
1077	29
1078.12	25
1079.24	25
1080.36	25
1081.48	26.5
1082.6	27.5
1083.72	25
1084.84	28
1085.96	26
1087.08	25
1088.2	31
1089.31	30
1090.43	27
1091.55	27.5
1092.67	25.5
1093.78	25
1094.9	27
1096.02	24
1097.14	27
1098.25	22
1099.37	25
1100.49	22.5
1101.6	27.5
1102.72	25
1103.83	27.5
1104.95	25.5
1106.07	30.5
1107.18	29.5
1108.3	25
1109.41	32.5
1110.52	22.5
1111.64	28
1112.75	27
1113.87	28.5
1114.98	26.5
1116.1	25
1117.21	24
1118.32	28.5
1119.44	25
1120.55	24
1121.66	28
1122.78	28.5
1123.89	26.5
1125	25
1126.11	25
1127.23	25.5
1128.34	29
1129.45	28
1130.56	26.5
1131.67	26.5
1132.78	26
1133.89	27
1135	23.5
1136.12	23.5
1137.23	23.5
1138.34	31
1139.45	26
1140.56	24.5
1141.67	22.5
1142.78	27
1143.89	25
1144.99	27.5
1146.1	25.5
1147.21	25
1148.32	24.5
1149.43	22.5
1150.54	28
1151.65	21.5
1152.75	25.5
1153.86	24
1154.97	24
1156.08	26.5
1157.18	26.5
1158.29	24.5
1159.4	27.5
1160.5	20
1161.61	25.5
1162.72	24.5
1163.82	28.5
1164.93	25
1166.03	24
1167.14	23
1168.24	27
1169.35	30.5
1170.45	27.5
1171.56	25
1172.66	28
1173.77	26
1174.87	26.5
1175.98	25
1177.08	24
1178.19	25
1179.29	26.5
1180.39	26
1181.5	28.5
1182.6	27.5
1183.7	24
1184.8	22
1185.91	28
1187.01	29
1188.11	26.5
1189.21	26.5
1190.32	26.5
1191.42	21
1192.52	25.5
1193.62	30.5
1194.72	24.996
1195.82	27.4244
1196.92	27.9974
1198.02	26.1157
1199.12	24.6639
1200.22	25.9272
1201.32	25.3701
1202.42	26.3642
1203.52	23.7388
1204.62	25.2233
1205.72	27.0308
1206.82	26.3069
1207.92	25.6876
1209.02	26.1354
1210.12	25.3238
1211.22	26.489
1212.31	24.1304
1213.41	25.3716
1214.51	24.3767
1215.61	27.0728
1216.71	28.8588
1217.8	24.0269
1218.9	24.5943
1220	27.9842
1221.09	26.5998
1222.19	25.469
1223.29	24.1153
1224.38	26.5373
1225.48	25.4131
1226.58	27.7335
1227.67	27.4089
1228.77	26.3707
1229.86	25.7363
1230.96	25.0998
1232.05	25.5413
1233.15	25.6618
1234.24	25.8111
1235.34	25.1617
1236.43	25.1214
1237.52	24.4978
1238.62	21.4127
1239.71	26.3994
1240.81	25.6063
1241.9	23.466
1242.99	27.7607
1244.09	26.7146
1245.18	27.1708
1246.27	27.0519
1247.36	26.3741
1248.46	23.9011
1249.55	27.2562
1250.64	22.818
1251.73	27.4056
1252.82	25.9737
1253.92	23.2009
1255.01	26.1138
1256.1	28.107
1257.19	28.4147
1258.28	27.3197
1259.37	29.1669
1260.46	28.6579
1261.55	27.3513
1262.64	25.5344
1263.73	26.3422
1264.82	26.3096
1265.91	26.7713
1267	26.2122
1268.09	23.4118
1269.18	27.0999
1270.27	26.4263
1271.36	25.5515
1272.45	22.7539
1273.53	24.2329
1274.62	26.7811
1275.71	25.6279
1276.8	24.4579
1277.89	24.5146
1278.97	24.8665
1280.06	23.6432
1281.15	25.0927
1282.23	25.6398
1283.32	24.4832
1284.41	23.3241
1285.49	26.1612
1286.58	25.5366
1287.67	26.5748
1288.75	28.0051
1289.84	24.1417
1290.92	22.2359
1292.01	23.5907
1293.09	24.1957
1294.18	25.4024
1295.26	25.449
1296.35	26.8707
1297.43	27.665
1298.52	25.372
1299.6	23.7086
1300.69	25.0338
1301.77	25.9126
1302.85	25.6501
1303.94	22.3485
1305.02	23.8837
1306.1	24.9976
1306.42	25
1307.51	23.5
1308.59	26.5
1309.68	27
1310.77	25
1311.86	26.5
1312.95	23.5
1314.03	28.5
1315.12	25
1316.21	23
1317.29	22.5
1318.38	23
1319.47	25
1320.55	27.5
1321.64	23.5
1322.72	22.5
1323.81	29
1324.89	26.5
1325.98	26
1327.07	22
1328.15	24.5
1329.24	24.5
1330.32	29
1331.4	27
1332.49	26
1333.57	25.5
1334.66	23
1335.74	28.5
1336.82	23
1337.91	23
1338.99	30.5
1340.07	25
1341.16	23
1342.24	27
1343.32	24.5
1344.4	24.5
1345.49	25.5
1346.57	24.5
1347.65	26
1348.73	27
1349.81	27.5
1350.9	22.5
1351.98	26
1353.06	27
1354.14	22
1355.22	24
1356.3	27.5
1357.38	24
1358.46	25.5
1359.54	24
1360.62	26.5
1361.7	23.5
1362.78	26.5
1363.86	28
1364.94	26
1366.02	27
1367.1	28
1368.17	24.5
1369.25	27
1370.33	27.5
1371.41	23.5
1372.49	21.5
1373.57	26
1374.64	25.5
1375.72	22
1376.8	24.5
1377.87	26
1378.95	24.5
1380.03	26
1381.1	26
1382.18	26.5
1383.26	27.5
1384.33	26.5
1385.41	24.5
1386.49	25.5
1387.56	24
1388.64	26.5
1389.71	29
1390.79	26
1391.86	26.5
1392.94	25
1394.01	25.5
1395.08	25
1396.16	24.5
1397.23	29
1398.31	25.5
1399.38	28
1400.45	30.5
1401.53	31
1402.6	34
1403.67	34
1404.75	27
1405.82	28
1406.89	31
1407.96	33
1409.04	35
1410.11	27
1411.18	29
1412.25	30
1413.32	29
1414.39	33
1415.47	33
1416.54	32.5
1417.61	28.5
1418.68	29.5
1419.75	26
1420.82	29
1421.89	27.5
1422.96	30
1424.03	31
1425.1	30
1426.17	29
1427.24	25.5
1428.31	25.5
1429.38	25.5
1430.44	27
1431.51	28.5
1432.58	25.5
1433.65	25.5
1434.72	24.5
1435.79	27
1436.85	28.5
1437.92	30
1438.99	30
1440.05	26
1441.12	29.5
1442.19	27
1443.26	25
1444.32	27
1445.39	30.5
1446.46	23.5
1447.52	28
1448.59	29
1449.65	22.5
1450.72	28.5
1451.78	30
1452.85	27.5
1453.91	28
1454.98	24
1456.04	27.5
1457.11	27.5
1458.17	26.5
1459.24	27
1460.3	28.5
1461.36	25
1462.43	28
1463.49	25.5
1464.56	26
1465.62	31.5
1466.68	22
1467.74	25.5
1468.81	29.5
1469.87	23.5
1470.93	26
1471.99	32
1473.06	22.5
1474.12	29.5
1475.18	27
1476.24	25.5
1477.3	23.5
1478.36	26
1479.42	23
1480.49	25
1481.55	26
1482.61	26
1483.67	29
1484.73	24
1485.79	25.5
1486.85	28
1487.91	26.5
1488.97	22
1490.03	26.5
1491.09	29
1492.14	29
1493.2	25.5
1494.26	26.5
1495.32	25
1496.38	26.5
1497.44	25
1498.49	22
1499.55	27
1500.61	25.5
1501.67	29.5
1502.72	29
1503.78	27.5
1504.84	26
1505.89	23
1506.95	26
1508.01	27.5
1509.07	27.5
1510.12	25.5
1511.18	28
1512.23	22
1513.29	29.5
1514.34	27
1515.4	26
1516.45	26
1517.51	25
1518.56	25
1519.62	24.5
1520.67	26.5
1521.73	29
1522.78	27
1523.84	27
1524.89	23.5
1525.94	26.5
1527	25.5
1528.05	24.5
1529.1	25
1530.16	27.5
1531.21	27
1532.26	27
1533.32	24.5
1534.37	26
1535.42	27.5
1536.47	26
1537.52	25
1538.57	32
1539.63	30
1540.68	23
1541.73	25
1542.78	25
1543.83	26.5
1544.88	26
1545.93	20
1546.98	23
1548.03	23
1549.08	23.5
1550.13	28
1551.18	26.5
1552.23	28.5
1553.28	26
1554.33	25
1555.38	22
1556.43	25
1557.48	24
1558.53	28
1559.57	27.5
1560.62	28
1561.67	25
1562.72	23
1563.77	26.5
1564.81	23
1565.86	27
1566.91	27
1567.96	26
1569	26.5
1570.05	24
1571.09	24
1572.14	25
1573.19	26.5
1574.23	28
1575.28	24.5
1576.33	24.5
1577.37	23
1578.42	27
1579.46	23.5
1580.51	31
1581.55	27
1582.6	27.5
1583.64	24
1584.69	28
1585.73	29
1586.77	27
1587.82	22.5
1588.86	25.5
1589.91	24
1590.95	24.5
1591.99	27
1593.04	27
1594.08	26
1595.12	27
1596.16	28
1597.21	25.5
1598.25	26.5
1599.29	24
1600.33	26.5
1601.37	22
1602.42	26.5
1603.46	24
1604.5	27.5
1605.54	24.5
1606.58	28
1607.62	25
1608.66	25.5
1609.7	24
1610.74	23.5
1611.78	24.5
1612.82	22.5
1613.86	26
1614.9	26.5
1615.94	28
1616.98	29
1618.02	26
1619.06	27
1620.1	25.5
1621.14	23.5
1622.18	26.5
1623.21	26.5
1624.25	26
1625.29	29
1626.33	25
1627.37	23
1628.4	25.5
1629.44	26
1630.48	27.5
1631.52	26
1632.55	25.5
1633.59	27.5
1634.63	25.5
1635.66	26
1636.7	27.5
1637.73	23
1638.77	29.5
1639.81	26
1640.84	24
1641.88	26
1642.91	29.5
1643.95	26
1644.98	25
1646.02	25
1647.05	29.5
1648.09	26
1649.12	24.5
1650.16	23.5
1651.19	25
1652.22	21
1653.26	29.5
1654.29	22
1655.32	21
1656.36	24
1657.39	26.5
1658.42	22
1659.46	27.5
1660.49	28.5
1661.52	26
1662.55	26.5
1663.59	28
1664.62	21
1665.65	25
1666.68	27
1667.71	26.5
1668.74	24.5
1669.77	26
1670.81	25
1671.84	24.5
1672.87	25.5
1673.9	25.5
1674.93	22.5
1675.96	30
1676.99	29
1678.02	29
1679.05	25.5
1680.08	22.5
1681.11	22.5
1682.13	23
1683.16	26.5
1684.19	25.5
1685.22	26
1686.25	29
1687.28	23.5
1688.31	28.5
1689.33	26
1690.36	24
1691.39	26
1692.42	25.5
1693.45	28
1694.47	22.5
1695.5	24.5
1696.53	25
1697.55	24
1698.58	27.5
1699.61	25.5
1700.63	24
1701.66	26.5
1702.68	22.5
1703.71	26.5
1704.74	21
1705.76	23
1706.79	29
1707.81	28.5
1708.84	24.5
1709.86	27
1710.89	26.5
1711.91	24.5
1712.94	23.5
1713.96	21
1714.98	22
1716.01	26
1717.03	26.5
1718.05	27
1719.08	25
1720.1	24
1721.12	24.5
1722.15	29.5
1723.17	28
1724.19	23.5
1725.22	29
1726.24	25
1727.26	27.5
1728.28	27
1729.3	27
1730.32	27
1731.35	25
1732.37	27
1733.39	27
1734.41	25
1735.43	27.5
1736.45	23
1737.47	28.5
1738.49	25.5
1739.51	23
1740.53	24
1741.55	24
1742.57	24
1743.59	21
1744.61	25.5
1745.63	25
1746.65	27
1747.67	24.5
1748.69	27.5
1749.71	25.5
1750.72	27
1751.74	23.5
1752.76	26.5
1753.78	26.5
1754.8	26.5
1755.81	22
1756.83	29
1757.85	27
1758.87	23
1759.88	22
1760.9	26.5
1761.92	26.5
1762.93	30.5
1763.95	25
1764.97	23.5
1765.98	26.5
1767	22
1768.01	27.5
1769.03	31
1770.05	26
1771.06	28.5
1772.08	25.5
1773.09	26.5
1774.11	25.5
1775.12	23.5
1776.13	24
1777.15	26
1778.16	27
1779.18	28
1780.19	25
1781.2	24.5
1782.22	29
1783.23	21
1784.24	28
1785.26	26.5
1786.27	27.5
1787.28	24
1788.3	26
1789.31	27.5
1790.32	23
1791.33	28
1792.35	25
1793.36	26
1794.37	28
1795.38	24.5
1796.39	25
1797.4	24.5
1798.41	20.5
1799.43	26
1800.44	26
1801.45	29.5
1802.46	23.5
1803.47	22.5
1804.48	23
1805.49	28
1806.5	24
1807.51	22
1808.52	27
1809.53	28
1810.53	26.5
1811.54	24
1812.55	23
1813.56	29
1814.57	24.5
1815.58	25.5
1816.59	26.5
1817.6	24
1818.6	25.5
1819.61	26.5
1820.62	27
1821.63	25
1822.63	28.5
1823.64	23.5
1824.65	23.5
1825.65	25.5
1826.66	24
1827.67	29
1828.67	25.5
1829.68	27.5
1830.69	24.5
1831.69	20.5
1832.7	24.5
1833.7	25
1834.71	24.5
1835.71	23.5
1836.72	24
1837.72	26.5
1838.73	29
1839.73	27
1840.74	29.5
1841.74	25
1842.75	26
1843.75	21
1844.75	24.5
1845.76	25.5
1846.76	24.5
1847.76	23
1848.77	22.5
1849.77	26
1850.77	27
1851.78	25
1852.78	27
1853.78	29.5
1854.78	30
1855.79	25
1856.79	25
1857.79	26
1858.79	26
1859.79	26
1860.8	25.5
1861.8	22.5
1862.8	26.5
1863.8	25.5
1864.8	28
1865.8	24.5
1866.8	23
1867.8	25.5
1868.8	24.5
1869.8	26.5
1870.8	29.5
1871.8	24.5
1872.8	27
1873.8	24.5
1874.8	25.5
1875.8	25
1876.8	23.5
1877.8	23.5
1878.79	23.5
1879.79	23
1880.79	26.5
1881.79	23
1882.79	22.5
1883.79	26.5
1884.78	15
1885.78	20.5
1886.78	27.5
1887.77	24.5
1888.77	23
1889.77	27
1890.77	24.5
1891.76	21.5
1892.76	21
1893.76	23
1894.75	28
1895.75	28
1896.74	23
1897.74	28
1898.73	27.5
1899.73	24.5
1900.72	26
1901.72	23.5
1902.72	30
1903.71	21.5
1904.7	24
1905.7	27.5
1906.69	27
1907.69	29
1908.68	26
1909.67	26
1910.67	27
1911.66	22.5
1912.66	27.5
1913.65	24
1914.64	22
1915.63	26
1916.63	23.5
1917.62	26.5
1918.61	22.5
1919.6	22
1920.6	24
1921.59	26
1922.58	26.5
1923.57	25.5
1924.56	25.5
1925.56	27
1926.55	25
1927.54	24
1928.53	27
1929.52	25.5
1930.51	22
1931.5	25
1932.49	24.5
1933.48	22
1934.47	24.5
1935.46	27
1936.45	27
1937.44	23.5
1938.43	24.5
1939.42	26.5
1940.41	26
1941.4	22
1942.39	23.5
1943.37	25.5
1944.36	24
1945.35	25.5
1946.34	26.5
1947.33	22.5
1948.32	24.25
1949.3	26
1950.29	23
1951.28	25
1952.27	26.5
1953.25	18
1954.24	24.5
1955.23	21.5
1956.21	23
1957.2	24
1958.19	25.5
1959.17	25
1960.16	28
1961.14	23
1962.13	24
1963.12	23
1964.1	24.5
1965.09	26.5
1966.07	25.5
1967.06	22.5
1968.04	23.5
1969.03	22.5
1970.01	26.5
1970.99	25.5
1971.98	25.5
1972.96	23.5
1973.95	24
1974.93	26
1975.92	26.5
1976.9	26
1977.88	22
1978.87	25.5
1979.85	23
1980.83	28
1981.81	27.5
1982.8	23
1983.78	25.5
1984.76	25.5
1985.74	28
1986.73	26
1987.71	22.5
1988.69	21
1989.67	22.5
1990.65	25
1991.63	26
1992.61	22
1993.59	25
1994.58	22
1995.56	24.5
1996.54	23.5
1997.52	25.5
1998.5	25.5
1999.48	25.5
2000.46	23
2001.44	23
2002.42	21.5
2003.4	23
2004.38	22.5
2005.35	24
2006.33	23
2007.31	27
2008.29	26
2009.27	22
2010.25	23.5
2011.23	24.5
2012.2	23
2013.18	24
2014.16	25
2015.14	24.5
2016.11	26
2017.09	23
2018.07	26.5
2019.05	27
2020.02	24
2021	24
2021.98	24
2022.95	22.5
2023.93	26.5
2024.91	26.5
2025.88	21.5
2026.86	26
2027.83	25.5
2028.81	24
2029.78	26
2030.76	25
2031.73	24.5
2032.71	24.5
2033.68	26
2034.66	22
2035.63	25
2036.61	20.5
2037.58	22.5
2038.56	23.5
2039.53	25
2040.5	21.5
2041.48	22
2042.45	25
2043.42	26
2044.4	24
2045.37	22.5
2046.34	22.5
2047.32	25
2048.29	24.5
2049.26	23
2050.23	23.5
2051.2	26.5
2052.18	26
2053.15	22.5
2054.12	25.5
2055.09	21.5
2056.06	21.5
2057.03	25
2058	26
2058.98	24
2059.95	24
2060.92	20.5
2061.89	23
2062.86	24.5
2063.83	25.5
2064.8	22.5
2065.77	22
2066.74	23
2067.71	25
2068.68	24.5
2069.65	25.5
2070.61	22
2071.58	24.5
2072.55	25.5
2073.52	22
2074.49	28
2075.46	25
2076.43	25
2077.4	24
2078.36	25.5
2079.33	23
2080.3	24.5
2081.27	22
2082.23	27
2083.2	25
2084.17	23
2085.13	23
2086.1	23
2087.07	23.5
2088.03	24.5
2089	21
2089.97	27.5
2090.93	24.5
2091.9	20.5
2092.86	21
2093.83	25
2094.8	21
2095.76	24
2096.73	23
2097.69	24.5
2098.66	22.5
2099.62	26
2100.58	22
2101.55	23
2102.51	24.5
2103.48	27
2104.44	23
2105.41	24
2106.37	23
2107.33	22
2108.3	24
2109.26	22.5
2110.22	25.5
2111.19	20
2112.15	24.5
2113.11	23.5
2114.07	24.5
2115.04	21
2116	24
2116.96	23
2117.92	23.5
2118.88	24.5
2119.85	22
2120.81	24
2121.77	22.5
2122.73	22.5
2123.69	27
2124.65	22
2125.61	25
2126.57	25
2127.53	25.5
2128.49	23.5
2129.45	24
2130.41	18.5
2131.37	25.5
2132.33	22
2133.29	22.5
2134.25	24.5
2135.21	25.5
2136.17	20.5
2137.13	19
2138.09	23
2139.05	23
2140.01	23.5
2140.96	22
2141.92	25
2142.88	24.4966
2143.84	27.4398
2144.8	20.1731
2145.75	22.6431
2146.71	23.0374
2147.67	23.4131
2148.63	23.8657
2149.58	22.064
2150.54	19.8359
2151.5	23.6295
2152.45	23.5505
2153.41	21.3718
2154.37	25.5542
2155.32	23.9903
2156.28	25.3389
2157.23	21.4722
2158.19	21.8336
2159.15	22.3133
2160.1	24.0735
2161.06	24.3279
2162.01	24.7833
2162.97	27.007
2163.92	22.9274
2164.88	25.9075
2165.83	21.8262
2166.78	19.9137
2167.74	23.4897
2168.69	22.1753
2169.65	22.3905
2170.6	24.1784
2171.56	24.5356
2172.51	24.0266
2173.46	23.5801
2174.42	21.4939
2175.37	21.0154
2176.32	19.6222
2177.28	22.906
2178.23	21.9871
2179.18	22.1624
2180.13	22.267
2181.08	22.9528
2182.04	25.7127
2182.99	22.9643
2183.94	20.1648
2184.89	23.9959
2185.84	23.3924
2186.8	24.9687
2187.75	21.6141
2188.7	22.1685
2189.65	24.5583
2190.6	21.1795
2191.55	21.5654
2192.5	23.7889
2193.45	23.529
2194.4	22.7317
2195.35	21
2196.3	21.6391
2197.25	23.939
2198.2	21.4461
2199.15	23.1301
2200.1	21.3329
2201.05	20.0092
2202	23.4221
2202.95	21.2713
2203.9	20.4317
2204.85	22.2419
2205.79	22.0631
2206.74	21.9597
2207.69	22.8129
2208.64	23.5773
2209.59	22.1565
2210.53	23.3237
2211.48	20.9677
2212.43	22.7702
2213.38	21.6793
2214.32	20.4283
2215.27	21.8264
2216.22	21.8616
2217.17	21.6268
2218.11	21.0874
2219.06	23.717
2220.01	19.68
2220.95	19.7763
2221.9	18.1084
2222.84	21.0243
2223.79	20.7881
2224.73	24.6559
2225.68	25.7257
2226.63	20.7964
2227.57	20.8263
2228.52	22.322
2229.46	23.1966
2230.41	24.1908
2231.35	24.3199
2232.3	20.9859
2233.24	22.3875
2234.18	26.1325
2235.13	24.5345
2236.07	22.6221
2237.02	22.8312
2237.96	23.3134
2238.9	24.5447
2239.85	22.7335
2240.08	22
2241.03	23
2241.97	26
2242.92	21.5
2243.87	24
2244.82	20
2245.76	27
2246.71	22.5
2247.66	23.5
2248.61	23
2249.55	26.5
2250.5	25.5
2251.45	19
2252.39	25
2253.34	23
2254.29	20.5
2255.23	22
2256.18	25.5
2257.12	21.5
2258.07	26
2259.01	27
2259.96	23
2260.9	26.5
2261.85	26
2262.79	22
2263.74	20
2264.68	20
2265.63	25.5
2266.57	20.5
2267.52	20
2268.46	23
2269.41	19.5
2270.35	25.5
2271.29	25.5
2272.24	24.5
2273.18	22.5
2274.12	26
2275.07	27
2276.01	24
2276.95	23.5
2277.89	23
2278.84	23
2279.78	24
2280.72	22.5
2281.66	22.5
2282.6	21.5
2283.55	26
2284.49	23
2285.43	21.5
2286.37	23
2287.31	24
2288.25	22
2289.2	23
2290.14	23.5
2291.08	19.5
2292.02	26.5
2292.96	24
2293.9	23.5
2294.84	24.5
2295.78	23.5
2296.72	20
2297.66	22
2298.6	24.5
2299.54	24
2300.48	20.5
2301.42	23
2302.35	22.5
2303.29	25
2304.23	21.5
2305.17	25.5
2306.11	25.5
2307.05	24.5
2307.99	24
2308.92	24.5
2309.86	26
2310.8	24.5
2311.74	24.5
2312.67	24.5
2313.61	22
2314.55	26.5
2315.49	23
2316.42	25
2317.36	21.5
2318.3	20.5
2319.23	26
2320.17	21
2321.1	24
2322.04	25
2322.98	24.5
2323.91	23
2324.85	19.5
2325.78	24
2326.72	25
2327.66	22.5
2328.59	24.5
2329.52	22
2330.46	25.5
2331.39	25
2332.33	23
2333.26	23.5
2334.2	26
2335.13	25
2336.07	25.5
2337	25
2337.93	25.5
2338.87	23
2339.8	23.5
2340.73	24
2341.67	22.5
2342.6	27
2343.53	25
2344.46	26.5
2345.4	24.5
2346.33	26.5
2347.26	25
2348.19	19.5
2349.13	21
2350.06	25
2350.99	24
2351.92	24
2352.85	25
2353.79	27
2354.72	22.5
2355.65	24
2356.58	21
2357.51	25
2358.44	26.5
2359.37	25
2360.3	24.5
2361.23	25.5
2362.16	24.5
2363.09	20.5
2364.02	24
2364.95	23
2365.88	22
2366.81	22
2367.74	20
2368.67	29
2369.6	26
2370.53	27.5
2371.45	23
2372.38	23.5
2373.31	20.5
2374.24	20.5
2375.17	24
2376.1	24.5
2377.02	22
2377.95	25
2378.88	23
2379.81	23
2380.73	22
2381.66	23
2382.59	21
2383.52	23.5
2384.44	22
2385.37	25.5
2386.3	23
2387.22	26.5
2388.15	24.5
2389.07	23
2390	25
2390.93	22.5
2391.85	24.5
2392.78	22
2393.7	23
2394.63	22.5
2395.55	24
2396.48	19.5
2397.4	24
2398.33	24.5
2399.25	25.5
2400.18	25
2401.1	27
2402.03	21.5
2402.95	29
2403.87	25
2404.8	22
2405.72	29.5
2406.64	27.5
2407.57	20
2408.49	22.5
2409.41	24
2410.34	24
2411.26	24
2412.18	24.5
2413.1	23
2414.03	25
2414.95	24.5
2415.87	25.5
2416.79	23
2417.72	26.5
2418.64	25
2419.56	21
2420.48	24
2421.4	22
2422.32	24
2423.24	22
2424.16	23.5
2425.09	26
2426.01	25
2426.93	25
2427.85	25
2428.77	26.5
2429.69	21.5
2430.61	21.5
2431.53	22
2432.45	23.5
2433.37	24.5
2434.29	27
2435.21	24
2436.12	27
2437.04	23
2437.96	25
2438.88	20.5
2439.8	21.5
2440.72	23.5
2441.64	21
2442.55	27.5
2443.47	24
2444.39	23.5
2445.31	27
2446.23	19
2447.14	23
2448.06	25.5
2448.98	26
2449.9	26
2450.81	21.5
2451.73	24
2452.65	22
2453.56	21.5
2454.48	29
2455.39	25
2456.31	25.5
2457.23	20.5
2458.14	23
2459.06	22.5
2459.97	24
2460.89	25
2461.8	25.5
2462.72	25
2463.64	21
2464.55	26
2465.47	22.5
2466.38	22
2467.29	25
2468.21	26.5
2469.12	24
2470.04	23.5
2470.95	26
2471.86	29
2472.78	22.5
2473.69	22.5
2474.61	28
2475.52	26
2476.43	26.5
2477.35	24
2478.26	24.5
2479.17	24
2480.08	26
2481	25
2481.91	24.5
2482.82	25
2483.73	25.5
2484.64	24
2485.56	21
2486.47	25
2487.38	21
2488.29	25.5
2489.2	22
2490.11	24
2491.03	25
2491.94	26
2492.85	28
2493.76	29.5
2494.67	21
2495.58	29
2496.49	22.5
2497.4	25.5
2498.31	24.5
2499.22	25
2500.13	25
2501.04	28.5
2501.95	24
2502.86	23.5
2503.77	28
2504.67	24
2505.58	26.5
2506.49	25
2507.4	26
2508.31	23
2509.22	25
2510.13	23
2511.03	30.5
2511.94	23.5
2512.85	24
2513.76	22.5
2514.66	24
2515.57	27
2516.48	25
2517.39	22
2518.29	28.5
2519.2	23
2520.11	26
2521.01	22.5
2521.92	25
2522.83	20
2523.73	19.5
2524.64	26.5
2525.54	23.5
2526.45	23.5
2527.36	23
2528.26	23.5
2529.17	23
2530.07	27
2530.98	23
2531.88	24.5
2532.79	24.5
2533.69	25.5
2534.6	26.5
2535.5	26.5
2536.41	23.5
2537.31	26.5
2538.21	23.5
2539.12	25
2540.02	24
2540.93	22
2541.83	23
2542.73	26
2543.64	22.5
2544.54	21
2545.44	24
2546.34	27
2547.25	23
2548.15	23
2549.05	24
2549.96	24.5
2550.86	24
2551.76	26.5
2552.66	26
2553.56	22.5
2554.46	23.5
2555.37	25
2556.27	28
2557.17	22
2558.07	23.5
2558.97	25.5
2559.87	24.5
2560.77	25
2561.67	25.5
2562.57	27
2563.47	25.5
2564.37	23
2565.27	28
2566.17	25.5
2567.07	26.5
2567.97	23
2568.87	26
2569.77	27.5
2570.67	24
2571.57	25.5
2572.47	26
2573.37	24.5
2574.27	22.5
2575.17	22.5
2576.06	26
2576.96	24
2577.86	26.5
2578.76	26.5
2579.66	22.5
2580.56	25
2581.45	26.5
2582.35	21.5
2583.25	24
2584.15	22.5
2585.04	25
2585.94	20.5
2586.84	26
2587.73	25
2588.63	22
2589.53	23
2590.42	27
2591.32	22.5
2592.22	27.5
2593.11	26.5
2594.01	23
2594.9	27
2595.8	23
2596.69	22.5
2597.59	20
2598.48	25.5
2599.38	25
2600.28	22
2601.17	25.5
2602.06	24.5
2602.96	25
2603.85	27.5
2604.75	26
2605.64	28
2606.54	27
2607.43	28
2608.32	25.5
2609.22	26
2610.11	27
2611	25
2611.9	24.5
2612.79	23.5
2613.68	24.5
2614.58	25.5
2615.47	23.5
2616.36	26.5
2617.25	24.5
2618.15	25.5
2619.04	22.5
2619.93	20
2620.82	22
2621.71	26.5
2622.61	20.5
2623.5	25.5
2624.39	26
2625.28	26
2626.17	26
2627.06	26.5
2627.95	19.5
2628.84	23
2629.74	22
2630.63	20.5
2631.52	22.5
2632.41	25.5
2633.3	25.5
2634.19	22
2635.08	26
2635.97	23.5
2636.85	24.5
2637.74	22
2638.63	26.5
2639.52	27
2640.41	26.5
2641.3	27.5
2642.19	23.5
2643.08	23.5
2643.97	22
2644.86	24.5
2645.74	24
2646.63	24
2647.52	25
2648.41	25
2649.3	21
2650.18	25
2651.07	22.5
2651.96	24.5
2652.85	27
2653.73	25
2654.62	27
2655.51	22.5
2656.39	25.5
2657.28	22.5
2658.17	24
2659.05	25.5
2659.94	24
2660.83	25
2661.71	26
2662.6	26.5
2663.48	23
2664.37	22
2665.25	23.5
2666.14	23
2667.02	19.5
2667.91	21
2668.79	22
2669.68	27
2670.56	23.5
2671.45	21.5
2672.33	24
2673.22	23.5
2674.1	22
2674.98	26.5
2675.87	23
2676.75	29.5
2677.64	24
2678.52	26.5
2679.4	27.5
2680.29	26
2681.17	22.5
2682.05	24
2682.94	25
2683.82	26.5
2684.7	22
2685.58	28.5
2686.47	27.5
2687.35	23.5
2688.23	26.5
2689.11	24.5
2689.99	20.5
2690.88	20.5
2691.76	22.5
2692.64	27.5
2693.52	24
2694.4	24
2695.28	24.5
2696.16	25
2697.04	29
2697.92	22
2698.8	28.5
2699.69	23
2700.57	24
2701.45	28.5
2702.33	25
2703.21	25
2704.09	24.5
2704.97	26
2705.84	23.5
2706.72	25
2707.6	28.5
2708.48	23.5
2709.36	25.5
2710.24	24.5
2711.12	25.5
2712	25.5
2712.88	23.5
2713.75	23
2714.63	25
2715.51	22
2716.39	25
2717.27	24
2718.14	26
2719.02	28.5
2719.9	24.5
2720.78	23
2721.65	26
2722.53	24.5
2723.41	23.5
2724.28	24
2725.16	28.5
2726.04	24.5
2726.92	28.5
2727.79	25
2728.67	26.5
2729.54	25
2730.42	26
2731.3	28
2732.17	24.5
2733.05	27
2733.92	23.5
2734.8	25
2735.67	25
2736.55	24.5
2737.42	28
2738.3	26
2739.17	23
2740.05	22.5
2740.92	26
2741.79	25.5
2742.67	21.5
2743.54	25
2744.42	23.5
2745.29	27.5
2746.16	27.5
2747.04	22
2747.91	26.5
2748.78	23.5
2749.66	23.5
2750.53	22
2751.4	29
2752.28	22.5
2753.15	25
2754.02	23.5
2754.89	23.5
2755.77	23.5
2756.64	22
2757.51	21.5
2758.38	27
2759.25	24.5
2760.13	20
2761	26
2761.87	22
2762.74	25
2763.61	22.5
2764.48	24
2765.35	27
2766.22	22
2767.09	24.5
2767.96	25
2768.83	24
2769.71	25
2770.57	25
2771.44	24
2772.32	25.5
2773.18	21
2774.05	22
2774.92	26
2775.79	24
2776.66	27
2777.53	27
2778.4	24.5
2779.27	24.5
2780.14	25.5
2781.01	25.5
2781.87	26.5
2782.74	26
2783.61	21
2784.48	25
2785.35	27
2786.21	28
2787.08	25.5
2787.95	27
2788.82	24.5
2789.69	26.5
2790.55	28.5
2791.42	25
2792.29	30
2793.15	27
2794.02	25
2794.89	29
2795.75	25
2796.62	27.5
2797.49	26
2798.35	24
2799.22	25.5
2800.08	23.5
2800.95	26.25
2801.81	29
2802.68	24
2803.55	23.5
2804.41	24.5
2805.28	26
2806.14	26.5
2807	27.5
2807.87	27
2808.73	24
2809.6	28.5
2810.46	24.5
2811.33	25
2812.19	28.5
2813.06	23.5
2813.92	25
2814.78	23.5
2815.65	23.5
2816.51	25.5
2817.37	27
2818.24	24.5
2819.1	21
2819.96	26.5
2820.83	26
2821.69	24
2822.55	29.5
2823.41	24.5
2824.28	26
2825.14	26
2826	25.5
2826.86	24
2827.72	25
2828.58	27.5
2829.45	28
2830.31	25
2831.17	28.5
2832.03	24
2832.89	25
2833.75	30
2834.61	23
2835.47	26.5
2836.33	27
2837.2	21.5
2838.05	26
2838.92	26.5
2839.78	30
2840.64	24.5
2841.49	23
2842.35	26
2843.21	27.5
2844.07	24
2844.93	26.5
2845.79	26.5
2846.65	25
2847.51	24
2848.37	22
2849.23	24.5
2850.09	23
2850.94	28
2851.8	29
2852.66	23.5
2853.52	28.5
2854.38	19.5
2855.23	26
2856.09	26
2856.95	25
2857.81	25
2858.67	27.5
2859.52	28.5
2860.38	27
2861.24	25
2862.09	26
2862.95	25
2863.81	26
2864.66	26
2865.52	26.5
2866.38	26
2867.23	28.5
2868.09	26
2868.94	27.5
2869.8	28.5
2870.65	25.5
2871.51	24
2872.37	29.5
2873.22	30.5
2874.08	27
2874.93	26
2875.79	30.5
2876.64	32
2877.49	28.5
2878.35	32
2879.2	29.5
2880.06	31
2880.91	31
2881.77	33.5
2882.62	32
2883.47	31.5
2884.33	32
2885.18	33
2886.03	35
2886.89	33.5
2887.74	33.5
2888.59	33
2889.45	36.5
2890.3	37.5
2891.15	36.5
2892	36.5
2892.86	35
2893.71	46
2894.56	40
2895.41	45.5
2896.27	49
2897.12	46
2897.97	47.5
2898.82	48
2899.67	56
2900.52	54.5
2901.37	57.5
2902.23	55
2903.08	66
2903.93	64.5
2904.78	63.5
2905.63	60.5
2906.48	65
2907.33	63.5
2908.18	65.5
2909.03	58
2909.88	61.5
2910.73	61.5
2911.58	53.5
2912.43	56.5
2913.28	49
2914.13	45
2914.98	50
2915.83	42.5
2916.67	42.5
2917.52	36
2918.37	39
2919.22	36.5
2920.07	34
2920.92	32
2921.77	32.5
2922.61	32
2923.46	36.5
2924.31	31
2925.16	36
2926	36.5
2926.85	27.5
2927.7	31
2928.55	29
2929.39	32.5
2930.24	32
2931.09	27.5
2931.94	21
2932.78	29.5
2933.63	25
2934.47	28
2935.32	25.5
2936.17	28
2937.01	29.5
2937.86	29.5
2938.7	26.5
2939.55	24.5
2940.4	24.5
2941.24	27.5
2942.09	26.5
2942.93	27.5
2943.78	28
2944.62	28.5
2945.47	26
2946.31	27
2947.16	29
2948	28.5
2948.84	32
2949.69	36
2950.53	35.5
2951.38	31
2952.22	30.5
2953.06	28.5
2953.91	35
2954.75	32
2955.59	35.5
2956.44	32.5
2957.28	35.5
2958.12	38.5
2958.97	33
2959.81	38.5
2960.65	37
2961.5	39.5
2962.34	38
2963.18	43.5
2964.02	44
2964.86	41
2965.71	41
2966.55	44.5
2967.39	35
2968.23	42
2969.07	36.5
2969.91	38.5
2970.75	40
2971.6	36.4879
2972.44	37.9083
2973.28	34.1166
2974.12	33.7193
2974.96	29.663
2975.8	30.4871
2976.64	30.4966
2977.48	30.0687
2978.32	30.105
2979.16	28.4597
2980	27.8291
2980.84	29.2059
2981.68	25.9429
2982.52	28.5324
2983.36	27.6661
2984.2	26.6622
2985.04	22.6793
2985.88	26.2029
2986.71	27.8945
2987.55	27.3323
2988.39	25.7287
2989.23	27.3346
2990.07	25.5173
2990.91	23.7743
2991.75	24.5221
2992.58	27.5154
2993.42	23.7647
2994.26	24.8706
2995.1	27.4554
2995.93	27.1601
2996.77	25.7458
2997.61	21.0335
2998.45	22.6966
2999.28	25.9988
3000.12	24.0909
3000.96	25.2174
3001.79	26.6648
3002.63	24.347
3003.47	25.2957
3004.3	22.1085
3005.14	24.683
3005.98	22.6635
3006.81	22.9126
3007.65	23.6518
3008.48	22.9832
3009.32	22.2202
3010.15	22.9525
3010.99	24.2306
3011.82	23.6061
3012.66	22.1169
3013.5	23.1096
3014.33	23.2916
3015.17	23.4406
3016	23.1274
3016.83	22.5187
3017.67	21.5201
3018.5	23.1692
3019.34	23.4313
3020.17	23.5477
3021.01	21.8742
3021.84	24.3259
3022.67	24.36
3023.51	23.9834
3024.34	23.3816
3025.17	24.6589
3026.01	24.7692
3026.84	22.5137
3027.67	23.4312
3028.51	20.8354
3029.34	23.4334
3030.17	23.2885
3031	22.1374
3031.84	22.3791
3032.67	22.8607
3033.5	22.1472
3034.33	25.4442
3035.17	24.4232
3036	23.0407
3036.83	23.985
3037.66	21.6132
3038.49	21.483
3039.32	22.7811
3040.15	22.2477
3040.99	21.3992
3041.82	22.8504
3042.65	24.9609
3043.48	24.0535
3044.31	22.1344
3045.14	23.544
3045.97	23.3906
3046.8	23.6331
3047.63	24.5545
3048.46	24.5519
3049.29	24.3073
3050.12	23.5743
3050.95	21.7496
3051.78	22.3162
3052.61	26.3622
3053.44	27.0639
3054.27	24.4671
3055.1	23.2997
3055.92	22.4448
3056.75	22.622
3057.27	24.5
3058.11	21.5
3058.94	24.5
3059.77	22.5
3060.61	21
3061.44	24.5
3062.27	22
3063.11	19.5
3063.94	24
3064.77	21.5
3065.6	22.5
3066.43	20.5
3067.27	23.5
3068.1	25
3068.93	25.5
3069.76	24
3070.59	21.5
3071.42	22.5
3072.26	25.5
3073.09	23.5
3073.92	17.5
3074.75	21.5
3075.58	25
3076.41	22.5
3077.24	24
3078.07	18
3078.9	23
3079.73	21
3080.56	23
3081.39	27
3082.22	24.5
3083.05	23.5
3083.88	25.5
3084.71	22
3085.54	23
3086.37	20.5
3087.2	22
3088.03	26.5
3088.86	22
3089.69	21
3090.51	21.5
3091.34	26
3092.17	23
3093	25.5
3093.83	22.5
3094.66	24.5
3095.48	23.5
3096.31	24.5
3097.14	25
3097.97	25
3098.79	25.5
3099.62	21.5
3100.45	22
3101.28	25
3102.1	23.5
3102.93	20
3103.76	24.5
3104.58	24.5
3105.41	23.5
3106.24	24
3107.06	20
3107.89	26
3108.72	28
3109.54	24.5
3110.37	22
3111.19	25
3112.02	21
3112.84	21.5
3113.67	24.5
3114.49	24
3115.32	23.5
3116.15	22
3116.97	25.5
3117.8	24
3118.62	26.5
3119.44	22.5
3120.27	23
3121.09	21.5
3121.92	26
3122.74	22
3123.57	22
3124.39	21
3125.21	24
3126.04	20.5
3126.86	25.5
3127.68	23
3128.51	24.5
3129.33	24
3130.15	21
3130.98	20.5
3131.8	23
3132.62	21.5
3133.44	24.5
3134.27	23.5
3135.09	20.5
3135.91	25
3136.73	24.5
3137.56	23
3138.38	27
3139.2	24
3140.02	25.5
3140.84	24
3141.67	26
3142.49	22.5
3143.31	28.5
3144.13	20
3144.95	23.5
3145.77	24.5
3146.59	23
3147.41	25
3148.23	24.5
3149.05	25.5
3149.87	23
3150.69	22
3151.51	24
3152.33	22
3153.15	25
3153.97	25.5
3154.79	26.5
3155.61	25.5
3156.43	22
3157.25	27.5
3158.07	24
3158.89	23.5
3159.71	24
3160.53	21.5
3161.35	20.5
3162.17	22
3162.98	24.5
3163.8	23.5
3164.62	20.5
3165.44	24
3166.26	29
3167.07	22
3167.89	24
3168.71	26.5
3169.53	25.5
3170.35	25.5
3171.16	23
3171.98	22.5
3172.8	23
3173.61	21
3174.43	23
3175.25	24.5
3176.06	24.5
3176.88	25
3177.7	21
3178.51	25
3179.33	23
3180.15	28.5
3180.96	23
3181.78	26
3182.59	25
3183.41	25.5
3184.22	23.5
3185.04	22
3185.85	21
3186.67	23.5
3187.49	22.5
3188.3	22
3189.12	27.5
3189.93	21.5
3190.74	26.5
3191.56	22.5
3192.37	24.5
3193.19	22
3194	22
3194.82	23
3195.63	25
3196.44	24.5
3197.26	28
3198.07	29
3198.88	22
3199.7	24.5
3200.51	23
3201.32	27.5
3202.14	21.5
3202.95	27
3203.76	20.5
3204.58	23.5
3205.39	24.5
3206.2	21
3207.01	26
3207.83	21
3208.64	25.5
3209.45	22.5
3210.26	25
3211.07	24
3211.88	24.5
3212.7	24.5
3213.51	25
3214.32	19
3215.13	29
3215.94	24
3216.75	23
3217.56	24
3218.37	21
3219.18	23
3220	25.5
3220.8	22
3221.62	21.5
3222.43	23
3223.24	23
3224.05	20
3224.86	22
3225.67	25
3226.47	23
3227.28	25
3228.09	26
3228.9	25
3229.71	24.5
3230.52	22.5
3231.33	24
3232.14	27.5
3232.95	22.5
3233.76	22.5
3234.56	26.5
3235.37	22
3236.18	23.5
3236.99	25
3237.8	26.5
3238.61	22.5
3239.41	24
3240.22	23.5
3241.03	23.5
3241.84	23.5
3242.64	25
3243.45	24
3244.26	19.5
3245.07	22.5
3245.87	22
3246.68	27
3247.49	22.5
3248.29	26
3249.1	23.5
3249.9	22.5
3250.71	24
3251.52	26.5
3252.32	23.5
3253.13	29
3253.93	25
3254.74	20
3255.55	21
3256.35	25
3257.16	24
3257.96	22
3258.77	21.5
3259.57	22.5
3260.38	22
3261.18	21.5
3261.99	27
3262.79	23.5
3263.6	24.5
3264.4	24.5
3265.2	22
3266.01	24
3266.81	26.5
3267.62	25
3268.42	21.5
3269.22	27.5
3270.03	27.5
3270.83	23
3271.63	22.5
3272.44	23
3273.24	21.5
3274.04	24
3274.85	25.5
3275.65	20.5
3276.45	24.5
3277.25	20.5
3278.06	25.5
3278.86	23
3279.66	23.5
3280.46	26.5
3281.26	26.5
3282.07	24
3282.87	27.5
3283.67	23
3284.47	24.5
3285.27	23.5
3286.07	24
3286.87	25
3287.68	24
3288.48	22.5
3289.28	26
3290.08	21
3290.88	24.5
3291.68	23
3292.48	24.5
3293.28	24
3294.08	21
3294.88	26.5
3295.68	30
3296.48	23
3297.28	26.5
3298.08	22.5
3298.88	23
3299.68	24.5
3300.48	26.5
3301.28	29.5
3302.08	23.5
3302.88	28.5
3303.67	23.5
3304.47	26
3305.27	25
3306.07	26
3306.87	26
3307.67	26
3308.46	27
3309.26	24.5
3310.06	22
3310.86	23
3311.66	25
3312.45	25
3313.25	21
3314.05	22
3314.85	24.5
3315.64	23.5
3316.44	27
3317.24	22
3318.03	22.5
3318.83	27.5
3319.63	29
3320.42	21
3321.22	19
3322.02	24
3322.81	22
3323.61	26.5
3324.4	23.5
3325.2	18.5
3326	23.5
3326.79	24.5
3327.59	27.5
3328.38	24
3329.18	20.5
3329.97	20
3330.77	26
3331.56	24.5
3332.36	25.5
3333.15	22
3333.95	22.5
3334.74	27
3335.54	26.5
3336.33	21.5
3337.13	24
3337.92	23.5
3338.71	25
3339.51	26
3340.3	23.5
3341.1	19
3341.89	25
3342.68	28
3343.48	25.5
3344.27	22
3345.06	23.5
3345.85	21.5
3346.65	21
3347.44	20
3348.23	23
3349.03	25
3349.82	27.5
3350.61	26.5
3351.4	24.5
3352.19	24.5
3352.99	26
3353.78	25.5
3354.57	23
3355.36	25.5
3356.15	23.5
3356.94	26
3357.74	19
3358.53	23
3359.32	21.5
3360.11	20
3360.9	25
3361.69	23.5
3362.48	23
3363.27	24
3364.06	25
3364.85	24
3365.64	23
3366.43	22.5
3367.22	24.5
3368.01	22.5
3368.8	25.5
3369.59	25.5
3370.38	24
3371.17	25.5
3371.96	27.5
3372.75	23
3373.54	26.5
3374.33	24.5
3375.12	24
3375.91	24
3376.69	27.5
3377.48	25
3378.27	27.5
3379.06	24
3379.85	24
3380.64	22.5
3381.42	23
3382.21	24
3383	26.5
3383.79	19.5
3384.58	25.5
3385.36	24.5
3386.15	26
3386.94	18
3387.73	21.5
3388.51	23
3389.3	25
3390.09	21
3390.87	25
3391.66	26
3392.45	21
3393.23	26
3394.02	22.5
3394.81	24
3395.59	21.5
3396.38	26
3397.16	22.5
3397.95	18
3398.74	26
3399.52	20
3400.31	23.5
3401.09	23.5
3401.88	26
3402.66	23.5
3403.45	28
3404.23	25
3405.02	22.5
3405.8	25
3406.59	21
3407.37	27.5
3408.15	24.5
3408.94	19
3409.72	25
3410.51	24
3411.29	25.5
3412.07	22
3412.86	28.5
3413.64	27
3414.42	22.5
3415.21	24
3415.99	23
3416.78	24
3417.56	19
3418.34	31
3419.12	24
3419.91	28
3420.69	23.5
3421.47	24.5
3422.25	25
3423.04	22.5
3423.82	24.5
3424.6	23.5
3425.38	22.5
3426.16	24
3426.95	24
3427.73	25
3428.51	23.5
3429.29	24.5
3430.07	26
3430.85	26
3431.63	22
3432.42	25
3433.2	24.5
3433.98	23.5
3434.76	20.5
3435.54	24.5
3436.32	20
3437.1	20
3437.88	26
3438.66	26.5
3439.44	25
3440.22	23.5
3441	21
3441.78	23.5
3442.56	21
3443.34	23
3444.12	24.5
3444.9	23
3445.68	26
3446.45	22
3447.23	26
3448.01	24
3448.79	24.5
3449.57	22
3450.35	22
3451.13	22.5
3451.91	26
3452.68	24.5
3453.46	25.5
3454.24	23
3455.02	22.5
3455.79	24
3456.57	27
3457.35	25
3458.13	27
3458.91	22
3459.68	19
3460.46	25
3461.24	25
3462.01	22
3462.79	22.5
3463.57	26.5
3464.34	21
3465.12	27.5
3465.9	24
3466.67	29.5
3467.45	23.5
3468.22	24
3469	23
3469.78	27.5
3470.55	23
3471.33	21
3472.1	25
3472.88	21
3473.65	25
3474.43	25
3475.2	22.5
3475.98	21.5
3476.75	25
3477.53	30
3478.3	19
3479.08	25.5
3479.85	19
3480.63	20
3481.4	23.5
3482.18	22
3482.95	19
3483.72	25.5
3484.5	28.5
3485.27	24
3486.04	24.5
3486.82	26.5
3487.59	25.5
3488.36	24.5
3489.14	21
3489.91	22
3490.68	22
3491.46	24.5
3492.23	22.5
3493	24.5
3493.77	24
3494.55	27.5
3495.32	24.5
3496.09	25.5
3496.86	19
3497.64	26.5
3498.41	18
3499.18	25
3499.95	26
