#Acq. time (s)=	5
#Accumulations=	5
#Range (cm-¹)=	100...3500
#Windows=	4
#Autofocus=	Off
#AutoExposure=	Off
#Spike filter=	Multiple accum.
#Delay time (s)=	0
#Binning=	1
#Readout mode=	Signal
#DeNoise=	Off
#ICS correction=	Off
#Dark correction=	Off
#Inst. Process=	Off
#Instrument=	LabRAM HR Evol
#Detector=	Syncerity OE
#Objective=	x100_VIS
#Grating=	600 (500nm)
#ND Filter=	25%
#Laser=	633nm_Edge
#Hole=	100.021
#Range=	Visible
#Project=	verificaciones
#Sample=	a2
#Site=	plain
#Title=	bolusa2plain
#Remark=	com
#Date=	16.01.2026 14:25
#Acquired=	16.01.2026 14:25:18
100.687	30
101.971	30
103.254	34
104.537	36
105.82	31.5
107.103	31
108.387	32.5
109.669	26.5
110.951	32.5
112.233	31
113.514	29
114.796	30
116.077	33
117.358	33.5
118.639	32.5
119.919	36
121.2	30.5
122.48	37.5
123.76	32.5
125.039	33
126.319	36.5
127.598	36.5
128.877	35.5
130.156	33
131.435	31.5
132.713	34.5
133.992	35.5
135.268	36
136.546	40
137.824	32.5
139.101	37
140.378	37.5
141.655	36.5
142.932	40
144.209	39
145.485	39.5
146.76	36
148.036	40.5
149.312	45.5
150.587	45
151.862	37
153.138	48
154.411	36
155.686	48.5
156.96	39
158.235	46
159.509	45.5
160.781	40
162.055	41.5
163.328	49
164.602	40
165.873	44.5
167.146	41.5
168.419	38
169.691	41.5
170.962	43
172.234	42
173.506	43
174.777	44
176.047	42.5
177.318	43.5
178.589	42.5
179.859	43.5
181.129	46.5
182.4	42
183.668	41
184.938	46.5
186.207	42.5
187.476	42
188.746	42.5
190.013	41
191.282	46.5
192.551	42.5
193.818	43.5
195.086	43.5
196.353	46.5
197.621	42
198.887	42.5
200.154	40.5
201.422	41
202.687	36
203.954	37
205.219	39
206.486	38
207.751	39.5
209.017	39
210.281	38
211.547	40
212.811	37.5
214.076	39.5
215.339	39
216.603	35
217.867	39.5
219.13	34
220.395	31.5
221.657	35
222.921	35.5
224.183	37.5
225.445	30.5
226.708	34
227.97	32
229.232	31
230.493	31
231.754	32
233.016	32
234.277	32
235.537	30
236.799	34
238.059	29.5
239.318	34.5
240.579	31
241.839	35
243.098	32.5
244.358	30
245.617	31.5
246.875	31
248.133	28
249.393	27
250.651	27
251.908	32.5
253.166	29.5
254.424	26
255.681	32.5
256.938	31.5
258.195	35
259.451	30
260.709	32
261.965	32
263.221	31.5
264.476	29
265.732	27.5
266.988	32
268.243	28
269.498	32
270.753	27.5
272.007	28
273.261	29.5
274.515	27.5
275.769	33
277.022	26.5
278.277	28.5
279.53	32.5
280.783	30.5
282.036	30
283.289	30
284.541	29.5
285.793	32.5
287.045	29.5
288.297	31
289.548	26.5
290.8	31.5
292.051	32
293.302	29
294.552	34
295.803	25
297.053	27.5
298.303	29.5
299.553	31
300.803	30
302.053	29.5
303.302	32
304.551	32
305.8	28
307.047	28
308.296	23
309.544	28
310.792	33
312.04	28.5
313.288	31
314.535	29
315.783	31.5
317.03	33
318.275	27
319.522	27.5
320.768	32
322.015	27
323.261	33.5
324.505	29.5
325.751	31.5
326.997	31
328.242	29
329.487	32
330.73	30
331.975	31
333.22	27
334.464	28
335.707	32
336.95	30
338.194	30
339.438	33
340.68	25
341.923	29
343.166	27.5
344.407	34
345.649	29
346.892	31
348.132	30
349.374	31
350.616	31
351.856	30.5
353.097	30
354.337	32.5
355.578	27.5
356.818	26.5
358.058	29
359.298	31
360.536	30
361.776	32
363.016	28.5
364.254	25.5
365.493	30
366.731	31.5
367.97	29.5
369.207	30
370.446	31.5
371.683	31.5
372.921	27
374.157	30.5
375.395	31.5
376.631	31.5
377.868	25.5
379.104	29
380.341	29
381.576	32.5
382.813	31
384.048	32.5
385.284	31
386.518	29
387.753	30
388.988	26
390.222	27
391.457	29.5
392.691	31
393.924	36
395.159	25
396.392	29
397.624	27
398.858	30
400.091	30.5
401.323	28.5
402.556	32
403.788	30
405.019	29.5
406.252	33
407.483	31
408.714	28.5
409.945	29.5
411.177	34
412.407	28.5
413.637	27
414.867	28.5
416.099	32.5
417.328	32
418.558	29
419.787	28.5
421.016	30
422.246	32
423.475	34
424.703	25
425.931	34
427.159	28
428.388	31.5
429.616	27.5
430.843	30.5
432.071	29
433.298	33
434.524	28.5
435.751	28
436.977	31
438.204	31
439.431	33
440.657	33
441.883	27.5
443.108	28.5
444.333	29
445.558	33.5
446.783	32
448.008	27
449.232	33
450.457	29
451.681	31
452.905	30
454.128	35
455.352	32.5
456.575	30
457.798	30
459.021	36.5
460.244	33.5
461.466	29
462.689	30
463.909	32.5
465.131	32
466.353	36.5
467.575	33
468.796	34
470.017	37.5
471.238	39
472.459	39.5
473.679	34
474.898	38
476.118	44
477.338	45.5
478.558	52
479.778	51.5
480.997	55
482.215	54
483.434	61
484.653	60.5
485.871	65
487.09	59.5
488.307	72
489.525	66.5
490.743	63
491.96	63.5
493.176	61.5
494.394	57
495.611	58.5
496.826	46.5
498.043	53
499.259	47.5
500.474	50
501.69	47.5
502.906	48
504.121	40.5
505.336	41.5
506.551	43
507.765	39.5
508.98	38.5
510.195	36
511.408	39
512.622	30
513.835	35
515.049	37
516.263	38
517.475	32
518.689	34.5
519.9	35
521.113	30
522.325	32.5
523.537	37
524.748	32.5
525.961	32
527.171	34.5
528.383	36
529.594	28.5
530.805	29
532.015	30
533.226	33.5
534.435	30
535.646	33
536.855	28.5
538.066	30.5
539.274	31
540.483	27.5
541.693	34.5
542.901	33
544.11	30
545.318	32
546.526	26.5
547.734	30
548.942	28
550.149	30
551.357	31
552.563	32.5
553.77	31.5
554.978	29
556.184	29.5
557.389	31
558.596	28.5
559.802	32.5
561.007	28.5
562.212	27
563.419	33
564.623	30
565.828	28
567.032	30
568.238	32
569.442	26.5
570.646	27
571.849	29
573.054	26.5
574.257	29
575.46	29.5
576.663	29
577.866	28
579.068	31
580.272	30.5
581.474	28
582.676	34
583.877	31.5
585.079	26.5
586.28	28.5
587.481	31
588.682	28.5
589.883	31.5
591.083	32.5
592.285	31
593.485	32
594.685	29
595.885	24.5
597.084	25
598.284	31
599.483	29
600.682	28.5
601.881	34
603.08	27.5
604.278	31
605.476	28
606.674	36.5
607.872	30.5
609.07	28.5
610.266	32
611.463	28
612.661	29
613.857	28
615.054	29
616.251	32
617.447	31.5
618.643	31
619.839	28.5
621.035	33
622.229	28.5
623.425	31.5
624.62	32
625.815	31
627.01	29
628.205	27
629.398	29
630.592	26.5
631.786	29.5
632.98	31
634.172	30
635.366	29.5
636.559	32.5
637.753	29.5
638.944	27.5
640.137	27.5
641.33	31.5
642.522	30
643.713	25.5
644.905	31.5
646.097	30.5
647.287	30.5
648.478	29.5
649.67	28
650.859	31.5
652.05	30
653.241	32.5
654.43	31
655.621	30.5
656.811	32
657.999	31
659.189	29.5
660.378	32
661.567	34
662.755	30
663.944	26
665.133	30.5
666.32	29
667.508	32
668.695	33
669.884	32
671.07	33.5
672.258	32
673.444	31
674.631	33
675.817	32
677.004	31.5
678.19	37
679.376	31.5
680.561	33
681.746	37
682.932	40
684.117	36.5
685.302	39
686.487	36.5
687.672	37
688.856	37
690.039	32.5
691.224	35.5
692.407	32
693.59	33
694.774	35.5
695.957	36.5
697.14	39.5
698.323	37.5
699.505	37.5
700.687	38
701.87	46
703.052	43
704.233	41
705.414	48
706.597	49.5
707.778	57
708.958	47
710.139	56.5
711.32	52
712.5	47
713.68	44.5
714.86	35.5
716.039	33
717.22	32.5
718.399	32.5
719.578	30.5
720.757	31.5
721.935	31.5
723.114	31.5
724.292	26.5
725.471	35
726.649	26
727.827	27.5
729.004	30.5
730.182	30
731.359	31
732.536	31
733.712	26.5
734.889	27
736.065	25.5
737.242	31
738.418	30.5
739.593	28
740.769	27.5
741.945	27
743.12	30.5
744.295	30.5
745.47	27
746.644	27.5
747.819	30.5
748.993	29.5
750.168	33
751.342	29
752.515	32
753.689	29.5
754.862	30
756.036	29.5
757.209	33
758.382	29.5
759.553	26
760.725	28.5
761.898	25.5
763.07	26.5
764.242	29.5
765.414	28
766.584	31
767.755	28
768.927	25.5
770.098	28
771.269	28
772.438	30
773.608	30
774.779	31
775.949	29
777.117	29
778.287	32
779.457	31
780.626	30.5
781.794	29.5
782.963	28.5
784.132	31
785.299	31
786.468	34
787.636	34
788.803	35
789.971	33
791.139	29.5
792.305	33.5
793.472	30
794.638	29.5
795.805	29.5
796.972	32.5
798.138	26
799.304	29
800.469	31.5
801.635	31
802.801	25.5
803.966	30
805.131	27.5
806.295	31
807.461	27.5
808.624	29
809.789	29
810.952	31
812.117	26.5
813.28	33
814.444	28
815.607	33.5
816.769	29
817.933	27
819.095	32
820.258	26.5
821.42	24
822.583	29
823.744	28
824.905	27
826.068	29.5
827.228	24
828.389	28.5
829.551	30
830.711	31.5
831.871	27.5
833.032	29.5
834.192	30
835.352	27.5
836.513	27.5
837.672	29
838.831	26.5
839.99	30.5
841.15	29
842.308	26.5
843.466	27
844.624	28.5
845.784	25
846.941	29
848.099	31
849.256	31
850.414	27.5
851.572	26.5
852.729	26.5
853.886	30
855.042	25.5
856.198	27.5
857.355	29
858.512	28.5
859.668	33.5
860.823	30
861.979	28
863.134	32
864.289	29
865.444	32.5
866.599	31
867.753	30
868.908	32
870.062	28.5
871.216	31.5
872.37	29.5
873.523	32.5
874.677	31.5
875.83	31
876.983	25.5
878.136	27.5
879.289	27
880.441	29.5
881.594	27.5
882.746	23.5
883.898	30
885.05	28.5
886.201	28
887.353	26.5
888.504	28.5
889.655	27
890.806	25
891.956	30
893.107	30
894.257	26.5
895.407	28.5
896.557	28
897.707	29.5
898.856	27
900.005	22.5
901.154	24.5
902.304	28
903.453	23
904.6	27
905.749	27.5
906.897	28.5
908.046	27.5
909.192	25.5
910.34	30.5
911.488	30
912.634	26.5
913.782	26
914.929	28.5
916.076	27.5
917.222	27
918.368	27.5
919.515	26
920.66	26
921.806	26.5
922.951	28
924.097	25
925.242	25.5
926.387	25
927.532	29
928.676	26.5
929.821	28.5
930.965	22
932.109	28
933.253	25.5
934.396	27.5
935.54	27.5
936.683	26.5
937.826	23
938.969	24.5
940.112	30
941.254	27
942.397	27
943.538	26
944.681	26.5
945.822	31
946.964	27.5
948.105	28
949.246	22
950.388	22.5
951.528	27
952.669	29
953.809	26
954.949	26.5
956.09	26.5
957.229	23.5
958.369	27
959.509	25.5
960.648	31.5
961.786	28
962.926	30
964.065	28
965.203	31.5
966.342	22
967.48	28.5
968.618	26.5
969.755	28.5
970.894	28
972.031	27
973.168	26
974.305	24.5
975.441	26
976.579	26.5
977.715	30.5
978.851	24
979.987	24.5
981.123	26.5
982.26	28.5
983.395	27
984.531	26
985.666	27
986.8	24
987.935	26
989.07	24
990.204	26
991.338	29.5
992.472	25.5
993.607	28.5
994.741	28.5
995.874	26
997.008	27
998.141	30
999.274	25.5
1000.41	25
1001.54	23.5
1002.67	30
1003.8	25
1004.94	25.5
1006.07	26
1007.2	27
1008.33	26
1009.46	25.5
1010.59	29.5
1011.72	30.5
1012.85	24
1013.99	26
1015.12	28.5
1016.25	28
1017.38	27
1018.51	25
1019.63	25
1020.76	26
1021.89	21
1023.02	27.5
1024.15	25
1025.28	27.5
1026.41	26
1027.54	28.5
1028.67	26.5
1029.79	24.5
1030.92	25.5
1032.05	26.5
1033.18	24
1034.3	25.5
1035.43	25
1036.56	26.5
1037.68	25
1038.81	25
1039.94	26.5
1041.06	24
1042.19	20
1043.31	26
1044.44	32
1045.57	23
1046.69	27
1047.82	27.5
1048.94	24.5
1050.07	27.5
1051.19	24.5
1052.31	24.5
1053.44	27
1054.56	25.5
1055.69	24.5
1056.81	28
1057.93	29
1059.06	28
1060.18	26
1061.3	27.5
1062.42	29
1063.55	23
1064.67	23
1065.79	25.5
1066.91	25.5
1068.03	26
1069.16	26
1070.28	26
1071.4	23.5
1072.52	26
1073.64	30.5
1074.76	28
1075.88	24
1077	27.5
1078.12	25
1079.24	27.5
1080.36	28.5
1081.48	25
1082.6	26
1083.72	28
1084.84	28.5
1085.96	26.5
1087.08	26.5
1088.2	28.5
1089.31	26
1090.43	24.5
1091.55	27.5
1092.67	27.5
1093.78	28
1094.9	26
1096.02	28.5
1097.14	31
1098.25	26.5
1099.37	29
1100.49	26
1101.6	25
1102.72	26
1103.83	27.5
1104.95	26.5
1106.07	26
1107.18	28
1108.3	24.5
1109.41	25
1110.52	23
1111.64	23.5
1112.75	23
1113.87	23
1114.98	26.5
1116.1	25
1117.21	25
1118.32	24
1119.44	26
1120.55	26
1121.66	22
1122.78	26
1123.89	27.5
1125	25
1126.11	28.5
1127.23	22.5
1128.34	22
1129.45	23
1130.56	22
1131.67	26
1132.78	24.5
1133.89	28.5
1135	28
1136.12	25.5
1137.23	23
1138.34	25.5
1139.45	24
1140.56	23
1141.67	25
1142.78	24.5
1143.89	22.5
1144.99	26.5
1146.1	28
1147.21	27.5
1148.32	21.5
1149.43	30.5
1150.54	26
1151.65	29.5
1152.75	22
1153.86	26
1154.97	28
1156.08	27
1157.18	25.5
1158.29	25
1159.4	22.5
1160.5	23.5
1161.61	27
1162.72	24
1163.82	27.5
1164.93	28
1166.03	25
1167.14	26
1168.24	27.5
1169.35	25.5
1170.45	21
1171.56	25
1172.66	22.5
1173.77	26
1174.87	29
1175.98	23
1177.08	26
1178.19	25
1179.29	27.5
1180.39	24
1181.5	26
1182.6	24.5
1183.7	26.5
1184.8	26
1185.91	29.5
1187.01	23
1188.11	22.5
1189.21	23.5
1190.32	25
1191.42	23.5
1192.52	25
1193.62	25
1194.72	20.996
1195.82	21.4608
1196.92	24.0533
1198.02	26.9935
1199.12	26.9481
1200.22	27.352
1201.32	24.4425
1202.42	25.416
1203.52	26.9313
1204.62	22.8776
1205.72	26.7209
1206.82	25.648
1207.92	25.0933
1209.02	22.5938
1210.12	23.6506
1211.22	21.9762
1212.31	24.5891
1213.41	25.3945
1214.51	26.267
1215.61	23.4709
1216.71	25.6105
1217.8	24.7294
1218.9	24.3961
1220	24.4782
1221.09	25.4808
1222.19	26.5386
1223.29	24.8674
1224.38	25.3947
1225.48	24.6023
1226.58	26.2719
1227.67	24.3525
1228.77	27.3621
1229.86	24.2554
1230.96	23.286
1232.05	24.8909
1233.15	23.6868
1234.24	24.5292
1235.34	24.4049
1236.43	25.4662
1237.52	24.7938
1238.62	23.1235
1239.71	22.8188
1240.81	25.5238
1241.9	25.0218
1242.99	23.2231
1244.09	23.2292
1245.18	24.9904
1246.27	24.0622
1247.36	23.6373
1248.46	23.4788
1249.55	25.1936
1250.64	20.0777
1251.73	27.3764
1252.82	26.0777
1253.92	25.5399
1255.01	26.8757
1256.1	25.0971
1257.19	29.6658
1258.28	26.3554
1259.37	27.4654
1260.46	26.3032
1261.55	28.9832
1262.64	29.017
1263.73	26.2791
1264.82	26.9957
1265.91	28.9318
1267	27.9369
1268.09	22.7005
1269.18	27.0161
1270.27	27.7481
1271.36	25.6461
1272.45	24.1652
1273.53	26.1514
1274.62	25.263
1275.71	23.7233
1276.8	21.3445
1277.89	23.6811
1278.97	24.2449
1280.06	24.7509
1281.15	20.7013
1282.23	22.4883
1283.32	23.8771
1284.41	25.2685
1285.49	26.9629
1286.58	25.207
1287.67	27.8086
1288.75	24.3828
1289.84	23.258
1290.92	22.7607
1292.01	23.0987
1293.09	20.1754
1294.18	23.1815
1295.26	23.8883
1296.35	23.953
1297.43	23.1151
1298.52	26.8556
1299.6	22.7393
1300.69	24.6469
1301.77	22.7713
1302.85	23.3683
1303.94	23.9515
1305.02	25.0568
1306.1	23.006
1306.42	22
1307.51	25
1308.59	29
1309.68	25
1310.77	22
1311.86	25.5
1312.95	23.5
1314.03	23.5
1315.12	23.5
1316.21	27.5
1317.29	24
1318.38	25.5
1319.47	25
1320.55	23.5
1321.64	23.5
1322.72	26.5
1323.81	26
1324.89	27
1325.98	28
1327.07	20
1328.15	26
1329.24	27.5
1330.32	23
1331.4	24.5
1332.49	25.5
1333.57	27.5
1334.66	28.5
1335.74	24.5
1336.82	26.5
1337.91	23.5
1338.99	29
1340.07	24
1341.16	27
1342.24	30.5
1343.32	26.5
1344.4	23
1345.49	25
1346.57	25
1347.65	26
1348.73	24.5
1349.81	23.5
1350.9	24.5
1351.98	24.5
1353.06	21
1354.14	25.5
1355.22	21.5
1356.3	19.5
1357.38	23
1358.46	24
1359.54	24
1360.62	22
1361.7	23.5
1362.78	24.5
1363.86	23.5
1364.94	24
1366.02	27
1367.1	28
1368.17	25
1369.25	24
1370.33	24.5
1371.41	24
1372.49	26.5
1373.57	25
1374.64	28
1375.72	25
1376.8	25.5
1377.87	24
1378.95	27
1380.03	25.5
1381.1	26.5
1382.18	24.5
1383.26	29
1384.33	26.5
1385.41	27.5
1386.49	26.5
1387.56	25.5
1388.64	28
1389.71	25
1390.79	24.5
1391.86	28
1392.94	28
1394.01	25
1395.08	29
1396.16	29
1397.23	27
1398.31	29
1399.38	32
1400.45	29
1401.53	32
1402.6	28.5
1403.67	32.5
1404.75	32
1405.82	30
1406.89	32
1407.96	28.5
1409.04	30
1410.11	31.5
1411.18	31
1412.25	34.5
1413.32	32
1414.39	35
1415.47	30
1416.54	33
1417.61	28
1418.68	28.5
1419.75	29
1420.82	31.5
1421.89	30
1422.96	28
1424.03	31
1425.1	27.5
1426.17	24
1427.24	23
1428.31	28
1429.38	21.5
1430.44	24.5
1431.51	25.5
1432.58	25.5
1433.65	27.5
1434.72	26.5
1435.79	27
1436.85	28.5
1437.92	26.5
1438.99	21
1440.05	26.5
1441.12	26.5
1442.19	24
1443.26	24
1444.32	25
1445.39	25.5
1446.46	22
1447.52	26
1448.59	26
1449.65	31
1450.72	28
1451.78	24.5
1452.85	23.5
1453.91	25
1454.98	23.5
1456.04	25
1457.11	24
1458.17	26
1459.24	30
1460.3	26
1461.36	25
1462.43	25
1463.49	26.5
1464.56	27.5
1465.62	25.5
1466.68	25.5
1467.74	21
1468.81	20
1469.87	24.5
1470.93	20
1471.99	28.5
1473.06	27
1474.12	23.5
1475.18	23.5
1476.24	26.5
1477.3	25
1478.36	28
1479.42	26
1480.49	26.5
1481.55	23.5
1482.61	22
1483.67	21.5
1484.73	23.5
1485.79	24
1486.85	29
1487.91	27
1488.97	27.5
1490.03	32
1491.09	27.5
1492.14	23.5
1493.2	28
1494.26	24.5
1495.32	30
1496.38	28
1497.44	26
1498.49	27
1499.55	25
1500.61	29
1501.67	26
1502.72	23.5
1503.78	22
1504.84	26.5
1505.89	27
1506.95	26.5
1508.01	25.5
1509.07	29.5
1510.12	24
1511.18	25
1512.23	25
1513.29	28.5
1514.34	26
1515.4	30.5
1516.45	24.5
1517.51	23
1518.56	26.5
1519.62	27
1520.67	25
1521.73	23.5
1522.78	24
1523.84	24.5
1524.89	23.5
1525.94	27.5
1527	23
1528.05	24
1529.1	27
1530.16	23
1531.21	27
1532.26	28
1533.32	23.5
1534.37	23
1535.42	24
1536.47	29
1537.52	27.5
1538.57	24
1539.63	27.5
1540.68	26
1541.73	25.5
1542.78	23
1543.83	25
1544.88	27.5
1545.93	27.5
1546.98	24
1548.03	22.5
1549.08	23.5
1550.13	28.5
1551.18	24
1552.23	23
1553.28	28.5
1554.33	25
1555.38	28.5
1556.43	22
1557.48	22
1558.53	27.5
1559.57	28
1560.62	24.5
1561.67	29.5
1562.72	23.5
1563.77	29.5
1564.81	27
1565.86	27
1566.91	26.5
1567.96	27.5
1569	23.5
1570.05	24
1571.09	24.5
1572.14	28.5
1573.19	23
1574.23	22.5
1575.28	25
1576.33	27.5
1577.37	29
1578.42	27
1579.46	26.5
1580.51	23
1581.55	27
1582.6	27.5
1583.64	25
1584.69	25.5
1585.73	25
1586.77	28
1587.82	23.5
1588.86	24
1589.91	28.5
1590.95	26
1591.99	26
1593.04	25.5
1594.08	29
1595.12	25
1596.16	27.5
1597.21	23.5
1598.25	24.5
1599.29	24.5
1600.33	24
1601.37	23
1602.42	23
1603.46	25
1604.5	22
1605.54	26
1606.58	26.5
1607.62	26.5
1608.66	24.5
1609.7	28
1610.74	27.5
1611.78	23
1612.82	23.5
1613.86	27.5
1614.9	27
1615.94	28.5
1616.98	25
1618.02	25
1619.06	23
1620.1	29.5
1621.14	24.5
1622.18	27
1623.21	23
1624.25	27
1625.29	25.5
1626.33	28
1627.37	24.5
1628.4	21
1629.44	24.5
1630.48	28
1631.52	21
1632.55	25
1633.59	26
1634.63	26.5
1635.66	29
1636.7	25.5
1637.73	26
1638.77	27.5
1639.81	27.5
1640.84	28
1641.88	29
1642.91	23
1643.95	25
1644.98	24.5
1646.02	25.5
1647.05	23.5
1648.09	24.5
1649.12	25
1650.16	22.5
1651.19	26
1652.22	28
1653.26	22.5
1654.29	26
1655.32	22.5
1656.36	32
1657.39	25
1658.42	24
1659.46	25
1660.49	26.5
1661.52	26.5
1662.55	26.5
1663.59	24
1664.62	24.5
1665.65	23
1666.68	25
1667.71	27.5
1668.74	27.5
1669.77	24.5
1670.81	25
1671.84	24
1672.87	26
1673.9	24.5
1674.93	25
1675.96	29
1676.99	24
1678.02	25
1679.05	25
1680.08	24
1681.11	23.5
1682.13	27
1683.16	29
1684.19	25.5
1685.22	28
1686.25	27.5
1687.28	27
1688.31	27.5
1689.33	29
1690.36	25.5
1691.39	24
1692.42	25.5
1693.45	25
1694.47	28
1695.5	24
1696.53	23
1697.55	19.5
1698.58	25.5
1699.61	23.5
1700.63	24.5
1701.66	25.5
1702.68	29
1703.71	21
1704.74	24
1705.76	22
1706.79	26.5
1707.81	29
1708.84	26.5
1709.86	24.5
1710.89	28
1711.91	24.5
1712.94	27
1713.96	26
1714.98	28.5
1716.01	25
1717.03	28
1718.05	26
1719.08	29
1720.1	22.5
1721.12	30
1722.15	24.5
1723.17	27.5
1724.19	29.5
1725.22	28
1726.24	26
1727.26	28
1728.28	22
1729.3	25
1730.32	28.5
1731.35	23
1732.37	28
1733.39	24
1734.41	25.5
1735.43	22.5
1736.45	27.5
1737.47	25.5
1738.49	25
1739.51	27
1740.53	26.5
1741.55	27
1742.57	25.5
1743.59	24
1744.61	24.5
1745.63	29.5
1746.65	22
1747.67	24
1748.69	24
1749.71	25
1750.72	26
1751.74	21.5
1752.76	24.5
1753.78	27.5
1754.8	27
1755.81	27
1756.83	26.5
1757.85	23.5
1758.87	25
1759.88	27
1760.9	30
1761.92	25
1762.93	25.5
1763.95	25
1764.97	26.5
1765.98	25
1767	23.5
1768.01	24
1769.03	26.5
1770.05	28
1771.06	26.5
1772.08	22
1773.09	27
1774.11	28.5
1775.12	26.5
1776.13	24
1777.15	26.5
1778.16	26.5
1779.18	26
1780.19	25.5
1781.2	25.5
1782.22	27.5
1783.23	21
1784.24	25
1785.26	25
1786.27	24
1787.28	24.5
1788.3	27
1789.31	24.5
1790.32	27
1791.33	27.5
1792.35	23.5
1793.36	22.5
1794.37	27.5
1795.38	24
1796.39	27
1797.4	22.5
1798.41	24
1799.43	24.5
1800.44	26.5
1801.45	22.5
1802.46	27.5
1803.47	25.5
1804.48	24
1805.49	26.5
1806.5	25
1807.51	21
1808.52	21.5
1809.53	28
1810.53	28
1811.54	27
1812.55	27.5
1813.56	27.5
1814.57	22.5
1815.58	23.5
1816.59	27
1817.6	23
1818.6	23.5
1819.61	26
1820.62	25.5
1821.63	23.5
1822.63	27.5
1823.64	22.5
1824.65	21
1825.65	21.5
1826.66	26
1827.67	20
1828.67	26.5
1829.68	26.5
1830.69	22.5
1831.69	25
1832.7	25.5
1833.7	21.5
1834.71	26
1835.71	25
1836.72	23
1837.72	22
1838.73	26
1839.73	24.5
1840.74	24.5
1841.74	28
1842.75	27.5
1843.75	24
1844.75	26
1845.76	26
1846.76	23.5
1847.76	25
1848.77	24
1849.77	28
1850.77	18
1851.78	20.5
1852.78	28
1853.78	24
1854.78	26
1855.79	28
1856.79	24.5
1857.79	26
1858.79	24
1859.79	24.5
1860.8	29
1861.8	25.5
1862.8	25.5
1863.8	22
1864.8	25
1865.8	22.5
1866.8	26
1867.8	20
1868.8	29
1869.8	24.5
1870.8	22.5
1871.8	27
1872.8	26.5
1873.8	28
1874.8	23.5
1875.8	22
1876.8	25.5
1877.8	21
1878.79	27
1879.79	26
1880.79	23.5
1881.79	24
1882.79	24.5
1883.79	29
1884.78	23.5
1885.78	22.5
1886.78	23.5
1887.77	24.5
1888.77	27.5
1889.77	22
1890.77	25.5
1891.76	24
1892.76	22
1893.76	24
1894.75	27
1895.75	22.5
1896.74	25.5
1897.74	22
1898.73	28.5
1899.73	23.5
1900.72	24.5
1901.72	22
1902.72	25
1903.71	27
1904.7	23.5
1905.7	21.5
1906.69	23.5
1907.69	25
1908.68	23
1909.67	22
1910.67	25.5
1911.66	23.5
1912.66	27
1913.65	22
1914.64	23
1915.63	24.5
1916.63	26.5
1917.62	27
1918.61	25
1919.6	20.5
1920.6	25
1921.59	23
1922.58	24
1923.57	23.5
1924.56	27
1925.56	21
1926.55	24
1927.54	25
1928.53	22.5
1929.52	27
1930.51	21
1931.5	22
1932.49	24
1933.48	27.5
1934.47	25.5
1935.46	23.5
1936.45	23.5
1937.44	24
1938.43	24
1939.42	26.5
1940.41	19
1941.4	24
1942.39	24
1943.37	26.5
1944.36	26.5
1945.35	24
1946.34	21
1947.33	23
1948.32	24.5
1949.3	24
1950.29	28
1951.28	22
1952.27	27
1953.25	23
1954.24	26.5
1955.23	24
1956.21	23.5
1957.2	25
1958.19	29
1959.17	28
1960.16	23
1961.14	23.5
1962.13	24.5
1963.12	23.5
1964.1	24
1965.09	23.5
1966.07	24
1967.06	22
1968.04	22.5
1969.03	25
1970.01	25.5
1970.99	23
1971.98	26
1972.96	27.5
1973.95	26
1974.93	25.5
1975.92	26.5
1976.9	21.5
1977.88	24.5
1978.87	26.5
1979.85	22
1980.83	22
1981.81	20
1982.8	27
1983.78	24.5
1984.76	26.5
1985.74	26.5
1986.73	22
1987.71	27
1988.69	25.5
1989.67	23
1990.65	25.5
1991.63	25.5
1992.61	25.5
1993.59	20.5
1994.58	25
1995.56	23
1996.54	23
1997.52	24.5
1998.5	27.5
1999.48	25
2000.46	25.5
2001.44	24
2002.42	23.5
2003.4	24.5
2004.38	24.5
2005.35	25.5
2006.33	25
2007.31	24
2008.29	25
2009.27	25
2010.25	23.5
2011.23	23.5
2012.2	25
2013.18	25.5
2014.16	21.5
2015.14	23.5
2016.11	21
2017.09	25.5
2018.07	27
2019.05	19
2020.02	22.5
2021	26
2021.98	23
2022.95	27
2023.93	27
2024.91	24.5
2025.88	19
2026.86	24.5
2027.83	23
2028.81	25
2029.78	25
2030.76	24.5
2031.73	27
2032.71	21
2033.68	25
2034.66	22.5
2035.63	23.5
2036.61	26
2037.58	25.5
2038.56	26
2039.53	24.5
2040.5	23.5
2041.48	24
2042.45	24.5
2043.42	25
2044.4	23.5
2045.37	22
2046.34	22.5
2047.32	21
2048.29	22
2049.26	25
2050.23	23
2051.2	24
2052.18	25
2053.15	21
2054.12	25.5
2055.09	21
2056.06	23
2057.03	26
2058	23
2058.98	24
2059.95	23.5
2060.92	21
2061.89	23.5
2062.86	22.5
2063.83	24
2064.8	25
2065.77	21
2066.74	28.5
2067.71	25.5
2068.68	25.5
2069.65	24.5
2070.61	22.5
2071.58	22.5
2072.55	23
2073.52	24
2074.49	27
2075.46	23
2076.43	22.5
2077.4	23.5
2078.36	22
2079.33	22
2080.3	26
2081.27	22
2082.23	21.5
2083.2	24
2084.17	24.5
2085.13	22
2086.1	27
2087.07	20
2088.03	24
2089	21.5
2089.97	21.5
2090.93	20.5
2091.9	26
2092.86	22.5
2093.83	21
2094.8	21.5
2095.76	22.5
2096.73	24.5
2097.69	21.5
2098.66	21.5
2099.62	23.5
2100.58	22
2101.55	26.5
2102.51	21.5
2103.48	24.5
2104.44	23
2105.41	23.5
2106.37	23
2107.33	20.5
2108.3	23.5
2109.26	24
2110.22	25
2111.19	22.5
2112.15	23
2113.11	25.5
2114.07	25
2115.04	24.5
2116	26
2116.96	26
2117.92	24.5
2118.88	25
2119.85	26.5
2120.81	20
2121.77	24.5
2122.73	26
2123.69	24
2124.65	26
2125.61	21.5
2126.57	24
2127.53	27
2128.49	24.5
2129.45	25
2130.41	27.5
2131.37	20
2132.33	29
2133.29	22.5
2134.25	26.5
2135.21	20
2136.17	25
2137.13	27
2138.09	24.5
2139.05	26
2140.01	22.5
2140.96	23
2141.92	23
2142.88	25.474
2143.84	25.9338
2144.8	19.606
2145.75	24.4303
2146.71	23.8822
2147.67	18.4133
2148.63	20.7128
2149.58	23.1456
2150.54	20.3635
2151.5	22.9109
2152.45	17.38
2153.41	23.7084
2154.37	23.1966
2155.32	20.145
2156.28	21.8418
2157.23	18.6523
2158.19	21.4005
2159.15	23.8659
2160.1	21.9664
2161.06	21.8969
2162.01	25.4848
2162.97	22.0655
2163.92	23.4626
2164.88	20.0267
2165.83	24.1873
2166.78	22.2149
2167.74	23.5653
2168.69	21.1106
2169.65	22.1664
2170.6	24.7324
2171.56	24.2972
2172.51	23.8471
2173.46	24.129
2174.42	23.6869
2175.37	22.3504
2176.32	22.968
2177.28	25.9537
2178.23	20.9875
2179.18	20.9516
2180.13	22.3994
2181.08	23.8034
2182.04	23.3999
2182.99	23.0599
2183.94	24.7628
2184.89	22.02
2185.84	22.1165
2186.8	20.7257
2187.75	23.2031
2188.7	25.0096
2189.65	20.9066
2190.6	22.4149
2191.55	21.0402
2192.5	25.2211
2193.45	22.1725
2194.4	22.7113
2195.35	23.0777
2196.3	23.3609
2197.25	23.7117
2198.2	22.25
2199.15	23.857
2200.1	24.9883
2201.05	21.9528
2202	24.7196
2202.95	23.1858
2203.9	21.4855
2204.85	19.1432
2205.79	20.8085
2206.74	25.1494
2207.69	23.2997
2208.64	19.8331
2209.59	20.921
2210.53	23.3312
2211.48	22.9442
2212.43	22.2136
2213.38	21.1552
2214.32	21.3665
2215.27	23.7805
2216.22	20.9992
2217.17	23.3597
2218.11	22.8581
2219.06	22.5854
2220.01	22.0247
2220.95	24.7541
2221.9	23.1033
2222.84	23.5175
2223.79	26.5541
2224.73	25.8202
2225.68	21.592
2226.63	25.4868
2227.57	23.7512
2228.52	23.4248
2229.46	21.2476
2230.41	22.2066
2231.35	22.5922
2232.3	21.8447
2233.24	23.1027
2234.18	23.0047
2235.13	23
2236.07	24.5526
2237.02	23.5924
2237.96	23.0485
2238.9	24.103
2239.85	21.11
2240.08	20
2241.03	21
2241.97	24.5
2242.92	25
2243.87	24
2244.82	24.5
2245.76	20.5
2246.71	22
2247.66	22
2248.61	23.5
2249.55	23
2250.5	25.5
2251.45	20.5
2252.39	23
2253.34	21
2254.29	26
2255.23	21
2256.18	22
2257.12	23
2258.07	21.5
2259.01	25
2259.96	23
2260.9	24.5
2261.85	20.5
2262.79	23
2263.74	22.5
2264.68	21
2265.63	24.5
2266.57	27
2267.52	21.5
2268.46	23.5
2269.41	22
2270.35	23
2271.29	22.5
2272.24	24
2273.18	22
2274.12	23.5
2275.07	21
2276.01	22.5
2276.95	23.5
2277.89	23.5
2278.84	22
2279.78	24.5
2280.72	21
2281.66	19.5
2282.6	22.5
2283.55	22
2284.49	20.5
2285.43	24.5
2286.37	23
2287.31	25.5
2288.25	19
2289.2	23.5
2290.14	20
2291.08	21.5
2292.02	22
2292.96	20
2293.9	24
2294.84	24.5
2295.78	24
2296.72	23.5
2297.66	19
2298.6	23
2299.54	24
2300.48	21.5
2301.42	24
2302.35	23.5
2303.29	24.5
2304.23	22
2305.17	25.5
2306.11	22
2307.05	23.5
2307.99	21
2308.92	21
2309.86	23.5
2310.8	21.5
2311.74	26
2312.67	24.5
2313.61	22
2314.55	23.5
2315.49	24
2316.42	20.5
2317.36	16.5
2318.3	21
2319.23	20
2320.17	20
2321.1	21.5
2322.04	22.5
2322.98	22
2323.91	26.5
2324.85	24
2325.78	21.5
2326.72	23
2327.66	23.5
2328.59	26
2329.52	25
2330.46	21
2331.39	24.5
2332.33	20
2333.26	24.5
2334.2	20
2335.13	23.5
2336.07	23
2337	23
2337.93	23
2338.87	23
2339.8	26
2340.73	23.5
2341.67	24.5
2342.6	25
2343.53	23.5
2344.46	20.5
2345.4	26
2346.33	23
2347.26	23.5
2348.19	26
2349.13	25.5
2350.06	21
2350.99	24.5
2351.92	21
2352.85	25.5
2353.79	23
2354.72	25
2355.65	19
2356.58	23
2357.51	21.5
2358.44	26.5
2359.37	23
2360.3	25.5
2361.23	23.5
2362.16	22
2363.09	23
2364.02	23.5
2364.95	25
2365.88	22.5
2366.81	23
2367.74	24.5
2368.67	27.5
2369.6	25
2370.53	24
2371.45	22.5
2372.38	26
2373.31	22
2374.24	22
2375.17	26
2376.1	24
2377.02	25.5
2377.95	25.5
2378.88	19
2379.81	19
2380.73	27
2381.66	27
2382.59	23.5
2383.52	22
2384.44	23.5
2385.37	21
2386.3	28
2387.22	19.5
2388.15	21
2389.07	23
2390	22.5
2390.93	21.5
2391.85	24.5
2392.78	22
2393.7	24
2394.63	24
2395.55	20.5
2396.48	21
2397.4	23.5
2398.33	21.5
2399.25	19
2400.18	29
2401.1	26
2402.03	23
2402.95	21
2403.87	22
2404.8	27.5
2405.72	24.5
2406.64	23.5
2407.57	24
2408.49	28
2409.41	25.5
2410.34	22.5
2411.26	23.5
2412.18	21.5
2413.1	23.5
2414.03	29
2414.95	24
2415.87	23.5
2416.79	27
2417.72	26
2418.64	24
2419.56	23
2420.48	22.5
2421.4	22
2422.32	20
2423.24	26.5
2424.16	22
2425.09	24.5
2426.01	23
2426.93	23
2427.85	22
2428.77	24.5
2429.69	21.5
2430.61	23.5
2431.53	24.5
2432.45	24.5
2433.37	24
2434.29	20.5
2435.21	18.5
2436.12	27
2437.04	23.5
2437.96	24.5
2438.88	23.5
2439.8	27
2440.72	24.5
2441.64	20.5
2442.55	23
2443.47	22
2444.39	25
2445.31	27
2446.23	23.5
2447.14	25.5
2448.06	23.5
2448.98	24
2449.9	23.5
2450.81	26
2451.73	21
2452.65	25
2453.56	22.5
2454.48	22.5
2455.39	24.5
2456.31	28.5
2457.23	23
2458.14	25
2459.06	27
2459.97	22.5
2460.89	26.5
2461.8	20.5
2462.72	27.5
2463.64	22.5
2464.55	23.5
2465.47	24
2466.38	22
2467.29	21
2468.21	24
2469.12	26.5
2470.04	23.5
2470.95	24
2471.86	21
2472.78	22
2473.69	23
2474.61	25.5
2475.52	25
2476.43	26.5
2477.35	26.5
2478.26	27
2479.17	26
2480.08	23
2481	24
2481.91	20
2482.82	21
2483.73	25
2484.64	25.5
2485.56	20.5
2486.47	25
2487.38	26.5
2488.29	24
2489.2	19.5
2490.11	24.5
2491.03	26
2491.94	24.5
2492.85	23.5
2493.76	27
2494.67	23
2495.58	28
2496.49	26
2497.4	26.5
2498.31	24
2499.22	26
2500.13	21
2501.04	26.5
2501.95	23.5
2502.86	23.5
2503.77	24
2504.67	23.5
2505.58	26.5
2506.49	27.5
2507.4	23.5
2508.31	26
2509.22	23
2510.13	26.5
2511.03	26.5
2511.94	25
2512.85	25
2513.76	25
2514.66	21
2515.57	26
2516.48	23
2517.39	27
2518.29	24.5
2519.2	24
2520.11	26.5
2521.01	25.5
2521.92	25.5
2522.83	25.5
2523.73	26.5
2524.64	24.5
2525.54	23
2526.45	23
2527.36	27
2528.26	24
2529.17	24
2530.07	24
2530.98	24.5
2531.88	24
2532.79	25.5
2533.69	25.5
2534.6	24
2535.5	24.5
2536.41	23.5
2537.31	25
2538.21	21
2539.12	26
2540.02	26.5
2540.93	22.5
2541.83	23.5
2542.73	25.5
2543.64	21.5
2544.54	26
2545.44	26.5
2546.34	24
2547.25	23
2548.15	23
2549.05	25
2549.96	24
2550.86	24.5
2551.76	23.5
2552.66	23.5
2553.56	23.5
2554.46	21
2555.37	25.5
2556.27	22
2557.17	23.5
2558.07	24
2558.97	24.5
2559.87	23.5
2560.77	27
2561.67	24
2562.57	23
2563.47	21
2564.37	25
2565.27	27
2566.17	21
2567.07	25.5
2567.97	26.5
2568.87	23
2569.77	25.5
2570.67	29
2571.57	24.5
2572.47	24
2573.37	25
2574.27	24.5
2575.17	25.5
2576.06	21
2576.96	26.5
2577.86	21
2578.76	24
2579.66	22.5
2580.56	27
2581.45	25
2582.35	22
2583.25	27.5
2584.15	22.5
2585.04	24
2585.94	22
2586.84	25.5
2587.73	26
2588.63	24
2589.53	22
2590.42	22
2591.32	23
2592.22	26
2593.11	19.5
2594.01	24
2594.9	23
2595.8	27
2596.69	24
2597.59	24
2598.48	26.5
2599.38	26.5
2600.28	23.5
2601.17	26
2602.06	26
2602.96	25.5
2603.85	23
2604.75	29.5
2605.64	25
2606.54	27.5
2607.43	28
2608.32	27.5
2609.22	24
2610.11	22.5
2611	28
2611.9	25.5
2612.79	22
2613.68	24.5
2614.58	23
2615.47	25.5
2616.36	24
2617.25	22
2618.15	29
2619.04	26.5
2619.93	21
2620.82	22
2621.71	24
2622.61	26.5
2623.5	27
2624.39	20
2625.28	27
2626.17	27
2627.06	25
2627.95	28.5
2628.84	24.5
2629.74	25
2630.63	23
2631.52	22.5
2632.41	29
2633.3	27
2634.19	25
2635.08	23.5
2635.97	23
2636.85	25.5
2637.74	23
2638.63	29
2639.52	23.5
2640.41	25.5
2641.3	28
2642.19	19
2643.08	28
2643.97	24
2644.86	26.5
2645.74	24
2646.63	25
2647.52	23.5
2648.41	23
2649.3	23
2650.18	23
2651.07	26
2651.96	22
2652.85	24.5
2653.73	26.5
2654.62	23.5
2655.51	26
2656.39	23
2657.28	26.5
2658.17	27
2659.05	25
2659.94	23.5
2660.83	27.5
2661.71	28.5
2662.6	25.5
2663.48	25
2664.37	23.5
2665.25	24
2666.14	26
2667.02	24.5
2667.91	26
2668.79	23.5
2669.68	24
2670.56	24
2671.45	20
2672.33	25
2673.22	23
2674.1	24.5
2674.98	22.5
2675.87	27.5
2676.75	25
2677.64	21.5
2678.52	25
2679.4	25.5
2680.29	27
2681.17	29
2682.05	27.5
2682.94	26
2683.82	21
2684.7	20.5
2685.58	23.5
2686.47	21.5
2687.35	24
2688.23	22.5
2689.11	25
2689.99	24
2690.88	24
2691.76	26
2692.64	24.5
2693.52	23.5
2694.4	24
2695.28	25
2696.16	25
2697.04	23
2697.92	26
2698.8	26
2699.69	28
2700.57	23
2701.45	22.5
2702.33	21
2703.21	25.5
2704.09	26
2704.97	26
2705.84	24.5
2706.72	25
2707.6	24.5
2708.48	24
2709.36	20
2710.24	21
2711.12	26
2712	24.5
2712.88	20.5
2713.75	24.5
2714.63	21.5
2715.51	22.5
2716.39	22.5
2717.27	27.5
2718.14	24.5
2719.02	26
2719.9	22.5
2720.78	23
2721.65	24
2722.53	24.5
2723.41	22.5
2724.28	24
2725.16	22
2726.04	22
2726.92	22
2727.79	27
2728.67	25
2729.54	19
2730.42	25
2731.3	27
2732.17	23.5
2733.05	26
2733.92	27
2734.8	27
2735.67	25
2736.55	25
2737.42	23
2738.3	25.5
2739.17	22
2740.05	24
2740.92	27
2741.79	27
2742.67	23.5
2743.54	25
2744.42	22
2745.29	28
2746.16	23
2747.04	24.5
2747.91	23
2748.78	26.5
2749.66	27.5
2750.53	23.5
2751.4	22.5
2752.28	24.5
2753.15	24
2754.02	24.5
2754.89	22
2755.77	24
2756.64	27
2757.51	24
2758.38	26
2759.25	24.5
2760.13	23
2761	25
2761.87	21.5
2762.74	23.5
2763.61	26
2764.48	22
2765.35	24.5
2766.22	25.5
2767.09	24
2767.96	20
2768.83	18
2769.71	26.5
2770.57	20.5
2771.44	23.5
2772.32	23
2773.18	22
2774.05	24
2774.92	24.5
2775.79	23
2776.66	24.5
2777.53	23.5
2778.4	25.5
2779.27	25
2780.14	26.5
2781.01	24.5
2781.87	26.5
2782.74	28
2783.61	27
2784.48	26
2785.35	24.5
2786.21	24.5
2787.08	21.5
2787.95	24
2788.82	27
2789.69	21.5
2790.55	26.5
2791.42	27
2792.29	26
2793.15	24.5
2794.02	25.5
2794.89	26
2795.75	25
2796.62	24.5
2797.49	28
2798.35	25.5
2799.22	28.5
2800.08	22.5
2800.95	23.5
2801.81	23.5
2802.68	27
2803.55	24.5
2804.41	27.5
2805.28	28
2806.14	28
2807	29
2807.87	24.5
2808.73	25
2809.6	28.5
2810.46	28
2811.33	27.5
2812.19	26
2813.06	25.5
2813.92	25.5
2814.78	25
2815.65	27.5
2816.51	23.5
2817.37	27
2818.24	26.5
2819.1	26.5
2819.96	25.5
2820.83	26.5
2821.69	28
2822.55	23.5
2823.41	25
2824.28	26.5
2825.14	24.5
2826	24
2826.86	28.5
2827.72	24.5
2828.58	24.5
2829.45	27
2830.31	31.5
2831.17	25
2832.03	26.5
2832.89	27
2833.75	24.5
2834.61	24.5
2835.47	28
2836.33	25.5
2837.2	28
2838.05	28.5
2838.92	28
2839.78	26.5
2840.64	25
2841.49	24
2842.35	25.5
2843.21	26.5
2844.07	22.5
2844.93	28.5
2845.79	29
2846.65	28
2847.51	24
2848.37	27
2849.23	28
2850.09	23
2850.94	27.5
2851.8	28.5
2852.66	24.5
2853.52	29
2854.38	22.5
2855.23	28.5
2856.09	25.5
2856.95	27
2857.81	23.5
2858.67	25
2859.52	27.5
2860.38	27.5
2861.24	28.5
2862.09	27
2862.95	24
2863.81	25
2864.66	26
2865.52	26.5
2866.38	23
2867.23	27
2868.09	29.5
2868.94	30
2869.8	28
2870.65	32
2871.51	27
2872.37	26.5
2873.22	27
2874.08	28.5
2874.93	27
2875.79	30.5
2876.64	31
2877.49	30
2878.35	32
2879.2	32.5
2880.06	35.5
2880.91	32.5
2881.77	32
2882.62	31
2883.47	34
2884.33	31.5
2885.18	33.5
2886.03	40.5
2886.89	33.5
2887.74	33.5
2888.59	36
2889.45	34
2890.3	39
2891.15	39
2892	42.5
2892.86	43.5
2893.71	42
2894.56	41
2895.41	49
2896.27	48
2897.12	52
2897.97	51.5
2898.82	55
2899.67	60
2900.52	60
2901.37	66
2902.23	63
2903.08	67
2903.93	75
2904.78	73
2905.63	69.5
2906.48	71
2907.33	73
2908.18	70.5
2909.03	67.5
2909.88	65
2910.73	65
2911.58	67
2912.43	58
2913.28	50
2914.13	50
2914.98	45.5
2915.83	46.5
2916.67	41.5
2917.52	41
2918.37	37
2919.22	37
2920.07	39.5
2920.92	35.5
2921.77	39.5
2922.61	37
2923.46	34
2924.31	31.5
2925.16	38.5
2926	29
2926.85	37
2927.7	27
2928.55	28.5
2929.39	32.5
2930.24	27
2931.09	29
2931.94	31
2932.78	28
2933.63	30
2934.47	29.5
2935.32	28.5
2936.17	27
2937.01	31
2937.86	29
2938.7	29.5
2939.55	31.5
2940.4	32
2941.24	32
2942.09	25.5
2942.93	28
2943.78	29
2944.62	27
2945.47	30.5
2946.31	26
2947.16	28.5
2948	31
2948.84	33
2949.69	27
2950.53	30
2951.38	32
2952.22	32.5
2953.06	30.5
2953.91	27
2954.75	35
2955.59	34.5
2956.44	33.5
2957.28	37
2958.12	36
2958.97	40
2959.81	42.5
2960.65	41.5
2961.5	44
2962.34	45
2963.18	43.5
2964.02	48
2964.86	46
2965.71	44.5
2966.55	43.5
2967.39	46
2968.23	45
2969.07	38
2969.91	42.5
2970.75	39.5
2971.6	39.0097
2972.44	38.396
2973.28	34.9462
2974.12	37.9688
2974.96	35.4297
2975.8	34.5184
2976.64	30.0345
2977.48	31.3908
2978.32	36.8447
2979.16	30.8617
2980	29.4556
2980.84	28.1692
2981.68	29.1104
2982.52	27.8594
2983.36	27.239
2984.2	29.3612
2985.04	26.5514
2985.88	27.613
2986.71	23.9521
2987.55	21.9298
2988.39	28.227
2989.23	24.2106
2990.07	29.2771
2990.91	26.0898
2991.75	27.478
2992.58	23.5106
2993.42	25.3478
2994.26	25.1502
2995.1	24.7005
2995.93	24.1762
2996.77	25.6814
2997.61	25.1222
2998.45	24.7184
2999.28	23.9465
3000.12	21.7624
3000.96	22.2125
3001.79	22.3419
3002.63	23.182
3003.47	23.0953
3004.3	24.1911
3005.14	23.3796
3005.98	22.1044
3006.81	22.719
3007.65	24.3622
3008.48	24.1179
3009.32	25.326
3010.15	25.1859
3010.99	21.6917
3011.82	24.2447
3012.66	22.6992
3013.5	23.1582
3014.33	23.7604
3015.17	23.23
3016	22.9997
3016.83	22
3017.67	23.9537
3018.5	24.0655
3019.34	22.5564
3020.17	21.5182
3021.01	23.4512
3021.84	22.8462
3022.67	22.1072
3023.51	21.2532
3024.34	23.5558
3025.17	22.1958
3026.01	21.2055
3026.84	23.6605
3027.67	24.6816
3028.51	25.665
3029.34	24.4382
3030.17	21.7958
3031	20.6271
3031.84	22.3454
3032.67	22.5947
3033.5	23.8948
3034.33	22.25
3035.17	21.0291
3036	22.7924
3036.83	24.7777
3037.66	22.5083
3038.49	21.4862
3039.32	23.1389
3040.15	25.9238
3040.99	23.0647
3041.82	21.5779
3042.65	20.5359
3043.48	20.1635
3044.31	20.5984
3045.14	19.9684
3045.97	19.3742
3046.8	20.1953
3047.63	24.5272
3048.46	22.0796
3049.29	20.9883
3050.12	24.8102
3050.95	24.4849
3051.78	21.8227
3052.61	21.8583
3053.44	23.6896
3054.27	23.7771
3055.1	23.7003
3055.92	24.7062
3056.75	24.3037
3057.27	21.5
3058.11	20.5
3058.94	23
3059.77	24
3060.61	25
3061.44	23
3062.27	23
3063.11	21.5
3063.94	22.5
3064.77	22.5
3065.6	24.5
3066.43	24.5
3067.27	22.5
3068.1	21
3068.93	25.5
3069.76	22
3070.59	22
3071.42	21.5
3072.26	23.5
3073.09	21.5
3073.92	20
3074.75	26
3075.58	24.5
3076.41	19
3077.24	25.5
3078.07	21.5
3078.9	22
3079.73	22.5
3080.56	25
3081.39	25
3082.22	28
3083.05	20.5
3083.88	25
3084.71	25
3085.54	20
3086.37	24.5
3087.2	23
3088.03	20.5
3088.86	21
3089.69	26.5
3090.51	23
3091.34	25.5
3092.17	23.5
3093	25
3093.83	22
3094.66	28
3095.48	21
3096.31	22.5
3097.14	21
3097.97	22.5
3098.79	21
3099.62	20
3100.45	20
3101.28	21
3102.1	23
3102.93	19
3103.76	24.5
3104.58	24.5
3105.41	25
3106.24	25
3107.06	19.5
3107.89	18.5
3108.72	26
3109.54	23.5
3110.37	24.5
3111.19	24
3112.02	23
3112.84	25.5
3113.67	27
3114.49	22.5
3115.32	24.5
3116.15	24.5
3116.97	23
3117.8	23.5
3118.62	25.5
3119.44	24.5
3120.27	24.5
3121.09	25
3121.92	25.5
3122.74	26
3123.57	22
3124.39	23.5
3125.21	26
3126.04	19.5
3126.86	23.5
3127.68	26
3128.51	26
3129.33	22.5
3130.15	23
3130.98	24
3131.8	24.5
3132.62	23.5
3133.44	25
3134.27	25
3135.09	25
3135.91	23
3136.73	23
3137.56	23.5
3138.38	24
3139.2	26
3140.02	24.5
3140.84	20.5
3141.67	21.5
3142.49	20
3143.31	28.5
3144.13	23
3144.95	22
3145.77	21
3146.59	23
3147.41	25
3148.23	24.5
3149.05	24
3149.87	20
3150.69	25.5
3151.51	25
3152.33	21
3153.15	24
3153.97	24
3154.79	24.5
3155.61	26.5
3156.43	26.5
3157.25	24.5
3158.07	23
3158.89	25.5
3159.71	23
3160.53	26
3161.35	23.5
3162.17	24.5
3162.98	24.5
3163.8	24
3164.62	24.5
3165.44	22
3166.26	23.5
3167.07	20.5
3167.89	22
3168.71	25.5
3169.53	23.5
3170.35	24.5
3171.16	24.5
3171.98	22
3172.8	23.5
3173.61	23
3174.43	23
3175.25	25
3176.06	21.5
3176.88	25
3177.7	21.5
3178.51	25
3179.33	26
3180.15	25.5
3180.96	23
3181.78	27.5
3182.59	24.5
3183.41	22.5
3184.22	28
3185.04	21
3185.85	22.5
3186.67	26
3187.49	23.5
3188.3	18.5
3189.12	24
3189.93	23.5
3190.74	21
3191.56	21
3192.37	23
3193.19	22.5
3194	24
3194.82	24.5
3195.63	24
3196.44	20
3197.26	26.5
3198.07	26.5
3198.88	23
3199.7	20
3200.51	22.5
3201.32	26.5
3202.14	26
3202.95	26.5
3203.76	16
3204.58	23.5
3205.39	20.5
3206.2	27
3207.01	18.5
3207.83	24
3208.64	25
3209.45	21
3210.26	22.5
3211.07	24
3211.88	25.5
3212.7	25
3213.51	20.5
3214.32	21
3215.13	26
3215.94	26.5
3216.75	24.5
3217.56	28.5
3218.37	24.5
3219.18	22
3220	24
3220.8	23
3221.62	22.5
3222.43	20
3223.24	24
3224.05	24.5
3224.86	23.5
3225.67	24
3226.47	21.5
3227.28	21
3228.09	24
3228.9	26.5
3229.71	22
3230.52	21
3231.33	25.5
3232.14	22
3232.95	21.5
3233.76	22
3234.56	25
3235.37	24.5
3236.18	24
3236.99	25.5
3237.8	21
3238.61	20.5
3239.41	23.5
3240.22	22
3241.03	21
3241.84	23
3242.64	24
3243.45	25
3244.26	21
3245.07	25
3245.87	22
3246.68	22.5
3247.49	23.5
3248.29	24.5
3249.1	26
3249.9	20.5
3250.71	20
3251.52	20.5
3252.32	23
3253.13	22
3253.93	24.5
3254.74	26
3255.55	24.5
3256.35	23
3257.16	24.5
3257.96	24
3258.77	24.5
3259.57	25.5
3260.38	26
3261.18	23
3261.99	22
3262.79	26
3263.6	23
3264.4	23
3265.2	28.5
3266.01	23.5
3266.81	22
3267.62	24
3268.42	21
3269.22	25.5
3270.03	21.5
3270.83	25
3271.63	21.5
3272.44	25
3273.24	22
3274.04	28
3274.85	24
3275.65	19.5
3276.45	24.5
3277.25	26
3278.06	22
3278.86	24
3279.66	24
3280.46	22
3281.26	24.5
3282.07	24
3282.87	26.5
3283.67	21
3284.47	22
3285.27	28
3286.07	22.5
3286.87	24
3287.68	25
3288.48	24.5
3289.28	23
3290.08	23.5
3290.88	20.5
3291.68	22
3292.48	26
3293.28	20.5
3294.08	22.5
3294.88	25
3295.68	22.5
3296.48	22
3297.28	26
3298.08	24
3298.88	21.5
3299.68	22
3300.48	20.5
3301.28	20
3302.08	22
3302.88	23
3303.67	23.5
3304.47	21.5
3305.27	23.5
3306.07	22
3306.87	24.5
3307.67	24.5
3308.46	22.5
3309.26	24
3310.06	22.5
3310.86	19
3311.66	23.5
3312.45	26.5
3313.25	24.5
3314.05	23.5
3314.85	23
3315.64	22
3316.44	26.5
3317.24	23.5
3318.03	23
3318.83	23.5
3319.63	26.5
3320.42	22
3321.22	21.5
3322.02	28
3322.81	23.5
3323.61	21
3324.4	20
3325.2	24
3326	22.5
3326.79	29
3327.59	25
3328.38	23.5
3329.18	23
3329.97	25
3330.77	23
3331.56	27.5
3332.36	22
3333.15	24.5
3333.95	23
3334.74	24
3335.54	23.5
3336.33	24
3337.13	22
3337.92	21
3338.71	23
3339.51	25.5
3340.3	23
3341.1	27.5
3341.89	22.5
3342.68	26
3343.48	22.5
3344.27	20
3345.06	24
3345.85	20
3346.65	21
3347.44	26.5
3348.23	25.5
3349.03	28
3349.82	22.5
3350.61	26
3351.4	21.5
3352.19	27.5
3352.99	21.5
3353.78	23.5
3354.57	26.5
3355.36	24
3356.15	26
3356.94	26
3357.74	21.5
3358.53	21.5
3359.32	22.5
3360.11	26
3360.9	25
3361.69	24.5
3362.48	27.5
3363.27	23
3364.06	26.5
3364.85	23
3365.64	25.5
3366.43	26.5
3367.22	24
3368.01	25
3368.8	24
3369.59	22
3370.38	22
3371.17	21.5
3371.96	26
3372.75	25.5
3373.54	26
3374.33	23.5
3375.12	24
3375.91	25
3376.69	24
3377.48	25.5
3378.27	22
3379.06	23
3379.85	25
3380.64	23
3381.42	22
3382.21	24.5
3383	23
3383.79	22
3384.58	24.5
3385.36	23
3386.15	25
3386.94	22
3387.73	22
3388.51	25
3389.3	26
3390.09	25.5
3390.87	22
3391.66	24
3392.45	20.5
3393.23	24.5
3394.02	21.5
3394.81	24.5
3395.59	24
3396.38	23.5
3397.16	21
3397.95	22
3398.74	26.5
3399.52	20.5
3400.31	26
3401.09	24
3401.88	26
3402.66	24
3403.45	22.5
3404.23	24.5
3405.02	22.5
3405.8	23
3406.59	24.5
3407.37	26.5
3408.15	26
3408.94	20.5
3409.72	24.5
3410.51	24
3411.29	26
3412.07	28
3412.86	23
3413.64	24
3414.42	23.5
3415.21	27
3415.99	23.5
3416.78	22
3417.56	23.5
3418.34	22.5
3419.12	22.5
3419.91	25
3420.69	25
3421.47	23.5
3422.25	24
3423.04	25
3423.82	24.5
3424.6	27
3425.38	24
3426.16	19
3426.95	24.5
3427.73	22.5
3428.51	23.5
3429.29	19
3430.07	25
3430.85	27.5
3431.63	25
3432.42	23
3433.2	25
3433.98	21
3434.76	28
3435.54	24
3436.32	21.5
3437.1	27
3437.88	26
3438.66	21.5
3439.44	22
3440.22	26.5
3441	26.5
3441.78	26
3442.56	23.5
3443.34	24.5
3444.12	24.5
3444.9	20
3445.68	24.5
3446.45	25
3447.23	23
3448.01	23
3448.79	25.5
3449.57	25
3450.35	24
3451.13	18.5
3451.91	21
3452.68	22.5
3453.46	23.5
3454.24	23.5
3455.02	21
3455.79	23
3456.57	27
3457.35	21
3458.13	26.5
3458.91	18
3459.68	24
3460.46	27
3461.24	25
3462.01	22.5
3462.79	23
3463.57	23.5
3464.34	24.5
3465.12	20
3465.9	24.5
3466.67	27
3467.45	24.5
3468.22	24
3469	19
3469.78	20.5
3470.55	24.5
3471.33	26
3472.1	19.5
3472.88	24
3473.65	22.5
3474.43	20.5
3475.2	23
3475.98	21.5
3476.75	24.5
3477.53	23
3478.3	21
3479.08	31
3479.85	21
3480.63	25.5
3481.4	23.5
3482.18	25
3482.95	24
3483.72	22
3484.5	25
3485.27	27
3486.04	22
3486.82	27
3487.59	22.5
3488.36	23.5
3489.14	21.5
3489.91	24.5
3490.68	26
3491.46	23
3492.23	23.5
3493	21
3493.77	25.5
3494.55	24
3495.32	22.5
3496.09	23.5
3496.86	22
3497.64	22
3498.41	23.5
3499.18	22
3499.95	23
