#Acq. time (s)=	5
#Accumulations=	5
#Range (cm-¹)=	100...3500
#Windows=	4
#Autofocus=	Off
#AutoExposure=	Off
#Spike filter=	Multiple accum.
#Delay time (s)=	0
#Binning=	1
#Readout mode=	Signal
#DeNoise=	Off
#ICS correction=	Off
#Dark correction=	Off
#Inst. Process=	Off
#Instrument=	LabRAM HR Evol
#Detector=	Syncerity OE
#Objective=	x100_VIS
#Grating=	600 (500nm)
#ND Filter=	25%
#Laser=	633nm_Edge
#Hole=	100.021
#Range=	Visible
#Project=	verificaciones
#Sample=	a2
#Site=	plain
#Title=	bolusa2plain
#Remark=	com
#Date=	16.01.2026 14:19
#Acquired=	16.01.2026 14:19:02
100.687	31
101.971	30.5
103.254	33.5
104.537	37
105.82	33.5
107.103	33.5
108.387	32.5
109.669	36
110.951	31
112.233	31.5
113.514	34.5
114.796	34.5
116.077	33.5
117.358	29.5
118.639	32.5
119.919	33
121.2	33.5
122.48	33
123.76	31.5
125.039	33
126.319	36
127.598	33
128.877	32
130.156	40
131.435	33
132.713	34
133.992	41
135.268	35.5
136.546	34
137.824	37
139.101	38.5
140.378	35.5
141.655	40.5
142.932	42.5
144.209	39
145.485	40.5
146.76	44
148.036	39
149.312	40
150.587	45
151.862	38.5
153.138	47
154.411	40.5
155.686	45
156.96	42.5
158.235	38
159.509	44
160.781	41.5
162.055	42.5
163.328	42.5
164.602	37
165.873	38
167.146	44.5
168.419	42.5
169.691	41.5
170.962	42
172.234	44
173.506	43.5
174.777	36.5
176.047	41.5
177.318	44
178.589	48.5
179.859	43
181.129	40
182.4	47.5
183.668	39.5
184.938	40
186.207	45.5
187.476	43.5
188.746	43.5
190.013	47
191.282	43
192.551	45
193.818	45
195.086	39
196.353	40
197.621	45
198.887	43
200.154	41
201.422	37
202.687	40
203.954	39
205.219	39.5
206.486	36
207.751	35
209.017	35
210.281	38
211.547	38.5
212.811	35.5
214.076	38
215.339	34
216.603	37
217.867	35.5
219.13	31
220.395	40.5
221.657	37
222.921	37
224.183	36
225.445	33.5
226.708	30.5
227.97	33.5
229.232	32.5
230.493	31
231.754	28
233.016	32
234.277	32
235.537	33
236.799	38.5
238.059	27.5
239.318	34
240.579	30.5
241.839	34
243.098	33
244.358	29
245.617	29.5
246.875	29.5
248.133	28.5
249.393	32
250.651	29
251.908	35
253.166	30.5
254.424	27
255.681	32
256.938	30
258.195	32
259.451	32
260.709	31
261.965	27
263.221	30.5
264.476	29.5
265.732	31.5
266.988	33.5
268.243	32
269.498	30
270.753	30.5
272.007	29.5
273.261	28
274.515	27.5
275.769	34
277.022	28.5
278.277	29.5
279.53	29
280.783	27.5
282.036	28.5
283.289	31.5
284.541	27.5
285.793	29.5
287.045	26
288.297	27
289.548	29.5
290.8	31
292.051	28
293.302	29
294.552	27.5
295.803	26
297.053	29
298.303	32.5
299.553	26
300.803	28.5
302.053	24.5
303.302	29.5
304.551	29.5
305.8	28.5
307.047	30
308.296	30.5
309.544	31.5
310.792	29.5
312.04	30
313.288	28
314.535	30
315.783	30
317.03	32
318.275	31
319.522	31
320.768	30
322.015	29.5
323.261	33
324.505	30.5
325.751	29
326.997	34.5
328.242	27.5
329.487	32
330.73	32.5
331.975	28
333.22	31.5
334.464	31.5
335.707	32
336.95	31
338.194	28
339.438	32
340.68	31.5
341.923	27.5
343.166	32.5
344.407	32.5
345.649	31
346.892	34.5
348.132	28.5
349.374	28.5
350.616	26.5
351.856	27.5
353.097	31
354.337	32.5
355.578	26
356.818	28.5
358.058	27.5
359.298	30
360.536	30.5
361.776	30
363.016	31
364.254	25.5
365.493	31
366.731	30
367.97	29.5
369.207	22
370.446	30.5
371.683	29
372.921	26.5
374.157	31
375.395	31
376.631	23.5
377.868	28
379.104	33
380.341	32.5
381.576	26
382.813	28
384.048	32
385.284	33
386.518	29.5
387.753	30.5
388.988	29
390.222	29.5
391.457	26.5
392.691	27
393.924	29.5
395.159	28.5
396.392	27.5
397.624	29
398.858	29
400.091	30
401.323	31
402.556	30.5
403.788	33.5
405.019	28.5
406.252	27
407.483	27.5
408.714	28.5
409.945	28
411.177	28
412.407	25.5
413.637	29
414.867	29
416.099	26.5
417.328	30.5
418.558	28.5
419.787	29
421.016	31
422.246	31
423.475	31.5
424.703	30
425.931	28
427.159	27
428.388	30
429.616	29
430.843	28
432.071	29.5
433.298	30.5
434.524	31
435.751	28
436.977	31
438.204	30
439.431	31
440.657	30
441.883	26
443.108	34
444.333	29
445.558	29.5
446.783	27.5
448.008	28
449.232	32
450.457	30
451.681	30
452.905	29
454.128	28
455.352	34
456.575	33.5
457.798	32
459.021	32.5
460.244	27.5
461.466	31
462.689	27
463.909	30
465.131	34.5
466.353	32.5
467.575	30
468.796	35.5
470.017	36.5
471.238	36
472.459	36
473.679	38.5
474.898	40
476.118	39
477.338	46
478.558	45.5
479.778	49
480.997	52
482.215	53
483.434	63.5
484.653	57.5
485.871	62
487.09	60
488.307	66.5
489.525	66
490.743	62
491.96	57
493.176	55.5
494.394	59.5
495.611	58
496.826	50.5
498.043	52
499.259	52.5
500.474	49.5
501.69	53
502.906	42.5
504.121	44
505.336	38
506.551	42
507.765	36
508.98	39.5
510.195	38.5
511.408	40.5
512.622	39.5
513.835	30.5
515.049	36
516.263	32.5
517.475	35.5
518.689	34
519.9	33.5
521.113	32.5
522.325	31
523.537	32.5
524.748	36
525.961	34
527.171	36
528.383	29
529.594	28.5
530.805	32
532.015	33
533.226	28
534.435	31
535.646	29.5
536.855	32.5
538.066	34
539.274	30
540.483	29
541.693	30.5
542.901	32
544.11	33
545.318	32.5
546.526	32
547.734	32
548.942	33.5
550.149	29
551.357	30
552.563	31.5
553.77	32.5
554.978	28
556.184	28
557.389	28
558.596	28
559.802	28
561.007	34
562.212	32
563.419	30
564.623	28.5
565.828	29
567.032	28
568.238	28
569.442	28.5
570.646	30.5
571.849	26
573.054	29
574.257	29.5
575.46	26.5
576.663	28.5
577.866	25.5
579.068	23.5
580.272	29
581.474	27
582.676	31
583.877	30.5
585.079	30
586.28	27.5
587.481	27
588.682	34
589.883	25.5
591.083	28
592.285	25.5
593.485	30.5
594.685	33
595.885	31
597.084	31
598.284	25.5
599.483	35
600.682	27.5
601.881	24
603.08	31
604.278	29
605.476	28
606.674	30
607.872	29
609.07	28
610.266	31
611.463	28.5
612.661	35
613.857	27
615.054	30.5
616.251	31
617.447	29.5
618.643	30
619.839	31.5
621.035	30.5
622.229	30.5
623.425	32
624.62	27.5
625.815	31
627.01	31
628.205	30.5
629.398	31
630.592	27.5
631.786	28.5
632.98	32
634.172	35
635.366	27.5
636.559	30
637.753	28
638.944	32.5
640.137	37
641.33	29
642.522	27.5
643.713	29.5
644.905	31.5
646.097	27.5
647.287	30
648.478	28
649.67	30
650.859	26.5
652.05	32.5
653.241	31
654.43	32
655.621	30
656.811	33
657.999	29
659.189	29
660.378	31
661.567	35.5
662.755	26
663.944	31
665.133	28
666.32	31.5
667.508	28
668.695	30
669.884	29.5
671.07	30.5
672.258	29
673.444	35
674.631	32
675.817	28
677.004	30.5
678.19	38
679.376	34
680.561	33
681.746	33
682.932	39
684.117	39.5
685.302	32.5
686.487	36
687.672	36
688.856	34.5
690.039	36.5
691.224	38
692.407	42.5
693.59	40
694.774	39.5
695.957	44
697.14	35.5
698.323	40
699.505	38.5
700.687	39.5
701.87	40.5
703.052	45.5
704.233	53.5
705.414	48.5
706.597	51
707.778	55.5
708.958	54.5
710.139	52.5
711.32	48
712.5	43.5
713.68	44.5
714.86	37.5
716.039	36
717.22	32
718.399	30.5
719.578	34.5
720.757	30.5
721.935	29.5
723.114	33.5
724.292	28.5
725.471	32.5
726.649	31
727.827	31
729.004	33
730.182	34
731.359	29
732.536	29
733.712	29.5
734.889	30
736.065	31.5
737.242	32.5
738.418	29
739.593	33
740.769	32.5
741.945	26
743.12	31
744.295	29
745.47	29
746.644	28
747.819	28
748.993	28
750.168	27
751.342	30
752.515	30
753.689	27
754.862	28.5
756.036	30
757.209	35
758.382	29.5
759.553	32
760.725	31.5
761.898	32.5
763.07	29
764.242	27.5
765.414	32
766.584	31
767.755	31
768.927	27
770.098	28
771.269	29
772.438	32
773.608	31.5
774.779	28
775.949	28
777.117	23.5
778.287	33
779.457	27
780.626	31
781.794	29
782.963	32.5
784.132	32.5
785.299	29
786.468	34
787.636	33.5
788.803	30.5
789.971	34
791.139	27.5
792.305	34.5
793.472	34
794.638	36
795.805	30.5
796.972	32.5
798.138	31
799.304	36
800.469	32
801.635	30
802.801	30
803.966	26
805.131	33.5
806.295	26
807.461	26
808.624	31
809.789	30
810.952	24
812.117	30.5
813.28	25
814.444	32
815.607	30
816.769	27.5
817.933	27.5
819.095	28.5
820.258	30
821.42	27.5
822.583	25.5
823.744	31
824.905	29.5
826.068	26
827.228	28
828.389	28
829.551	26
830.711	30
831.871	25.5
833.032	28
834.192	28
835.352	27
836.513	30.5
837.672	29
838.831	26.5
839.99	30.5
841.15	31.5
842.308	27
843.466	25
844.624	29
845.784	29
846.941	28
848.099	27.5
849.256	25
850.414	27
851.572	30
852.729	31
853.886	31.5
855.042	29
856.198	26
857.355	30
858.512	31
859.668	29
860.823	28
861.979	27.5
863.134	34
864.289	33
865.444	32.5
866.599	32
867.753	33
868.908	25
870.062	25.5
871.216	32
872.37	28.5
873.523	26
874.677	31
875.83	28.5
876.983	30
878.136	30
879.289	33.5
880.441	31
881.594	31
882.746	28.5
883.898	26.5
885.05	28.5
886.201	29
887.353	27.5
888.504	24.5
889.655	23
890.806	28
891.956	30
893.107	31
894.257	29
895.407	29
896.557	30.5
897.707	29.5
898.856	27.5
900.005	26.5
901.154	28.5
902.304	27.5
903.453	28
904.6	29.5
905.749	25
906.897	28
908.046	30.5
909.192	26
910.34	29.5
911.488	25.5
912.634	27
913.782	30
914.929	25
916.076	27
917.222	29.5
918.368	24.5
919.515	30
920.66	32
921.806	28.5
922.951	34
924.097	28.5
925.242	28
926.387	30.5
927.532	25.5
928.676	25
929.821	27
930.965	27
932.109	27.5
933.253	26
934.396	26.5
935.54	34
936.683	27.5
937.826	30
938.969	23.5
940.112	31
941.254	27
942.397	27.5
943.538	25.5
944.681	29
945.822	30
946.964	29.5
948.105	30.5
949.246	28.5
950.388	31.5
951.528	26
952.669	26
953.809	25.5
954.949	29.5
956.09	26.5
957.229	26
958.369	28
959.509	27
960.648	30.5
961.786	28
962.926	26
964.065	27
965.203	27
966.342	28
967.48	28
968.618	23
969.755	27
970.894	30
972.031	32
973.168	22
974.305	28
975.441	20
976.579	26
977.715	25.5
978.851	27.5
979.987	29
981.123	26
982.26	32
983.395	26
984.531	28
985.666	26
986.8	22.5
987.935	26
989.07	24.5
990.204	28.5
991.338	26
992.472	31
993.607	29.5
994.741	29
995.874	28.5
997.008	25.5
998.141	27
999.274	25
1000.41	24.5
1001.54	27.5
1002.67	28
1003.8	27.5
1004.94	25.5
1006.07	26.5
1007.2	27.5
1008.33	28
1009.46	31
1010.59	28
1011.72	26
1012.85	28
1013.99	29
1015.12	21
1016.25	27
1017.38	27
1018.51	22
1019.63	28.5
1020.76	26.5
1021.89	26
1023.02	27.5
1024.15	30.5
1025.28	26
1026.41	31
1027.54	28
1028.67	21.5
1029.79	24.5
1030.92	28.5
1032.05	29
1033.18	27
1034.3	23.5
1035.43	25
1036.56	23.5
1037.68	29
1038.81	27
1039.94	31.5
1041.06	26.5
1042.19	25.5
1043.31	28.5
1044.44	29.5
1045.57	27.5
1046.69	24.5
1047.82	29.5
1048.94	25.5
1050.07	29
1051.19	27.5
1052.31	26.5
1053.44	23
1054.56	25.5
1055.69	30
1056.81	24.5
1057.93	27.5
1059.06	30.5
1060.18	26
1061.3	25
1062.42	28
1063.55	26.5
1064.67	26
1065.79	26
1066.91	30
1068.03	22
1069.16	27.5
1070.28	27.5
1071.4	24.5
1072.52	27
1073.64	29.5
1074.76	27
1075.88	22
1077	27.5
1078.12	27.5
1079.24	26.5
1080.36	27
1081.48	25
1082.6	25
1083.72	27
1084.84	23
1085.96	25
1087.08	23.5
1088.2	25.5
1089.31	30
1090.43	25
1091.55	25
1092.67	27.5
1093.78	28
1094.9	26.5
1096.02	25.5
1097.14	25.5
1098.25	23.5
1099.37	23.5
1100.49	24
1101.6	24
1102.72	26
1103.83	31.5
1104.95	21
1106.07	28.5
1107.18	27
1108.3	30
1109.41	23
1110.52	30.5
1111.64	23
1112.75	23.5
1113.87	22.5
1114.98	24.5
1116.1	27
1117.21	26.5
1118.32	24
1119.44	27
1120.55	26
1121.66	27
1122.78	26
1123.89	21
1125	25.5
1126.11	26
1127.23	25
1128.34	28.5
1129.45	24.5
1130.56	30
1131.67	24
1132.78	28
1133.89	27.5
1135	27
1136.12	26
1137.23	25
1138.34	26
1139.45	26
1140.56	26.5
1141.67	23.5
1142.78	27.5
1143.89	25.5
1144.99	30
1146.1	27.5
1147.21	29.5
1148.32	27
1149.43	27
1150.54	21.5
1151.65	27
1152.75	30
1153.86	25
1154.97	23
1156.08	26
1157.18	30.5
1158.29	25
1159.4	22
1160.5	23
1161.61	26
1162.72	27
1163.82	26.5
1164.93	26
1166.03	24
1167.14	24.5
1168.24	29
1169.35	27
1170.45	22
1171.56	27
1172.66	24.5
1173.77	20.5
1174.87	25
1175.98	24
1177.08	24
1178.19	24
1179.29	25.5
1180.39	24.5
1181.5	31.5
1182.6	22.5
1183.7	25.5
1184.8	26.5
1185.91	26.5
1187.01	26
1188.11	24
1189.21	27
1190.32	23
1191.42	24.5
1192.52	26.5
1193.62	21
1194.72	25.4897
1195.82	22.9593
1196.92	24.5406
1198.02	23.2425
1199.12	26.4918
1200.22	24.051
1201.32	26.7216
1202.42	24.3593
1203.52	24.2113
1204.62	23.9389
1205.72	21.2015
1206.82	25.4829
1207.92	25.4147
1209.02	25.1307
1210.12	29.4836
1211.22	24.5449
1212.31	24.3502
1213.41	23.5744
1214.51	23.9529
1215.61	25.8289
1216.71	26.0489
1217.8	25.945
1218.9	23.2263
1220	23.4733
1221.09	23.462
1222.19	25.7341
1223.29	27.7613
1224.38	24.4839
1225.48	26.1997
1226.58	24.3815
1227.67	22.685
1228.77	25.0088
1229.86	23.3881
1230.96	25.4131
1232.05	22.534
1233.15	23.7812
1234.24	20.9953
1235.34	26.2309
1236.43	23.8606
1237.52	26.6846
1238.62	25.2642
1239.71	24.9032
1240.81	23.0602
1241.9	25.6553
1242.99	26.0659
1244.09	21.2601
1245.18	23.0779
1246.27	26.9237
1247.36	26.2926
1248.46	26.7296
1249.55	26.5278
1250.64	24.0486
1251.73	24.9584
1252.82	26.4442
1253.92	24.069
1255.01	27.2126
1256.1	26.5452
1257.19	27.5472
1258.28	24.6573
1259.37	26.5443
1260.46	27.0389
1261.55	25.4736
1262.64	27.5047
1263.73	28.1768
1264.82	24.1005
1265.91	26.7702
1267	27.5247
1268.09	28.2088
1269.18	27.7538
1270.27	26.9879
1271.36	25.4325
1272.45	25.9403
1273.53	24.5949
1274.62	25.56
1275.71	25.2726
1276.8	21.7191
1277.89	24.7004
1278.97	24.3727
1280.06	25.3456
1281.15	21.9981
1282.23	25.6033
1283.32	21.5566
1284.41	21.7197
1285.49	22.3464
1286.58	23.5898
1287.67	24.6695
1288.75	21.7108
1289.84	22.6071
1290.92	23.0951
1292.01	24.8052
1293.09	22.9464
1294.18	25.1001
1295.26	23.511
1296.35	24.1474
1297.43	24.5136
1298.52	23.4545
1299.6	21.6182
1300.69	23.9698
1301.77	24.1058
1302.85	23.2011
1303.94	25.582
1305.02	21.935
1306.1	22.5037
1306.42	23.5
1307.51	28
1308.59	23
1309.68	22.5
1310.77	21
1311.86	27.5
1312.95	28
1314.03	24.5
1315.12	24.5
1316.21	28.5
1317.29	25
1318.38	25
1319.47	22
1320.55	26
1321.64	26.5
1322.72	23
1323.81	25
1324.89	19
1325.98	26.5
1327.07	23.5
1328.15	24
1329.24	23
1330.32	27.5
1331.4	27
1332.49	26.5
1333.57	21
1334.66	26.5
1335.74	25
1336.82	24
1337.91	27.5
1338.99	25.5
1340.07	26
1341.16	26
1342.24	24.5
1343.32	22
1344.4	24
1345.49	21.5
1346.57	24.5
1347.65	23.5
1348.73	25.5
1349.81	22
1350.9	28
1351.98	24.5
1353.06	23.5
1354.14	25
1355.22	29.5
1356.3	24
1357.38	26
1358.46	27
1359.54	24
1360.62	25
1361.7	27.5
1362.78	25.5
1363.86	29
1364.94	25
1366.02	27
1367.1	25
1368.17	25
1369.25	25
1370.33	24
1371.41	27.5
1372.49	29.5
1373.57	24.5
1374.64	23.5
1375.72	26
1376.8	26
1377.87	24.5
1378.95	30
1380.03	25
1381.1	24
1382.18	22.5
1383.26	28.5
1384.33	29
1385.41	26
1386.49	26
1387.56	27
1388.64	27
1389.71	24.5
1390.79	26
1391.86	28.5
1392.94	29
1394.01	26
1395.08	29.5
1396.16	24
1397.23	28.5
1398.31	29
1399.38	26.5
1400.45	28
1401.53	28
1402.6	28.5
1403.67	32
1404.75	25
1405.82	30
1406.89	33
1407.96	25
1409.04	31.5
1410.11	36.5
1411.18	28
1412.25	33
1413.32	35.5
1414.39	33.5
1415.47	35
1416.54	27.5
1417.61	27
1418.68	29
1419.75	26.5
1420.82	27
1421.89	26
1422.96	29
1424.03	29
1425.1	26.5
1426.17	30
1427.24	26
1428.31	30
1429.38	24.5
1430.44	25.5
1431.51	29
1432.58	24
1433.65	31
1434.72	29.5
1435.79	25.5
1436.85	21
1437.92	23
1438.99	24.5
1440.05	27
1441.12	26
1442.19	27
1443.26	26
1444.32	24
1445.39	23.5
1446.46	28.5
1447.52	22.5
1448.59	28.5
1449.65	27
1450.72	28
1451.78	26.5
1452.85	25
1453.91	25.5
1454.98	25
1456.04	25
1457.11	24.5
1458.17	26
1459.24	27
1460.3	25
1461.36	24
1462.43	27
1463.49	28
1464.56	27
1465.62	27
1466.68	24.5
1467.74	26
1468.81	28
1469.87	27
1470.93	27
1471.99	22
1473.06	29
1474.12	26
1475.18	21
1476.24	26
1477.3	26
1478.36	27
1479.42	27.5
1480.49	29
1481.55	26
1482.61	27.5
1483.67	26.5
1484.73	26.5
1485.79	24.5
1486.85	26
1487.91	27
1488.97	29.5
1490.03	26
1491.09	28.5
1492.14	27
1493.2	20.5
1494.26	23.5
1495.32	24
1496.38	27.5
1497.44	22
1498.49	29
1499.55	21
1500.61	27.5
1501.67	25.5
1502.72	26.5
1503.78	28
1504.84	23.5
1505.89	24
1506.95	27.5
1508.01	22.5
1509.07	25
1510.12	25
1511.18	28
1512.23	28
1513.29	24.5
1514.34	27.5
1515.4	26
1516.45	27.5
1517.51	25.5
1518.56	26
1519.62	29
1520.67	24.5
1521.73	29
1522.78	29.5
1523.84	25
1524.89	25
1525.94	29
1527	25
1528.05	29.5
1529.1	25.5
1530.16	26.5
1531.21	25
1532.26	29.5
1533.32	24.5
1534.37	25.5
1535.42	21
1536.47	22
1537.52	26.5
1538.57	21.5
1539.63	26.5
1540.68	28
1541.73	24
1542.78	26.5
1543.83	27
1544.88	22.5
1545.93	27
1546.98	26
1548.03	27
1549.08	23
1550.13	25
1551.18	28
1552.23	24.5
1553.28	22.5
1554.33	28.5
1555.38	26.5
1556.43	28.5
1557.48	24
1558.53	29.5
1559.57	27
1560.62	25
1561.67	24.5
1562.72	26
1563.77	25.5
1564.81	27.5
1565.86	26.5
1566.91	23.5
1567.96	30.5
1569	24.5
1570.05	22.5
1571.09	28.5
1572.14	26.5
1573.19	25.5
1574.23	25.5
1575.28	23.5
1576.33	26
1577.37	25
1578.42	26
1579.46	25.5
1580.51	28
1581.55	24
1582.6	24.5
1583.64	23
1584.69	23
1585.73	29.5
1586.77	24.5
1587.82	23
1588.86	24
1589.91	25
1590.95	24.5
1591.99	25.5
1593.04	26.5
1594.08	25.5
1595.12	29
1596.16	28
1597.21	24.5
1598.25	26
1599.29	24.5
1600.33	24.5
1601.37	24.5
1602.42	25.5
1603.46	25.5
1604.5	28
1605.54	28
1606.58	28.5
1607.62	26
1608.66	27
1609.7	24
1610.74	27
1611.78	26.5
1612.82	25
1613.86	26
1614.9	25.5
1615.94	29.5
1616.98	26
1618.02	27.5
1619.06	26
1620.1	25.5
1621.14	25.5
1622.18	29
1623.21	23
1624.25	27.5
1625.29	23.5
1626.33	26
1627.37	23.5
1628.4	26.5
1629.44	26
1630.48	29.5
1631.52	24
1632.55	28
1633.59	24.5
1634.63	24.5
1635.66	24.5
1636.7	27.5
1637.73	27.5
1638.77	27
1639.81	25
1640.84	25.5
1641.88	26.5
1642.91	27.5
1643.95	28
1644.98	26
1646.02	23.5
1647.05	27
1648.09	24
1649.12	31.5
1650.16	26.5
1651.19	25
1652.22	24
1653.26	24.5
1654.29	22.5
1655.32	28
1656.36	23
1657.39	27
1658.42	23
1659.46	25
1660.49	22
1661.52	25
1662.55	25.5
1663.59	21
1664.62	26.5
1665.65	23
1666.68	26
1667.71	24
1668.74	26
1669.77	18.5
1670.81	29
1671.84	26
1672.87	27
1673.9	25
1674.93	30
1675.96	26
1676.99	25
1678.02	24.5
1679.05	27
1680.08	29
1681.11	26.5
1682.13	24
1683.16	27.5
1684.19	26
1685.22	27
1686.25	25
1687.28	25.5
1688.31	23
1689.33	28
1690.36	28.5
1691.39	26.5
1692.42	28.5
1693.45	26
1694.47	23
1695.5	23.5
1696.53	25
1697.55	25
1698.58	24
1699.61	23
1700.63	22
1701.66	23
1702.68	26
1703.71	25.5
1704.74	24
1705.76	25.5
1706.79	26.5
1707.81	22.5
1708.84	25
1709.86	25
1710.89	24
1711.91	27.5
1712.94	28.5
1713.96	27.5
1714.98	24
1716.01	22.5
1717.03	26
1718.05	22.5
1719.08	25.5
1720.1	21
1721.12	28
1722.15	24
1723.17	26
1724.19	23
1725.22	27
1726.24	26.5
1727.26	23
1728.28	29
1729.3	27
1730.32	23
1731.35	26
1732.37	27.5
1733.39	23.5
1734.41	26.5
1735.43	26.5
1736.45	26.5
1737.47	26
1738.49	27
1739.51	21
1740.53	22.5
1741.55	26
1742.57	23.5
1743.59	30
1744.61	26
1745.63	23.5
1746.65	27
1747.67	25.5
1748.69	25.5
1749.71	27
1750.72	24.5
1751.74	27.5
1752.76	29
1753.78	27
1754.8	25
1755.81	26
1756.83	27
1757.85	24
1758.87	23.5
1759.88	23.5
1760.9	27
1761.92	24.5
1762.93	20.5
1763.95	25.5
1764.97	23.5
1765.98	24
1767	25.5
1768.01	21
1769.03	24
1770.05	26
1771.06	24.5
1772.08	27.5
1773.09	26
1774.11	24
1775.12	27
1776.13	25.5
1777.15	24
1778.16	22
1779.18	23
1780.19	26
1781.2	26
1782.22	24
1783.23	25
1784.24	24.5
1785.26	26.5
1786.27	24.5
1787.28	23
1788.3	29.5
1789.31	26
1790.32	23.5
1791.33	23
1792.35	23
1793.36	27
1794.37	26
1795.38	23
1796.39	25
1797.4	24.5
1798.41	24
1799.43	25
1800.44	25
1801.45	26.5
1802.46	23.5
1803.47	23.5
1804.48	26
1805.49	22.5
1806.5	28
1807.51	22.5
1808.52	22
1809.53	22
1810.53	23.5
1811.54	24.5
1812.55	26
1813.56	29
1814.57	23
1815.58	26.5
1816.59	24.5
1817.6	24.5
1818.6	27
1819.61	26
1820.62	25
1821.63	26.5
1822.63	25.5
1823.64	23.5
1824.65	24.5
1825.65	23
1826.66	24
1827.67	25.5
1828.67	23
1829.68	24
1830.69	26.5
1831.69	23
1832.7	24
1833.7	24
1834.71	23
1835.71	26
1836.72	26
1837.72	27
1838.73	25.5
1839.73	21.5
1840.74	22
1841.74	25
1842.75	21
1843.75	27.5
1844.75	25.5
1845.76	28
1846.76	24
1847.76	21.5
1848.77	22
1849.77	25.5
1850.77	27
1851.78	24
1852.78	21
1853.78	21.5
1854.78	26
1855.79	25.5
1856.79	22.5
1857.79	22.5
1858.79	22.5
1859.79	26.5
1860.8	25
1861.8	27.5
1862.8	22
1863.8	22
1864.8	23.5
1865.8	27
1866.8	21
1867.8	28
1868.8	23.5
1869.8	27
1870.8	23.5
1871.8	24
1872.8	31.5
1873.8	26.5
1874.8	25
1875.8	22.5
1876.8	24.5
1877.8	28
1878.79	26
1879.79	24
1880.79	26.5
1881.79	23.5
1882.79	23
1883.79	26.5
1884.78	24.5
1885.78	22.5
1886.78	26.5
1887.77	23.5
1888.77	25.5
1889.77	23.5
1890.77	25.5
1891.76	25.5
1892.76	30
1893.76	21.5
1894.75	26.5
1895.75	24.5
1896.74	23.5
1897.74	23
1898.73	25
1899.73	23.5
1900.72	24
1901.72	31.5
1902.72	21
1903.71	26.5
1904.7	24
1905.7	27.5
1906.69	30.5
1907.69	23.5
1908.68	28
1909.67	24
1910.67	26
1911.66	22
1912.66	24.5
1913.65	26
1914.64	25.5
1915.63	25.5
1916.63	19.5
1917.62	25.5
1918.61	24
1919.6	25
1920.6	29.5
1921.59	26.5
1922.58	23.5
1923.57	26
1924.56	24.5
1925.56	28.5
1926.55	23
1927.54	25
1928.53	24
1929.52	24
1930.51	25.5
1931.5	27.5
1932.49	20
1933.48	23
1934.47	26.5
1935.46	26
1936.45	21
1937.44	24
1938.43	27
1939.42	22
1940.41	25.5
1941.4	27
1942.39	25
1943.37	28
1944.36	27
1945.35	26
1946.34	18
1947.33	23
1948.32	26
1949.3	24.5
1950.29	25
1951.28	22
1952.27	21.5
1953.25	23.5
1954.24	24
1955.23	24
1956.21	19.5
1957.2	22
1958.19	26.5
1959.17	22
1960.16	27.5
1961.14	23.5
1962.13	24.5
1963.12	24
1964.1	24
1965.09	26
1966.07	21.5
1967.06	19
1968.04	24.5
1969.03	25
1970.01	24.5
1970.99	22
1971.98	24
1972.96	26
1973.95	25.5
1974.93	21
1975.92	26.5
1976.9	24.5
1977.88	24.5
1978.87	20
1979.85	24
1980.83	26
1981.81	24.5
1982.8	22
1983.78	22.5
1984.76	22
1985.74	27
1986.73	24.5
1987.71	25
1988.69	21
1989.67	26.5
1990.65	23.5
1991.63	23.5
1992.61	22.5
1993.59	23.5
1994.58	25.5
1995.56	26.5
1996.54	23
1997.52	22.5
1998.5	20.5
1999.48	23
2000.46	24.5
2001.44	23
2002.42	25
2003.4	19
2004.38	26
2005.35	22.5
2006.33	23.5
2007.31	24.5
2008.29	21
2009.27	21.5
2010.25	26.5
2011.23	23.5
2012.2	23
2013.18	18
2014.16	24.5
2015.14	22.5
2016.11	24
2017.09	26
2018.07	22
2019.05	27
2020.02	26
2021	26
2021.98	24.5
2022.95	25.5
2023.93	23.5
2024.91	22.5
2025.88	24
2026.86	22.5
2027.83	27
2028.81	21
2029.78	21
2030.76	22
2031.73	20.5
2032.71	24
2033.68	23.5
2034.66	25
2035.63	26
2036.61	26.5
2037.58	23
2038.56	21.5
2039.53	26.5
2040.5	26
2041.48	25.5
2042.45	21.5
2043.42	23
2044.4	21.5
2045.37	23
2046.34	22
2047.32	27
2048.29	22.5
2049.26	29
2050.23	21.5
2051.2	23.5
2052.18	19.5
2053.15	22.5
2054.12	29
2055.09	21
2056.06	22
2057.03	24.5
2058	24
2058.98	22.5
2059.95	22.5
2060.92	24
2061.89	21.5
2062.86	25.5
2063.83	21.5
2064.8	24.5
2065.77	26.5
2066.74	24
2067.71	26
2068.68	24.5
2069.65	21.5
2070.61	23.5
2071.58	24
2072.55	26.5
2073.52	21.5
2074.49	24.5
2075.46	24
2076.43	25.5
2077.4	25.5
2078.36	25
2079.33	25
2080.3	22.5
2081.27	22.5
2082.23	25.5
2083.2	23
2084.17	24
2085.13	24
2086.1	21
2087.07	22.5
2088.03	25
2089	23.5
2089.97	23
2090.93	21
2091.9	26.5
2092.86	18.5
2093.83	21
2094.8	25
2095.76	26
2096.73	23
2097.69	23
2098.66	26.5
2099.62	23
2100.58	24.5
2101.55	22.5
2102.51	23.5
2103.48	24
2104.44	23.5
2105.41	22
2106.37	22.5
2107.33	24
2108.3	24.5
2109.26	14
2110.22	27.5
2111.19	27
2112.15	22
2113.11	21
2114.07	20
2115.04	24
2116	24.5
2116.96	27
2117.92	25.5
2118.88	23
2119.85	23
2120.81	22
2121.77	22
2122.73	22
2123.69	19
2124.65	20
2125.61	20.5
2126.57	23
2127.53	20
2128.49	20.5
2129.45	23
2130.41	25.5
2131.37	21
2132.33	21
2133.29	23.5
2134.25	23
2135.21	26.5
2136.17	21.5
2137.13	22
2138.09	25.5
2139.05	22
2140.01	23
2140.96	25
2141.92	21.5
2142.88	22.0028
2143.84	21.5159
2144.8	22.1142
2145.75	24.1548
2146.71	20.1572
2147.67	23.8804
2148.63	19.8075
2149.58	23.5485
2150.54	23.7092
2151.5	22.8219
2152.45	22.5714
2153.41	26.4109
2154.37	22.5132
2155.32	20.4072
2156.28	23.0557
2157.23	22.6514
2158.19	24.5652
2159.15	22.5491
2160.1	21.1958
2161.06	25.1203
2162.01	22.7103
2162.97	21.9852
2163.92	26.2353
2164.88	24.4363
2165.83	21.3302
2166.78	22.649
2167.74	22.777
2168.69	22.218
2169.65	23.1264
2170.6	27.1875
2171.56	21.5371
2172.51	22.1198
2173.46	23.8303
2174.42	23.5
2175.37	21.7839
2176.32	19.3085
2177.28	21.3944
2178.23	21.7618
2179.18	24.5455
2180.13	21.7613
2181.08	23.2871
2182.04	24.7029
2182.99	23.8412
2183.94	23.4066
2184.89	23.0319
2185.84	21
2186.8	21.0313
2187.75	22.6835
2188.7	18.0518
2189.65	21.8087
2190.6	23.2609
2191.55	22.755
2192.5	21.7792
2193.45	24.1798
2194.4	24.3216
2195.35	23.3859
2196.3	22.9126
2197.25	21.2821
2198.2	23.7621
2199.15	22.6615
2200.1	22.5621
2201.05	20.4305
2202	23.5178
2202.95	19.9261
2203.9	24.8091
2204.85	23.0186
2205.79	20.5601
2206.74	21.9968
2207.69	21.8801
2208.64	22.5731
2209.59	25.6583
2210.53	21.2662
2211.48	21.0748
2212.43	24.5134
2213.38	23.5667
2214.32	24.3764
2215.27	22.2291
2216.22	25.6964
2217.17	21.7661
2218.11	23.0139
2219.06	21.4685
2220.01	23.4738
2220.95	23.5024
2221.9	25.0405
2222.84	23.3083
2223.79	26.0638
2224.73	22.7033
2225.68	22.9296
2226.63	21.7196
2227.57	20.849
2228.52	23.3825
2229.46	22.4976
2230.41	23.2989
2231.35	20.4922
2232.3	18.6385
2233.24	21.4868
2234.18	23.1388
2235.13	24.9009
2236.07	24.1007
2237.02	21.0489
2237.96	20.0728
2238.9	20.0364
2239.85	21.9001
2240.08	22.5
2241.03	23
2241.97	17
2242.92	27.5
2243.87	20.5
2244.82	25
2245.76	20.5
2246.71	27
2247.66	21
2248.61	22
2249.55	24
2250.5	21.5
2251.45	21
2252.39	25.5
2253.34	21
2254.29	20
2255.23	20
2256.18	25.5
2257.12	23
2258.07	23.5
2259.01	24
2259.96	21.5
2260.9	24.5
2261.85	22
2262.79	23
2263.74	22
2264.68	21
2265.63	23.5
2266.57	21.5
2267.52	24.5
2268.46	25
2269.41	24
2270.35	24.5
2271.29	21
2272.24	22.5
2273.18	23.5
2274.12	19
2275.07	20
2276.01	16
2276.95	25
2277.89	25.5
2278.84	22
2279.78	25
2280.72	26.5
2281.66	23.5
2282.6	22
2283.55	21
2284.49	22.5
2285.43	24.5
2286.37	21.5
2287.31	20
2288.25	25
2289.2	17.5
2290.14	23.5
2291.08	20
2292.02	21
2292.96	24.5
2293.9	27
2294.84	22.5
2295.78	22
2296.72	22
2297.66	25.5
2298.6	26
2299.54	26.5
2300.48	21
2301.42	23
2302.35	22.5
2303.29	21
2304.23	25.5
2305.17	23.5
2306.11	23
2307.05	21.5
2307.99	21
2308.92	26
2309.86	25
2310.8	22.5
2311.74	21.5
2312.67	24
2313.61	25
2314.55	22
2315.49	27
2316.42	26.5
2317.36	22.5
2318.3	22.5
2319.23	22.5
2320.17	20
2321.1	25.5
2322.04	18
2322.98	23
2323.91	24.5
2324.85	25
2325.78	22.5
2326.72	24.5
2327.66	25
2328.59	24.5
2329.52	24
2330.46	21.5
2331.39	20.5
2332.33	27
2333.26	25
2334.2	20
2335.13	25.5
2336.07	22
2337	24
2337.93	23
2338.87	21
2339.8	24
2340.73	21.5
2341.67	25.5
2342.6	23.5
2343.53	26.5
2344.46	24.5
2345.4	21
2346.33	21.5
2347.26	25.5
2348.19	25
2349.13	27
2350.06	20
2350.99	24
2351.92	20.5
2352.85	26
2353.79	25
2354.72	27
2355.65	22
2356.58	23
2357.51	26
2358.44	21
2359.37	26
2360.3	25
2361.23	21.5
2362.16	22
2363.09	23.5
2364.02	23
2364.95	22.5
2365.88	21
2366.81	28
2367.74	24
2368.67	21
2369.6	21
2370.53	26.5
2371.45	27.5
2372.38	25.5
2373.31	26.5
2374.24	23
2375.17	23.5
2376.1	26
2377.02	19
2377.95	24.5
2378.88	24.5
2379.81	24
2380.73	24.5
2381.66	23.5
2382.59	23
2383.52	22
2384.44	23
2385.37	26
2386.3	25
2387.22	26.5
2388.15	24
2389.07	25
2390	28.5
2390.93	22
2391.85	25
2392.78	24.5
2393.7	23
2394.63	26
2395.55	21
2396.48	21
2397.4	23.5
2398.33	23.5
2399.25	25
2400.18	23
2401.1	21
2402.03	24.5
2402.95	25.5
2403.87	22.5
2404.8	24
2405.72	24
2406.64	23.5
2407.57	25
2408.49	24.5
2409.41	21
2410.34	21
2411.26	24
2412.18	22
2413.1	24
2414.03	24.5
2414.95	24.5
2415.87	23
2416.79	22.5
2417.72	22
2418.64	23
2419.56	22
2420.48	26
2421.4	26
2422.32	25.5
2423.24	26.5
2424.16	28
2425.09	20
2426.01	22.5
2426.93	23
2427.85	24.5
2428.77	25.5
2429.69	24
2430.61	20
2431.53	26
2432.45	21
2433.37	21
2434.29	22.5
2435.21	20
2436.12	27
2437.04	28
2437.96	25
2438.88	21.5
2439.8	24
2440.72	30
2441.64	24.5
2442.55	22
2443.47	27.5
2444.39	24
2445.31	24
2446.23	25.5
2447.14	23
2448.06	22
2448.98	21.5
2449.9	25.5
2450.81	23
2451.73	21.5
2452.65	21
2453.56	22
2454.48	20.5
2455.39	27
2456.31	25
2457.23	25.5
2458.14	24.5
2459.06	24
2459.97	24
2460.89	20.5
2461.8	21
2462.72	21
2463.64	27
2464.55	25.5
2465.47	24
2466.38	22
2467.29	24
2468.21	20.5
2469.12	22
2470.04	22.5
2470.95	23.5
2471.86	21.5
2472.78	28
2473.69	19
2474.61	24.5
2475.52	24
2476.43	25
2477.35	25
2478.26	22.5
2479.17	24
2480.08	26
2481	25.5
2481.91	25
2482.82	24
2483.73	22
2484.64	26.5
2485.56	24
2486.47	27
2487.38	23
2488.29	24.5
2489.2	25
2490.11	23.5
2491.03	28
2491.94	23
2492.85	27.5
2493.76	25
2494.67	22
2495.58	27
2496.49	26
2497.4	23
2498.31	23.5
2499.22	23
2500.13	22
2501.04	27.5
2501.95	25
2502.86	24
2503.77	28
2504.67	26.5
2505.58	26.5
2506.49	26
2507.4	25.5
2508.31	24.5
2509.22	28
2510.13	24.5
2511.03	23
2511.94	24.5
2512.85	18
2513.76	28
2514.66	19.5
2515.57	23.5
2516.48	19.5
2517.39	25
2518.29	26
2519.2	23
2520.11	24.5
2521.01	23
2521.92	23.5
2522.83	25.5
2523.73	23
2524.64	23.5
2525.54	27
2526.45	28
2527.36	26
2528.26	23
2529.17	23.5
2530.07	25
2530.98	27.5
2531.88	19.5
2532.79	23
2533.69	24.5
2534.6	26
2535.5	21.5
2536.41	21
2537.31	24
2538.21	25.5
2539.12	24.5
2540.02	28.5
2540.93	24
2541.83	23.5
2542.73	26.5
2543.64	22.5
2544.54	27
2545.44	24.5
2546.34	26.5
2547.25	25
2548.15	23
2549.05	27.5
2549.96	23
2550.86	22.5
2551.76	28.5
2552.66	24.5
2553.56	25
2554.46	25
2555.37	27.5
2556.27	20
2557.17	24.5
2558.07	23.5
2558.97	25
2559.87	25.5
2560.77	22
2561.67	25
2562.57	27
2563.47	26
2564.37	18.5
2565.27	25
2566.17	21.5
2567.07	27
2567.97	27
2568.87	24
2569.77	29
2570.67	25.5
2571.57	27
2572.47	26.5
2573.37	24
2574.27	22.5
2575.17	23
2576.06	21
2576.96	27.5
2577.86	24
2578.76	26
2579.66	27
2580.56	23
2581.45	25
2582.35	26
2583.25	25.5
2584.15	28
2585.04	25.5
2585.94	23.5
2586.84	20
2587.73	28
2588.63	27
2589.53	23
2590.42	22
2591.32	23
2592.22	28
2593.11	26.5
2594.01	23.5
2594.9	26.5
2595.8	25.5
2596.69	23.5
2597.59	24.5
2598.48	27
2599.38	23
2600.28	26
2601.17	26
2602.06	25
2602.96	23
2603.85	24.5
2604.75	25
2605.64	26.5
2606.54	25
2607.43	23
2608.32	21.5
2609.22	25
2610.11	27.5
2611	22.5
2611.9	24
2612.79	28
2613.68	21.5
2614.58	22.5
2615.47	23.5
2616.36	22
2617.25	26
2618.15	22
2619.04	23
2619.93	21
2620.82	25.5
2621.71	24
2622.61	24
2623.5	27.5
2624.39	24
2625.28	26.5
2626.17	22
2627.06	25
2627.95	22
2628.84	23.5
2629.74	27
2630.63	22
2631.52	22.5
2632.41	27.5
2633.3	26
2634.19	24
2635.08	23.5
2635.97	26
2636.85	22.5
2637.74	26
2638.63	20
2639.52	28.5
2640.41	22.5
2641.3	20
2642.19	23.5
2643.08	22.5
2643.97	28
2644.86	20.5
2645.74	25
2646.63	22
2647.52	23
2648.41	26
2649.3	23
2650.18	26.5
2651.07	27
2651.96	22.5
2652.85	28.5
2653.73	22.5
2654.62	28
2655.51	25.5
2656.39	23
2657.28	25
2658.17	25
2659.05	26
2659.94	27
2660.83	25
2661.71	21.5
2662.6	27
2663.48	24
2664.37	23
2665.25	26
2666.14	26.5
2667.02	27
2667.91	24
2668.79	23
2669.68	28
2670.56	25.5
2671.45	25
2672.33	25.5
2673.22	20.5
2674.1	23.5
2674.98	29.5
2675.87	24.5
2676.75	23.5
2677.64	20.5
2678.52	22
2679.4	25
2680.29	26
2681.17	27.5
2682.05	24.5
2682.94	26.5
2683.82	28
2684.7	21
2685.58	23.5
2686.47	20
2687.35	22
2688.23	22
2689.11	23
2689.99	24
2690.88	25.5
2691.76	22
2692.64	26
2693.52	22
2694.4	26.5
2695.28	26.5
2696.16	24
2697.04	23
2697.92	23.5
2698.8	24
2699.69	23
2700.57	28
2701.45	26
2702.33	22
2703.21	25
2704.09	23.5
2704.97	24
2705.84	26.5
2706.72	28.5
2707.6	27
2708.48	25.5
2709.36	26.5
2710.24	23
2711.12	18
2712	27.5
2712.88	23.5
2713.75	20.5
2714.63	26.5
2715.51	26.5
2716.39	19.5
2717.27	24.5
2718.14	26.5
2719.02	27.5
2719.9	25
2720.78	24
2721.65	23
2722.53	26.5
2723.41	26
2724.28	23.5
2725.16	22.5
2726.04	25.5
2726.92	24.5
2727.79	24.5
2728.67	23.5
2729.54	24
2730.42	25.5
2731.3	26
2732.17	26
2733.05	27.5
2733.92	24
2734.8	24.5
2735.67	26
2736.55	28
2737.42	21.5
2738.3	22
2739.17	23
2740.05	22
2740.92	27
2741.79	24
2742.67	16
2743.54	26.5
2744.42	23
2745.29	25.5
2746.16	23
2747.04	23.5
2747.91	22
2748.78	23.5
2749.66	23.5
2750.53	22
2751.4	22
2752.28	21.5
2753.15	22
2754.02	25.5
2754.89	25.5
2755.77	25
2756.64	27
2757.51	26
2758.38	23
2759.25	25.5
2760.13	25.5
2761	26.5
2761.87	23.5
2762.74	26
2763.61	23
2764.48	29
2765.35	24.5
2766.22	24
2767.09	27
2767.96	26
2768.83	24
2769.71	24
2770.57	23
2771.44	24.5
2772.32	21
2773.18	24.5
2774.05	21
2774.92	25.5
2775.79	28
2776.66	25
2777.53	22
2778.4	25
2779.27	30
2780.14	23
2781.01	28.5
2781.87	28
2782.74	26
2783.61	26.5
2784.48	25.5
2785.35	28
2786.21	25.5
2787.08	26.5
2787.95	26.5
2788.82	20.5
2789.69	25.5
2790.55	21
2791.42	27.5
2792.29	26.5
2793.15	28.5
2794.02	24
2794.89	26.5
2795.75	28
2796.62	26
2797.49	24
2798.35	26.5
2799.22	25
2800.08	23.5
2800.95	26.75
2801.81	28
2802.68	24.5
2803.55	30
2804.41	24
2805.28	26
2806.14	24
2807	24
2807.87	28
2808.73	29.5
2809.6	29.5
2810.46	24.5
2811.33	26.5
2812.19	24.5
2813.06	26
2813.92	27
2814.78	26
2815.65	24
2816.51	23
2817.37	25.5
2818.24	25.5
2819.1	25.5
2819.96	24.5
2820.83	30.5
2821.69	26.5
2822.55	22
2823.41	22
2824.28	24
2825.14	25.5
2826	22
2826.86	28
2827.72	23
2828.58	27.5
2829.45	30
2830.31	23.5
2831.17	27.5
2832.03	27.5
2832.89	25
2833.75	25.5
2834.61	24.5
2835.47	26.5
2836.33	29
2837.2	22
2838.05	25
2838.92	26.5
2839.78	26.5
2840.64	26.5
2841.49	26
2842.35	26
2843.21	26
2844.07	27
2844.93	25
2845.79	27
2846.65	25
2847.51	21
2848.37	24.5
2849.23	27.5
2850.09	28
2850.94	24.5
2851.8	22.5
2852.66	29
2853.52	29
2854.38	23
2855.23	25.5
2856.09	22.5
2856.95	26.5
2857.81	28.5
2858.67	25.5
2859.52	28
2860.38	27
2861.24	27
2862.09	30.5
2862.95	26.5
2863.81	24
2864.66	24.5
2865.52	29
2866.38	30
2867.23	27
2868.09	26
2868.94	28.5
2869.8	26
2870.65	28
2871.51	30
2872.37	27.5
2873.22	29
2874.08	32.5
2874.93	32
2875.79	29.5
2876.64	28
2877.49	29.5
2878.35	33
2879.2	34.5
2880.06	30.5
2880.91	32
2881.77	35
2882.62	33.5
2883.47	32.5
2884.33	33.5
2885.18	34.5
2886.03	37.5
2886.89	34
2887.74	35
2888.59	37
2889.45	38
2890.3	39.5
2891.15	39.5
2892	44.5
2892.86	41.5
2893.71	46.5
2894.56	47.5
2895.41	47
2896.27	43
2897.12	56.5
2897.97	52.5
2898.82	61
2899.67	60.5
2900.52	65.5
2901.37	67
2902.23	67
2903.08	62
2903.93	71.5
2904.78	75
2905.63	74
2906.48	68
2907.33	74
2908.18	65.5
2909.03	73
2909.88	68.5
2910.73	63
2911.58	63.5
2912.43	56
2913.28	50
2914.13	51.5
2914.98	47.5
2915.83	50
2916.67	45
2917.52	37
2918.37	40
2919.22	37
2920.07	43
2920.92	35.5
2921.77	41
2922.61	32.5
2923.46	32.5
2924.31	30
2925.16	34
2926	34
2926.85	33
2927.7	31
2928.55	29.5
2929.39	28
2930.24	30.5
2931.09	29
2931.94	31
2932.78	30.5
2933.63	29
2934.47	30.5
2935.32	27
2936.17	25.5
2937.01	30
2937.86	25.5
2938.7	26.5
2939.55	29.5
2940.4	28
2941.24	29.5
2942.09	29.5
2942.93	29
2943.78	28
2944.62	31
2945.47	29.5
2946.31	25
2947.16	28
2948	33.5
2948.84	32
2949.69	32
2950.53	30.5
2951.38	31
2952.22	33
2953.06	31.5
2953.91	27.5
2954.75	32
2955.59	31
2956.44	39
2957.28	35.5
2958.12	37
2958.97	43.5
2959.81	44.5
2960.65	43
2961.5	42
2962.34	43.5
2963.18	49
2964.02	46.5
2964.86	49
2965.71	41.5
2966.55	44.5
2967.39	47.5
2968.23	44
2969.07	44.5
2969.91	38
2970.75	34.5
2971.6	36.4976
2972.44	38.9563
2973.28	37.9515
2974.12	36.0154
2974.96	34.9078
2975.8	31.1519
2976.64	38.1036
2977.48	36.6682
2978.32	30.0245
2979.16	32.7637
2980	29.3801
2980.84	32.4417
2981.68	31.8276
2982.52	31.813
2983.36	28.1355
2984.2	27.6134
2985.04	29.6509
2985.88	23.1988
2986.71	27.5634
2987.55	25.1893
2988.39	23.9096
2989.23	25.9389
2990.07	26.7354
2990.91	26.8131
2991.75	25.1654
2992.58	24.4327
2993.42	23.95
2994.26	24.2378
2995.1	24.1969
2995.93	29.317
2996.77	22.1324
2997.61	25.2714
2998.45	23.7257
2999.28	22.919
3000.12	21.3371
3000.96	25.2496
3001.79	24.4209
3002.63	23.2674
3003.47	24.0509
3004.3	23.4168
3005.14	25.8466
3005.98	22.851
3006.81	22.7952
3007.65	27.0812
3008.48	20.669
3009.32	23.1179
3010.15	23.4674
3010.99	24.8601
3011.82	22.2343
3012.66	22.6197
3013.5	23.9288
3014.33	23.0868
3015.17	22.0152
3016	23.442
3016.83	24.2103
3017.67	23.463
3018.5	23.5
3019.34	20.3686
3020.17	22.5497
3021.01	23.6685
3021.84	22.4133
3022.67	22.3655
3023.51	24.4503
3024.34	22.2932
3025.17	21.6867
3026.01	21.5144
3026.84	23.9628
3027.67	21.884
3028.51	22.9062
3029.34	21.6629
3030.17	22.2576
3031	23.4554
3031.84	23.7325
3032.67	22.2364
3033.5	20.4394
3034.33	20.6262
3035.17	22.723
3036	21.9079
3036.83	23.4794
3037.66	23.7714
3038.49	23.1877
3039.32	21.5069
3040.15	22.38
3040.99	24.0773
3041.82	23.087
3042.65	22.4558
3043.48	22.4444
3044.31	21.3172
3045.14	24.4463
3045.97	24.1154
3046.8	22.5635
3047.63	21.8375
3048.46	21.8126
3049.29	24.4552
3050.12	25.3209
3050.95	24.8126
3051.78	23.351
3052.61	23.5917
3053.44	23.1677
3054.27	24.2048
3055.1	23.77
3055.92	21.2239
3056.75	21.6914
3057.27	22
3058.11	23
3058.94	24
3059.77	24
3060.61	22
3061.44	21
3062.27	23
3063.11	21.5
3063.94	24
3064.77	25
3065.6	24
3066.43	23
3067.27	21
3068.1	22
3068.93	22
3069.76	23
3070.59	22.5
3071.42	23
3072.26	23.5
3073.09	23
3073.92	25
3074.75	24.5
3075.58	23.5
3076.41	22
3077.24	22.5
3078.07	20
3078.9	24
3079.73	23.5
3080.56	24.5
3081.39	30.5
3082.22	23
3083.05	25.5
3083.88	22
3084.71	20.5
3085.54	24
3086.37	22
3087.2	24.5
3088.03	26
3088.86	20.5
3089.69	26
3090.51	22.5
3091.34	28
3092.17	20
3093	25
3093.83	22
3094.66	21.5
3095.48	24
3096.31	24
3097.14	25
3097.97	24
3098.79	22
3099.62	23.5
3100.45	22.5
3101.28	21.5
3102.1	25
3102.93	25
3103.76	27.5
3104.58	24.5
3105.41	22.5
3106.24	23.5
3107.06	20
3107.89	23
3108.72	22
3109.54	21.5
3110.37	23.5
3111.19	25
3112.02	24
3112.84	24
3113.67	25
3114.49	25
3115.32	22.5
3116.15	25
3116.97	23
3117.8	21
3118.62	21.5
3119.44	25.5
3120.27	25.5
3121.09	26
3121.92	22
3122.74	22
3123.57	24
3124.39	25
3125.21	26
3126.04	22
3126.86	21.5
3127.68	23.5
3128.51	28
3129.33	24
3130.15	23.5
3130.98	23
3131.8	23
3132.62	25.5
3133.44	24
3134.27	25.5
3135.09	24
3135.91	23.5
3136.73	24
3137.56	23
3138.38	25.5
3139.2	23.5
3140.02	26.5
3140.84	23
3141.67	23.5
3142.49	22.5
3143.31	22
3144.13	22.5
3144.95	27
3145.77	25
3146.59	22
3147.41	21
3148.23	21.5
3149.05	23.5
3149.87	18
3150.69	25
3151.51	21
3152.33	22
3153.15	25.5
3153.97	21.5
3154.79	22
3155.61	21.5
3156.43	22.5
3157.25	26
3158.07	24.5
3158.89	25.5
3159.71	25.5
3160.53	25
3161.35	25
3162.17	22
3162.98	24.5
3163.8	22
3164.62	24
3165.44	23
3166.26	30
3167.07	25
3167.89	23.5
3168.71	24.5
3169.53	24
3170.35	24.5
3171.16	26
3171.98	23.5
3172.8	21
3173.61	27.5
3174.43	23.5
3175.25	24
3176.06	24
3176.88	24.5
3177.7	24
3178.51	22.5
3179.33	26
3180.15	23.5
3180.96	23
3181.78	25.5
3182.59	19.5
3183.41	21.5
3184.22	21.5
3185.04	23.5
3185.85	20
3186.67	23
3187.49	28
3188.3	22.5
3189.12	24
3189.93	24
3190.74	23
3191.56	21.5
3192.37	23.5
3193.19	19.5
3194	25.5
3194.82	24.5
3195.63	24.5
3196.44	25
3197.26	26.5
3198.07	25.5
3198.88	26.5
3199.7	24.5
3200.51	22.5
3201.32	20
3202.14	27.5
3202.95	24.5
3203.76	21.5
3204.58	23.5
3205.39	27
3206.2	21
3207.01	24
3207.83	24
3208.64	23.5
3209.45	23
3210.26	24
3211.07	23
3211.88	21
3212.7	24.5
3213.51	21.5
3214.32	22
3215.13	22
3215.94	22
3216.75	22
3217.56	24.5
3218.37	18
3219.18	25
3220	21
3220.8	26
3221.62	26
3222.43	22
3223.24	23
3224.05	21.5
3224.86	21.5
3225.67	23
3226.47	22
3227.28	27
3228.09	21
3228.9	23.5
3229.71	26.5
3230.52	23
3231.33	26
3232.14	23.5
3232.95	21
3233.76	26
3234.56	26.5
3235.37	26.5
3236.18	24.5
3236.99	23.5
3237.8	21
3238.61	23.5
3239.41	24
3240.22	24
3241.03	22.5
3241.84	23.5
3242.64	24.5
3243.45	24.5
3244.26	23
3245.07	25.5
3245.87	25
3246.68	24.5
3247.49	24
3248.29	23.5
3249.1	26.5
3249.9	25
3250.71	23.5
3251.52	19.5
3252.32	24.5
3253.13	24.5
3253.93	25
3254.74	21.5
3255.55	22
3256.35	24
3257.16	24
3257.96	21
3258.77	23
3259.57	23.5
3260.38	19.5
3261.18	23
3261.99	21.5
3262.79	23
3263.6	25.5
3264.4	23.5
3265.2	23
3266.01	23
3266.81	27
3267.62	30.5
3268.42	24.5
3269.22	25
3270.03	20
3270.83	25
3271.63	21
3272.44	22
3273.24	25.5
3274.04	21
3274.85	22.5
3275.65	22.5
3276.45	22.5
3277.25	20.5
3278.06	26.5
3278.86	29.5
3279.66	18.5
3280.46	24.5
3281.26	25.5
3282.07	22
3282.87	25
3283.67	28
3284.47	22
3285.27	22
3286.07	19
3286.87	28.5
3287.68	25
3288.48	23.5
3289.28	26
3290.08	21
3290.88	26
3291.68	27.5
3292.48	24.5
3293.28	23
3294.08	25
3294.88	20.5
3295.68	26.5
3296.48	26
3297.28	23.5
3298.08	22.5
3298.88	22.5
3299.68	22
3300.48	28
3301.28	20.5
3302.08	22.5
3302.88	22
3303.67	22.5
3304.47	24
3305.27	24
3306.07	22.5
3306.87	25
3307.67	24
3308.46	22
3309.26	25.5
3310.06	23
3310.86	27
3311.66	21
3312.45	23
3313.25	26
3314.05	26
3314.85	25.5
3315.64	22.5
3316.44	23.5
3317.24	23
3318.03	25.5
3318.83	27
3319.63	24.5
3320.42	24.5
3321.22	24
3322.02	27
3322.81	24
3323.61	23
3324.4	26
3325.2	23
3326	23
3326.79	21.5
3327.59	25
3328.38	22
3329.18	25.5
3329.97	23.5
3330.77	20.5
3331.56	21
3332.36	25.5
3333.15	26.5
3333.95	25.5
3334.74	22
3335.54	23
3336.33	23
3337.13	24.5
3337.92	22
3338.71	26
3339.51	22
3340.3	22.5
3341.1	24
3341.89	28
3342.68	23
3343.48	23
3344.27	21.5
3345.06	22
3345.85	22
3346.65	25.5
3347.44	26
3348.23	22
3349.03	27.5
3349.82	23
3350.61	26.5
3351.4	23.5
3352.19	24.5
3352.99	25
3353.78	23.5
3354.57	26
3355.36	26
3356.15	26.5
3356.94	27.5
3357.74	22
3358.53	22
3359.32	26
3360.11	23.5
3360.9	20
3361.69	21.5
3362.48	22
3363.27	22
3364.06	19
3364.85	22.5
3365.64	25.5
3366.43	24
3367.22	23
3368.01	23
3368.8	23.5
3369.59	24.5
3370.38	24.5
3371.17	26.5
3371.96	24
3372.75	23
3373.54	20
3374.33	24.5
3375.12	22
3375.91	25.5
3376.69	18
3377.48	23
3378.27	28.5
3379.06	23
3379.85	24
3380.64	22
3381.42	25
3382.21	24.5
3383	24
3383.79	22.5
3384.58	26.5
3385.36	24.5
3386.15	23.5
3386.94	28
3387.73	24
3388.51	22
3389.3	25.5
3390.09	21
3390.87	22
3391.66	23.5
3392.45	24
3393.23	23.5
3394.02	27
3394.81	26
3395.59	24
3396.38	23
3397.16	23.5
3397.95	23.5
3398.74	22.5
3399.52	24.5
3400.31	25.5
3401.09	24.5
3401.88	24
3402.66	23
3403.45	26
3404.23	24.5
3405.02	20
3405.8	26
3406.59	23
3407.37	23
3408.15	25
3408.94	23
3409.72	27.5
3410.51	24
3411.29	24.5
3412.07	26
3412.86	25
3413.64	29
3414.42	20.5
3415.21	25.5
3415.99	20
3416.78	21
3417.56	27.5
3418.34	24.5
3419.12	21
3419.91	23
3420.69	23.5
3421.47	24.5
3422.25	26
3423.04	27.5
3423.82	23
3424.6	22
3425.38	28
3426.16	22.5
3426.95	23
3427.73	24
3428.51	23.5
3429.29	22.5
3430.07	24
3430.85	26
3431.63	24.5
3432.42	23
3433.2	26
3433.98	26
3434.76	25
3435.54	21.5
3436.32	26.5
3437.1	23.5
3437.88	19.5
3438.66	22.5
3439.44	23
3440.22	24
3441	26
3441.78	23
3442.56	21.5
3443.34	24.5
3444.12	23.5
3444.9	26
3445.68	26.5
3446.45	27
3447.23	25
3448.01	25.5
3448.79	23.5
3449.57	25
3450.35	24.5
3451.13	24.5
3451.91	26
3452.68	22
3453.46	26.5
3454.24	21
3455.02	24.5
3455.79	22.5
3456.57	23
3457.35	22.5
3458.13	23
3458.91	19
3459.68	28.5
3460.46	27
3461.24	25
3462.01	25
3462.79	21.5
3463.57	24.5
3464.34	20.5
3465.12	28
3465.9	20
3466.67	27.5
3467.45	20.5
3468.22	23.5
3469	24
3469.78	21
3470.55	24.5
3471.33	25.5
3472.1	19
3472.88	19
3473.65	24.5
3474.43	22
3475.2	22
3475.98	23.5
3476.75	23
3477.53	23
3478.3	25
3479.08	26.5
3479.85	24.5
3480.63	24
3481.4	25
3482.18	21.5
3482.95	23.5
3483.72	25
3484.5	22
3485.27	24
3486.04	25
3486.82	29
3487.59	23.5
3488.36	24
3489.14	25
3489.91	23
3490.68	23
3491.46	20
3492.23	23
3493	21.5
3493.77	24.5
3494.55	21.5
3495.32	24.5
3496.09	21.5
3496.86	22.5
3497.64	22
3498.41	21.5
3499.18	23
3499.95	23.5
