#Acq. time (s)=	5
#Accumulations=	5
#Range (cm-¹)=	100...3500
#Windows=	4
#Autofocus=	Off
#AutoExposure=	Off
#Spike filter=	Multiple accum.
#Delay time (s)=	0
#Binning=	1
#Readout mode=	Signal
#DeNoise=	Off
#ICS correction=	Off
#Dark correction=	Off
#Inst. Process=	Off
#Instrument=	LabRAM HR Evol
#Detector=	Syncerity OE
#Objective=	x100_VIS
#Grating=	600 (500nm)
#ND Filter=	25%
#Laser=	633nm_Edge
#Hole=	100.021
#Range=	Visible
#Project=	verificaciones
#Sample=	a2
#Site=	plain
#Title=	bolusa2plain
#Remark=	com
#Date=	16.01.2026 13:45
#Acquired=	16.01.2026 13:45:52
100.687	29.5
101.971	36
103.254	31.5
104.537	30
105.82	37
107.103	31.5
108.387	31.5
109.669	34
110.951	29
112.233	33
113.514	36.5
114.796	25
116.077	32
117.358	27
118.639	31.5
119.919	34.5
121.2	32
122.48	31
123.76	34
125.039	32.5
126.319	36
127.598	30.5
128.877	36.5
130.156	35.5
131.435	36.5
132.713	29.5
133.992	33.5
135.268	41
136.546	32
137.824	39
139.101	36.5
140.378	36.5
141.655	41
142.932	35.5
144.209	38
145.485	40.5
146.76	38.5
148.036	39.5
149.312	43
150.587	38
151.862	42.5
153.138	45
154.411	45.5
155.686	47.5
156.96	40
158.235	43
159.509	46
160.781	42
162.055	42
163.328	46
164.602	41
165.873	40
167.146	39
168.419	48
169.691	45.5
170.962	39
172.234	38.5
173.506	40
174.777	42.5
176.047	37.5
177.318	40.5
178.589	45.5
179.859	44
181.129	40.5
182.4	42
183.668	41.5
184.938	43.5
186.207	40.5
187.476	44
188.746	43
190.013	44
191.282	45.5
192.551	44
193.818	37.5
195.086	40.5
196.353	36
197.621	42
198.887	42.5
200.154	34.5
201.422	40
202.687	46
203.954	38.5
205.219	34.5
206.486	40
207.751	40.5
209.017	38
210.281	36.5
211.547	34.5
212.811	37
214.076	37.5
215.339	31
216.603	35
217.867	36
219.13	32.5
220.395	36
221.657	33
222.921	33.5
224.183	32
225.445	38.5
226.708	33.5
227.97	33.5
229.232	34
230.493	31
231.754	32
233.016	33
234.277	29
235.537	32
236.799	30.5
238.059	33.5
239.318	29.5
240.579	30.5
241.839	31
243.098	30.5
244.358	31.5
245.617	32.5
246.875	31.5
248.133	28
249.393	28
250.651	34
251.908	26.5
253.166	30
254.424	29
255.681	32.5
256.938	33
258.195	33.5
259.451	29.5
260.709	26
261.965	31.5
263.221	32
264.476	32
265.732	28
266.988	31
268.243	31
269.498	30.5
270.753	35.5
272.007	31
273.261	27.5
274.515	30
275.769	32
277.022	32
278.277	26.5
279.53	34.5
280.783	29
282.036	27.5
283.289	30
284.541	28.5
285.793	28.5
287.045	28.5
288.297	30.5
289.548	33
290.8	27
292.051	26.5
293.302	33
294.552	32
295.803	29
297.053	26.5
298.303	31
299.553	29.5
300.803	32.5
302.053	28.5
303.302	29
304.551	30.5
305.8	31
307.047	29
308.296	28
309.544	31
310.792	30.5
312.04	27.5
313.288	29
314.535	28
315.783	27
317.03	25.5
318.275	30
319.522	30.5
320.768	31
322.015	26.5
323.261	33
324.505	27.5
325.751	25.5
326.997	29
328.242	29
329.487	31.5
330.73	30
331.975	28.5
333.22	28.5
334.464	29
335.707	29
336.95	29
338.194	31
339.438	28
340.68	28.5
341.923	33
343.166	32
344.407	34
345.649	26
346.892	26.5
348.132	28
349.374	26
350.616	28
351.856	27
353.097	32.5
354.337	31
355.578	28
356.818	27
358.058	29
359.298	30.5
360.536	29
361.776	28.5
363.016	28
364.254	31.5
365.493	28.5
366.731	30.5
367.97	29.5
369.207	27.5
370.446	28
371.683	30.5
372.921	28
374.157	29.5
375.395	26
376.631	27.5
377.868	27
379.104	27.5
380.341	31.5
381.576	32
382.813	24
384.048	26.5
385.284	24
386.518	31.5
387.753	25
388.988	27
390.222	29
391.457	30.5
392.691	30
393.924	28
395.159	30
396.392	28.5
397.624	28
398.858	28
400.091	28
401.323	30
402.556	27
403.788	31.5
405.019	33.5
406.252	27.5
407.483	29
408.714	30
409.945	29
411.177	28.5
412.407	31
413.637	27
414.867	29.5
416.099	32.5
417.328	27
418.558	31
419.787	25
421.016	31
422.246	31
423.475	29
424.703	27.5
425.931	29.5
427.159	27.5
428.388	26
429.616	27
430.843	28.5
432.071	28.5
433.298	32
434.524	30
435.751	31.5
436.977	31.5
438.204	34.5
439.431	29
440.657	31
441.883	30.5
443.108	27.5
444.333	26.5
445.558	25.5
446.783	33
448.008	31.5
449.232	34
450.457	31.5
451.681	28
452.905	35
454.128	29
455.352	25
456.575	28
457.798	28
459.021	33
460.244	31
461.466	28.5
462.689	32.5
463.909	34.5
465.131	33.5
466.353	29
467.575	34
468.796	32
470.017	38
471.238	39
472.459	35.5
473.679	38
474.898	42
476.118	39.5
477.338	43.5
478.558	47
479.778	50.5
480.997	49.5
482.215	54
483.434	56.5
484.653	61
485.871	62.5
487.09	62
488.307	59.5
489.525	64
490.743	61.5
491.96	54
493.176	57
494.394	62
495.611	60.5
496.826	47
498.043	56
499.259	43
500.474	48
501.69	48
502.906	43.5
504.121	44.5
505.336	39
506.551	42
507.765	35.5
508.98	34
510.195	39
511.408	38.5
512.622	33
513.835	34.5
515.049	32.5
516.263	31.5
517.475	31.5
518.689	35
519.9	35
521.113	34.5
522.325	28.5
523.537	33
524.748	34
525.961	36
527.171	29.5
528.383	30
529.594	29
530.805	33
532.015	31.5
533.226	33
534.435	33
535.646	29
536.855	34.5
538.066	32
539.274	30
540.483	28.5
541.693	29
542.901	27.5
544.11	32
545.318	26
546.526	28.5
547.734	27
548.942	30.5
550.149	31
551.357	27.5
552.563	31
553.77	27
554.978	27
556.184	29
557.389	28.5
558.596	31.5
559.802	30.5
561.007	32.5
562.212	26
563.419	34
564.623	29.5
565.828	27
567.032	27
568.238	27
569.442	29
570.646	29.5
571.849	30
573.054	29
574.257	31
575.46	26
576.663	32
577.866	31.5
579.068	28
580.272	33
581.474	24.5
582.676	28
583.877	27
585.079	29
586.28	29.5
587.481	30.5
588.682	29
589.883	30
591.083	24.5
592.285	26
593.485	31.5
594.685	29
595.885	29.5
597.084	31.5
598.284	25
599.483	30.5
600.682	30
601.881	28
603.08	33
604.278	26
605.476	28
606.674	27.5
607.872	30.5
609.07	26
610.266	31.5
611.463	27.5
612.661	28
613.857	29
615.054	32
616.251	28
617.447	28.5
618.643	27.5
619.839	24
621.035	29.5
622.229	31
623.425	34
624.62	26
625.815	26
627.01	30.5
628.205	27.5
629.398	31.5
630.592	29.5
631.786	28
632.98	29
634.172	29.5
635.366	28.5
636.559	30.5
637.753	28.5
638.944	27.5
640.137	28
641.33	31
642.522	29
643.713	28
644.905	30.5
646.097	31
647.287	25.5
648.478	28.5
649.67	26
650.859	29.5
652.05	30.5
653.241	29
654.43	34.5
655.621	32
656.811	30
657.999	33
659.189	29
660.378	31.5
661.567	29
662.755	25.5
663.944	29
665.133	28
666.32	28.5
667.508	31
668.695	30.5
669.884	32
671.07	31
672.258	33.5
673.444	32.5
674.631	32.5
675.817	28
677.004	31.5
678.19	33
679.376	31
680.561	37
681.746	32
682.932	34
684.117	31.5
685.302	39.5
686.487	38.5
687.672	35
688.856	37
690.039	32.5
691.224	36
692.407	35
693.59	36.5
694.774	36.5
695.957	38
697.14	38
698.323	36
699.505	34.5
700.687	41
701.87	44.5
703.052	41
704.233	46
705.414	46
706.597	52
707.778	57.5
708.958	50
710.139	54.5
711.32	45
712.5	49.5
713.68	38.5
714.86	34
716.039	37
717.22	34.5
718.399	33.5
719.578	34
720.757	35.5
721.935	30
723.114	30.5
724.292	25
725.471	28
726.649	32.5
727.827	29.5
729.004	30.5
730.182	29.5
731.359	29.5
732.536	29
733.712	32
734.889	31.5
736.065	28
737.242	31.5
738.418	31.5
739.593	27
740.769	30
741.945	28.5
743.12	29.5
744.295	24.5
745.47	29
746.644	30
747.819	25.5
748.993	30
750.168	28.5
751.342	29
752.515	29.5
753.689	29.5
754.862	28.5
756.036	28.5
757.209	29
758.382	26.5
759.553	28.5
760.725	29
761.898	26
763.07	28.5
764.242	31.5
765.414	28.5
766.584	28
767.755	27
768.927	29
770.098	26.5
771.269	27
772.438	29.5
773.608	28
774.779	31
775.949	30
777.117	26
778.287	32
779.457	30.5
780.626	33
781.794	28
782.963	30
784.132	29.5
785.299	31
786.468	29
787.636	32.5
788.803	34
789.971	30
791.139	30.5
792.305	33.5
793.472	30
794.638	33.5
795.805	33
796.972	30
798.138	33.5
799.304	27
800.469	31.5
801.635	31
802.801	31
803.966	29
805.131	29
806.295	28.5
807.461	34
808.624	28
809.789	30.5
810.952	28.5
812.117	31
813.28	30
814.444	27.5
815.607	28.5
816.769	29.5
817.933	30
819.095	30
820.258	27.5
821.42	25
822.583	29
823.744	29
824.905	30
826.068	27
827.228	31
828.389	28
829.551	30
830.711	29
831.871	23.5
833.032	28
834.192	29
835.352	29.5
836.513	28
837.672	28.5
838.831	28
839.99	31
841.15	31.5
842.308	25
843.466	24.5
844.624	29
845.784	28.5
846.941	27
848.099	29.5
849.256	31
850.414	27.5
851.572	32
852.729	28.5
853.886	29
855.042	32.5
856.198	26.5
857.355	30.5
858.512	26
859.668	30
860.823	33
861.979	27
863.134	32.5
864.289	32
865.444	31
866.599	29
867.753	27
868.908	29.5
870.062	32
871.216	28.5
872.37	31.5
873.523	28.5
874.677	33
875.83	26.5
876.983	29.5
878.136	29
879.289	31
880.441	31.5
881.594	32.5
882.746	27
883.898	27
885.05	24
886.201	29.5
887.353	29
888.504	29.5
889.655	27
890.806	29
891.956	30
893.107	27
894.257	26
895.407	26
896.557	26
897.707	26
898.856	30
900.005	27
901.154	27
902.304	27.5
903.453	29
904.6	24.5
905.749	24
906.897	24
908.046	30
909.192	25
910.34	26.5
911.488	25
912.634	30
913.782	27.5
914.929	25
916.076	22.5
917.222	26.5
918.368	28
919.515	27
920.66	25
921.806	26
922.951	26.5
924.097	29
925.242	28.5
926.387	24
927.532	25.5
928.676	27
929.821	27
930.965	26
932.109	27
933.253	29
934.396	26.5
935.54	25
936.683	27.5
937.826	25
938.969	29
940.112	27
941.254	31
942.397	22.5
943.538	33
944.681	32.5
945.822	23.5
946.964	28
948.105	27
949.246	28.5
950.388	28
951.528	25
952.669	27.5
953.809	27.5
954.949	24
956.09	28
957.229	26
958.369	27
959.509	29
960.648	30.5
961.786	24.5
962.926	22.5
964.065	28.5
965.203	27.5
966.342	26
967.48	26
968.618	27.5
969.755	25
970.894	25
972.031	25
973.168	24
974.305	25
975.441	27
976.579	24.5
977.715	25.5
978.851	28
979.987	25.5
981.123	26.5
982.26	26
983.395	28
984.531	23.5
985.666	28
986.8	23
987.935	23.5
989.07	25
990.204	26.5
991.338	24.5
992.472	26.5
993.607	30
994.741	27.5
995.874	26.5
997.008	23.5
998.141	28.5
999.274	23
1000.41	23.5
1001.54	27
1002.67	25
1003.8	26.5
1004.94	23
1006.07	26
1007.2	24.5
1008.33	31
1009.46	26
1010.59	26
1011.72	26
1012.85	20.5
1013.99	26
1015.12	25.5
1016.25	27.5
1017.38	24.5
1018.51	24
1019.63	23
1020.76	25.5
1021.89	24.5
1023.02	21
1024.15	28
1025.28	24
1026.41	23
1027.54	24.5
1028.67	27
1029.79	29.5
1030.92	24
1032.05	24.5
1033.18	22
1034.3	25.5
1035.43	30
1036.56	26
1037.68	27.5
1038.81	25
1039.94	24
1041.06	29
1042.19	20
1043.31	27
1044.44	25
1045.57	26.5
1046.69	27
1047.82	26
1048.94	25.5
1050.07	24
1051.19	27.5
1052.31	24.5
1053.44	25.5
1054.56	27
1055.69	27.5
1056.81	22
1057.93	24.5
1059.06	23.5
1060.18	20
1061.3	24.5
1062.42	24.5
1063.55	26
1064.67	26
1065.79	23
1066.91	23
1068.03	25
1069.16	24
1070.28	26.5
1071.4	25.5
1072.52	25
1073.64	27
1074.76	26
1075.88	21
1077	23.5
1078.12	29
1079.24	25
1080.36	25.5
1081.48	28
1082.6	25.5
1083.72	27.5
1084.84	27.5
1085.96	26.5
1087.08	25.5
1088.2	20
1089.31	24
1090.43	27.5
1091.55	25.5
1092.67	25
1093.78	24
1094.9	25.5
1096.02	25.5
1097.14	23
1098.25	26.5
1099.37	30
1100.49	23.5
1101.6	27
1102.72	20
1103.83	23.5
1104.95	25
1106.07	28
1107.18	24
1108.3	25.5
1109.41	26
1110.52	22.5
1111.64	24.5
1112.75	30
1113.87	24.5
1114.98	28.5
1116.1	26
1117.21	24
1118.32	26.5
1119.44	28
1120.55	24
1121.66	27.5
1122.78	27.5
1123.89	24
1125	24
1126.11	27
1127.23	27
1128.34	23
1129.45	24
1130.56	25.5
1131.67	21.5
1132.78	26.5
1133.89	27.5
1135	23
1136.12	24.5
1137.23	24.5
1138.34	26
1139.45	25
1140.56	24
1141.67	24
1142.78	24
1143.89	23.5
1144.99	21
1146.1	29.5
1147.21	26.5
1148.32	26
1149.43	29
1150.54	24.5
1151.65	27
1152.75	27
1153.86	25.5
1154.97	23.5
1156.08	27
1157.18	27.5
1158.29	25.5
1159.4	21
1160.5	24.5
1161.61	22.5
1162.72	24.5
1163.82	21.5
1164.93	24
1166.03	25
1167.14	27
1168.24	27
1169.35	25.5
1170.45	28.5
1171.56	22.5
1172.66	24
1173.77	24.5
1174.87	23
1175.98	23.5
1177.08	23
1178.19	26
1179.29	26
1180.39	26
1181.5	25.5
1182.6	28
1183.7	20
1184.8	25.5
1185.91	28
1187.01	27.5
1188.11	25
1189.21	23.5
1190.32	22
1191.42	24.5
1192.52	29
1193.62	24.5
1194.72	23.4966
1195.82	22.0146
1196.92	24.0965
1198.02	25.1955
1199.12	25.0218
1200.22	26.9247
1201.32	26.435
1202.42	23.4636
1203.52	23.9727
1204.62	27.8478
1205.72	24.7718
1206.82	21.9869
1207.92	25.318
1209.02	24.0565
1210.12	22.6349
1211.22	26.0586
1212.31	26.0891
1213.41	23.5742
1214.51	22.834
1215.61	27.2864
1216.71	26.011
1217.8	26.4889
1218.9	27.1281
1220	20.217
1221.09	24.3652
1222.19	26.9391
1223.29	24.4615
1224.38	24.5684
1225.48	21.2568
1226.58	24.9536
1227.67	24.3244
1228.77	23.5792
1229.86	24.6801
1230.96	22.4166
1232.05	23.1893
1233.15	25.957
1234.24	23.0409
1235.34	23.6178
1236.43	24.8087
1237.52	24.6418
1238.62	23.8537
1239.71	25.2887
1240.81	23.7689
1241.9	26.9442
1242.99	26.5589
1244.09	23.223
1245.18	23.4121
1246.27	24.4785
1247.36	24.5967
1248.46	22.0443
1249.55	26.5975
1250.64	22.636
1251.73	21.025
1252.82	21.7302
1253.92	24.5022
1255.01	27.0232
1256.1	26.6631
1257.19	28.2992
1258.28	27.0629
1259.37	26.4654
1260.46	27.6989
1261.55	24.6885
1262.64	27.133
1263.73	27.0975
1264.82	24.5684
1265.91	26.9432
1267	27.422
1268.09	25.8726
1269.18	25.8684
1270.27	28.0152
1271.36	25.2219
1272.45	24.3532
1273.53	23.2356
1274.62	22.7343
1275.71	24.8657
1276.8	24.1148
1277.89	24.7718
1278.97	25.8075
1280.06	21.9017
1281.15	24.9822
1282.23	22.87
1283.32	24.5058
1284.41	24.5073
1285.49	24.4538
1286.58	25.5725
1287.67	23.8508
1288.75	24.4967
1289.84	26.1234
1290.92	26.5951
1292.01	24.7604
1293.09	22.4464
1294.18	22.0046
1295.26	25.1929
1296.35	23.7793
1297.43	23.7063
1298.52	25.9007
1299.6	27.8545
1300.69	25.5836
1301.77	25.1544
1302.85	23.3497
1303.94	25.3364
1305.02	25.8027
1306.1	26.5512
1306.42	27
1307.51	21
1308.59	26.5
1309.68	22.5
1310.77	26
1311.86	23.5
1312.95	22.5
1314.03	25.5
1315.12	24
1316.21	26.5
1317.29	21
1318.38	23.5
1319.47	24.5
1320.55	24
1321.64	24.5
1322.72	21
1323.81	25
1324.89	22.5
1325.98	25.5
1327.07	21
1328.15	27.5
1329.24	25.5
1330.32	26
1331.4	25.5
1332.49	26.5
1333.57	22.5
1334.66	24
1335.74	25.5
1336.82	21
1337.91	27
1338.99	25
1340.07	27
1341.16	21.5
1342.24	30
1343.32	24.5
1344.4	24
1345.49	24.5
1346.57	23
1347.65	27.5
1348.73	26.5
1349.81	25.5
1350.9	26
1351.98	27
1353.06	22
1354.14	24
1355.22	26.5
1356.3	23.5
1357.38	23.5
1358.46	25
1359.54	25.5
1360.62	23.5
1361.7	28.5
1362.78	28.5
1363.86	26.5
1364.94	23
1366.02	26
1367.1	26.5
1368.17	23
1369.25	23
1370.33	26.5
1371.41	17
1372.49	24
1373.57	25.5
1374.64	20.5
1375.72	27.5
1376.8	27
1377.87	29
1378.95	20
1380.03	23
1381.1	25.5
1382.18	25.5
1383.26	23.5
1384.33	22.5
1385.41	22
1386.49	22
1387.56	27.5
1388.64	26
1389.71	29
1390.79	26
1391.86	25
1392.94	26
1394.01	29.5
1395.08	27
1396.16	30
1397.23	29
1398.31	30.5
1399.38	30
1400.45	28
1401.53	30
1402.6	32.5
1403.67	26
1404.75	30
1405.82	31
1406.89	34.5
1407.96	30
1409.04	32
1410.11	31.5
1411.18	33.5
1412.25	33.5
1413.32	33
1414.39	35.5
1415.47	35
1416.54	32
1417.61	26
1418.68	28
1419.75	30.5
1420.82	30
1421.89	28.5
1422.96	26.5
1424.03	25
1425.1	26.5
1426.17	29.5
1427.24	29
1428.31	27.5
1429.38	26.5
1430.44	27
1431.51	25
1432.58	30.5
1433.65	26.5
1434.72	26
1435.79	27.5
1436.85	22
1437.92	27
1438.99	24.5
1440.05	28
1441.12	25
1442.19	25
1443.26	28.5
1444.32	25.5
1445.39	25.5
1446.46	25.5
1447.52	23.5
1448.59	26
1449.65	25.5
1450.72	23.5
1451.78	25.5
1452.85	23.5
1453.91	26
1454.98	29
1456.04	25
1457.11	25.5
1458.17	25
1459.24	28
1460.3	26
1461.36	25
1462.43	26.5
1463.49	28
1464.56	23.5
1465.62	24
1466.68	27
1467.74	24
1468.81	29.5
1469.87	27
1470.93	26
1471.99	22.5
1473.06	22
1474.12	27
1475.18	26.5
1476.24	29.5
1477.3	27
1478.36	25.5
1479.42	26
1480.49	27
1481.55	24
1482.61	22
1483.67	25
1484.73	28.5
1485.79	29
1486.85	25
1487.91	28
1488.97	27
1490.03	26
1491.09	28
1492.14	27.5
1493.2	26
1494.26	28.5
1495.32	30
1496.38	30.5
1497.44	29
1498.49	28
1499.55	24.5
1500.61	27.5
1501.67	28
1502.72	26
1503.78	28
1504.84	25
1505.89	24.5
1506.95	28.5
1508.01	24.5
1509.07	25
1510.12	26.5
1511.18	27.5
1512.23	29
1513.29	24
1514.34	25
1515.4	27.5
1516.45	29.5
1517.51	26.5
1518.56	26
1519.62	25.5
1520.67	26.5
1521.73	27
1522.78	27
1523.84	19
1524.89	27.5
1525.94	24.5
1527	24.5
1528.05	26.5
1529.1	28
1530.16	25
1531.21	27.5
1532.26	29
1533.32	26
1534.37	27
1535.42	25
1536.47	28
1537.52	26
1538.57	23.5
1539.63	29
1540.68	29
1541.73	27
1542.78	26
1543.83	26
1544.88	26
1545.93	24.5
1546.98	30
1548.03	22
1549.08	29
1550.13	22
1551.18	25.5
1552.23	26.5
1553.28	26.5
1554.33	27
1555.38	26.5
1556.43	28
1557.48	30
1558.53	24.5
1559.57	24
1560.62	28.5
1561.67	27.5
1562.72	28
1563.77	27.5
1564.81	29.5
1565.86	25.5
1566.91	29.5
1567.96	28
1569	29
1570.05	24.5
1571.09	23
1572.14	29
1573.19	25
1574.23	30
1575.28	26
1576.33	24.5
1577.37	25
1578.42	22
1579.46	23.5
1580.51	25
1581.55	24.5
1582.6	25.5
1583.64	22.5
1584.69	30.5
1585.73	27
1586.77	27
1587.82	29.5
1588.86	27
1589.91	17.5
1590.95	24.5
1591.99	21
1593.04	23.5
1594.08	24
1595.12	25
1596.16	26
1597.21	25.5
1598.25	25.5
1599.29	24
1600.33	19
1601.37	25
1602.42	26
1603.46	28
1604.5	24.5
1605.54	26.5
1606.58	26.5
1607.62	24
1608.66	27
1609.7	25.5
1610.74	26
1611.78	26.5
1612.82	27
1613.86	27.5
1614.9	24.5
1615.94	30.5
1616.98	26
1618.02	28.5
1619.06	24
1620.1	28
1621.14	23.5
1622.18	25
1623.21	25.5
1624.25	26.5
1625.29	24
1626.33	24.5
1627.37	26.5
1628.4	26
1629.44	23
1630.48	24
1631.52	26.5
1632.55	24
1633.59	26
1634.63	24
1635.66	24.5
1636.7	27
1637.73	27.5
1638.77	25
1639.81	25
1640.84	25.5
1641.88	24.5
1642.91	26.5
1643.95	26
1644.98	23
1646.02	27
1647.05	25
1648.09	27.5
1649.12	26
1650.16	25
1651.19	28
1652.22	27.5
1653.26	27
1654.29	25.5
1655.32	25.5
1656.36	27.5
1657.39	26.5
1658.42	32.5
1659.46	25
1660.49	25
1661.52	31
1662.55	27.5
1663.59	26
1664.62	25
1665.65	27
1666.68	26
1667.71	24
1668.74	26
1669.77	22
1670.81	22
1671.84	26.5
1672.87	26
1673.9	25
1674.93	26
1675.96	26.5
1676.99	24
1678.02	25
1679.05	24
1680.08	27.5
1681.11	22.5
1682.13	22
1683.16	25
1684.19	27.5
1685.22	23
1686.25	28
1687.28	24.5
1688.31	23
1689.33	25
1690.36	27
1691.39	27.5
1692.42	22
1693.45	25.5
1694.47	24
1695.5	25.5
1696.53	23.5
1697.55	27
1698.58	26.5
1699.61	25
1700.63	30
1701.66	29.5
1702.68	24
1703.71	29
1704.74	22
1705.76	23
1706.79	28.5
1707.81	26
1708.84	24
1709.86	30
1710.89	28.5
1711.91	23.5
1712.94	25.5
1713.96	26
1714.98	28
1716.01	29
1717.03	25.5
1718.05	23.5
1719.08	24
1720.1	26.5
1721.12	25
1722.15	25
1723.17	29
1724.19	27
1725.22	27
1726.24	24.5
1727.26	25
1728.28	17.5
1729.3	28
1730.32	23.5
1731.35	27.5
1732.37	23.5
1733.39	26
1734.41	25.5
1735.43	27.5
1736.45	23
1737.47	27
1738.49	24.5
1739.51	24
1740.53	24
1741.55	23
1742.57	24
1743.59	28
1744.61	30
1745.63	25
1746.65	23.5
1747.67	24
1748.69	27
1749.71	24
1750.72	27
1751.74	24
1752.76	25
1753.78	22.5
1754.8	22
1755.81	22
1756.83	23.5
1757.85	24
1758.87	26.5
1759.88	23
1760.9	30
1761.92	23.5
1762.93	27
1763.95	26
1764.97	21
1765.98	29
1767	26
1768.01	26
1769.03	28
1770.05	29
1771.06	25
1772.08	25.5
1773.09	25.5
1774.11	25
1775.12	25
1776.13	25.5
1777.15	27.5
1778.16	28.5
1779.18	24
1780.19	26
1781.2	26.5
1782.22	24
1783.23	25.5
1784.24	26
1785.26	24
1786.27	27.5
1787.28	26.5
1788.3	24
1789.31	24
1790.32	25.5
1791.33	23.5
1792.35	24
1793.36	23
1794.37	22.5
1795.38	27.5
1796.39	24
1797.4	25.5
1798.41	20
1799.43	28.5
1800.44	23
1801.45	25
1802.46	23
1803.47	29.5
1804.48	24.5
1805.49	29.5
1806.5	21.5
1807.51	24
1808.52	25.5
1809.53	23
1810.53	26.5
1811.54	27
1812.55	23.5
1813.56	26
1814.57	28
1815.58	24.5
1816.59	26.5
1817.6	23.5
1818.6	23.5
1819.61	25
1820.62	26
1821.63	24.5
1822.63	24.5
1823.64	24
1824.65	26
1825.65	24
1826.66	24.5
1827.67	25
1828.67	26
1829.68	26
1830.69	27
1831.69	23.5
1832.7	22.5
1833.7	25.5
1834.71	20.5
1835.71	25
1836.72	26
1837.72	26
1838.73	26.5
1839.73	18.5
1840.74	26
1841.74	20.5
1842.75	24.5
1843.75	25.5
1844.75	28
1845.76	28
1846.76	25
1847.76	23
1848.77	21
1849.77	22.5
1850.77	23.5
1851.78	24
1852.78	25.5
1853.78	25
1854.78	30.5
1855.79	25.5
1856.79	26.5
1857.79	26
1858.79	20.5
1859.79	25.5
1860.8	24
1861.8	23
1862.8	27
1863.8	26.5
1864.8	27
1865.8	28
1866.8	22.5
1867.8	26
1868.8	22
1869.8	27
1870.8	26.5
1871.8	25
1872.8	26.5
1873.8	26.5
1874.8	25.5
1875.8	29
1876.8	26
1877.8	24.5
1878.79	27
1879.79	25
1880.79	24
1881.79	29
1882.79	25
1883.79	25.5
1884.78	24.5
1885.78	24
1886.78	26.5
1887.77	25.5
1888.77	23
1889.77	25.5
1890.77	23
1891.76	26
1892.76	26.5
1893.76	21
1894.75	26.5
1895.75	26.5
1896.74	25
1897.74	26.5
1898.73	27
1899.73	26
1900.72	26
1901.72	25.5
1902.72	26
1903.71	20
1904.7	22
1905.7	20
1906.69	24
1907.69	29
1908.68	28
1909.67	26.5
1910.67	21
1911.66	26.5
1912.66	24
1913.65	27
1914.64	27
1915.63	24.5
1916.63	27.5
1917.62	21
1918.61	24
1919.6	23
1920.6	25
1921.59	24
1922.58	26.5
1923.57	25
1924.56	22
1925.56	26
1926.55	22
1927.54	25
1928.53	26
1929.52	21.5
1930.51	23
1931.5	24
1932.49	23.5
1933.48	22
1934.47	24
1935.46	22.5
1936.45	26.5
1937.44	26.5
1938.43	20.5
1939.42	25
1940.41	24
1941.4	25
1942.39	23
1943.37	25.5
1944.36	24
1945.35	24
1946.34	25
1947.33	24
1948.32	23.75
1949.3	22
1950.29	26.5
1951.28	27.5
1952.27	28
1953.25	24.5
1954.24	26
1955.23	24.5
1956.21	24.5
1957.2	25
1958.19	27.5
1959.17	26.5
1960.16	25.5
1961.14	23
1962.13	23.5
1963.12	22
1964.1	25
1965.09	25.5
1966.07	21
1967.06	27
1968.04	21.5
1969.03	27.5
1970.01	24.5
1970.99	24.5
1971.98	24
1972.96	23.5
1973.95	25.5
1974.93	24.5
1975.92	25
1976.9	24
1977.88	24
1978.87	23.5
1979.85	24
1980.83	29.5
1981.81	26
1982.8	26.5
1983.78	23
1984.76	25
1985.74	24.5
1986.73	25
1987.71	26
1988.69	25.5
1989.67	25
1990.65	25
1991.63	22
1992.61	24.5
1993.59	23
1994.58	25
1995.56	26.5
1996.54	25.5
1997.52	21.5
1998.5	22.5
1999.48	19
2000.46	25.5
2001.44	23.5
2002.42	26.5
2003.4	21
2004.38	23.5
2005.35	25.5
2006.33	23.5
2007.31	25.5
2008.29	24.5
2009.27	21
2010.25	25.5
2011.23	24.5
2012.2	24
2013.18	23
2014.16	25.5
2015.14	24.5
2016.11	25
2017.09	25.5
2018.07	25
2019.05	23
2020.02	23.5
2021	24
2021.98	22.5
2022.95	28
2023.93	24.5
2024.91	22
2025.88	23.5
2026.86	23
2027.83	25
2028.81	25
2029.78	26
2030.76	24
2031.73	22
2032.71	23.5
2033.68	23.5
2034.66	24.5
2035.63	21
2036.61	23
2037.58	22
2038.56	26
2039.53	26
2040.5	24
2041.48	19.5
2042.45	24
2043.42	23
2044.4	26
2045.37	22.5
2046.34	26.5
2047.32	24
2048.29	22.5
2049.26	24
2050.23	23.5
2051.2	30
2052.18	22
2053.15	23.5
2054.12	27.5
2055.09	21
2056.06	20.5
2057.03	23
2058	23
2058.98	25.5
2059.95	25
2060.92	23
2061.89	23
2062.86	23
2063.83	22.5
2064.8	22
2065.77	22.5
2066.74	23
2067.71	20
2068.68	27
2069.65	20.5
2070.61	25
2071.58	17
2072.55	21.5
2073.52	20.5
2074.49	25.5
2075.46	21
2076.43	22.5
2077.4	24
2078.36	23.5
2079.33	19
2080.3	21.5
2081.27	22.5
2082.23	19.5
2083.2	24.5
2084.17	24.5
2085.13	27
2086.1	24
2087.07	21
2088.03	24.5
2089	23
2089.97	24
2090.93	25
2091.9	22.5
2092.86	22.5
2093.83	21
2094.8	27
2095.76	24.5
2096.73	25
2097.69	23
2098.66	21.5
2099.62	24
2100.58	25
2101.55	23
2102.51	26
2103.48	25
2104.44	20
2105.41	21.5
2106.37	26
2107.33	28
2108.3	27.5
2109.26	25.5
2110.22	25.5
2111.19	25
2112.15	23.5
2113.11	21.5
2114.07	23
2115.04	21.5
2116	25
2116.96	23
2117.92	20.5
2118.88	24.5
2119.85	24
2120.81	23.5
2121.77	23.5
2122.73	22
2123.69	25
2124.65	22
2125.61	24
2126.57	22
2127.53	22.5
2128.49	22
2129.45	22
2130.41	25
2131.37	22
2132.33	24
2133.29	20
2134.25	24.5
2135.21	22.5
2136.17	24
2137.13	24
2138.09	22.5
2139.05	24.5
2140.01	26.5
2140.96	24
2141.92	25.5
2142.88	25.9649
2143.84	19.0172
2144.8	21.5284
2145.75	20.1395
2146.71	22.5106
2147.67	22.0203
2148.63	20.2444
2149.58	20.7393
2150.54	25.9734
2151.5	24.5957
2152.45	21.4722
2153.41	18.4217
2154.37	20.64
2155.32	23.5655
2156.28	24.8739
2157.23	21.5572
2158.19	22.9648
2159.15	24.9509
2160.1	25.5006
2161.06	22.7762
2162.01	23.7681
2162.97	21.0794
2163.92	22.2624
2164.88	21.1172
2165.83	22.6914
2166.78	24.7589
2167.74	23.2581
2168.69	22.8752
2169.65	23.4101
2170.6	24.3756
2171.56	25.1851
2172.51	24.0559
2173.46	23.2802
2174.42	22.4226
2175.37	22.9822
2176.32	22.2776
2177.28	23.0168
2178.23	19.9539
2179.18	19.6585
2180.13	22.5286
2181.08	21.423
2182.04	22.0615
2182.99	22.7158
2183.94	24.759
2184.89	22.6041
2185.84	24.3518
2186.8	22.413
2187.75	24.1063
2188.7	23.7495
2189.65	24.3734
2190.6	24.9513
2191.55	21.495
2192.5	22.9478
2193.45	21.9494
2194.4	23.3748
2195.35	23.4612
2196.3	20.7427
2197.25	19.797
2198.2	21.2456
2199.15	22.2916
2200.1	21.7784
2201.05	20.5532
2202	22.1409
2202.95	21.2016
2203.9	22.5394
2204.85	23.8479
2205.79	23.2729
2206.74	21.4656
2207.69	23.8188
2208.64	21.0567
2209.59	17.9464
2210.53	25.5691
2211.48	22.2271
2212.43	23.4431
2213.38	21.3638
2214.32	21.3665
2215.27	24.1664
2216.22	23.2956
2217.17	21.0744
2218.11	23.2784
2219.06	21.5646
2220.01	22.5267
2220.95	24.4317
2221.9	22.2608
2222.84	21.5335
2223.79	23.2556
2224.73	23.2143
2225.68	22.1407
2226.63	23.144
2227.57	22.2392
2228.52	25.1773
2229.46	24.9126
2230.41	22.1536
2231.35	22.6861
2232.3	23.893
2233.24	23.1424
2234.18	23.0947
2235.13	22.5497
2236.07	25.8678
2237.02	21.5553
2237.96	24.4652
2238.9	23.7286
2239.85	22.6312
2240.08	22.5
2241.03	25
2241.97	24.5
2242.92	17.5
2243.87	23.5
2244.82	23
2245.76	24.5
2246.71	23
2247.66	22
2248.61	23.5
2249.55	20.5
2250.5	22.5
2251.45	21.5
2252.39	19
2253.34	24
2254.29	21
2255.23	24.5
2256.18	20.5
2257.12	23.5
2258.07	24
2259.01	20.5
2259.96	21.5
2260.9	22
2261.85	23
2262.79	20
2263.74	22.5
2264.68	25.5
2265.63	27.5
2266.57	23.5
2267.52	25.5
2268.46	22
2269.41	21
2270.35	25
2271.29	25.5
2272.24	26.5
2273.18	25
2274.12	24
2275.07	22.5
2276.01	23.5
2276.95	21
2277.89	23
2278.84	22
2279.78	24
2280.72	24
2281.66	25
2282.6	25
2283.55	23
2284.49	24
2285.43	23
2286.37	22
2287.31	23.5
2288.25	26
2289.2	20.5
2290.14	20
2291.08	21.5
2292.02	24
2292.96	20
2293.9	22.5
2294.84	24.5
2295.78	23
2296.72	21.5
2297.66	16
2298.6	21.5
2299.54	23.5
2300.48	21
2301.42	24
2302.35	22.5
2303.29	25
2304.23	24
2305.17	25
2306.11	20
2307.05	21
2307.99	22
2308.92	22.5
2309.86	25
2310.8	25.5
2311.74	22.5
2312.67	25.5
2313.61	24
2314.55	21
2315.49	20
2316.42	23
2317.36	24
2318.3	26
2319.23	24.5
2320.17	22.5
2321.1	23.5
2322.04	24.5
2322.98	21
2323.91	23.5
2324.85	24.5
2325.78	28
2326.72	25.5
2327.66	23
2328.59	25
2329.52	24.5
2330.46	24
2331.39	21.5
2332.33	27
2333.26	21.5
2334.2	26
2335.13	25.5
2336.07	25
2337	22
2337.93	23
2338.87	26
2339.8	21
2340.73	22
2341.67	21.5
2342.6	23.5
2343.53	21.5
2344.46	24
2345.4	21
2346.33	23
2347.26	24
2348.19	24.5
2349.13	25
2350.06	24.5
2350.99	24.5
2351.92	17.5
2352.85	23
2353.79	26.5
2354.72	24
2355.65	23
2356.58	28
2357.51	23.5
2358.44	25
2359.37	24
2360.3	25
2361.23	22
2362.16	25
2363.09	23.5
2364.02	23
2364.95	26
2365.88	26
2366.81	21.5
2367.74	23
2368.67	21.5
2369.6	20.5
2370.53	22.5
2371.45	21.5
2372.38	25.5
2373.31	24.5
2374.24	26
2375.17	26
2376.1	25
2377.02	24
2377.95	24
2378.88	23
2379.81	27
2380.73	22
2381.66	23
2382.59	25
2383.52	27
2384.44	21.5
2385.37	27
2386.3	27.5
2387.22	23
2388.15	23.5
2389.07	26
2390	26.5
2390.93	25
2391.85	22.5
2392.78	25.5
2393.7	25.5
2394.63	22.5
2395.55	22
2396.48	24
2397.4	25.5
2398.33	22
2399.25	21
2400.18	23.5
2401.1	25
2402.03	23
2402.95	27.5
2403.87	25
2404.8	21
2405.72	27
2406.64	21
2407.57	26.5
2408.49	24.5
2409.41	24
2410.34	28
2411.26	23
2412.18	23.5
2413.1	23
2414.03	24
2414.95	22
2415.87	24.5
2416.79	24
2417.72	26
2418.64	25.5
2419.56	22
2420.48	25
2421.4	23
2422.32	23.5
2423.24	26.5
2424.16	24
2425.09	23
2426.01	25.5
2426.93	24
2427.85	23
2428.77	23
2429.69	26.5
2430.61	24.5
2431.53	26
2432.45	20
2433.37	24
2434.29	26.5
2435.21	25.5
2436.12	28.5
2437.04	24
2437.96	25.5
2438.88	25
2439.8	21
2440.72	25
2441.64	20
2442.55	27
2443.47	26
2444.39	24
2445.31	24
2446.23	24.5
2447.14	25.5
2448.06	24
2448.98	25.5
2449.9	22
2450.81	29
2451.73	27.5
2452.65	22
2453.56	23.5
2454.48	21.5
2455.39	24.5
2456.31	22
2457.23	25
2458.14	27.5
2459.06	25.5
2459.97	25
2460.89	23
2461.8	26
2462.72	28
2463.64	26
2464.55	24
2465.47	25
2466.38	27
2467.29	26.5
2468.21	29.5
2469.12	23.5
2470.04	24
2470.95	24.5
2471.86	26
2472.78	20
2473.69	24.5
2474.61	24.5
2475.52	27
2476.43	22.5
2477.35	24
2478.26	21
2479.17	25
2480.08	24
2481	25.5
2481.91	24
2482.82	26
2483.73	25.5
2484.64	29
2485.56	24
2486.47	26.5
2487.38	24
2488.29	25
2489.2	24
2490.11	25.5
2491.03	23
2491.94	26.5
2492.85	26
2493.76	20
2494.67	20.5
2495.58	20
2496.49	23.5
2497.4	24
2498.31	21
2499.22	25
2500.13	27.5
2501.04	25.5
2501.95	25
2502.86	23.5
2503.77	25
2504.67	23
2505.58	25.5
2506.49	23
2507.4	20
2508.31	26.5
2509.22	25
2510.13	22.5
2511.03	26
2511.94	24
2512.85	22
2513.76	22.5
2514.66	17
2515.57	21
2516.48	24
2517.39	26.5
2518.29	24.5
2519.2	24
2520.11	21.5
2521.01	24
2521.92	24
2522.83	21.5
2523.73	24
2524.64	25
2525.54	24
2526.45	25
2527.36	23.5
2528.26	22.5
2529.17	22
2530.07	25
2530.98	25.5
2531.88	25
2532.79	25
2533.69	25
2534.6	23.5
2535.5	24.5
2536.41	24.5
2537.31	20.5
2538.21	26.5
2539.12	23
2540.02	25.5
2540.93	18.5
2541.83	23
2542.73	25.5
2543.64	23
2544.54	25
2545.44	21
2546.34	25
2547.25	28
2548.15	29.5
2549.05	27
2549.96	24
2550.86	27
2551.76	26
2552.66	25
2553.56	26
2554.46	24
2555.37	23
2556.27	24
2557.17	25.5
2558.07	23.5
2558.97	22
2559.87	25
2560.77	25.5
2561.67	26
2562.57	26.5
2563.47	23
2564.37	28.5
2565.27	23.5
2566.17	24.5
2567.07	24
2567.97	28
2568.87	27
2569.77	25
2570.67	26
2571.57	24
2572.47	22.5
2573.37	21
2574.27	27.5
2575.17	24
2576.06	23.5
2576.96	25.5
2577.86	27
2578.76	23
2579.66	22.5
2580.56	26.5
2581.45	23.5
2582.35	25
2583.25	23.5
2584.15	23.5
2585.04	24.5
2585.94	25.5
2586.84	24
2587.73	25.5
2588.63	20
2589.53	20
2590.42	21.5
2591.32	26
2592.22	23.5
2593.11	24
2594.01	23
2594.9	27
2595.8	22.5
2596.69	24.5
2597.59	23
2598.48	24.5
2599.38	21
2600.28	25
2601.17	21
2602.06	24
2602.96	26
2603.85	22.5
2604.75	24
2605.64	25
2606.54	27.5
2607.43	28
2608.32	24
2609.22	26.5
2610.11	26
2611	26
2611.9	22
2612.79	22
2613.68	24
2614.58	26.5
2615.47	24
2616.36	25
2617.25	22.5
2618.15	25.5
2619.04	24
2619.93	24.5
2620.82	26
2621.71	25
2622.61	22.5
2623.5	24
2624.39	21
2625.28	30
2626.17	24
2627.06	24
2627.95	24.5
2628.84	25.5
2629.74	23
2630.63	26
2631.52	25
2632.41	25.5
2633.3	24
2634.19	23
2635.08	23.5
2635.97	24
2636.85	23
2637.74	20
2638.63	24.5
2639.52	20
2640.41	21.5
2641.3	26.5
2642.19	24
2643.08	25
2643.97	20
2644.86	23
2645.74	24
2646.63	24.5
2647.52	27.5
2648.41	28.5
2649.3	25
2650.18	24.5
2651.07	22
2651.96	24
2652.85	19.5
2653.73	24
2654.62	23.5
2655.51	23
2656.39	22
2657.28	24
2658.17	24
2659.05	25
2659.94	22.5
2660.83	24
2661.71	27.5
2662.6	22
2663.48	24
2664.37	22.5
2665.25	26.5
2666.14	23.5
2667.02	24.5
2667.91	24
2668.79	27.5
2669.68	25
2670.56	27.5
2671.45	21.5
2672.33	29
2673.22	22
2674.1	22
2674.98	28.5
2675.87	22
2676.75	24
2677.64	22
2678.52	25
2679.4	24
2680.29	25
2681.17	26
2682.05	25.5
2682.94	27.5
2683.82	25
2684.7	22.5
2685.58	26
2686.47	22
2687.35	21
2688.23	27.5
2689.11	23.5
2689.99	28
2690.88	24.5
2691.76	23
2692.64	24
2693.52	24
2694.4	24.5
2695.28	18
2696.16	22.5
2697.04	22
2697.92	24
2698.8	24
2699.69	25.5
2700.57	23
2701.45	27.5
2702.33	25.5
2703.21	26.5
2704.09	23.5
2704.97	25.5
2705.84	25
2706.72	23.5
2707.6	26
2708.48	22.5
2709.36	26.5
2710.24	28.5
2711.12	26
2712	25
2712.88	24
2713.75	21.5
2714.63	24
2715.51	22.5
2716.39	22
2717.27	27.5
2718.14	27.5
2719.02	26
2719.9	26
2720.78	24
2721.65	23.5
2722.53	21.5
2723.41	23.5
2724.28	23
2725.16	28
2726.04	27
2726.92	30
2727.79	24
2728.67	28
2729.54	22.5
2730.42	23.5
2731.3	19
2732.17	24
2733.05	24
2733.92	25
2734.8	21
2735.67	23
2736.55	26
2737.42	24
2738.3	26.5
2739.17	24
2740.05	23
2740.92	23.5
2741.79	22.5
2742.67	21.5
2743.54	25.5
2744.42	25
2745.29	25
2746.16	23.5
2747.04	23
2747.91	28.5
2748.78	23
2749.66	21
2750.53	23
2751.4	21
2752.28	22.5
2753.15	24
2754.02	24
2754.89	25.5
2755.77	19.5
2756.64	22
2757.51	26
2758.38	22.5
2759.25	22
2760.13	21
2761	27
2761.87	24
2762.74	25
2763.61	24.5
2764.48	24.5
2765.35	24
2766.22	29
2767.09	23.5
2767.96	23.5
2768.83	20.5
2769.71	22
2770.57	22
2771.44	25
2772.32	22
2773.18	26
2774.05	28
2774.92	21.5
2775.79	29
2776.66	22.5
2777.53	24.5
2778.4	23
2779.27	25.5
2780.14	28
2781.01	27
2781.87	21
2782.74	28.5
2783.61	29
2784.48	24
2785.35	29.5
2786.21	24.5
2787.08	26
2787.95	26.5
2788.82	27
2789.69	25.5
2790.55	26.5
2791.42	31
2792.29	24.5
2793.15	23
2794.02	22
2794.89	25
2795.75	23.5
2796.62	25
2797.49	23.5
2798.35	25
2799.22	25.5
2800.08	22.5
2800.95	24.25
2801.81	26
2802.68	26
2803.55	24.5
2804.41	27
2805.28	27
2806.14	27
2807	27
2807.87	27
2808.73	27.5
2809.6	24
2810.46	25
2811.33	29
2812.19	25
2813.06	29.5
2813.92	28
2814.78	26.5
2815.65	29
2816.51	24
2817.37	24.5
2818.24	26
2819.1	28
2819.96	26
2820.83	24.5
2821.69	26.5
2822.55	28
2823.41	25.5
2824.28	24.5
2825.14	25.5
2826	23.5
2826.86	24.5
2827.72	26
2828.58	24
2829.45	28.5
2830.31	32.5
2831.17	26
2832.03	25
2832.89	26
2833.75	26.5
2834.61	26
2835.47	25.5
2836.33	25.5
2837.2	23
2838.05	23
2838.92	25.5
2839.78	27
2840.64	27
2841.49	25
2842.35	29.5
2843.21	26
2844.07	24
2844.93	27
2845.79	24.5
2846.65	27.5
2847.51	29.5
2848.37	29
2849.23	27.5
2850.09	29.5
2850.94	25
2851.8	27
2852.66	29
2853.52	25.5
2854.38	27.5
2855.23	25.5
2856.09	28
2856.95	25
2857.81	27.5
2858.67	26.5
2859.52	28.5
2860.38	23.5
2861.24	26
2862.09	27
2862.95	25
2863.81	26
2864.66	27.5
2865.52	27.5
2866.38	28.5
2867.23	25.5
2868.09	27
2868.94	24.5
2869.8	22
2870.65	27.5
2871.51	29.5
2872.37	27.5
2873.22	29.5
2874.08	29.5
2874.93	30.5
2875.79	28.5
2876.64	32
2877.49	33
2878.35	29.5
2879.2	32
2880.06	34
2880.91	30.5
2881.77	31
2882.62	36
2883.47	35
2884.33	30.5
2885.18	34
2886.03	33.5
2886.89	37
2887.74	36.5
2888.59	38.5
2889.45	40
2890.3	42.5
2891.15	40
2892	43.5
2892.86	38
2893.71	44
2894.56	49
2895.41	45.5
2896.27	52.5
2897.12	56.5
2897.97	53.5
2898.82	57
2899.67	59.5
2900.52	69
2901.37	60
2902.23	63
2903.08	69.5
2903.93	68.5
2904.78	64
2905.63	75
2906.48	70
2907.33	72
2908.18	73.5
2909.03	70
2909.88	63
2910.73	56
2911.58	64
2912.43	58
2913.28	52
2914.13	48.5
2914.98	44.5
2915.83	49.5
2916.67	44
2917.52	37
2918.37	39.5
2919.22	39
2920.07	38
2920.92	36
2921.77	40.5
2922.61	36.5
2923.46	34.5
2924.31	32
2925.16	32
2926	31.5
2926.85	34
2927.7	31.5
2928.55	30
2929.39	31
2930.24	28
2931.09	33.5
2931.94	28.5
2932.78	26.5
2933.63	28.5
2934.47	27.5
2935.32	31
2936.17	28.5
2937.01	30
2937.86	28
2938.7	28
2939.55	29.5
2940.4	30.5
2941.24	30.5
2942.09	30.5
2942.93	27.5
2943.78	28
2944.62	29
2945.47	27.5
2946.31	25.5
2947.16	30.5
2948	31
2948.84	30
2949.69	29.5
2950.53	36.5
2951.38	28
2952.22	33
2953.06	33
2953.91	35
2954.75	33.5
2955.59	36
2956.44	33
2957.28	37
2958.12	36.5
2958.97	37
2959.81	41
2960.65	40.5
2961.5	44
2962.34	41
2963.18	45
2964.02	45
2964.86	45
2965.71	41
2966.55	43
2967.39	46
2968.23	42
2969.07	42
2969.91	41
2970.75	38
2971.6	43.4757
2972.44	35.9829
2973.28	37.0169
2974.12	36.0988
2974.96	34.1396
2975.8	33.4954
2976.64	29.6085
2977.48	32.5843
2978.32	34.1679
2979.16	31.6137
2980	32.2121
2980.84	31.1392
2981.68	27.7693
2982.52	28.7821
2983.36	27.7144
2984.2	32.0417
2985.04	24.4232
2985.88	29.5233
2986.71	27.5557
2987.55	28.0168
2988.39	23.2559
2989.23	27.5278
2990.07	27.852
2990.91	25.1359
2991.75	26.6211
2992.58	23.4174
2993.42	27.5645
2994.26	27.5614
2995.1	23.2368
2995.93	29.5088
2996.77	25.0487
2997.61	23.4535
2998.45	23.8665
2999.28	21.6345
3000.12	19.9186
3000.96	24.5041
3001.79	20.0247
3002.63	22.2649
3003.47	21.2563
3004.3	24.4248
3005.14	23.6874
3005.98	23.9196
3006.81	24.3769
3007.65	22.8991
3008.48	23.1649
3009.32	25.907
3010.15	22.6938
3010.99	23.8653
3011.82	20.6761
3012.66	22.6571
3013.5	24.3735
3014.33	22.9652
3015.17	23.1954
3016	23.0394
3016.83	23.4764
3017.67	23.6141
3018.5	22.9571
3019.34	21.702
3020.17	21.5325
3021.01	23.8732
3021.84	23.9422
3022.67	23.2556
3023.51	23.8269
3024.34	22.1447
3025.17	21.2146
3026.01	21.6514
3026.84	23.9714
3027.67	22.082
3028.51	22.205
3029.34	24.2365
3030.17	24.2157
3031	23.4812
3031.84	22.9055
3032.67	21.9063
3033.5	22.7839
3034.33	24.0995
3035.17	25.7829
3036	24.1478
3036.83	20.9608
3037.66	19.8427
3038.49	22.5906
3039.32	22.5101
3040.15	21.5971
3040.99	22.8449
3041.82	24.3473
3042.65	23.9118
3043.48	25.6338
3044.31	25.4838
3045.14	22.9176
3045.97	23.2319
3046.8	22.9007
3047.63	23.1549
3048.46	23.6718
3049.29	22.8879
3050.12	23.6461
3050.95	21.9858
3051.78	23.6685
3052.61	23.3325
3053.44	23.3854
3054.27	24.2484
3055.1	20.8991
3055.92	21.8966
3056.75	23.4927
3057.27	21
3058.11	23
3058.94	26
3059.77	23.5
3060.61	20.5
3061.44	19.5
3062.27	19
3063.11	23
3063.94	23.5
3064.77	22
3065.6	22.5
3066.43	21
3067.27	19
3068.1	20.5
3068.93	21
3069.76	20
3070.59	24.5
3071.42	22.5
3072.26	25
3073.09	23.5
3073.92	23
3074.75	21
3075.58	21.5
3076.41	25
3077.24	21
3078.07	26
3078.9	25.5
3079.73	17
3080.56	25.5
3081.39	21.5
3082.22	27
3083.05	24.5
3083.88	22
3084.71	27.5
3085.54	21
3086.37	21.5
3087.2	22
3088.03	23
3088.86	21.5
3089.69	24
3090.51	25
3091.34	24.5
3092.17	24
3093	23.5
3093.83	26.5
3094.66	23
3095.48	25
3096.31	27.5
3097.14	24
3097.97	23.5
3098.79	24.5
3099.62	23.5
3100.45	23
3101.28	23.5
3102.1	22.5
3102.93	26.5
3103.76	21
3104.58	24.5
3105.41	21.5
3106.24	26
3107.06	21.5
3107.89	19.5
3108.72	23
3109.54	25.5
3110.37	26
3111.19	25.5
3112.02	23
3112.84	22.5
3113.67	26
3114.49	23.5
3115.32	24
3116.15	26.5
3116.97	23
3117.8	23
3118.62	23.5
3119.44	25.5
3120.27	18
3121.09	27
3121.92	23
3122.74	23.5
3123.57	21
3124.39	26
3125.21	23
3126.04	19.5
3126.86	24
3127.68	24.5
3128.51	23
3129.33	24
3130.15	23.5
3130.98	25.5
3131.8	20
3132.62	24.5
3133.44	25
3134.27	23
3135.09	26
3135.91	20.5
3136.73	25.5
3137.56	21
3138.38	30
3139.2	26
3140.02	30
3140.84	21
3141.67	22
3142.49	21
3143.31	26
3144.13	20.5
3144.95	21
3145.77	26
3146.59	20
3147.41	27
3148.23	24
3149.05	23.5
3149.87	24.5
3150.69	25.5
3151.51	20
3152.33	19
3153.15	25
3153.97	25
3154.79	25.5
3155.61	23
3156.43	25
3157.25	19
3158.07	27
3158.89	22.5
3159.71	19.5
3160.53	25.5
3161.35	25.5
3162.17	20.5
3162.98	23.5
3163.8	26.5
3164.62	23.5
3165.44	19
3166.26	24.5
3167.07	26.5
3167.89	26.5
3168.71	21.5
3169.53	26.5
3170.35	25
3171.16	26
3171.98	21
3172.8	22.5
3173.61	23.5
3174.43	26.5
3175.25	24.5
3176.06	25.5
3176.88	22
3177.7	22.5
3178.51	18.5
3179.33	23
3180.15	24.5
3180.96	18.5
3181.78	20
3182.59	25
3183.41	21.5
3184.22	20
3185.04	27
3185.85	24
3186.67	21
3187.49	22
3188.3	20
3189.12	19
3189.93	21.5
3190.74	22.5
3191.56	24
3192.37	24
3193.19	25
3194	27
3194.82	23
3195.63	25
3196.44	25.5
3197.26	25
3198.07	20
3198.88	22
3199.7	23.5
3200.51	21.5
3201.32	21.5
3202.14	26.5
3202.95	27.5
3203.76	23.5
3204.58	22.5
3205.39	19.5
3206.2	23
3207.01	21.5
3207.83	23.5
3208.64	26
3209.45	25
3210.26	24
3211.07	24
3211.88	21
3212.7	23
3213.51	25
3214.32	25.5
3215.13	20
3215.94	22.5
3216.75	23
3217.56	24
3218.37	25
3219.18	25
3220	25
3220.8	25
3221.62	21.5
3222.43	18.5
3223.24	25
3224.05	25
3224.86	24.5
3225.67	24.5
3226.47	21
3227.28	22
3228.09	23.5
3228.9	22
3229.71	26.5
3230.52	26.5
3231.33	24.5
3232.14	22
3232.95	26.5
3233.76	23.5
3234.56	22
3235.37	20
3236.18	25.5
3236.99	24
3237.8	24
3238.61	23
3239.41	22
3240.22	22.5
3241.03	23.5
3241.84	27
3242.64	22
3243.45	22.5
3244.26	24
3245.07	22
3245.87	24.5
3246.68	23
3247.49	24.5
3248.29	24.5
3249.1	24.5
3249.9	24.5
3250.71	21.5
3251.52	26
3252.32	26
3253.13	24
3253.93	23.5
3254.74	24
3255.55	26
3256.35	21.5
3257.16	23
3257.96	23.5
3258.77	21.5
3259.57	26
3260.38	22.5
3261.18	25
3261.99	24
3262.79	24
3263.6	22.5
3264.4	21.5
3265.2	26
3266.01	21.5
3266.81	22
3267.62	24.5
3268.42	24
3269.22	25
3270.03	26
3270.83	21
3271.63	23.5
3272.44	27
3273.24	22.5
3274.04	27.5
3274.85	27
3275.65	22
3276.45	26.5
3277.25	24.5
3278.06	22
3278.86	24
3279.66	26
3280.46	23.5
3281.26	23.5
3282.07	26
3282.87	26.5
3283.67	23
3284.47	20.5
3285.27	27
3286.07	20
3286.87	23
3287.68	22.5
3288.48	24
3289.28	20
3290.08	26
3290.88	21
3291.68	25.5
3292.48	23
3293.28	24.5
3294.08	25.5
3294.88	19.5
3295.68	22.5
3296.48	24
3297.28	21.5
3298.08	26.5
3298.88	21
3299.68	23
3300.48	26.5
3301.28	25
3302.08	24.5
3302.88	20.5
3303.67	24.5
3304.47	24.5
3305.27	22.5
3306.07	24.5
3306.87	25.5
3307.67	24
3308.46	27
3309.26	22.5
3310.06	25.5
3310.86	27.5
3311.66	23.5
3312.45	24
3313.25	25
3314.05	24
3314.85	27
3315.64	23
3316.44	27.5
3317.24	23
3318.03	21.5
3318.83	24.5
3319.63	24.5
3320.42	25
3321.22	24.5
3322.02	23.5
3322.81	23
3323.61	22.5
3324.4	24.5
3325.2	22.5
3326	24.5
3326.79	25
3327.59	23.5
3328.38	24
3329.18	26.5
3329.97	23.5
3330.77	21
3331.56	27.5
3332.36	25.5
3333.15	25.5
3333.95	24
3334.74	26.5
3335.54	28.5
3336.33	27
3337.13	26
3337.92	23.5
3338.71	24.5
3339.51	22
3340.3	24
3341.1	26
3341.89	23
3342.68	23
3343.48	22.5
3344.27	27
3345.06	24.5
3345.85	23.5
3346.65	25
3347.44	25.5
3348.23	23.5
3349.03	24
3349.82	21.5
3350.61	26.5
3351.4	27.5
3352.19	24.5
3352.99	26
3353.78	26
3354.57	25.5
3355.36	21
3356.15	23
3356.94	26.5
3357.74	21.5
3358.53	24
3359.32	26.5
3360.11	22
3360.9	23.5
3361.69	26
3362.48	21
3363.27	22
3364.06	25
3364.85	21.5
3365.64	24
3366.43	20.5
3367.22	24.5
3368.01	26
3368.8	22.5
3369.59	24.5
3370.38	26
3371.17	22.5
3371.96	24
3372.75	27.5
3373.54	22
3374.33	24
3375.12	26
3375.91	23.5
3376.69	27
3377.48	26
3378.27	23
3379.06	26
3379.85	21.5
3380.64	27
3381.42	26
3382.21	24.5
3383	22.5
3383.79	22
3384.58	23
3385.36	26.5
3386.15	23
3386.94	25.5
3387.73	22.5
3388.51	23.5
3389.3	25.5
3390.09	24.5
3390.87	15.5
3391.66	25
3392.45	26
3393.23	22
3394.02	25
3394.81	22
3395.59	26
3396.38	21.5
3397.16	19.5
3397.95	24
3398.74	21
3399.52	26
3400.31	27.5
3401.09	22
3401.88	28
3402.66	24
3403.45	23
3404.23	23
3405.02	27.5
3405.8	22
3406.59	25.5
3407.37	22.5
3408.15	26
3408.94	24.5
3409.72	24
3410.51	26
3411.29	23.5
3412.07	26
3412.86	25
3413.64	30.5
3414.42	25
3415.21	25.5
3415.99	24
3416.78	20.5
3417.56	21
3418.34	28
3419.12	25.5
3419.91	24.5
3420.69	25
3421.47	21
3422.25	29.5
3423.04	24.5
3423.82	22
3424.6	25
3425.38	19.5
3426.16	24
3426.95	28
3427.73	23.5
3428.51	23
3429.29	24
3430.07	22.5
3430.85	27
3431.63	26
3432.42	27.5
3433.2	25
3433.98	24
3434.76	22.5
3435.54	27
3436.32	26
3437.1	23.5
3437.88	25
3438.66	23
3439.44	23.5
3440.22	24
3441	22
3441.78	26
3442.56	24
3443.34	23.5
3444.12	22
3444.9	27.5
3445.68	27.5
3446.45	24.5
3447.23	28
3448.01	22.5
3448.79	24
3449.57	26.5
3450.35	25
3451.13	24
3451.91	28
3452.68	25
3453.46	23
3454.24	23.5
3455.02	25.5
3455.79	25
3456.57	24.5
3457.35	22.5
3458.13	24
3458.91	20
3459.68	24.5
3460.46	26
3461.24	23.5
3462.01	24.5
3462.79	25.5
3463.57	19
3464.34	27.5
3465.12	24.5
3465.9	22.5
3466.67	26.5
3467.45	22
3468.22	26.5
3469	25
3469.78	24.5
3470.55	22
3471.33	24
3472.1	24
3472.88	19.5
3473.65	27
3474.43	23.5
3475.2	24
3475.98	25.5
3476.75	22.5
3477.53	22
3478.3	21
3479.08	25
3479.85	21
3480.63	25.5
3481.4	26.5
3482.18	23.5
3482.95	24
3483.72	26.5
3484.5	21
3485.27	21
3486.04	24.5
3486.82	25.5
3487.59	22.5
3488.36	22
3489.14	23
3489.91	26
3490.68	23
3491.46	28.5
3492.23	24
3493	23
3493.77	25
3494.55	21
3495.32	27
3496.09	25
3496.86	22.5
3497.64	20
3498.41	23
3499.18	25.5
3499.95	23
