#Acq. time (s)=	5
#Accumulations=	5
#Range (cm-¹)=	100...3500
#Windows=	4
#Autofocus=	Off
#AutoExposure=	Off
#Spike filter=	Multiple accum.
#Delay time (s)=	0
#Binning=	1
#Readout mode=	Signal
#DeNoise=	Off
#ICS correction=	Off
#Dark correction=	Off
#Inst. Process=	Off
#Instrument=	LabRAM HR Evol
#Detector=	Syncerity OE
#Objective=	x100_VIS
#Grating=	600 (500nm)
#ND Filter=	25%
#Laser=	633nm_Edge
#Hole=	100.021
#Range=	Visible
#Project=	verificaciones
#Sample=	a2
#Site=	lined
#Title=	bolusa2lined
#Remark=	
#Date=	12.01.2026 15:30
#Acquired=	12.01.2026 15:30:05
100.666	21
101.95	28.5
103.233	30
104.516	28.5
105.799	27.5
107.083	29
108.365	28.5
109.648	26.5
110.93	22
112.212	25
113.493	27.5
114.775	23.5
116.056	24
117.337	26
118.618	30
119.898	27.5
121.178	26
122.459	23.5
123.739	27
125.018	22
126.298	26
127.577	27
128.856	27.5
130.135	30.5
131.414	31.5
132.692	25.5
133.971	28.5
135.249	24
136.525	25
137.803	27
139.08	25.5
140.357	23
141.634	27.5
142.911	30
144.188	24.5
145.464	31.5
146.74	28.5
148.015	27
149.291	31
150.566	29.5
151.842	29
153.117	26.5
154.392	30
155.665	25.5
156.939	25.5
158.214	30
159.488	27
160.76	31
162.034	24
163.307	30.5
164.581	30
165.854	29
167.125	30.5
168.398	31.5
169.67	28
170.941	26.5
172.213	25
173.485	27
174.756	27
176.026	31
177.298	26
178.569	30
179.838	27
181.109	32
182.379	25
183.648	26
184.918	31
186.187	25
187.455	25
188.725	27
189.992	28.5
191.261	28.5
192.53	26
193.797	31
195.065	28.5
196.332	31.5
197.6	28
198.866	31
200.134	27.5
201.401	26
202.667	26
203.933	27.5
205.199	28.5
206.465	32.5
207.73	29.5
208.996	30.5
210.26	31
211.526	27.5
212.79	28
214.055	28
215.319	27
216.582	26
217.847	29
219.11	27.5
220.374	29
221.636	25.5
222.9	32.5
224.162	25.5
225.424	28
226.687	29
227.949	28.5
229.212	25
230.473	25
231.734	28.5
232.996	29.5
234.256	30
235.517	24
236.778	29
238.038	27.5
239.298	27
240.559	29
241.818	28
243.077	24
244.337	22
245.596	27.5
246.854	30.5
248.113	29.5
249.372	24
250.63	24
251.887	26
253.145	26
254.404	29
255.661	28
256.917	27.5
258.174	25
259.432	27
260.688	25
261.944	21.5
263.2	22.5
264.456	26
265.711	25.5
266.968	32.5
268.223	28
269.477	26
270.732	31.5
271.986	28.5
273.24	29
274.494	25.5
275.748	27
277.003	28
278.257	28.5
279.51	24.5
280.763	25.5
282.015	23.5
283.268	29
284.52	25
285.773	23.5
287.024	27
288.276	32.5
289.528	21
290.779	23.5
292.03	25
293.281	26
294.532	25.5
295.782	23
297.033	27.5
298.283	27.5
299.533	26
300.783	25
302.032	27
303.281	27.5
304.531	23.5
305.78	27
307.028	27
308.275	31.5
309.524	26.5
310.772	26.5
312.02	28
313.267	27
314.515	24
315.762	24
317.009	23.5
318.255	23
319.501	26
320.748	26.5
321.994	27
323.24	25
324.486	30
325.731	26
326.976	25
328.221	27.5
329.466	22
330.71	31
331.955	27.5
333.199	25
334.443	33.5
335.686	23
336.93	25
338.174	27.5
339.417	25
340.659	32
341.902	26.5
343.145	26
344.386	25
345.629	26.5
346.871	28.5
348.112	26
349.354	28
350.595	27.5
351.836	28.5
353.077	28.5
354.318	31
355.557	24
356.798	24.5
358.037	25.5
359.277	25
360.518	27
361.756	26.5
362.996	27.5
364.234	27
365.473	25.5
366.711	30.5
367.95	27.5
369.187	29
370.426	27
371.662	28
372.901	26
374.137	27
375.375	27.5
376.611	27.5
377.848	27
379.084	28.5
380.321	30
381.556	32.5
382.793	28.5
384.027	26.5
385.264	24.5
386.498	26
387.732	27.5
388.968	27
390.202	27.5
391.437	30.5
392.671	23.5
393.904	29
395.138	29
396.371	28
397.604	28
398.838	25.5
400.07	24.5
401.302	26
402.536	26.5
403.768	27.5
404.999	23.5
406.232	24.5
407.463	25.5
408.694	27
409.925	23
411.157	26
412.387	28
413.617	30.5
414.847	26.5
416.078	27
417.308	31
418.537	27.5
419.767	29
420.997	27
422.226	30.5
423.454	26
424.683	24.5
425.911	25
427.139	27.5
428.368	26
429.596	24.5
430.823	24.5
432.05	28
433.277	25
434.504	28
435.731	21
436.957	24
438.185	28.5
439.411	25
440.637	28
441.862	29.5
443.088	23
444.313	28.5
445.538	25
446.763	31
447.988	24.5
449.212	28
450.436	25
451.661	28.5
452.884	28
454.108	31
455.332	26
456.555	28.5
457.778	24
459.001	30.5
460.224	24.5
461.446	26
462.668	25
463.891	26
465.111	30.5
466.333	26.5
467.554	26
468.776	29
469.997	30
471.218	28
472.439	29.5
473.659	27
474.878	32
476.098	31
477.318	26.5
478.538	28
479.758	27
480.977	30.5
482.195	30
483.414	31
484.633	33
485.851	29
487.07	35.5
488.287	30.5
489.505	35
490.723	37
491.94	31
493.156	32
494.374	31
495.591	35.5
496.806	28
498.023	27
499.239	32.5
500.456	33.5
501.67	29.5
502.886	28
504.102	30
505.316	27.5
506.531	30
507.745	30
508.96	27
510.175	29
511.388	28.5
512.602	27
513.815	28
515.029	29
516.243	25
517.455	26
518.669	26.5
519.88	27
521.093	30.5
522.305	26
523.518	24.5
524.729	29.5
525.941	29
527.151	28
528.363	27.5
529.574	24.5
530.785	24.5
531.995	30
533.206	21
534.416	28.5
535.626	25.5
536.835	27.5
538.046	26
539.254	26.5
540.463	29
541.673	28.5
542.881	24.5
544.09	25.5
545.298	24.5
546.506	28
547.714	28.5
548.922	24.5
550.13	27.5
551.337	25
552.544	27
553.751	27
554.958	26.5
556.164	26.5
557.37	26
558.577	26
559.782	26
560.987	26.5
562.194	28
563.399	29
564.604	25
565.808	28.5
567.014	23
568.218	26
569.422	28.5
570.626	26.5
571.829	30.5
573.034	27.5
574.237	28
575.44	28.5
576.643	27
577.846	29.5
579.048	26
580.252	30
581.454	25.5
582.656	29
583.857	25.5
585.059	23
586.26	24
587.461	27
588.662	29
589.863	27
591.065	29
592.265	25
593.465	26.5
594.665	27
595.865	28.5
597.065	27
598.264	26.5
599.463	27
600.662	28.5
601.861	28
603.06	25
604.258	29
605.457	27.5
606.655	24
607.853	24
609.05	27
610.248	31
611.444	26
612.641	24.5
613.838	29
615.034	26
616.231	31
617.427	29
618.624	26.5
619.82	23
621.015	27
622.21	28
623.405	30
624.6	30
625.795	27.5
626.99	29
628.185	30
629.378	24.5
630.572	25
631.766	28
632.96	27.5
634.154	23
635.346	27
636.54	29.5
637.733	24
638.926	27.5
640.117	27
641.31	30
642.502	27.5
643.693	31.5
644.885	27
646.077	27.5
647.267	26
648.459	29
649.65	33
650.84	27
652.031	29.5
653.222	29.5
654.411	24.5
655.601	26
656.791	30.5
657.98	26.5
659.17	27.5
660.358	27.5
661.547	27
662.737	24
663.924	25
665.113	23.5
666.3	29
667.489	32
668.676	30.5
669.864	27
671.05	28.5
672.238	26
673.424	28.5
674.612	27
675.798	30.5
676.985	28
678.17	29
679.357	28.5
680.542	26.5
681.728	27
682.913	25.5
684.097	26
685.283	29
686.467	29
687.652	31
688.836	22
690.02	30
691.205	27.5
692.388	24
693.571	33.5
694.755	27
695.938	28
697.12	26
698.304	29.5
699.486	28.5
700.668	25.5
701.851	32
703.032	31
704.214	32
705.395	27
706.577	28
707.758	28.5
708.939	28.5
710.119	31
711.301	29
712.481	28.5
713.661	29
714.84	28
716.02	28.5
717.201	27
718.38	30
719.559	27.5
720.737	25.5
721.916	26
723.094	31
724.274	27
725.452	27.5
726.63	27.5
727.808	24.5
728.985	29
730.162	26
731.339	28.5
732.516	30.5
733.693	27.5
734.87	23.5
736.046	28
737.222	26
738.398	31
739.574	27.5
740.75	25
741.925	26.5
743.1	27
744.276	24
745.45	29
746.625	28.5
747.8	28
748.974	20.5
750.148	25
751.322	24
752.496	26
753.67	28
754.843	27.5
756.016	25
757.189	24.5
758.362	28
759.534	27
760.706	26.5
761.878	27
763.051	26.5
764.223	30.5
765.394	27.5
766.565	26.5
767.736	24
768.907	28.5
770.078	24
771.249	30.5
772.419	26.5
773.589	23.5
774.759	30
775.93	23
777.098	24
778.268	24
779.438	24
780.607	26
781.775	28
782.944	22
784.113	30
785.28	28.5
786.449	26
787.617	25
788.784	24.5
789.952	27.5
791.12	29
792.286	28.5
793.453	28
794.62	27.5
795.786	29
796.953	24.5
798.118	30.5
799.285	26
800.45	24.5
801.616	27.5
802.782	24
803.946	28
805.112	27.5
806.276	27
807.441	27
808.605	29.5
809.77	26.5
810.933	27.5
812.098	29
813.261	30
814.425	28
815.588	28
816.75	26.5
817.914	29.5
819.076	22
820.239	24
821.401	30
822.564	28.5
823.725	27.5
824.886	28
826.048	23
827.209	21
828.37	26
829.532	26.5
830.692	26
831.852	27.5
833.013	27
834.173	22.5
835.333	24.5
836.493	30.5
837.653	28
838.812	29
839.972	25
841.13	25.5
842.289	24.5
843.447	19.5
844.607	30.5
845.765	24.5
846.922	27
848.08	26
849.237	24.5
850.396	24
851.553	27.5
852.71	27
853.867	29
855.023	25.5
856.179	29
857.337	26
858.493	28.5
859.649	26
860.804	26.5
861.96	24
863.115	22
864.27	27
865.425	25
866.58	26.5
867.734	33.5
868.888	28
870.043	25.5
871.197	23
872.35	29
873.504	28.5
874.658	24.5
875.811	28
876.964	23.5
878.117	24
879.27	25
880.422	30
881.575	29.5
882.727	26.5
883.879	29
885.031	26.5
886.182	25
887.334	29
888.485	22.5
889.636	26
890.787	25
891.937	26
893.088	29
894.238	26
895.388	27
896.538	27.5
897.688	26
898.837	25
899.986	26
901.136	30
902.285	24
903.434	30.5
904.581	22.5
905.73	28.5
906.878	28.5
908.027	27
909.174	26
910.321	25.5
911.469	26.5
912.617	28
913.763	26
914.91	25
916.057	24
917.203	25.5
918.35	25.5
919.496	30
920.641	24.5
921.787	25
922.933	25.5
924.078	28
925.224	26
926.368	27.5
927.513	25
928.658	26.5
929.802	28
930.946	21
932.09	24
933.234	23
934.377	26.5
935.521	28
936.664	28
937.807	23
938.95	26
940.093	25
941.235	25.5
942.378	29
943.519	26.5
944.662	23.5
945.803	26
946.946	24.5
948.086	28.5
949.227	26
950.369	27.5
951.509	25
952.651	26
953.79	26
954.93	25
956.071	27
957.211	26.5
958.35	30
959.49	25.5
960.629	28
961.768	28
962.908	23.5
964.046	26
965.184	24.5
966.323	28
967.461	26.5
968.599	25
969.736	26.5
970.875	27.75
972.012	28.5
973.149	19.5
974.286	25.5
975.424	23
976.56	27.5
977.697	24.5
978.833	24
979.969	22
981.104	25.5
982.241	28
983.377	22.5
984.512	25
985.647	26
986.782	23.5
987.916	30
989.051	25
990.185	26
991.321	28.5
992.455	26
993.589	28
994.722	29
995.856	26
996.989	27
998.122	25.5
999.255	24
1000.39	26.5
1001.52	25.5
1002.65	22
1003.79	26
1004.92	24
1006.05	29.5
1007.18	28
1008.31	24.5
1009.44	25.5
1010.57	23
1011.7	23
1012.84	24
1013.97	26.5
1015.1	25.5
1016.23	22
1017.36	24.5
1018.49	27.5
1019.62	25
1020.75	24.5
1021.88	27
1023	28.5
1024.13	26.5
1025.26	22.5
1026.39	26
1027.52	29.5
1028.65	25
1029.78	26.5
1030.9	27
1032.03	25.5
1033.16	24.5
1034.29	26
1035.41	26
1036.54	24.5
1037.67	26.5
1038.79	22
1039.92	23
1041.04	25.5
1042.17	25
1043.3	23
1044.42	24.5
1045.55	26
1046.67	23.5
1047.8	27.5
1048.92	25.5
1050.05	21
1051.17	26
1052.3	28
1053.42	21
1054.54	25.5
1055.67	28
1056.79	25
1057.91	23
1059.04	24.5
1060.16	22.5
1061.28	26.5
1062.41	27
1063.53	27.5
1064.65	27.5
1065.77	22
1066.9	26
1068.02	24
1069.14	22
1070.26	22
1071.38	30
1072.5	26
1073.62	28
1074.74	22
1075.86	26
1076.98	24
1078.1	27.5
1079.22	29.5
1080.34	22
1081.46	24.5
1082.58	26.5
1083.7	28
1084.82	27.5
1085.94	25.5
1087.06	20.5
1088.18	25
1089.29	27.5
1090.41	21.5
1091.53	25.5
1092.65	26
1093.77	24.5
1094.88	24
1096	25
1097.12	29
1098.23	20.5
1099.35	25
1100.47	21
1101.58	22
1102.7	26
1103.82	27
1104.93	26.5
1106.05	25
1107.16	26
1108.28	22.5
1109.39	23
1110.51	29
1111.62	21.5
1112.74	25
1113.85	23.5
1114.96	26
1116.08	25.5
1117.19	26
1118.31	24
1119.42	24
1120.53	26
1121.65	27
1122.76	26
1123.87	23
1124.98	25
1126.1	22
1127.21	28
1128.32	25.5
1129.43	28
1130.54	24
1131.65	22
1132.76	23.5
1133.88	23.5
1134.99	25
1136.1	23.5
1137.21	23
1138.32	23.5
1139.43	23.5
1140.54	22
1141.65	20
1142.76	21
1143.87	21.5
1144.98	23
1146.08	27.5
1147.19	22
1148.3	25
1149.41	27
1150.52	23
1151.63	28
1152.73	21.5
1153.84	28
1154.95	25
1156.06	21.5
1157.17	26.5
1158.27	24.5
1159.38	21
1160.49	26.5
1161.59	22.5
1162.7	25.5
1163.8	27
1164.91	21
1166.02	22
1167.12	23
1168.23	25.5
1169.33	29
1170.44	25
1171.54	24.5
1172.65	22
1173.75	24
1174.86	23
1175.96	24.5
1177.06	22.5
1178.17	24.5
1179.27	24.5
1180.37	21.5
1181.48	24.5
1182.58	20
1183.68	27
1184.79	28
1185.89	24.5
1186.99	23.5
1188.09	17.5
1189.2	23.5
1190.3	26
1191.4	26.5
1192.5	25
1193.6	26
1194.7	25.479
1195.8	25.4085
1196.9	21.5678
1198.01	24.051
1199.11	25.5041
1200.21	19.3494
1201.31	23.9571
1202.41	22.0808
1203.5	23.1711
1204.6	23.246
1205.7	23.7798
1206.8	21.4269
1207.9	24.4477
1209	21.7061
1210.1	23.9395
1211.2	25.2233
1212.3	22.854
1213.39	27.596
1214.49	25.472
1215.59	23.8833
1216.69	24.825
1217.78	22.1986
1218.88	23.7045
1219.98	23.6141
1221.08	25.1323
1222.17	22.3604
1223.27	24.5177
1224.37	24.8455
1225.46	26.8054
1226.56	25.6432
1227.65	27.2571
1228.75	20.2266
1229.84	25.9658
1230.94	24
1232.03	24
1233.13	25.0232
1234.22	24.9723
1235.32	22.7279
1236.41	21.1774
1237.51	20.7065
1238.6	21.0151
1239.69	23.2057
1240.79	24.7913
1241.88	24.9449
1242.97	26.1336
1244.07	24.5619
1245.16	23.0228
1246.25	22.2431
1247.35	23.688
1248.44	25.5064
1249.53	23.1626
1250.62	22.3725
1251.71	22.1975
1252.81	24.7137
1253.9	21.6628
1254.99	23.2207
1256.08	23.6585
1257.17	22.9397
1258.26	23.1752
1259.35	24.4892
1260.44	25.8572
1261.53	25.4429
1262.62	23.6068
1263.71	25.9859
1264.8	23.5366
1265.89	23.4767
1266.98	24.254
1268.07	22.5089
1269.16	26.8556
1270.25	24.0514
1271.34	21.5989
1272.43	25.1243
1273.52	22.5732
1274.6	22.15
1275.69	23.0385
1276.78	25.9141
1277.87	24.3569
1278.95	23.2573
1280.04	23.3671
1281.13	23.2715
1282.22	22.2283
1283.3	23.835
1284.39	23.6489
1285.48	22.7884
1286.56	23.1913
1287.65	25.1607
1288.73	25.2717
1289.82	25.8495
1290.91	25.2047
1291.99	21.6625
1293.08	20.521
1294.16	23.2712
1295.24	22.4809
1296.33	24.2695
1297.41	25.4913
1298.5	21.1736
1299.58	20.9514
1300.67	24.5377
1301.75	24.9949
1302.83	24.7485
1303.92	25.6435
1305	24.5595
1306.08	24.7007
1306.4	25
1307.49	26.5
1308.58	26
1309.66	25
1310.75	23.5
1311.84	23.5
1312.93	26.5
1314.01	22.5
1315.1	22
1316.19	20.5
1317.27	21.5
1318.36	23.5
1319.45	26.5
1320.53	23.5
1321.62	24
1322.71	23.5
1323.79	23.5
1324.88	25.5
1325.96	23.5
1327.05	23.5
1328.13	24
1329.22	24
1330.3	27.5
1331.39	25
1332.47	24.5
1333.55	20
1334.64	24.5
1335.72	21
1336.81	25.5
1337.89	22
1338.97	25.5
1340.06	21.5
1341.14	25
1342.22	29.5
1343.3	30
1344.39	23
1345.47	26.5
1346.55	24
1347.63	20
1348.71	22.5
1349.8	26
1350.88	23.5
1351.96	23.5
1353.04	23
1354.12	26
1355.2	22.5
1356.28	22
1357.36	25.5
1358.44	26
1359.52	26
1360.6	22
1361.68	23.5
1362.76	20
1363.84	24.5
1364.92	23.5
1366	23
1367.08	21
1368.16	26
1369.23	23.5
1370.31	22.5
1371.39	25
1372.47	24
1373.55	22.5
1374.62	22.5
1375.7	19.5
1376.78	23
1377.86	26
1378.93	20
1380.01	26.5
1381.09	27
1382.16	23
1383.24	24.5
1384.32	24.5
1385.39	26.5
1386.47	25
1387.54	27.5
1388.62	24
1389.69	25.5
1390.77	22
1391.84	25.5
1392.92	25
1393.99	24
1395.07	28
1396.14	24
1397.21	26.5
1398.29	23
1399.36	24
1400.44	24
1401.51	27
1402.58	28.5
1403.66	25
1404.73	30.5
1405.8	28
1406.87	25
1407.95	26
1409.02	26.5
1410.09	22.5
1411.16	29.5
1412.23	23
1413.3	27
1414.38	27.5
1415.45	28
1416.52	27
1417.59	24.5
1418.66	23
1419.73	25.5
1420.8	24
1421.87	23
1422.94	21
1424.01	22
1425.08	25.5
1426.15	25.5
1427.22	25
1428.29	23
1429.36	28
1430.43	23.5
1431.49	20
1432.56	24.5
1433.63	23.5
1434.7	24.5
1435.77	28.5
1436.83	21
1437.9	24.5
1438.97	25
1440.04	24
1441.1	23.5
1442.17	24.5
1443.24	24
1444.3	27.5
1445.37	21.5
1446.44	26.5
1447.5	24
1448.57	25.5
1449.63	28.5
1450.7	28.5
1451.77	24.5
1452.83	26
1453.9	20
1454.96	24.5
1456.03	27
1457.09	24.5
1458.15	20.5
1459.22	22.5
1460.28	26.5
1461.35	27
1462.41	24.5
1463.47	21
1464.54	26
1465.6	25
1466.66	22.5
1467.73	26
1468.79	21
1469.85	22.5
1470.91	26.5
1471.98	27
1473.04	25
1474.1	27
1475.16	23
1476.22	22
1477.28	22
1478.35	26.5
1479.41	21
1480.47	22
1481.53	25.5
1482.59	26.5
1483.65	24
1484.71	24
1485.77	21
1486.83	25.5
1487.89	25.5
1488.95	25
1490.01	25.5
1491.07	22
1492.13	27.5
1493.18	22
1494.24	25.5
1495.3	25
1496.36	24
1497.42	25
1498.48	25
1499.53	22.5
1500.59	20
1501.65	23
1502.71	25.5
1503.76	21.5
1504.82	26
1505.88	23.5
1506.93	21.5
1507.99	24
1509.05	26.5
1510.1	27.5
1511.16	27
1512.21	23
1513.27	23
1514.33	26
1515.38	26
1516.44	21.5
1517.49	25
1518.55	20.5
1519.6	25
1520.66	26.5
1521.71	29
1522.76	26
1523.82	25.5
1524.87	22
1525.93	25.5
1526.98	24.5
1528.03	24
1529.08	23.5
1530.14	24
1531.19	24
1532.24	29.5
1533.3	24.5
1534.35	23
1535.4	24.5
1536.45	26
1537.5	24.5
1538.56	26
1539.61	23.5
1540.66	25.5
1541.71	25
1542.76	27.5
1543.81	21
1544.86	30
1545.91	22
1546.96	21
1548.01	22.5
1549.06	25.5
1550.11	26
1551.16	22
1552.21	28.5
1553.26	24
1554.31	25
1555.36	27
1556.41	25
1557.46	22
1558.51	25
1559.56	24.5
1560.6	25
1561.65	24.5
1562.7	30
1563.75	26
1564.79	26.5
1565.84	26
1566.89	28
1567.94	24.5
1568.98	26.5
1570.03	26
1571.08	22.5
1572.12	27
1573.17	25
1574.22	23.5
1575.26	24
1576.31	24
1577.35	23.5
1578.4	25
1579.44	21.5
1580.49	20
1581.53	26.5
1582.58	25.5
1583.62	25.5
1584.67	26
1585.71	25
1586.76	24.5
1587.8	25.5
1588.84	24
1589.89	26.5
1590.93	25
1591.97	21
1593.02	26
1594.06	25
1595.1	25
1596.14	28.5
1597.19	22
1598.23	23
1599.27	21
1600.31	25
1601.36	21
1602.4	26
1603.44	25.5
1604.48	25
1605.52	25
1606.56	24.5
1607.6	26.5
1608.64	23.5
1609.68	21
1610.72	25.5
1611.76	24.5
1612.81	24
1613.84	27.5
1614.88	24
1615.92	26.5
1616.96	24
1618	26.5
1619.04	27
1620.08	26.5
1621.12	26
1622.16	24
1623.2	23
1624.23	23.5
1625.27	21
1626.31	25.5
1627.35	19.5
1628.39	26
1629.42	25
1630.46	26
1631.5	24.5
1632.53	24
1633.57	28.5
1634.61	24
1635.64	28.5
1636.68	25
1637.72	29
1638.75	26
1639.79	27.5
1640.82	24
1641.86	27
1642.89	27
1643.93	25.5
1644.96	21.5
1646	27
1647.03	25
1648.07	26
1649.1	19.5
1650.14	27
1651.17	28.5
1652.21	23
1653.24	25
1654.27	25.5
1655.31	23
1656.34	22
1657.37	28.5
1658.41	26.5
1659.44	25
1660.47	23
1661.5	21
1662.53	22
1663.57	21.5
1664.6	23.5
1665.63	24
1666.66	26.5
1667.69	26
1668.72	24
1669.76	22.5
1670.79	28
1671.82	21
1672.85	20
1673.88	24
1674.91	27.5
1675.94	24.5
1676.97	25.5
1678	26.5
1679.03	24
1680.06	26
1681.09	22.5
1682.12	27
1683.15	25
1684.17	24.5
1685.2	27
1686.23	27
1687.26	23.5
1688.29	24
1689.32	22
1690.34	24.5
1691.37	23.5
1692.4	24.5
1693.43	22.5
1694.45	22.5
1695.48	23.5
1696.51	27.5
1697.54	26.5
1698.56	23
1699.59	26
1700.61	27
1701.64	25.5
1702.67	28
1703.69	23
1704.72	24
1705.74	22.5
1706.77	24.5
1707.79	19
1708.82	25.5
1709.84	29.5
1710.87	29.5
1711.89	23.5
1712.92	26
1713.94	28
1714.97	25
1715.99	26
1717.01	26.5
1718.04	25
1719.06	24
1720.08	24
1721.11	28
1722.13	24.5
1723.15	21
1724.18	26.5
1725.2	24
1726.22	24
1727.24	28
1728.26	24
1729.29	24
1730.31	29
1731.33	24
1732.35	21
1733.37	24
1734.39	25.5
1735.41	26
1736.43	24
1737.45	22.5
1738.47	24.5
1739.5	26
1740.52	25.5
1741.53	23
1742.55	28.5
1743.57	23.5
1744.59	24
1745.61	29
1746.63	28
1747.65	25
1748.67	25.5
1749.69	26.5
1750.71	25
1751.72	23
1752.74	24.5
1753.76	25
1754.78	25
1755.8	25
1756.81	23.5
1757.83	26
1758.85	24.5
1759.87	26.5
1760.88	23
1761.9	19
1762.92	27.5
1763.93	25
1764.95	22.5
1765.96	25.5
1766.98	26.5
1768	25
1769.01	22
1770.03	26.5
1771.04	22.5
1772.06	29
1773.07	23.5
1774.09	22
1775.1	25
1776.12	22
1777.13	23.5
1778.15	24
1779.16	25
1780.17	19
1781.19	25
1782.2	24.5
1783.21	27
1784.23	24
1785.24	23
1786.25	22
1787.27	28
1788.28	23.5
1789.29	20
1790.3	25.5
1791.32	23.5
1792.33	21.5
1793.34	25.5
1794.35	23.5
1795.36	23
1796.38	23
1797.39	23.5
1798.4	21
1799.41	24.5
1800.42	23.5
1801.43	26.5
1802.44	27.5
1803.45	22
1804.46	23
1805.47	24
1806.48	25
1807.49	27
1808.5	20.5
1809.51	25.5
1810.52	24.5
1811.53	26
1812.53	26
1813.54	20.5
1814.55	25.5
1815.56	25.5
1816.57	24
1817.58	22
1818.59	22.5
1819.59	20.5
1820.6	24.5
1821.61	27
1822.62	26
1823.62	25
1824.63	22
1825.64	22.5
1826.64	26.5
1827.65	25
1828.66	26
1829.66	23
1830.67	25.5
1831.67	25
1832.68	25.5
1833.69	26
1834.69	25
1835.7	27
1836.7	28
1837.71	20.5
1838.71	27.5
1839.72	26.5
1840.72	26.5
1841.72	23.5
1842.73	27.5
1843.73	23.5
1844.74	27.5
1845.74	21.5
1846.74	25
1847.75	28
1848.75	23
1849.75	26.5
1850.76	27
1851.76	28
1852.76	25
1853.76	24
1854.77	27
1855.77	26
1856.77	23
1857.77	24
1858.78	23
1859.78	25
1860.78	26
1861.78	27
1862.78	27.5
1863.78	27.5
1864.78	27
1865.78	25.5
1866.78	25
1867.78	22
1868.78	27.5
1869.78	24.5
1870.78	25
1871.78	25.5
1872.78	25.5
1873.78	22
1874.78	21.5
1875.78	25
1876.78	22
1877.78	23
1878.78	23
1879.78	28
1880.77	25.5
1881.77	25.5
1882.77	25
1883.77	26.5
1884.77	26
1885.76	26.5
1886.76	23
1887.76	22
1888.75	26.5
1889.75	25.5
1890.75	24
1891.74	22
1892.74	22.5
1893.74	24.5
1894.73	23.5
1895.73	21
1896.73	24.5
1897.72	23
1898.72	24.5
1899.71	28
1900.71	24.5
1901.7	25.5
1902.7	25
1903.69	23
1904.69	26
1905.68	23
1906.68	24
1907.67	21
1908.66	25.5
1909.66	24
1910.65	26
1911.64	24.5
1912.64	23
1913.63	25
1914.62	24.5
1915.62	22
1916.61	23
1917.6	20.5
1918.6	28
1919.59	21.5
1920.58	22.5
1921.57	27.5
1922.56	22
1923.55	23
1924.55	24
1925.54	26
1926.53	24
1927.52	19
1928.51	30.5
1929.5	22
1930.49	24
1931.48	24.5
1932.47	25
1933.46	20.5
1934.45	25
1935.44	23
1936.43	24
1937.42	25.5
1938.41	27
1939.4	21
1940.39	20.5
1941.38	20.5
1942.37	25.5
1943.36	23.5
1944.35	24
1945.33	25
1946.32	24.5
1947.31	23.5
1948.3	24.5
1949.29	24
1950.27	22
1951.26	25.5
1952.25	26
1953.24	24.5
1954.22	23
1955.21	25
1956.2	21.5
1957.18	24
1958.17	28.5
1959.16	22
1960.14	21.5
1961.13	24
1962.11	23
1963.1	22
1964.08	25.5
1965.07	21
1966.05	26
1967.04	20
1968.02	26
1969.01	26.5
1969.99	23
1970.98	22
1971.96	21
1972.95	23
1973.93	20.5
1974.91	26.5
1975.9	26
1976.88	24
1977.86	25
1978.85	21.5
1979.83	22
1980.81	27.5
1981.8	21.5
1982.78	26
1983.76	23.5
1984.74	23.5
1985.73	23
1986.71	22
1987.69	19.5
1988.67	20.5
1989.65	21.5
1990.63	23
1991.62	24.5
1992.6	28.5
1993.58	20
1994.56	25
1995.54	21.5
1996.52	24.5
1997.5	20
1998.48	27
1999.46	24.5
2000.44	21
2001.42	21
2002.4	25
2003.38	28
2004.36	24
2005.34	22.5
2006.32	29.5
2007.29	24.5
2008.27	22.5
2009.25	23
2010.23	22
2011.21	23
2012.19	27
2013.17	22.5
2014.14	21.5
2015.12	25
2016.1	24
2017.07	23.5
2018.05	25.5
2019.03	23
2020.01	22
2020.98	26
2021.96	24
2022.94	20
2023.91	23
2024.89	24
2025.86	24.5
2026.84	25.5
2027.82	21.5
2028.79	23
2029.77	24.5
2030.74	21
2031.72	25
2032.69	25
2033.67	22.5
2034.64	23
2035.62	23
2036.59	22.5
2037.56	21
2038.54	24
2039.51	22
2040.49	24
2041.46	23.5
2042.43	22.5
2043.41	22
2044.38	23.5
2045.35	20.5
2046.32	23.5
2047.3	24
2048.27	24
2049.24	26
2050.21	27
2051.19	22.5
2052.16	26.5
2053.13	19
2054.1	20.5
2055.07	19.5
2056.05	25.5
2057.02	20
2057.99	26
2058.96	23
2059.93	21.5
2060.9	25.5
2061.87	21.5
2062.84	26.5
2063.81	22
2064.78	22
2065.75	26.5
2066.72	23.5
2067.69	23
2068.66	26
2069.63	19.5
2070.6	24.5
2071.57	19
2072.54	23
2073.5	26
2074.47	23
2075.44	21
2076.41	26.5
2077.38	22.5
2078.35	22
2079.31	21
2080.28	22.5
2081.25	19.5
2082.22	22.5
2083.18	25.5
2084.15	23
2085.12	25
2086.08	24
2087.05	21
2088.02	23
2088.98	24
2089.95	21
2090.92	24.5
2091.88	21
2092.85	23
2093.81	22
2094.78	25
2095.74	24
2096.71	25.5
2097.67	24
2098.64	22
2099.6	18
2100.57	21.5
2101.53	21.5
2102.5	23.5
2103.46	19.5
2104.42	22
2105.39	23
2106.35	23.5
2107.32	24.5
2108.28	20.5
2109.24	25
2110.21	23
2111.17	26
2112.13	21.5
2113.09	23
2114.06	20
2115.02	21.5
2115.98	27.5
2116.94	25
2117.91	25
2118.87	24.5
2119.83	26
2120.79	27
2121.75	24
2122.71	22
2123.67	22
2124.63	24.5
2125.6	25.5
2126.56	24.5
2127.52	26
2128.48	25
2129.44	23
2130.4	23.5
2131.36	21.5
2132.32	23
2133.28	25
2134.23	22
2135.19	29.5
2136.15	23.5
2137.11	25.5
2138.07	22
2139.03	22.5
2139.99	22
2140.95	21.5
2141.9	25.5
2142.86	25.4729
2143.82	21.014
2144.78	22.0607
2145.74	23.042
2146.69	23.4774
2147.65	21.5068
2148.61	22.4055
2149.57	22.7069
2150.52	20.5942
2151.48	25.082
2152.44	26.0571
2153.39	20.4931
2154.35	21.6417
2155.31	24.2238
2156.26	24.2129
2157.22	24.4786
2158.17	21.9358
2159.13	23.7919
2160.08	23.8476
2161.04	19.792
2161.99	22.3092
2162.95	23.1006
2163.91	22.5202
2164.86	24.2296
2165.81	23.2242
2166.77	24.1525
2167.72	20.4762
2168.68	23.1608
2169.63	21.1232
2170.58	26.5418
2171.54	24.8306
2172.49	25.2791
2173.45	23.922
2174.4	20.7208
2175.35	23.3974
2176.31	23.054
2177.26	23.5728
2178.21	22.3059
2179.16	22.7423
2180.12	23.5394
2181.07	23.1833
2182.02	23.7451
2182.97	22.6924
2183.92	22.2641
2184.88	24.4374
2185.83	23.9424
2186.78	22.3228
2187.73	20.9513
2188.68	21.5915
2189.63	22.6673
2190.58	22.7035
2191.53	23.75
2192.49	22.716
2193.43	23.6377
2194.39	19.5323
2195.34	21.2306
2196.28	21.2257
2197.24	22.9338
2198.19	23.4919
2199.13	22.1656
2200.08	24.1335
2201.03	19.9103
2201.98	21.6258
2202.93	23.6885
2203.88	23.7553
2204.83	20.4249
2205.78	22.6789
2206.73	20.562
2207.67	22.1675
2208.62	24.7972
2209.57	23.2333
2210.52	23.7904
2211.47	22.7901
2212.41	20.4861
2213.36	22.618
2214.31	23.2578
2215.26	24.3522
2216.2	22.5436
2217.15	24.2156
2218.1	22.2735
2219.04	22.691
2219.99	22.7612
2220.93	24.1322
2221.88	23.0528
2222.83	22.4
2223.77	24.3097
2224.72	22.0126
2225.66	21.8495
2226.61	24.3526
2227.55	23.5959
2228.5	21.2131
2229.44	20.6937
2230.39	20.0789
2231.33	24.2969
2232.28	25.0092
2233.22	21.9457
2234.17	22.109
2235.11	21.2541
2236.06	20.8243
2237	24.22
2237.94	23.9891
2238.89	21.9761
2239.83	22.6198
2240.06	23
2241.01	20.5
2241.96	22.5
2242.9	21
2243.85	22
2244.8	21
2245.75	22.5
2246.69	23.5
2247.64	20.5
2248.59	20
2249.53	22.5
2250.48	22.5
2251.43	20
2252.37	20
2253.32	22
2254.27	23.5
2255.21	22.5
2256.16	22.5
2257.1	20.5
2258.05	22.5
2259	22
2259.94	19
2260.89	24
2261.83	22
2262.78	19
2263.72	25
2264.67	26
2265.61	23.5
2266.56	24.5
2267.5	23
2268.44	25.5
2269.39	25.5
2270.33	23
2271.27	26
2272.22	19
2273.16	20
2274.1	20
2275.05	26
2275.99	23
2276.93	23.5
2277.88	22
2278.82	23
2279.76	20.5
2280.7	21.5
2281.65	23.5
2282.59	21.5
2283.53	24.5
2284.47	22.5
2285.41	23.5
2286.35	22.5
2287.29	25
2288.24	24
2289.18	23
2290.12	23
2291.06	25.5
2292	24
2292.94	21
2293.88	26
2294.82	25.5
2295.76	22
2296.7	28
2297.64	26.5
2298.58	23.5
2299.52	24
2300.46	22.5
2301.4	23
2302.34	22.5
2303.28	20
2304.21	22
2305.15	22.5
2306.09	22
2307.03	23.5
2307.97	20.5
2308.91	23
2309.84	22.5
2310.78	21
2311.72	25
2312.66	24
2313.59	25.5
2314.53	22
2315.47	22.5
2316.4	23
2317.34	20
2318.28	20
2319.22	26.5
2320.15	22.5
2321.09	23.5
2322.02	25.5
2322.96	22
2323.89	21.5
2324.83	21
2325.77	21
2326.7	22.5
2327.64	24
2328.57	18
2329.51	23.5
2330.44	21
2331.38	23.5
2332.31	21.5
2333.25	25
2334.18	26
2335.11	24
2336.05	20
2336.98	23
2337.92	25.5
2338.85	22
2339.78	22
2340.72	25.5
2341.65	24
2342.58	23.5
2343.52	19.5
2344.45	23.5
2345.38	24
2346.31	24.5
2347.25	24
2348.18	25
2349.11	20.5
2350.04	22.5
2350.97	28
2351.9	22
2352.84	23.5
2353.77	27
2354.7	24
2355.63	23
2356.56	21
2357.49	22.5
2358.42	26
2359.35	23
2360.28	24
2361.21	25.5
2362.14	21
2363.07	23
2364	25.5
2364.93	23.5
2365.86	24
2366.79	24.5
2367.72	25
2368.65	22.5
2369.58	24.5
2370.51	23.5
2371.44	25
2372.36	19.5
2373.29	26.5
2374.22	27
2375.15	24
2376.08	24.5
2377.01	23
2377.93	22
2378.86	25
2379.79	22
2380.72	27
2381.64	21
2382.57	21.5
2383.5	22
2384.42	26.5
2385.35	17
2386.28	22.5
2387.2	24
2388.13	22
2389.06	24
2389.98	22
2390.91	24
2391.83	22
2392.76	22
2393.69	26
2394.61	26.5
2395.54	25
2396.46	24.5
2397.39	25
2398.31	24
2399.23	24.5
2400.16	30
2401.08	20.5
2402.01	22.5
2402.93	24.5
2403.86	24.5
2404.78	26
2405.7	23.5
2406.63	24
2407.55	23.5
2408.47	19.5
2409.4	23.5
2410.32	23
2411.24	24
2412.17	28
2413.09	22
2414.01	21
2414.93	24
2415.85	21
2416.78	22
2417.7	20
2418.62	25.5
2419.54	21
2420.46	24.5
2421.38	24.5
2422.31	25
2423.23	24
2424.15	21.5
2425.07	25.5
2425.99	25.5
2426.91	23
2427.83	25.5
2428.75	24
2429.67	21
2430.59	25
2431.51	23.5
2432.43	23.5
2433.35	22.5
2434.27	26
2435.19	23.5
2436.11	26.5
2437.03	27
2437.94	27
2438.86	24.5
2439.78	24
2440.7	20
2441.62	23.5
2442.54	23
2443.46	25
2444.37	20.5
2445.29	21
2446.21	23
2447.13	23.5
2448.04	27
2448.96	24
2449.88	22
2450.8	22
2451.71	20.5
2452.63	25
2453.55	21
2454.46	26
2455.38	26
2456.29	23
2457.21	22
2458.13	22.5
2459.04	22
2459.96	23
2460.87	28.5
2461.79	22.5
2462.7	27.5
2463.62	24
2464.53	28
2465.45	25
2466.36	20.5
2467.28	23
2468.19	28
2469.11	22.5
2470.02	23
2470.93	25
2471.85	24
2472.76	25.5
2473.67	23.5
2474.59	24
2475.5	24.5
2476.42	23.5
2477.33	25
2478.24	25
2479.15	26.5
2480.07	24.5
2480.98	27
2481.89	25
2482.8	22.5
2483.72	26
2484.63	24
2485.54	23.5
2486.45	20
2487.36	25
2488.27	25
2489.19	23
2490.1	22
2491.01	23
2491.92	25
2492.83	25.5
2493.74	21.5
2494.65	24
2495.56	24
2496.47	24
2497.38	26
2498.29	22
2499.2	27.5
2500.11	23.5
2501.02	21.5
2501.93	24
2502.84	25
2503.75	21
2504.66	24
2505.57	23
2506.47	20
2507.38	22
2508.29	23
2509.2	22.5
2510.11	24
2511.02	24
2511.92	23.5
2512.83	24
2513.74	27
2514.65	21
2515.55	22
2516.46	20.5
2517.37	24
2518.28	23.5
2519.18	26
2520.09	25
2521	24.5
2521.9	23.5
2522.81	27
2523.72	27.5
2524.62	24
2525.53	27.5
2526.43	25
2527.34	25
2528.24	25
2529.15	23.5
2530.06	23.5
2530.96	25
2531.87	23.5
2532.77	26
2533.68	26
2534.58	23.5
2535.48	22.5
2536.39	25
2537.29	23
2538.2	24
2539.1	23
2540	25
2540.91	20.5
2541.81	27.5
2542.72	21
2543.62	21.5
2544.52	23.5
2545.42	21.5
2546.33	22.5
2547.23	23.5
2548.13	23.5
2549.04	23
2549.94	24
2550.84	24.5
2551.74	24.5
2552.64	23.5
2553.55	25
2554.45	24
2555.35	26
2556.25	21
2557.15	25
2558.05	25
2558.95	20.5
2559.85	25
2560.76	25
2561.66	27
2562.56	23
2563.46	25
2564.36	25.5
2565.26	22
2566.16	26
2567.06	26.5
2567.96	21
2568.86	26.5
2569.76	27.5
2570.66	23
2571.55	23
2572.45	24
2573.35	25
2574.25	20.5
2575.15	25
2576.05	23
2576.95	24
2577.84	27
2578.74	23.5
2579.64	25.5
2580.54	25.5
2581.44	26.5
2582.33	22
2583.23	23
2584.13	24
2585.03	24
2585.92	20.5
2586.82	21.5
2587.72	23
2588.61	28
2589.51	24.5
2590.41	23
2591.3	24.5
2592.2	20.5
2593.09	25
2593.99	25.5
2594.89	24
2595.78	26
2596.68	25
2597.57	25
2598.47	16
2599.36	24
2600.26	28
2601.15	24
2602.05	25.5
2602.94	21
2603.84	22
2604.73	25.5
2605.63	24.5
2606.52	25.5
2607.41	26
2608.31	24
2609.2	25
2610.09	19.5
2610.99	24.5
2611.88	23.5
2612.77	25
2613.67	21.5
2614.56	23
2615.45	25
2616.35	28
2617.24	24
2618.13	22.5
2619.02	21.5
2619.91	26.5
2620.81	27.5
2621.7	25
2622.59	24.5
2623.48	25.5
2624.37	21
2625.26	23
2626.15	26
2627.05	24
2627.94	25
2628.83	26.5
2629.72	24
2630.61	28.5
2631.5	26
2632.39	23.5
2633.28	24
2634.17	25.5
2635.06	23.5
2635.95	26
2636.84	28
2637.73	27
2638.62	24
2639.51	25
2640.4	26.5
2641.28	25
2642.17	21
2643.06	23
2643.95	22
2644.84	22
2645.73	23
2646.62	28.5
2647.5	23
2648.39	21
2649.28	23.5
2650.17	23
2651.05	24.5
2651.94	26.5
2652.83	23
2653.72	24
2654.6	24
2655.49	26
2656.38	27
2657.26	22.5
2658.15	20
2659.04	19.5
2659.92	25
2660.81	23.5
2661.69	25
2662.58	24.5
2663.47	25
2664.35	22
2665.24	27
2666.12	24
2667.01	26
2667.89	25
2668.78	23.5
2669.66	27
2670.55	23.5
2671.43	24
2672.32	23.5
2673.2	24
2674.08	26
2674.97	26
2675.85	25
2676.74	21.5
2677.62	25
2678.5	23
2679.39	28
2680.27	23.5
2681.15	22.5
2682.04	23
2682.92	24.5
2683.8	25
2684.68	24
2685.57	25
2686.45	28
2687.33	25
2688.21	26
2689.09	24.5
2689.98	26.5
2690.86	21.5
2691.74	23.5
2692.62	26
2693.5	20.5
2694.38	22.5
2695.27	22.5
2696.15	22.5
2697.03	24.5
2697.91	22.5
2698.79	21
2699.67	26
2700.55	25
2701.43	24
2702.31	22.5
2703.19	24
2704.07	25
2704.95	26
2705.83	25.5
2706.71	26.5
2707.59	22.5
2708.47	27.5
2709.34	22.5
2710.22	26.5
2711.1	24.5
2711.98	23.5
2712.86	26.5
2713.74	25
2714.62	24.5
2715.49	24.5
2716.37	23.5
2717.25	27
2718.13	28
2719.01	27.5
2719.88	25
2720.76	22
2721.64	26.5
2722.51	23.5
2723.39	20
2724.27	22
2725.14	26.5
2726.02	21.5
2726.9	24.5
2727.77	24.5
2728.65	24
2729.53	21
2730.4	21
2731.28	23.5
2732.15	26
2733.03	28
2733.91	27
2734.78	24
2735.66	23.5
2736.53	22
2737.41	27
2738.28	23.5
2739.16	22
2740.03	25
2740.9	21.5
2741.78	25
2742.65	26
2743.53	29
2744.4	24
2745.27	21
2746.15	24
2747.02	24
2747.89	26
2748.77	25
2749.64	27
2750.51	24.5
2751.39	24
2752.26	24.5
2753.13	24.5
2754.01	20
2754.88	26
2755.75	22.5
2756.62	23
2757.49	25
2758.37	25
2759.24	21
2760.11	21.5
2760.98	27
2761.85	25
2762.72	22.5
2763.59	20
2764.46	24
2765.34	27
2766.21	25.5
2767.08	22
2767.95	23.5
2768.82	21
2769.69	25
2770.56	22
2771.43	26
2772.3	24
2773.17	20.5
2774.04	23
2774.91	22
2775.78	24.5
2776.65	25
2777.51	21
2778.38	20
2779.25	20.5
2780.12	25
2780.99	26
2781.86	25
2782.73	24.5
2783.59	25
2784.46	26
2785.33	25
2786.2	24
2787.07	23
2787.93	22
2788.8	26
2789.67	21.5
2790.54	24
2791.4	24
2792.27	28.5
2793.14	23
2794	22.5
2794.87	21
2795.74	22
2796.6	25
2797.47	27
2798.34	24.5
2799.2	23
2800.07	26
2800.93	25.5
2801.8	25
2802.66	25
2803.53	24
2804.39	18
2805.26	26.5
2806.12	24.5
2806.99	26.5
2807.85	21
2808.72	25.5
2809.58	25.5
2810.45	25.5
2811.31	22
2812.18	25.5
2813.04	24
2813.9	22
2814.77	24.5
2815.63	28
2816.49	19
2817.36	20.5
2818.22	24
2819.08	27
2819.95	21
2820.81	23
2821.67	24
2822.53	23
2823.4	26.5
2824.26	22
2825.12	26
2825.98	25
2826.84	22.5
2827.71	24
2828.57	19.5
2829.43	28
2830.29	22.5
2831.15	23.5
2832.01	24
2832.88	24
2833.74	28.5
2834.6	25.5
2835.46	23.5
2836.32	24.5
2837.18	27.5
2838.04	25
2838.9	26
2839.76	22.5
2840.62	25
2841.48	27
2842.34	23.5
2843.2	26
2844.06	25
2844.92	23
2845.78	21
2846.63	22
2847.49	23.5
2848.35	20
2849.21	21
2850.07	26
2850.93	23
2851.79	24
2852.64	26
2853.5	23
2854.36	26
2855.22	21
2856.08	21.5
2856.93	23.5
2857.79	23.5
2858.65	23.5
2859.51	25
2860.36	22
2861.22	24
2862.08	24
2862.93	25
2863.79	20
2864.65	22
2865.5	18.5
2866.36	23
2867.22	26
2868.07	19
2868.93	21
2869.78	17.5
2870.64	27.5
2871.49	20
2872.35	23
2873.21	20.5
2874.06	23.5
2874.91	24.5
2875.77	24
2876.62	24
2877.48	24
2878.33	22.5
2879.19	26
2880.04	22.5
2880.9	21.5
2881.75	23
2882.6	23.5
2883.46	25.5
2884.31	24
2885.17	21.5
2886.02	21.5
2886.87	27
2887.73	18.5
2888.58	27.5
2889.43	29
2890.28	24.5
2891.14	25
2891.99	25.5
2892.84	24
2893.69	25
2894.55	28
2895.4	25
2896.25	27
2897.1	28.5
2897.95	26.5
2898.8	27.5
2899.66	26
2900.51	28.5
2901.36	26
2902.21	28.5
2903.06	29.5
2903.91	30
2904.76	27.5
2905.61	29
2906.46	28.5
2907.31	33
2908.16	29.5
2909.01	29
2909.86	24.5
2910.71	26
2911.56	30.5
2912.41	27
2913.26	30
2914.11	27.5
2914.96	24
2915.81	22
2916.66	27.5
2917.51	26
2918.36	26
2919.2	23.5
2920.05	25.5
2920.9	19
2921.75	28.5
2922.6	24
2923.45	22
2924.29	23.5
2925.14	25
2925.99	23
2926.84	23.5
2927.68	24.5
2928.53	24
2929.38	25.5
2930.23	22.5
2931.07	19
2931.92	23
2932.77	26
2933.61	22.5
2934.46	21
2935.3	22
2936.15	22.5
2937	23.5
2937.84	24
2938.69	20
2939.53	24
2940.38	23.5
2941.23	25
2942.07	28
2942.92	28
2943.76	23.5
2944.61	22.5
2945.45	23
2946.3	21.5
2947.14	22.5
2947.98	20.5
2948.83	23.5
2949.67	26
2950.52	24.5
2951.36	24
2952.2	24
2953.05	23.5
2953.89	26
2954.74	22
2955.58	24
2956.42	20
2957.27	25
2958.11	23
2958.95	24
2959.79	27
2960.64	28
2961.48	26.5
2962.32	27
2963.16	24
2964.01	22.5
2964.85	26
2965.69	27
2966.53	22
2967.37	25
2968.21	23.5
2969.06	25
2969.9	24
2970.74	26
2971.58	22.5
2972.42	23.9782
2973.26	26.525
2974.1	22.5788
2974.94	22.9668
2975.78	20.1068
2976.62	23.0776
2977.46	21.7622
2978.3	23.4102
2979.14	24.685
2979.98	19.687
2980.82	24.5944
2981.66	23.4874
2982.5	23.0878
2983.34	21.1797
2984.18	22.2483
2985.02	23.3394
2985.86	21.774
2986.7	20.4409
2987.54	20.8734
2988.38	21.6426
2989.21	20.5143
2990.05	23.4749
2990.89	23.1156
2991.73	21.2376
2992.57	18.1191
2993.41	22.8568
2994.24	20.7892
2995.08	23.3927
2995.92	27.2816
2996.76	22.1946
2997.59	22.5045
2998.43	21.2466
2999.27	22.6751
3000.1	22.5428
3000.94	21.2621
3001.78	20.2131
3002.61	23.1513
3003.45	20.9758
3004.29	18.1368
3005.12	23.2124
3005.96	21.5612
3006.8	23.3867
3007.63	21.8093
3008.47	21.2189
3009.3	19.6626
3010.14	21.0819
3010.97	24.7034
3011.81	21.0428
3012.64	20.4
3013.48	22.0194
3014.31	22.4905
3015.15	23.5606
3015.98	21.9062
3016.82	21.439
3017.65	21.0344
3018.49	21.5606
3019.32	21.5172
3020.16	23.3911
3020.99	21.5242
3021.82	21.2967
3022.66	20.8436
3023.49	19.7872
3024.32	23.7185
3025.16	22.6784
3025.99	22.0208
3026.82	19.1414
3027.66	23
3028.49	22.1052
3029.32	23.1516
3030.16	20.7093
3030.99	20.4858
3031.82	21.6203
3032.65	22.5024
3033.49	19.7971
3034.32	20.705
3035.15	22.8859
3035.98	22.2923
3036.81	22.9348
3037.64	23.7318
3038.48	22.4397
3039.31	20.6329
3040.14	19.6881
3040.97	22.2222
3041.8	22.6963
3042.63	22.6851
3043.46	23.5147
3044.29	22.699
3045.12	22.7888
3045.95	22.8034
3046.78	22.0529
3047.61	19.8917
3048.44	19.805
3049.27	20.832
3050.1	19.0229
3050.93	19.8059
3051.76	20.8372
3052.59	22.5409
3053.42	26.1127
3054.25	22.8826
3055.08	18.2737
3055.91	20.7713
3056.74	22.8154
3057.26	20
3058.09	22.5
3058.92	24.5
3059.76	21
3060.59	18.5
3061.42	20.5
3062.26	23
3063.09	22.5
3063.92	20
3064.75	22
3065.59	22
3066.42	18.5
3067.25	24
3068.08	22.5
3068.91	19.5
3069.74	27
3070.58	24.5
3071.41	22
3072.24	20.5
3073.07	23
3073.9	24.5
3074.73	21
3075.56	23.5
3076.39	20
3077.22	23
3078.05	24
3078.88	22.5
3079.71	22.5
3080.55	22
3081.38	24
3082.2	24.5
3083.03	22.5
3083.86	23.5
3084.69	24
3085.52	21.5
3086.35	22
3087.18	17.5
3088.01	21
3088.84	23
3089.67	19.5
3090.5	21.5
3091.33	22
3092.15	21
3092.98	21
3093.81	26
3094.64	25.5
3095.47	20
3096.29	20.5
3097.12	22.5
3097.95	19.5
3098.78	21
3099.6	22.5
3100.43	23
3101.26	21.5
3102.09	24
3102.91	23
3103.74	24
3104.57	20.5
3105.39	21.5
3106.22	22.5
3107.05	20
3107.87	23
3108.7	22
3109.52	24
3110.35	25
3111.18	24
3112	22
3112.83	23
3113.65	23.5
3114.48	23.5
3115.3	22.5
3116.13	19.5
3116.95	20
3117.78	21.5
3118.6	22
3119.43	22.5
3120.25	21
3121.08	23.5
3121.9	22
3122.73	24
3123.55	22
3124.37	24
3125.2	21
3126.02	18.5
3126.84	23
3127.67	23.5
3128.49	22.5
3129.31	20
3130.14	21
3130.96	24.5
3131.78	23
3132.61	23
3133.43	22
3134.25	23.5
3135.07	25
3135.9	18
3136.72	28.5
3137.54	20.5
3138.36	24.5
3139.18	21
3140.01	26.5
3140.83	24.5
3141.65	21
3142.47	21.5
3143.29	24.5
3144.11	21.5
3144.93	20
3145.75	21
3146.58	23
3147.4	18
3148.22	20.5
3149.04	23
3149.86	25.5
3150.68	21
3151.5	24.5
3152.32	24
3153.14	21.5
3153.96	22
3154.78	23.5
3155.6	19
3156.42	28.5
3157.23	24.5
3158.05	20
3158.87	25.5
3159.69	24.5
3160.51	20.5
3161.33	23.5
3162.15	22
3162.97	24
3163.79	24
3164.6	24
3165.42	22
3166.24	26
3167.06	24.5
3167.88	23
3168.69	19.5
3169.51	26
3170.33	22
3171.15	22
3171.96	23
3172.78	23
3173.6	21
3174.41	20.5
3175.23	22.5
3176.05	27
3176.86	20
3177.68	21
3178.5	20
3179.31	26
3180.13	22.5
3180.95	26
3181.76	20.5
3182.58	21.5
3183.39	25
3184.21	24.5
3185.02	22
3185.84	21
3186.65	24
3187.47	21
3188.28	23
3189.1	22
3189.91	23
3190.73	22
3191.54	21.5
3192.36	21
3193.17	24
3193.99	22
3194.8	25
3195.61	23
3196.43	23.5
3197.24	24.5
3198.05	24
3198.87	21
3199.68	23
3200.49	21
3201.31	22.5
3202.12	24
3202.93	22.5
3203.75	21.5
3204.56	23.5
3205.37	23.5
3206.18	26.5
3207	21.5
3207.81	22.5
3208.62	22.5
3209.43	22
3210.24	24
3211.06	21.5
3211.87	21
3212.68	21.5
3213.49	25
3214.3	20
3215.11	23.5
3215.92	23.5
3216.74	23.5
3217.55	23.5
3218.36	23
3219.17	22
3219.98	20.5
3220.79	20.5
3221.6	19.5
3222.41	20.5
3223.22	24
3224.03	25.5
3224.84	21
3225.65	24.5
3226.46	22
3227.27	23
3228.08	22
3228.89	19.5
3229.7	26
3230.5	23
3231.31	25.5
3232.12	23
3232.93	24.5
3233.74	24.5
3234.55	22
3235.36	24
3236.16	22
3236.97	21.5
3237.78	22
3238.59	20
3239.4	23
3240.2	24
3241.01	22
3241.82	24.5
3242.63	25
3243.43	23
3244.24	27
3245.05	24.5
3245.86	23
3246.66	25
3247.47	25
3248.28	21
3249.08	18
3249.89	23
3250.69	24.5
3251.5	21
3252.31	22
3253.11	22
3253.92	24
3254.72	24
3255.53	21
3256.34	25.5
3257.14	25.5
3257.95	25
3258.75	19
3259.56	23.5
3260.36	24
3261.17	21
3261.97	22.5
3262.77	23
3263.58	24.5
3264.38	23.5
3265.19	25
3265.99	25.5
3266.8	23
3267.6	26
3268.4	24
3269.21	26
3270.01	25.5
3270.81	21
3271.62	24
3272.42	25
3273.22	24
3274.03	23.5
3274.83	24
3275.63	27
3276.43	23
3277.24	23.5
3278.04	25.5
3278.84	24.5
3279.64	23
3280.45	20.5
3281.25	22
3282.05	23
3282.85	22.5
3283.65	24.5
3284.46	24.5
3285.26	24
3286.06	23
3286.86	21
3287.66	26
3288.46	23
3289.26	25
3290.06	21
3290.86	21
3291.66	24
3292.46	24
3293.26	24.5
3294.06	26
3294.86	22
3295.66	24.5
3296.46	25.5
3297.26	26
3298.06	24.5
3298.86	22
3299.66	20
3300.46	25.5
3301.26	20.5
3302.06	27
3302.86	23
3303.66	24.5
3304.46	21
3305.26	25
3306.05	24.5
3306.85	22.5
3307.65	24.5
3308.45	23
3309.25	20
3310.04	23
3310.84	24
3311.64	22
3312.44	20
3313.24	22
3314.03	26.5
3314.83	24.5
3315.63	26
3316.42	19.5
3317.22	22.5
3318.02	26
3318.82	27.5
3319.61	22.5
3320.41	26
3321.2	23.5
3322	27
3322.8	21.5
3323.59	25.5
3324.39	19
3325.19	23
3325.98	21.5
3326.78	24.5
3327.57	26
3328.37	25
3329.16	22
3329.96	24.5
3330.75	25.5
3331.55	25
3332.34	25
3333.14	26
3333.93	26
3334.73	22
3335.52	21.5
3336.32	23
3337.11	22
3337.9	23
3338.7	23
3339.49	22
3340.29	22.5
3341.08	25.5
3341.87	23.5
3342.67	25
3343.46	23
3344.25	23.5
3345.05	26.5
3345.84	25
3346.63	22
3347.42	25
3348.22	25.5
3349.01	22
3349.8	23
3350.59	21
3351.39	24.5
3352.18	24.5
3352.97	23.5
3353.76	26.5
3354.55	23
3355.35	25.5
3356.14	26
3356.93	23
3357.72	24.5
3358.51	23
3359.3	21.5
3360.09	25.5
3360.88	25
3361.67	25
3362.47	26.5
3363.26	24
3364.05	25.5
3364.84	23
3365.63	23
3366.42	24.5
3367.21	26.5
3368	22
3368.79	26
3369.58	22
3370.37	24
3371.16	25.5
3371.95	22
3372.73	25.5
3373.52	23
3374.31	23.5
3375.1	23.5
3375.89	23
3376.68	22
3377.47	26.5
3378.26	22.5
3379.04	22
3379.83	22
3380.62	26.5
3381.41	19
3382.2	25
3382.98	26.5
3383.77	22
3384.56	21
3385.35	26
3386.14	24
3386.92	23
3387.71	24
3388.5	23.5
3389.28	24
3390.07	19
3390.86	25.5
3391.64	23
3392.43	23
3393.22	24.5
3394	20
3394.79	25
3395.58	25
3396.36	27
3397.15	21.5
3397.93	23
3398.72	21.5
3399.5	21
3400.29	23
3401.07	24
3401.86	23.5
3402.65	21.5
3403.43	23
3404.22	21
3405	27
3405.79	22
3406.57	22
3407.35	24
3408.14	21.5
3408.92	23
3409.71	25.5
3410.49	24
3411.27	25
3412.06	24.5
3412.84	22
3413.63	25.5
3414.41	19
3415.19	21.5
3415.98	23
3416.76	22.5
3417.54	24
3418.32	24
3419.11	26.5
3419.89	21.5
3420.67	27
3421.46	24.5
3422.24	27.5
3423.02	22
3423.8	25
3424.58	22.5
3425.37	24.5
3426.15	24.5
3426.93	25.5
3427.71	26
3428.49	25
3429.27	24
3430.06	23.5
3430.84	27
3431.62	22
3432.4	21
3433.18	21.5
3433.96	24
3434.74	25
3435.52	22.5
3436.3	25
3437.08	25.5
3437.86	26
3438.64	25
3439.42	21
3440.2	24
3440.98	24
3441.76	25
3442.54	24
3443.32	19
3444.1	23.5
3444.88	24
3445.66	26.5
3446.44	25.5
3447.22	24
3448	26
3448.78	25
3449.55	26
3450.33	23.5
3451.11	24
3451.89	26
3452.67	24.5
3453.45	23
3454.22	25
3455	23
3455.78	24
3456.56	25
3457.33	22
3458.11	24
3458.89	27.5
3459.67	22.5
3460.44	24.5
3461.22	24
3462	25.5
3462.77	25.5
3463.55	21
3464.33	24
3465.1	28
3465.88	22.5
3466.66	21
3467.43	23.5
3468.21	22
3468.99	22.5
3469.76	20
3470.54	22
3471.31	22
3472.09	19
3472.86	27
3473.64	24
3474.41	18
3475.19	24.5
3475.96	21
3476.74	22
3477.51	21
3478.29	25
3479.06	27.5
3479.84	25
3480.61	21.5
3481.39	23
3482.16	22.5
3482.93	23.5
3483.71	22
3484.48	24.5
3485.26	25.5
3486.03	21.5
3486.8	25.5
3487.58	23
3488.35	24.5
3489.12	25
3489.9	22.5
3490.67	24
3491.44	25.5
3492.21	21
3492.99	22.5
3493.76	25
3494.53	21
3495.3	22.5
3496.08	22.5
3496.85	24
3497.62	24.5
3498.39	23.5
3499.16	23
3499.94	21
