#Acq. time (s)=	5
#Accumulations=	5
#Range (cm-¹)=	100...3500
#Windows=	4
#Autofocus=	Off
#AutoExposure=	Off
#Spike filter=	Multiple accum.
#Delay time (s)=	0
#Binning=	1
#Readout mode=	Signal
#DeNoise=	Off
#ICS correction=	Off
#Dark correction=	Off
#Inst. Process=	Off
#Instrument=	LabRAM HR Evol
#Detector=	Syncerity OE
#Objective=	x100_VIS
#Grating=	600 (500nm)
#ND Filter=	25%
#Laser=	633nm_Edge
#Hole=	100.021
#Range=	Visible
#Project=	verificaciones
#Sample=	a2
#Site=	plain
#Title=	bolusa2plain
#Remark=	com
#Date=	16.01.2026 13:39
#Acquired=	16.01.2026 13:39:27
100.687	26
101.971	34.5
103.254	35
104.537	35.5
105.82	31.5
107.103	32.5
108.387	31.5
109.669	37.5
110.951	31.5
112.233	34
113.514	36
114.796	33
116.077	35.5
117.358	34
118.639	34
119.919	28
121.2	31.5
122.48	39.5
123.76	35.5
125.039	33
126.319	35
127.598	36
128.877	34.5
130.156	34.5
131.435	36.5
132.713	42
133.992	34
135.268	35
136.546	39
137.824	37.5
139.101	38
140.378	41
141.655	40
142.932	45
144.209	41.5
145.485	42
146.76	43
148.036	40
149.312	46.5
150.587	43
151.862	46.5
153.138	42.5
154.411	45
155.686	43
156.96	43
158.235	44.5
159.509	41
160.781	45
162.055	44
163.328	46
164.602	46
165.873	46
167.146	39
168.419	43.5
169.691	42.5
170.962	45.5
172.234	47
173.506	41
174.777	48
176.047	45
177.318	40.5
178.589	44.5
179.859	43.5
181.129	41
182.4	45
183.668	48
184.938	44
186.207	49.5
187.476	42
188.746	49.5
190.013	50
191.282	47.5
192.551	46.5
193.818	43.5
195.086	45.5
196.353	43.5
197.621	43.5
198.887	41.5
200.154	39
201.422	42.5
202.687	42.5
203.954	37
205.219	44
206.486	39
207.751	37.5
209.017	37.5
210.281	39.5
211.547	39.5
212.811	37.5
214.076	39
215.339	35.5
216.603	39
217.867	37.5
219.13	30
220.395	37.5
221.657	34
222.921	39
224.183	36
225.445	33
226.708	33.5
227.97	31
229.232	34.5
230.493	34.5
231.754	33.5
233.016	33
234.277	26
235.537	31.5
236.799	33
238.059	33.5
239.318	30
240.579	35.5
241.839	32
243.098	36
244.358	30.5
245.617	35
246.875	33
248.133	28
249.393	30.5
250.651	31
251.908	33
253.166	30.5
254.424	35
255.681	27.5
256.938	28
258.195	30
259.451	34
260.709	26
261.965	33
263.221	31
264.476	26.5
265.732	30
266.988	32
268.243	32.5
269.498	29.5
270.753	30.5
272.007	31.5
273.261	29.5
274.515	32
275.769	26
277.022	30
278.277	28.5
279.53	34
280.783	27.5
282.036	30
283.289	32.5
284.541	29
285.793	27.5
287.045	30
288.297	28
289.548	29.5
290.8	29
292.051	29
293.302	30
294.552	33
295.803	30.5
297.053	30.5
298.303	27.5
299.553	32
300.803	27.5
302.053	30
303.302	31
304.551	28.5
305.8	28.5
307.047	33
308.296	31
309.544	31
310.792	35.5
312.04	28.5
313.288	29.5
314.535	31
315.783	28.5
317.03	32
318.275	32
319.522	29
320.768	31.5
322.015	30
323.261	30.5
324.505	29.5
325.751	30
326.997	27.5
328.242	31.5
329.487	30
330.73	30
331.975	31.5
333.22	31
334.464	30
335.707	31.5
336.95	32.5
338.194	29.5
339.438	29
340.68	33
341.923	29
343.166	32.5
344.407	28
345.649	29
346.892	29
348.132	28.5
349.374	30.5
350.616	27.5
351.856	32.5
353.097	28
354.337	33
355.578	30.5
356.818	32.5
358.058	29
359.298	28
360.536	28
361.776	27.5
363.016	27
364.254	27.5
365.493	27.5
366.731	29.5
367.97	27.5
369.207	28.5
370.446	25.5
371.683	31
372.921	29
374.157	31
375.395	29.5
376.631	28
377.868	27.5
379.104	33.5
380.341	31.5
381.576	32.5
382.813	28
384.048	27
385.284	32
386.518	29
387.753	25.5
388.988	28
390.222	33
391.457	28.5
392.691	26
393.924	29
395.159	30.5
396.392	31
397.624	31
398.858	28
400.091	30
401.323	29.5
402.556	28
403.788	27
405.019	27
406.252	24
407.483	29.5
408.714	26.5
409.945	26
411.177	28.5
412.407	33
413.637	28.5
414.867	29
416.099	26.5
417.328	30.5
418.558	25
419.787	29.5
421.016	29
422.246	27
423.475	30.5
424.703	29
425.931	31
427.159	28
428.388	27.5
429.616	30.5
430.843	30.5
432.071	27.5
433.298	31.5
434.524	29.5
435.751	28.5
436.977	30.5
438.204	27.5
439.431	33
440.657	31.5
441.883	27.5
443.108	27.5
444.333	30.5
445.558	27
446.783	26.5
448.008	30
449.232	30
450.457	33
451.681	30
452.905	31.5
454.128	28
455.352	28.5
456.575	30
457.798	27.5
459.021	28.5
460.244	29
461.466	34.5
462.689	33
463.909	33
465.131	34
466.353	33.5
467.575	36.5
468.796	34
470.017	33
471.238	37
472.459	39
473.679	39
474.898	39
476.118	42.5
477.338	42
478.558	46.5
479.778	48.5
480.997	56
482.215	51.5
483.434	57
484.653	66
485.871	64
487.09	71
488.307	61.5
489.525	64
490.743	66
491.96	63.5
493.176	58.5
494.394	59
495.611	63
496.826	54.5
498.043	52
499.259	51
500.474	51
501.69	44.5
502.906	45
504.121	44.5
505.336	42.5
506.551	39.5
507.765	38.5
508.98	37
510.195	39
511.408	38.5
512.622	36
513.835	39.5
515.049	37
516.263	32
517.475	35.5
518.689	32.5
519.9	34.5
521.113	31.5
522.325	33.5
523.537	38
524.748	36.5
525.961	33
527.171	31
528.383	34
529.594	31
530.805	32
532.015	33
533.226	31.5
534.435	30
535.646	32.5
536.855	34.5
538.066	31
539.274	33.5
540.483	29.5
541.693	28.5
542.901	26.5
544.11	27.5
545.318	29
546.526	29
547.734	30.5
548.942	26
550.149	31.5
551.357	29.5
552.563	34
553.77	28.5
554.978	28.5
556.184	30.5
557.389	24
558.596	29
559.802	26
561.007	31
562.212	34
563.419	30
564.623	32.5
565.828	30
567.032	28.5
568.238	29
569.442	29.5
570.646	31
571.849	29.5
573.054	28.5
574.257	26
575.46	29.5
576.663	30.5
577.866	32.5
579.068	28.5
580.272	28
581.474	36
582.676	27.5
583.877	24.5
585.079	32.5
586.28	29.5
587.481	25.5
588.682	32
589.883	30
591.083	30.5
592.285	28
593.485	29
594.685	27.5
595.885	24.5
597.084	28
598.284	31.5
599.483	30
600.682	27
601.881	30
603.08	27.5
604.278	32.5
605.476	30.5
606.674	26
607.872	29.5
609.07	34
610.266	33.5
611.463	33
612.661	28
613.857	33
615.054	29.5
616.251	29.5
617.447	29
618.643	29.5
619.839	28.5
621.035	29.5
622.229	28
623.425	30
624.62	22
625.815	31.5
627.01	32.5
628.205	28
629.398	31
630.592	26
631.786	28
632.98	29.5
634.172	29.5
635.366	31
636.559	29
637.753	32.5
638.944	29.5
640.137	32
641.33	25.5
642.522	31
643.713	31
644.905	32
646.097	25
647.287	28.5
648.478	31.5
649.67	30.5
650.859	28
652.05	33
653.241	27
654.43	30
655.621	31
656.811	31
657.999	27.5
659.189	31.5
660.378	31
661.567	26
662.755	29.5
663.944	29
665.133	34
666.32	29.5
667.508	25.5
668.695	30.5
669.884	31
671.07	32.5
672.258	34.5
673.444	31.5
674.631	32.5
675.817	32.5
677.004	31
678.19	31
679.376	32
680.561	29
681.746	36.5
682.932	31.5
684.117	38
685.302	38.5
686.487	39
687.672	31.5
688.856	34
690.039	32
691.224	38.5
692.407	35
693.59	36
694.774	36.5
695.957	34.5
697.14	37
698.323	38
699.505	38.5
700.687	40
701.87	38
703.052	40.5
704.233	48.5
705.414	52
706.597	55.5
707.778	53.5
708.958	57
710.139	53
711.32	52
712.5	52
713.68	41
714.86	39.5
716.039	34.5
717.22	39.5
718.399	38
719.578	32
720.757	31
721.935	34
723.114	29.5
724.292	28.5
725.471	28
726.649	31
727.827	31
729.004	27
730.182	29.5
731.359	28
732.536	34.5
733.712	26.5
734.889	33
736.065	31.5
737.242	32
738.418	29
739.593	29
740.769	28.5
741.945	27.5
743.12	31.5
744.295	30
745.47	33.5
746.644	29
747.819	32
748.993	29
750.168	24.5
751.342	30
752.515	28
753.689	30
754.862	31
756.036	29
757.209	28
758.382	29
759.553	35
760.725	28
761.898	27
763.07	28.5
764.242	28.5
765.414	32
766.584	32
767.755	31.5
768.927	30
770.098	29.5
771.269	31
772.438	31.5
773.608	28.5
774.779	31.5
775.949	27
777.117	28.5
778.287	28.5
779.457	30
780.626	33
781.794	34.5
782.963	28
784.132	34.5
785.299	32.5
786.468	35
787.636	34.5
788.803	31.5
789.971	28
791.139	32
792.305	34
793.472	32
794.638	33
795.805	31
796.972	32.5
798.138	28
799.304	34
800.469	32
801.635	30
802.801	27
803.966	35
805.131	28.5
806.295	27
807.461	32
808.624	33.5
809.789	30
810.952	26
812.117	27.5
813.28	27
814.444	26
815.607	28
816.769	28
817.933	30.5
819.095	27
820.258	30
821.42	32
822.583	30.5
823.744	24.5
824.905	26.5
826.068	31
827.228	30
828.389	27.5
829.551	26
830.711	27
831.871	29.5
833.032	24
834.192	28.5
835.352	29
836.513	31.5
837.672	30
838.831	28.5
839.99	26
841.15	29
842.308	24
843.466	31
844.624	29
845.784	26
846.941	27
848.099	29
849.256	26.5
850.414	29.5
851.572	27
852.729	26.5
853.886	30.5
855.042	29.5
856.198	30
857.355	30
858.512	31.5
859.668	28
860.823	30.5
861.979	30
863.134	33
864.289	28.5
865.444	31.5
866.599	28
867.753	31
868.908	31.5
870.062	31
871.216	30
872.37	31
873.523	29.5
874.677	29
875.83	25
876.983	34
878.136	27.5
879.289	30
880.441	29
881.594	28
882.746	28.5
883.898	29.5
885.05	29
886.201	29.5
887.353	30
888.504	28
889.655	27
890.806	26
891.956	28
893.107	26
894.257	25
895.407	32.5
896.557	26.5
897.707	27.5
898.856	31
900.005	28
901.154	25.5
902.304	25
903.453	31
904.6	30
905.749	24.5
906.897	25.5
908.046	22.5
909.192	26.5
910.34	27
911.488	24.5
912.634	28
913.782	26.5
914.929	26
916.076	27.5
917.222	27.5
918.368	29
919.515	25.5
920.66	29
921.806	26
922.951	29
924.097	27.5
925.242	31.5
926.387	25.5
927.532	24.5
928.676	23.5
929.821	24.5
930.965	26
932.109	28
933.253	28.5
934.396	28
935.54	29
936.683	28
937.826	29.5
938.969	28
940.112	25
941.254	27.5
942.397	27.5
943.538	27.5
944.681	25
945.822	26
946.964	27
948.105	27
949.246	24
950.388	23
951.528	29.5
952.669	24
953.809	24
954.949	20.5
956.09	29
957.229	22
958.369	28
959.509	31
960.648	28.5
961.786	31.5
962.926	27
964.065	21
965.203	27
966.342	27.5
967.48	27
968.618	26
969.755	25.5
970.894	26.75
972.031	28
973.168	22.5
974.305	30.5
975.441	26
976.579	28
977.715	22
978.851	27
979.987	29
981.123	25.5
982.26	27.5
983.395	26
984.531	26.5
985.666	27
986.8	24
987.935	25
989.07	28.5
990.204	26.5
991.338	28
992.472	27
993.607	28.5
994.741	28.5
995.874	25.5
997.008	25
998.141	25.5
999.274	27.5
1000.41	25.5
1001.54	30
1002.67	22
1003.8	27
1004.94	28
1006.07	27.5
1007.2	22
1008.33	28
1009.46	27
1010.59	24
1011.72	28.5
1012.85	31
1013.99	29.5
1015.12	27.5
1016.25	25
1017.38	27.5
1018.51	27
1019.63	27.5
1020.76	28
1021.89	27.5
1023.02	31
1024.15	30
1025.28	25.5
1026.41	25
1027.54	22.5
1028.67	29.5
1029.79	26.5
1030.92	26.5
1032.05	26
1033.18	27
1034.3	25
1035.43	26
1036.56	24.5
1037.68	26.5
1038.81	28
1039.94	28.5
1041.06	26.5
1042.19	26.5
1043.31	28
1044.44	26.5
1045.57	31
1046.69	28.5
1047.82	27.5
1048.94	26
1050.07	29.5
1051.19	28
1052.31	27
1053.44	27
1054.56	24
1055.69	29
1056.81	28
1057.93	30.5
1059.06	25
1060.18	26.5
1061.3	21
1062.42	26.5
1063.55	24
1064.67	27.5
1065.79	23
1066.91	27
1068.03	29.5
1069.16	27
1070.28	26
1071.4	27.5
1072.52	27.5
1073.64	27
1074.76	23.5
1075.88	29
1077	23
1078.12	28.5
1079.24	25
1080.36	30
1081.48	24.5
1082.6	30
1083.72	27.5
1084.84	27.5
1085.96	27.5
1087.08	26.5
1088.2	27.5
1089.31	32
1090.43	26
1091.55	23.5
1092.67	25.5
1093.78	27.5
1094.9	25
1096.02	28.5
1097.14	27
1098.25	29
1099.37	29.5
1100.49	30
1101.6	28
1102.72	28.5
1103.83	21
1104.95	24
1106.07	24.5
1107.18	25
1108.3	26.5
1109.41	25.5
1110.52	26
1111.64	28.5
1112.75	25
1113.87	27.5
1114.98	20.5
1116.1	25
1117.21	24
1118.32	26.5
1119.44	27
1120.55	24
1121.66	24
1122.78	26
1123.89	18
1125	26.5
1126.11	27.5
1127.23	22
1128.34	26
1129.45	27.5
1130.56	22
1131.67	23.5
1132.78	25.5
1133.89	25.5
1135	25.5
1136.12	28
1137.23	28
1138.34	24.5
1139.45	27
1140.56	23.5
1141.67	26.5
1142.78	28
1143.89	23
1144.99	24.5
1146.1	25
1147.21	27
1148.32	24.5
1149.43	24
1150.54	27
1151.65	27
1152.75	28
1153.86	26.5
1154.97	28
1156.08	26.5
1157.18	24.5
1158.29	28.5
1159.4	22.5
1160.5	28
1161.61	24
1162.72	24
1163.82	26.5
1164.93	30
1166.03	21.5
1167.14	27
1168.24	24.5
1169.35	25
1170.45	28
1171.56	28.5
1172.66	27
1173.77	25.5
1174.87	26.5
1175.98	24.5
1177.08	28
1178.19	26
1179.29	24.5
1180.39	26.5
1181.5	24
1182.6	19
1183.7	24
1184.8	23
1185.91	25.5
1187.01	27.5
1188.11	22
1189.21	24.5
1190.32	23
1191.42	24.5
1192.52	26
1193.62	27
1194.72	23.0149
1195.82	23.4724
1196.92	24.5649
1198.02	23.7464
1199.12	26.4481
1200.22	25.886
1201.32	27.5638
1202.42	22.3894
1203.52	26.3538
1204.62	24.8144
1205.72	24.1367
1206.82	23.1846
1207.92	25.0607
1209.02	24.206
1210.12	23.7534
1211.22	24.4385
1212.31	23.451
1213.41	24.0744
1214.51	27.3136
1215.61	24.2293
1216.71	23.3123
1217.8	24.6273
1218.9	27.2985
1220	25.3155
1221.09	23.3919
1222.19	24.9729
1223.29	21.0132
1224.38	26.3889
1225.48	23.933
1226.58	24.4849
1227.67	25.6296
1228.77	26.406
1229.86	24.9399
1230.96	23.2546
1232.05	24.4879
1233.15	24.8402
1234.24	26.9708
1235.34	27.0283
1236.43	24.9051
1237.52	25.9711
1238.62	25.6574
1239.71	23.5111
1240.81	24.5354
1241.9	26.5558
1242.99	26.787
1244.09	24.1914
1245.18	27.023
1246.27	24.8403
1247.36	23.3655
1248.46	24.6537
1249.55	24.4401
1250.64	26.4611
1251.73	27.4875
1252.82	26.3111
1253.92	26.1025
1255.01	27.4923
1256.1	26.0269
1257.19	25.6134
1258.28	26.917
1259.37	26.9351
1260.46	24.9758
1261.55	26.8945
1262.64	27.9041
1263.73	27.2933
1264.82	28.4679
1265.91	30.3264
1267	28.5384
1268.09	26.1528
1269.18	24.6222
1270.27	27.2512
1271.36	27.1869
1272.45	23.6484
1273.53	23.4442
1274.62	26.1535
1275.71	25.7411
1276.8	24.6407
1277.89	22.8375
1278.97	24.6198
1280.06	25.4853
1281.15	24.2023
1282.23	25.6378
1283.32	24.7837
1284.41	24.4976
1285.49	23.8107
1286.58	25.5797
1287.67	29.7887
1288.75	25.6458
1289.84	25.0263
1290.92	25.0704
1292.01	24.8689
1293.09	26.4123
1294.18	25.986
1295.26	22.6603
1296.35	25.7035
1297.43	26.4913
1298.52	26.1545
1299.6	23.9525
1300.69	24.9262
1301.77	26.3942
1302.85	22.6825
1303.94	27.3273
1305.02	24.6504
1306.1	28.145
1306.42	30.5
1307.51	22
1308.59	24.5
1309.68	23.5
1310.77	24.5
1311.86	26
1312.95	26
1314.03	24.5
1315.12	24
1316.21	26
1317.29	26
1318.38	27
1319.47	27.5
1320.55	24
1321.64	27
1322.72	27.5
1323.81	25.5
1324.89	24
1325.98	26.5
1327.07	22.5
1328.15	25.5
1329.24	25
1330.32	22
1331.4	28
1332.49	20.5
1333.57	22.5
1334.66	25
1335.74	28.5
1336.82	24
1337.91	27
1338.99	25.5
1340.07	22
1341.16	24.5
1342.24	25.5
1343.32	21
1344.4	24
1345.49	21
1346.57	27
1347.65	26.5
1348.73	27
1349.81	25
1350.9	24.5
1351.98	29.5
1353.06	23.5
1354.14	25.5
1355.22	26.5
1356.3	25.5
1357.38	23
1358.46	25
1359.54	26.5
1360.62	28.5
1361.7	25.5
1362.78	24
1363.86	26.5
1364.94	26
1366.02	24
1367.1	24.5
1368.17	27
1369.25	24.5
1370.33	22
1371.41	25
1372.49	23
1373.57	24
1374.64	24.5
1375.72	26
1376.8	28
1377.87	23.5
1378.95	26.5
1380.03	24
1381.1	26
1382.18	28.5
1383.26	27
1384.33	27
1385.41	26.5
1386.49	26.5
1387.56	27.5
1388.64	28
1389.71	26.5
1390.79	29
1391.86	28
1392.94	28.5
1394.01	28.5
1395.08	28.5
1396.16	28
1397.23	29.5
1398.31	28
1399.38	26.5
1400.45	32
1401.53	31.5
1402.6	31.5
1403.67	31
1404.75	34.5
1405.82	37
1406.89	33.5
1407.96	33
1409.04	30.5
1410.11	35.5
1411.18	33
1412.25	29.5
1413.32	37.5
1414.39	33
1415.47	30
1416.54	32
1417.61	31
1418.68	28.5
1419.75	29.5
1420.82	32.5
1421.89	26
1422.96	30
1424.03	28.5
1425.1	25.5
1426.17	31
1427.24	24.5
1428.31	27.5
1429.38	23.5
1430.44	27
1431.51	30
1432.58	28
1433.65	26.5
1434.72	26
1435.79	29
1436.85	26
1437.92	22
1438.99	25.5
1440.05	26
1441.12	26
1442.19	25
1443.26	24
1444.32	28
1445.39	28
1446.46	25.5
1447.52	24.5
1448.59	23.5
1449.65	25
1450.72	25.5
1451.78	27
1452.85	30.5
1453.91	25.5
1454.98	26
1456.04	29
1457.11	27
1458.17	24
1459.24	24.5
1460.3	28
1461.36	27.5
1462.43	29
1463.49	26.5
1464.56	25
1465.62	26
1466.68	27.5
1467.74	24
1468.81	27.5
1469.87	28
1470.93	25.5
1471.99	24
1473.06	27.5
1474.12	24
1475.18	26
1476.24	25
1477.3	28
1478.36	25
1479.42	24.5
1480.49	28.5
1481.55	24
1482.61	27
1483.67	27
1484.73	25
1485.79	25.5
1486.85	28.5
1487.91	23.5
1488.97	27
1490.03	28.5
1491.09	23
1492.14	24
1493.2	27
1494.26	24.5
1495.32	24
1496.38	30.5
1497.44	28
1498.49	27.5
1499.55	25
1500.61	27
1501.67	23.5
1502.72	25.5
1503.78	25
1504.84	27
1505.89	27.5
1506.95	21
1508.01	27
1509.07	27
1510.12	25.5
1511.18	28
1512.23	26
1513.29	28
1514.34	28.5
1515.4	27
1516.45	25
1517.51	27
1518.56	27
1519.62	20
1520.67	26
1521.73	25.5
1522.78	25
1523.84	26
1524.89	29.5
1525.94	27.5
1527	26.5
1528.05	25
1529.1	24
1530.16	27
1531.21	32.5
1532.26	29
1533.32	24
1534.37	28.5
1535.42	24
1536.47	26
1537.52	21
1538.57	26
1539.63	27.5
1540.68	27
1541.73	26
1542.78	24
1543.83	25.5
1544.88	23.5
1545.93	28
1546.98	26.5
1548.03	27.5
1549.08	26.5
1550.13	26
1551.18	25.5
1552.23	24.5
1553.28	27
1554.33	26
1555.38	25
1556.43	30.5
1557.48	26
1558.53	26.5
1559.57	24
1560.62	25.5
1561.67	27
1562.72	28
1563.77	28
1564.81	24
1565.86	27
1566.91	25
1567.96	27
1569	27
1570.05	25.5
1571.09	23
1572.14	24.5
1573.19	23
1574.23	19.5
1575.28	27
1576.33	29.5
1577.37	26
1578.42	25
1579.46	27
1580.51	27.5
1581.55	24.5
1582.6	23.5
1583.64	27
1584.69	28.5
1585.73	29
1586.77	28
1587.82	25.5
1588.86	24
1589.91	26
1590.95	23.5
1591.99	24.5
1593.04	24.5
1594.08	25.5
1595.12	29
1596.16	22
1597.21	26
1598.25	21
1599.29	24
1600.33	25
1601.37	24
1602.42	24
1603.46	23
1604.5	26
1605.54	27
1606.58	29
1607.62	28.5
1608.66	22.5
1609.7	28
1610.74	28
1611.78	25.5
1612.82	24.5
1613.86	27.5
1614.9	24
1615.94	29
1616.98	25.5
1618.02	27
1619.06	24
1620.1	25
1621.14	29.5
1622.18	21
1623.21	25.5
1624.25	23.5
1625.29	28.5
1626.33	25
1627.37	28.5
1628.4	27.5
1629.44	23.5
1630.48	26.5
1631.52	28
1632.55	26.5
1633.59	23.5
1634.63	27
1635.66	27.5
1636.7	24.5
1637.73	29.5
1638.77	25
1639.81	26.5
1640.84	26.5
1641.88	27.5
1642.91	23.5
1643.95	26
1644.98	27
1646.02	26
1647.05	31
1648.09	27
1649.12	25
1650.16	26.5
1651.19	24
1652.22	28
1653.26	30.5
1654.29	24
1655.32	23.5
1656.36	25.5
1657.39	30
1658.42	24
1659.46	23
1660.49	27.5
1661.52	25
1662.55	24.5
1663.59	29
1664.62	26
1665.65	29.5
1666.68	25
1667.71	26
1668.74	29
1669.77	31
1670.81	27.5
1671.84	25.5
1672.87	25
1673.9	29.5
1674.93	29
1675.96	27
1676.99	29
1678.02	25.5
1679.05	28
1680.08	23
1681.11	30
1682.13	23.5
1683.16	28.5
1684.19	26
1685.22	26.5
1686.25	30
1687.28	26.5
1688.31	26
1689.33	22
1690.36	27.5
1691.39	27.5
1692.42	31
1693.45	28.5
1694.47	24
1695.5	26
1696.53	29
1697.55	29
1698.58	24
1699.61	25.5
1700.63	28
1701.66	23
1702.68	23.5
1703.71	23.5
1704.74	21
1705.76	26.5
1706.79	23
1707.81	30
1708.84	27
1709.86	29
1710.89	24
1711.91	26.5
1712.94	26
1713.96	25.5
1714.98	23
1716.01	25
1717.03	22
1718.05	23.5
1719.08	28.5
1720.1	24.5
1721.12	28
1722.15	27
1723.17	32
1724.19	25
1725.22	26
1726.24	25
1727.26	26.5
1728.28	22.5
1729.3	26
1730.32	28
1731.35	24.5
1732.37	29.5
1733.39	24
1734.41	24
1735.43	24
1736.45	23.5
1737.47	25
1738.49	26.5
1739.51	23
1740.53	25
1741.55	21.5
1742.57	23
1743.59	28
1744.61	26.5
1745.63	27.5
1746.65	26
1747.67	25
1748.69	27
1749.71	25.5
1750.72	28
1751.74	27
1752.76	26.5
1753.78	21
1754.8	27.5
1755.81	23.5
1756.83	25.5
1757.85	25.5
1758.87	25.5
1759.88	26.5
1760.9	24
1761.92	21
1762.93	26
1763.95	25.5
1764.97	26.5
1765.98	26.5
1767	22.5
1768.01	27
1769.03	25
1770.05	25
1771.06	25.5
1772.08	22.5
1773.09	25
1774.11	27.5
1775.12	24.5
1776.13	25
1777.15	26
1778.16	25
1779.18	22.5
1780.19	22.5
1781.2	24
1782.22	25.5
1783.23	26.5
1784.24	24.5
1785.26	30
1786.27	23.5
1787.28	22
1788.3	23.5
1789.31	27.5
1790.32	24.5
1791.33	25.5
1792.35	24
1793.36	23.5
1794.37	21
1795.38	24.5
1796.39	22
1797.4	27
1798.41	27
1799.43	24.5
1800.44	24.5
1801.45	23
1802.46	24
1803.47	22.5
1804.48	27
1805.49	26
1806.5	24
1807.51	24.5
1808.52	24.5
1809.53	27
1810.53	25
1811.54	26
1812.55	28
1813.56	24.5
1814.57	28
1815.58	23
1816.59	22
1817.6	28.5
1818.6	25
1819.61	23.5
1820.62	23.5
1821.63	22.5
1822.63	27.5
1823.64	22.5
1824.65	23.5
1825.65	25
1826.66	24
1827.67	25.5
1828.67	22.5
1829.68	21
1830.69	26
1831.69	27.5
1832.7	24.5
1833.7	26
1834.71	26
1835.71	28
1836.72	23
1837.72	28
1838.73	27.5
1839.73	25.5
1840.74	25
1841.74	22
1842.75	25.5
1843.75	26
1844.75	20
1845.76	25
1846.76	23.5
1847.76	22.5
1848.77	24
1849.77	28.5
1850.77	25
1851.78	21
1852.78	23.5
1853.78	27
1854.78	23.5
1855.79	26
1856.79	21
1857.79	27.5
1858.79	28
1859.79	24
1860.8	26
1861.8	25
1862.8	23
1863.8	25
1864.8	26
1865.8	21.5
1866.8	22
1867.8	27
1868.8	25
1869.8	25
1870.8	25
1871.8	25
1872.8	26.5
1873.8	26
1874.8	25
1875.8	26.5
1876.8	24.5
1877.8	27.5
1878.79	25
1879.79	24.5
1880.79	27
1881.79	28
1882.79	28
1883.79	21.5
1884.78	26.5
1885.78	25
1886.78	25
1887.77	22
1888.77	24.5
1889.77	25.5
1890.77	27
1891.76	24.5
1892.76	25
1893.76	29
1894.75	28.5
1895.75	26
1896.74	23
1897.74	26.5
1898.73	26
1899.73	25.5
1900.72	26
1901.72	25
1902.72	24
1903.71	18.5
1904.7	25
1905.7	27
1906.69	22
1907.69	28
1908.68	23
1909.67	26
1910.67	25
1911.66	22
1912.66	26.5
1913.65	23
1914.64	26
1915.63	27
1916.63	26
1917.62	26
1918.61	22
1919.6	25
1920.6	22.5
1921.59	26
1922.58	23.5
1923.57	29
1924.56	25
1925.56	29.5
1926.55	28
1927.54	26.5
1928.53	25.5
1929.52	27
1930.51	26
1931.5	21.5
1932.49	25.5
1933.48	22.5
1934.47	24
1935.46	21
1936.45	24
1937.44	25
1938.43	26.5
1939.42	21
1940.41	27
1941.4	27
1942.39	27
1943.37	24.5
1944.36	28
1945.35	22
1946.34	26.5
1947.33	25
1948.32	25.75
1949.3	25
1950.29	26
1951.28	24
1952.27	27.5
1953.25	23.5
1954.24	27.5
1955.23	24
1956.21	22
1957.2	23.5
1958.19	26
1959.17	25.5
1960.16	25.5
1961.14	26.5
1962.13	27
1963.12	24.5
1964.1	26.5
1965.09	26
1966.07	26.5
1967.06	24
1968.04	23.5
1969.03	24
1970.01	23.5
1970.99	25.5
1971.98	24.5
1972.96	21.5
1973.95	24
1974.93	22
1975.92	25
1976.9	25
1977.88	24
1978.87	28.5
1979.85	24.5
1980.83	23
1981.81	23
1982.8	22
1983.78	23
1984.76	22.5
1985.74	26.5
1986.73	25.5
1987.71	22
1988.69	26
1989.67	23
1990.65	24.5
1991.63	23
1992.61	23
1993.59	26
1994.58	27
1995.56	25.5
1996.54	27.5
1997.52	26.5
1998.5	23
1999.48	28.5
2000.46	22
2001.44	22
2002.42	23.5
2003.4	26
2004.38	24.5
2005.35	22.5
2006.33	27
2007.31	25
2008.29	23
2009.27	24
2010.25	25
2011.23	24
2012.2	24
2013.18	25.5
2014.16	27
2015.14	27.5
2016.11	22
2017.09	29.5
2018.07	24.5
2019.05	26.5
2020.02	24
2021	21
2021.98	23
2022.95	25.5
2023.93	23
2024.91	21.5
2025.88	26.5
2026.86	28
2027.83	22.5
2028.81	27.5
2029.78	23.5
2030.76	21.5
2031.73	23
2032.71	24.5
2033.68	20
2034.66	24
2035.63	25
2036.61	24.5
2037.58	25
2038.56	24
2039.53	26
2040.5	24
2041.48	28
2042.45	22.5
2043.42	26
2044.4	21
2045.37	23
2046.34	26
2047.32	25
2048.29	26
2049.26	22.5
2050.23	25.5
2051.2	25.5
2052.18	24.5
2053.15	23
2054.12	23.5
2055.09	23.5
2056.06	26
2057.03	27
2058	28
2058.98	24.5
2059.95	24
2060.92	20.5
2061.89	21
2062.86	24
2063.83	22.5
2064.8	25
2065.77	25
2066.74	28.5
2067.71	27
2068.68	24
2069.65	25.5
2070.61	23
2071.58	27.5
2072.55	26
2073.52	22.5
2074.49	29
2075.46	23.5
2076.43	22.5
2077.4	24
2078.36	24
2079.33	23.5
2080.3	23
2081.27	24
2082.23	25.5
2083.2	22.5
2084.17	26
2085.13	30
2086.1	24
2087.07	23
2088.03	20
2089	25.5
2089.97	25.5
2090.93	23
2091.9	22
2092.86	24
2093.83	24.5
2094.8	25
2095.76	25
2096.73	25.5
2097.69	20
2098.66	23
2099.62	27.5
2100.58	24
2101.55	25
2102.51	20.5
2103.48	24
2104.44	24.5
2105.41	19
2106.37	21
2107.33	27
2108.3	25
2109.26	27.5
2110.22	25
2111.19	23
2112.15	24.5
2113.11	25.5
2114.07	21.5
2115.04	20
2116	23.5
2116.96	26.5
2117.92	26.5
2118.88	27
2119.85	24.5
2120.81	25
2121.77	23
2122.73	24
2123.69	20
2124.65	24.5
2125.61	24
2126.57	23.5
2127.53	28
2128.49	24
2129.45	22
2130.41	22.5
2131.37	23
2132.33	25.5
2133.29	21
2134.25	23
2135.21	29
2136.17	25
2137.13	24.5
2138.09	24
2139.05	22
2140.01	22
2140.96	24
2141.92	24.5
2142.88	20.4966
2143.84	22.4623
2144.8	20.6222
2145.75	23.5698
2146.71	24.3689
2147.67	26.6387
2148.63	26.0021
2149.58	23.958
2150.54	24.2012
2151.5	21.1305
2152.45	23.5116
2153.41	26.6027
2154.37	20.6874
2155.32	23.9162
2156.28	19.3255
2157.23	24.1381
2158.19	19.7868
2159.15	24.3691
2160.1	26.3435
2161.06	25.0869
2162.01	23.6132
2162.97	21.6363
2163.92	25.7621
2164.88	24.7451
2165.83	23.967
2166.78	23.0986
2167.74	23.1818
2168.69	23.7757
2169.65	22.7458
2170.6	21.1857
2171.56	24.6086
2172.51	21.1569
2173.46	26.0394
2174.42	23.2355
2175.37	21.8325
2176.32	22.9861
2177.28	21.7743
2178.23	22.559
2179.18	23.7799
2180.13	25.274
2181.08	24.0319
2182.04	24.507
2182.99	24.0737
2183.94	24.3792
2184.89	21.708
2185.84	22.1156
2186.8	24.0313
2187.75	24.365
2188.7	22.7473
2189.65	22.8355
2190.6	24.0183
2191.55	23.4799
2192.5	23.4928
2193.45	21.5265
2194.4	20.2392
2195.35	23.3447
2196.3	23.5316
2197.25	22.6596
2198.2	22.534
2199.15	19.909
2200.1	23.0425
2201.05	25.5694
2202	21.1564
2202.95	21.1234
2203.9	19.762
2204.85	23.8382
2205.79	20.6559
2206.74	24.5344
2207.69	24.857
2208.64	24.3252
2209.59	23.4201
2210.53	22.1779
2211.48	23.2461
2212.43	22.9703
2213.38	22.7086
2214.32	22.9005
2215.27	23.4005
2216.22	23.6242
2217.17	22.3974
2218.11	23.0576
2219.06	26.3592
2220.01	23.3703
2220.95	22.8545
2221.9	24.4862
2222.84	23.4087
2223.79	24.3405
2224.73	25.8658
2225.68	23.1115
2226.63	19.8588
2227.57	22.8492
2228.52	24.1443
2229.46	20.6335
2230.41	23.6901
2231.35	23.997
2232.3	22.4104
2233.24	21.0429
2234.18	20.7209
2235.13	24.5726
2236.07	25.5627
2237.02	19.0378
2237.96	20.9718
2238.9	24.2642
2239.85	23.8692
2240.08	23.5
2241.03	22
2241.97	23.5
2242.92	24
2243.87	23
2244.82	20.5
2245.76	25
2246.71	24
2247.66	23.5
2248.61	24
2249.55	21
2250.5	23.5
2251.45	22.5
2252.39	24
2253.34	24.5
2254.29	23.5
2255.23	25
2256.18	22
2257.12	25.5
2258.07	22.5
2259.01	24
2259.96	23.5
2260.9	23
2261.85	20
2262.79	24.5
2263.74	22
2264.68	20
2265.63	22.5
2266.57	26
2267.52	22.5
2268.46	26
2269.41	25.5
2270.35	24.5
2271.29	29
2272.24	24
2273.18	23
2274.12	21
2275.07	25.5
2276.01	22.5
2276.95	22.5
2277.89	26.5
2278.84	23
2279.78	19
2280.72	23.5
2281.66	22
2282.6	23.5
2283.55	23.5
2284.49	23
2285.43	24.5
2286.37	27
2287.31	20.5
2288.25	23.5
2289.2	26
2290.14	24
2291.08	20.5
2292.02	22.5
2292.96	21
2293.9	27.5
2294.84	20.5
2295.78	24
2296.72	25.5
2297.66	24.5
2298.6	24
2299.54	24
2300.48	28
2301.42	26
2302.35	27.5
2303.29	25.5
2304.23	18
2305.17	24.5
2306.11	27
2307.05	21.5
2307.99	26
2308.92	24
2309.86	21.5
2310.8	23
2311.74	22.5
2312.67	24.5
2313.61	22
2314.55	25
2315.49	21.5
2316.42	23.5
2317.36	25
2318.3	21.5
2319.23	21
2320.17	25
2321.1	29
2322.04	21.5
2322.98	22
2323.91	24.5
2324.85	22
2325.78	24
2326.72	20
2327.66	25
2328.59	22
2329.52	22.5
2330.46	25.5
2331.39	24.5
2332.33	23
2333.26	24.5
2334.2	29
2335.13	23
2336.07	26.5
2337	22.5
2337.93	21.5
2338.87	23.5
2339.8	23
2340.73	20
2341.67	20.5
2342.6	25
2343.53	25.5
2344.46	24.5
2345.4	21
2346.33	21
2347.26	20.5
2348.19	21.5
2349.13	22.5
2350.06	24
2350.99	28
2351.92	20
2352.85	26.5
2353.79	25.5
2354.72	27.5
2355.65	24
2356.58	23.5
2357.51	25
2358.44	21.5
2359.37	22
2360.3	24
2361.23	21.5
2362.16	28
2363.09	24.5
2364.02	23
2364.95	25
2365.88	27
2366.81	26
2367.74	24.5
2368.67	26
2369.6	27.5
2370.53	24
2371.45	27.5
2372.38	24
2373.31	22
2374.24	28
2375.17	24.5
2376.1	24
2377.02	25.5
2377.95	24
2378.88	26
2379.81	26
2380.73	21.5
2381.66	22.5
2382.59	29.5
2383.52	25
2384.44	24
2385.37	27
2386.3	25.5
2387.22	25
2388.15	21
2389.07	24.5
2390	23
2390.93	22
2391.85	21
2392.78	23
2393.7	23.5
2394.63	21.5
2395.55	22.5
2396.48	22.5
2397.4	27.5
2398.33	24
2399.25	23
2400.18	25
2401.1	24.5
2402.03	24
2402.95	21
2403.87	23
2404.8	21
2405.72	26
2406.64	24
2407.57	21
2408.49	24
2409.41	27.5
2410.34	26
2411.26	22
2412.18	20.5
2413.1	25
2414.03	24.5
2414.95	23
2415.87	20
2416.79	22.5
2417.72	24.5
2418.64	26
2419.56	21
2420.48	25.5
2421.4	25
2422.32	22
2423.24	25
2424.16	24.5
2425.09	22
2426.01	20
2426.93	25
2427.85	23.5
2428.77	27.5
2429.69	23
2430.61	24.5
2431.53	22
2432.45	24.5
2433.37	23
2434.29	24
2435.21	21.5
2436.12	28
2437.04	24
2437.96	22
2438.88	23.5
2439.8	24
2440.72	24
2441.64	27
2442.55	23.5
2443.47	28
2444.39	25
2445.31	22.5
2446.23	24
2447.14	23
2448.06	23.5
2448.98	26.5
2449.9	20.5
2450.81	25.5
2451.73	22.5
2452.65	24.5
2453.56	24
2454.48	25.5
2455.39	23.5
2456.31	26.5
2457.23	20.5
2458.14	26.5
2459.06	25.5
2459.97	25
2460.89	26
2461.8	24.5
2462.72	25.5
2463.64	25
2464.55	29
2465.47	23
2466.38	24.5
2467.29	22.5
2468.21	24
2469.12	25.5
2470.04	25
2470.95	24
2471.86	26
2472.78	22
2473.69	25
2474.61	24.5
2475.52	24.5
2476.43	25
2477.35	25
2478.26	22
2479.17	24.5
2480.08	24
2481	23
2481.91	23.5
2482.82	22.5
2483.73	25.5
2484.64	21
2485.56	20
2486.47	24
2487.38	24.5
2488.29	26
2489.2	28.5
2490.11	29.5
2491.03	26
2491.94	23.5
2492.85	25
2493.76	24
2494.67	29
2495.58	28.5
2496.49	21
2497.4	25
2498.31	27
2499.22	26
2500.13	23.5
2501.04	27
2501.95	28
2502.86	22.5
2503.77	23.5
2504.67	24.5
2505.58	22.5
2506.49	28
2507.4	26.5
2508.31	23.5
2509.22	28
2510.13	23.5
2511.03	23
2511.94	27
2512.85	24
2513.76	24.5
2514.66	22.5
2515.57	26.5
2516.48	24
2517.39	24
2518.29	23
2519.2	22.5
2520.11	23.5
2521.01	22
2521.92	24.5
2522.83	24.5
2523.73	23
2524.64	23
2525.54	24.5
2526.45	28
2527.36	26
2528.26	23
2529.17	23
2530.07	26
2530.98	26.5
2531.88	24
2532.79	26.5
2533.69	25.5
2534.6	24
2535.5	24
2536.41	26.5
2537.31	27.5
2538.21	23
2539.12	23
2540.02	23
2540.93	28.5
2541.83	23.5
2542.73	27.5
2543.64	25.5
2544.54	27.5
2545.44	23.5
2546.34	25.5
2547.25	22.5
2548.15	23
2549.05	26
2549.96	27.5
2550.86	22.5
2551.76	25.5
2552.66	22
2553.56	23.5
2554.46	24.5
2555.37	29
2556.27	21
2557.17	22
2558.07	26.5
2558.97	23
2559.87	23
2560.77	26
2561.67	25
2562.57	28
2563.47	29
2564.37	25.5
2565.27	26
2566.17	25
2567.07	24
2567.97	23
2568.87	25.5
2569.77	27
2570.67	24
2571.57	22
2572.47	26.5
2573.37	27.5
2574.27	21.5
2575.17	23
2576.06	25.5
2576.96	25.5
2577.86	20
2578.76	21.5
2579.66	25
2580.56	24.5
2581.45	22.5
2582.35	25
2583.25	24.5
2584.15	23
2585.04	23
2585.94	28.5
2586.84	26.5
2587.73	23.5
2588.63	22.5
2589.53	28.5
2590.42	25
2591.32	25.5
2592.22	23.5
2593.11	19
2594.01	23
2594.9	22.5
2595.8	23
2596.69	24.5
2597.59	26
2598.48	20.5
2599.38	23.5
2600.28	24
2601.17	25
2602.06	25
2602.96	27.5
2603.85	25
2604.75	26
2605.64	27
2606.54	24.5
2607.43	26.5
2608.32	24
2609.22	22.5
2610.11	26
2611	19.5
2611.9	26
2612.79	27.5
2613.68	26.5
2614.58	26
2615.47	21
2616.36	23
2617.25	24
2618.15	24.5
2619.04	25
2619.93	25.5
2620.82	24
2621.71	26
2622.61	24
2623.5	25
2624.39	22.5
2625.28	23.5
2626.17	29
2627.06	26.5
2627.95	24
2628.84	21.5
2629.74	21
2630.63	26
2631.52	22
2632.41	21
2633.3	24.5
2634.19	20.5
2635.08	26
2635.97	23
2636.85	27
2637.74	27
2638.63	29.5
2639.52	24
2640.41	26.5
2641.3	24
2642.19	28
2643.08	26.5
2643.97	23.5
2644.86	23
2645.74	24.5
2646.63	23
2647.52	24.5
2648.41	24
2649.3	22
2650.18	22
2651.07	23
2651.96	24
2652.85	23
2653.73	25
2654.62	25
2655.51	21
2656.39	26
2657.28	26.5
2658.17	24.5
2659.05	24
2659.94	22
2660.83	21.5
2661.71	28.5
2662.6	27
2663.48	26
2664.37	22
2665.25	23.5
2666.14	22.5
2667.02	26
2667.91	18
2668.79	24.5
2669.68	25
2670.56	25.5
2671.45	23.5
2672.33	21.5
2673.22	24
2674.1	24
2674.98	24.5
2675.87	23.5
2676.75	28
2677.64	26.5
2678.52	24
2679.4	27.5
2680.29	24
2681.17	25.5
2682.05	27.5
2682.94	28.5
2683.82	25.5
2684.7	24.5
2685.58	26
2686.47	24
2687.35	22.5
2688.23	26
2689.11	28
2689.99	23.5
2690.88	24
2691.76	25
2692.64	23.5
2693.52	26
2694.4	19
2695.28	23
2696.16	23.5
2697.04	25
2697.92	19.5
2698.8	23.5
2699.69	25
2700.57	24.5
2701.45	27
2702.33	24.5
2703.21	26
2704.09	23.5
2704.97	24.5
2705.84	26.5
2706.72	25
2707.6	24.5
2708.48	22
2709.36	26.5
2710.24	25
2711.12	26
2712	26.5
2712.88	27
2713.75	21
2714.63	25
2715.51	25.5
2716.39	26
2717.27	25
2718.14	25
2719.02	24.5
2719.9	25.5
2720.78	22
2721.65	27
2722.53	25.5
2723.41	22
2724.28	26.5
2725.16	24
2726.04	28.5
2726.92	25.5
2727.79	22
2728.67	25
2729.54	22.5
2730.42	24
2731.3	19.5
2732.17	24
2733.05	27.5
2733.92	25
2734.8	24
2735.67	28.5
2736.55	23.5
2737.42	19
2738.3	24.5
2739.17	24
2740.05	23.5
2740.92	25
2741.79	26.5
2742.67	21.5
2743.54	22.5
2744.42	24.5
2745.29	24.5
2746.16	28
2747.04	21.5
2747.91	22
2748.78	27
2749.66	24.5
2750.53	24.5
2751.4	23.5
2752.28	24.5
2753.15	23.5
2754.02	23
2754.89	25
2755.77	26
2756.64	25
2757.51	23.5
2758.38	20
2759.25	27.5
2760.13	21.5
2761	21
2761.87	23
2762.74	25
2763.61	23.5
2764.48	26
2765.35	26.5
2766.22	23.5
2767.09	26
2767.96	21.5
2768.83	26.5
2769.71	22.5
2770.57	23.5
2771.44	26.5
2772.32	24
2773.18	27
2774.05	28
2774.92	24
2775.79	27
2776.66	20
2777.53	25.5
2778.4	26.5
2779.27	23.5
2780.14	24.5
2781.01	27.5
2781.87	25
2782.74	26.5
2783.61	26.5
2784.48	28.5
2785.35	23.5
2786.21	28.5
2787.08	25.5
2787.95	27
2788.82	26.5
2789.69	26
2790.55	25.5
2791.42	25.5
2792.29	27.5
2793.15	23
2794.02	23.5
2794.89	25
2795.75	26.5
2796.62	25
2797.49	22
2798.35	28
2799.22	27.5
2800.08	22
2800.95	24.75
2801.81	27
2802.68	28
2803.55	22.5
2804.41	24.5
2805.28	24
2806.14	23
2807	26.5
2807.87	22
2808.73	26
2809.6	29
2810.46	24
2811.33	24.5
2812.19	25
2813.06	24.5
2813.92	27
2814.78	26.5
2815.65	24.5
2816.51	26.5
2817.37	25.5
2818.24	24.5
2819.1	28
2819.96	26
2820.83	25.5
2821.69	23.5
2822.55	26.5
2823.41	29.5
2824.28	27
2825.14	30
2826	25.5
2826.86	27.5
2827.72	24.5
2828.58	22
2829.45	28.5
2830.31	26
2831.17	26.5
2832.03	31
2832.89	27
2833.75	29
2834.61	25
2835.47	25.5
2836.33	22
2837.2	26.5
2838.05	26.5
2838.92	26.5
2839.78	29
2840.64	26
2841.49	25
2842.35	24.5
2843.21	27
2844.07	27.5
2844.93	26
2845.79	25.5
2846.65	25
2847.51	26
2848.37	29
2849.23	24
2850.09	24.5
2850.94	24
2851.8	26.5
2852.66	27
2853.52	26.5
2854.38	28
2855.23	27
2856.09	25
2856.95	26.5
2857.81	27.5
2858.67	26.5
2859.52	26.5
2860.38	28.5
2861.24	25.5
2862.09	29
2862.95	26
2863.81	27.5
2864.66	29
2865.52	28
2866.38	28
2867.23	28
2868.09	30.5
2868.94	27
2869.8	29
2870.65	29
2871.51	30
2872.37	25
2873.22	27.5
2874.08	28.5
2874.93	32
2875.79	31
2876.64	29
2877.49	28
2878.35	33
2879.2	30
2880.06	33.5
2880.91	32
2881.77	33.5
2882.62	29
2883.47	33.5
2884.33	31
2885.18	35
2886.03	34.5
2886.89	31
2887.74	37
2888.59	42
2889.45	39
2890.3	42
2891.15	41
2892	40.5
2892.86	41
2893.71	48
2894.56	50.5
2895.41	44.5
2896.27	51.5
2897.12	54
2897.97	55.5
2898.82	55
2899.67	58.5
2900.52	66.5
2901.37	64.5
2902.23	71.5
2903.08	66
2903.93	72
2904.78	75.5
2905.63	73.5
2906.48	70
2907.33	71.5
2908.18	66
2909.03	62
2909.88	66.5
2910.73	68.5
2911.58	62
2912.43	58
2913.28	61.5
2914.13	51.5
2914.98	52.5
2915.83	41
2916.67	44
2917.52	43
2918.37	43.5
2919.22	39
2920.07	38.5
2920.92	38.5
2921.77	40.5
2922.61	34
2923.46	33
2924.31	36.5
2925.16	28.5
2926	29
2926.85	32.5
2927.7	33
2928.55	28
2929.39	30
2930.24	33
2931.09	32.5
2931.94	28
2932.78	28.5
2933.63	28.5
2934.47	32
2935.32	30
2936.17	27.5
2937.01	31.5
2937.86	29
2938.7	32
2939.55	25.5
2940.4	29.5
2941.24	24.5
2942.09	32.5
2942.93	29
2943.78	24
2944.62	30.5
2945.47	30
2946.31	28.5
2947.16	27.5
2948	30
2948.84	32
2949.69	31.5
2950.53	29.5
2951.38	30
2952.22	33.5
2953.06	30.5
2953.91	29
2954.75	30
2955.59	36
2956.44	35.5
2957.28	35
2958.12	39.5
2958.97	36.5
2959.81	40
2960.65	39.5
2961.5	42
2962.34	46
2963.18	47.5
2964.02	43.5
2964.86	52
2965.71	46
2966.55	42
2967.39	40
2968.23	41
2969.07	39
2969.91	37
2970.75	38.5
2971.6	36.9951
2972.44	34.9477
2973.28	41.4668
2974.12	34.0837
2974.96	32.9931
2975.8	31.1758
2976.64	29.6188
2977.48	34.3419
2978.32	34.0077
2979.16	32.3271
2980	29.6529
2980.84	33.3751
2981.68	28.8566
2982.52	30.7526
2983.36	28.585
2984.2	30.0085
2985.04	22.8682
2985.88	27.1557
2986.71	27.5541
2987.55	26.5435
2988.39	24.8125
2989.23	26.6148
2990.07	27.31
2990.91	26.5016
2991.75	23.1471
2992.58	27.715
2993.42	23.8489
2994.26	23.5828
2995.1	24.372
2995.93	25.9116
2996.77	25.7039
2997.61	25.2302
2998.45	24.6068
2999.28	23.7283
3000.12	23.7013
3000.96	23.2535
3001.79	25.8105
3002.63	23.0264
3003.47	25.8131
3004.3	25.6708
3005.14	25.6544
3005.98	23.625
3006.81	24.2179
3007.65	24.4308
3008.48	23.3363
3009.32	22.5817
3010.15	23.7906
3010.99	23.461
3011.82	23.4521
3012.66	22.8212
3013.5	22.3966
3014.33	22.184
3015.17	24.1109
3016	23.8535
3016.83	26.2256
3017.67	22.1553
3018.5	24.9029
3019.34	24
3020.17	21.7069
3021.01	24.5131
3021.84	21.0847
3022.67	22.3571
3023.51	22.3273
3024.34	22.4534
3025.17	23.584
3026.01	21.7745
3026.84	22.7764
3027.67	23.2812
3028.51	25.665
3029.34	25.1378
3030.17	21.8492
3031	23.3729
3031.84	23.2652
3032.67	22.0733
3033.5	22.0138
3034.33	21.852
3035.17	23.7847
3036	22.9634
3036.83	24.6003
3037.66	23.8836
3038.49	22.1803
3039.32	22.2673
3040.15	22.811
3040.99	22.8271
3041.82	23.5629
3042.65	25.0359
3043.48	22.5245
3044.31	21.5556
3045.14	25.2884
3045.97	24.9077
3046.8	22.7028
3047.63	22.9976
3048.46	22.9499
3049.29	23.7625
3050.12	23.9092
3050.95	23.7184
3051.78	23.3403
3052.61	23.1107
3053.44	23.1427
3054.27	22.328
3055.1	22.0121
3055.92	22.9156
3056.75	24.1123
3057.27	23.5
3058.11	18.5
3058.94	22
3059.77	23.5
3060.61	26
3061.44	21
3062.27	21
3063.11	23
3063.94	24
3064.77	24.5
3065.6	20
3066.43	21.5
3067.27	22.5
3068.1	23.5
3068.93	22.5
3069.76	21.5
3070.59	20
3071.42	20.5
3072.26	21
3073.09	28
3073.92	27
3074.75	24.5
3075.58	21
3076.41	20.5
3077.24	20.5
3078.07	23
3078.9	22.5
3079.73	25
3080.56	22
3081.39	27
3082.22	26
3083.05	22.5
3083.88	22.5
3084.71	23.5
3085.54	24
3086.37	21.5
3087.2	23.5
3088.03	23.5
3088.86	23
3089.69	23
3090.51	22
3091.34	25.5
3092.17	23
3093	22
3093.83	25
3094.66	21.5
3095.48	18.5
3096.31	20
3097.14	25.5
3097.97	24
3098.79	26
3099.62	24.5
3100.45	25.5
3101.28	24.5
3102.1	22
3102.93	20
3103.76	26
3104.58	24.5
3105.41	22
3106.24	21
3107.06	23.5
3107.89	17
3108.72	25
3109.54	22
3110.37	23.5
3111.19	22
3112.02	23.5
3112.84	25
3113.67	22
3114.49	22
3115.32	22.5
3116.15	24
3116.97	24.5
3117.8	24.5
3118.62	25
3119.44	26
3120.27	29
3121.09	21.5
3121.92	27.5
3122.74	25
3123.57	26.5
3124.39	23.5
3125.21	24
3126.04	26.5
3126.86	18
3127.68	22
3128.51	23
3129.33	28
3130.15	25
3130.98	26.5
3131.8	23.5
3132.62	25
3133.44	22.5
3134.27	24.5
3135.09	23
3135.91	25.5
3136.73	22
3137.56	29
3138.38	24.5
3139.2	21.5
3140.02	25.5
3140.84	22
3141.67	21.5
3142.49	21.5
3143.31	23.5
3144.13	22
3144.95	23.5
3145.77	22
3146.59	21
3147.41	21.5
3148.23	27.5
3149.05	24.5
3149.87	21.5
3150.69	22
3151.51	26
3152.33	24
3153.15	23.5
3153.97	25
3154.79	23
3155.61	24.5
3156.43	23
3157.25	23
3158.07	23
3158.89	26.5
3159.71	23
3160.53	23
3161.35	23.5
3162.17	24
3162.98	25
3163.8	26
3164.62	22.5
3165.44	24
3166.26	28.5
3167.07	24.5
3167.89	26
3168.71	24.5
3169.53	24.5
3170.35	21
3171.16	25.5
3171.98	23
3172.8	23.5
3173.61	21
3174.43	21
3175.25	25.5
3176.06	23.5
3176.88	23.5
3177.7	23.5
3178.51	22.5
3179.33	25
3180.15	22.5
3180.96	23.5
3181.78	24.5
3182.59	23.5
3183.41	24
3184.22	25
3185.04	23.5
3185.85	23
3186.67	20
3187.49	23
3188.3	22
3189.12	25.5
3189.93	23.5
3190.74	26
3191.56	25
3192.37	27
3193.19	26.5
3194	23
3194.82	24
3195.63	22.5
3196.44	20.5
3197.26	20
3198.07	23.5
3198.88	23
3199.7	24
3200.51	22
3201.32	23
3202.14	21
3202.95	21.5
3203.76	26
3204.58	20.5
3205.39	21
3206.2	22.5
3207.01	21
3207.83	21
3208.64	24
3209.45	20
3210.26	24
3211.07	22.5
3211.88	26.5
3212.7	25.5
3213.51	24
3214.32	22.5
3215.13	24
3215.94	23
3216.75	24
3217.56	20.5
3218.37	24
3219.18	25.5
3220	23
3220.8	23
3221.62	26
3222.43	24.5
3223.24	25.5
3224.05	23
3224.86	21
3225.67	22
3226.47	23.5
3227.28	25
3228.09	22
3228.9	25.5
3229.71	24
3230.52	28
3231.33	25.5
3232.14	24
3232.95	22.5
3233.76	26
3234.56	20
3235.37	24.5
3236.18	25.5
3236.99	22
3237.8	23
3238.61	23.5
3239.41	23.5
3240.22	21
3241.03	26
3241.84	26.5
3242.64	24.5
3243.45	28
3244.26	23.5
3245.07	23
3245.87	23
3246.68	24
3247.49	25.5
3248.29	26.5
3249.1	20
3249.9	25
3250.71	23
3251.52	27
3252.32	24
3253.13	24.5
3253.93	26
3254.74	26
3255.55	22.5
3256.35	23.5
3257.16	24.5
3257.96	29
3258.77	25.5
3259.57	23
3260.38	23.5
3261.18	23
3261.99	21
3262.79	24
3263.6	21
3264.4	21.5
3265.2	22.5
3266.01	25.5
3266.81	29
3267.62	25
3268.42	22.5
3269.22	23
3270.03	22.5
3270.83	18.5
3271.63	24
3272.44	24
3273.24	25.5
3274.04	21.5
3274.85	26
3275.65	24
3276.45	21
3277.25	26
3278.06	22
3278.86	26
3279.66	25.5
3280.46	21.5
3281.26	26
3282.07	23.5
3282.87	25.5
3283.67	24.5
3284.47	26
3285.27	25.5
3286.07	26
3286.87	24.5
3287.68	26
3288.48	24.5
3289.28	23.5
3290.08	25
3290.88	22.5
3291.68	24.5
3292.48	21
3293.28	23.5
3294.08	20.5
3294.88	22
3295.68	21
3296.48	21
3297.28	26
3298.08	25.5
3298.88	24
3299.68	24.5
3300.48	23
3301.28	26.5
3302.08	23.5
3302.88	20.5
3303.67	25
3304.47	24
3305.27	24.5
3306.07	24
3306.87	24.5
3307.67	25
3308.46	25
3309.26	27
3310.06	24
3310.86	22.5
3311.66	24.5
3312.45	21
3313.25	22.5
3314.05	26.5
3314.85	28.5
3315.64	22.5
3316.44	22
3317.24	26
3318.03	23.5
3318.83	27
3319.63	28.5
3320.42	25
3321.22	25.5
3322.02	25.5
3322.81	29.5
3323.61	25.5
3324.4	22.5
3325.2	24.5
3326	26
3326.79	26.5
3327.59	22.5
3328.38	23.5
3329.18	23.5
3329.97	26
3330.77	22.5
3331.56	27.5
3332.36	24.5
3333.15	21.5
3333.95	26
3334.74	26
3335.54	24
3336.33	21
3337.13	27
3337.92	25.5
3338.71	25.5
3339.51	26
3340.3	29
3341.1	27.5
3341.89	22.5
3342.68	24
3343.48	24
3344.27	24
3345.06	20
3345.85	22.5
3346.65	27
3347.44	28
3348.23	25
3349.03	26
3349.82	21
3350.61	24.5
3351.4	23
3352.19	25
3352.99	23
3353.78	26
3354.57	26.5
3355.36	26
3356.15	22
3356.94	26
3357.74	21
3358.53	22
3359.32	26
3360.11	27
3360.9	22
3361.69	23
3362.48	20
3363.27	22
3364.06	24.5
3364.85	29
3365.64	28
3366.43	25.5
3367.22	26.5
3368.01	24.5
3368.8	26.5
3369.59	22.5
3370.38	23.5
3371.17	28
3371.96	25.5
3372.75	24
3373.54	23
3374.33	20
3375.12	26.5
3375.91	25.5
3376.69	22.5
3377.48	25
3378.27	24.5
3379.06	28
3379.85	27
3380.64	27
3381.42	24
3382.21	25.5
3383	23
3383.79	23
3384.58	23
3385.36	23
3386.15	23
3386.94	24
3387.73	23
3388.51	22
3389.3	23.5
3390.09	24.5
3390.87	23
3391.66	24.5
3392.45	23
3393.23	24
3394.02	25
3394.81	25
3395.59	23
3396.38	27.5
3397.16	28
3397.95	22.5
3398.74	23
3399.52	22
3400.31	27
3401.09	25.5
3401.88	27.5
3402.66	25
3403.45	26.5
3404.23	25.5
3405.02	26
3405.8	23
3406.59	22
3407.37	24
3408.15	26.5
3408.94	22
3409.72	20
3410.51	25.5
3411.29	24
3412.07	23.5
3412.86	25.5
3413.64	26
3414.42	22.5
3415.21	24
3415.99	23.5
3416.78	28.5
3417.56	23.5
3418.34	23
3419.12	23.5
3419.91	23
3420.69	27
3421.47	23.5
3422.25	25.5
3423.04	24.5
3423.82	24
3424.6	29.5
3425.38	24.5
3426.16	23.5
3426.95	27
3427.73	24
3428.51	26.5
3429.29	20.5
3430.07	22
3430.85	23
3431.63	22
3432.42	21.5
3433.2	23.5
3433.98	26.5
3434.76	24
3435.54	25
3436.32	21
3437.1	26.5
3437.88	27.5
3438.66	22.5
3439.44	26
3440.22	23.5
3441	22
3441.78	22.5
3442.56	26.5
3443.34	25.5
3444.12	25
3444.9	21.5
3445.68	24.5
3446.45	24
3447.23	25
3448.01	26.5
3448.79	23.5
3449.57	24.5
3450.35	26
3451.13	25
3451.91	23
3452.68	23
3453.46	26.5
3454.24	25.5
3455.02	25
3455.79	25
3456.57	21.5
3457.35	24
3458.13	25
3458.91	24
3459.68	22
3460.46	24
3461.24	24
3462.01	25
3462.79	20
3463.57	26
3464.34	23.5
3465.12	21.5
3465.9	26
3466.67	26.5
3467.45	25.5
3468.22	25
3469	28.5
3469.78	23.5
3470.55	26
3471.33	26.5
3472.1	18
3472.88	25.5
3473.65	23
3474.43	26
3475.2	23
3475.98	28
3476.75	24.5
3477.53	23
3478.3	25
3479.08	24.5
3479.85	24.5
3480.63	23.5
3481.4	24
3482.18	23.5
3482.95	19
3483.72	26.5
3484.5	26
3485.27	27
3486.04	24
3486.82	26.5
3487.59	27
3488.36	25
3489.14	20
3489.91	25
3490.68	27.5
3491.46	25
3492.23	21.5
3493	18.5
3493.77	25
3494.55	22.5
3495.32	23.5
3496.09	23.5
3496.86	24
3497.64	24
3498.41	24.5
3499.18	25.5
3499.95	23.5
