#Acq. time (s)=	5
#Accumulations=	5
#Range (cm-¹)=	100...3500
#Windows=	4
#Autofocus=	Off
#AutoExposure=	Off
#Spike filter=	Multiple accum.
#Delay time (s)=	0
#Binning=	1
#Readout mode=	Signal
#DeNoise=	Off
#ICS correction=	Off
#Dark correction=	Off
#Inst. Process=	Off
#Instrument=	LabRAM HR Evol
#Detector=	Syncerity OE
#Objective=	x100_VIS
#Grating=	600 (500nm)
#ND Filter=	25%
#Laser=	633nm_Edge
#Hole=	100.021
#Range=	Visible
#Project=	verificaciones
#Sample=	a2
#Site=	plain
#Title=	bolusa2plain
#Remark=	com
#Date=	16.01.2026 13:58
#Acquired=	16.01.2026 13:58:07
100.687	28.5
101.971	35
103.254	30
104.537	32
105.82	31
107.103	31
108.387	28
109.669	27
110.951	30
112.233	34
113.514	29.5
114.796	31
116.077	33
117.358	37
118.639	30.5
119.919	37
121.2	35
122.48	29.5
123.76	33.5
125.039	30
126.319	39
127.598	33.5
128.877	36
130.156	34.5
131.435	34
132.713	39
133.992	37
135.268	36.5
136.546	38
137.824	34.5
139.101	38
140.378	34
141.655	40
142.932	34
144.209	38
145.485	39
146.76	37
148.036	41.5
149.312	41
150.587	42.5
151.862	44.5
153.138	39
154.411	44
155.686	47.5
156.96	46
158.235	45.5
159.509	44.5
160.781	44
162.055	44
163.328	43
164.602	39
165.873	42.5
167.146	45
168.419	41
169.691	42
170.962	38.5
172.234	36.5
173.506	39.5
174.777	39.5
176.047	39.5
177.318	43.5
178.589	41
179.859	38
181.129	43.5
182.4	41
183.668	42.5
184.938	42
186.207	45.5
187.476	44
188.746	41
190.013	41.5
191.282	44.5
192.551	44
193.818	42
195.086	44
196.353	39.5
197.621	42.5
198.887	42
200.154	37
201.422	41
202.687	38
203.954	40
205.219	40
206.486	40.5
207.751	38.5
209.017	34
210.281	42
211.547	36.5
212.811	36
214.076	34.5
215.339	36.5
216.603	35.5
217.867	41
219.13	36.5
220.395	34
221.657	36.5
222.921	37
224.183	30
225.445	35
226.708	33
227.97	30.5
229.232	32
230.493	33.5
231.754	31
233.016	32.5
234.277	27
235.537	30
236.799	28
238.059	30.5
239.318	26.5
240.579	35
241.839	30.5
243.098	28
244.358	30.5
245.617	32
246.875	32
248.133	29.5
249.393	30.5
250.651	29.5
251.908	30
253.166	28
254.424	31
255.681	28.5
256.938	27.5
258.195	28
259.451	25.5
260.709	34
261.965	29
263.221	29.5
264.476	33
265.732	30
266.988	33
268.243	28.5
269.498	28
270.753	32
272.007	29.5
273.261	29
274.515	26
275.769	30.5
277.022	32.5
278.277	31
279.53	29
280.783	29.5
282.036	31.5
283.289	30.5
284.541	30
285.793	29
287.045	29.5
288.297	32
289.548	28.5
290.8	30
292.051	27
293.302	30.5
294.552	30
295.803	29
297.053	27.5
298.303	31
299.553	25.5
300.803	28
302.053	29.5
303.302	30.5
304.551	28.5
305.8	30
307.047	30.5
308.296	28
309.544	28
310.792	32.5
312.04	29.5
313.288	32
314.535	27.5
315.783	23
317.03	29
318.275	30
319.522	29
320.768	31.5
322.015	30.5
323.261	34
324.505	30
325.751	31
326.997	28.5
328.242	32
329.487	27.5
330.73	29
331.975	27
333.22	29.5
334.464	33
335.707	27
336.95	30
338.194	30.5
339.438	27.5
340.68	30.5
341.923	31.5
343.166	27.5
344.407	31
345.649	30
346.892	25
348.132	28
349.374	21.5
350.616	25
351.856	27.5
353.097	28
354.337	30.5
355.578	28
356.818	29
358.058	25
359.298	30.5
360.536	30.5
361.776	30
363.016	29.5
364.254	29
365.493	28
366.731	29
367.97	26
369.207	27
370.446	29.5
371.683	29
372.921	32.5
374.157	28
375.395	31
376.631	25
377.868	25
379.104	28
380.341	29.5
381.576	25
382.813	33.5
384.048	33
385.284	27.5
386.518	28.5
387.753	31
388.988	26
390.222	31.5
391.457	28.5
392.691	25
393.924	30
395.159	30.5
396.392	32
397.624	29
398.858	31
400.091	33
401.323	28
402.556	29
403.788	25.5
405.019	28.5
406.252	27
407.483	27.5
408.714	30
409.945	33.5
411.177	29
412.407	27
413.637	26.5
414.867	32.5
416.099	27.5
417.328	24.5
418.558	31
419.787	26.5
421.016	27
422.246	29
423.475	28.5
424.703	25
425.931	22.5
427.159	30.5
428.388	30
429.616	28.5
430.843	29
432.071	27
433.298	31.5
434.524	33
435.751	23.5
436.977	28.5
438.204	28
439.431	27
440.657	31
441.883	30.5
443.108	29.5
444.333	32.5
445.558	31
446.783	23
448.008	29.5
449.232	29
450.457	34.5
451.681	31
452.905	30
454.128	30
455.352	31.5
456.575	28.5
457.798	32
459.021	32
460.244	33
461.466	29
462.689	29.5
463.909	30
465.131	30
466.353	31
467.575	30
468.796	36.5
470.017	36
471.238	38.5
472.459	33
473.679	34
474.898	41
476.118	39.5
477.338	46
478.558	44.5
479.778	42.5
480.997	54.5
482.215	55.5
483.434	57.5
484.653	58
485.871	67
487.09	55.5
488.307	63.5
489.525	60.5
490.743	67.5
491.96	58.5
493.176	61
494.394	56
495.611	55
496.826	47.5
498.043	49
499.259	50
500.474	45
501.69	45.5
502.906	39
504.121	40
505.336	39.5
506.551	37
507.765	36.5
508.98	36
510.195	37
511.408	38
512.622	36
513.835	36
515.049	31.5
516.263	34.5
517.475	33
518.689	37.5
519.9	30.5
521.113	35
522.325	28
523.537	28
524.748	32
525.961	32
527.171	30.5
528.383	33.5
529.594	28.5
530.805	35.5
532.015	37
533.226	34
534.435	32.5
535.646	25.5
536.855	31
538.066	30.5
539.274	29.5
540.483	28
541.693	32
542.901	29.5
544.11	29
545.318	30
546.526	32.5
547.734	28.5
548.942	28
550.149	28
551.357	27
552.563	31
553.77	29.5
554.978	30
556.184	34.5
557.389	31.5
558.596	29.5
559.802	30.5
561.007	31
562.212	25.5
563.419	29
564.623	24
565.828	28.5
567.032	26.5
568.238	30
569.442	28.5
570.646	27
571.849	31
573.054	29
574.257	27
575.46	30.5
576.663	25.5
577.866	26.5
579.068	29.5
580.272	32.5
581.474	29
582.676	26
583.877	28.5
585.079	26.5
586.28	27
587.481	31.5
588.682	29.5
589.883	29.5
591.083	28.5
592.285	32.5
593.485	29.5
594.685	26
595.885	29.5
597.084	28.5
598.284	30
599.483	31
600.682	28
601.881	25
603.08	29.5
604.278	28
605.476	28.5
606.674	26
607.872	26.5
609.07	31.5
610.266	28.5
611.463	30.5
612.661	27
613.857	29.5
615.054	27
616.251	27.5
617.447	28
618.643	31
619.839	31.5
621.035	29
622.229	30
623.425	27.5
624.62	32.5
625.815	30
627.01	28.5
628.205	26.5
629.398	32
630.592	30
631.786	31
632.98	27.5
634.172	29.5
635.366	28
636.559	31
637.753	26
638.944	27.5
640.137	32.5
641.33	28
642.522	27.5
643.713	28.5
644.905	25.5
646.097	33
647.287	29
648.478	29.5
649.67	27.5
650.859	28
652.05	34
653.241	25
654.43	30.5
655.621	33.5
656.811	29
657.999	29
659.189	31
660.378	33
661.567	31
662.755	32.5
663.944	31
665.133	35
666.32	29.5
667.508	29.5
668.695	33.5
669.884	32.5
671.07	30
672.258	35.5
673.444	28.5
674.631	31.5
675.817	27
677.004	33
678.19	30.5
679.376	34.5
680.561	35
681.746	33
682.932	35.5
684.117	39.5
685.302	32
686.487	36
687.672	35.5
688.856	34.5
690.039	34
691.224	29
692.407	34
693.59	36.5
694.774	35.5
695.957	33
697.14	41
698.323	36
699.505	36.5
700.687	36.5
701.87	38
703.052	46
704.233	49
705.414	50
706.597	51
707.778	50
708.958	50.5
710.139	48.5
711.32	50
712.5	49
713.68	41
714.86	41
716.039	32
717.22	35.5
718.399	31
719.578	31
720.757	32
721.935	33
723.114	33
724.292	35.5
725.471	31.5
726.649	31
727.827	29
729.004	29
730.182	27.5
731.359	27
732.536	26
733.712	31.5
734.889	27
736.065	30
737.242	31
738.418	30.5
739.593	28
740.769	25.5
741.945	31
743.12	27
744.295	27.5
745.47	29
746.644	29.5
747.819	27
748.993	29
750.168	30
751.342	28.5
752.515	30
753.689	26
754.862	28.5
756.036	27
757.209	29
758.382	29
759.553	28.5
760.725	24
761.898	26.5
763.07	32.5
764.242	31
765.414	26.5
766.584	30
767.755	31
768.927	30
770.098	30
771.269	31
772.438	29
773.608	32
774.779	25
775.949	24.5
777.117	29.5
778.287	32
779.457	29.5
780.626	30.5
781.794	28.5
782.963	32.5
784.132	32.5
785.299	31.5
786.468	31.5
787.636	33.5
788.803	35
789.971	31
791.139	31.5
792.305	29.5
793.472	31.5
794.638	32
795.805	27
796.972	31.5
798.138	33.5
799.304	27
800.469	31
801.635	30
802.801	34.5
803.966	30.5
805.131	30
806.295	32
807.461	29.5
808.624	31
809.789	33
810.952	28
812.117	35.5
813.28	31
814.444	29.5
815.607	26.5
816.769	33
817.933	28
819.095	30
820.258	28.5
821.42	28
822.583	28.5
823.744	29
824.905	32
826.068	25.5
827.228	27.5
828.389	27.5
829.551	27
830.711	25
831.871	27
833.032	24.5
834.192	24
835.352	29
836.513	30
837.672	29.5
838.831	28
839.99	29
841.15	26.5
842.308	30
843.466	29
844.624	26.5
845.784	33
846.941	26.5
848.099	30.5
849.256	29.5
850.414	32
851.572	27
852.729	26.5
853.886	24
855.042	28.5
856.198	26
857.355	27
858.512	29.5
859.668	29.5
860.823	29.5
861.979	30
863.134	33.5
864.289	31
865.444	28.5
866.599	32.5
867.753	30
868.908	27
870.062	25
871.216	29.5
872.37	26.5
873.523	31
874.677	28
875.83	27
876.983	33.5
878.136	31.5
879.289	26
880.441	30.5
881.594	24
882.746	24.5
883.898	30
885.05	23.5
886.201	28
887.353	33
888.504	27
889.655	29
890.806	27.5
891.956	30
893.107	31
894.257	27
895.407	28
896.557	27.5
897.707	28.5
898.856	29
900.005	27
901.154	23
902.304	30.5
903.453	22.5
904.6	29.5
905.749	27.5
906.897	28
908.046	24
909.192	26.5
910.34	28
911.488	26.5
912.634	31.5
913.782	28.5
914.929	24
916.076	27
917.222	25
918.368	29
919.515	26
920.66	26
921.806	28.5
922.951	31
924.097	29.5
925.242	27
926.387	25
927.532	23.5
928.676	27.5
929.821	28
930.965	27
932.109	26
933.253	27
934.396	25
935.54	29
936.683	27
937.826	24
938.969	26
940.112	29
941.254	29
942.397	25.5
943.538	30
944.681	25
945.822	22.5
946.964	25.5
948.105	25
949.246	26
950.388	25
951.528	27.5
952.669	29
953.809	28.5
954.949	24
956.09	25
957.229	28.5
958.369	31
959.509	27
960.648	24
961.786	28.5
962.926	27.5
964.065	29
965.203	26.5
966.342	28.5
967.48	29.5
968.618	25.5
969.755	27.5
970.894	27.75
972.031	26.5
973.168	24.5
974.305	25.5
975.441	26
976.579	27.5
977.715	27
978.851	24.5
979.987	25.5
981.123	24.5
982.26	26
983.395	26
984.531	24
985.666	21
986.8	26
987.935	23
989.07	27
990.204	28
991.338	24.5
992.472	26.5
993.607	23.5
994.741	31
995.874	27.5
997.008	24.5
998.141	26
999.274	25
1000.41	21.5
1001.54	27.5
1002.67	28.5
1003.8	26.5
1004.94	25.5
1006.07	30
1007.2	22.5
1008.33	27.5
1009.46	22
1010.59	24
1011.72	25
1012.85	28
1013.99	26
1015.12	28
1016.25	26
1017.38	27
1018.51	26
1019.63	25
1020.76	28
1021.89	23
1023.02	25.5
1024.15	25
1025.28	26.5
1026.41	29.5
1027.54	22
1028.67	24
1029.79	26
1030.92	24
1032.05	26.5
1033.18	25
1034.3	28
1035.43	27
1036.56	26.5
1037.68	26
1038.81	28
1039.94	25.5
1041.06	27.5
1042.19	25.5
1043.31	22.5
1044.44	27.5
1045.57	29.5
1046.69	26.5
1047.82	24
1048.94	23
1050.07	26
1051.19	25.5
1052.31	25
1053.44	23
1054.56	29
1055.69	27
1056.81	24
1057.93	27
1059.06	24
1060.18	25.5
1061.3	24.5
1062.42	23.5
1063.55	27
1064.67	23
1065.79	25.5
1066.91	24
1068.03	26
1069.16	27
1070.28	25.5
1071.4	26.5
1072.52	27.5
1073.64	24
1074.76	22.5
1075.88	27
1077	27.5
1078.12	29
1079.24	26
1080.36	24
1081.48	26.5
1082.6	25
1083.72	27.5
1084.84	24.5
1085.96	29.5
1087.08	25.5
1088.2	30
1089.31	28
1090.43	28
1091.55	25
1092.67	23
1093.78	30
1094.9	25
1096.02	25.5
1097.14	27.5
1098.25	24
1099.37	30.5
1100.49	27
1101.6	24
1102.72	25.5
1103.83	25.5
1104.95	25.5
1106.07	30
1107.18	22.5
1108.3	25
1109.41	27
1110.52	26
1111.64	24
1112.75	25
1113.87	30.5
1114.98	27
1116.1	24.5
1117.21	26.5
1118.32	26
1119.44	21
1120.55	27
1121.66	23.5
1122.78	25
1123.89	24
1125	26
1126.11	26
1127.23	26.5
1128.34	26
1129.45	26.5
1130.56	24
1131.67	25.5
1132.78	27
1133.89	28.5
1135	26.5
1136.12	23
1137.23	26
1138.34	25.5
1139.45	23
1140.56	25
1141.67	23
1142.78	24
1143.89	26.5
1144.99	20.5
1146.1	24
1147.21	26
1148.32	20.5
1149.43	29.5
1150.54	23.5
1151.65	24
1152.75	27
1153.86	24
1154.97	25.5
1156.08	27
1157.18	30
1158.29	28.5
1159.4	22
1160.5	26
1161.61	25
1162.72	25
1163.82	25.5
1164.93	21
1166.03	25
1167.14	24.5
1168.24	22
1169.35	26.5
1170.45	27.5
1171.56	25.5
1172.66	22
1173.77	20
1174.87	26.5
1175.98	23
1177.08	25.5
1178.19	24.5
1179.29	27.5
1180.39	25
1181.5	21
1182.6	23
1183.7	24
1184.8	26.5
1185.91	25
1187.01	22
1188.11	24.5
1189.21	19.5
1190.32	25.5
1191.42	23
1192.52	20.5
1193.62	27
1194.72	24.9916
1195.82	21.9725
1196.92	26.0003
1198.02	25.4556
1199.12	23.0915
1200.22	19.3326
1201.32	26.3255
1202.42	29.4791
1203.52	26.7937
1204.62	25.8991
1205.72	24.2411
1206.82	25.6992
1207.92	24.0943
1209.02	24.8222
1210.12	22.8013
1211.22	27.5733
1212.31	24.7004
1213.41	21.5097
1214.51	26.051
1215.61	22.3786
1216.71	23.6105
1217.8	26.0715
1218.9	27.517
1220	26.3591
1221.09	26.7406
1222.19	25.6992
1223.29	23.6035
1224.38	25.0046
1225.48	25.4304
1226.58	26.6672
1227.67	25.2227
1228.77	22.5677
1229.86	26.4809
1230.96	27.0727
1232.05	24.034
1233.15	23.6423
1234.24	23.972
1235.34	23.0871
1236.43	26.3478
1237.52	24.6882
1238.62	21.6488
1239.71	22.8172
1240.81	24.9354
1241.9	24.5218
1242.99	26.7758
1244.09	27.0808
1245.18	23.3324
1246.27	25.2374
1247.36	23.4487
1248.46	28.9292
1249.55	24.1741
1250.64	26.1528
1251.73	26.5014
1252.82	26.9337
1253.92	24.486
1255.01	26.6218
1256.1	23.9901
1257.19	23.6377
1258.28	25.9793
1259.37	27.9654
1260.46	26.66
1261.55	27.2829
1262.64	27.3486
1263.73	27.4739
1264.82	24.9401
1265.91	25.0922
1267	26.4031
1268.09	25.7845
1269.18	26.5453
1270.27	25.1595
1271.36	22.5782
1272.45	22.798
1273.53	24.9064
1274.62	24.0832
1275.71	25.6855
1276.8	24.5507
1277.89	24.8947
1278.97	26.5634
1280.06	27.7101
1281.15	26.951
1282.23	25.2374
1283.32	23.793
1284.41	22.0787
1285.49	22.5988
1286.58	25.0431
1287.67	25.6498
1288.75	24.9232
1289.84	24.1719
1290.92	24.0562
1292.01	24.9218
1293.09	25.3242
1294.18	25.9024
1295.26	26.5291
1296.35	25.3724
1297.43	22.2834
1298.52	25.5102
1299.6	23.8809
1300.69	23.7491
1301.77	24.0437
1302.85	23.2153
1303.94	25.8364
1305.02	25.2095
1306.1	25.2202
1306.42	25.5
1307.51	25
1308.59	27
1309.68	25
1310.77	27.5
1311.86	27.5
1312.95	21.5
1314.03	24.5
1315.12	25.5
1316.21	22.5
1317.29	23.5
1318.38	22
1319.47	26.5
1320.55	25
1321.64	23.5
1322.72	23.5
1323.81	25
1324.89	24
1325.98	24
1327.07	24
1328.15	23.5
1329.24	21.5
1330.32	22
1331.4	27.5
1332.49	24
1333.57	25
1334.66	26
1335.74	24.5
1336.82	25.5
1337.91	24
1338.99	23
1340.07	25
1341.16	24.5
1342.24	27
1343.32	23
1344.4	22
1345.49	23.5
1346.57	27
1347.65	22
1348.73	23
1349.81	23.5
1350.9	22
1351.98	27
1353.06	23.5
1354.14	25
1355.22	27
1356.3	26
1357.38	28
1358.46	21
1359.54	21.5
1360.62	22
1361.7	23
1362.78	27
1363.86	28.5
1364.94	27.5
1366.02	22
1367.1	25.5
1368.17	23.5
1369.25	26.5
1370.33	22.5
1371.41	24
1372.49	26.5
1373.57	27
1374.64	27
1375.72	27.5
1376.8	27.5
1377.87	25.5
1378.95	27.5
1380.03	29
1381.1	27
1382.18	25
1383.26	23
1384.33	26.5
1385.41	23
1386.49	27.5
1387.56	24
1388.64	25
1389.71	27
1390.79	27
1391.86	25.5
1392.94	29.5
1394.01	25.5
1395.08	25
1396.16	32
1397.23	28
1398.31	29.5
1399.38	27
1400.45	29
1401.53	25.5
1402.6	31
1403.67	30.5
1404.75	31
1405.82	30
1406.89	30
1407.96	33
1409.04	28.5
1410.11	30.5
1411.18	33.5
1412.25	29
1413.32	28
1414.39	33
1415.47	33
1416.54	23.5
1417.61	30.5
1418.68	30.5
1419.75	30.5
1420.82	24
1421.89	26
1422.96	29.5
1424.03	21
1425.1	30
1426.17	31
1427.24	27
1428.31	24.5
1429.38	29.5
1430.44	28.5
1431.51	24.5
1432.58	27.5
1433.65	24
1434.72	27.5
1435.79	24
1436.85	29
1437.92	28.5
1438.99	27
1440.05	27.5
1441.12	22
1442.19	27.5
1443.26	25.5
1444.32	26
1445.39	26.5
1446.46	25
1447.52	26
1448.59	25
1449.65	24.5
1450.72	25
1451.78	26
1452.85	26
1453.91	23.5
1454.98	24
1456.04	27.5
1457.11	25.5
1458.17	25
1459.24	23.5
1460.3	26.5
1461.36	31.5
1462.43	21.5
1463.49	30
1464.56	23.5
1465.62	25.5
1466.68	23
1467.74	24.5
1468.81	25.5
1469.87	28
1470.93	21
1471.99	27
1473.06	25
1474.12	25
1475.18	24.5
1476.24	25.5
1477.3	25
1478.36	27
1479.42	28.5
1480.49	25
1481.55	24
1482.61	26
1483.67	27
1484.73	26
1485.79	25.5
1486.85	23.5
1487.91	29
1488.97	26.5
1490.03	24.5
1491.09	23
1492.14	23.5
1493.2	24
1494.26	26.5
1495.32	28.5
1496.38	30
1497.44	27
1498.49	26.5
1499.55	26
1500.61	25.5
1501.67	24.5
1502.72	25
1503.78	28
1504.84	29
1505.89	20.5
1506.95	30
1508.01	27.5
1509.07	30.5
1510.12	22.5
1511.18	22
1512.23	26
1513.29	30.5
1514.34	26
1515.4	24
1516.45	24
1517.51	26.5
1518.56	26.5
1519.62	26.5
1520.67	25
1521.73	22.5
1522.78	20.5
1523.84	21
1524.89	28
1525.94	28
1527	29
1528.05	24
1529.1	22.5
1530.16	24
1531.21	26.5
1532.26	28.5
1533.32	28
1534.37	28.5
1535.42	27
1536.47	28.5
1537.52	25
1538.57	24
1539.63	26.5
1540.68	21
1541.73	28
1542.78	26.5
1543.83	28.5
1544.88	27
1545.93	27
1546.98	27
1548.03	26
1549.08	24.5
1550.13	23
1551.18	28
1552.23	25
1553.28	27
1554.33	26
1555.38	21.5
1556.43	26.5
1557.48	26
1558.53	24
1559.57	27
1560.62	28
1561.67	26.5
1562.72	21.5
1563.77	20
1564.81	26.5
1565.86	27
1566.91	24
1567.96	29
1569	25.5
1570.05	25.5
1571.09	25
1572.14	22
1573.19	26.5
1574.23	22
1575.28	26
1576.33	26.5
1577.37	25.5
1578.42	28
1579.46	25
1580.51	29
1581.55	27.5
1582.6	25.5
1583.64	27
1584.69	20
1585.73	28
1586.77	31
1587.82	31
1588.86	25
1589.91	27
1590.95	26
1591.99	23
1593.04	26.5
1594.08	25
1595.12	25.5
1596.16	26
1597.21	23
1598.25	19
1599.29	23
1600.33	26.5
1601.37	21.5
1602.42	25
1603.46	24.5
1604.5	26
1605.54	23.5
1606.58	25.5
1607.62	25.5
1608.66	29.5
1609.7	20.5
1610.74	27.5
1611.78	26.5
1612.82	29
1613.86	24.5
1614.9	27
1615.94	26
1616.98	27
1618.02	26
1619.06	24
1620.1	24
1621.14	25.5
1622.18	25
1623.21	24
1624.25	24
1625.29	29.5
1626.33	23.5
1627.37	25.5
1628.4	27
1629.44	27
1630.48	25
1631.52	30
1632.55	25.5
1633.59	27
1634.63	27.5
1635.66	25.5
1636.7	27.5
1637.73	27
1638.77	26.5
1639.81	25.5
1640.84	26.5
1641.88	25.5
1642.91	28
1643.95	29
1644.98	26
1646.02	25
1647.05	31.5
1648.09	23
1649.12	24.5
1650.16	27.5
1651.19	27
1652.22	23.5
1653.26	26
1654.29	26.5
1655.32	26
1656.36	27
1657.39	30
1658.42	30
1659.46	24
1660.49	21.5
1661.52	24
1662.55	26.5
1663.59	21.5
1664.62	27.5
1665.65	25.5
1666.68	25
1667.71	25
1668.74	25.5
1669.77	26
1670.81	26.5
1671.84	31.5
1672.87	26.5
1673.9	27
1674.93	23
1675.96	28
1676.99	29
1678.02	22.5
1679.05	28
1680.08	24
1681.11	22.5
1682.13	23.5
1683.16	25
1684.19	23
1685.22	27.5
1686.25	21.5
1687.28	26
1688.31	30
1689.33	26.5
1690.36	25
1691.39	24.5
1692.42	28.5
1693.45	24.5
1694.47	26.5
1695.5	27.5
1696.53	24.5
1697.55	28.5
1698.58	24
1699.61	24.5
1700.63	27
1701.66	24.5
1702.68	25.5
1703.71	25
1704.74	29
1705.76	23
1706.79	27
1707.81	28.5
1708.84	28
1709.86	28
1710.89	27
1711.91	23
1712.94	26.5
1713.96	28.5
1714.98	22
1716.01	28.5
1717.03	27.5
1718.05	25.5
1719.08	21
1720.1	24
1721.12	27
1722.15	24
1723.17	25.5
1724.19	24
1725.22	27
1726.24	23.5
1727.26	24.5
1728.28	28
1729.3	26
1730.32	28
1731.35	29.5
1732.37	28
1733.39	25
1734.41	25
1735.43	27.5
1736.45	27
1737.47	28
1738.49	23.5
1739.51	27.5
1740.53	24.5
1741.55	21.5
1742.57	22.5
1743.59	22
1744.61	25
1745.63	28
1746.65	25
1747.67	28.5
1748.69	24
1749.71	22.5
1750.72	25
1751.74	25.5
1752.76	26
1753.78	26
1754.8	28.5
1755.81	24.5
1756.83	25.5
1757.85	22.5
1758.87	21.5
1759.88	25
1760.9	29.5
1761.92	25.5
1762.93	24.5
1763.95	25.5
1764.97	26.5
1765.98	25.5
1767	23
1768.01	25
1769.03	26
1770.05	26
1771.06	27.5
1772.08	25.5
1773.09	23.5
1774.11	26
1775.12	21
1776.13	25
1777.15	23.5
1778.16	23.5
1779.18	25
1780.19	28.5
1781.2	30.5
1782.22	28.5
1783.23	26
1784.24	23
1785.26	22
1786.27	25.5
1787.28	25
1788.3	25.5
1789.31	26
1790.32	27
1791.33	24.5
1792.35	24.5
1793.36	25.5
1794.37	27.5
1795.38	23
1796.39	23
1797.4	22
1798.41	26
1799.43	25
1800.44	25
1801.45	24.5
1802.46	24.5
1803.47	26.5
1804.48	27
1805.49	25
1806.5	27.5
1807.51	23.5
1808.52	22
1809.53	30.5
1810.53	26
1811.54	26.5
1812.55	27
1813.56	30
1814.57	22
1815.58	25.5
1816.59	26
1817.6	25
1818.6	22
1819.61	22
1820.62	23
1821.63	27
1822.63	24
1823.64	24
1824.65	24.5
1825.65	25
1826.66	25.5
1827.67	23.5
1828.67	24.5
1829.68	25.5
1830.69	27
1831.69	24.5
1832.7	23.5
1833.7	25
1834.71	23.5
1835.71	28
1836.72	24
1837.72	24
1838.73	27.5
1839.73	25
1840.74	25.5
1841.74	23.5
1842.75	26.5
1843.75	24.5
1844.75	28
1845.76	27
1846.76	21
1847.76	22.5
1848.77	23
1849.77	26
1850.77	26.5
1851.78	28
1852.78	28
1853.78	25.5
1854.78	27
1855.79	28
1856.79	24
1857.79	23.5
1858.79	23.5
1859.79	25.5
1860.8	24.5
1861.8	23
1862.8	24.5
1863.8	22
1864.8	28.5
1865.8	27
1866.8	25.5
1867.8	24
1868.8	28
1869.8	21.5
1870.8	27.5
1871.8	27.5
1872.8	24
1873.8	24.5
1874.8	26
1875.8	28.5
1876.8	24
1877.8	24.5
1878.79	26
1879.79	24.5
1880.79	24.5
1881.79	26
1882.79	25.5
1883.79	26.5
1884.78	26
1885.78	22.5
1886.78	25
1887.77	25.5
1888.77	27
1889.77	28.5
1890.77	24
1891.76	26.5
1892.76	26
1893.76	26.5
1894.75	20.5
1895.75	24.5
1896.74	22
1897.74	24
1898.73	22.5
1899.73	23.5
1900.72	22.5
1901.72	30
1902.72	27.5
1903.71	27.5
1904.7	26.5
1905.7	23.5
1906.69	28
1907.69	30
1908.68	27.5
1909.67	23.5
1910.67	27
1911.66	27.5
1912.66	22
1913.65	20
1914.64	27.5
1915.63	26
1916.63	25
1917.62	26
1918.61	24.5
1919.6	24
1920.6	26
1921.59	24
1922.58	25.5
1923.57	25.5
1924.56	29
1925.56	25.5
1926.55	23
1927.54	25
1928.53	26
1929.52	23.5
1930.51	24.5
1931.5	26.5
1932.49	25
1933.48	25
1934.47	22
1935.46	26
1936.45	26.5
1937.44	27
1938.43	21.5
1939.42	27
1940.41	28.5
1941.4	26
1942.39	25
1943.37	24.5
1944.36	22
1945.35	26
1946.34	23.5
1947.33	24
1948.32	26.25
1949.3	27.5
1950.29	21.5
1951.28	21
1952.27	24.5
1953.25	29
1954.24	25.5
1955.23	20.5
1956.21	25
1957.2	23.5
1958.19	26.5
1959.17	26.5
1960.16	26
1961.14	24
1962.13	25.5
1963.12	22
1964.1	23.5
1965.09	25.5
1966.07	22.5
1967.06	26
1968.04	23
1969.03	28
1970.01	23.5
1970.99	25
1971.98	23.5
1972.96	27
1973.95	20
1974.93	18
1975.92	26
1976.9	23.5
1977.88	28.5
1978.87	25
1979.85	23
1980.83	28
1981.81	22.5
1982.8	26
1983.78	23
1984.76	25.5
1985.74	22
1986.73	24
1987.71	26
1988.69	21
1989.67	26.5
1990.65	26.5
1991.63	22
1992.61	25.5
1993.59	23
1994.58	23
1995.56	25.5
1996.54	24.5
1997.52	28.5
1998.5	22
1999.48	24
2000.46	26.5
2001.44	27.5
2002.42	24
2003.4	21
2004.38	24.5
2005.35	25
2006.33	24
2007.31	23
2008.29	26.5
2009.27	23.5
2010.25	24
2011.23	26
2012.2	23
2013.18	24
2014.16	26
2015.14	24.5
2016.11	25
2017.09	25
2018.07	22
2019.05	25
2020.02	23
2021	21.5
2021.98	26
2022.95	24.5
2023.93	29
2024.91	21
2025.88	20
2026.86	23.5
2027.83	20.5
2028.81	23.5
2029.78	28
2030.76	22
2031.73	26
2032.71	22.5
2033.68	25
2034.66	22
2035.63	25.5
2036.61	26
2037.58	25.5
2038.56	26.5
2039.53	26.5
2040.5	23
2041.48	23
2042.45	22.5
2043.42	24.5
2044.4	25.5
2045.37	18
2046.34	25
2047.32	22
2048.29	21.5
2049.26	22
2050.23	25.5
2051.2	23
2052.18	23
2053.15	26
2054.12	23.5
2055.09	23
2056.06	23
2057.03	20
2058	23
2058.98	25.5
2059.95	24
2060.92	23
2061.89	23
2062.86	24.5
2063.83	23
2064.8	24.5
2065.77	23
2066.74	24
2067.71	25.5
2068.68	26
2069.65	23
2070.61	23
2071.58	24
2072.55	27
2073.52	24
2074.49	28
2075.46	23.5
2076.43	25
2077.4	23
2078.36	27
2079.33	23
2080.3	29
2081.27	24.5
2082.23	23.5
2083.2	24.5
2084.17	23.5
2085.13	24.5
2086.1	26
2087.07	23.5
2088.03	22.5
2089	23.5
2089.97	25
2090.93	23.5
2091.9	23
2092.86	25.5
2093.83	24.5
2094.8	27.5
2095.76	26
2096.73	25
2097.69	24
2098.66	20
2099.62	21
2100.58	23
2101.55	23
2102.51	25
2103.48	26.5
2104.44	21.5
2105.41	23
2106.37	24
2107.33	22.5
2108.3	26.5
2109.26	21
2110.22	25
2111.19	22
2112.15	25.5
2113.11	25.5
2114.07	28.5
2115.04	23.5
2116	23
2116.96	21
2117.92	22
2118.88	24.5
2119.85	22.5
2120.81	22
2121.77	23.5
2122.73	20
2123.69	25.5
2124.65	25
2125.61	21
2126.57	25
2127.53	21.5
2128.49	22.5
2129.45	25
2130.41	27
2131.37	22
2132.33	24
2133.29	22.5
2134.25	25.5
2135.21	22
2136.17	28
2137.13	20
2138.09	24.5
2139.05	24
2140.01	23
2140.96	24.5
2141.92	23.5
2142.88	26.9801
2143.84	24.4524
2144.8	24.9716
2145.75	23.9276
2146.71	21.5338
2147.67	25.4804
2148.63	21.222
2149.58	18.9604
2150.54	21.5649
2151.5	21.9229
2152.45	23.5718
2153.41	22.5505
2154.37	24.3005
2155.32	22.6105
2156.28	22.9978
2157.23	24.038
2158.19	25.2623
2159.15	24.6438
2160.1	24.124
2161.06	22.0863
2162.01	23.6108
2162.97	20.8489
2163.92	21.0097
2164.88	23.0468
2165.83	21.7984
2166.78	23.1962
2167.74	24.7136
2168.69	20.267
2169.65	23.7604
2170.6	24.8805
2171.56	22.4047
2172.51	21.4296
2173.46	22.8385
2174.42	24.5199
2175.37	22.9335
2176.32	23.8602
2177.28	21.8973
2178.23	23.1148
2179.18	21.5484
2180.13	21.49
2181.08	24.5323
2182.04	23.3056
2182.99	21.4126
2183.94	21.1985
2184.89	26.7839
2185.84	23.0124
2186.8	23.2153
2187.75	22.4039
2188.7	21.0755
2189.65	22.1127
2190.6	24.7075
2191.55	23.4849
2192.5	23.5048
2193.45	23.5509
2194.4	23.2658
2195.35	23.0777
2196.3	21.9596
2197.25	19.4566
2198.2	23.2447
2199.15	24.2765
2200.1	23.4684
2201.05	18.4088
2202	23.2878
2202.95	23.6008
2203.9	22.4779
2204.85	23.6173
2205.79	24.7179
2206.74	23.0028
2207.69	24.5328
2208.64	21.1826
2209.59	25.132
2210.53	21.7338
2211.48	21.5864
2212.43	24.1937
2213.38	23.1018
2214.32	25.5821
2215.27	19.7976
2216.22	22.277
2217.17	20.8523
2218.11	23.7165
2219.06	22.3947
2220.01	23.8942
2220.95	23.5024
2221.9	21.6351
2222.84	23.0913
2223.79	24.2775
2224.73	23.9415
2225.68	22.8883
2226.63	23.4256
2227.57	22.5626
2228.52	23.8409
2229.46	24.0267
2230.41	24.2003
2231.35	21.1651
2232.3	24.5771
2233.24	21.6785
2234.18	21.7019
2235.13	22.3702
2236.07	25.2553
2237.02	25.3047
2237.96	20.4377
2238.9	22.065
2239.85	25.2616
2240.08	26
2241.03	19
2241.97	22.5
2242.92	24.5
2243.87	19
2244.82	24
2245.76	21.5
2246.71	21.5
2247.66	23
2248.61	24
2249.55	25
2250.5	20.5
2251.45	26
2252.39	24
2253.34	20
2254.29	21
2255.23	17.5
2256.18	26.5
2257.12	20.5
2258.07	24
2259.01	25
2259.96	22
2260.9	20.5
2261.85	21.5
2262.79	20.5
2263.74	24.5
2264.68	23.5
2265.63	21.5
2266.57	25
2267.52	24.5
2268.46	22
2269.41	20.5
2270.35	22
2271.29	26.5
2272.24	20.5
2273.18	25
2274.12	22
2275.07	22.5
2276.01	25
2276.95	23
2277.89	23
2278.84	19.5
2279.78	20
2280.72	21.5
2281.66	23.5
2282.6	25.5
2283.55	19
2284.49	21.5
2285.43	23.5
2286.37	20
2287.31	28.5
2288.25	22
2289.2	24.5
2290.14	25
2291.08	22
2292.02	22
2292.96	26
2293.9	26.5
2294.84	25
2295.78	22.5
2296.72	23.5
2297.66	17.5
2298.6	21.5
2299.54	19
2300.48	24.5
2301.42	23.5
2302.35	23
2303.29	24.5
2304.23	19
2305.17	22
2306.11	24
2307.05	22
2307.99	26.5
2308.92	22
2309.86	25.5
2310.8	24
2311.74	21
2312.67	21
2313.61	24
2314.55	21.5
2315.49	21
2316.42	22.5
2317.36	25.5
2318.3	23.5
2319.23	24
2320.17	19
2321.1	23
2322.04	22
2322.98	26
2323.91	26
2324.85	23
2325.78	23
2326.72	24.5
2327.66	25
2328.59	22
2329.52	25
2330.46	21.5
2331.39	23.5
2332.33	24
2333.26	25.5
2334.2	28.5
2335.13	19.5
2336.07	22
2337	25
2337.93	25.5
2338.87	24
2339.8	23
2340.73	26
2341.67	22
2342.6	22.5
2343.53	26
2344.46	22.5
2345.4	24.5
2346.33	24
2347.26	28.5
2348.19	21.5
2349.13	21.5
2350.06	25
2350.99	26
2351.92	26.5
2352.85	30
2353.79	24
2354.72	27.5
2355.65	24
2356.58	20
2357.51	22
2358.44	23.5
2359.37	22.5
2360.3	23
2361.23	23
2362.16	24
2363.09	19.5
2364.02	24.5
2364.95	26.5
2365.88	24
2366.81	24
2367.74	23.5
2368.67	23.5
2369.6	26.5
2370.53	24
2371.45	21
2372.38	27.5
2373.31	24.5
2374.24	23.5
2375.17	26
2376.1	24
2377.02	24
2377.95	23
2378.88	26
2379.81	24
2380.73	23.5
2381.66	23
2382.59	22
2383.52	21
2384.44	23.5
2385.37	25
2386.3	24
2387.22	23
2388.15	24
2389.07	25.5
2390	26
2390.93	25
2391.85	17
2392.78	24
2393.7	21
2394.63	23.5
2395.55	22
2396.48	28
2397.4	27
2398.33	27.5
2399.25	28
2400.18	20
2401.1	21
2402.03	24
2402.95	26
2403.87	26
2404.8	25.5
2405.72	24
2406.64	25.5
2407.57	27
2408.49	23.5
2409.41	26.5
2410.34	25
2411.26	25.5
2412.18	27.5
2413.1	24
2414.03	24.5
2414.95	24.5
2415.87	27
2416.79	16.5
2417.72	25.5
2418.64	25.5
2419.56	23.5
2420.48	22.5
2421.4	22.5
2422.32	24
2423.24	24
2424.16	25
2425.09	24
2426.01	24.5
2426.93	27
2427.85	25
2428.77	22
2429.69	22.5
2430.61	22.5
2431.53	22
2432.45	21.5
2433.37	28.5
2434.29	26.5
2435.21	20
2436.12	26.5
2437.04	25.5
2437.96	26
2438.88	27
2439.8	28
2440.72	25.5
2441.64	21.5
2442.55	21.5
2443.47	20.5
2444.39	23
2445.31	24
2446.23	23.5
2447.14	24
2448.06	26.5
2448.98	23
2449.9	24.5
2450.81	19
2451.73	27
2452.65	25.5
2453.56	23
2454.48	20.5
2455.39	22.5
2456.31	24
2457.23	27
2458.14	24
2459.06	26.5
2459.97	24
2460.89	23.5
2461.8	22.5
2462.72	28.5
2463.64	23
2464.55	25.5
2465.47	24.5
2466.38	24
2467.29	26
2468.21	28
2469.12	23
2470.04	22.5
2470.95	27.5
2471.86	24
2472.78	25.5
2473.69	23
2474.61	22
2475.52	27
2476.43	23.5
2477.35	24.5
2478.26	28.5
2479.17	24.5
2480.08	24
2481	25
2481.91	25.5
2482.82	21.5
2483.73	26
2484.64	22
2485.56	24.5
2486.47	23.5
2487.38	23
2488.29	25.5
2489.2	21.5
2490.11	25.5
2491.03	24
2491.94	25.5
2492.85	24
2493.76	28
2494.67	25.5
2495.58	21.5
2496.49	25.5
2497.4	24.5
2498.31	27.5
2499.22	23.5
2500.13	25.5
2501.04	30.5
2501.95	24.5
2502.86	24.5
2503.77	25
2504.67	24
2505.58	27.5
2506.49	24.5
2507.4	24
2508.31	28
2509.22	24
2510.13	24.5
2511.03	22
2511.94	27.5
2512.85	26.5
2513.76	23.5
2514.66	27
2515.57	24
2516.48	26
2517.39	25
2518.29	24.5
2519.2	22
2520.11	21.5
2521.01	22
2521.92	25
2522.83	25
2523.73	25
2524.64	22
2525.54	27
2526.45	26
2527.36	22.5
2528.26	27
2529.17	24.5
2530.07	25
2530.98	22
2531.88	28.5
2532.79	21.5
2533.69	24
2534.6	23
2535.5	21.5
2536.41	26.5
2537.31	26.5
2538.21	24.5
2539.12	24.5
2540.02	25
2540.93	23
2541.83	23.5
2542.73	26.5
2543.64	26.5
2544.54	23
2545.44	23
2546.34	25
2547.25	24
2548.15	21.5
2549.05	26.5
2549.96	21.5
2550.86	27
2551.76	23
2552.66	24.5
2553.56	24
2554.46	24.5
2555.37	26
2556.27	22.5
2557.17	24.5
2558.07	21
2558.97	23
2559.87	24
2560.77	26
2561.67	25.5
2562.57	25
2563.47	26
2564.37	25.5
2565.27	24.5
2566.17	24.5
2567.07	24
2567.97	26
2568.87	24
2569.77	24.5
2570.67	25.5
2571.57	27.5
2572.47	24.5
2573.37	24.5
2574.27	23.5
2575.17	26.5
2576.06	22
2576.96	25
2577.86	21
2578.76	27.5
2579.66	25
2580.56	24
2581.45	22
2582.35	23
2583.25	25
2584.15	25
2585.04	23
2585.94	24
2586.84	23.5
2587.73	24
2588.63	23.5
2589.53	27
2590.42	24
2591.32	23
2592.22	24.5
2593.11	24
2594.01	23
2594.9	30.5
2595.8	23
2596.69	24.5
2597.59	26
2598.48	26.5
2599.38	20.5
2600.28	25
2601.17	23.5
2602.06	25
2602.96	27
2603.85	24.5
2604.75	29.5
2605.64	22.5
2606.54	22
2607.43	28.5
2608.32	26
2609.22	25
2610.11	26.5
2611	23.5
2611.9	24
2612.79	22
2613.68	22
2614.58	20
2615.47	23.5
2616.36	21.5
2617.25	25
2618.15	28
2619.04	24
2619.93	28.5
2620.82	24
2621.71	24
2622.61	23.5
2623.5	22
2624.39	21.5
2625.28	22
2626.17	23
2627.06	25.5
2627.95	25
2628.84	27
2629.74	24.5
2630.63	22
2631.52	24.5
2632.41	23.5
2633.3	23
2634.19	25
2635.08	23.5
2635.97	22.5
2636.85	26
2637.74	27
2638.63	24
2639.52	28
2640.41	25
2641.3	24
2642.19	27
2643.08	21
2643.97	23.5
2644.86	28
2645.74	24.5
2646.63	25
2647.52	21.5
2648.41	25
2649.3	21.5
2650.18	24.5
2651.07	24
2651.96	27
2652.85	24
2653.73	23
2654.62	23.5
2655.51	21
2656.39	21
2657.28	27
2658.17	25.5
2659.05	27.5
2659.94	26
2660.83	24
2661.71	26.5
2662.6	28
2663.48	26.5
2664.37	25.5
2665.25	23
2666.14	25
2667.02	22
2667.91	25
2668.79	27
2669.68	26.5
2670.56	25
2671.45	26.5
2672.33	20.5
2673.22	25
2674.1	22.5
2674.98	25.5
2675.87	26
2676.75	28
2677.64	22.5
2678.52	24.5
2679.4	21.5
2680.29	25
2681.17	22.5
2682.05	23.5
2682.94	24
2683.82	22
2684.7	24.5
2685.58	24
2686.47	21.5
2687.35	24
2688.23	26
2689.11	26.5
2689.99	26.5
2690.88	26.5
2691.76	26
2692.64	23
2693.52	26
2694.4	23
2695.28	25
2696.16	22.5
2697.04	26
2697.92	23.5
2698.8	22.5
2699.69	27
2700.57	22
2701.45	23
2702.33	25.5
2703.21	21
2704.09	25.5
2704.97	25
2705.84	25
2706.72	24
2707.6	24
2708.48	27.5
2709.36	23.5
2710.24	25
2711.12	29
2712	25
2712.88	21
2713.75	27
2714.63	21.5
2715.51	24
2716.39	20
2717.27	25.5
2718.14	26
2719.02	26.5
2719.9	23
2720.78	27
2721.65	27
2722.53	21.5
2723.41	23.5
2724.28	27
2725.16	21.5
2726.04	23
2726.92	24
2727.79	25
2728.67	22
2729.54	27
2730.42	21.5
2731.3	29.5
2732.17	22.5
2733.05	28.5
2733.92	25.5
2734.8	26.5
2735.67	23
2736.55	26
2737.42	26.5
2738.3	24
2739.17	20.5
2740.05	24.5
2740.92	21.5
2741.79	23
2742.67	23
2743.54	23
2744.42	22.5
2745.29	24
2746.16	23
2747.04	21
2747.91	25.5
2748.78	22.5
2749.66	27
2750.53	25
2751.4	23
2752.28	22
2753.15	26
2754.02	21
2754.89	26.5
2755.77	20
2756.64	26
2757.51	26.5
2758.38	27
2759.25	20
2760.13	27
2761	21
2761.87	25.5
2762.74	25
2763.61	25
2764.48	26
2765.35	26
2766.22	25
2767.09	25.5
2767.96	25
2768.83	30
2769.71	23
2770.57	25.5
2771.44	24
2772.32	25
2773.18	27
2774.05	26
2774.92	27
2775.79	21
2776.66	24.5
2777.53	25
2778.4	28
2779.27	27
2780.14	26.5
2781.01	24
2781.87	22
2782.74	24
2783.61	25.5
2784.48	25
2785.35	21.5
2786.21	21.5
2787.08	21.5
2787.95	28.5
2788.82	26.5
2789.69	25.5
2790.55	26
2791.42	29
2792.29	23
2793.15	23.5
2794.02	25.5
2794.89	26
2795.75	27
2796.62	26
2797.49	28
2798.35	26.5
2799.22	25
2800.08	27
2800.95	27.75
2801.81	25
2802.68	25.5
2803.55	31
2804.41	22.5
2805.28	27
2806.14	25.5
2807	25
2807.87	29
2808.73	27
2809.6	30.5
2810.46	29
2811.33	22
2812.19	29.5
2813.06	24.5
2813.92	28
2814.78	28
2815.65	27
2816.51	28
2817.37	25.5
2818.24	23
2819.1	30.5
2819.96	22
2820.83	24
2821.69	26
2822.55	25.5
2823.41	25.5
2824.28	25.5
2825.14	26.5
2826	28
2826.86	26.5
2827.72	24.5
2828.58	26
2829.45	26.5
2830.31	29.5
2831.17	24
2832.03	25.5
2832.89	25
2833.75	33
2834.61	26.5
2835.47	26
2836.33	28
2837.2	22.5
2838.05	26
2838.92	24.5
2839.78	20
2840.64	25
2841.49	27.5
2842.35	26
2843.21	25
2844.07	23
2844.93	27
2845.79	25
2846.65	28.5
2847.51	26
2848.37	23.5
2849.23	26.5
2850.09	27
2850.94	26
2851.8	27.5
2852.66	28
2853.52	28
2854.38	25
2855.23	27
2856.09	23.5
2856.95	26
2857.81	29.5
2858.67	22.5
2859.52	28.5
2860.38	24
2861.24	25
2862.09	23.5
2862.95	25.5
2863.81	28
2864.66	27
2865.52	26
2866.38	25
2867.23	27
2868.09	29
2868.94	26.5
2869.8	28.5
2870.65	25
2871.51	28
2872.37	25.5
2873.22	28
2874.08	28
2874.93	28
2875.79	32
2876.64	29
2877.49	30
2878.35	35.5
2879.2	27
2880.06	35.5
2880.91	30.5
2881.77	33.5
2882.62	32.5
2883.47	33.5
2884.33	32
2885.18	31.5
2886.03	31
2886.89	37
2887.74	33.5
2888.59	35.5
2889.45	37.5
2890.3	40
2891.15	42
2892	38.5
2892.86	43
2893.71	45
2894.56	45.5
2895.41	47
2896.27	50.5
2897.12	45.5
2897.97	52.5
2898.82	52.5
2899.67	55.5
2900.52	56
2901.37	61
2902.23	67.5
2903.08	65
2903.93	75.5
2904.78	70
2905.63	70
2906.48	72
2907.33	72
2908.18	70.5
2909.03	67
2909.88	59
2910.73	63.5
2911.58	60
2912.43	59
2913.28	52.5
2914.13	53
2914.98	40.5
2915.83	44
2916.67	46
2917.52	42
2918.37	37
2919.22	38.5
2920.07	40
2920.92	37
2921.77	35
2922.61	36
2923.46	31.5
2924.31	30.5
2925.16	29
2926	30
2926.85	30.5
2927.7	32.5
2928.55	27
2929.39	28.5
2930.24	34
2931.09	31
2931.94	31.5
2932.78	27
2933.63	28.5
2934.47	33
2935.32	27.5
2936.17	29
2937.01	33
2937.86	29
2938.7	25.5
2939.55	30.5
2940.4	26.5
2941.24	28
2942.09	27.5
2942.93	22
2943.78	27
2944.62	25.5
2945.47	29
2946.31	30
2947.16	27.5
2948	27
2948.84	30.5
2949.69	28
2950.53	35
2951.38	31.5
2952.22	33.5
2953.06	31.5
2953.91	33.5
2954.75	32
2955.59	35.5
2956.44	35.5
2957.28	32
2958.12	37
2958.97	38
2959.81	36
2960.65	40
2961.5	41.5
2962.34	38
2963.18	44.5
2964.02	44
2964.86	42.5
2965.71	41.5
2966.55	42.5
2967.39	45
2968.23	38
2969.07	44
2969.91	44
2970.75	42
2971.6	34.0024
2972.44	38.9813
2973.28	36.9134
2974.12	33.2467
2974.96	33.0538
2975.8	35.3214
2976.64	35.7757
2977.48	30.9802
2978.32	30.8497
2979.16	34.0331
2980	31.163
2980.84	27.3533
2981.68	30.4698
2982.52	28.8306
2983.36	24.8021
2984.2	25.7524
2985.04	31.3599
2985.88	24.9858
2986.71	28.0972
2987.55	24.3047
2988.39	26.2467
2989.23	25.4152
2990.07	26.4254
2990.91	27.5453
2991.75	26.1514
2992.58	26.8379
2993.42	25.3528
2994.26	27.7985
2995.1	26.4953
2995.93	26.6383
2996.77	22.9056
2997.61	24.9569
2998.45	23.1335
2999.28	25.9841
3000.12	22.4207
3000.96	22.6473
3001.79	25.4719
3002.63	22.8872
3003.47	23.5964
3004.3	24.5912
3005.14	23.4024
3005.98	25.7434
3006.81	23.1532
3007.65	23.6737
3008.48	24.1359
3009.32	24.0121
3010.15	25.3551
3010.99	22.8987
3011.82	22.5907
3012.66	25.074
3013.5	24.4873
3014.33	22.1944
3015.17	21.9088
3016	24.4803
3016.83	24.9166
3017.67	22.0565
3018.5	23.1013
3019.34	23.048
3020.17	23.5385
3021.01	23.2798
3021.84	22.3627
3022.67	23.4001
3023.51	23.4599
3024.34	23.416
3025.17	24.4954
3026.01	24.9987
3026.84	23.4369
3027.67	23.3479
3028.51	23.6483
3029.34	22.5642
3030.17	20.5619
3031	22.9503
3031.84	23.5014
3032.67	23.2393
3033.5	23.106
3034.33	24.034
3035.17	22.1804
3036	23.498
3036.83	22.6376
3037.66	20.8073
3038.49	20.7222
3039.32	22.0128
3040.15	21.7195
3040.99	21.568
3041.82	21.3592
3042.65	22.178
3043.48	22.0653
3044.31	23.794
3045.14	25.7308
3045.97	24.5492
3046.8	23.8034
3047.63	24.4156
3048.46	24.4096
3049.29	24.0379
3050.12	22.3466
3050.95	21.8694
3051.78	23.2141
3052.61	22.5956
3053.44	23.156
3054.27	22.9003
3055.1	22.3536
3055.92	23.4971
3056.75	22.9378
3057.27	24.5
3058.11	27
3058.94	26
3059.77	24.5
3060.61	22.5
3061.44	23
3062.27	23
3063.11	23.5
3063.94	26.5
3064.77	23
3065.6	22
3066.43	22.5
3067.27	26
3068.1	19.5
3068.93	26.5
3069.76	23
3070.59	23
3071.42	25.5
3072.26	27
3073.09	23.5
3073.92	23
3074.75	20
3075.58	24
3076.41	24
3077.24	26.5
3078.07	22
3078.9	23
3079.73	22
3080.56	27
3081.39	26
3082.22	26.5
3083.05	25.5
3083.88	26.5
3084.71	26.5
3085.54	24.5
3086.37	24
3087.2	24
3088.03	27.5
3088.86	22
3089.69	23
3090.51	26.5
3091.34	26.5
3092.17	27
3093	27
3093.83	21.5
3094.66	26
3095.48	21
3096.31	23
3097.14	21.5
3097.97	24.5
3098.79	18.5
3099.62	23.5
3100.45	21
3101.28	26.5
3102.1	23
3102.93	19
3103.76	22
3104.58	19
3105.41	22.5
3106.24	22
3107.06	23.5
3107.89	24.5
3108.72	27.5
3109.54	19
3110.37	23.5
3111.19	22
3112.02	27.5
3112.84	28
3113.67	24
3114.49	25
3115.32	25
3116.15	27.5
3116.97	27.5
3117.8	24
3118.62	26
3119.44	21
3120.27	24.5
3121.09	26
3121.92	24.5
3122.74	23
3123.57	26.5
3124.39	26
3125.21	24
3126.04	26
3126.86	25.5
3127.68	24
3128.51	24
3129.33	24
3130.15	24
3130.98	27.5
3131.8	26.5
3132.62	25
3133.44	21
3134.27	21.5
3135.09	22
3135.91	26
3136.73	25.5
3137.56	20
3138.38	20.5
3139.2	22
3140.02	23
3140.84	23.5
3141.67	25.5
3142.49	29
3143.31	24
3144.13	25.5
3144.95	25.5
3145.77	25
3146.59	22
3147.41	24.5
3148.23	26
3149.05	23.5
3149.87	21
3150.69	26.5
3151.51	24
3152.33	26.5
3153.15	23.5
3153.97	23.5
3154.79	24.5
3155.61	22.5
3156.43	24
3157.25	25
3158.07	22
3158.89	24.5
3159.71	24
3160.53	22
3161.35	22.5
3162.17	24.5
3162.98	23.5
3163.8	24
3164.62	23
3165.44	25
3166.26	23.5
3167.07	21.5
3167.89	25.5
3168.71	26.5
3169.53	24.5
3170.35	23
3171.16	24
3171.98	23.5
3172.8	22
3173.61	21
3174.43	27
3175.25	21
3176.06	23
3176.88	21
3177.7	24.5
3178.51	25.5
3179.33	21
3180.15	22.5
3180.96	27
3181.78	22.5
3182.59	23
3183.41	23.5
3184.22	24.5
3185.04	25.5
3185.85	21.5
3186.67	20.5
3187.49	27.5
3188.3	23
3189.12	22
3189.93	24
3190.74	23
3191.56	27
3192.37	19.5
3193.19	23.5
3194	22.5
3194.82	25
3195.63	20
3196.44	24
3197.26	22
3198.07	25
3198.88	23.5
3199.7	25
3200.51	21
3201.32	26
3202.14	23
3202.95	25
3203.76	20
3204.58	24
3205.39	25
3206.2	25
3207.01	25
3207.83	23.5
3208.64	25.5
3209.45	25
3210.26	21.5
3211.07	24.5
3211.88	26
3212.7	27.5
3213.51	26
3214.32	27
3215.13	21
3215.94	20
3216.75	24.5
3217.56	21
3218.37	23
3219.18	19
3220	24.5
3220.8	24.5
3221.62	21.5
3222.43	20
3223.24	25.5
3224.05	22.5
3224.86	23
3225.67	21.5
3226.47	23
3227.28	20
3228.09	26
3228.9	22
3229.71	25
3230.52	24.5
3231.33	22
3232.14	23
3232.95	27.5
3233.76	23.5
3234.56	22
3235.37	21.5
3236.18	23
3236.99	26.5
3237.8	24.5
3238.61	25
3239.41	21
3240.22	19
3241.03	24.5
3241.84	23
3242.64	25.5
3243.45	22
3244.26	24
3245.07	25
3245.87	23.5
3246.68	25.5
3247.49	22
3248.29	23
3249.1	24.5
3249.9	25.5
3250.71	24
3251.52	20
3252.32	22
3253.13	26
3253.93	25
3254.74	23
3255.55	19.5
3256.35	23.5
3257.16	22
3257.96	24.5
3258.77	25.5
3259.57	23
3260.38	27
3261.18	22
3261.99	21
3262.79	20
3263.6	22
3264.4	23.5
3265.2	21
3266.01	20.5
3266.81	21.5
3267.62	26.5
3268.42	24
3269.22	21
3270.03	22.5
3270.83	23
3271.63	27.5
3272.44	26.5
3273.24	24
3274.04	23
3274.85	26.5
3275.65	26.5
3276.45	23.5
3277.25	23
3278.06	23
3278.86	25.5
3279.66	26
3280.46	23
3281.26	25
3282.07	21.5
3282.87	26
3283.67	19
3284.47	27.5
3285.27	23.5
3286.07	23.5
3286.87	26
3287.68	24.5
3288.48	24
3289.28	23
3290.08	24
3290.88	24
3291.68	20
3292.48	25
3293.28	21.5
3294.08	26.5
3294.88	27
3295.68	23
3296.48	25.5
3297.28	18
3298.08	22
3298.88	21
3299.68	21
3300.48	24.5
3301.28	24
3302.08	27
3302.88	24
3303.67	19
3304.47	25.5
3305.27	20
3306.07	26
3306.87	24
3307.67	22
3308.46	21
3309.26	22
3310.06	23.5
3310.86	26
3311.66	23.5
3312.45	24.5
3313.25	21.5
3314.05	22
3314.85	21
3315.64	23
3316.44	26
3317.24	24.5
3318.03	23.5
3318.83	26
3319.63	25.5
3320.42	22
3321.22	24
3322.02	24
3322.81	24.5
3323.61	24.5
3324.4	27
3325.2	24.5
3326	22.5
3326.79	25.5
3327.59	22.5
3328.38	21
3329.18	24
3329.97	24
3330.77	25
3331.56	24.5
3332.36	25.5
3333.15	24.5
3333.95	25
3334.74	23.5
3335.54	24
3336.33	29
3337.13	21.5
3337.92	23
3338.71	21
3339.51	22
3340.3	19.5
3341.1	25
3341.89	24
3342.68	24
3343.48	24
3344.27	25.5
3345.06	23.5
3345.85	25.5
3346.65	26
3347.44	26
3348.23	24.5
3349.03	24
3349.82	24.5
3350.61	26.5
3351.4	21.5
3352.19	23.5
3352.99	23
3353.78	22.5
3354.57	26
3355.36	15
3356.15	25
3356.94	26
3357.74	25.5
3358.53	23
3359.32	27.5
3360.11	20
3360.9	23
3361.69	24.5
3362.48	21
3363.27	24
3364.06	22
3364.85	24.5
3365.64	24.5
3366.43	24.5
3367.22	24.5
3368.01	25.5
3368.8	26.5
3369.59	23.5
3370.38	25.5
3371.17	22.5
3371.96	23
3372.75	23.5
3373.54	24.5
3374.33	25
3375.12	23
3375.91	24
3376.69	22.5
3377.48	26.5
3378.27	24
3379.06	24
3379.85	25
3380.64	25
3381.42	25
3382.21	24.5
3383	23
3383.79	19
3384.58	25
3385.36	22
3386.15	28
3386.94	22
3387.73	21.5
3388.51	22
3389.3	25.5
3390.09	25.5
3390.87	22
3391.66	22
3392.45	23.5
3393.23	23.5
3394.02	27.5
3394.81	23.5
3395.59	24
3396.38	24.5
3397.16	24
3397.95	24.5
3398.74	20
3399.52	26.5
3400.31	27.5
3401.09	21.5
3401.88	25.5
3402.66	22.5
3403.45	28.5
3404.23	21.5
3405.02	25
3405.8	22
3406.59	24.5
3407.37	25.5
3408.15	25.5
3408.94	27
3409.72	25
3410.51	27
3411.29	26
3412.07	22
3412.86	26
3413.64	25
3414.42	21.5
3415.21	24
3415.99	28.5
3416.78	21.5
3417.56	24
3418.34	24
3419.12	23
3419.91	25
3420.69	24
3421.47	23
3422.25	25.5
3423.04	22
3423.82	25
3424.6	24
3425.38	22
3426.16	21.5
3426.95	26
3427.73	28.5
3428.51	25
3429.29	23.5
3430.07	20.5
3430.85	26.5
3431.63	28
3432.42	20.5
3433.2	20.5
3433.98	22
3434.76	23.5
3435.54	24.5
3436.32	25
3437.1	24.5
3437.88	26.5
3438.66	21.5
3439.44	22.5
3440.22	24
3441	25
3441.78	24
3442.56	22.5
3443.34	25
3444.12	22
3444.9	26
3445.68	25
3446.45	24.5
3447.23	25
3448.01	22
3448.79	21.5
3449.57	21.5
3450.35	19
3451.13	24
3451.91	20.5
3452.68	26.5
3453.46	23
3454.24	23.5
3455.02	22.5
3455.79	21
3456.57	23
3457.35	19.5
3458.13	22.5
3458.91	21
3459.68	24
3460.46	26
3461.24	20
3462.01	26.5
3462.79	23.5
3463.57	23.5
3464.34	27.5
3465.12	28
3465.9	23
3466.67	24
3467.45	21
3468.22	24
3469	19.5
3469.78	24.5
3470.55	24
3471.33	28.5
3472.1	25
3472.88	23.5
3473.65	27.5
3474.43	21.5
3475.2	23
3475.98	25.5
3476.75	24
3477.53	26.5
3478.3	27
3479.08	26
3479.85	26
3480.63	22.5
3481.4	22
3482.18	22
3482.95	24.5
3483.72	25
3484.5	25
3485.27	23.5
3486.04	22.5
3486.82	22
3487.59	25.5
3488.36	27.5
3489.14	22
3489.91	20.5
3490.68	23
3491.46	26
3492.23	20.5
3493	20
3493.77	26
3494.55	25.5
3495.32	21
3496.09	21.5
3496.86	23
3497.64	26
3498.41	24.5
3499.18	23
3499.95	25.5
