#Acq. time (s)=	5
#Accumulations=	5
#Range (cm-¹)=	100...3500
#Windows=	4
#Autofocus=	Off
#AutoExposure=	Off
#Spike filter=	Multiple accum.
#Delay time (s)=	0
#Binning=	1
#Readout mode=	Signal
#DeNoise=	Off
#ICS correction=	Off
#Dark correction=	Off
#Inst. Process=	Off
#Instrument=	LabRAM HR Evol
#Detector=	Syncerity OE
#Objective=	x100_VIS
#Grating=	600 (500nm)
#ND Filter=	25%
#Laser=	633nm_Edge
#Hole=	100.021
#Range=	Visible
#Project=	verificaciones
#Sample=	a2
#Site=	lined
#Title=	bolusa2lined
#Remark=	
#Date=	12.01.2026 14:59
#Acquired=	12.01.2026 14:59:16
100.666	23
101.95	30
103.233	31
104.516	28.5
105.799	24
107.083	27.5
108.365	24.5
109.648	23
110.93	27.5
112.212	27.5
113.493	24
114.775	28
116.056	28.5
117.337	24.5
118.618	27.5
119.898	26.5
121.178	23.5
122.459	29.5
123.739	30
125.018	26.5
126.298	28.5
127.577	28
128.856	29
130.135	28.5
131.414	27.5
132.692	28
133.971	25.5
135.249	27
136.525	27.5
137.803	28.5
139.08	27
140.357	26
141.634	29
142.911	30
144.188	30.5
145.464	28.5
146.74	30
148.015	29
149.291	33
150.566	25
151.842	30
153.117	29.5
154.392	27.5
155.665	30.5
156.939	29
158.214	28
159.488	28.5
160.76	30.5
162.034	31
163.307	31.5
164.581	30.5
165.854	32.5
167.125	28
168.398	26
169.67	28
170.941	28.5
172.213	27
173.485	31.5
174.756	28.5
176.026	29
177.298	32
178.569	32
179.838	30.5
181.109	24.5
182.379	31.5
183.648	29
184.918	29
186.187	27
187.455	30
188.725	33
189.992	31
191.261	28.5
192.53	27.5
193.797	29
195.065	30
196.332	29.5
197.6	30.5
198.866	29
200.134	29.5
201.401	27.5
202.667	28
203.933	31.5
205.199	31
206.465	27
207.73	24
208.996	26.5
210.26	27.5
211.526	31
212.79	30
214.055	29.5
215.319	32.5
216.582	28
217.847	27
219.11	27
220.374	34
221.636	27
222.9	30
224.162	27
225.424	30
226.687	27
227.949	26.5
229.212	27
230.473	32
231.734	27.5
232.996	31.5
234.256	28
235.517	32
236.778	23.5
238.038	22.5
239.298	24.5
240.559	31
241.818	26
243.077	28.5
244.337	28.5
245.596	24.5
246.854	27
248.113	24
249.372	25
250.63	23
251.887	27
253.145	28
254.404	29
255.661	25
256.917	27.5
258.174	25.5
259.432	21
260.688	26.5
261.944	26
263.2	25.5
264.456	26
265.711	24.5
266.968	29
268.223	26.5
269.477	29
270.732	30.5
271.986	31.5
273.24	22
274.494	27
275.748	25.5
277.003	26
278.257	28
279.51	25.5
280.763	27.5
282.015	29
283.268	24
284.52	28.5
285.773	25
287.024	29
288.276	25
289.528	26.5
290.779	28.5
292.03	26.5
293.281	26
294.532	29
295.782	25
297.033	28
298.283	22.5
299.533	26
300.783	29.5
302.032	26
303.281	25.5
304.531	27.5
305.78	23.5
307.028	24.5
308.275	25.5
309.524	26
310.772	27
312.02	27.5
313.267	29
314.515	22.5
315.762	31
317.009	28.5
318.255	27
319.501	29
320.748	24
321.994	29.5
323.24	28.5
324.486	20.5
325.731	25.5
326.976	24.5
328.221	26
329.466	31.5
330.71	31
331.955	22
333.199	29.5
334.443	26
335.686	28
336.93	26
338.174	30
339.417	26
340.659	32.5
341.902	24
343.145	25.5
344.386	24.5
345.629	24
346.871	30
348.112	21
349.354	23
350.595	24
351.836	26
353.077	26
354.318	30
355.557	27.5
356.798	28
358.037	26.5
359.277	30
360.518	23.5
361.756	27.5
362.996	25
364.234	25.5
365.473	28
366.711	26.5
367.95	27
369.187	31.5
370.426	29.5
371.662	30
372.901	23
374.137	25
375.375	26.5
376.611	27
377.848	23.5
379.084	28
380.321	25
381.556	27
382.793	22
384.027	24
385.264	25.5
386.498	31
387.732	27
388.968	28
390.202	29.5
391.437	23.5
392.671	29
393.904	27.5
395.138	28
396.371	25
397.604	28.5
398.838	29
400.07	28
401.302	26
402.536	28
403.768	26
404.999	28
406.232	22.5
407.463	24
408.694	29.5
409.925	29
411.157	27.5
412.387	27
413.617	30
414.847	29.5
416.078	27.5
417.308	32
418.537	26.5
419.767	27.5
420.997	31
422.226	25.5
423.454	28
424.683	31
425.911	27.5
427.139	31.5
428.368	29.5
429.596	27
430.823	27.5
432.05	30
433.277	27
434.504	28.5
435.731	26.5
436.957	29
438.185	28
439.411	27
440.637	29
441.862	30.5
443.088	28
444.313	27
445.538	24.5
446.763	26.5
447.988	30.5
449.212	25.5
450.436	30
451.661	25.5
452.884	26.5
454.108	25
455.332	28
456.555	28.5
457.778	29
459.001	24.5
460.224	23
461.446	25
462.668	25
463.891	29.5
465.111	25.5
466.333	31.5
467.554	28.5
468.776	29.5
469.997	27
471.218	30
472.439	31
473.659	28
474.878	30.5
476.098	28.5
477.318	29
478.538	28.5
479.758	28.5
480.977	33.5
482.195	33.5
483.414	34.5
484.633	34
485.851	33.5
487.07	38
488.287	36.5
489.505	35
490.723	34.5
491.94	31
493.156	33.5
494.374	33
495.591	38
496.806	31.5
498.023	33.5
499.239	33
500.456	35.5
501.67	30
502.886	32.5
504.102	27.5
505.316	29
506.531	32
507.745	33
508.96	28
510.175	30.5
511.388	26
512.602	30.5
513.815	29
515.029	31
516.243	26.5
517.455	26
518.669	31.5
519.88	24
521.093	27
522.305	28
523.518	28
524.729	27.5
525.941	29
527.151	31
528.363	27.5
529.574	29
530.785	29.5
531.995	30.5
533.206	30
534.416	24.5
535.626	28.5
536.835	27
538.046	28.5
539.254	27
540.463	28
541.673	28
542.881	30
544.09	25
545.298	27.5
546.506	29
547.714	27.5
548.922	28
550.13	29
551.337	27
552.544	22.5
553.751	30.5
554.958	29
556.164	26.5
557.37	26
558.577	26
559.782	22.5
560.987	29.5
562.194	28
563.399	28
564.604	27.5
565.808	24.5
567.014	25.5
568.218	27
569.422	25.5
570.626	28
571.829	28
573.034	30
574.237	28
575.44	32
576.643	26
577.846	23.5
579.048	26.5
580.252	26.5
581.454	27.5
582.656	25.5
583.857	26
585.059	29.5
586.26	26.5
587.461	27.5
588.662	27.5
589.863	28.5
591.065	23.5
592.265	28
593.465	29
594.665	28
595.865	28.5
597.065	28.5
598.264	25
599.463	28.5
600.662	24
601.861	29.5
603.06	27
604.258	29
605.457	31
606.655	30
607.853	29.5
609.05	27.5
610.248	26
611.444	26.5
612.641	26.5
613.838	28.5
615.034	31
616.231	26
617.427	30.5
618.624	25
619.82	28.5
621.015	28
622.21	25.5
623.405	27
624.6	27.5
625.795	27
626.99	29.5
628.185	25
629.378	26.5
630.572	32
631.766	24
632.96	26
634.154	27.5
635.346	18
636.54	25.5
637.733	30
638.926	28
640.117	25
641.31	27
642.502	30
643.693	25.5
644.885	28.5
646.077	28.5
647.267	27
648.459	21.5
649.65	26
650.84	28
652.031	32
653.222	27
654.411	29
655.601	27.5
656.791	29.5
657.98	25.5
659.17	33
660.358	28.5
661.547	32
662.737	28.5
663.924	28.5
665.113	27
666.3	28
667.489	26.5
668.676	31
669.864	27
671.05	26.5
672.238	28.5
673.424	26.5
674.612	28
675.798	30
676.985	29.5
678.17	32
679.357	30
680.542	31
681.728	29
682.913	29
684.097	27
685.283	27.5
686.467	26
687.652	31.5
688.836	29.5
690.02	27.5
691.205	33
692.388	29.5
693.571	30
694.755	26.5
695.938	29
697.12	32.5
698.304	25
699.486	27.5
700.668	31
701.851	32.5
703.032	32.5
704.214	32.5
705.395	29.5
706.577	31.5
707.758	33.5
708.939	30
710.119	37
711.301	32
712.481	29.5
713.661	31.5
714.84	27.5
716.02	32.5
717.201	34.5
718.38	28.5
719.559	29
720.737	30
721.916	29
723.094	27
724.274	31.5
725.452	26.5
726.63	28
727.808	29
728.985	29.5
730.162	27
731.339	28
732.516	24.5
733.693	24.5
734.87	29.5
736.046	25.5
737.222	29
738.398	18
739.574	30.5
740.75	28
741.925	26
743.1	25
744.276	29
745.45	29.5
746.625	29
747.8	27.5
748.974	31.5
750.148	27
751.322	23.5
752.496	26
753.67	25.5
754.843	26
756.016	29.5
757.189	24
758.362	28.5
759.534	25.5
760.706	26
761.878	25.5
763.051	28
764.223	24
765.394	27.5
766.565	24
767.736	27.5
768.907	24
770.078	26
771.249	28
772.419	30
773.589	28.5
774.759	27.5
775.93	30.5
777.098	27
778.268	30
779.438	27
780.607	29
781.775	27.5
782.944	28
784.113	27.5
785.28	30
786.449	25.5
787.617	28
788.784	29
789.952	29.5
791.12	27
792.286	34.5
793.453	22.5
794.62	30
795.786	25.5
796.953	28
798.118	27
799.285	25.5
800.45	28
801.616	30.5
802.782	25
803.946	26
805.112	27
806.276	27.5
807.441	28
808.605	31.5
809.77	27
810.933	31
812.098	30.5
813.261	26
814.425	28.5
815.588	26.5
816.75	29.5
817.914	29.5
819.076	27
820.239	26
821.401	26.5
822.564	28
823.725	23.5
824.886	24
826.048	25
827.209	25.5
828.37	28
829.532	27
830.692	27.5
831.852	23.5
833.013	23.5
834.173	26
835.333	30
836.493	25
837.653	30
838.812	27
839.972	24.5
841.13	23
842.289	24.5
843.447	22.5
844.607	30
845.765	28.5
846.922	23.5
848.08	23
849.237	25
850.396	31.5
851.553	29.5
852.71	27
853.867	27
855.023	28
856.179	22
857.337	24
858.493	30
859.649	24
860.804	25
861.96	25
863.115	29.5
864.27	31
865.425	29
866.58	25
867.734	24.5
868.888	26
870.043	23
871.197	25.5
872.35	25.5
873.504	29.5
874.658	28.5
875.811	26.5
876.964	23.5
878.117	31
879.27	27
880.422	28
881.575	29.5
882.727	29
883.879	29.5
885.031	24.5
886.182	28.5
887.334	29
888.485	26
889.636	25
890.787	24
891.937	27.5
893.088	29
894.238	26
895.388	27
896.538	27.5
897.688	26
898.837	22
899.986	27.5
901.136	23.5
902.285	26
903.434	29.5
904.581	28
905.73	24.5
906.878	23
908.027	28.5
909.174	27
910.321	28
911.469	30.5
912.617	26
913.763	23.5
914.91	25
916.057	26
917.203	26.5
918.35	27.5
919.496	28.5
920.641	26
921.787	26
922.933	29
924.078	29
925.224	29.5
926.368	23
927.513	27
928.658	26
929.802	32.5
930.946	26.5
932.09	26.5
933.234	24
934.377	29.5
935.521	23.5
936.664	28
937.807	27.5
938.95	23
940.093	26
941.235	23
942.378	27
943.519	22.5
944.662	26
945.803	27
946.946	24
948.086	28
949.227	25.5
950.369	28
951.509	27
952.651	24
953.79	26
954.93	25.5
956.071	28
957.211	27
958.35	25
959.49	25
960.629	27.5
961.768	25
962.908	28.5
964.046	28.5
965.184	27.5
966.323	25.5
967.461	26.5
968.599	24
969.736	21
970.875	24.5
972.012	27
973.149	31
974.286	26
975.424	25.5
976.56	22
977.697	31
978.833	24.5
979.969	27.5
981.104	26
982.241	32.5
983.377	26.5
984.512	24
985.647	23.5
986.782	24
987.916	23.5
989.051	26.5
990.185	26
991.321	24
992.455	25
993.589	24
994.722	33
995.856	26
996.989	24
998.122	25.5
999.255	31
1000.39	22.5
1001.52	26.5
1002.65	24
1003.79	29.5
1004.92	25.5
1006.05	27.5
1007.18	22
1008.31	28
1009.44	24.5
1010.57	28
1011.7	23
1012.84	23.5
1013.97	23
1015.1	24
1016.23	29
1017.36	25
1018.49	29
1019.62	26.5
1020.75	24.5
1021.88	25.5
1023	26.5
1024.13	27.5
1025.26	23.5
1026.39	27
1027.52	29
1028.65	22
1029.78	28.5
1030.9	24
1032.03	25.5
1033.16	27.5
1034.29	25.5
1035.41	24
1036.54	25.5
1037.67	26
1038.79	27.5
1039.92	25
1041.04	24
1042.17	21.5
1043.3	26
1044.42	26.5
1045.55	28.5
1046.67	24.5
1047.8	28
1048.92	29
1050.05	27.5
1051.17	24
1052.3	26
1053.42	24
1054.54	25.5
1055.67	24.5
1056.79	27.5
1057.91	27.5
1059.04	25
1060.16	26
1061.28	24.5
1062.41	26
1063.53	28
1064.65	26
1065.77	24.5
1066.9	26
1068.02	24
1069.14	22.5
1070.26	24.5
1071.38	25
1072.5	27
1073.62	23.5
1074.74	26.5
1075.86	23
1076.98	26.5
1078.1	24.5
1079.22	26
1080.34	24
1081.46	25
1082.58	24.5
1083.7	22.5
1084.82	26
1085.94	24
1087.06	26.5
1088.18	25
1089.29	27
1090.41	23
1091.53	28.5
1092.65	24
1093.77	27
1094.88	24
1096	25.5
1097.12	22.5
1098.23	27.5
1099.35	25
1100.47	23.5
1101.58	25.5
1102.7	30.5
1103.82	24.5
1104.93	25.5
1106.05	26
1107.16	24.5
1108.28	23
1109.39	27
1110.51	22.5
1111.62	21
1112.74	24
1113.85	23
1114.96	27
1116.08	26.5
1117.19	23
1118.31	23.5
1119.42	22
1120.53	25
1121.65	25
1122.76	27
1123.87	26
1124.98	23
1126.1	27
1127.21	27
1128.32	24
1129.43	23.5
1130.54	25.5
1131.65	23.5
1132.76	26.5
1133.88	23
1134.99	25.5
1136.1	23.5
1137.21	22.5
1138.32	23
1139.43	22.5
1140.54	23.5
1141.65	25
1142.76	22
1143.87	25
1144.98	25
1146.08	25.5
1147.19	25.5
1148.3	26.5
1149.41	27.5
1150.52	27
1151.63	24
1152.73	28
1153.84	20
1154.95	27.5
1156.06	24.5
1157.17	20.5
1158.27	25
1159.38	23
1160.49	25
1161.59	24.5
1162.7	24.5
1163.8	28
1164.91	27
1166.02	28.5
1167.12	29.5
1168.23	26.5
1169.33	26
1170.44	26
1171.54	27
1172.65	23
1173.75	26.5
1174.86	24.5
1175.96	25.5
1177.06	26.5
1178.17	27
1179.27	24
1180.37	22
1181.48	23
1182.58	26.5
1183.68	21
1184.79	27
1185.89	25.5
1186.99	23
1188.09	24.5
1189.2	23.5
1190.3	21.5
1191.4	21.5
1192.5	26
1193.6	27
1194.7	25.9743
1195.8	27.4259
1196.9	24.0438
1198.01	26.9091
1199.11	22.9756
1200.21	23.1382
1201.31	21.5395
1202.41	25.4129
1203.5	24.239
1204.6	25.2543
1205.7	22.5061
1206.8	21.8949
1207.9	23.4059
1209	21.8751
1210.1	27.7395
1211.2	23.0486
1212.3	24.5949
1213.39	27.9368
1214.49	25.4612
1215.59	22.8455
1216.69	26.8911
1217.78	25.0612
1218.88	24.9103
1219.98	24.2761
1221.08	26.7573
1222.17	25.8215
1223.27	23.7427
1224.37	22.2249
1225.46	23.5922
1226.56	25.4663
1227.65	25.5256
1228.75	19.9101
1229.84	25.0449
1230.94	20.8453
1232.03	23.5024
1233.13	24.1656
1234.22	24.2986
1235.32	22.6252
1236.41	23.8365
1237.51	25.1501
1238.6	23.8083
1239.69	22.6976
1240.79	24.8592
1241.88	27.3655
1242.97	25.355
1244.07	25.0194
1245.16	23.614
1246.25	23.0592
1247.35	22.6032
1248.44	22.6883
1249.53	23.1148
1250.62	23.7217
1251.71	25.6554
1252.81	23.5641
1253.9	23.5205
1254.99	23.7915
1256.08	24.0467
1257.17	23.3353
1258.26	24.3858
1259.35	26.3223
1260.44	26.9842
1261.53	22.8833
1262.62	24.966
1263.71	21.7993
1264.8	24.4332
1265.89	23.5229
1266.98	26.2099
1268.07	25.0756
1269.16	24.9597
1270.25	22.2294
1271.34	25.2041
1272.43	26.4354
1273.52	24.4573
1274.6	23.6551
1275.69	22.854
1276.78	21.9575
1277.87	23.5739
1278.95	24.3326
1280.04	24.6396
1281.13	24.5236
1282.22	25.0703
1283.3	26.0406
1284.39	22.3081
1285.48	23.9124
1286.56	25.0275
1287.65	25.9056
1288.73	23.3366
1289.82	24.5361
1290.91	24.4167
1291.99	26.3841
1293.08	23.8031
1294.16	22.9391
1295.24	21.6283
1296.33	20.4058
1297.41	26.0022
1298.5	25.5412
1299.58	27.308
1300.67	24.0519
1301.75	21.0798
1302.83	22.4052
1303.92	22.3201
1305	25.8523
1306.08	25.0172
1306.4	24
1307.49	21
1308.58	21
1309.66	24.5
1310.75	26.5
1311.84	23
1312.93	23.5
1314.01	26.5
1315.1	22
1316.19	23
1317.27	24.5
1318.36	24
1319.45	20
1320.53	21
1321.62	26
1322.71	20
1323.79	24.5
1324.88	24.5
1325.96	23.5
1327.05	21.5
1328.13	24
1329.22	24
1330.3	22.5
1331.39	23
1332.47	29
1333.55	23
1334.64	27.5
1335.72	24
1336.81	26.5
1337.89	22
1338.97	27.5
1340.06	26.5
1341.14	24
1342.22	26
1343.3	27
1344.39	27
1345.47	24.5
1346.55	19
1347.63	21
1348.71	21.5
1349.8	24
1350.88	21.5
1351.96	21
1353.04	21.5
1354.12	28
1355.2	22.5
1356.28	23
1357.36	26
1358.44	24.5
1359.52	18
1360.6	27
1361.68	25
1362.76	22.5
1363.84	26
1364.92	24.5
1366	24
1367.08	26
1368.16	24.5
1369.23	26
1370.31	24.5
1371.39	24.5
1372.47	21.5
1373.55	24
1374.62	22.5
1375.7	23
1376.78	21
1377.86	25
1378.93	21.5
1380.01	27
1381.09	25
1382.16	27
1383.24	26
1384.32	16
1385.39	29
1386.47	22.5
1387.54	24.5
1388.62	25
1389.69	23.5
1390.77	26
1391.84	23.5
1392.92	22
1393.99	22.5
1395.07	25
1396.14	27.5
1397.21	23.5
1398.29	23.5
1399.36	32.5
1400.44	25
1401.51	28
1402.58	27
1403.66	26
1404.73	26
1405.8	21.5
1406.87	24
1407.95	27
1409.02	24.5
1410.09	27
1411.16	21.5
1412.23	26.5
1413.3	24.5
1414.38	30
1415.45	28.5
1416.52	27.5
1417.59	26.5
1418.66	27
1419.73	22
1420.8	26
1421.87	28.5
1422.94	27
1424.01	22
1425.08	26.5
1426.15	22.5
1427.22	25
1428.29	22
1429.36	25.5
1430.43	24.5
1431.49	26
1432.56	24
1433.63	23.5
1434.7	25.5
1435.77	27
1436.83	23
1437.9	26
1438.97	25
1440.04	27
1441.1	23
1442.17	28
1443.24	21.5
1444.3	24.5
1445.37	21.5
1446.44	22
1447.5	26.5
1448.57	28.5
1449.63	29
1450.7	24.5
1451.77	27.5
1452.83	25.5
1453.9	22
1454.96	25.5
1456.03	26
1457.09	26
1458.15	24
1459.22	24
1460.28	27
1461.35	23
1462.41	27
1463.47	27.5
1464.54	23
1465.6	22.5
1466.66	27.5
1467.73	27
1468.79	22
1469.85	25
1470.91	24
1471.98	26
1473.04	25
1474.1	26.5
1475.16	24
1476.22	23.5
1477.28	24
1478.35	22.5
1479.41	23
1480.47	26
1481.53	24
1482.59	26
1483.65	23
1484.71	22
1485.77	27
1486.83	26.5
1487.89	25
1488.95	26.5
1490.01	27
1491.07	21
1492.13	24.5
1493.18	25
1494.24	25.5
1495.3	27
1496.36	29.5
1497.42	26.5
1498.48	24
1499.53	24
1500.59	23
1501.65	21
1502.71	24.5
1503.76	26.5
1504.82	25
1505.88	25.5
1506.93	21.5
1507.99	23.5
1509.05	30
1510.1	24
1511.16	26
1512.21	25
1513.27	25.5
1514.33	21.5
1515.38	29.5
1516.44	26
1517.49	27
1518.55	24
1519.6	24
1520.66	22.5
1521.71	25.5
1522.76	24
1523.82	24.5
1524.87	21.5
1525.93	24.5
1526.98	23.5
1528.03	25.5
1529.08	27.5
1530.14	27.5
1531.19	27
1532.24	28
1533.3	26.5
1534.35	26.5
1535.4	25
1536.45	26.5
1537.5	23
1538.56	25.5
1539.61	27
1540.66	26.5
1541.71	24
1542.76	20
1543.81	25
1544.86	23
1545.91	23
1546.96	23
1548.01	27
1549.06	24
1550.11	24
1551.16	27
1552.21	28
1553.26	21.5
1554.31	25.5
1555.36	22.5
1556.41	25
1557.46	26.5
1558.51	31
1559.56	25
1560.6	25
1561.65	26
1562.7	24
1563.75	22
1564.79	22
1565.84	23
1566.89	26
1567.94	28
1568.98	24.5
1570.03	26.5
1571.08	28.5
1572.12	27.5
1573.17	25
1574.22	27
1575.26	23
1576.31	26.5
1577.35	23
1578.4	21.5
1579.44	28.5
1580.49	28.5
1581.53	22.5
1582.58	25
1583.62	28.5
1584.67	24.5
1585.71	25
1586.76	23
1587.8	27
1588.84	26
1589.89	24.5
1590.93	26
1591.97	26.5
1593.02	24.5
1594.06	23.5
1595.1	25.5
1596.14	25.5
1597.19	28
1598.23	25.5
1599.27	24.5
1600.31	23.5
1601.36	21.5
1602.4	23.5
1603.44	27
1604.48	24.5
1605.52	24
1606.56	22
1607.6	27.5
1608.64	27
1609.68	33
1610.72	24.5
1611.76	27
1612.81	24.5
1613.84	23.5
1614.88	28
1615.92	24.5
1616.96	23
1618	24.5
1619.04	25.5
1620.08	22.5
1621.12	22
1622.16	29
1623.2	24.5
1624.23	22.5
1625.27	24
1626.31	24
1627.35	24.5
1628.39	25
1629.42	24.5
1630.46	23.5
1631.5	26
1632.53	25
1633.57	27
1634.61	26
1635.64	25.5
1636.68	23.5
1637.72	27.5
1638.75	20
1639.79	26
1640.82	23.5
1641.86	23
1642.89	25.5
1643.93	23.5
1644.96	22.5
1646	25
1647.03	25.5
1648.07	23
1649.1	25
1650.14	20.5
1651.17	28
1652.21	30.5
1653.24	24.5
1654.27	24.5
1655.31	22.5
1656.34	19
1657.37	27
1658.41	22
1659.44	24.5
1660.47	23
1661.5	25
1662.53	27
1663.57	28
1664.6	26.5
1665.63	27
1666.66	22.5
1667.69	25
1668.72	25.5
1669.76	23.5
1670.79	27
1671.82	26
1672.85	24
1673.88	26
1674.91	25
1675.94	27
1676.97	24.5
1678	26
1679.03	23
1680.06	26
1681.09	28
1682.12	27
1683.15	27.5
1684.17	24
1685.2	22
1686.23	26.5
1687.26	24
1688.29	23.5
1689.32	25.5
1690.34	25
1691.37	28
1692.4	24
1693.43	27
1694.45	25
1695.48	27
1696.51	25
1697.54	25
1698.56	25.5
1699.59	28
1700.61	24.5
1701.64	28.5
1702.67	25.5
1703.69	27
1704.72	24.5
1705.74	24
1706.77	23.5
1707.79	29
1708.82	21
1709.84	27.5
1710.87	26
1711.89	22
1712.92	25.5
1713.94	24.5
1714.97	25
1715.99	26.5
1717.01	27
1718.04	23
1719.06	26
1720.08	23
1721.11	28.5
1722.13	25
1723.15	27.5
1724.18	24
1725.2	25
1726.22	27
1727.24	26.5
1728.26	25
1729.29	23
1730.31	27
1731.33	24.5
1732.35	24
1733.37	25
1734.39	25
1735.41	27
1736.43	21
1737.45	27
1738.47	28.5
1739.5	30
1740.52	27.5
1741.53	25.5
1742.55	23
1743.57	27.5
1744.59	22.5
1745.61	28.5
1746.63	27
1747.65	24.5
1748.67	25
1749.69	22
1750.71	24
1751.72	22.5
1752.74	25.5
1753.76	22.5
1754.78	24.5
1755.8	26
1756.81	28
1757.83	23
1758.85	26
1759.87	23.5
1760.88	26
1761.9	24
1762.92	21
1763.93	25.5
1764.95	27.5
1765.96	21.5
1766.98	24
1768	23
1769.01	28
1770.03	27
1771.04	29.5
1772.06	23.5
1773.07	21.5
1774.09	24
1775.1	24.5
1776.12	27
1777.13	25
1778.15	24.5
1779.16	27
1780.17	28.5
1781.19	28
1782.2	26
1783.21	25.5
1784.23	26.5
1785.24	26.5
1786.25	28
1787.27	22.5
1788.28	23.5
1789.29	26
1790.3	25
1791.32	22
1792.33	23.5
1793.34	27
1794.35	26.5
1795.36	28
1796.38	23.5
1797.39	26.5
1798.4	24
1799.41	25
1800.42	22.5
1801.43	28
1802.44	26.5
1803.45	25
1804.46	27
1805.47	23
1806.48	27
1807.49	26
1808.5	21.5
1809.51	24.5
1810.52	23
1811.53	25.5
1812.53	22
1813.54	25.5
1814.55	22.5
1815.56	26
1816.57	23.5
1817.58	26
1818.59	25.5
1819.59	26.5
1820.6	23.5
1821.61	29.5
1822.62	29
1823.62	24.5
1824.63	24
1825.64	22
1826.64	24
1827.65	25
1828.66	20
1829.66	22
1830.67	21.5
1831.67	23
1832.68	26.5
1833.69	24.5
1834.69	23
1835.7	24.5
1836.7	27
1837.71	24
1838.71	26
1839.72	24
1840.72	26.5
1841.72	22
1842.73	25.5
1843.73	25
1844.74	25
1845.74	28
1846.74	29
1847.75	24
1848.75	22
1849.75	25
1850.76	25
1851.76	27
1852.76	23.5
1853.76	26
1854.77	26
1855.77	23
1856.77	25
1857.77	25.5
1858.78	25.5
1859.78	24.5
1860.78	20.5
1861.78	24.5
1862.78	25.5
1863.78	29.5
1864.78	26.5
1865.78	21
1866.78	25
1867.78	25
1868.78	25
1869.78	21.5
1870.78	24
1871.78	24.5
1872.78	24.5
1873.78	24
1874.78	23
1875.78	24
1876.78	27.5
1877.78	23
1878.78	25
1879.78	23.5
1880.77	22
1881.77	24.5
1882.77	24.5
1883.77	23
1884.77	22.5
1885.76	24.5
1886.76	25
1887.76	27
1888.75	24
1889.75	26
1890.75	25.5
1891.74	24.5
1892.74	22.5
1893.74	23.5
1894.73	26.5
1895.73	23.5
1896.73	24
1897.72	25
1898.72	25.5
1899.71	25.5
1900.71	25.5
1901.7	24
1902.7	27
1903.69	25.5
1904.69	23
1905.68	24
1906.68	29
1907.67	29
1908.66	25.5
1909.66	22
1910.65	24
1911.64	21.5
1912.64	23.5
1913.63	25
1914.62	23
1915.62	22
1916.61	24
1917.6	26
1918.6	26
1919.59	22
1920.58	27
1921.57	26.5
1922.56	22
1923.55	25
1924.55	23
1925.54	24
1926.53	26.5
1927.52	29.5
1928.51	25
1929.5	24.5
1930.49	23.5
1931.48	27
1932.47	23.5
1933.46	26.5
1934.45	23.5
1935.44	26
1936.43	27.5
1937.42	24.5
1938.41	18
1939.4	23
1940.39	23.5
1941.38	23.5
1942.37	24
1943.36	20.5
1944.35	24.5
1945.33	23.5
1946.32	24
1947.31	24.5
1948.3	25
1949.29	23.5
1950.27	28.5
1951.26	22
1952.25	26
1953.24	23
1954.22	25.5
1955.21	25
1956.2	26
1957.18	26
1958.17	28
1959.16	21.5
1960.14	20.5
1961.13	22.5
1962.11	23.5
1963.1	24
1964.08	23
1965.07	26
1966.05	21.5
1967.04	27
1968.02	22.5
1969.01	28.5
1969.99	22
1970.98	20.5
1971.96	25.5
1972.95	24
1973.93	25
1974.91	23
1975.9	26.5
1976.88	21.5
1977.86	23
1978.85	26.5
1979.83	28.5
1980.81	26
1981.8	23
1982.78	26
1983.76	23
1984.74	22
1985.73	28.5
1986.71	24
1987.69	25
1988.67	26
1989.65	21.5
1990.63	24
1991.62	27
1992.6	24
1993.58	21
1994.56	26
1995.54	22
1996.52	27.5
1997.5	25.5
1998.48	23.5
1999.46	20.5
2000.44	24
2001.42	23.5
2002.4	24
2003.38	22.5
2004.36	20.5
2005.34	23
2006.32	22
2007.29	27.5
2008.27	19.5
2009.25	25
2010.23	24
2011.21	23
2012.19	24.5
2013.17	25
2014.14	25
2015.12	24
2016.1	24.5
2017.07	23.5
2018.05	21
2019.03	26.5
2020.01	24
2020.98	20.5
2021.96	27.5
2022.94	23.5
2023.91	21
2024.89	23
2025.86	23
2026.84	22.5
2027.82	26.5
2028.79	26
2029.77	21
2030.74	23.5
2031.72	25.5
2032.69	25.5
2033.67	24.5
2034.64	24.5
2035.62	23.5
2036.59	24
2037.56	24.5
2038.54	24
2039.51	22.5
2040.49	23.5
2041.46	25.5
2042.43	24
2043.41	24
2044.38	25
2045.35	26.5
2046.32	21
2047.3	27
2048.27	24
2049.24	24.5
2050.21	21
2051.19	22
2052.16	22.5
2053.13	24.5
2054.1	19
2055.07	23
2056.05	22
2057.02	26.5
2057.99	25
2058.96	22.5
2059.93	25.5
2060.9	25
2061.87	24.5
2062.84	22
2063.81	23
2064.78	26.5
2065.75	23.5
2066.72	23
2067.69	20
2068.66	22.5
2069.63	21.5
2070.6	20
2071.57	24
2072.54	26.5
2073.5	23
2074.47	24
2075.44	23
2076.41	23
2077.38	22.5
2078.35	21.5
2079.31	22
2080.28	27.5
2081.25	20
2082.22	23
2083.18	22.5
2084.15	24
2085.12	22
2086.08	26
2087.05	22.5
2088.02	25.5
2088.98	21.5
2089.95	23
2090.92	23
2091.88	22
2092.85	24
2093.81	24.5
2094.78	23
2095.74	23.5
2096.71	24.5
2097.67	23.5
2098.64	27
2099.6	24.5
2100.57	22
2101.53	23.5
2102.5	23.5
2103.46	23.5
2104.42	23.5
2105.39	27
2106.35	22
2107.32	22
2108.28	23
2109.24	27
2110.21	26
2111.17	18.5
2112.13	21.5
2113.09	27
2114.06	25.5
2115.02	18
2115.98	25
2116.94	25.5
2117.91	23
2118.87	22.5
2119.83	24.5
2120.79	25.5
2121.75	24
2122.71	24.5
2123.67	22
2124.63	24
2125.6	21
2126.56	22.5
2127.52	19.5
2128.48	24
2129.44	24.5
2130.4	25
2131.36	23.5
2132.32	26
2133.28	23
2134.23	22
2135.19	24
2136.15	25
2137.11	21
2138.07	21.5
2139.03	22.5
2139.99	20
2140.95	19
2141.9	23
2142.86	22.9848
2143.82	20.0167
2144.78	23.5322
2145.74	24.9231
2146.69	22.9393
2147.65	22.8665
2148.61	24.2869
2149.57	19.238
2150.52	22.7524
2151.48	21.8911
2152.44	23.4181
2153.39	23.5785
2154.35	22.3578
2155.31	22.0796
2156.26	26.378
2157.22	23.2004
2158.17	22.9845
2159.13	20.1673
2160.08	20.6064
2161.04	23.205
2161.99	21.4954
2162.95	19.5
2163.91	22.0816
2164.86	21.8469
2165.81	23.1139
2166.77	22.0855
2167.72	24.6187
2168.68	25.1229
2169.63	24.6085
2170.58	21.7516
2171.54	22.2195
2172.49	22.4873
2173.45	23.3982
2174.4	24.0888
2175.35	22.482
2176.31	20.6538
2177.26	21.0174
2178.21	21.3468
2179.16	20.7262
2180.12	21.3975
2181.07	24.1692
2182.02	20.6745
2182.97	22.8252
2183.92	23.3826
2184.88	21.0175
2185.83	22.0804
2186.78	25.1509
2187.73	20.3246
2188.68	22.7662
2189.63	22.2403
2190.58	23.0097
2191.53	21.7021
2192.49	20.7388
2193.43	21.561
2194.39	21.3779
2195.34	23.1902
2196.28	22.038
2197.24	19.8888
2198.19	22.2558
2199.13	22.3563
2200.08	21.5462
2201.03	22.8676
2201.98	20.8312
2202.93	21.7753
2203.88	23.5087
2204.83	22.1424
2205.78	23.221
2206.73	22.1779
2207.67	21.7083
2208.62	23.9042
2209.57	19.7309
2210.52	23.4682
2211.47	20.8923
2212.41	19.7885
2213.36	21.6643
2214.31	23.6335
2215.26	24.9896
2216.2	25.0881
2217.15	24.6136
2218.1	22.9618
2219.04	24.1449
2219.99	21.42
2220.93	21.9487
2221.88	19.5528
2222.83	20.4165
2223.77	22.8742
2224.72	22.3263
2225.66	24.9842
2226.61	23.23
2227.55	22.227
2228.5	20.0203
2229.44	19.418
2230.39	23.1281
2231.33	21.8975
2232.28	23.7845
2233.22	21.5185
2234.17	22.4114
2235.11	23.9819
2236.06	21.3281
2237	23.5576
2237.94	20.3055
2238.89	23.1598
2239.83	22.2167
2240.06	21.5
2241.01	24.5
2241.96	25
2242.9	25
2243.85	20
2244.8	23.5
2245.75	20.5
2246.69	21.5
2247.64	21
2248.59	21.5
2249.53	22
2250.48	21.5
2251.43	22.5
2252.37	24.5
2253.32	23
2254.27	21
2255.21	25
2256.16	23.5
2257.1	23.5
2258.05	18.5
2259	23.5
2259.94	23
2260.89	24.5
2261.83	21.5
2262.78	22
2263.72	23.5
2264.67	24.5
2265.61	24
2266.56	23
2267.5	25.5
2268.44	23.5
2269.39	24
2270.33	23
2271.27	23
2272.22	23
2273.16	23
2274.1	24
2275.05	21
2275.99	19
2276.93	22.5
2277.88	27
2278.82	21
2279.76	21
2280.7	24.5
2281.65	26
2282.59	23.5
2283.53	20
2284.47	21
2285.41	24.5
2286.35	20
2287.29	22
2288.24	19.5
2289.18	24.5
2290.12	25.5
2291.06	27
2292	23.5
2292.94	23
2293.88	23
2294.82	24.5
2295.76	19
2296.7	20.5
2297.64	24
2298.58	24.5
2299.52	23
2300.46	24
2301.4	23.5
2302.34	21
2303.28	22
2304.21	21
2305.15	26
2306.09	22
2307.03	19.5
2307.97	21
2308.91	25
2309.84	23
2310.78	23
2311.72	20
2312.66	27
2313.59	24.5
2314.53	23.5
2315.47	22.5
2316.4	23.5
2317.34	19.5
2318.28	24
2319.22	25.5
2320.15	20.5
2321.09	23
2322.02	24.5
2322.96	21
2323.89	21.5
2324.83	25.5
2325.77	26
2326.7	23.5
2327.64	24
2328.57	24.5
2329.51	21.5
2330.44	22
2331.38	26
2332.31	22
2333.25	21
2334.18	28.5
2335.11	19
2336.05	22
2336.98	22.5
2337.92	24.5
2338.85	23
2339.78	22
2340.72	25
2341.65	24
2342.58	24
2343.52	24.5
2344.45	23
2345.38	21
2346.31	23
2347.25	19
2348.18	24.5
2349.11	22
2350.04	22
2350.97	24
2351.9	24
2352.84	22
2353.77	25
2354.7	26
2355.63	24
2356.56	21
2357.49	24
2358.42	24
2359.35	26.5
2360.28	25
2361.21	21.5
2362.14	22.5
2363.07	25.5
2364	28
2364.93	24
2365.86	22
2366.79	26
2367.72	24.5
2368.65	25
2369.58	21
2370.51	25
2371.44	25
2372.36	20
2373.29	23
2374.22	27
2375.15	22.5
2376.08	22.5
2377.01	25.5
2377.93	22
2378.86	23.5
2379.79	24
2380.72	22
2381.64	22
2382.57	22
2383.5	21.5
2384.42	24
2385.35	23
2386.28	23.5
2387.2	21.5
2388.13	25
2389.06	24.5
2389.98	19
2390.91	21
2391.83	23
2392.76	23
2393.69	23
2394.61	24
2395.54	21
2396.46	25
2397.39	23.5
2398.31	27
2399.23	24.5
2400.16	25.5
2401.08	25
2402.01	23.5
2402.93	21
2403.86	24.5
2404.78	23.5
2405.7	28.5
2406.63	23.5
2407.55	27.5
2408.47	24
2409.4	23
2410.32	21.5
2411.24	19.5
2412.17	23
2413.09	23
2414.01	22
2414.93	24
2415.85	25
2416.78	24.5
2417.7	23
2418.62	26
2419.54	25
2420.46	25.5
2421.38	24
2422.31	26.5
2423.23	23.5
2424.15	21.5
2425.07	22.5
2425.99	25
2426.91	23
2427.83	21
2428.75	21.5
2429.67	24
2430.59	24
2431.51	22.5
2432.43	25.5
2433.35	27.5
2434.27	20
2435.19	24.5
2436.11	20
2437.03	26.5
2437.94	24.5
2438.86	29
2439.78	22
2440.7	27.5
2441.62	24.5
2442.54	26
2443.46	25
2444.37	22.5
2445.29	22.5
2446.21	23
2447.13	24.5
2448.04	25
2448.96	22
2449.88	23
2450.8	24
2451.71	19
2452.63	22
2453.55	22
2454.46	24
2455.38	19.5
2456.29	25
2457.21	25
2458.13	21.5
2459.04	22
2459.96	21.5
2460.87	24
2461.79	23
2462.7	23.5
2463.62	25
2464.53	24
2465.45	25
2466.36	24
2467.28	24.5
2468.19	30.5
2469.11	23.5
2470.02	26.5
2470.93	20
2471.85	23.5
2472.76	25
2473.67	20.5
2474.59	22.5
2475.5	22
2476.42	25
2477.33	22.5
2478.24	22.5
2479.15	27
2480.07	21.5
2480.98	20.5
2481.89	24
2482.8	22.5
2483.72	27
2484.63	24
2485.54	21
2486.45	24.5
2487.36	24
2488.27	23.5
2489.19	22
2490.1	24
2491.01	24
2491.92	23
2492.83	22.5
2493.74	23
2494.65	24.5
2495.56	23.5
2496.47	22
2497.38	26.5
2498.29	26
2499.2	25.5
2500.11	23.5
2501.02	24
2501.93	23
2502.84	23.5
2503.75	21
2504.66	25.5
2505.57	24
2506.47	25.5
2507.38	24.5
2508.29	27
2509.2	24
2510.11	26.5
2511.02	23.5
2511.92	24
2512.83	26
2513.74	27
2514.65	23
2515.55	25.5
2516.46	22
2517.37	25.5
2518.28	23
2519.18	25.5
2520.09	25
2521	25
2521.9	23
2522.81	24.5
2523.72	24
2524.62	21
2525.53	21
2526.43	25
2527.34	21.5
2528.24	26.5
2529.15	21
2530.06	28
2530.96	24.5
2531.87	23.5
2532.77	26
2533.68	25
2534.58	21.5
2535.48	22
2536.39	24.5
2537.29	20.5
2538.2	23
2539.1	25.5
2540	22.5
2540.91	27.5
2541.81	25
2542.72	26
2543.62	26
2544.52	26.5
2545.42	24
2546.33	23.5
2547.23	25
2548.13	22.5
2549.04	24.5
2549.94	22
2550.84	23
2551.74	24
2552.64	24
2553.55	26.5
2554.45	24
2555.35	19
2556.25	23.5
2557.15	23
2558.05	28
2558.95	23.5
2559.85	23.5
2560.76	23.5
2561.66	25
2562.56	21
2563.46	22.5
2564.36	26
2565.26	23
2566.16	27
2567.06	22.5
2567.96	23.5
2568.86	23
2569.76	28
2570.66	26
2571.55	26.5
2572.45	24.5
2573.35	22
2574.25	25
2575.15	20.5
2576.05	26
2576.95	27.5
2577.84	23.5
2578.74	22
2579.64	23.5
2580.54	25
2581.44	19.5
2582.33	22
2583.23	25.5
2584.13	27.5
2585.03	24.5
2585.92	24
2586.82	26
2587.72	24
2588.61	25
2589.51	18.5
2590.41	26
2591.3	25.5
2592.2	25
2593.09	24.5
2593.99	27
2594.89	24
2595.78	23.5
2596.68	25
2597.57	19.5
2598.47	23.5
2599.36	26
2600.26	24
2601.15	21
2602.05	24.5
2602.94	20
2603.84	22.5
2604.73	22.5
2605.63	25
2606.52	24
2607.41	24
2608.31	24
2609.2	25
2610.09	26
2610.99	22
2611.88	22
2612.77	26
2613.67	27.5
2614.56	25.5
2615.45	23
2616.35	26.5
2617.24	24
2618.13	24.5
2619.02	21
2619.91	25
2620.81	30
2621.7	27
2622.59	22.5
2623.48	22.5
2624.37	23
2625.26	24
2626.15	26
2627.05	22.5
2627.94	24
2628.83	27
2629.72	24.5
2630.61	23
2631.5	26
2632.39	22.5
2633.28	22.5
2634.17	21
2635.06	25
2635.95	27.5
2636.84	23.5
2637.73	24.5
2638.62	25
2639.51	24.5
2640.4	22.5
2641.28	27
2642.17	21
2643.06	22.5
2643.95	22
2644.84	22.5
2645.73	23.5
2646.62	21
2647.5	20
2648.39	22.5
2649.28	21.5
2650.17	25
2651.05	25.5
2651.94	22.5
2652.83	22.5
2653.72	22.5
2654.6	27
2655.49	21.5
2656.38	22
2657.26	21
2658.15	22.5
2659.04	22
2659.92	21.5
2660.81	26
2661.69	23
2662.58	24
2663.47	26
2664.35	24
2665.24	24.5
2666.12	24
2667.01	24.5
2667.89	23
2668.78	24
2669.66	24.5
2670.55	23.5
2671.43	23
2672.32	24.5
2673.2	25
2674.08	25
2674.97	26
2675.85	24.5
2676.74	22
2677.62	29.5
2678.5	22
2679.39	23
2680.27	22
2681.15	26
2682.04	24
2682.92	23
2683.8	27.5
2684.68	22
2685.57	25.5
2686.45	22.5
2687.33	27.5
2688.21	24.5
2689.09	21.5
2689.98	24
2690.86	22.5
2691.74	19
2692.62	26.5
2693.5	21
2694.38	28
2695.27	26.5
2696.15	25.5
2697.03	24.5
2697.91	22
2698.79	26
2699.67	25
2700.55	19
2701.43	22.5
2702.31	24.5
2703.19	24
2704.07	24
2704.95	24.5
2705.83	22
2706.71	26
2707.59	26
2708.47	24.5
2709.34	21
2710.22	22.5
2711.1	24
2711.98	27.5
2712.86	23.5
2713.74	21
2714.62	23
2715.49	22.5
2716.37	23
2717.25	26
2718.13	21
2719.01	29
2719.88	28
2720.76	28
2721.64	21
2722.51	24.5
2723.39	25.5
2724.27	27
2725.14	24.5
2726.02	25
2726.9	24.5
2727.77	29
2728.65	25.5
2729.53	25
2730.4	23.5
2731.28	22.5
2732.15	24
2733.03	22
2733.91	19.5
2734.78	27
2735.66	22
2736.53	26.5
2737.41	22
2738.28	25
2739.16	17
2740.03	25
2740.9	23
2741.78	25.5
2742.65	26
2743.53	21.5
2744.4	23
2745.27	23.5
2746.15	21.5
2747.02	21
2747.89	23.5
2748.77	23.5
2749.64	23
2750.51	21.5
2751.39	24
2752.26	21
2753.13	20.5
2754.01	23.5
2754.88	21
2755.75	26.5
2756.62	26
2757.49	22.5
2758.37	22
2759.24	25
2760.11	24.5
2760.98	26
2761.85	22
2762.72	24
2763.59	24.5
2764.46	24.5
2765.34	23
2766.21	25
2767.08	24.5
2767.95	23.5
2768.82	24
2769.69	22
2770.56	25.5
2771.43	21
2772.3	26
2773.17	23
2774.04	21
2774.91	26
2775.78	25.5
2776.65	27
2777.51	23.5
2778.38	23.5
2779.25	24
2780.12	26
2780.99	21
2781.86	23
2782.73	24.5
2783.59	22.5
2784.46	23.5
2785.33	23.5
2786.2	19.5
2787.07	22.5
2787.93	24
2788.8	20
2789.67	22
2790.54	22.5
2791.4	24.5
2792.27	25.5
2793.14	23
2794	23.5
2794.87	24
2795.74	23
2796.6	25.5
2797.47	21.5
2798.34	22.5
2799.2	26.5
2800.07	21
2800.93	22
2801.8	20.5
2802.66	22
2803.53	23
2804.39	25
2805.26	27
2806.12	22
2806.99	24
2807.85	27
2808.72	26
2809.58	28.5
2810.45	26
2811.31	18
2812.18	24.5
2813.04	24.5
2813.9	25.5
2814.77	24.5
2815.63	26
2816.49	25.5
2817.36	28
2818.22	20.5
2819.08	23.5
2819.95	23.5
2820.81	25.5
2821.67	27.5
2822.53	26
2823.4	26
2824.26	23.5
2825.12	25.5
2825.98	22
2826.84	24.5
2827.71	24.5
2828.57	24.5
2829.43	27.5
2830.29	26
2831.15	24.5
2832.01	22
2832.88	25
2833.74	28.5
2834.6	27
2835.46	23.5
2836.32	24
2837.18	22
2838.04	19
2838.9	21
2839.76	24.5
2840.62	24
2841.48	22
2842.34	23
2843.2	23
2844.06	24
2844.92	22
2845.78	21.5
2846.63	22
2847.49	27.5
2848.35	26
2849.21	22.5
2850.07	23
2850.93	19.5
2851.79	24
2852.64	26.5
2853.5	26.5
2854.36	26.5
2855.22	23
2856.08	24
2856.93	22.5
2857.79	26
2858.65	26
2859.51	24
2860.36	24.5
2861.22	21.5
2862.08	21.5
2862.93	23.5
2863.79	26
2864.65	25
2865.5	22.5
2866.36	21
2867.22	26
2868.07	27
2868.93	25
2869.78	27.5
2870.64	23
2871.49	25.5
2872.35	24.5
2873.21	22
2874.06	23
2874.91	22.5
2875.77	24
2876.62	22
2877.48	22
2878.33	24.5
2879.19	28
2880.04	30
2880.9	25
2881.75	21.5
2882.6	24
2883.46	23
2884.31	26.5
2885.17	23
2886.02	29.5
2886.87	21.5
2887.73	25
2888.58	24
2889.43	27
2890.28	28.5
2891.14	26
2891.99	30
2892.84	30
2893.69	29.5
2894.55	26.5
2895.4	26
2896.25	26
2897.1	25
2897.95	28
2898.8	32.5
2899.66	29
2900.51	32.5
2901.36	30.5
2902.21	30.5
2903.06	30
2903.91	30
2904.76	31
2905.61	36
2906.46	28
2907.31	33.5
2908.16	27
2909.01	32
2909.86	29
2910.71	30
2911.56	33
2912.41	27
2913.26	30
2914.11	30.5
2914.96	29
2915.81	26
2916.66	26.5
2917.51	24
2918.36	24.5
2919.2	25.5
2920.05	21
2920.9	27
2921.75	26
2922.6	22
2923.45	27
2924.29	25
2925.14	25
2925.99	22
2926.84	28
2927.68	20.5
2928.53	22
2929.38	26
2930.23	23.5
2931.07	25.5
2931.92	20
2932.77	23
2933.61	23
2934.46	24.5
2935.3	24
2936.15	24
2937	24.5
2937.84	22.5
2938.69	22
2939.53	21.5
2940.38	19
2941.23	23.5
2942.07	22
2942.92	29
2943.76	26.5
2944.61	25
2945.45	27.5
2946.3	22
2947.14	27.5
2947.98	24.5
2948.83	27.5
2949.67	22
2950.52	24
2951.36	21.5
2952.2	27
2953.05	26.5
2953.89	25
2954.74	27
2955.58	24.5
2956.42	23.5
2957.27	26
2958.11	24
2958.95	26.5
2959.79	25
2960.64	26.5
2961.48	26.5
2962.32	27
2963.16	27.5
2964.01	30.5
2964.85	30
2965.69	28.5
2966.53	28
2967.37	26.5
2968.21	27
2969.06	27
2969.9	26.5
2970.74	26
2971.58	29.466
2972.42	23.4587
2973.26	25.0794
2974.1	20.6808
2974.94	28.7681
2975.78	21.6788
2976.62	22.9855
2977.46	22.4677
2978.3	24.9709
2979.14	26.5326
2979.98	23.7896
2980.82	22.7916
2981.66	21.8263
2982.5	21.5509
2983.34	23.9823
2984.18	24.8379
2985.02	23.7307
2985.86	23.3975
2986.7	23.9127
2987.54	22.2673
2988.38	25.2578
2989.21	23.8376
2990.05	26.1975
2990.89	20.9802
2991.73	22.0962
2992.57	21.8039
2993.41	22.9917
2994.24	20.9345
2995.08	25.0141
2995.92	24.7018
2996.76	20.7081
2997.59	20.5015
2998.43	26.345
2999.27	23.0933
3000.1	23.039
3000.94	22.7719
3001.78	21.976
3002.61	22.432
3003.45	22.2487
3004.29	22.8167
3005.12	22.2348
3005.96	22.3266
3006.8	22.2565
3007.63	22.1935
3008.47	23.5544
3009.3	20.8938
3010.14	23.3321
3010.97	23.0211
3011.81	20.9141
3012.64	23.3748
3013.48	21.2139
3014.31	22.0389
3015.15	23.1936
3015.98	22.8867
3016.82	21.3664
3017.65	22.0502
3018.49	22.1442
3019.32	24.1915
3020.16	22.8543
3020.99	21.5269
3021.82	22.7093
3022.66	19.9418
3023.49	20.3849
3024.32	22.3525
3025.16	21.9739
3025.99	20.803
3026.82	21.9882
3027.66	25.2978
3028.49	24.9714
3029.32	22.7797
3030.16	20.087
3030.99	20.1799
3031.82	20.7764
3032.65	21.456
3033.49	20.8503
3034.32	21.5536
3035.15	24.0274
3035.98	23.9405
3036.81	22.0149
3037.64	19.6155
3038.48	21.3465
3039.31	22.6047
3040.14	21.8271
3040.97	20.9846
3041.8	22.0853
3042.63	21.2956
3043.46	21.85
3044.29	21.7536
3045.12	22.2175
3045.95	24.4357
3046.78	22.907
3047.61	21.3618
3048.44	20.2247
3049.27	20.0408
3050.1	22.8546
3050.93	23.5257
3051.76	20.8305
3052.59	22.1379
3053.42	22.353
3054.25	22.3621
3055.08	22.2207
3055.91	20.8047
3056.74	22.1919
3057.26	25
3058.09	23.5
3058.92	25
3059.76	21
3060.59	23
3061.42	23.5
3062.26	23.5
3063.09	17.5
3063.92	19.5
3064.75	24
3065.59	22
3066.42	20.5
3067.25	19
3068.08	21
3068.91	22.5
3069.74	18.5
3070.58	20
3071.41	24
3072.24	19
3073.07	22
3073.9	22
3074.73	20
3075.56	20
3076.39	20.5
3077.22	22
3078.05	21.5
3078.88	20
3079.71	23
3080.55	27
3081.38	24.5
3082.2	25.5
3083.03	22.5
3083.86	19
3084.69	24
3085.52	17
3086.35	23
3087.18	17
3088.01	24.5
3088.84	24
3089.67	21
3090.5	20
3091.33	28.5
3092.15	19
3092.98	20
3093.81	23
3094.64	24
3095.47	24
3096.29	24
3097.12	22.5
3097.95	23.5
3098.78	25
3099.6	20.5
3100.43	20
3101.26	20
3102.09	24.5
3102.91	22
3103.74	25.5
3104.57	24.5
3105.39	19.5
3106.22	26
3107.05	20.5
3107.87	20
3108.7	24.5
3109.52	26.5
3110.35	22.5
3111.18	25
3112	24
3112.83	21
3113.65	20
3114.48	22.5
3115.3	19
3116.13	24
3116.95	26
3117.78	24.5
3118.6	18
3119.43	22.5
3120.25	25.5
3121.08	25
3121.9	21.5
3122.73	23.5
3123.55	23
3124.37	18
3125.2	24
3126.02	19.5
3126.84	23.5
3127.67	21
3128.49	21
3129.31	20
3130.14	25
3130.96	22.5
3131.78	20
3132.61	22
3133.43	26.5
3134.25	25
3135.07	20
3135.9	26
3136.72	22.5
3137.54	27
3138.36	20
3139.18	26.5
3140.01	26.5
3140.83	25.5
3141.65	20.5
3142.47	24.5
3143.29	21.5
3144.11	24.5
3144.93	25
3145.75	25
3146.58	23.5
3147.4	22
3148.22	21
3149.04	23.5
3149.86	23
3150.68	24
3151.5	25.5
3152.32	23
3153.14	23.5
3153.96	26
3154.78	23
3155.6	20.5
3156.42	22
3157.23	23.5
3158.05	22
3158.87	24.5
3159.69	25
3160.51	23
3161.33	20
3162.15	20
3162.97	22
3163.79	23.5
3164.6	21.5
3165.42	24
3166.24	23.5
3167.06	20.5
3167.88	23.5
3168.69	23
3169.51	22.5
3170.33	22
3171.15	22.5
3171.96	26
3172.78	22.5
3173.6	21
3174.41	24.5
3175.23	21.5
3176.05	25
3176.86	23
3177.68	25.5
3178.5	27.5
3179.31	22
3180.13	23
3180.95	19
3181.76	22.5
3182.58	25
3183.39	22.5
3184.21	22
3185.02	21.5
3185.84	21.5
3186.65	21
3187.47	23
3188.28	21.5
3189.1	24
3189.91	27.5
3190.73	24
3191.54	22.5
3192.36	21.5
3193.17	24
3193.99	23
3194.8	24
3195.61	23.5
3196.43	24.5
3197.24	21
3198.05	25
3198.87	20
3199.68	24
3200.49	21.5
3201.31	23
3202.12	20.5
3202.93	23.5
3203.75	24.5
3204.56	24
3205.37	20
3206.18	24.5
3207	23
3207.81	26.5
3208.62	22.5
3209.43	25.5
3210.24	23
3211.06	22
3211.87	19.5
3212.68	21
3213.49	23.5
3214.3	23
3215.11	24
3215.92	21.5
3216.74	21.5
3217.55	22
3218.36	22.5
3219.17	26
3219.98	25.5
3220.79	18.5
3221.6	19.5
3222.41	23.5
3223.22	24
3224.03	21.5
3224.84	22.5
3225.65	22.5
3226.46	22.5
3227.27	22
3228.08	22.5
3228.89	25
3229.7	24.5
3230.5	24
3231.31	21
3232.12	23.5
3232.93	20
3233.74	26
3234.55	25
3235.36	19.5
3236.16	19.5
3236.97	26
3237.78	27
3238.59	23.5
3239.4	20.5
3240.2	23.5
3241.01	26
3241.82	23
3242.63	21.5
3243.43	26
3244.24	18
3245.05	23.5
3245.86	20.5
3246.66	23
3247.47	20
3248.28	27
3249.08	23.5
3249.89	23
3250.69	20.5
3251.5	21.5
3252.31	24
3253.11	26.5
3253.92	24.5
3254.72	24
3255.53	25
3256.34	22
3257.14	21.5
3257.95	26
3258.75	25
3259.56	24.5
3260.36	22.5
3261.17	23.5
3261.97	23
3262.77	26.5
3263.58	24
3264.38	26.5
3265.19	22.5
3265.99	19
3266.8	22.5
3267.6	22.5
3268.4	24
3269.21	22.5
3270.01	24
3270.81	21.5
3271.62	22
3272.42	22
3273.22	21
3274.03	22
3274.83	27
3275.63	22
3276.43	19
3277.24	19
3278.04	27
3278.84	25
3279.64	26.5
3280.45	19
3281.25	26.5
3282.05	24
3282.85	22
3283.65	23.5
3284.46	25
3285.26	22
3286.06	25
3286.86	27.5
3287.66	21.5
3288.46	27
3289.26	21.5
3290.06	22.5
3290.86	21.5
3291.66	27
3292.46	20
3293.26	22.5
3294.06	19
3294.86	22.5
3295.66	23.5
3296.46	27.5
3297.26	23
3298.06	25.5
3298.86	19
3299.66	28
3300.46	21.5
3301.26	25.5
3302.06	21
3302.86	24
3303.66	20.5
3304.46	22
3305.26	23
3306.05	23.5
3306.85	21.5
3307.65	21.5
3308.45	20
3309.25	25.5
3310.04	24
3310.84	24
3311.64	25
3312.44	26.5
3313.24	26
3314.03	25
3314.83	22.5
3315.63	23
3316.42	25
3317.22	24.5
3318.02	22
3318.82	25
3319.61	22.5
3320.41	25
3321.2	24
3322	21.5
3322.8	27
3323.59	23
3324.39	25
3325.19	24
3325.98	24.5
3326.78	23
3327.57	21
3328.37	23
3329.16	22.5
3329.96	26.5
3330.75	21
3331.55	26
3332.34	20
3333.14	23
3333.93	21
3334.73	21.5
3335.52	23
3336.32	26
3337.11	25.5
3337.9	26.5
3338.7	22.5
3339.49	26
3340.29	23.5
3341.08	23
3341.87	25
3342.67	24.5
3343.46	23
3344.25	22.5
3345.05	23
3345.84	26.5
3346.63	24.5
3347.42	27
3348.22	24
3349.01	24
3349.8	19
3350.59	20
3351.39	25
3352.18	23.5
3352.97	24.5
3353.76	26
3354.55	21.5
3355.35	25
3356.14	20.5
3356.93	19.5
3357.72	25
3358.51	27.5
3359.3	25
3360.09	21
3360.88	22.5
3361.67	24
3362.47	23
3363.26	24
3364.05	20.5
3364.84	23.5
3365.63	20.5
3366.42	23.5
3367.21	24
3368	23
3368.79	24.5
3369.58	20.5
3370.37	24.5
3371.16	23
3371.95	26.5
3372.73	25
3373.52	24.5
3374.31	19.5
3375.1	22
3375.89	23
3376.68	26.5
3377.47	24.5
3378.26	23.5
3379.04	26
3379.83	25
3380.62	24
3381.41	23
3382.2	26
3382.98	22.5
3383.77	22
3384.56	21
3385.35	24
3386.14	24
3386.92	24
3387.71	24
3388.5	24
3389.28	24.5
3390.07	23
3390.86	25
3391.64	26
3392.43	22.5
3393.22	21.5
3394	22.5
3394.79	22
3395.58	26
3396.36	24.5
3397.15	24
3397.93	25
3398.72	24
3399.5	23.5
3400.29	26
3401.07	24
3401.86	23.5
3402.65	26
3403.43	23.5
3404.22	23
3405	22
3405.79	22
3406.57	24
3407.35	25.5
3408.14	22
3408.92	25
3409.71	26
3410.49	23
3411.27	22
3412.06	26.5
3412.84	25.5
3413.63	23
3414.41	21
3415.19	23.5
3415.98	26
3416.76	23.5
3417.54	24
3418.32	23
3419.11	24
3419.89	19
3420.67	25
3421.46	23.5
3422.24	23.5
3423.02	23
3423.8	25
3424.58	22.5
3425.37	26
3426.15	21.5
3426.93	22.5
3427.71	24.5
3428.49	25.5
3429.27	22.5
3430.06	25.5
3430.84	25.5
3431.62	24
3432.4	27
3433.18	22
3433.96	23
3434.74	23
3435.52	23.5
3436.3	22
3437.08	21
3437.86	22
3438.64	23
3439.42	24
3440.2	25
3440.98	24
3441.76	24
3442.54	22
3443.32	24
3444.1	24.5
3444.88	27.5
3445.66	25
3446.44	27
3447.22	27
3448	21
3448.78	23
3449.55	24
3450.33	26.5
3451.11	23.5
3451.89	21.5
3452.67	20
3453.45	23
3454.22	25.5
3455	21.5
3455.78	26
3456.56	23
3457.33	26.5
3458.11	20.5
3458.89	23.5
3459.67	24.5
3460.44	25.5
3461.22	23
3462	27
3462.77	20
3463.55	21
3464.33	24
3465.1	29
3465.88	23
3466.66	21
3467.43	23
3468.21	22.5
3468.99	22
3469.76	21
3470.54	21.5
3471.31	26
3472.09	24
3472.86	24
3473.64	25
3474.41	24
3475.19	23
3475.96	23
3476.74	23
3477.51	23
3478.29	22.5
3479.06	28
3479.84	23
3480.61	24
3481.39	25.5
3482.16	22.5
3482.93	21.5
3483.71	22.5
3484.48	24
3485.26	22
3486.03	28
3486.8	22.5
3487.58	26
3488.35	21.5
3489.12	18
3489.9	23
3490.67	23.5
3491.44	24.5
3492.21	24
3492.99	26.5
3493.76	23
3494.53	23
3495.3	26
3496.08	23.5
3496.85	20
3497.62	24
3498.39	21
3499.16	24
3499.94	26.5
