#Acq. time (s)=	5
#Accumulations=	5
#Range (cm-¹)=	100...3500
#Windows=	4
#Autofocus=	Off
#AutoExposure=	Off
#Spike filter=	Multiple accum.
#Delay time (s)=	0
#Binning=	1
#Readout mode=	Signal
#DeNoise=	Off
#ICS correction=	Off
#Dark correction=	Off
#Inst. Process=	Off
#Instrument=	LabRAM HR Evol
#Detector=	Syncerity OE
#Objective=	x100_VIS
#Grating=	600 (500nm)
#ND Filter=	25%
#Laser=	633nm_Edge
#Hole=	100.021
#Range=	Visible
#Project=	verificaciones
#Sample=	a2
#Site=	plain
#Title=	bolusa2plain
#Remark=	com
#Date=	16.01.2026 14:06
#Acquired=	16.01.2026 14:06:16
100.687	27
101.971	35
103.254	34.5
104.537	26
105.82	33
107.103	28
108.387	27.5
109.669	28.5
110.951	34.5
112.233	29
113.514	30
114.796	30.5
116.077	30
117.358	37
118.639	29.5
119.919	27
121.2	31
122.48	33.5
123.76	33.5
125.039	32
126.319	35
127.598	30.5
128.877	34
130.156	36
131.435	36
132.713	33.5
133.992	32.5
135.268	34
136.546	39
137.824	34
139.101	37.5
140.378	38
141.655	34.5
142.932	38
144.209	40.5
145.485	41
146.76	40
148.036	42
149.312	34
150.587	39.5
151.862	38
153.138	38.5
154.411	43
155.686	43
156.96	39
158.235	42
159.509	40
160.781	45.5
162.055	39
163.328	41.5
164.602	41.5
165.873	40.5
167.146	40.5
168.419	40
169.691	40
170.962	38.5
172.234	43
173.506	43
174.777	43.5
176.047	41.5
177.318	37.5
178.589	45.5
179.859	36
181.129	39.5
182.4	46
183.668	39.5
184.938	37.5
186.207	41
187.476	45.5
188.746	41.5
190.013	42
191.282	48
192.551	42
193.818	42
195.086	34
196.353	38.5
197.621	42.5
198.887	36
200.154	44
201.422	38.5
202.687	43
203.954	40.5
205.219	39
206.486	34.5
207.751	40
209.017	36.5
210.281	37.5
211.547	34.5
212.811	30.5
214.076	36.5
215.339	36
216.603	31.5
217.867	36.5
219.13	34
220.395	36.5
221.657	38
222.921	36
224.183	33
225.445	31
226.708	29
227.97	33
229.232	35.5
230.493	32
231.754	32
233.016	32
234.277	33
235.537	29
236.799	35.5
238.059	34.5
239.318	28.5
240.579	32
241.839	32
243.098	29
244.358	31
245.617	32
246.875	30.5
248.133	34
249.393	31.5
250.651	35
251.908	31.5
253.166	32
254.424	31
255.681	27
256.938	27
258.195	31
259.451	29.5
260.709	32
261.965	30.5
263.221	30
264.476	29.5
265.732	32
266.988	35
268.243	27
269.498	27
270.753	29
272.007	30
273.261	25.5
274.515	29
275.769	28.5
277.022	27.5
278.277	30
279.53	31.5
280.783	26.5
282.036	25.5
283.289	29.5
284.541	29
285.793	28.5
287.045	27
288.297	27
289.548	29.5
290.8	28.5
292.051	27.5
293.302	27
294.552	32
295.803	32
297.053	29
298.303	32.5
299.553	30.5
300.803	30
302.053	29.5
303.302	29
304.551	28.5
305.8	28
307.047	32
308.296	31
309.544	30
310.792	31.5
312.04	29
313.288	29.5
314.535	25.5
315.783	29.5
317.03	28.5
318.275	31.5
319.522	32
320.768	27.5
322.015	27.5
323.261	29
324.505	27
325.751	33.5
326.997	28
328.242	30.5
329.487	22.5
330.73	30
331.975	31
333.22	31
334.464	29
335.707	24
336.95	28
338.194	32
339.438	29
340.68	31
341.923	27
343.166	29
344.407	29.5
345.649	30
346.892	29.5
348.132	28
349.374	28.5
350.616	29
351.856	26
353.097	29.5
354.337	30.5
355.578	32.5
356.818	31.5
358.058	33
359.298	32.5
360.536	24.5
361.776	31
363.016	31
364.254	29.5
365.493	28
366.731	30
367.97	24.5
369.207	32
370.446	27
371.683	31
372.921	31.5
374.157	28.5
375.395	31.5
376.631	28
377.868	29
379.104	28
380.341	26.5
381.576	31.5
382.813	31
384.048	24
385.284	25
386.518	31.5
387.753	29.5
388.988	32
390.222	29
391.457	31
392.691	29.5
393.924	32
395.159	27.5
396.392	29
397.624	26.5
398.858	28
400.091	24
401.323	30
402.556	27.5
403.788	29
405.019	26
406.252	29.5
407.483	33
408.714	28.5
409.945	29
411.177	30
412.407	30
413.637	30.5
414.867	29.5
416.099	26.5
417.328	28
418.558	31
419.787	28.5
421.016	25
422.246	29.5
423.475	26
424.703	30
425.931	29.5
427.159	31
428.388	28.5
429.616	29
430.843	30.5
432.071	29
433.298	29
434.524	27.5
435.751	27.5
436.977	29
438.204	28.5
439.431	29
440.657	27.5
441.883	27.5
443.108	29
444.333	30.5
445.558	33
446.783	30
448.008	30.5
449.232	32
450.457	27.5
451.681	27.5
452.905	34
454.128	28.5
455.352	28.5
456.575	31
457.798	32.5
459.021	31.5
460.244	30.5
461.466	31
462.689	28.5
463.909	33.5
465.131	31
466.353	33
467.575	36.5
468.796	33
470.017	35
471.238	38
472.459	37
473.679	36.5
474.898	41
476.118	40
477.338	38
478.558	45.5
479.778	49.5
480.997	49
482.215	47
483.434	56
484.653	60
485.871	68.5
487.09	63
488.307	62.5
489.525	62
490.743	60.5
491.96	57.5
493.176	61
494.394	57
495.611	58.5
496.826	46
498.043	47
499.259	50.5
500.474	46.5
501.69	46
502.906	45.5
504.121	41.5
505.336	40
506.551	39.5
507.765	39.5
508.98	38.5
510.195	38
511.408	34.5
512.622	36.5
513.835	33
515.049	34
516.263	33
517.475	37
518.689	33
519.9	33
521.113	32.5
522.325	34
523.537	32
524.748	30.5
525.961	34.5
527.171	33.5
528.383	30
529.594	30.5
530.805	33.5
532.015	36.5
533.226	28
534.435	33.5
535.646	24.5
536.855	31.5
538.066	31.5
539.274	29
540.483	33.5
541.693	32
542.901	22
544.11	25
545.318	32.5
546.526	27
547.734	27
548.942	33
550.149	32.5
551.357	28
552.563	31
553.77	32
554.978	31
556.184	29
557.389	27
558.596	27.5
559.802	30
561.007	23.5
562.212	25.5
563.419	28
564.623	33.5
565.828	29
567.032	30.5
568.238	28
569.442	32.5
570.646	28
571.849	28
573.054	25.5
574.257	26.5
575.46	32.5
576.663	25
577.866	29
579.068	32
580.272	31
581.474	31
582.676	26
583.877	23.5
585.079	31.5
586.28	26
587.481	32
588.682	30
589.883	30
591.083	30
592.285	29
593.485	30
594.685	28
595.885	29.5
597.084	30.5
598.284	31.5
599.483	28.5
600.682	27.5
601.881	29.5
603.08	30
604.278	28
605.476	28.5
606.674	27
607.872	27.5
609.07	29
610.266	27
611.463	26
612.661	29.5
613.857	28.5
615.054	24
616.251	29
617.447	27.5
618.643	28
619.839	25
621.035	31.5
622.229	28
623.425	27.5
624.62	29
625.815	27
627.01	29.5
628.205	31
629.398	29.5
630.592	31
631.786	22
632.98	28
634.172	28.5
635.366	27
636.559	29.5
637.753	28
638.944	28.5
640.137	34
641.33	30.5
642.522	27
643.713	31
644.905	25
646.097	32
647.287	29.5
648.478	26
649.67	25
650.859	31.5
652.05	29
653.241	28.5
654.43	23.5
655.621	26.5
656.811	33
657.999	31
659.189	26
660.378	29
661.567	27
662.755	33
663.944	25
665.133	29.5
666.32	30
667.508	30.5
668.695	33
669.884	29
671.07	36
672.258	30
673.444	26.5
674.631	34
675.817	29
677.004	35
678.19	35.5
679.376	33
680.561	33
681.746	35
682.932	34.5
684.117	32.5
685.302	34.5
686.487	39
687.672	36
688.856	33
690.039	34
691.224	40.5
692.407	35.5
693.59	38.5
694.774	36
695.957	38.5
697.14	33.5
698.323	36.5
699.505	38.5
700.687	39
701.87	41
703.052	43
704.233	42
705.414	50
706.597	57.5
707.778	58
708.958	58
710.139	58.5
711.32	48.5
712.5	45
713.68	41.5
714.86	41.5
716.039	39
717.22	37
718.399	34
719.578	32.5
720.757	33.5
721.935	33
723.114	33
724.292	27
725.471	25
726.649	27.5
727.827	27
729.004	27
730.182	30
731.359	28
732.536	26.5
733.712	28.5
734.889	28
736.065	31
737.242	28.5
738.418	27
739.593	28
740.769	29
741.945	26
743.12	27.5
744.295	26.5
745.47	26
746.644	29
747.819	30
748.993	29
750.168	29.5
751.342	28
752.515	29.5
753.689	29
754.862	28
756.036	30.5
757.209	27.5
758.382	27
759.553	26.5
760.725	28
761.898	28
763.07	28.5
764.242	29.5
765.414	30
766.584	32.5
767.755	28
768.927	28.5
770.098	30.5
771.269	28.5
772.438	30
773.608	28
774.779	28
775.949	29.5
777.117	33
778.287	34
779.457	31.5
780.626	31
781.794	31
782.963	31
784.132	27
785.299	29
786.468	31.5
787.636	33.5
788.803	32
789.971	33
791.139	29.5
792.305	33.5
793.472	29
794.638	32.5
795.805	29.5
796.972	29
798.138	28.5
799.304	30
800.469	30
801.635	31
802.801	29.5
803.966	32.5
805.131	24.5
806.295	32.5
807.461	27
808.624	30.5
809.789	31.5
810.952	31
812.117	31
813.28	29
814.444	29
815.607	31.5
816.769	27.5
817.933	30.5
819.095	24.5
820.258	29
821.42	30.5
822.583	27.5
823.744	28
824.905	29.5
826.068	30.5
827.228	28.5
828.389	27.5
829.551	27
830.711	28
831.871	29
833.032	32.5
834.192	30.5
835.352	26
836.513	28
837.672	30
838.831	30.5
839.99	30.5
841.15	28
842.308	30
843.466	29.5
844.624	32
845.784	21.5
846.941	26
848.099	30
849.256	29.5
850.414	30
851.572	28
852.729	28.5
853.886	29.5
855.042	27
856.198	30.5
857.355	30
858.512	33
859.668	28.5
860.823	31.5
861.979	28
863.134	34.5
864.289	30.5
865.444	29
866.599	27
867.753	29.5
868.908	26.5
870.062	29
871.216	31
872.37	27.5
873.523	28
874.677	31.5
875.83	30
876.983	31.5
878.136	31
879.289	29
880.441	25.5
881.594	27.5
882.746	24
883.898	29
885.05	29
886.201	30.5
887.353	28
888.504	29
889.655	25.5
890.806	30
891.956	24
893.107	27
894.257	32
895.407	28.5
896.557	32
897.707	22.5
898.856	30
900.005	26.5
901.154	27.5
902.304	26.5
903.453	27.5
904.6	27.5
905.749	30
906.897	26
908.046	28
909.192	30
910.34	26.5
911.488	25.5
912.634	28
913.782	25
914.929	29
916.076	26.5
917.222	30.5
918.368	32
919.515	24
920.66	26
921.806	27.5
922.951	28
924.097	33
925.242	27.5
926.387	28
927.532	30
928.676	26
929.821	27.5
930.965	24.5
932.109	27
933.253	24
934.396	28.5
935.54	23
936.683	27.5
937.826	25
938.969	27.5
940.112	28.5
941.254	28.5
942.397	24
943.538	26.5
944.681	25.5
945.822	27.5
946.964	27
948.105	26.5
949.246	31
950.388	27
951.528	27.5
952.669	30
953.809	25
954.949	31.5
956.09	27
957.229	26.5
958.369	28.5
959.509	25
960.648	28
961.786	25
962.926	29.5
964.065	31
965.203	28
966.342	29.5
967.48	25.5
968.618	30
969.755	29
970.894	28
972.031	26.5
973.168	26.5
974.305	31.5
975.441	27
976.579	27
977.715	24
978.851	26
979.987	26
981.123	28
982.26	27.5
983.395	28
984.531	28.5
985.666	30
986.8	26.5
987.935	27.5
989.07	26.5
990.204	29
991.338	26
992.472	25.5
993.607	23
994.741	27.5
995.874	28.5
997.008	24
998.141	25
999.274	25
1000.41	25
1001.54	24
1002.67	29
1003.8	26.5
1004.94	30
1006.07	26
1007.2	31
1008.33	30
1009.46	28.5
1010.59	24.5
1011.72	31
1012.85	22
1013.99	28.5
1015.12	26
1016.25	29.5
1017.38	25.5
1018.51	27
1019.63	27
1020.76	25.5
1021.89	24
1023.02	28.5
1024.15	26.5
1025.28	26.5
1026.41	26
1027.54	25
1028.67	24
1029.79	27.5
1030.92	22
1032.05	26
1033.18	29
1034.3	27.5
1035.43	27
1036.56	23
1037.68	23
1038.81	24.5
1039.94	29.5
1041.06	26
1042.19	27.5
1043.31	27
1044.44	29
1045.57	25
1046.69	27
1047.82	21
1048.94	23.5
1050.07	22.5
1051.19	26.5
1052.31	26
1053.44	29
1054.56	26.5
1055.69	24.5
1056.81	23.5
1057.93	30
1059.06	27.5
1060.18	26.5
1061.3	23.5
1062.42	28.5
1063.55	30.5
1064.67	27
1065.79	22.5
1066.91	27
1068.03	25
1069.16	25.5
1070.28	27.5
1071.4	22
1072.52	27.5
1073.64	27
1074.76	28.5
1075.88	25.5
1077	27
1078.12	26
1079.24	24.5
1080.36	28
1081.48	26.5
1082.6	26.5
1083.72	24
1084.84	23.5
1085.96	29
1087.08	24
1088.2	25
1089.31	28
1090.43	25
1091.55	23
1092.67	29
1093.78	27
1094.9	29
1096.02	25.5
1097.14	26
1098.25	26
1099.37	26
1100.49	31.5
1101.6	27
1102.72	22
1103.83	26
1104.95	24.5
1106.07	22.5
1107.18	27.5
1108.3	27
1109.41	28.5
1110.52	31
1111.64	25
1112.75	26
1113.87	24.5
1114.98	29
1116.1	29
1117.21	26
1118.32	25.5
1119.44	26.5
1120.55	26
1121.66	24.5
1122.78	28.5
1123.89	22.5
1125	25
1126.11	25
1127.23	26
1128.34	26
1129.45	26
1130.56	24
1131.67	27.5
1132.78	25
1133.89	29.5
1135	21
1136.12	23
1137.23	22.5
1138.34	26
1139.45	26
1140.56	24
1141.67	23
1142.78	26
1143.89	25.5
1144.99	25
1146.1	23
1147.21	24.5
1148.32	24
1149.43	27
1150.54	27
1151.65	22.5
1152.75	24.5
1153.86	25
1154.97	23.5
1156.08	22
1157.18	24.5
1158.29	22
1159.4	26
1160.5	26.5
1161.61	24.5
1162.72	24.5
1163.82	28.5
1164.93	26
1166.03	25.5
1167.14	25
1168.24	25.5
1169.35	24.5
1170.45	25.5
1171.56	26.5
1172.66	21
1173.77	27
1174.87	23.5
1175.98	23.5
1177.08	25
1178.19	23.5
1179.29	25
1180.39	25.5
1181.5	25.5
1182.6	24
1183.7	25
1184.8	25
1185.91	22.5
1187.01	22
1188.11	28
1189.21	25.5
1190.32	25.5
1191.42	25
1192.52	26.5
1193.62	26
1194.72	25.0017
1195.82	27.9041
1196.92	27.0639
1198.02	24.966
1199.12	22.071
1200.22	25.7961
1201.32	22.0241
1202.42	26.5231
1203.52	22.2407
1204.62	24.4625
1205.72	28.7597
1206.82	23.0986
1207.92	24.601
1209.02	18.5623
1210.12	27.81
1211.22	29.4961
1212.31	22.1232
1213.41	23.2866
1214.51	23.4747
1215.61	25.0376
1216.71	25.8699
1217.8	25.1982
1218.9	24.2926
1220	25.5655
1221.09	23.0407
1222.19	25.9817
1223.29	23.1591
1224.38	21.0622
1225.48	22.9051
1226.58	25.284
1227.67	23.8427
1228.77	25.759
1229.86	23.4191
1230.96	24.3331
1232.05	23.7936
1233.15	26.7337
1234.24	23.7807
1235.34	24.7078
1236.43	27.4648
1237.52	24.4464
1238.62	24.3679
1239.71	24.4067
1240.81	24.2243
1241.9	21.3107
1242.99	25.9858
1244.09	24.3703
1245.18	23.3288
1246.27	24.8601
1247.36	23.1661
1248.46	28.4169
1249.55	24.5211
1250.64	27
1251.73	25.7535
1252.82	22.0991
1253.92	23.9763
1255.01	26.7383
1256.1	25.3577
1257.19	28.3013
1258.28	25.9499
1259.37	27.1663
1260.46	26.3011
1261.55	27.0527
1262.64	25.7027
1263.73	23.1396
1264.82	24.5278
1265.91	25.0341
1267	27.2776
1268.09	25.3489
1269.18	25.5787
1270.27	25.9935
1271.36	26.9058
1272.45	27.5334
1273.53	23.1792
1274.62	24.6379
1275.71	23.888
1276.8	25.9613
1277.89	23.4544
1278.97	26.0066
1280.06	24.9313
1281.15	25.9332
1282.23	26.3908
1283.32	25.447
1284.41	23.632
1285.49	22.8365
1286.58	22.6286
1287.67	26.2984
1288.75	26.6855
1289.84	25.4144
1290.92	27.8132
1292.01	26.2272
1293.09	25.0208
1294.18	23.8139
1295.26	24.3349
1296.35	26.9449
1297.43	24.3159
1298.52	23.4547
1299.6	25.9571
1300.69	25.6627
1301.77	25.0417
1302.85	23.1486
1303.94	24.9727
1305.02	25.6477
1306.1	25.8334
1306.42	26
1307.51	25
1308.59	23.5
1309.68	26
1310.77	25.5
1311.86	26
1312.95	23.5
1314.03	26
1315.12	25.5
1316.21	26.5
1317.29	22.5
1318.38	23
1319.47	25
1320.55	25.5
1321.64	27.5
1322.72	26
1323.81	23
1324.89	23
1325.98	23.5
1327.07	23.5
1328.15	25
1329.24	24.5
1330.32	24
1331.4	23
1332.49	26
1333.57	22
1334.66	28
1335.74	24.5
1336.82	23
1337.91	25
1338.99	28
1340.07	23
1341.16	25.5
1342.24	26.5
1343.32	29
1344.4	27
1345.49	22
1346.57	25.5
1347.65	23.5
1348.73	21.5
1349.81	28.5
1350.9	29
1351.98	26
1353.06	24.5
1354.14	26
1355.22	28
1356.3	25.5
1357.38	23.5
1358.46	26.5
1359.54	28.5
1360.62	25
1361.7	25
1362.78	23
1363.86	28.5
1364.94	23.5
1366.02	23
1367.1	24
1368.17	21.5
1369.25	27
1370.33	23.5
1371.41	23.5
1372.49	26
1373.57	27.5
1374.64	24.5
1375.72	29.5
1376.8	22
1377.87	26
1378.95	24.5
1380.03	26.5
1381.1	23.5
1382.18	28.5
1383.26	26
1384.33	23.5
1385.41	25.5
1386.49	24
1387.56	27
1388.64	24.5
1389.71	24
1390.79	27.5
1391.86	23.5
1392.94	28
1394.01	25.5
1395.08	24.5
1396.16	29
1397.23	23
1398.31	27.5
1399.38	26.5
1400.45	31.5
1401.53	29
1402.6	32
1403.67	35.5
1404.75	27.5
1405.82	32.5
1406.89	26.5
1407.96	32.5
1409.04	34
1410.11	33
1411.18	30
1412.25	35
1413.32	30
1414.39	36
1415.47	31.5
1416.54	32
1417.61	31.5
1418.68	28.5
1419.75	29.5
1420.82	26.5
1421.89	29
1422.96	24
1424.03	28
1425.1	30.5
1426.17	28.5
1427.24	28
1428.31	25.5
1429.38	26.5
1430.44	27
1431.51	29.5
1432.58	29
1433.65	27
1434.72	25
1435.79	26.5
1436.85	28.5
1437.92	23
1438.99	26
1440.05	26
1441.12	26.5
1442.19	28.5
1443.26	26.5
1444.32	25
1445.39	29.5
1446.46	27
1447.52	27
1448.59	28.5
1449.65	23.5
1450.72	28.5
1451.78	24
1452.85	23.5
1453.91	27
1454.98	27.5
1456.04	25
1457.11	27
1458.17	23.5
1459.24	27.5
1460.3	27.5
1461.36	27.5
1462.43	28.5
1463.49	24
1464.56	27
1465.62	24
1466.68	24
1467.74	22
1468.81	28
1469.87	25.5
1470.93	26
1471.99	27.5
1473.06	27.5
1474.12	25
1475.18	26
1476.24	27.5
1477.3	20.5
1478.36	30
1479.42	25.5
1480.49	27
1481.55	26.5
1482.61	26
1483.67	29
1484.73	27.5
1485.79	28.5
1486.85	28
1487.91	26.5
1488.97	26
1490.03	27
1491.09	28
1492.14	27.5
1493.2	23.5
1494.26	24
1495.32	30.5
1496.38	24
1497.44	27
1498.49	24
1499.55	24
1500.61	23.5
1501.67	25
1502.72	26.5
1503.78	25
1504.84	22.5
1505.89	27.5
1506.95	26.5
1508.01	28
1509.07	25.5
1510.12	28
1511.18	30
1512.23	27.5
1513.29	25
1514.34	24.5
1515.4	28.5
1516.45	26
1517.51	21
1518.56	26
1519.62	23.5
1520.67	26
1521.73	25
1522.78	26
1523.84	25
1524.89	25.5
1525.94	24
1527	27.5
1528.05	25.5
1529.1	25.5
1530.16	29.5
1531.21	25.5
1532.26	25.5
1533.32	30
1534.37	26.5
1535.42	24.5
1536.47	27
1537.52	27
1538.57	22
1539.63	23.5
1540.68	26.5
1541.73	24.5
1542.78	23
1543.83	24
1544.88	23.5
1545.93	26.5
1546.98	26.5
1548.03	27.5
1549.08	26
1550.13	27.5
1551.18	26
1552.23	27
1553.28	24.5
1554.33	26.5
1555.38	25.5
1556.43	27
1557.48	30
1558.53	27
1559.57	22.5
1560.62	24.5
1561.67	29.5
1562.72	23
1563.77	25
1564.81	26
1565.86	25.5
1566.91	26.5
1567.96	26
1569	25
1570.05	27
1571.09	27
1572.14	29
1573.19	23
1574.23	25.5
1575.28	24
1576.33	29
1577.37	29
1578.42	28
1579.46	27
1580.51	25.5
1581.55	24.5
1582.6	26
1583.64	27
1584.69	25.5
1585.73	26.5
1586.77	25
1587.82	29
1588.86	25
1589.91	25
1590.95	27.5
1591.99	25.5
1593.04	25
1594.08	24
1595.12	26.5
1596.16	27
1597.21	25
1598.25	23.5
1599.29	27.5
1600.33	23.5
1601.37	24.5
1602.42	29
1603.46	25
1604.5	22
1605.54	26.5
1606.58	26.5
1607.62	25
1608.66	25.5
1609.7	27.5
1610.74	27.5
1611.78	23
1612.82	26.5
1613.86	23
1614.9	23.5
1615.94	28.5
1616.98	24
1618.02	27.5
1619.06	26
1620.1	26
1621.14	22
1622.18	26.5
1623.21	27
1624.25	23.5
1625.29	26.5
1626.33	26
1627.37	21
1628.4	26
1629.44	25.5
1630.48	22.5
1631.52	27
1632.55	23
1633.59	25.5
1634.63	27
1635.66	28
1636.7	29
1637.73	26
1638.77	28
1639.81	22
1640.84	29.5
1641.88	28.5
1642.91	25.5
1643.95	30
1644.98	25.5
1646.02	28
1647.05	24.5
1648.09	26
1649.12	29
1650.16	23
1651.19	23.5
1652.22	23
1653.26	25.5
1654.29	25.5
1655.32	28
1656.36	26.5
1657.39	25
1658.42	27
1659.46	26.5
1660.49	25
1661.52	24
1662.55	25.5
1663.59	26.5
1664.62	25.5
1665.65	26
1666.68	24
1667.71	27
1668.74	22
1669.77	26
1670.81	28.5
1671.84	24
1672.87	24.5
1673.9	25.5
1674.93	26.5
1675.96	28
1676.99	21
1678.02	23
1679.05	25
1680.08	22
1681.11	23
1682.13	23
1683.16	24.5
1684.19	28
1685.22	27.5
1686.25	27.5
1687.28	27.5
1688.31	22.5
1689.33	24.5
1690.36	26
1691.39	23
1692.42	23
1693.45	23
1694.47	27
1695.5	23.5
1696.53	22
1697.55	30
1698.58	22.5
1699.61	28.5
1700.63	24
1701.66	25
1702.68	28.5
1703.71	26.5
1704.74	21.5
1705.76	26
1706.79	24
1707.81	26.5
1708.84	28
1709.86	27
1710.89	26
1711.91	26.5
1712.94	25.5
1713.96	24
1714.98	26.5
1716.01	28
1717.03	27.5
1718.05	23
1719.08	21.5
1720.1	27
1721.12	25
1722.15	27.5
1723.17	26.5
1724.19	23.5
1725.22	29
1726.24	26.5
1727.26	22
1728.28	26.5
1729.3	28.5
1730.32	23.5
1731.35	21.5
1732.37	26
1733.39	25
1734.41	27
1735.43	27
1736.45	26.5
1737.47	25
1738.49	26
1739.51	28
1740.53	28.5
1741.55	26
1742.57	25.5
1743.59	25
1744.61	25
1745.63	30
1746.65	24.5
1747.67	24
1748.69	25
1749.71	28.5
1750.72	26.5
1751.74	26
1752.76	25
1753.78	26
1754.8	27.5
1755.81	20.5
1756.83	26.5
1757.85	23
1758.87	30.5
1759.88	25
1760.9	24
1761.92	23.5
1762.93	28
1763.95	27
1764.97	24
1765.98	24.5
1767	24
1768.01	23
1769.03	29
1770.05	26
1771.06	24
1772.08	27.5
1773.09	25
1774.11	24
1775.12	22
1776.13	27
1777.15	26
1778.16	24
1779.18	26.5
1780.19	23
1781.2	23
1782.22	28
1783.23	26.5
1784.24	26
1785.26	28
1786.27	25
1787.28	24.5
1788.3	23
1789.31	25
1790.32	25
1791.33	24.5
1792.35	23.5
1793.36	26
1794.37	27.5
1795.38	23.5
1796.39	25
1797.4	27.5
1798.41	23
1799.43	27.5
1800.44	26.5
1801.45	21
1802.46	27
1803.47	23.5
1804.48	25.5
1805.49	24.5
1806.5	23
1807.51	25
1808.52	28
1809.53	25
1810.53	21.5
1811.54	27.5
1812.55	24
1813.56	26.5
1814.57	26
1815.58	22
1816.59	26.5
1817.6	21.5
1818.6	24.5
1819.61	26
1820.62	24
1821.63	24
1822.63	23
1823.64	24
1824.65	26
1825.65	26
1826.66	21.5
1827.67	28
1828.67	26.5
1829.68	25
1830.69	22
1831.69	24
1832.7	27
1833.7	21.5
1834.71	22
1835.71	27
1836.72	28
1837.72	25
1838.73	28.5
1839.73	27
1840.74	25
1841.74	26.5
1842.75	26
1843.75	26
1844.75	21
1845.76	26.5
1846.76	23.5
1847.76	23
1848.77	25
1849.77	23.5
1850.77	23
1851.78	23
1852.78	27
1853.78	28
1854.78	28.5
1855.79	25
1856.79	27.5
1857.79	26
1858.79	28
1859.79	22
1860.8	25.5
1861.8	25
1862.8	23.5
1863.8	27
1864.8	26
1865.8	19
1866.8	25.5
1867.8	23
1868.8	27
1869.8	25.5
1870.8	28.5
1871.8	25
1872.8	25
1873.8	25.5
1874.8	25.5
1875.8	24
1876.8	24.5
1877.8	25
1878.79	23.5
1879.79	24
1880.79	24
1881.79	21
1882.79	23.5
1883.79	21
1884.78	25
1885.78	29
1886.78	26
1887.77	20
1888.77	23.5
1889.77	26
1890.77	24.5
1891.76	22
1892.76	23
1893.76	24
1894.75	23
1895.75	24
1896.74	22
1897.74	22
1898.73	22
1899.73	27.5
1900.72	25
1901.72	24
1902.72	22
1903.71	24.5
1904.7	25
1905.7	22.5
1906.69	24.5
1907.69	24.5
1908.68	27.5
1909.67	28.5
1910.67	24
1911.66	27.5
1912.66	21
1913.65	24
1914.64	22
1915.63	27
1916.63	22
1917.62	25.5
1918.61	27.5
1919.6	24.5
1920.6	24
1921.59	26
1922.58	25.5
1923.57	24
1924.56	24.5
1925.56	24.5
1926.55	29.5
1927.54	24.5
1928.53	28
1929.52	26.5
1930.51	27.5
1931.5	23
1932.49	22.5
1933.48	23
1934.47	25
1935.46	23
1936.45	26.5
1937.44	27
1938.43	24
1939.42	26
1940.41	23
1941.4	25.5
1942.39	25
1943.37	23
1944.36	29.5
1945.35	23
1946.34	26.5
1947.33	25.5
1948.32	25.5
1949.3	25
1950.29	24.5
1951.28	25
1952.27	24
1953.25	23.5
1954.24	21
1955.23	25
1956.21	21.5
1957.2	24
1958.19	26
1959.17	28
1960.16	24
1961.14	23
1962.13	26.5
1963.12	25.5
1964.1	23.5
1965.09	24.5
1966.07	24.5
1967.06	26
1968.04	27
1969.03	27
1970.01	26
1970.99	23.5
1971.98	24
1972.96	21
1973.95	24.5
1974.93	24
1975.92	23
1976.9	23.5
1977.88	25
1978.87	26
1979.85	23
1980.83	22.5
1981.81	26.5
1982.8	25.5
1983.78	26.5
1984.76	24
1985.74	24
1986.73	24
1987.71	23.5
1988.69	24
1989.67	21
1990.65	26
1991.63	21
1992.61	22
1993.59	24.5
1994.58	28
1995.56	25
1996.54	24.5
1997.52	22
1998.5	25
1999.48	25.5
2000.46	26
2001.44	27.5
2002.42	21.5
2003.4	24.5
2004.38	21.5
2005.35	22
2006.33	24.5
2007.31	23
2008.29	25
2009.27	26.5
2010.25	24
2011.23	24
2012.2	21.5
2013.18	25
2014.16	21.5
2015.14	24
2016.11	23.5
2017.09	23
2018.07	21.5
2019.05	18
2020.02	26.5
2021	20.5
2021.98	24
2022.95	27.5
2023.93	24
2024.91	26.5
2025.88	23.5
2026.86	22
2027.83	23
2028.81	21.5
2029.78	24
2030.76	24
2031.73	22.5
2032.71	20.5
2033.68	23
2034.66	28
2035.63	26
2036.61	24
2037.58	23
2038.56	25
2039.53	20.5
2040.5	23.5
2041.48	24.5
2042.45	25
2043.42	23
2044.4	29.5
2045.37	26
2046.34	27.5
2047.32	25
2048.29	22.5
2049.26	23
2050.23	21.5
2051.2	24
2052.18	25
2053.15	23.5
2054.12	23
2055.09	21.5
2056.06	26
2057.03	24.5
2058	26.5
2058.98	22
2059.95	25.5
2060.92	22.5
2061.89	21.5
2062.86	18.5
2063.83	22.5
2064.8	21.5
2065.77	24.5
2066.74	20.5
2067.71	22.5
2068.68	20.5
2069.65	22
2070.61	22
2071.58	24.5
2072.55	27
2073.52	24.5
2074.49	21
2075.46	17.5
2076.43	24
2077.4	23
2078.36	26
2079.33	20.5
2080.3	21.5
2081.27	23.5
2082.23	23.5
2083.2	23
2084.17	24.5
2085.13	23.5
2086.1	20
2087.07	28
2088.03	27
2089	22.5
2089.97	27
2090.93	25
2091.9	27.5
2092.86	23.5
2093.83	24
2094.8	23.5
2095.76	23
2096.73	23
2097.69	23
2098.66	24.5
2099.62	23
2100.58	26
2101.55	20.5
2102.51	25
2103.48	24
2104.44	19.5
2105.41	25.5
2106.37	24
2107.33	22.5
2108.3	24.5
2109.26	21.5
2110.22	26
2111.19	21
2112.15	23
2113.11	21.5
2114.07	27
2115.04	22.5
2116	26
2116.96	23
2117.92	23
2118.88	23.5
2119.85	24
2120.81	24.5
2121.77	27
2122.73	22.5
2123.69	22.5
2124.65	24
2125.61	27
2126.57	23.5
2127.53	24
2128.49	23
2129.45	24
2130.41	26
2131.37	25
2132.33	25
2133.29	26.5
2134.25	24
2135.21	25
2136.17	24
2137.13	25
2138.09	20.5
2139.05	24.5
2140.01	23.5
2140.96	23
2141.92	26.5
2142.88	23.995
2143.84	23.4504
2144.8	23.9887
2145.75	24.0251
2146.71	23.9662
2147.67	22.4334
2148.63	21.0788
2149.58	23.4283
2150.54	23.2741
2151.5	22.8092
2152.45	21.6854
2153.41	27.6876
2154.37	22.0396
2155.32	22.6311
2156.28	24.3299
2157.23	19.5267
2158.19	19.0933
2159.15	23.1407
2160.1	25.1517
2161.06	23.9043
2162.01	24.7657
2162.97	20.5904
2163.92	23.5267
2164.88	22.5252
2165.83	25.891
2166.78	23.2036
2167.74	24.7805
2168.69	22.7251
2169.65	23.3806
2170.6	24.2512
2171.56	19.4791
2172.51	21.399
2173.46	23.9544
2174.42	23.0303
2175.37	22.5081
2176.32	20.0181
2177.28	21.446
2178.23	23.1777
2179.18	19.162
2180.13	23.3055
2181.08	21.3008
2182.04	22.7671
2182.99	23.0189
2183.94	22.3444
2184.89	22.5799
2185.84	22.7197
2186.8	23.8541
2187.75	22.3256
2188.7	22.9536
2189.65	23.0637
2190.6	22.6722
2191.55	24.2249
2192.5	23.4696
2193.45	23.7378
2194.4	25.1214
2195.35	24.2306
2196.3	25.0348
2197.25	22.061
2198.2	20.9704
2199.15	21.7269
2200.1	22.3811
2201.05	21.7034
2202	21.6179
2202.95	21.497
2203.9	23.8602
2204.85	23.2006
2205.79	20.6375
2206.74	21.8277
2207.69	25.1783
2208.64	22.4713
2209.59	21.4205
2210.53	21.5579
2211.48	22.7651
2212.43	20.0964
2213.38	24.4751
2214.32	23.1609
2215.27	22.495
2216.22	17.2939
2217.17	22.4251
2218.11	22.582
2219.06	22.2316
2220.01	20.548
2220.95	22.264
2221.9	25.0224
2222.84	24.0563
2223.79	25.0323
2224.73	25.0671
2225.68	20.864
2226.63	21.7112
2227.57	23.5535
2228.52	22.0841
2229.46	23.5315
2230.41	21.7045
2231.35	22.0059
2232.3	23.7959
2233.24	22.4933
2234.18	22.1262
2235.13	24.8818
2236.07	23.682
2237.02	23.8822
2237.96	23.6137
2238.9	22.7064
2239.85	24.3855
2240.08	25
2241.03	21.5
2241.97	23
2242.92	23
2243.87	21
2244.82	23.5
2245.76	24.5
2246.71	24
2247.66	24
2248.61	24
2249.55	22
2250.5	27.5
2251.45	21.5
2252.39	24
2253.34	22
2254.29	23.5
2255.23	21
2256.18	23.5
2257.12	22.5
2258.07	22
2259.01	21.5
2259.96	23
2260.9	22.5
2261.85	23.5
2262.79	22.5
2263.74	24.5
2264.68	23.5
2265.63	23
2266.57	23.5
2267.52	26.5
2268.46	24
2269.41	24
2270.35	26.5
2271.29	22
2272.24	23.5
2273.18	28
2274.12	24.5
2275.07	26
2276.01	21
2276.95	21
2277.89	24.5
2278.84	22
2279.78	21
2280.72	24
2281.66	23
2282.6	26.5
2283.55	23.5
2284.49	23
2285.43	23
2286.37	25
2287.31	21.5
2288.25	24
2289.2	21.5
2290.14	23
2291.08	23.5
2292.02	21.5
2292.96	27
2293.9	23
2294.84	24
2295.78	21.5
2296.72	22.5
2297.66	21.5
2298.6	25
2299.54	24.5
2300.48	21
2301.42	25
2302.35	23
2303.29	21
2304.23	21
2305.17	24
2306.11	22
2307.05	25.5
2307.99	25.5
2308.92	21.5
2309.86	22.5
2310.8	27.5
2311.74	25
2312.67	24.5
2313.61	22
2314.55	23
2315.49	25.5
2316.42	21.5
2317.36	22.5
2318.3	23
2319.23	21
2320.17	19
2321.1	23.5
2322.04	20
2322.98	20.5
2323.91	20.5
2324.85	20
2325.78	19.5
2326.72	25
2327.66	22
2328.59	20.5
2329.52	21
2330.46	24
2331.39	19.5
2332.33	28
2333.26	23
2334.2	25.5
2335.13	20
2336.07	23
2337	23.5
2337.93	21.5
2338.87	23.5
2339.8	25
2340.73	23.5
2341.67	26
2342.6	24.5
2343.53	21.5
2344.46	26
2345.4	26
2346.33	23
2347.26	24
2348.19	24
2349.13	24
2350.06	26.5
2350.99	25.5
2351.92	26
2352.85	26
2353.79	27
2354.72	24.5
2355.65	23
2356.58	24
2357.51	22
2358.44	21
2359.37	21
2360.3	27
2361.23	25.5
2362.16	23
2363.09	24.5
2364.02	22
2364.95	26.5
2365.88	22
2366.81	21
2367.74	23.5
2368.67	26
2369.6	21
2370.53	24
2371.45	24.5
2372.38	25
2373.31	21
2374.24	24
2375.17	19
2376.1	20.5
2377.02	23.5
2377.95	23
2378.88	25
2379.81	25.5
2380.73	24.5
2381.66	24.5
2382.59	25
2383.52	19
2384.44	23.5
2385.37	23
2386.3	22.5
2387.22	23
2388.15	23
2389.07	23.5
2390	24.5
2390.93	24.5
2391.85	23.5
2392.78	24
2393.7	25
2394.63	26.5
2395.55	24
2396.48	24.5
2397.4	24.5
2398.33	24
2399.25	24
2400.18	23
2401.1	23.5
2402.03	23.5
2402.95	23.5
2403.87	21.5
2404.8	19.5
2405.72	25.5
2406.64	25
2407.57	23
2408.49	24
2409.41	25
2410.34	24
2411.26	23
2412.18	27.5
2413.1	22.5
2414.03	25.5
2414.95	23
2415.87	27.5
2416.79	25
2417.72	23
2418.64	23
2419.56	24
2420.48	24
2421.4	22
2422.32	25
2423.24	28.5
2424.16	23.5
2425.09	24
2426.01	22.5
2426.93	25.5
2427.85	23.5
2428.77	26
2429.69	18.5
2430.61	23.5
2431.53	26.5
2432.45	21
2433.37	27.5
2434.29	24
2435.21	26
2436.12	24.5
2437.04	26.5
2437.96	21.5
2438.88	23.5
2439.8	24.5
2440.72	27
2441.64	25.5
2442.55	26.5
2443.47	23.5
2444.39	26
2445.31	26
2446.23	22.5
2447.14	25
2448.06	26.5
2448.98	25
2449.9	21.5
2450.81	24
2451.73	22
2452.65	22
2453.56	25
2454.48	28.5
2455.39	22.5
2456.31	25.5
2457.23	22.5
2458.14	23.5
2459.06	25.5
2459.97	24
2460.89	25
2461.8	23
2462.72	23
2463.64	26
2464.55	22.5
2465.47	26
2466.38	24
2467.29	24
2468.21	26
2469.12	23
2470.04	26.5
2470.95	21
2471.86	23
2472.78	23.5
2473.69	27
2474.61	24
2475.52	21.5
2476.43	21
2477.35	20
2478.26	24.5
2479.17	23.5
2480.08	25
2481	26.5
2481.91	22.5
2482.82	28.5
2483.73	23
2484.64	22.5
2485.56	23.5
2486.47	24.5
2487.38	27
2488.29	23.5
2489.2	23.5
2490.11	23
2491.03	26.5
2491.94	28
2492.85	22
2493.76	25
2494.67	24
2495.58	25.5
2496.49	25
2497.4	25
2498.31	28.5
2499.22	22.5
2500.13	23.5
2501.04	27.5
2501.95	25.5
2502.86	26
2503.77	23
2504.67	22
2505.58	21
2506.49	27
2507.4	24.5
2508.31	26
2509.22	23
2510.13	19
2511.03	26
2511.94	26.5
2512.85	22.5
2513.76	24.5
2514.66	22.5
2515.57	25
2516.48	23
2517.39	27.5
2518.29	25
2519.2	23
2520.11	23.5
2521.01	21
2521.92	19
2522.83	25
2523.73	24
2524.64	27
2525.54	24.5
2526.45	21.5
2527.36	24
2528.26	24.5
2529.17	23
2530.07	23.5
2530.98	25.5
2531.88	22.5
2532.79	25.5
2533.69	27
2534.6	23
2535.5	30
2536.41	30
2537.31	28.5
2538.21	23.5
2539.12	23
2540.02	26.5
2540.93	23
2541.83	24.5
2542.73	22.5
2543.64	23.5
2544.54	21
2545.44	23.5
2546.34	23.5
2547.25	26
2548.15	23
2549.05	23.5
2549.96	25.5
2550.86	25
2551.76	28.5
2552.66	22
2553.56	22
2554.46	27
2555.37	21
2556.27	24
2557.17	22.5
2558.07	28
2558.97	26.5
2559.87	24
2560.77	21
2561.67	26
2562.57	26.5
2563.47	27
2564.37	23.5
2565.27	25.5
2566.17	25
2567.07	25.5
2567.97	24
2568.87	24
2569.77	26
2570.67	26
2571.57	26
2572.47	24
2573.37	26
2574.27	26.5
2575.17	21
2576.06	25.5
2576.96	22.5
2577.86	28.5
2578.76	26.5
2579.66	23.5
2580.56	24.5
2581.45	26.5
2582.35	24
2583.25	27
2584.15	22.5
2585.04	27
2585.94	24.5
2586.84	28
2587.73	20
2588.63	25.5
2589.53	21.5
2590.42	27
2591.32	24.5
2592.22	26
2593.11	26
2594.01	24.5
2594.9	29.5
2595.8	25.5
2596.69	23
2597.59	21
2598.48	26.5
2599.38	24.5
2600.28	24.5
2601.17	25
2602.06	23
2602.96	20
2603.85	28
2604.75	26
2605.64	21
2606.54	24
2607.43	23
2608.32	20.5
2609.22	24
2610.11	24
2611	22
2611.9	23.5
2612.79	24
2613.68	24.5
2614.58	23
2615.47	25
2616.36	22.5
2617.25	24
2618.15	27.5
2619.04	24
2619.93	26.5
2620.82	28.5
2621.71	23.5
2622.61	27.5
2623.5	19
2624.39	26
2625.28	26
2626.17	25.5
2627.06	24
2627.95	20.5
2628.84	25
2629.74	25
2630.63	24
2631.52	21.5
2632.41	25.5
2633.3	26
2634.19	27
2635.08	21
2635.97	24
2636.85	23
2637.74	21
2638.63	22
2639.52	25
2640.41	22.5
2641.3	25
2642.19	21
2643.08	22
2643.97	24.5
2644.86	23.5
2645.74	25.5
2646.63	25.5
2647.52	19
2648.41	24
2649.3	22.5
2650.18	29.5
2651.07	26
2651.96	23.5
2652.85	24
2653.73	31
2654.62	25.5
2655.51	25.5
2656.39	26
2657.28	25
2658.17	27
2659.05	24
2659.94	20
2660.83	26
2661.71	26
2662.6	24.5
2663.48	21
2664.37	22
2665.25	24
2666.14	25.5
2667.02	26
2667.91	26
2668.79	27
2669.68	22.5
2670.56	26
2671.45	23.5
2672.33	24.5
2673.22	24.5
2674.1	25
2674.98	25
2675.87	25
2676.75	22.5
2677.64	26.5
2678.52	19
2679.4	24
2680.29	28
2681.17	24.5
2682.05	25.5
2682.94	27
2683.82	22.5
2684.7	22.5
2685.58	24.5
2686.47	24.5
2687.35	24.5
2688.23	26
2689.11	23.5
2689.99	26.5
2690.88	20.5
2691.76	25
2692.64	25.5
2693.52	21.5
2694.4	23
2695.28	27
2696.16	24
2697.04	27
2697.92	27
2698.8	28.5
2699.69	20
2700.57	21
2701.45	25
2702.33	25
2703.21	24.5
2704.09	21.5
2704.97	25
2705.84	23.5
2706.72	21.5
2707.6	26
2708.48	23
2709.36	20
2710.24	25
2711.12	28
2712	24
2712.88	22.5
2713.75	26
2714.63	23.5
2715.51	26
2716.39	27.5
2717.27	25
2718.14	22.5
2719.02	28
2719.9	20
2720.78	24
2721.65	19.5
2722.53	23
2723.41	23.5
2724.28	22
2725.16	23
2726.04	25.5
2726.92	24
2727.79	27.5
2728.67	24.5
2729.54	26.5
2730.42	24
2731.3	27
2732.17	26.5
2733.05	26.5
2733.92	26
2734.8	25.5
2735.67	21.5
2736.55	25
2737.42	21.5
2738.3	25
2739.17	30.5
2740.05	26
2740.92	22
2741.79	22
2742.67	27.5
2743.54	23
2744.42	25.5
2745.29	25.5
2746.16	28.5
2747.04	26
2747.91	26.5
2748.78	25
2749.66	24.5
2750.53	26
2751.4	21.5
2752.28	23
2753.15	24.5
2754.02	26
2754.89	24.5
2755.77	20
2756.64	25.5
2757.51	20
2758.38	24
2759.25	24
2760.13	24
2761	22.5
2761.87	25
2762.74	24
2763.61	22
2764.48	24
2765.35	26
2766.22	25
2767.09	26.5
2767.96	26
2768.83	23.5
2769.71	25.5
2770.57	25
2771.44	27.5
2772.32	23.5
2773.18	22
2774.05	22.5
2774.92	26.5
2775.79	25.5
2776.66	24
2777.53	24.5
2778.4	26
2779.27	26
2780.14	24.5
2781.01	24
2781.87	25.5
2782.74	28
2783.61	26
2784.48	26
2785.35	26
2786.21	24
2787.08	24
2787.95	26.5
2788.82	25
2789.69	24.5
2790.55	27
2791.42	27.5
2792.29	26
2793.15	26
2794.02	21
2794.89	28.5
2795.75	23
2796.62	25
2797.49	26
2798.35	27
2799.22	26
2800.08	23
2800.95	24.75
2801.81	23.5
2802.68	26.5
2803.55	26
2804.41	25
2805.28	24
2806.14	25
2807	28
2807.87	26
2808.73	25.5
2809.6	29.5
2810.46	28.5
2811.33	28.5
2812.19	23
2813.06	21
2813.92	25
2814.78	27
2815.65	29
2816.51	23
2817.37	23.5
2818.24	28
2819.1	26.5
2819.96	27.5
2820.83	26
2821.69	30
2822.55	26
2823.41	26
2824.28	27
2825.14	24
2826	27
2826.86	23.5
2827.72	26
2828.58	24
2829.45	29.5
2830.31	26.5
2831.17	27
2832.03	26.5
2832.89	29
2833.75	29
2834.61	29
2835.47	27
2836.33	27
2837.2	24.5
2838.05	28
2838.92	28
2839.78	27
2840.64	29.5
2841.49	31
2842.35	29
2843.21	27
2844.07	27
2844.93	28
2845.79	23
2846.65	24
2847.51	22
2848.37	22
2849.23	28
2850.09	24.5
2850.94	23
2851.8	27.5
2852.66	24.5
2853.52	26.5
2854.38	23.5
2855.23	29.5
2856.09	24
2856.95	25.5
2857.81	28
2858.67	27.5
2859.52	24.5
2860.38	28.5
2861.24	25.5
2862.09	26
2862.95	20
2863.81	30.5
2864.66	27.5
2865.52	27
2866.38	24
2867.23	26
2868.09	29
2868.94	28
2869.8	30
2870.65	29
2871.51	29
2872.37	30
2873.22	28
2874.08	28.5
2874.93	30.5
2875.79	29
2876.64	31
2877.49	32
2878.35	31
2879.2	31.5
2880.06	35
2880.91	34.5
2881.77	32.5
2882.62	28
2883.47	33
2884.33	30.5
2885.18	34
2886.03	34
2886.89	35
2887.74	37
2888.59	36
2889.45	34.5
2890.3	39.5
2891.15	39
2892	43.5
2892.86	42
2893.71	46.5
2894.56	48.5
2895.41	48
2896.27	50
2897.12	54
2897.97	54
2898.82	58
2899.67	54.5
2900.52	59
2901.37	64
2902.23	66.5
2903.08	61
2903.93	69.5
2904.78	68.5
2905.63	76
2906.48	72.5
2907.33	71.5
2908.18	72.5
2909.03	69.5
2909.88	65.5
2910.73	63
2911.58	65
2912.43	58.5
2913.28	51
2914.13	52.5
2914.98	53
2915.83	52.5
2916.67	49
2917.52	46
2918.37	38
2919.22	43.5
2920.07	39.5
2920.92	33.5
2921.77	40.5
2922.61	34.5
2923.46	30
2924.31	26
2925.16	31
2926	30.5
2926.85	32
2927.7	32.5
2928.55	28
2929.39	28.5
2930.24	29
2931.09	31.5
2931.94	28
2932.78	28
2933.63	30.5
2934.47	26.5
2935.32	28
2936.17	29.5
2937.01	30
2937.86	28.5
2938.7	26
2939.55	30
2940.4	27
2941.24	26.5
2942.09	28
2942.93	30
2943.78	30
2944.62	28
2945.47	29.5
2946.31	28
2947.16	27
2948	32
2948.84	33
2949.69	30
2950.53	32
2951.38	31
2952.22	30.5
2953.06	32
2953.91	30.5
2954.75	32
2955.59	35
2956.44	35.5
2957.28	38
2958.12	39.5
2958.97	39
2959.81	37
2960.65	42.5
2961.5	39.5
2962.34	40
2963.18	41
2964.02	45
2964.86	40.5
2965.71	49
2966.55	43
2967.39	45.5
2968.23	43
2969.07	43.5
2969.91	43.5
2970.75	40
2971.6	40.4782
2972.44	36.9654
2973.28	39.3454
2974.12	34.932
2974.96	34.814
2975.8	35.826
2976.64	33.965
2977.48	31.1498
2978.32	35.5706
2979.16	29.6021
2980	31.3308
2980.84	30.6368
2981.68	28.7499
2982.52	28.6915
2983.36	24.4715
2984.2	27.2023
2985.04	30.9014
2985.88	28.4569
2986.71	25.7928
2987.55	28.4557
2988.39	28.2311
2989.23	25.2631
2990.07	25.6162
2990.91	26.0655
2991.75	27.0485
2992.58	25.6027
2993.42	25.5111
2994.26	24.5299
2995.1	25.4414
2995.93	28.1234
2996.77	25.3991
2997.61	25.3505
2998.45	24.8058
2999.28	23.5287
3000.12	24.5427
3000.96	23.5843
3001.79	22.1806
3002.63	24.5437
3003.47	24.3749
3004.3	23.1505
3005.14	24.417
3005.98	25.0519
3006.81	24.8111
3007.65	23.6745
3008.48	25.8543
3009.32	23.4417
3010.15	23.9678
3010.99	22.8445
3011.82	23.6584
3012.66	24.1811
3013.5	24.2646
3014.33	23.2604
3015.17	23.4751
3016	24.5544
3016.83	25.1732
3017.67	25.6029
3018.5	25.2267
3019.34	22.9268
3020.17	21.2627
3021.01	24.9018
3021.84	21.7503
3022.67	23.5044
3023.51	24.2201
3024.34	23.4015
3025.17	22.7665
3026.01	22.7204
3026.84	22.1921
3027.67	23.4776
3028.51	21.1838
3029.34	22.8867
3030.17	22.7112
3031	23.2388
3031.84	21.7689
3032.67	21.9083
3033.5	22.9635
3034.33	23.1238
3035.17	23.3842
3036	22.5419
3036.83	22.1239
3037.66	24.6159
3038.49	24.2964
3039.32	23.8419
3040.15	23.1099
3040.99	22.0103
3041.82	23.7634
3042.65	24.5
3043.48	22.8985
3044.31	22.3797
3045.14	22.5051
3045.97	20.6803
3046.8	20.1186
3047.63	20.7518
3048.46	21.528
3049.29	21.9763
3050.12	21.3218
3050.95	22.3357
3051.78	24.4577
3052.61	23.5306
3053.44	23.9126
3054.27	25.4946
3055.1	25.2199
3055.92	21.0437
3056.75	21.1817
3057.27	21.5
3058.11	21.5
3058.94	23
3059.77	20.5
3060.61	25
3061.44	21.5
3062.27	19.5
3063.11	23
3063.94	23
3064.77	20
3065.6	24.5
3066.43	19.5
3067.27	24
3068.1	21
3068.93	23.5
3069.76	23
3070.59	23.5
3071.42	21.5
3072.26	27
3073.09	22.5
3073.92	23
3074.75	25
3075.58	22
3076.41	22
3077.24	22
3078.07	19.5
3078.9	20
3079.73	24
3080.56	25
3081.39	26
3082.22	23
3083.05	21
3083.88	22.5
3084.71	22
3085.54	21.5
3086.37	21.5
3087.2	20
3088.03	27
3088.86	20
3089.69	24.5
3090.51	23.5
3091.34	21
3092.17	21
3093	25.5
3093.83	23.5
3094.66	24.5
3095.48	23
3096.31	22.5
3097.14	22
3097.97	25
3098.79	23
3099.62	22
3100.45	25
3101.28	24.5
3102.1	23
3102.93	21.5
3103.76	23
3104.58	24
3105.41	24.5
3106.24	23.5
3107.06	24
3107.89	22.5
3108.72	24.5
3109.54	26
3110.37	24
3111.19	24
3112.02	22
3112.84	23.5
3113.67	23
3114.49	22
3115.32	23
3116.15	19.5
3116.97	22
3117.8	23.5
3118.62	24
3119.44	23.5
3120.27	26
3121.09	24.5
3121.92	24.5
3122.74	22.5
3123.57	24.5
3124.39	26
3125.21	25.5
3126.04	26
3126.86	25
3127.68	25.5
3128.51	19.5
3129.33	25.5
3130.15	25.5
3130.98	24
3131.8	22
3132.62	21.5
3133.44	22
3134.27	23
3135.09	25
3135.91	27.5
3136.73	22
3137.56	23.5
3138.38	24
3139.2	26.5
3140.02	25
3140.84	19.5
3141.67	27
3142.49	24
3143.31	22
3144.13	22
3144.95	24.5
3145.77	25
3146.59	24
3147.41	26
3148.23	23
3149.05	23
3149.87	23.5
3150.69	27.5
3151.51	21.5
3152.33	26
3153.15	25.5
3153.97	25.5
3154.79	22
3155.61	20
3156.43	24.5
3157.25	24
3158.07	23
3158.89	22
3159.71	25
3160.53	23.5
3161.35	24
3162.17	24
3162.98	22.5
3163.8	26
3164.62	22.5
3165.44	23.5
3166.26	24
3167.07	27.5
3167.89	24
3168.71	21
3169.53	21
3170.35	23
3171.16	19
3171.98	21.5
3172.8	25.5
3173.61	25
3174.43	22.5
3175.25	24.5
3176.06	25
3176.88	24.5
3177.7	21
3178.51	22
3179.33	21
3180.15	26.5
3180.96	24.5
3181.78	24.5
3182.59	25
3183.41	21
3184.22	25.5
3185.04	22
3185.85	20.5
3186.67	22
3187.49	21
3188.3	25.5
3189.12	26
3189.93	25.5
3190.74	18.5
3191.56	24
3192.37	26.5
3193.19	24.5
3194	24
3194.82	24.5
3195.63	23
3196.44	26
3197.26	26.5
3198.07	23
3198.88	23
3199.7	23
3200.51	23
3201.32	22.5
3202.14	23.5
3202.95	27
3203.76	21
3204.58	21.5
3205.39	23
3206.2	25
3207.01	26.5
3207.83	24.5
3208.64	22.5
3209.45	24
3210.26	23.5
3211.07	26
3211.88	21.5
3212.7	24
3213.51	22
3214.32	23
3215.13	25
3215.94	28.5
3216.75	22
3217.56	25.5
3218.37	22
3219.18	21.5
3220	20.5
3220.8	21.5
3221.62	21.5
3222.43	24.5
3223.24	20.5
3224.05	25.5
3224.86	23
3225.67	21.5
3226.47	23.5
3227.28	23
3228.09	16
3228.9	25
3229.71	23
3230.52	25
3231.33	23.5
3232.14	26
3232.95	21
3233.76	24
3234.56	25
3235.37	23
3236.18	25
3236.99	22
3237.8	25
3238.61	22
3239.41	25
3240.22	22.5
3241.03	22.5
3241.84	23.5
3242.64	24
3243.45	22.5
3244.26	24
3245.07	24
3245.87	26.5
3246.68	22.5
3247.49	27.5
3248.29	23.5
3249.1	26
3249.9	25.5
3250.71	25
3251.52	22.5
3252.32	21
3253.13	24
3253.93	22.5
3254.74	22.5
3255.55	23.5
3256.35	23
3257.16	24
3257.96	25.5
3258.77	22
3259.57	22
3260.38	24
3261.18	25.5
3261.99	25.5
3262.79	22
3263.6	25
3264.4	24.5
3265.2	24
3266.01	23
3266.81	21.5
3267.62	28
3268.42	21
3269.22	23.5
3270.03	24
3270.83	19.5
3271.63	24
3272.44	21
3273.24	21
3274.04	22.5
3274.85	22.5
3275.65	28
3276.45	27.5
3277.25	24.5
3278.06	20
3278.86	21
3279.66	25.5
3280.46	23
3281.26	24
3282.07	24
3282.87	22
3283.67	26.5
3284.47	22
3285.27	22
3286.07	22.5
3286.87	23
3287.68	24
3288.48	26
3289.28	24
3290.08	26
3290.88	24.5
3291.68	22.5
3292.48	21
3293.28	24.5
3294.08	22
3294.88	21
3295.68	22
3296.48	24
3297.28	24.5
3298.08	23.5
3298.88	23.5
3299.68	25
3300.48	22
3301.28	24
3302.08	24.5
3302.88	21
3303.67	21
3304.47	25.5
3305.27	21.5
3306.07	25
3306.87	23
3307.67	26
3308.46	23
3309.26	27
3310.06	20.5
3310.86	24.5
3311.66	26.5
3312.45	24
3313.25	18.5
3314.05	23
3314.85	25
3315.64	25
3316.44	20.5
3317.24	24.5
3318.03	24
3318.83	26.5
3319.63	24
3320.42	22.5
3321.22	27
3322.02	23
3322.81	26
3323.61	24
3324.4	19.5
3325.2	23.5
3326	22.5
3326.79	24
3327.59	25
3328.38	24.5
3329.18	25
3329.97	26.5
3330.77	25
3331.56	28
3332.36	21
3333.15	24
3333.95	25
3334.74	27
3335.54	23
3336.33	27.5
3337.13	30.5
3337.92	25.5
3338.71	21.5
3339.51	26
3340.3	23
3341.1	27
3341.89	23
3342.68	26
3343.48	24
3344.27	22
3345.06	25
3345.85	25
3346.65	27.5
3347.44	19
3348.23	26
3349.03	23
3349.82	24
3350.61	23
3351.4	23.5
3352.19	26.5
3352.99	27.5
3353.78	26
3354.57	22
3355.36	27.5
3356.15	23
3356.94	29
3357.74	18
3358.53	24
3359.32	22.5
3360.11	23.5
3360.9	25
3361.69	22.5
3362.48	23.5
3363.27	25
3364.06	23.5
3364.85	25
3365.64	26
3366.43	22
3367.22	23
3368.01	23
3368.8	23.5
3369.59	24
3370.38	20
3371.17	23
3371.96	23
3372.75	25
3373.54	20
3374.33	22
3375.12	23.5
3375.91	24.5
3376.69	24
3377.48	27
3378.27	24
3379.06	23
3379.85	24.5
3380.64	22
3381.42	23.5
3382.21	25
3383	22.5
3383.79	28.5
3384.58	25
3385.36	22
3386.15	24.5
3386.94	23.5
3387.73	28.5
3388.51	21.5
3389.3	28.5
3390.09	24
3390.87	25.5
3391.66	24.5
3392.45	23.5
3393.23	22.5
3394.02	24.5
3394.81	23
3395.59	22.5
3396.38	25
3397.16	24.5
3397.95	25
3398.74	25.5
3399.52	20.5
3400.31	27
3401.09	24
3401.88	27
3402.66	28.5
3403.45	20.5
3404.23	24
3405.02	27
3405.8	25.5
3406.59	20
3407.37	29
3408.15	23.5
3408.94	25.5
3409.72	23.5
3410.51	22
3411.29	22
3412.07	23
3412.86	22
3413.64	26
3414.42	27
3415.21	24
3415.99	27.5
3416.78	23.5
3417.56	22.5
3418.34	28
3419.12	23.5
3419.91	24
3420.69	22.5
3421.47	24
3422.25	22.5
3423.04	22
3423.82	24.5
3424.6	19.5
3425.38	23.5
3426.16	25.5
3426.95	23.5
3427.73	24.5
3428.51	26
3429.29	23
3430.07	23.5
3430.85	21
3431.63	27
3432.42	21.5
3433.2	24
3433.98	23
3434.76	25
3435.54	26
3436.32	24.5
3437.1	24.5
3437.88	23
3438.66	26
3439.44	24.5
3440.22	25
3441	22
3441.78	27.5
3442.56	26
3443.34	24
3444.12	20.5
3444.9	26.5
3445.68	25.5
3446.45	26
3447.23	28
3448.01	22.5
3448.79	23.5
3449.57	25
3450.35	22
3451.13	25
3451.91	22
3452.68	23
3453.46	21
3454.24	28
3455.02	23
3455.79	25.5
3456.57	25
3457.35	23
3458.13	22.5
3458.91	24
3459.68	26.5
3460.46	28
3461.24	28
3462.01	24
3462.79	24
3463.57	23
3464.34	24
3465.12	29
3465.9	22.5
3466.67	26
3467.45	21.5
3468.22	22.5
3469	25.5
3469.78	26.5
3470.55	24
3471.33	21.5
3472.1	27.5
3472.88	24
3473.65	25.5
3474.43	21.5
3475.2	24
3475.98	24.5
3476.75	24
3477.53	27.5
3478.3	27
3479.08	30
3479.85	23
3480.63	24
3481.4	21
3482.18	23
3482.95	22.5
3483.72	21.5
3484.5	23.5
3485.27	24.5
3486.04	25
3486.82	26
3487.59	24.5
3488.36	24.5
3489.14	27
3489.91	20
3490.68	25.5
3491.46	25
3492.23	21.5
3493	26
3493.77	22
3494.55	19
3495.32	26.5
3496.09	24
3496.86	22
3497.64	23.5
3498.41	28
3499.18	22
3499.95	23.5
