#Acq. time (s)=	5
#Accumulations=	5
#Range (cm-¹)=	100...3500
#Windows=	4
#Autofocus=	Off
#AutoExposure=	Off
#Spike filter=	Multiple accum.
#Delay time (s)=	0
#Binning=	1
#Readout mode=	Signal
#DeNoise=	Off
#ICS correction=	Off
#Dark correction=	Off
#Inst. Process=	Off
#Instrument=	LabRAM HR Evol
#Detector=	Syncerity OE
#Objective=	x100_VIS
#Grating=	600 (500nm)
#ND Filter=	25%
#Laser=	633nm_Edge
#Hole=	100.021
#Range=	Visible
#Project=	verificaciones
#Sample=	at2
#Site=	lined
#Title=	bolusat2lined
#Remark=	
#Date=	13.01.2026 15:48
#Acquired=	13.01.2026 15:48:49
100.692	28.5
101.975	31
103.258	33.5
104.542	32.5
105.824	29
107.107	31.5
108.39	31
109.672	30
110.954	28.5
112.236	31
113.519	29
114.8	30
116.081	28.5
117.362	35.5
118.643	30.5
119.924	33.5
121.204	28
122.484	35.5
123.764	34.5
125.044	34.5
126.323	34.5
127.603	32
128.882	35
130.161	35
131.438	34
132.716	36
133.995	32
135.273	34.5
136.55	36
137.828	40
139.106	35.5
140.383	33
141.66	39
142.937	38.5
144.213	35.5
145.488	37
146.764	40.5
148.04	42.5
149.316	38
150.592	42
151.867	41.5
153.141	41
154.416	38.5
155.69	43
156.965	48
158.239	42.5
159.512	44
160.786	42.5
162.059	42.5
163.333	42.5
164.605	46
165.878	45
167.15	43
168.423	46.5
169.694	41
170.966	40.5
172.238	37.5
173.51	42
174.78	40
176.052	42
177.323	43
178.592	37
179.863	45.5
181.134	39.5
182.403	43.5
183.673	41
184.943	42
186.211	44.5
187.481	41
188.749	41
190.018	40
191.287	42.5
192.554	42
193.822	43
195.089	38.5
196.357	40.5
197.625	43.5
198.891	41.5
200.159	40
201.425	38.5
202.692	39
203.957	37.5
205.224	41
206.489	35
207.755	37.5
209.02	32
210.286	35
211.55	33
212.815	35.5
214.079	33.5
215.344	36
216.607	31
217.872	39.5
219.135	35
220.399	35.5
221.662	38
222.924	35.5
224.187	33.5
225.449	32.5
226.713	33
227.974	36
229.235	34
230.498	29.5
231.759	30
233.019	32.5
234.281	33
235.542	33
236.802	32.5
238.063	30
239.323	35.5
240.582	32
241.843	33
243.102	31
244.361	31
245.621	28.5
246.879	29.5
248.138	29.5
249.396	33.5
250.655	34
251.913	25
253.17	32.5
254.427	31.5
255.686	28
256.943	33
258.199	29
259.456	29
260.712	32.5
261.969	30.5
263.225	25.5
264.481	29.5
265.736	30
266.991	33
268.246	31
269.502	30.5
270.757	29.5
272.011	27
273.265	29.5
274.519	31.5
275.773	27.5
277.027	31
278.28	26
279.533	32
280.786	25
282.04	30
283.293	28.5
284.545	29
285.798	27
287.049	29
288.301	28
289.553	28
290.804	29
292.055	30
293.306	27.5
294.557	30.5
295.807	30
297.058	25.5
298.308	30
299.558	29
300.808	26.5
302.057	29.5
303.305	26
304.554	26
305.803	27
307.052	25.5
308.3	29
309.549	27
310.797	29
312.045	26.5
313.292	29
314.54	27
315.786	26
317.033	27.5
318.28	27.5
319.526	26.5
320.773	27.5
322.019	29.5
323.264	30
324.51	30
325.755	27
327.001	28.5
328.246	32
329.49	24
330.735	31.5
331.979	28
333.224	28.5
334.467	29
335.711	31.5
336.955	33
338.199	29.5
339.441	28
340.684	27.5
341.927	24.5
343.168	27.5
344.411	30
345.654	29
346.895	29.5
348.137	31
349.379	27
350.619	25
351.86	32.5
353.102	31
354.341	28.5
355.582	28
356.821	32
358.062	31
359.302	30.5
360.541	29
361.781	29
363.019	29.5
364.259	29.5
365.496	30
366.736	32
367.974	33.5
369.212	27
370.45	30
371.687	27.5
372.925	29
374.162	28
375.399	27
376.635	25.5
377.873	29.5
379.109	27.5
380.344	29
381.581	29
382.816	31.5
384.052	30.5
385.287	29
386.523	31.5
387.757	26.5
388.991	27.5
390.227	30.5
391.46	28
392.695	26
393.928	32
395.162	28.5
396.396	26
397.629	30
398.861	31
400.095	28.5
401.327	26
402.559	28
403.792	30.5
405.024	30.5
406.255	27
407.488	28.5
408.719	31.5
409.949	26
411.18	30.5
412.412	32.5
413.642	28.5
414.872	26
416.102	25.5
417.333	25.5
418.562	28.5
419.791	29
421.02	28
422.249	29.5
423.479	30
424.707	31.5
425.935	28.5
427.163	27.5
428.391	26
429.619	28.5
430.848	28
432.075	31
433.302	27
434.529	30
435.755	30
436.982	26.5
438.208	28
439.434	34
440.66	28.5
441.885	27
443.111	24.5
444.338	29
445.563	29.5
446.788	30.5
448.012	31
449.237	31
450.461	30
451.685	27.5
452.909	28.5
454.133	28.5
455.356	32
456.579	31
457.802	27.5
459.025	28.5
460.247	35
461.469	29.5
462.691	27
463.914	33
465.136	33
466.357	34
467.579	32.5
468.8	36
470.021	36.5
471.242	36
472.462	38.5
473.682	36.5
474.903	39.5
476.123	45
477.343	42
478.563	47.5
479.782	49
481	49
482.219	54.5
483.438	59.5
484.657	61
485.874	60
487.093	64.5
488.311	66.5
489.529	64.5
490.747	63.5
491.963	58
493.181	58.5
494.398	52
495.614	54
496.83	51.5
498.047	53
499.264	47
500.479	47.5
501.695	45.5
502.911	41.5
504.125	47.5
505.34	42
506.554	39
507.769	39.5
508.984	38
510.198	35.5
511.412	39.5
512.627	35
513.839	34
515.053	35.5
516.266	31.5
517.479	30.5
518.691	34.5
519.905	34.5
521.118	32
522.329	30
523.542	33.5
524.753	35
525.965	32
527.176	29
528.388	31.5
529.598	31.5
530.809	32.5
532.019	29.5
533.23	34
534.44	30.5
535.649	31.5
536.86	29.5
538.068	28
539.279	27.5
540.487	32.5
541.697	25
542.905	29
544.113	26.5
545.322	28.5
546.53	28.5
547.737	28
548.946	26
550.153	34
551.361	28.5
552.568	32.5
553.774	30.5
554.982	23.5
556.188	28
557.394	32.5
558.599	29.5
559.806	29
561.012	27
562.217	26
563.423	28.5
564.628	28
565.832	30
567.036	31.5
568.241	29
569.446	27
570.65	28.5
571.853	28.5
573.057	27.5
574.26	30
575.464	32
576.667	25
577.87	28
579.072	28
580.274	29.5
581.477	29
582.68	30
583.881	33
585.083	28
586.284	25.5
587.485	28.5
588.686	32
589.887	32
591.087	29
592.288	28.5
593.488	28
594.688	28
595.888	28
597.087	28
598.287	27.5
599.486	27
600.685	27
601.884	28.5
603.082	28.5
604.281	28.5
605.479	30
606.677	23.5
607.875	30.5
609.073	25.5
610.27	31
611.468	29
612.665	28
613.862	32
615.058	26
616.255	28.5
617.451	32
618.648	23
619.842	28.5
621.038	30
622.234	24
623.429	31
624.624	27
625.819	29
627.013	30
628.207	33.5
629.402	30
630.596	30
631.79	25
632.983	24.5
634.177	30.5
635.37	28.5
636.564	29
637.755	29.5
638.948	31.5
640.141	29.5
641.334	29
642.525	27
643.717	23.5
644.909	30.5
646.099	28.5
647.291	27
648.483	27
649.674	26.5
650.864	28
652.055	32.5
653.244	28
654.435	27.5
655.625	28.5
656.814	29
658.004	26.5
659.193	32
660.382	27.5
661.571	27.5
662.759	31.5
663.948	34.5
665.135	30
666.324	32
667.511	26.5
668.7	32.5
669.886	32
671.074	26
672.262	29.5
673.448	32
674.634	30.5
675.821	33
677.007	33
678.194	28.5
679.379	34
680.565	33
681.75	34
682.936	33.5
684.121	36
685.305	36
686.491	37.5
687.675	37
688.86	32
690.043	34
691.227	35.5
692.411	36.5
693.594	38
694.777	32
695.961	34.5
697.144	38
698.326	40.5
699.509	36.5
700.691	40
701.873	40
703.056	42.5
704.237	48.5
705.419	49.5
706.599	54
707.782	54.5
708.962	54
710.143	57
711.323	49.5
712.504	45
713.684	38
714.864	35
716.043	37
717.223	33
718.403	33
719.582	31
720.761	31
721.94	29
723.118	26
724.296	28
725.474	32
726.652	27
727.831	30
729.009	29
730.186	33
731.363	24
732.54	30.5
733.717	28.5
734.893	29.5
736.07	28.5
737.246	29
738.422	24.5
739.598	27
740.773	26
741.949	29
743.124	29.5
744.299	23.5
745.474	29.5
746.649	25
747.823	26
748.997	31
750.172	22
751.346	24.5
752.519	29
753.693	30
754.867	27
756.038	23
757.211	30
758.384	26.5
759.557	27.5
760.73	28
761.902	28.5
763.074	29.5
764.246	29
765.417	28.5
766.588	27.5
767.76	29.5
768.931	27.5
770.102	28.5
771.271	24.5
772.442	29
773.613	30
774.783	28.5
775.952	27.5
777.122	23
778.291	27.5
779.461	29
780.629	29.5
781.798	32.5
782.967	33.5
784.135	31
785.304	31
786.472	30
787.639	31.5
788.807	37
789.975	32
791.142	34.5
792.309	34
793.477	26.5
794.642	34.5
795.81	34.5
796.975	33.5
798.142	27.5
799.308	31
800.473	31
801.639	32.5
802.804	30.5
803.97	30.5
805.134	28
806.299	30.5
807.463	27.5
808.628	32.5
809.792	27
810.957	29
812.12	26
813.284	28.5
814.447	31.5
815.611	30.5
816.773	24.5
817.937	21.5
819.099	30.5
820.261	27
821.424	24.5
822.585	23
823.748	25
824.909	29.5
826.07	29.5
827.232	24
828.393	27.5
829.554	27.5
830.715	30
831.875	26.5
833.035	29
834.196	29
835.356	29
836.515	25
837.676	27.5
838.835	28.5
839.994	27
841.152	26.5
842.312	31
843.47	29.5
844.629	26
845.786	26
846.946	29
848.103	26.5
849.261	28
850.418	26
851.575	26
852.733	30
853.89	28
855.046	29.5
856.203	29.5
857.359	27
858.515	27.5
859.67	30
860.827	31
861.983	30
863.138	33.5
864.293	30
865.448	33
866.603	27.5
867.757	28.5
868.912	23.5
870.066	29
871.22	28.5
872.374	27.5
873.527	26.5
874.681	28
875.834	25.5
876.987	27
878.14	29
879.293	27
880.445	28
881.598	28.5
882.75	28
883.902	26.5
885.054	25.5
886.206	30
887.357	22
888.507	29
889.658	26
890.809	25.5
891.96	29
893.111	24.5
894.261	30.5
895.411	24
896.561	25.5
897.71	28.5
898.86	27.5
900.009	26
901.159	26
902.308	27
903.455	27
904.604	31.5
905.753	29.5
906.901	28.5
908.048	27.5
909.197	27
910.344	25.5
911.492	23.5
912.639	26
913.786	24
914.933	25.5
916.079	26.5
917.226	27
918.373	28
919.518	25.5
920.664	27.5
921.81	29.5
922.955	28
924.101	24
925.245	26.5
926.391	27
927.536	22
928.68	27.5
929.825	26.5
930.968	27
932.113	27.5
933.256	22
934.4	27
935.543	26
936.687	24
937.83	25.5
938.973	26.5
940.115	27.5
941.258	29
942.399	27
943.542	26.5
944.684	28
945.826	29
946.967	22
948.109	26.5
949.25	32.5
950.392	22
951.532	23.5
952.672	22
953.813	30
954.953	28
956.093	28.5
957.233	25
958.373	24
959.512	23.5
960.652	24
961.791	28
962.929	26.5
964.069	27.5
965.207	24.5
966.345	26.5
967.484	27
968.622	26
969.759	27.5
970.896	26
972.035	24.5
973.172	24
974.309	24.5
975.445	26
976.582	26.5
977.719	26
978.855	24
979.991	26
981.127	25
982.263	25.5
983.398	29.5
984.535	27
985.67	30
986.804	27
987.939	22
989.074	23
990.208	25
991.342	25.5
992.476	25
993.61	23
994.744	29
995.877	26
997.01	25.5
998.143	25.5
999.276	24.5
1000.41	25
1001.54	30
1002.67	25
1003.81	28
1004.94	25
1006.07	27.5
1007.2	28.5
1008.33	29
1009.47	26.5
1010.6	25
1011.73	24
1012.86	27
1013.99	23
1015.12	27
1016.25	24.5
1017.38	24.5
1018.51	25
1019.64	27.5
1020.77	22
1021.9	24
1023.03	26
1024.15	26.5
1025.28	24
1026.41	26.5
1027.54	24.5
1028.67	26.5
1029.8	24
1030.92	30.5
1032.05	27
1033.18	26.5
1034.31	26.5
1035.43	26
1036.56	22
1037.69	26
1038.81	23
1039.94	22
1041.07	26
1042.19	25.5
1043.32	28.5
1044.44	20.5
1045.57	24
1046.69	29
1047.82	24
1048.94	28.5
1050.07	25.5
1051.19	24.5
1052.32	24
1053.44	25
1054.57	25.5
1055.69	27
1056.81	24
1057.94	26
1059.06	24.5
1060.18	27
1061.31	28
1062.43	22
1063.55	28
1064.67	24
1065.8	27.5
1066.92	28
1068.04	25
1069.16	23
1070.28	29
1071.4	23
1072.52	33
1073.64	24
1074.76	21.5
1075.89	28
1077.01	28
1078.13	25.5
1079.25	23.5
1080.37	27.5
1081.49	28.5
1082.6	24.5
1083.72	24
1084.84	27
1085.96	28
1087.08	26
1088.2	25
1089.32	28
1090.43	29.5
1091.55	27.5
1092.67	24
1093.79	23
1094.91	24
1096.02	22
1097.14	26
1098.26	28
1099.37	30
1100.49	25.5
1101.61	23
1102.72	25.5
1103.84	27
1104.95	26.5
1106.07	23
1107.18	24.5
1108.3	26.5
1109.41	25.5
1110.53	25
1111.64	26
1112.76	23.5
1113.87	25
1114.99	22
1116.1	24
1117.21	23
1118.33	21.5
1119.44	22.5
1120.55	23
1121.67	24.5
1122.78	26.5
1123.89	26
1125	24
1126.12	24
1127.23	29.5
1128.34	25
1129.45	24
1130.56	27.5
1131.68	29
1132.79	26
1133.9	24.5
1135.01	28
1136.12	23
1137.23	22.5
1138.34	23
1139.45	28
1140.56	24.5
1141.67	21.5
1142.78	23
1143.89	24.5
1145	25
1146.11	27
1147.22	23.5
1148.32	21
1149.43	25
1150.54	25.5
1151.65	25
1152.76	27
1153.86	23
1154.97	28
1156.08	26
1157.19	27.5
1158.29	27
1159.4	22.5
1160.51	23.5
1161.61	22.5
1162.72	26.5
1163.83	27.5
1164.93	24
1166.04	25
1167.14	28
1168.25	30
1169.35	22.5
1170.46	22
1171.56	27.5
1172.67	24.5
1173.77	25.5
1174.88	25.5
1175.98	25
1177.08	26
1178.19	20
1179.29	24.5
1180.4	21
1181.5	21
1182.6	22
1183.71	28
1184.81	23.5
1185.91	31
1187.01	26
1188.12	23.5
1189.22	26
1190.32	24
1191.42	27
1192.52	27
1193.62	21
1194.72	24.97
1195.83	24.4604
1196.93	27.5119
1198.03	21.6157
1199.13	23.8684
1200.23	23.9517
1201.33	22.5573
1202.43	23.9272
1203.53	22.9855
1204.63	22.0158
1205.73	27.9816
1206.83	25.4909
1207.92	23.2332
1209.02	22.802
1210.12	27.8613
1211.22	22.215
1212.32	24.3067
1213.42	17.8947
1214.51	26.8483
1215.61	24.5518
1216.71	22.8972
1217.81	22.0338
1218.9	24.8668
1220	24.2241
1221.1	21.9752
1222.19	23.2777
1223.29	24.6797
1224.39	26.9976
1225.48	24.7773
1226.58	25.722
1227.68	23.4043
1228.77	25.8067
1229.87	23.2254
1230.96	25.9603
1232.06	26.4715
1233.15	23.6399
1234.25	23.3213
1235.34	23.0594
1236.43	25.9274
1237.53	25.5101
1238.62	22.2752
1239.72	26.1518
1240.81	22.9556
1241.9	25.5201
1243	23.5695
1244.09	25.116
1245.18	23.6011
1246.27	25.9394
1247.37	26.9961
1248.46	27
1249.55	24.2127
1250.64	27.2117
1251.74	25.0713
1252.83	24.2146
1253.92	26.8816
1255.01	25.7463
1256.1	26.9726
1257.19	26.9338
1258.28	26.0814
1259.38	26.178
1260.46	26.2179
1261.56	23.5079
1262.65	25.833
1263.74	26.576
1264.82	28.8443
1265.91	25.7932
1267	25.2913
1268.09	23.4379
1269.18	25.7341
1270.27	26.3759
1271.36	24.9363
1272.45	25.1562
1273.54	25.0922
1274.63	23.4127
1275.71	25.8076
1276.8	23.3808
1277.89	26.3588
1278.98	24.2969
1280.06	22.4916
1281.15	24.1418
1282.24	24.9369
1283.32	26.8806
1284.41	24.1292
1285.5	24.5108
1286.58	23.0071
1287.67	26.4148
1288.76	25.5955
1289.84	23.3165
1290.93	23.5153
1292.01	22.7951
1293.1	24.8896
1294.18	23.2709
1295.27	22.9468
1296.35	24.1776
1297.44	24.3172
1298.52	26.1299
1299.6	24.74
1300.69	24.2982
1301.77	26.3093
1302.86	26.4762
1303.94	22.1676
1305.02	23.7798
1306.11	21.0596
1306.41	19.5
1307.5	22.5
1308.59	24
1309.68	27
1310.77	24
1311.85	22
1312.94	24.5
1314.03	25
1315.11	24
1316.2	26
1317.29	27
1318.37	20
1319.46	21.5
1320.55	25
1321.63	24.5
1322.72	24.5
1323.8	25
1324.89	24.5
1325.98	28
1327.06	26.5
1328.15	25
1329.23	24.5
1330.31	22.5
1331.4	28
1332.48	27
1333.57	26.5
1334.65	24.5
1335.74	24
1336.82	26
1337.9	28
1338.99	26.5
1340.07	24
1341.15	25
1342.24	25
1343.32	22.5
1344.4	28
1345.48	22.5
1346.56	26.5
1347.65	24
1348.73	22.5
1349.81	23
1350.89	22
1351.97	22.5
1353.05	23.5
1354.13	29.5
1355.21	25.5
1356.29	25.5
1357.37	26
1358.46	25
1359.54	24.5
1360.62	26.5
1361.69	28.5
1362.77	27
1363.85	22
1364.93	25
1366.01	26
1367.09	26
1368.17	23.5
1369.25	29
1370.33	25
1371.41	24.5
1372.48	24
1373.56	26
1374.64	27
1375.72	26
1376.79	23.5
1377.87	29
1378.95	24.5
1380.02	24
1381.1	27
1382.18	24
1383.25	26
1384.33	28.5
1385.4	24.5
1386.48	25
1387.56	27
1388.63	27.5
1389.71	27
1390.78	23.5
1391.86	27
1392.93	26
1394.01	26
1395.08	28
1396.15	30
1397.23	28
1398.3	30.5
1399.38	28
1400.45	31
1401.52	28
1402.6	31
1403.67	31
1404.74	29
1405.81	28
1406.89	30
1407.96	31
1409.03	30.5
1410.1	27.5
1411.17	30
1412.25	34
1413.32	31.5
1414.39	34.5
1415.46	28.5
1416.53	29
1417.6	33
1418.67	29
1419.74	27.5
1420.81	27
1421.88	26
1422.95	31.5
1424.02	28
1425.09	28.5
1426.16	25
1427.23	27.5
1428.3	25.5
1429.37	27.5
1430.44	30
1431.51	28
1432.58	24
1433.64	27
1434.71	32
1435.78	29
1436.85	26
1437.92	28
1438.98	29.5
1440.05	24
1441.12	28.5
1442.18	27.5
1443.25	25
1444.32	28
1445.38	25
1446.45	24
1447.52	25
1448.58	31
1449.65	25.5
1450.71	25.5
1451.78	28
1452.84	31
1453.91	30
1454.97	23
1456.04	27
1457.1	25
1458.17	21.5
1459.23	24.5
1460.3	25
1461.36	20.5
1462.42	22
1463.49	26
1464.55	25
1465.61	29.5
1466.68	25.5
1467.74	25.5
1468.8	28.5
1469.86	27
1470.93	23
1471.99	26
1473.05	30
1474.11	22
1475.17	27
1476.24	26
1477.3	22
1478.36	28
1479.42	22.5
1480.48	26.5
1481.54	26.5
1482.6	23.5
1483.66	29.5
1484.72	22.5
1485.78	28
1486.84	33
1487.9	24.5
1488.96	21.5
1490.02	26.5
1491.08	27
1492.14	24.5
1493.2	26
1494.26	24.5
1495.31	27
1496.37	27
1497.43	23
1498.49	24
1499.55	22
1500.6	24
1501.66	26
1502.72	30
1503.78	24
1504.83	26.5
1505.89	28
1506.95	26.5
1508	24
1509.06	24
1510.12	25.5
1511.17	26
1512.23	17
1513.28	26.5
1514.34	26.5
1515.39	25.5
1516.45	28.5
1517.5	24.5
1518.56	24
1519.61	24
1520.67	30
1521.72	26
1522.78	28.5
1523.83	26.5
1524.88	26.5
1525.94	24.5
1526.99	23
1528.05	25
1529.1	27.5
1530.15	26
1531.2	28
1532.26	23
1533.31	26.5
1534.36	25.5
1535.41	26
1536.47	26.5
1537.52	26.5
1538.57	26.5
1539.62	27.5
1540.67	26
1541.72	26.5
1542.77	25.5
1543.83	23.5
1544.88	28.5
1545.93	24
1546.98	26
1548.03	26.5
1549.08	26
1550.13	28
1551.18	26.5
1552.23	25
1553.28	23
1554.32	22
1555.37	26.5
1556.42	29
1557.47	26
1558.52	21.5
1559.57	28.5
1560.62	23
1561.67	25.5
1562.71	27
1563.76	24.5
1564.81	25.5
1565.86	23.5
1566.9	27.5
1567.95	30
1569	23
1570.04	26
1571.09	24.5
1572.14	25
1573.18	25.5
1574.23	28
1575.27	26.5
1576.32	28.5
1577.37	26
1578.41	24
1579.46	31
1580.5	27.5
1581.55	28.5
1582.59	23.5
1583.64	25.5
1584.68	26.5
1585.72	24
1586.77	27
1587.81	25.5
1588.86	24.5
1589.9	26
1590.94	23
1591.99	25.5
1593.03	25.5
1594.07	23.5
1595.12	22.5
1596.16	30
1597.2	24
1598.24	27
1599.29	24
1600.33	23.5
1601.37	21
1602.41	24
1603.45	24.5
1604.49	25
1605.53	24
1606.58	26
1607.62	27.5
1608.66	27
1609.7	23
1610.74	26.5
1611.78	26.5
1612.82	23.5
1613.86	29.5
1614.9	24.5
1615.94	25.5
1616.98	27.5
1618.02	30
1619.06	22.5
1620.09	27
1621.13	26
1622.17	25
1623.21	25.5
1624.25	29.5
1625.29	26
1626.32	25.5
1627.36	24.5
1628.4	26.5
1629.44	21
1630.47	24
1631.51	22
1632.55	23
1633.58	26
1634.62	24
1635.66	22
1636.69	29
1637.73	25
1638.77	24.5
1639.8	25.5
1640.84	25.5
1641.87	28
1642.91	26
1643.94	28
1644.98	27.5
1646.01	23
1647.05	29
1648.08	23
1649.12	31
1650.15	22.5
1651.18	25
1652.22	27.5
1653.25	24
1654.29	27
1655.32	26.5
1656.35	26
1657.39	22
1658.42	25
1659.45	26
1660.48	27
1661.52	24
1662.55	24
1663.58	23
1664.61	25.5
1665.64	25.5
1666.68	25
1667.71	23
1668.74	28
1669.77	22
1670.8	25.5
1671.83	24.5
1672.86	27
1673.89	22.5
1674.92	24.5
1675.95	29
1676.98	26.5
1678.01	25
1679.04	28
1680.07	26.5
1681.1	24.5
1682.13	23
1683.16	28
1684.19	27
1685.22	28.5
1686.25	28
1687.27	27
1688.3	25
1689.33	26
1690.36	25.5
1691.38	29
1692.41	25
1693.44	27
1694.47	23
1695.49	27
1696.52	26
1697.55	25
1698.57	25
1699.6	25
1700.63	23
1701.65	22.5
1702.68	22
1703.7	25
1704.73	23
1705.76	25
1706.78	25
1707.81	22
1708.83	26.5
1709.86	27
1710.88	25
1711.91	21.5
1712.93	23
1713.95	23
1714.98	27
1716	27
1717.03	25
1718.05	28
1719.07	25
1720.1	27
1721.12	24
1722.14	22
1723.16	26.5
1724.19	27
1725.21	28
1726.23	24.5
1727.25	23
1728.28	26.5
1729.3	26
1730.32	25.5
1731.34	25
1732.36	24
1733.38	28
1734.41	24.5
1735.43	21.5
1736.45	25
1737.47	24
1738.49	27.5
1739.51	26.5
1740.53	22
1741.55	27
1742.57	21.5
1743.59	24
1744.61	25
1745.63	31
1746.64	25
1747.66	24.5
1748.68	25
1749.7	22.5
1750.72	24
1751.74	28
1752.76	25
1753.77	27.5
1754.79	29
1755.81	28.5
1756.83	24
1757.84	23
1758.86	22.5
1759.88	26
1760.9	22.5
1761.91	31
1762.93	24.5
1763.95	23.5
1764.96	28
1765.98	22
1766.99	29.5
1768.01	26.5
1769.02	25
1770.04	24
1771.06	23
1772.07	23.5
1773.09	26
1774.1	26.5
1775.12	28
1776.13	24
1777.14	28
1778.16	26
1779.17	30
1780.19	24
1781.2	26
1782.21	26
1783.23	22
1784.24	28.5
1785.25	27
1786.27	25.5
1787.28	27
1788.29	26.5
1789.3	25
1790.32	27
1791.33	23.5
1792.34	27.5
1793.35	25.5
1794.36	26
1795.38	25
1796.39	29.5
1797.4	24
1798.41	28
1799.42	23.5
1800.43	26
1801.44	22
1802.45	25
1803.46	22.5
1804.47	23
1805.48	24.5
1806.49	26.5
1807.5	26
1808.51	27.5
1809.52	21
1810.53	28
1811.54	26.5
1812.55	28
1813.56	24
1814.57	25
1815.57	22
1816.58	25.5
1817.59	21.5
1818.6	22.5
1819.61	23.5
1820.61	26
1821.62	23.5
1822.63	27.5
1823.64	25
1824.64	27
1825.65	26
1826.66	23
1827.66	25
1828.67	24
1829.68	24
1830.68	23.5
1831.69	23
1832.69	29
1833.7	23.5
1834.7	23.5
1835.71	26
1836.71	26
1837.72	29.5
1838.72	23
1839.73	25.5
1840.73	22.5
1841.74	25.5
1842.74	27
1843.75	25
1844.75	22.5
1845.75	21.5
1846.76	21.5
1847.76	25
1848.76	27
1849.77	22.5
1850.77	27
1851.77	26
1852.78	25
1853.78	24.5
1854.78	23.5
1855.78	27
1856.78	22
1857.79	29
1858.79	25.5
1859.79	26.5
1860.79	21
1861.79	22
1862.79	27
1863.79	24
1864.79	26
1865.79	27.5
1866.8	25.5
1867.8	25.5
1868.8	25
1869.8	25.5
1870.8	30
1871.8	23.5
1872.8	24
1873.79	19
1874.79	27.5
1875.79	22
1876.79	18
1877.79	25.5
1878.79	24.5
1879.79	26.5
1880.79	24.5
1881.78	22
1882.78	22.5
1883.78	26.5
1884.78	30
1885.77	24
1886.77	30
1887.77	22
1888.77	26
1889.76	21
1890.76	26.5
1891.76	24
1892.75	25
1893.75	22
1894.75	22.5
1895.74	25
1896.74	24
1897.73	24
1898.73	23.5
1899.73	20
1900.72	30.5
1901.72	23
1902.71	25.5
1903.7	21.5
1904.7	23
1905.69	23
1906.69	23.5
1907.68	27
1908.68	21
1909.67	24.5
1910.66	23
1911.66	28
1912.65	27
1913.64	25.5
1914.64	23.5
1915.63	24
1916.62	22.5
1917.62	22.5
1918.61	29
1919.6	27.5
1920.59	21.5
1921.58	26
1922.58	24
1923.57	27.5
1924.56	25
1925.55	28
1926.54	26.5
1927.53	27.5
1928.52	25.5
1929.51	25.5
1930.51	24.5
1931.5	25.5
1932.49	28
1933.48	24
1934.47	23
1935.46	22
1936.45	21
1937.44	24.5
1938.42	25.5
1939.41	23.5
1940.4	24.5
1941.39	22.5
1942.38	24
1943.37	25.5
1944.36	26
1945.35	25
1946.33	29
1947.32	21
1948.31	21.75
1949.3	22
1950.29	25
1951.27	25
1952.26	23.5
1953.25	22
1954.23	24
1955.22	22.5
1956.21	26
1957.19	22
1958.18	27.5
1959.17	25.5
1960.15	22.5
1961.14	21.5
1962.13	23
1963.11	25
1964.1	28
1965.08	24
1966.07	24
1967.05	25
1968.04	26.5
1969.02	23
1970.01	26
1970.99	20
1971.97	26.5
1972.96	24.5
1973.94	24.5
1974.93	22
1975.91	24.5
1976.89	22
1977.88	25
1978.86	29
1979.84	20
1980.83	29.5
1981.81	23
1982.79	26
1983.77	19
1984.76	20.5
1985.74	25.5
1986.72	24
1987.7	26
1988.68	23
1989.67	23.5
1990.65	25
1991.63	25
1992.61	23
1993.59	26.5
1994.57	26.5
1995.55	20
1996.53	25
1997.51	26
1998.49	20.5
1999.47	26
2000.45	22.5
2001.43	26
2002.41	23
2003.39	25
2004.37	24
2005.35	24.5
2006.33	27
2007.31	26
2008.29	23.5
2009.26	23
2010.24	23.5
2011.22	23.5
2012.2	23.5
2013.18	23
2014.15	25
2015.13	22
2016.11	23.5
2017.09	22
2018.06	23.5
2019.04	24
2020.02	26
2021	23
2021.97	24.5
2022.95	24.5
2023.92	24
2024.9	23
2025.88	24
2026.85	25
2027.83	24
2028.8	26.5
2029.78	24
2030.75	25
2031.73	27.5
2032.7	20.5
2033.68	25
2034.65	23
2035.63	26
2036.6	25
2037.58	21
2038.55	30
2039.52	21
2040.5	25.5
2041.47	24
2042.45	21
2043.42	24
2044.39	23.5
2045.36	21
2046.34	21.5
2047.31	25
2048.28	21.5
2049.26	21.5
2050.23	24
2051.2	24
2052.17	24
2053.14	27
2054.12	23
2055.09	24.5
2056.06	22.5
2057.03	25
2058	21.5
2058.97	22
2059.94	24.5
2060.91	23.5
2061.88	25
2062.85	23.5
2063.82	24.5
2064.79	22
2065.76	25.5
2066.73	28.5
2067.7	25
2068.67	26
2069.64	22
2070.61	21
2071.58	22
2072.55	26
2073.52	22
2074.49	23
2075.45	26.5
2076.42	26
2077.39	19.5
2078.36	24.5
2079.33	21
2080.29	25
2081.26	25.5
2082.23	23.5
2083.2	22
2084.16	25.5
2085.13	23
2086.1	24
2087.06	23.5
2088.03	24
2089	22.5
2089.96	20.5
2090.93	23
2091.89	23
2092.86	23.5
2093.83	24.5
2094.79	24.5
2095.76	23
2096.72	20.5
2097.69	21
2098.65	24
2099.62	21.5
2100.58	26.5
2101.55	22.5
2102.51	24.5
2103.47	22
2104.44	24
2105.4	21
2106.36	26
2107.33	19.5
2108.29	24
2109.25	24.5
2110.22	22.5
2111.18	27
2112.14	23
2113.11	27.5
2114.07	22
2115.03	24.5
2115.99	21.5
2116.96	23
2117.92	26.5
2118.88	24
2119.84	27
2120.8	25.5
2121.76	23
2122.72	23
2123.68	23.5
2124.65	26
2125.61	27
2126.57	25.5
2127.53	25
2128.49	22.5
2129.45	22
2130.41	27
2131.37	25
2132.33	23
2133.29	24
2134.25	23.5
2135.21	22.5
2136.17	24.5
2137.12	25.5
2138.08	19.5
2139.04	21
2140	26.5
2140.96	26.5
2141.92	25
2142.88	21.4913
2143.83	24.9352
2144.79	22.0607
2145.75	25.926
2146.71	23.9126
2147.66	21.0534
2148.62	25.2791
2149.58	20.6366
2150.53	23.5
2151.49	23.9428
2152.45	26.0592
2153.4	23.9804
2154.36	23.2241
2155.32	24.6793
2156.27	25.7736
2157.23	23.5118
2158.19	20.6578
2159.14	24.0655
2160.1	20.1908
2161.05	25.0139
2162.01	23.5786
2162.96	23.7853
2163.92	22.7624
2164.87	24.2792
2165.83	25.3857
2166.78	24.7031
2167.73	18.3281
2168.69	24.2731
2169.64	23.3144
2170.6	24.9349
2171.55	23.4283
2172.5	22.6962
2173.46	25.9722
2174.41	21.5064
2175.36	24.863
2176.32	23.2352
2177.27	23.2518
2178.22	24.4375
2179.18	23.4216
2180.13	22.1035
2181.08	24.7301
2182.03	25.7285
2182.98	20.7767
2183.94	20.7475
2184.89	22.7618
2185.84	24.1555
2186.79	23.7194
2187.74	22.8561
2188.69	26.7919
2189.64	21.866
2190.6	22.0362
2191.55	25.2574
2192.5	21.5538
2193.45	24.4789
2194.4	21.1362
2195.35	22.6567
2196.3	22.4987
2197.25	21.9431
2198.2	23.209
2199.15	21.8703
2200.1	23.1993
2201.04	22.8553
2201.99	24.3592
2202.94	19.6128
2203.89	23.3696
2204.84	21.1274
2205.79	22.5673
2206.74	21.5869
2207.69	24.5049
2208.63	21.4236
2209.58	23.8954
2210.53	23.4303
2211.48	21.5
2212.43	22.8384
2213.37	24.0092
2214.32	20.7436
2215.27	23.2897
2216.21	24.2177
2217.16	20.9943
2218.11	22.4628
2219.05	21.9055
2220	23.7357
2220.95	22.4038
2221.89	21.6498
2222.84	22.301
2223.78	20.3289
2224.73	20.9529
2225.68	25.3884
2226.62	24.7253
2227.57	24.8418
2228.51	24.56
2229.46	21.7466
2230.4	24.1882
2231.35	22.5136
2232.29	24.0071
2233.24	25.505
2234.18	22.5485
2235.12	25.776
2236.07	24.6179
2237.01	20.6398
2237.95	23.672
2238.9	24.5919
2239.84	24.1222
2240.06	24
2241.01	23.5
2241.96	19
2242.91	25.5
2243.86	22
2244.8	24.5
2245.75	23.5
2246.7	28
2247.65	21
2248.59	23
2249.54	23.5
2250.49	22.5
2251.43	23.5
2252.38	21.5
2253.33	22
2254.27	23.5
2255.22	19
2256.16	24
2257.11	22
2258.06	19.5
2259	24.5
2259.95	24.5
2260.89	25
2261.84	23.5
2262.78	21.5
2263.73	24
2264.67	24
2265.62	23
2266.56	23.5
2267.5	23
2268.45	26
2269.39	23.5
2270.34	24
2271.28	23
2272.22	21
2273.17	27
2274.11	21.5
2275.05	22
2276	23.5
2276.94	24
2277.88	21.5
2278.82	20
2279.77	25
2280.71	22.5
2281.65	23
2282.59	20
2283.53	24.5
2284.48	19.5
2285.42	27
2286.36	25
2287.3	23.5
2288.24	24
2289.18	21
2290.12	23.5
2291.06	24
2292	26
2292.94	28
2293.89	23
2294.83	25
2295.77	21
2296.71	21.5
2297.65	22
2298.58	25
2299.52	20.5
2300.46	23.5
2301.4	23
2302.34	21
2303.28	26.5
2304.22	24
2305.16	23.5
2306.1	22
2307.03	22.5
2307.97	20
2308.91	25.5
2309.85	22
2310.79	26
2311.72	23.5
2312.66	22.5
2313.6	27.5
2314.54	23
2315.47	22
2316.41	25
2317.35	21
2318.28	24
2319.22	21.5
2320.16	27.5
2321.09	25
2322.03	22.5
2322.96	24.5
2323.9	24
2324.84	23
2325.77	22
2326.71	24
2327.64	22
2328.58	25
2329.51	26
2330.45	23
2331.38	25.5
2332.32	22
2333.25	24
2334.18	30
2335.12	22.5
2336.05	21
2336.99	25.5
2337.92	23
2338.85	23
2339.79	26.5
2340.72	24.5
2341.65	20.5
2342.59	25.5
2343.52	27
2344.45	22.5
2345.39	22
2346.32	25
2347.25	23.5
2348.18	24
2349.11	25
2350.05	20.5
2350.98	22.5
2351.91	23.5
2352.84	24
2353.77	26
2354.7	23.5
2355.64	25
2356.57	20.5
2357.5	22.5
2358.43	26
2359.36	21
2360.29	26
2361.22	21.5
2362.15	23.5
2363.08	23.5
2364.01	24
2364.94	23
2365.87	23
2366.8	25.5
2367.73	21
2368.66	26.5
2369.58	18.5
2370.51	24
2371.44	25
2372.37	19.5
2373.3	21
2374.23	22
2375.16	22
2376.08	24
2377.01	24.5
2377.94	22.5
2378.87	22.5
2379.8	20
2380.72	25.5
2381.65	23
2382.58	21.5
2383.5	18.5
2384.43	23.5
2385.36	23
2386.28	24
2387.21	24
2388.14	22
2389.06	24.5
2389.99	20
2390.91	27
2391.84	21
2392.77	23.5
2393.69	24.5
2394.62	21.5
2395.54	25
2396.47	30
2397.39	25
2398.32	26.5
2399.24	23.5
2400.16	24.5
2401.09	23
2402.01	26.5
2402.94	22
2403.86	24.5
2404.78	25
2405.71	24
2406.63	25.5
2407.56	25.5
2408.48	27.5
2409.4	26.5
2410.32	23
2411.25	26
2412.17	24.5
2413.09	25.5
2414.02	24
2414.94	22
2415.86	24
2416.78	24
2417.7	23.5
2418.63	24
2419.55	21
2420.47	24
2421.39	19
2422.31	26
2423.23	24
2424.15	24.5
2425.07	25
2425.99	27
2426.92	23.5
2427.84	26
2428.76	27
2429.68	26
2430.59	24.5
2431.51	24.5
2432.43	26
2433.35	24.5
2434.27	25
2435.19	25
2436.11	27
2437.03	28
2437.95	25.5
2438.87	23.5
2439.79	22
2440.71	23.5
2441.62	27
2442.54	22
2443.46	23.5
2444.38	23
2445.3	25.5
2446.21	24.5
2447.13	23.5
2448.05	23.5
2448.97	23
2449.88	22
2450.8	25.5
2451.72	25.5
2452.63	24.5
2453.55	22
2454.47	22.5
2455.38	24
2456.3	24.5
2457.21	25
2458.13	25
2459.05	23
2459.96	27
2460.88	25.5
2461.79	25
2462.71	25
2463.62	24.5
2464.54	25
2465.45	26.5
2466.37	20
2467.28	26.5
2468.2	29
2469.11	28.5
2470.02	26.5
2470.94	25
2471.85	23.5
2472.77	22.5
2473.68	24
2474.59	24
2475.51	23
2476.42	22.5
2477.33	23.5
2478.25	24
2479.16	20.5
2480.07	27
2480.98	23.5
2481.9	25
2482.81	24.5
2483.72	26
2484.63	24
2485.55	21
2486.46	23
2487.37	23
2488.28	25
2489.19	24.5
2490.1	21
2491.01	21.5
2491.92	23.5
2492.83	26.5
2493.74	27.5
2494.66	28
2495.57	25
2496.48	26
2497.39	20
2498.3	25.5
2499.21	26.5
2500.12	24.5
2501.03	22
2501.93	24
2502.84	26.5
2503.75	25.5
2504.66	25
2505.57	24
2506.48	19
2507.39	22
2508.3	22.5
2509.21	26
2510.11	27
2511.02	23.5
2511.93	29.5
2512.84	24
2513.75	21.5
2514.65	25
2515.56	24.5
2516.47	23.5
2517.37	25.5
2518.28	21.5
2519.19	25
2520.09	25
2521	25.5
2521.91	23.5
2522.81	27
2523.72	24
2524.63	28.5
2525.53	22
2526.44	24.5
2527.34	23
2528.25	23
2529.16	22
2530.06	28
2530.97	23.5
2531.87	24.5
2532.78	26
2533.68	27
2534.58	24
2535.49	23
2536.39	24.5
2537.3	26
2538.2	24.5
2539.11	29
2540.01	23.5
2540.91	28
2541.82	26.5
2542.72	20
2543.62	22.5
2544.53	25
2545.43	19
2546.33	20
2547.23	25
2548.14	26
2549.04	27.5
2549.94	26.5
2550.84	29
2551.75	20.5
2552.65	23.5
2553.55	27
2554.45	26
2555.35	24
2556.26	26.5
2557.16	27.5
2558.06	22
2558.96	27.5
2559.86	21.5
2560.76	27
2561.66	27
2562.56	24.5
2563.46	26.5
2564.36	23
2565.26	22.5
2566.16	23.5
2567.06	25.5
2567.96	25
2568.86	25.5
2569.76	24
2570.66	25
2571.56	23.5
2572.46	25
2573.36	22.5
2574.26	27
2575.16	21
2576.05	25.5
2576.95	27
2577.85	23.5
2578.75	23.5
2579.65	24
2580.54	26.5
2581.44	27
2582.34	24.5
2583.24	26
2584.13	23
2585.03	26.5
2585.93	27
2586.83	25
2587.72	23
2588.62	23
2589.52	25.5
2590.41	22.5
2591.31	24.5
2592.2	24
2593.1	25
2594	22.5
2594.89	22.5
2595.79	23
2596.68	24.5
2597.58	21
2598.47	26.5
2599.37	23
2600.26	24
2601.16	22.5
2602.05	22
2602.95	23
2603.84	27
2604.74	26.5
2605.63	24.5
2606.52	24.5
2607.42	25.5
2608.31	27
2609.21	24
2610.1	27.5
2610.99	23.5
2611.89	24.5
2612.78	28.5
2613.67	24
2614.56	23
2615.46	25.5
2616.35	30
2617.24	26
2618.13	22.5
2619.03	25.5
2619.92	24
2620.81	23
2621.7	25.5
2622.59	22.5
2623.49	27.5
2624.38	27.5
2625.27	25.5
2626.16	26
2627.05	21.5
2627.94	24
2628.83	27
2629.72	24
2630.61	28
2631.5	26.5
2632.39	24.5
2633.28	23.5
2634.17	23.5
2635.06	26
2635.95	20.5
2636.84	24
2637.73	25.5
2638.62	24.5
2639.51	23
2640.4	25
2641.29	24.5
2642.18	23
2643.07	24
2643.96	27
2644.84	26.5
2645.73	22.5
2646.62	22.5
2647.51	24.5
2648.4	24.5
2649.28	23
2650.17	25
2651.06	25
2651.95	24
2652.83	25
2653.72	24
2654.61	24.5
2655.49	25
2656.38	25
2657.27	24.5
2658.16	21
2659.04	24.5
2659.93	26
2660.81	27.5
2661.7	28
2662.59	22
2663.47	26
2664.36	24.5
2665.24	24
2666.13	25.5
2667.01	24
2667.9	24
2668.78	25
2669.67	23
2670.55	22.5
2671.44	22
2672.32	22
2673.21	22
2674.09	24.5
2674.97	22
2675.86	21.5
2676.74	23
2677.62	26
2678.51	25
2679.39	24.5
2680.27	23
2681.16	28
2682.04	22
2682.92	26
2683.81	24.5
2684.69	22.5
2685.57	28.5
2686.45	24
2687.34	27.5
2688.22	28.5
2689.1	22
2689.98	24
2690.86	28
2691.75	25
2692.63	26
2693.51	27
2694.39	22.5
2695.27	25
2696.15	24
2697.03	23.5
2697.91	24
2698.79	24
2699.67	25.5
2700.55	25.5
2701.43	26
2702.31	24.5
2703.19	25
2704.07	18.5
2704.95	26.5
2705.83	26.5
2706.71	23.5
2707.59	24
2708.47	21.5
2709.35	27
2710.23	23
2711.11	23
2711.99	24
2712.86	21
2713.74	24
2714.62	24
2715.5	25
2716.38	25.5
2717.26	25
2718.13	19.5
2719.01	29
2719.89	24.5
2720.77	27.5
2721.64	22
2722.52	25
2723.4	22
2724.27	23.5
2725.15	24
2726.03	25
2726.9	25.5
2727.78	22.5
2728.66	21
2729.53	24.5
2730.41	26.5
2731.28	25
2732.16	22
2733.03	25.5
2733.91	22.5
2734.79	25
2735.66	27.5
2736.54	21
2737.41	23.5
2738.29	24
2739.16	26
2740.03	26
2740.91	27
2741.78	23.5
2742.66	25
2743.53	28.5
2744.41	23.5
2745.28	23
2746.15	22
2747.03	23.5
2747.9	24
2748.77	25.5
2749.65	24
2750.52	26.5
2751.39	19.5
2752.27	23
2753.14	27.5
2754.01	25.5
2754.88	26
2755.75	26.5
2756.63	23
2757.5	22
2758.37	27
2759.24	26
2760.11	22
2760.99	22
2761.86	24
2762.73	23.5
2763.6	26
2764.47	29.5
2765.34	27
2766.21	27.5
2767.08	25
2767.95	25.5
2768.82	25
2769.69	26
2770.56	27
2771.43	25
2772.3	25.5
2773.17	23.5
2774.04	25
2774.91	30
2775.78	26
2776.65	25.5
2777.52	25
2778.39	24
2779.26	24.5
2780.13	26
2780.99	25.5
2781.86	26.5
2782.73	22.5
2783.6	26.5
2784.47	25
2785.34	26.5
2786.2	22
2787.07	25
2787.94	26
2788.81	25
2789.67	28.5
2790.54	23
2791.41	27
2792.27	23.5
2793.14	24.5
2794.01	26
2794.87	25
2795.74	28
2796.61	22
2797.47	23.5
2798.34	23
2799.21	26.5
2800.07	22.5
2800.94	23.5
2801.8	24.5
2802.67	23.5
2803.53	26.5
2804.4	27
2805.26	23
2806.13	24.5
2806.99	22
2807.86	29.5
2808.72	26.5
2809.59	25
2810.45	27
2811.32	25
2812.18	29.5
2813.04	27
2813.91	26
2814.77	29
2815.64	28.5
2816.5	30
2817.36	26.5
2818.22	24
2819.09	25
2819.95	23.5
2820.81	26.5
2821.68	29
2822.54	24
2823.4	28.5
2824.26	25.5
2825.13	25
2825.99	27.5
2826.85	26
2827.71	29
2828.57	26.5
2829.44	29
2830.3	26
2831.16	26.5
2832.02	24.5
2832.88	27.5
2833.74	25.5
2834.6	24
2835.46	29
2836.32	28
2837.18	26
2838.04	25.5
2838.9	27.5
2839.76	24.5
2840.62	27
2841.48	30.5
2842.34	30
2843.2	26
2844.06	25
2844.92	25
2845.78	24
2846.64	24.5
2847.5	26
2848.36	24.5
2849.22	25.5
2850.08	28
2850.93	28
2851.79	28.5
2852.65	25.5
2853.51	23
2854.37	22
2855.22	29
2856.08	25
2856.94	26.5
2857.8	27
2858.65	28
2859.51	24
2860.37	25
2861.23	24
2862.08	25.5
2862.94	25
2863.79	28
2864.65	30
2865.51	27
2866.36	27
2867.22	26
2868.08	31
2868.93	28
2869.79	26.5
2870.64	25
2871.5	27.5
2872.35	30.5
2873.21	28
2874.06	29.5
2874.92	28
2875.77	30
2876.63	28.5
2877.48	26.5
2878.34	32
2879.19	27
2880.05	31
2880.9	31.5
2881.76	29
2882.61	32.5
2883.46	32.5
2884.32	29
2885.17	40
2886.02	34.5
2886.88	35
2887.73	34
2888.58	36.5
2889.44	36
2890.29	41
2891.14	42
2891.99	44.5
2892.85	44.5
2893.7	42.5
2894.55	42
2895.4	47.5
2896.25	51
2897.11	55
2897.96	50
2898.81	58
2899.66	61
2900.51	59
2901.36	63.5
2902.21	66
2903.07	71
2903.92	70
2904.77	72
2905.62	74
2906.47	73
2907.32	68
2908.17	65.5
2909.02	69
2909.87	68.5
2910.72	64
2911.57	63
2912.42	56.5
2913.27	60
2914.12	51.5
2914.97	48
2915.81	46
2916.66	44
2917.51	42
2918.36	38.5
2919.21	38.5
2920.06	35.5
2920.91	34.5
2921.75	35
2922.6	38.5
2923.45	34
2924.3	32.5
2925.15	30
2925.99	30
2926.84	30
2927.69	31.5
2928.54	27
2929.38	26.5
2930.23	31.5
2931.08	31.5
2931.92	31
2932.77	29.5
2933.62	27
2934.46	33
2935.31	29.5
2936.16	26.5
2937	30.5
2937.85	25
2938.69	29
2939.54	26
2940.38	29.5
2941.23	30
2942.08	33
2942.92	29
2943.77	30
2944.61	26
2945.46	25.5
2946.3	30.5
2947.15	29
2947.99	29
2948.83	32.5
2949.68	29.5
2950.52	28.5
2951.37	30
2952.21	34.5
2953.05	27
2953.9	36.5
2954.74	31
2955.58	31
2956.43	34
2957.27	32
2958.11	39
2958.96	37.5
2959.8	43
2960.64	43
2961.48	45.5
2962.33	42
2963.17	45
2964.01	44
2964.85	42
2965.69	41
2966.54	44
2967.38	40
2968.22	43
2969.06	44
2969.9	41
2970.74	42
2971.58	38.9806
2972.43	38.4018
2973.27	38.9522
2974.11	34.6019
2974.95	34.9503
2975.79	30.4911
2976.63	33.9178
2977.47	31.1782
2978.31	31.7568
2979.15	29.204
2979.99	29.0525
2980.83	29.4582
2981.67	27.7874
2982.51	28.0926
2983.35	29.9095
2984.19	29.2191
2985.03	31.2617
2985.86	30.4903
2986.7	25.4986
2987.54	28.0615
2988.38	26.3504
2989.22	25.3506
2990.06	24.7048
2990.9	23.1847
2991.73	26.2864
2992.57	26.3562
2993.41	23.1816
2994.25	27.5866
2995.09	24.7047
2995.92	27.6476
2996.76	24.1567
2997.6	25.5421
2998.44	23.0082
2999.27	25.0122
3000.11	23.2013
3000.95	25.2892
3001.78	23.2941
3002.62	24.2461
3003.46	23.5609
3004.29	23.9473
3005.13	24.8304
3005.96	25.3888
3006.8	23.2651
3007.64	22.8818
3008.47	23.7945
3009.31	23.3754
3010.14	22.0787
3010.98	23.2804
3011.81	22.8088
3012.65	21.7985
3013.48	21.2046
3014.32	23.1778
3015.15	22.3252
3015.99	21.7675
3016.82	24.1778
3017.66	21.5067
3018.49	22.553
3019.33	24.3184
3020.16	24.6376
3020.99	23.194
3021.83	21.4869
3022.66	20.946
3023.5	20.3766
3024.33	20.2751
3025.16	22.5288
3026	25.0501
3026.83	22.8029
3027.66	20.9989
3028.49	23.0741
3029.33	26.2796
3030.16	24.2884
3030.99	24.6147
3031.83	23.6458
3032.66	23.5407
3033.49	23.5556
3034.32	23.1486
3035.15	22.8194
3035.99	22.9786
3036.82	23.519
3037.65	22.7856
3038.48	21.9013
3039.31	21.9583
3040.14	23.9709
3040.97	23.9317
3041.81	21
3042.64	23.6866
3043.47	23.4083
3044.3	22.45
3045.13	24.378
3045.96	23.766
3046.79	24.4222
3047.62	24.7294
3048.45	21.44
3049.28	20.3498
3050.11	22.3078
3050.94	20.9511
3051.77	20.8139
3052.6	21.8761
3053.43	24.0948
3054.26	23.227
3055.08	24.6413
3055.91	26.272
3056.74	25.7826
3057.26	25.5
3058.09	22
3058.92	23
3059.76	26.5
3060.59	22.5
3061.42	20
3062.25	24.5
3063.09	25.5
3063.92	23
3064.75	23
3065.58	23.5
3066.42	21
3067.25	22.5
3068.08	23.5
3068.91	24.5
3069.74	25
3070.57	23
3071.41	21
3072.24	21
3073.07	25
3073.9	22
3074.73	22.5
3075.56	23
3076.39	22.5
3077.22	21
3078.05	21
3078.88	24.5
3079.71	25
3080.54	25.5
3081.37	23
3082.2	29
3083.03	23
3083.86	23.5
3084.69	25
3085.52	22
3086.35	26.5
3087.18	23
3088.01	26
3088.84	24
3089.67	26.5
3090.5	26.5
3091.32	20
3092.15	21.5
3092.98	24.5
3093.81	23
3094.64	23.5
3095.47	24
3096.29	24.5
3097.12	20
3097.95	24.5
3098.78	23.5
3099.6	23.5
3100.43	24
3101.26	25.5
3102.09	23.5
3102.91	23
3103.74	20.5
3104.57	25
3105.39	25
3106.22	21.5
3107.05	24
3107.87	23.5
3108.7	22.5
3109.52	21.5
3110.35	24
3111.18	22.5
3112	24.5
3112.83	21
3113.65	24.5
3114.48	25.5
3115.3	24.5
3116.13	25
3116.95	21.5
3117.78	25
3118.6	24.5
3119.43	26.5
3120.25	23
3121.08	22.5
3121.9	22
3122.72	22
3123.55	26.5
3124.37	22.5
3125.2	23
3126.02	21.5
3126.84	22.5
3127.67	23
3128.49	26
3129.31	21
3130.14	22.5
3130.96	25.5
3131.78	21
3132.61	21.5
3133.43	22.5
3134.25	23
3135.07	24.5
3135.89	23.5
3136.72	25
3137.54	21
3138.36	22.5
3139.18	19
3140	27.5
3140.83	22.5
3141.65	23.5
3142.47	26
3143.29	25.5
3144.11	23.5
3144.93	26
3145.75	23.5
3146.57	24
3147.4	24
3148.22	26.5
3149.04	24.5
3149.86	21.5
3150.68	22
3151.5	26
3152.32	24
3153.14	22
3153.96	25
3154.78	26.5
3155.59	19
3156.42	26
3157.23	25
3158.05	24.5
3158.87	24.5
3159.69	26
3160.51	20
3161.33	22
3162.15	23.5
3162.97	26.5
3163.78	23
3164.6	27.5
3165.42	23.5
3166.24	25
3167.06	23
3167.87	24
3168.69	25.5
3169.51	24.5
3170.33	25
3171.14	26
3171.96	25.5
3172.78	23.5
3173.6	23.5
3174.41	24
3175.23	26.5
3176.05	23.5
3176.86	22
3177.68	24.5
3178.5	23
3179.31	22
3180.13	23.5
3180.94	26
3181.76	23
3182.58	24
3183.39	20.5
3184.21	22.5
3185.02	20
3185.84	25
3186.65	24
3187.47	25
3188.28	23
3189.1	23.5
3189.91	26
3190.73	21.5
3191.54	23
3192.36	22
3193.17	25
3193.98	24
3194.8	25.5
3195.61	23.5
3196.43	26
3197.24	22.5
3198.05	23
3198.87	20.5
3199.68	27
3200.49	18.5
3201.31	23.5
3202.12	25.5
3202.93	26
3203.75	26
3204.56	24
3205.37	24
3206.18	22
3207	21.5
3207.81	24
3208.62	22
3209.43	26
3210.24	25.5
3211.06	23.5
3211.87	23
3212.68	25.5
3213.49	25
3214.3	20.5
3215.11	23.5
3215.92	25.5
3216.73	21
3217.55	22
3218.36	23
3219.17	25
3219.98	27
3220.79	20
3221.6	24
3222.41	23
3223.22	23
3224.03	27
3224.84	22.5
3225.65	22.5
3226.46	25
3227.27	21.5
3228.08	26
3228.89	20.5
3229.7	23.5
3230.5	24.5
3231.31	19.5
3232.12	24
3232.93	21.5
3233.74	27.5
3234.55	26
3235.36	22.5
3236.16	25
3236.97	20.5
3237.78	24
3238.59	24.5
3239.4	24.5
3240.2	23.5
3241.01	22
3241.82	23
3242.63	23
3243.43	26.5
3244.24	25.5
3245.05	25.5
3245.85	25.5
3246.66	25.5
3247.47	24.5
3248.27	27
3249.08	24
3249.89	20
3250.69	22.5
3251.5	21
3252.31	25
3253.11	29
3253.92	21.5
3254.72	22
3255.53	21.5
3256.33	24.5
3257.14	25.5
3257.94	21.5
3258.75	23.5
3259.55	21.5
3260.36	24.5
3261.16	27
3261.97	23.5
3262.77	26
3263.58	24.5
3264.38	26
3265.19	27.5
3265.99	22.5
3266.79	25.5
3267.6	21
3268.4	26
3269.21	21.5
3270.01	26
3270.81	25
3271.62	25
3272.42	26.5
3273.22	25
3274.03	26
3274.83	20.5
3275.63	24.5
3276.43	23.5
3277.24	23.5
3278.04	24
3278.84	25
3279.64	25
3280.45	24
3281.25	23.5
3282.05	23
3282.85	24.5
3283.65	28
3284.45	25.5
3285.26	26
3286.06	26.5
3286.86	26
3287.66	21
3288.46	26
3289.26	22
3290.06	25.5
3290.86	20.5
3291.66	20
3292.46	26.5
3293.26	27.5
3294.06	22.5
3294.86	22
3295.66	21
3296.46	25
3297.26	24
3298.06	26.5
3298.86	23
3299.66	24.5
3300.46	26
3301.26	26
3302.06	22.5
3302.86	22
3303.66	22
3304.46	23.5
3305.25	26.5
3306.05	23.5
3306.85	24
3307.65	23.5
3308.45	25.5
3309.25	27
3310.04	24.5
3310.84	24
3311.64	24.5
3312.44	21.5
3313.23	23.5
3314.03	25
3314.83	20.5
3315.63	24.5
3316.42	24.5
3317.22	24
3318.02	23
3318.81	23
3319.61	27
3320.41	23.5
3321.2	25
3322	20.5
3322.8	26
3323.59	23
3324.39	23
3325.18	25
3325.98	25
3326.78	24
3327.57	23
3328.37	21
3329.16	20
3329.96	24.5
3330.75	23.5
3331.55	21
3332.34	23.5
3333.14	20
3333.93	25
3334.73	25
3335.52	22
3336.31	23
3337.11	25.5
3337.9	25.5
3338.7	24
3339.49	22.5
3340.28	25
3341.08	26
3341.87	19.5
3342.66	19.5
3343.46	24
3344.25	25
3345.04	24
3345.84	27
3346.63	25.5
3347.42	27
3348.22	26
3349.01	27.5
3349.8	23
3350.59	22.5
3351.39	21.5
3352.18	22
3352.97	22.5
3353.76	26.5
3354.55	22
3355.35	25
3356.14	25
3356.93	25
3357.72	25
3358.51	24.5
3359.3	23
3360.09	27
3360.88	22
3361.67	22
3362.46	26.5
3363.26	24
3364.05	26
3364.84	24.5
3365.63	25
3366.42	23
3367.21	20
3368	24.5
3368.79	27
3369.58	26
3370.37	23
3371.15	21.5
3371.94	24
3372.73	26.5
3373.52	25
3374.31	21.5
3375.1	22
3375.89	27.5
3376.68	26.5
3377.47	23.5
3378.26	27
3379.04	26
3379.83	26.5
3380.62	22
3381.41	25
3382.2	24.5
3382.98	21.5
3383.77	21.5
3384.56	25
3385.35	23
3386.13	28.5
3386.92	23
3387.71	23.5
3388.5	28
3389.28	25
3390.07	20
3390.86	26
3391.64	19
3392.43	24
3393.22	24
3394	25.5
3394.79	19.5
3395.57	26
3396.36	26
3397.15	26.5
3397.93	18.5
3398.72	27
3399.5	20.5
3400.29	20.5
3401.07	23
3401.86	30
3402.65	20.5
3403.43	26
3404.21	25.5
3405	24.5
3405.78	23.5
3406.57	22
3407.35	24
3408.14	27
3408.92	26.5
3409.71	21
3410.49	20
3411.27	24
3412.06	22
3412.84	21.5
3413.62	24
3414.41	26.5
3415.19	21
3415.97	23.5
3416.76	25.5
3417.54	24.5
3418.32	25
3419.11	26
3419.89	27
3420.67	24
3421.46	25.5
3422.24	23
3423.02	23.5
3423.8	23.5
3424.58	24
3425.37	23
3426.15	23
3426.93	25
3427.71	26
3428.49	23
3429.27	25.5
3430.05	20.5
3430.84	23
3431.62	24
3432.4	26
3433.18	24.5
3433.96	26
3434.74	24
3435.52	25
3436.3	23.5
3437.08	25.5
3437.86	25.5
3438.64	25
3439.42	25
3440.2	24.5
3440.98	22
3441.76	22.5
3442.54	22
3443.32	24.5
3444.1	25.5
3444.88	26
3445.66	24.5
3446.44	27.5
3447.22	27.5
3448	25.5
3448.77	28
3449.55	28.5
3450.33	20
3451.11	21.5
3451.89	20.5
3452.67	24.5
3453.45	24
3454.22	23.5
3455	27
3455.78	21
3456.56	27
3457.33	20.5
3458.11	25
3458.89	26.5
3459.67	21
3460.44	23
3461.22	19.5
3462	22
3462.77	21
3463.55	26.5
3464.33	24.5
3465.1	22
3465.88	22
3466.66	25
3467.43	27
3468.21	24.5
3468.98	25
3469.76	23.5
3470.54	25
3471.31	27
3472.09	25
3472.86	18.5
3473.64	26
3474.41	21
3475.19	26
3475.96	27
3476.74	24.5
3477.51	20.5
3478.29	22
3479.06	26.5
3479.84	26
3480.61	26
3481.39	24
3482.16	26
3482.93	24
3483.71	23.5
3484.48	24.5
3485.25	24
3486.03	22
3486.8	24
3487.57	21.5
3488.35	29
3489.12	22.5
3489.89	26
3490.67	26.5
3491.44	27
3492.21	22
3492.99	26
3493.76	21
3494.53	26
3495.3	25
3496.08	28.5
3496.85	25
3497.62	22
3498.39	25
3499.16	21.5
3499.93	21.5
