#Acq. time (s)=	5
#Accumulations=	5
#Range (cm-¹)=	100...3500
#Windows=	4
#Autofocus=	Off
#AutoExposure=	Off
#Spike filter=	Multiple accum.
#Delay time (s)=	0
#Binning=	1
#Readout mode=	Signal
#DeNoise=	Off
#ICS correction=	Off
#Dark correction=	Off
#Inst. Process=	Off
#Instrument=	LabRAM HR Evol
#Detector=	Syncerity OE
#Objective=	x100_VIS
#Grating=	600 (500nm)
#ND Filter=	25%
#Laser=	633nm_Edge
#Hole=	100.021
#Range=	Visible
#Project=	verificaciones
#Sample=	at2
#Site=	lined
#Title=	bolusat2lined
#Remark=	
#Date=	13.01.2026 15:51
#Acquired=	13.01.2026 15:51:09
100.692	28
101.975	34
103.258	33
104.542	33
105.824	31
107.107	29.5
108.39	29
109.672	27
110.954	32
112.236	30
113.519	30.5
114.8	30
116.081	32
117.362	32.5
118.643	28
119.924	28
121.204	33.5
122.484	31
123.764	37.5
125.044	36.5
126.323	32
127.603	32
128.882	38
130.161	38
131.438	37
132.716	33
133.995	34.5
135.273	37.5
136.55	36
137.828	36
139.106	38
140.383	33
141.66	41
142.937	37
144.213	44
145.488	37.5
146.764	37
148.04	40
149.316	44.5
150.592	44
151.867	42.5
153.141	42
154.416	43
155.69	40.5
156.965	44
158.239	43
159.512	41
160.786	48
162.059	39
163.333	40
164.605	35.5
165.878	42
167.15	43.5
168.423	43.5
169.694	41
170.966	44.5
172.238	37
173.51	38.5
174.78	37.5
176.052	45
177.323	46.5
178.592	35.5
179.863	38
181.134	40
182.403	44.5
183.673	52
184.943	42.5
186.211	42.5
187.481	45
188.749	42.5
190.018	43
191.287	45.5
192.554	43.5
193.822	41.5
195.089	44
196.357	37.5
197.625	44.5
198.891	42.5
200.159	33
201.425	37.5
202.692	43
203.957	39.5
205.224	36
206.489	39
207.755	39.5
209.02	40
210.286	34
211.55	37
212.815	36
214.079	34
215.344	36.5
216.607	34.5
217.872	33.5
219.135	35.5
220.399	33
221.662	34.5
222.924	33
224.187	34.5
225.449	33
226.713	32.5
227.974	33
229.235	30.5
230.498	27
231.759	28.5
233.019	31
234.281	35.5
235.542	30.5
236.802	30.5
238.063	29
239.323	34
240.582	26.5
241.843	31.5
243.102	30.5
244.361	30
245.621	32.5
246.879	33.5
248.138	30
249.396	33
250.655	30
251.913	32
253.17	29
254.427	32.5
255.686	31
256.943	29.5
258.199	28.5
259.456	29
260.712	29
261.969	32.5
263.225	32.5
264.481	33
265.736	31
266.991	30.5
268.246	31.5
269.502	25
270.757	32
272.011	27
273.265	28.5
274.519	30
275.773	31.5
277.027	28.5
278.28	29
279.533	30.5
280.786	28
282.04	26
283.293	27
284.545	27
285.798	34
287.049	27
288.301	28.5
289.553	26.5
290.804	26.5
292.055	30
293.306	26
294.557	30.5
295.807	29
297.058	27.5
298.308	27
299.558	26.5
300.808	27
302.057	29
303.305	30
304.554	30.5
305.803	27.5
307.052	29
308.3	25
309.549	29
310.797	28
312.045	28.5
313.292	25.5
314.54	31
315.786	31
317.033	24
318.28	22
319.526	25
320.773	26.5
322.019	29
323.264	25
324.51	28
325.755	27.5
327.001	28.5
328.246	26
329.49	29
330.735	29
331.979	26.5
333.224	28
334.467	32.5
335.711	28.5
336.955	26
338.199	28.5
339.441	31
340.684	25.5
341.927	28.5
343.168	29
344.411	30.5
345.654	30
346.895	30
348.137	26.5
349.379	26.5
350.619	26
351.86	30.5
353.102	28
354.341	29
355.582	27
356.821	27.5
358.062	27.5
359.302	27.5
360.541	27
361.781	31.5
363.019	28
364.259	30
365.496	29.5
366.736	26
367.974	29
369.212	24
370.45	29
371.687	31
372.925	25
374.162	30.5
375.399	27.5
376.635	24
377.873	26
379.109	28.5
380.344	24
381.581	31
382.816	24
384.052	26
385.287	27.5
386.523	31
387.757	24
388.991	28
390.227	28.5
391.46	25
392.695	29.5
393.928	27.5
395.162	29
396.396	25
397.629	25
398.861	35.5
400.095	24
401.327	28.5
402.559	25.5
403.792	27
405.024	27
406.255	26.5
407.488	31.5
408.719	25.5
409.949	27.5
411.18	28
412.412	30.5
413.642	26.5
414.872	29
416.102	30
417.333	25
418.562	25.5
419.791	27.5
421.02	26
422.249	30
423.479	30.5
424.707	27.5
425.935	25
427.163	24.5
428.391	25.5
429.619	28.5
430.848	24.5
432.075	25
433.302	28
434.529	30.5
435.755	27
436.982	29.5
438.208	28.5
439.434	32
440.66	29
441.885	29
443.111	26
444.338	31.5
445.563	27
446.788	29
448.012	28.5
449.237	33.5
450.461	26.5
451.685	26
452.909	26
454.133	31
455.356	30
456.579	31
457.802	34
459.025	29.5
460.247	26.5
461.469	29.5
462.691	31.5
463.914	31
465.136	31
466.357	34
467.579	35
468.8	34.5
470.021	33
471.242	34
472.462	37
473.682	39
474.903	35.5
476.123	42.5
477.343	46.5
478.563	45.5
479.782	49
481	53.5
482.219	55
483.438	57
484.657	61
485.874	63
487.093	59
488.311	64.5
489.529	67
490.747	66.5
491.963	54
493.181	60.5
494.398	53.5
495.614	60
496.83	50.5
498.047	50.5
499.264	50.5
500.479	50.5
501.695	36
502.911	41.5
504.125	43
505.34	41.5
506.554	38
507.769	36
508.984	35.5
510.198	36
511.412	39
512.627	33.5
513.839	35
515.053	33
516.266	32
517.479	36
518.691	34.5
519.905	31.5
521.118	31.5
522.329	29
523.542	32
524.753	36.5
525.965	33
527.176	30.5
528.388	28.5
529.598	30
530.809	37
532.019	28
533.23	31.5
534.44	28
535.649	28
536.86	34
538.068	34.5
539.279	27.5
540.487	30
541.697	29
542.905	30.5
544.113	27
545.322	30.5
546.53	31.5
547.737	28.5
548.946	32
550.153	28.5
551.361	31
552.568	30
553.774	26
554.982	29
556.188	23
557.394	22.5
558.599	26.5
559.806	31.5
561.012	31.5
562.217	27.5
563.423	26
564.628	28
565.832	26
567.036	30
568.241	29
569.446	26.5
570.65	22
571.853	26.5
573.057	24
574.26	29
575.464	29
576.667	30.5
577.87	26.5
579.072	30.5
580.274	27
581.477	26
582.68	22
583.881	24
585.083	29
586.284	28
587.485	31
588.686	31.5
589.887	26
591.087	28
592.288	31
593.488	25.5
594.688	27.5
595.888	24
597.087	28.5
598.287	26
599.486	31
600.685	30
601.884	30
603.082	34.5
604.281	28
605.479	33.5
606.677	29
607.875	28.5
609.073	27.5
610.27	25
611.468	28.5
612.665	22.5
613.862	29
615.058	30.5
616.255	26.5
617.451	30
618.648	26
619.842	30
621.038	30.5
622.234	27
623.429	27.5
624.624	26.5
625.819	33.5
627.013	27.5
628.207	28
629.402	28
630.596	27
631.79	34.5
632.983	30.5
634.177	30.5
635.37	32
636.564	26
637.755	24
638.948	30.5
640.141	31
641.334	28.5
642.525	28.5
643.717	30.5
644.909	30
646.099	33
647.291	28.5
648.483	27
649.674	28
650.864	29.5
652.055	24
653.244	30
654.435	27
655.625	27.5
656.814	30.5
658.004	28.5
659.193	29.5
660.382	28.5
661.571	27.5
662.759	29.5
663.948	27
665.135	29
666.324	32
667.511	35
668.7	31
669.886	28.5
671.074	27.5
672.262	31
673.448	28.5
674.634	35
675.821	32
677.007	35
678.194	33
679.379	32.5
680.565	31.5
681.75	31
682.936	34.5
684.121	35
685.305	31
686.491	34
687.675	31
688.86	36
690.043	36
691.227	33.5
692.411	31
693.594	36
694.777	35
695.961	34
697.144	39
698.326	40.5
699.509	36
700.691	37.5
701.873	42.5
703.056	42.5
704.237	45.5
705.419	48
706.599	55.5
707.782	56.5
708.962	57
710.143	52.5
711.323	47.5
712.504	45
713.684	42
714.864	35.5
716.043	37
717.223	35
718.403	31
719.582	25
720.761	27.5
721.94	28.5
723.118	28
724.296	26.5
725.474	31.5
726.652	28.5
727.831	28.5
729.009	28
730.186	26
731.363	33
732.54	26.5
733.717	33
734.893	28
736.07	25
737.246	26.5
738.422	27.5
739.598	27.5
740.773	31.5
741.949	26
743.124	27.5
744.299	27
745.474	28
746.649	29
747.823	29
748.997	26
750.172	32
751.346	28
752.519	29.5
753.693	30
754.867	30
756.038	29
757.211	30
758.384	27.5
759.557	29.5
760.73	26.5
761.902	27
763.074	26.5
764.246	29
765.417	30.5
766.588	25
767.76	29
768.931	27
770.102	29.5
771.271	28
772.442	32
773.613	32
774.783	31
775.952	33
777.122	31.5
778.291	29.5
779.461	30
780.629	28.5
781.798	29
782.967	32
784.135	30.5
785.304	32.5
786.472	34.5
787.639	31.5
788.807	33
789.975	32
791.142	33.5
792.309	33
793.477	28.5
794.642	29
795.81	29
796.975	29.5
798.142	34.5
799.308	29
800.473	31.5
801.639	29
802.804	25.5
803.97	30.5
805.134	26
806.299	27
807.463	27.5
808.628	28
809.792	27.5
810.957	29
812.12	29
813.284	28
814.447	29
815.611	31.5
816.773	28.5
817.937	27
819.099	31.5
820.261	31.5
821.424	28
822.585	24.5
823.748	27.5
824.909	28
826.07	27
827.232	29
828.393	25.5
829.554	28
830.715	28
831.875	26.5
833.035	27
834.196	28
835.356	26.5
836.515	28.5
837.676	27
838.835	27
839.994	29.5
841.152	31.5
842.312	27
843.47	28
844.629	29
845.786	27.5
846.946	26.5
848.103	27
849.261	26
850.418	26
851.575	27
852.733	30
853.89	26
855.046	29
856.203	30.5
857.359	23.5
858.515	31
859.67	31.5
860.827	30.5
861.983	28.5
863.138	33.5
864.293	28.5
865.448	27
866.603	28
867.757	31
868.912	31.5
870.066	28
871.22	27.5
872.374	28.5
873.527	26
874.681	24.5
875.834	25.5
876.987	30
878.14	24.5
879.293	30.5
880.445	29.5
881.598	29
882.75	29.5
883.902	29
885.054	26.5
886.206	23.5
887.357	29
888.507	30
889.658	27
890.809	27.5
891.96	23.5
893.111	28.5
894.261	26
895.411	23
896.561	27.5
897.71	25.5
898.86	31
900.009	21.5
901.159	31
902.308	25
903.455	23.5
904.604	28.5
905.753	25
906.901	21
908.048	26
909.197	30.5
910.344	27
911.492	28
912.639	23
913.786	21.5
914.933	27
916.079	25
917.226	25.5
918.373	25
919.518	25.5
920.664	25.5
921.81	26
922.955	25
924.101	30
925.245	27
926.391	26.5
927.536	23
928.68	27.5
929.825	23.5
930.968	25
932.113	22
933.256	22.5
934.4	26
935.543	26.5
936.687	27
937.83	28
938.973	26
940.115	24
941.258	27
942.399	25.5
943.542	24.5
944.684	25.5
945.826	30
946.967	24.5
948.109	28
949.25	24
950.392	28.5
951.532	28
952.672	25
953.813	26.5
954.953	28
956.093	28
957.233	26.5
958.373	27
959.512	26
960.652	25
961.791	28
962.929	24.5
964.069	28
965.207	22.5
966.345	27
967.484	25
968.622	24.5
969.759	27.5
970.896	27.75
972.035	27.5
973.172	29.5
974.309	27.5
975.445	27
976.582	27
977.719	29
978.855	25.5
979.991	25.5
981.127	26.5
982.263	28
983.398	26
984.535	26
985.67	28
986.804	25.5
987.939	25
989.074	24.5
990.208	24.5
991.342	22.5
992.476	24
993.61	27.5
994.744	28.5
995.877	25
997.01	26
998.143	23.5
999.276	35
1000.41	23
1001.54	23.5
1002.67	28.5
1003.81	25.5
1004.94	27.5
1006.07	24.5
1007.2	21
1008.33	26
1009.47	24.5
1010.6	26
1011.73	21.5
1012.86	29.5
1013.99	27
1015.12	25
1016.25	25.5
1017.38	25
1018.51	27
1019.64	24
1020.77	25
1021.9	24
1023.03	27
1024.15	22
1025.28	28
1026.41	24.5
1027.54	23
1028.67	26
1029.8	24
1030.92	26.5
1032.05	27
1033.18	25
1034.31	25.5
1035.43	26
1036.56	28
1037.69	24.5
1038.81	30.5
1039.94	28.5
1041.07	25
1042.19	20.5
1043.32	29
1044.44	26.5
1045.57	26
1046.69	26.5
1047.82	28
1048.94	24
1050.07	27.5
1051.19	26
1052.32	27.5
1053.44	25
1054.57	23
1055.69	28
1056.81	24.5
1057.94	24
1059.06	26
1060.18	24
1061.31	29.5
1062.43	26.5
1063.55	27
1064.67	21.5
1065.8	26
1066.92	25
1068.04	22.5
1069.16	21
1070.28	30
1071.4	21
1072.52	26.5
1073.64	29
1074.76	30
1075.89	21
1077.01	27
1078.13	26
1079.25	23
1080.37	27.5
1081.49	28
1082.6	26
1083.72	27
1084.84	28
1085.96	26.5
1087.08	22.5
1088.2	23.5
1089.32	25.5
1090.43	25.5
1091.55	27
1092.67	23
1093.79	27.5
1094.91	28.5
1096.02	28
1097.14	27
1098.26	26.5
1099.37	25.5
1100.49	24
1101.61	27
1102.72	25.5
1103.84	22.5
1104.95	26
1106.07	21
1107.18	21.5
1108.3	26.5
1109.41	28
1110.53	26.5
1111.64	27.5
1112.76	27.5
1113.87	27
1114.99	28.5
1116.1	24.5
1117.21	24.5
1118.33	26
1119.44	29
1120.55	25.5
1121.67	26.5
1122.78	23
1123.89	20.5
1125	21
1126.12	23
1127.23	22
1128.34	24.5
1129.45	26
1130.56	26.5
1131.68	22.5
1132.79	25.5
1133.9	21.5
1135.01	27
1136.12	24
1137.23	26
1138.34	24
1139.45	26
1140.56	25
1141.67	22.5
1142.78	22.5
1143.89	25.5
1145	26.5
1146.11	24.5
1147.22	26
1148.32	25.5
1149.43	22
1150.54	20
1151.65	25
1152.76	25
1153.86	20
1154.97	24
1156.08	24.5
1157.19	23.5
1158.29	24
1159.4	20
1160.51	27.5
1161.61	21
1162.72	24.5
1163.83	24
1164.93	23
1166.04	26
1167.14	25.5
1168.25	25
1169.35	24
1170.46	23.5
1171.56	24
1172.67	24
1173.77	23
1174.88	25.5
1175.98	27.5
1177.08	24.5
1178.19	25.5
1179.29	23.5
1180.4	26
1181.5	27
1182.6	26
1183.71	21.5
1184.81	20
1185.91	25.5
1187.01	27
1188.12	24
1189.22	26
1190.32	25
1191.42	31
1192.52	24.5
1193.62	26.5
1194.72	23.0028
1195.83	22.5171
1196.93	24.1109
1198.03	24.4659
1199.13	23.0836
1200.23	26.3117
1201.33	25.8902
1202.43	24.3172
1203.53	25.1093
1204.63	22.7609
1205.73	26.6774
1206.83	20.2008
1207.92	26.6857
1209.02	24.5813
1210.12	22.6532
1211.22	24.3871
1212.32	23.5249
1213.42	21.6018
1214.51	25.1796
1215.61	23.9501
1216.71	27.3326
1217.81	28.3778
1218.9	24.7696
1220	23.8262
1221.1	26.7984
1222.19	23.3247
1223.29	23.5565
1224.39	22.932
1225.48	23.2549
1226.58	25.0275
1227.68	24.3679
1228.77	24.3572
1229.87	27.5414
1230.96	24.8984
1232.06	21.1661
1233.15	24.2871
1234.25	23.1516
1235.34	22.7547
1236.43	23.1345
1237.53	24.1682
1238.62	23.6024
1239.72	21.8922
1240.81	22.8022
1241.9	26.4642
1243	26.7688
1244.09	22.7802
1245.18	25.3424
1246.27	24.3273
1247.37	23.1029
1248.46	22.1075
1249.55	23.79
1250.64	23.4847
1251.74	24.4917
1252.83	22.3117
1253.92	22.0118
1255.01	25.4045
1256.1	27.665
1257.19	24.3382
1258.28	26.3266
1259.38	27.3394
1260.46	27.4348
1261.56	25.8834
1262.65	26.8199
1263.74	26.8348
1264.82	25.5607
1265.91	23.9823
1267	24.9095
1268.09	25.307
1269.18	26.203
1270.27	25.0418
1271.36	27.322
1272.45	22.3472
1273.54	23.8291
1274.63	25.7093
1275.71	24.6229
1276.8	27.7886
1277.89	25.0839
1278.98	22.4306
1280.06	25.5347
1281.15	24.085
1282.24	25.0064
1283.32	26.0121
1284.41	26.3298
1285.5	21.9109
1286.58	22.6831
1287.67	24.3332
1288.76	24.2502
1289.84	23.7028
1290.93	25.4529
1292.01	23.9582
1293.1	26.7186
1294.18	25.1481
1295.27	24.2961
1296.35	25.3773
1297.44	25.1109
1298.52	24.0109
1299.6	25.7518
1300.69	24.1232
1301.77	24.5375
1302.86	24.2583
1303.94	22.9472
1305.02	20.7402
1306.11	26.0941
1306.41	28.5
1307.5	23
1308.59	28
1309.68	23
1310.77	26.5
1311.85	27.5
1312.94	24.5
1314.03	27
1315.11	25
1316.2	25.5
1317.29	24
1318.37	26.5
1319.46	25.5
1320.55	20.5
1321.63	27
1322.72	22.5
1323.8	27
1324.89	24
1325.98	24
1327.06	27
1328.15	27
1329.23	24
1330.31	24.5
1331.4	23
1332.48	25
1333.57	23.5
1334.65	26.5
1335.74	23.5
1336.82	27
1337.9	25
1338.99	25
1340.07	23.5
1341.15	25.5
1342.24	25
1343.32	25
1344.4	18
1345.48	24.5
1346.56	23
1347.65	23
1348.73	24.5
1349.81	24.5
1350.89	27.5
1351.97	24.5
1353.05	26.5
1354.13	29
1355.21	24
1356.29	29.5
1357.37	24.5
1358.46	27.5
1359.54	26.5
1360.62	21
1361.69	22.5
1362.77	23.5
1363.85	24
1364.93	26
1366.01	24.5
1367.09	22
1368.17	24.5
1369.25	24.5
1370.33	23
1371.41	26.5
1372.48	25.5
1373.56	20.5
1374.64	23
1375.72	24.5
1376.79	25.5
1377.87	25.5
1378.95	23.5
1380.02	28.5
1381.1	24.5
1382.18	23.5
1383.25	20
1384.33	23.5
1385.4	28.5
1386.48	27
1387.56	31
1388.63	28
1389.71	23.5
1390.78	26
1391.86	29.5
1392.93	23.5
1394.01	27.5
1395.08	30
1396.15	31
1397.23	30
1398.3	26
1399.38	30
1400.45	31
1401.52	27.5
1402.6	28.5
1403.67	28
1404.74	28.5
1405.81	29
1406.89	29
1407.96	29
1409.03	31.5
1410.1	33
1411.17	30
1412.25	33
1413.32	33
1414.39	37.5
1415.46	28.5
1416.53	30.5
1417.6	32
1418.67	31
1419.74	30.5
1420.81	24.5
1421.88	31.5
1422.95	31.5
1424.02	26.5
1425.09	28
1426.16	29.5
1427.23	26.5
1428.3	28
1429.37	25
1430.44	28.5
1431.51	25
1432.58	25
1433.64	24.5
1434.71	24.5
1435.78	24.5
1436.85	23
1437.92	26
1438.98	26
1440.05	25
1441.12	27
1442.18	28
1443.25	22.5
1444.32	27
1445.38	21.5
1446.45	28.5
1447.52	24
1448.58	28
1449.65	26
1450.71	25.5
1451.78	23
1452.84	24
1453.91	23
1454.97	26.5
1456.04	27.5
1457.1	26
1458.17	26
1459.23	23.5
1460.3	24
1461.36	26.5
1462.42	28
1463.49	26
1464.55	27.5
1465.61	25
1466.68	26.5
1467.74	24
1468.8	26
1469.86	24
1470.93	22
1471.99	26.5
1473.05	24.5
1474.11	25
1475.17	25
1476.24	26
1477.3	26
1478.36	27
1479.42	25.5
1480.48	26.5
1481.54	28
1482.6	24.5
1483.66	22.5
1484.72	25
1485.78	26
1486.84	23
1487.9	27.5
1488.96	31.5
1490.02	27
1491.08	23
1492.14	22.5
1493.2	31
1494.26	21.5
1495.31	26.5
1496.37	30.5
1497.43	24.5
1498.49	28
1499.55	25
1500.6	30
1501.66	26.5
1502.72	24.5
1503.78	24
1504.83	25.5
1505.89	26.5
1506.95	26
1508	23
1509.06	24
1510.12	25
1511.17	25
1512.23	25.5
1513.28	26
1514.34	29.5
1515.39	24.5
1516.45	26
1517.5	25
1518.56	22.5
1519.61	24.5
1520.67	25.5
1521.72	28.5
1522.78	23.5
1523.83	22
1524.88	22.5
1525.94	26
1526.99	25.5
1528.05	23.5
1529.1	26
1530.15	28
1531.2	26
1532.26	26
1533.31	23.5
1534.36	29
1535.41	26.5
1536.47	28
1537.52	23
1538.57	25.5
1539.62	27.5
1540.67	20.5
1541.72	24
1542.77	25.5
1543.83	23.5
1544.88	27.5
1545.93	21
1546.98	26.5
1548.03	28.5
1549.08	25.5
1550.13	26.5
1551.18	22
1552.23	26
1553.28	26
1554.32	24
1555.37	25
1556.42	24
1557.47	27.5
1558.52	29
1559.57	26.5
1560.62	26
1561.67	24.5
1562.71	29
1563.76	24.5
1564.81	25
1565.86	19
1566.9	26
1567.95	29
1569	26
1570.04	24
1571.09	26
1572.14	25.5
1573.18	28.5
1574.23	26
1575.27	24.5
1576.32	23.5
1577.37	25.5
1578.41	26
1579.46	20
1580.5	27
1581.55	25
1582.59	27
1583.64	23.5
1584.68	25.5
1585.72	23
1586.77	26
1587.81	25.5
1588.86	23.5
1589.9	28
1590.94	24
1591.99	25.5
1593.03	27.5
1594.07	23.5
1595.12	21
1596.16	25
1597.2	30.5
1598.24	26.5
1599.29	28
1600.33	25.5
1601.37	25.5
1602.41	25
1603.45	23
1604.49	26
1605.53	26.5
1606.58	25
1607.62	24
1608.66	28
1609.7	27
1610.74	25
1611.78	23
1612.82	24
1613.86	23.5
1614.9	27.5
1615.94	23
1616.98	27.5
1618.02	25
1619.06	30
1620.09	25
1621.13	21.5
1622.17	26
1623.21	23.5
1624.25	28
1625.29	25
1626.32	24
1627.36	25.5
1628.4	25
1629.44	24
1630.47	24.5
1631.51	24
1632.55	25
1633.58	28
1634.62	24.5
1635.66	29
1636.69	30
1637.73	24
1638.77	23.5
1639.8	26
1640.84	28.5
1641.87	26
1642.91	27.5
1643.94	28
1644.98	28
1646.01	23
1647.05	27
1648.08	25.5
1649.12	26.5
1650.15	24.5
1651.18	22
1652.22	31
1653.25	28
1654.29	26
1655.32	27
1656.35	27.5
1657.39	23
1658.42	27
1659.45	26
1660.48	21.5
1661.52	26.5
1662.55	22.5
1663.58	27.5
1664.61	27.5
1665.64	24.5
1666.68	26.5
1667.71	21.5
1668.74	24
1669.77	23.5
1670.8	27
1671.83	23
1672.86	26
1673.89	29
1674.92	28
1675.95	26
1676.98	27
1678.01	25.5
1679.04	25.5
1680.07	21.5
1681.1	28
1682.13	22.5
1683.16	28
1684.19	26
1685.22	24
1686.25	27.5
1687.27	26
1688.3	23
1689.33	24.5
1690.36	30
1691.38	29.5
1692.41	24
1693.44	26.5
1694.47	28.5
1695.49	26
1696.52	25
1697.55	30
1698.57	26.5
1699.6	23
1700.63	25
1701.65	25
1702.68	28
1703.7	24
1704.73	25.5
1705.76	27
1706.78	26
1707.81	27.5
1708.83	23.5
1709.86	25.5
1710.88	23.5
1711.91	23
1712.93	29.5
1713.95	27
1714.98	25
1716	27
1717.03	25.5
1718.05	26
1719.07	25.5
1720.1	26.5
1721.12	27.5
1722.14	23.5
1723.16	27
1724.19	24
1725.21	24.5
1726.23	28.5
1727.25	27
1728.28	26
1729.3	27.5
1730.32	25
1731.34	24.5
1732.36	27.5
1733.38	26.5
1734.41	25.5
1735.43	25
1736.45	21
1737.47	25
1738.49	26.5
1739.51	23
1740.53	22.5
1741.55	26
1742.57	26.5
1743.59	28
1744.61	23.5
1745.63	29
1746.64	25
1747.66	23
1748.68	24
1749.7	23
1750.72	21.5
1751.74	25
1752.76	23
1753.77	23
1754.79	25.5
1755.81	27.5
1756.83	26.5
1757.84	23
1758.86	22.5
1759.88	26
1760.9	23
1761.91	22
1762.93	26
1763.95	22
1764.96	26.5
1765.98	25.5
1766.99	26
1768.01	24
1769.02	22
1770.04	28.5
1771.06	25.5
1772.07	23.5
1773.09	25.5
1774.1	29
1775.12	23
1776.13	25
1777.14	27.5
1778.16	23
1779.17	23.5
1780.19	24.5
1781.2	26
1782.21	24
1783.23	24
1784.24	25.5
1785.25	21.5
1786.27	27.5
1787.28	27
1788.29	24.5
1789.3	21
1790.32	24
1791.33	25.5
1792.34	25.5
1793.35	27.5
1794.36	27.5
1795.38	24.5
1796.39	26
1797.4	20
1798.41	26.5
1799.42	24
1800.43	24.5
1801.44	26
1802.45	24.5
1803.46	23
1804.47	23
1805.48	27.5
1806.49	24
1807.5	27
1808.51	24.5
1809.52	25
1810.53	25
1811.54	27.5
1812.55	22.5
1813.56	25
1814.57	25.5
1815.57	27.5
1816.58	26.5
1817.59	23
1818.6	26
1819.61	22.5
1820.61	23.5
1821.62	26
1822.63	25
1823.64	26
1824.64	19.5
1825.65	24
1826.66	22.5
1827.66	25.5
1828.67	28.5
1829.68	25.5
1830.68	26
1831.69	19.5
1832.69	26
1833.7	25.5
1834.7	24
1835.71	28.5
1836.71	24
1837.72	26.5
1838.72	24
1839.73	26.5
1840.73	25.5
1841.74	27
1842.74	26
1843.75	26.5
1844.75	22.5
1845.75	25.5
1846.76	25.5
1847.76	23.5
1848.76	20
1849.77	27
1850.77	26
1851.77	25.5
1852.78	23.5
1853.78	25.5
1854.78	29
1855.78	28.5
1856.78	25.5
1857.79	22.5
1858.79	24
1859.79	23
1860.79	21
1861.79	25
1862.79	23
1863.79	27.5
1864.79	26
1865.79	26
1866.8	27.5
1867.8	29.5
1868.8	26
1869.8	19
1870.8	28
1871.8	23
1872.8	24
1873.79	27
1874.79	25
1875.79	24
1876.79	28
1877.79	25
1878.79	26
1879.79	24
1880.79	22
1881.78	25.5
1882.78	23.5
1883.78	25.5
1884.78	27
1885.77	24.5
1886.77	26.5
1887.77	22
1888.77	24
1889.76	28
1890.76	23.5
1891.76	23
1892.75	23
1893.75	25.5
1894.75	21
1895.74	24.5
1896.74	24
1897.73	26
1898.73	25
1899.73	27
1900.72	25.5
1901.72	22.5
1902.71	24
1903.7	26.5
1904.7	25
1905.69	21
1906.69	24
1907.68	28
1908.68	25
1909.67	25.5
1910.66	24.5
1911.66	24
1912.65	21
1913.64	27
1914.64	26.5
1915.63	24.5
1916.62	27.5
1917.62	23
1918.61	23
1919.6	26.5
1920.59	22.5
1921.58	26
1922.58	27.5
1923.57	21
1924.56	25
1925.55	25
1926.54	29
1927.53	26
1928.52	24.5
1929.51	18.5
1930.51	21
1931.5	23.5
1932.49	23
1933.48	19.5
1934.47	23.5
1935.46	27
1936.45	25
1937.44	25.5
1938.42	24
1939.41	23.5
1940.4	23.5
1941.39	25.5
1942.38	21
1943.37	22
1944.36	24.5
1945.35	26
1946.33	22
1947.32	23
1948.31	25.5
1949.3	27
1950.29	25
1951.27	26
1952.26	23.5
1953.25	25.5
1954.23	26
1955.22	24.5
1956.21	22.5
1957.19	25
1958.18	27.5
1959.17	25
1960.15	24
1961.14	27
1962.13	26.5
1963.11	25
1964.1	24.5
1965.08	24.5
1966.07	26
1967.05	26
1968.04	24
1969.02	21
1970.01	26.5
1970.99	25
1971.97	24
1972.96	25.5
1973.94	26.5
1974.93	23.5
1975.91	30
1976.89	26
1977.88	23
1978.86	28
1979.84	25
1980.83	24
1981.81	21
1982.79	26
1983.77	22
1984.76	23
1985.74	25
1986.72	24.5
1987.7	25.5
1988.68	23.5
1989.67	26.5
1990.65	22
1991.63	26.5
1992.61	24.5
1993.59	24
1994.57	24
1995.55	29
1996.53	27.5
1997.51	22
1998.49	25
1999.47	22
2000.45	24.5
2001.43	22.5
2002.41	22.5
2003.39	24.5
2004.37	24.5
2005.35	23
2006.33	23.5
2007.31	20.5
2008.29	25.5
2009.26	25.5
2010.24	25.5
2011.22	23.5
2012.2	23.5
2013.18	23.5
2014.15	25.5
2015.13	23.5
2016.11	27.5
2017.09	23
2018.06	24
2019.04	20.5
2020.02	27
2021	23.5
2021.97	23
2022.95	26
2023.92	22
2024.9	23.5
2025.88	26
2026.85	23
2027.83	28
2028.8	24
2029.78	24.5
2030.75	21.5
2031.73	24.5
2032.7	26
2033.68	24
2034.65	22.5
2035.63	23
2036.6	23.5
2037.58	27.5
2038.55	25
2039.52	21.5
2040.5	28
2041.47	25.5
2042.45	27
2043.42	25
2044.39	23
2045.36	24.5
2046.34	18.5
2047.31	22
2048.28	24
2049.26	25
2050.23	22.5
2051.2	23.5
2052.17	24
2053.14	26.5
2054.12	23
2055.09	22.5
2056.06	28
2057.03	25
2058	23
2058.97	28.5
2059.94	23
2060.91	23
2061.88	22.5
2062.85	23
2063.82	22.5
2064.79	24
2065.76	28
2066.73	24
2067.7	25
2068.67	25
2069.64	24.5
2070.61	23.5
2071.58	22
2072.55	21.5
2073.52	25
2074.49	27
2075.45	27.5
2076.42	22.5
2077.39	22.5
2078.36	23.5
2079.33	24.5
2080.29	26
2081.26	23.5
2082.23	20.5
2083.2	23.5
2084.16	24
2085.13	26.5
2086.1	23.5
2087.06	25
2088.03	22
2089	24.5
2089.96	24
2090.93	24
2091.89	25.5
2092.86	23
2093.83	26
2094.79	24.5
2095.76	21.5
2096.72	23
2097.69	23.5
2098.65	23
2099.62	23.5
2100.58	27
2101.55	25.5
2102.51	22.5
2103.47	22
2104.44	23
2105.4	21.5
2106.36	18.5
2107.33	22.5
2108.29	24.5
2109.25	22.5
2110.22	23.5
2111.18	24.5
2112.14	23
2113.11	25
2114.07	24
2115.03	23
2115.99	21.5
2116.96	24
2117.92	28
2118.88	24
2119.84	26
2120.8	24.5
2121.76	18
2122.72	25.5
2123.68	24.5
2124.65	21
2125.61	22
2126.57	21.5
2127.53	24
2128.49	21
2129.45	22
2130.41	24
2131.37	25
2132.33	23.5
2133.29	22.5
2134.25	22
2135.21	23
2136.17	21.5
2137.12	19.5
2138.08	17
2139.04	21.5
2140	25
2140.96	24
2141.92	27
2142.88	20.0038
2143.83	24.4548
2144.79	25.0372
2145.75	21.585
2146.71	22.5772
2147.66	22.1671
2148.62	24.9587
2149.58	22.4364
2150.53	26.2118
2151.49	24.6994
2152.45	22.973
2153.4	22.4957
2154.36	23.4621
2155.32	21.138
2156.27	21.3158
2157.23	23.0327
2158.19	22.6514
2159.14	19.7983
2160.1	24.1934
2161.05	21.8651
2162.01	23.9328
2162.96	23.9345
2163.92	23.517
2164.87	21.6603
2165.83	24.9447
2166.78	22.8318
2167.73	23.7826
2168.69	23.5332
2169.64	20.7566
2170.6	27.8194
2171.55	22.0799
2172.5	20.9844
2173.46	21.9031
2174.41	22.571
2175.36	21.5738
2176.32	21.8865
2177.27	22.8975
2178.22	23.7736
2179.18	19.5482
2180.13	21.3767
2181.08	23.2027
2182.03	22.9116
2182.98	26.0858
2183.94	23.5175
2184.89	21.9889
2185.84	21.5652
2186.79	23.3953
2187.74	21.9044
2188.69	23.0206
2189.64	24.51
2190.6	23.4748
2191.55	22.7722
2192.5	23.4885
2193.45	21.3078
2194.4	20.661
2195.35	23.1007
2196.3	20.4843
2197.25	21.2074
2198.2	21.8547
2199.15	24.896
2200.1	21.7376
2201.04	24.6162
2201.99	24.2379
2202.94	23.8298
2203.89	19.3292
2204.84	24.2883
2205.79	21.9642
2206.74	21.9307
2207.69	22.6012
2208.63	23.6748
2209.58	24.3284
2210.53	22.6965
2211.48	23.0279
2212.43	23.0704
2213.37	24.9891
2214.32	21.5747
2215.27	21.1399
2216.21	24.1434
2217.16	21.4157
2218.11	23.3892
2219.05	20.8465
2220	22.6971
2220.95	23.3972
2221.89	21.5203
2222.84	20.835
2223.78	24.1496
2224.73	24.3869
2225.68	22.9748
2226.62	24.6565
2227.57	26.1269
2228.51	22.5163
2229.46	22
2230.4	20.3706
2231.35	21.0196
2232.29	22.7329
2233.24	23.8157
2234.18	21.8196
2235.12	21.6335
2236.07	22.2722
2237.01	23.2373
2237.95	25.4394
2238.9	22.9242
2239.84	21.2274
2240.06	21
2241.01	22.5
2241.96	24
2242.91	26
2243.86	22.5
2244.8	17
2245.75	23
2246.7	24.5
2247.65	23.5
2248.59	23.5
2249.54	23.5
2250.49	21.5
2251.43	25
2252.38	24
2253.33	24.5
2254.27	23.5
2255.22	22
2256.16	23
2257.11	24
2258.06	26
2259	22.5
2259.95	24.5
2260.89	23
2261.84	24
2262.78	22
2263.73	25.5
2264.67	22.5
2265.62	23.5
2266.56	22
2267.5	22.5
2268.45	23
2269.39	22.5
2270.34	21
2271.28	23
2272.22	25
2273.17	21
2274.11	22
2275.05	21.5
2276	20.5
2276.94	23.5
2277.88	24
2278.82	21.5
2279.77	19
2280.71	27.5
2281.65	22
2282.59	23.5
2283.53	21
2284.48	24
2285.42	20.5
2286.36	20.5
2287.3	19
2288.24	25.5
2289.18	23
2290.12	20.5
2291.06	25
2292	20.5
2292.94	24
2293.89	23
2294.83	21
2295.77	26
2296.71	20
2297.65	24
2298.58	23.5
2299.52	27
2300.46	26
2301.4	21
2302.34	23
2303.28	22
2304.22	21.5
2305.16	25.5
2306.1	22.5
2307.03	22
2307.97	25
2308.91	22.5
2309.85	22.5
2310.79	28
2311.72	21.5
2312.66	19
2313.6	24.5
2314.54	22.5
2315.47	24
2316.41	23
2317.35	21.5
2318.28	23.5
2319.22	24
2320.16	23
2321.09	25
2322.03	21
2322.96	26
2323.9	25.5
2324.84	20
2325.77	22
2326.71	26
2327.64	23
2328.58	24.5
2329.51	24
2330.45	22
2331.38	20.5
2332.32	22.5
2333.25	24
2334.18	21
2335.12	24
2336.05	21
2336.99	25.5
2337.92	23
2338.85	22
2339.79	24
2340.72	24
2341.65	21
2342.59	21.5
2343.52	23
2344.45	23.5
2345.39	21.5
2346.32	26
2347.25	19
2348.18	26.5
2349.11	22.5
2350.05	21.5
2350.98	25
2351.91	21
2352.84	22.5
2353.77	22
2354.7	25
2355.64	27.5
2356.57	24
2357.5	22
2358.43	21
2359.36	24
2360.29	19
2361.22	27
2362.15	21.5
2363.08	23
2364.01	23
2364.94	24.5
2365.87	26
2366.8	20
2367.73	22.5
2368.66	26
2369.58	23
2370.51	24
2371.44	22.5
2372.37	19
2373.3	27
2374.23	21
2375.16	22.5
2376.08	21.5
2377.01	25
2377.94	25.5
2378.87	24
2379.8	23
2380.72	26
2381.65	23
2382.58	24.5
2383.5	27
2384.43	26.5
2385.36	26
2386.28	24.5
2387.21	23.5
2388.14	23
2389.06	22.5
2389.99	24
2390.91	23.5
2391.84	26
2392.77	25
2393.69	20
2394.62	27
2395.54	25
2396.47	26.5
2397.39	25
2398.32	25.5
2399.24	22.5
2400.16	23.5
2401.09	23.5
2402.01	22.5
2402.94	20.5
2403.86	20
2404.78	25
2405.71	24.5
2406.63	25
2407.56	27
2408.48	24
2409.4	23
2410.32	20.5
2411.25	24
2412.17	22
2413.09	28.5
2414.02	22
2414.94	24
2415.86	22.5
2416.78	22
2417.7	22
2418.63	25
2419.55	19.5
2420.47	24.5
2421.39	22.5
2422.31	25
2423.23	26.5
2424.15	24.5
2425.07	28.5
2425.99	22.5
2426.92	22
2427.84	25.5
2428.76	23
2429.68	27
2430.59	25
2431.51	24
2432.43	24
2433.35	22
2434.27	20.5
2435.19	23
2436.11	27
2437.03	22.5
2437.95	21.5
2438.87	21
2439.79	26
2440.71	22
2441.62	24
2442.54	24
2443.46	22
2444.38	21
2445.3	27.5
2446.21	21.5
2447.13	23.5
2448.05	22.5
2448.97	21.5
2449.88	23
2450.8	21
2451.72	22
2452.63	23
2453.55	23.5
2454.47	22
2455.38	25
2456.3	25.5
2457.21	23.5
2458.13	24
2459.05	24.5
2459.96	21.5
2460.88	25
2461.79	25.5
2462.71	22
2463.62	26.5
2464.54	24
2465.45	24.5
2466.37	27
2467.28	20.5
2468.2	23
2469.11	23.5
2470.02	24.5
2470.94	22
2471.85	21
2472.77	20
2473.68	24
2474.59	24
2475.51	21
2476.42	22.5
2477.33	24.5
2478.25	23.5
2479.16	26
2480.07	26
2480.98	25
2481.9	26.5
2482.81	26
2483.72	24
2484.63	26.5
2485.55	26
2486.46	23.5
2487.37	23
2488.28	27
2489.19	26.5
2490.1	23
2491.01	23
2491.92	22
2492.83	23
2493.74	23
2494.66	24
2495.57	24
2496.48	23.5
2497.39	22
2498.3	20.5
2499.21	28
2500.12	26
2501.03	24.5
2501.93	25.5
2502.84	25.5
2503.75	24
2504.66	22
2505.57	23
2506.48	24
2507.39	24.5
2508.3	22.5
2509.21	28.5
2510.11	27
2511.02	21
2511.93	27.5
2512.84	27
2513.75	25.5
2514.65	22.5
2515.56	23
2516.47	24.5
2517.37	27
2518.28	23
2519.19	27.5
2520.09	24.5
2521	21.5
2521.91	18
2522.81	20
2523.72	24
2524.63	23.5
2525.53	26
2526.44	28
2527.34	27.5
2528.25	25
2529.16	24.5
2530.06	24.5
2530.97	22
2531.87	20
2532.78	26
2533.68	21.5
2534.58	25
2535.49	25.5
2536.39	22
2537.3	22
2538.2	23
2539.11	26
2540.01	29
2540.91	25.5
2541.82	23.5
2542.72	21.5
2543.62	26.5
2544.53	22
2545.43	26
2546.33	22.5
2547.23	25
2548.14	22.5
2549.04	27
2549.94	23
2550.84	25
2551.75	23
2552.65	23
2553.55	26
2554.45	25
2555.35	22.5
2556.26	20
2557.16	26
2558.06	25.5
2558.96	29
2559.86	24
2560.76	19
2561.66	27.5
2562.56	25.5
2563.46	23.5
2564.36	22
2565.26	28
2566.16	24
2567.06	24.5
2567.96	21.5
2568.86	23
2569.76	22.5
2570.66	19.5
2571.56	25.5
2572.46	23.5
2573.36	22
2574.26	23
2575.16	25.5
2576.05	24
2576.95	25.5
2577.85	22
2578.75	21.5
2579.65	27
2580.54	21.5
2581.44	25
2582.34	25
2583.24	23.5
2584.13	25
2585.03	31
2585.93	24.5
2586.83	25.5
2587.72	24
2588.62	25.5
2589.52	24
2590.41	26
2591.31	24.5
2592.2	19.5
2593.1	21
2594	27
2594.89	26.5
2595.79	23.5
2596.68	25
2597.58	26.5
2598.47	26
2599.37	26
2600.26	24
2601.16	23
2602.05	23.5
2602.95	22
2603.84	25
2604.74	24.5
2605.63	25
2606.52	23.5
2607.42	23
2608.31	26
2609.21	26
2610.1	27.5
2610.99	25.5
2611.89	22
2612.78	25.5
2613.67	26
2614.56	22.5
2615.46	17.5
2616.35	27.5
2617.24	23
2618.13	23
2619.03	25.5
2619.92	23
2620.81	25
2621.7	24.5
2622.59	25
2623.49	22.5
2624.38	21
2625.27	25.5
2626.16	27.5
2627.05	24
2627.94	25.5
2628.83	23.5
2629.72	24.5
2630.61	22.5
2631.5	25.5
2632.39	22
2633.28	25
2634.17	22
2635.06	26
2635.95	23.5
2636.84	26.5
2637.73	28.5
2638.62	26
2639.51	25.5
2640.4	26
2641.29	25.5
2642.18	24
2643.07	26
2643.96	25
2644.84	23
2645.73	23.5
2646.62	28.5
2647.51	24
2648.4	25
2649.28	23.5
2650.17	24.5
2651.06	21.5
2651.95	28
2652.83	26
2653.72	25
2654.61	24
2655.49	26
2656.38	22.5
2657.27	23
2658.16	22.5
2659.04	25.5
2659.93	30
2660.81	24
2661.7	24
2662.59	21.5
2663.47	22.5
2664.36	19
2665.24	30
2666.13	22.5
2667.01	21
2667.9	26
2668.78	26.5
2669.67	23.5
2670.55	27.5
2671.44	22.5
2672.32	21
2673.21	27
2674.09	24
2674.97	21
2675.86	23.5
2676.74	22.5
2677.62	24.5
2678.51	25
2679.39	24
2680.27	24
2681.16	22.5
2682.04	24
2682.92	24
2683.81	21
2684.69	26.5
2685.57	28
2686.45	22
2687.34	24
2688.22	25.5
2689.1	22
2689.98	24.5
2690.86	25
2691.75	19.5
2692.63	23
2693.51	21
2694.39	26.5
2695.27	26.5
2696.15	27.5
2697.03	23.5
2697.91	23.5
2698.79	24.5
2699.67	24
2700.55	23
2701.43	21.5
2702.31	20
2703.19	22.5
2704.07	22
2704.95	23
2705.83	20.5
2706.71	25.5
2707.59	24.5
2708.47	23.5
2709.35	25
2710.23	26.5
2711.11	21.5
2711.99	24
2712.86	23
2713.74	21.5
2714.62	27.5
2715.5	24.5
2716.38	25
2717.26	26.5
2718.13	22.5
2719.01	26
2719.89	21
2720.77	27
2721.64	26
2722.52	20.5
2723.4	22.5
2724.27	18
2725.15	25
2726.03	27
2726.9	25
2727.78	25.5
2728.66	23
2729.53	21.5
2730.41	22
2731.28	24.5
2732.16	24
2733.03	25
2733.91	26
2734.79	21.5
2735.66	24
2736.54	23.5
2737.41	24.5
2738.29	23.5
2739.16	22.5
2740.03	26
2740.91	24.5
2741.78	25.5
2742.66	20
2743.53	21.5
2744.41	22
2745.28	26.5
2746.15	24
2747.03	23.5
2747.9	26.5
2748.77	24.5
2749.65	25
2750.52	24
2751.39	26.5
2752.27	25
2753.14	23
2754.01	22.5
2754.88	23.5
2755.75	21.5
2756.63	27.5
2757.5	24
2758.37	21
2759.24	21
2760.11	23
2760.99	24
2761.86	28
2762.73	26
2763.6	23
2764.47	24
2765.34	30
2766.21	26.5
2767.08	24.5
2767.95	21
2768.82	24
2769.69	26
2770.56	23
2771.43	25
2772.3	24.5
2773.17	23
2774.04	22.5
2774.91	25
2775.78	23.5
2776.65	23.5
2777.52	26
2778.39	28
2779.26	24.5
2780.13	20.5
2780.99	28
2781.86	26
2782.73	24
2783.6	23
2784.47	28
2785.34	24.5
2786.2	23.5
2787.07	27.5
2787.94	25
2788.81	23
2789.67	29
2790.54	26
2791.41	25
2792.27	27
2793.14	25
2794.01	25.5
2794.87	24.5
2795.74	24
2796.61	26.5
2797.47	24
2798.34	27.5
2799.21	22.5
2800.07	25
2800.94	25.75
2801.8	26
2802.67	27.5
2803.53	31
2804.4	25.5
2805.26	27.5
2806.13	23
2806.99	26
2807.86	23.5
2808.72	26.5
2809.59	30
2810.45	29
2811.32	25
2812.18	24
2813.04	27
2813.91	27
2814.77	28
2815.64	24.5
2816.5	26
2817.36	27
2818.22	26
2819.09	27
2819.95	26.5
2820.81	22
2821.68	25.5
2822.54	26
2823.4	23
2824.26	25
2825.13	26
2825.99	24.5
2826.85	25
2827.71	28
2828.57	23
2829.44	26
2830.3	22.5
2831.16	24
2832.02	24.5
2832.88	25
2833.74	27.5
2834.6	29
2835.46	26.5
2836.32	31.5
2837.18	27.5
2838.04	25
2838.9	25.5
2839.76	23
2840.62	27
2841.48	31
2842.34	30
2843.2	25.5
2844.06	24.5
2844.92	22.5
2845.78	23.5
2846.64	23
2847.5	22
2848.36	26
2849.22	26
2850.08	22
2850.93	24.5
2851.79	33.5
2852.65	30.5
2853.51	26.5
2854.37	25.5
2855.22	26
2856.08	25.5
2856.94	25
2857.8	23.5
2858.65	27
2859.51	23.5
2860.37	26
2861.23	27.5
2862.08	26
2862.94	25.5
2863.79	29
2864.65	25
2865.51	30.5
2866.36	26.5
2867.22	26.5
2868.08	29.5
2868.93	26
2869.79	30
2870.64	30.5
2871.5	26
2872.35	26
2873.21	26.5
2874.06	24.5
2874.92	30.5
2875.77	33
2876.63	31
2877.48	29
2878.34	26.5
2879.19	30.5
2880.05	28
2880.9	30
2881.76	31
2882.61	33
2883.46	36.5
2884.32	35.5
2885.17	37
2886.02	37.5
2886.88	38.5
2887.73	35
2888.58	37.5
2889.44	38
2890.29	37
2891.14	41.5
2891.99	44.5
2892.85	45.5
2893.7	44
2894.55	46
2895.4	49
2896.25	54.5
2897.11	51.5
2897.96	56
2898.81	57
2899.66	62
2900.51	65
2901.36	67
2902.21	67.5
2903.07	73.5
2903.92	73.5
2904.77	76
2905.62	72
2906.47	65.5
2907.32	70.5
2908.17	73.5
2909.02	69.5
2909.87	68.5
2910.72	62
2911.57	59
2912.42	55
2913.27	59
2914.12	51
2914.97	45.5
2915.81	49
2916.66	42
2917.51	45
2918.36	36
2919.21	37.5
2920.06	35.5
2920.91	35
2921.75	36.5
2922.6	35.5
2923.45	36
2924.3	32
2925.15	32.5
2925.99	36
2926.84	31.5
2927.69	31.5
2928.54	25
2929.38	30.5
2930.23	30.5
2931.08	31
2931.92	32.5
2932.77	30.5
2933.62	29
2934.46	34
2935.31	26
2936.16	25.5
2937	28
2937.85	25
2938.69	29
2939.54	26.5
2940.38	24.5
2941.23	29.5
2942.08	28
2942.92	27
2943.77	30.5
2944.61	27
2945.46	30
2946.3	26.5
2947.15	34
2947.99	28
2948.83	32
2949.68	29.5
2950.52	32
2951.37	32
2952.21	34
2953.05	32.5
2953.9	29
2954.74	36.5
2955.58	29
2956.43	33
2957.27	33
2958.11	38
2958.96	40
2959.8	42.5
2960.64	44.5
2961.48	39
2962.33	47
2963.17	40
2964.01	42.5
2964.85	47
2965.69	43.5
2966.54	45
2967.38	47
2968.22	46
2969.06	42
2969.9	46
2970.74	41
2971.58	38.9903
2972.43	39.3827
2973.27	31.6444
2974.11	36.894
2974.95	35.0338
2975.79	30.7454
2976.63	37.2571
2977.47	28.6687
2978.31	31.8395
2979.15	31.5246
2979.99	34.4702
2980.83	33.2048
2981.67	29.9619
2982.51	28.0204
2983.35	25.8548
2984.19	30.3939
2985.03	24.7023
2985.86	24.5038
2986.7	27.4612
2987.54	29.5922
2988.38	28.1037
2989.22	28.7587
2990.06	27.2759
2990.9	27.0762
2991.73	23.14
2992.57	27.7081
2993.41	25.167
2994.25	24.527
2995.09	27.8382
2995.92	24.6406
2996.76	26.1637
2997.6	24.7646
2998.44	23.0592
2999.27	25.6748
3000.11	27.0852
3000.95	24.4779
3001.78	25.2166
3002.62	21.0286
3003.46	21.9851
3004.29	25.4622
3005.13	26.0962
3005.96	26.5323
3006.8	23.7677
3007.64	24.1722
3008.47	24.5828
3009.31	25.3469
3010.14	23.2824
3010.98	23.0907
3011.81	23.7825
3012.65	21.6152
3013.48	22.8162
3014.32	21.8472
3015.15	23.6212
3015.99	24.1375
3016.82	22.9174
3017.66	24.0586
3018.49	21.536
3019.33	22.9102
3020.16	22.4729
3020.99	21.2237
3021.83	23.5845
3022.66	22.6679
3023.5	22.4719
3024.33	23.1571
3025.16	23.0498
3026	24.1662
3026.83	24.0307
3027.66	22.524
3028.49	23.2105
3029.33	24.5426
3030.16	25.5068
3030.99	23.6948
3031.83	22.4134
3032.66	22.8122
3033.49	21.0125
3034.32	20.8254
3035.15	23.9049
3035.99	23.7641
3036.82	22.9923
3037.65	23.6122
3038.48	22.2976
3039.31	23.9104
3040.14	23.4314
3040.97	21.1974
3041.81	22.3635
3042.64	23.9046
3043.47	24.9439
3044.3	23.0864
3045.13	22.8404
3045.96	23.5393
3046.79	20.5852
3047.62	20.1423
3048.45	22.1128
3049.28	21.9583
3050.11	22.4175
3050.94	21.4715
3051.77	20.5706
3052.6	22.0534
3053.43	22.6243
3054.26	22.5181
3055.08	22.1899
3055.91	23.772
3056.74	23.3141
3057.26	23
3058.09	22
3058.92	27.5
3059.76	23.5
3060.59	22.5
3061.42	21
3062.25	23
3063.09	24.5
3063.92	22
3064.75	23
3065.58	24.5
3066.42	22
3067.25	18.5
3068.08	22
3068.91	23
3069.74	21.5
3070.57	21
3071.41	20.5
3072.24	23
3073.07	21
3073.9	23
3074.73	22
3075.56	22.5
3076.39	23
3077.22	22.5
3078.05	23.5
3078.88	23.5
3079.71	23
3080.54	24
3081.37	27.5
3082.2	30
3083.03	19
3083.86	24.5
3084.69	21.5
3085.52	19
3086.35	23
3087.18	21
3088.01	23
3088.84	23.5
3089.67	23.5
3090.5	24.5
3091.32	24
3092.15	21
3092.98	22.5
3093.81	23
3094.64	22.5
3095.47	24
3096.29	21
3097.12	19
3097.95	25.5
3098.78	25
3099.6	22.5
3100.43	23.5
3101.26	24
3102.09	23
3102.91	22.5
3103.74	24
3104.57	23
3105.39	22
3106.22	26.5
3107.05	23
3107.87	16.5
3108.7	21
3109.52	23.5
3110.35	23
3111.18	22
3112	23
3112.83	23
3113.65	21
3114.48	25
3115.3	24.5
3116.13	23.5
3116.95	26
3117.78	21.5
3118.6	22
3119.43	22
3120.25	23
3121.08	26
3121.9	27
3122.72	22
3123.55	23
3124.37	22
3125.2	24
3126.02	23
3126.84	27.5
3127.67	20
3128.49	19
3129.31	25
3130.14	27
3130.96	25
3131.78	21
3132.61	24
3133.43	21
3134.25	21
3135.07	20
3135.89	20
3136.72	24
3137.54	20
3138.36	23
3139.18	19
3140	27.5
3140.83	24
3141.65	23.5
3142.47	24
3143.29	23
3144.11	19
3144.93	25
3145.75	18.5
3146.57	22.5
3147.4	26.5
3148.22	23
3149.04	24.5
3149.86	24.5
3150.68	24
3151.5	23.5
3152.32	23
3153.14	22.5
3153.96	23
3154.78	21.5
3155.59	22.5
3156.42	25
3157.23	19
3158.05	24
3158.87	19.5
3159.69	25.5
3160.51	24
3161.33	23.5
3162.15	21
3162.97	22
3163.78	26.5
3164.6	24.5
3165.42	25.5
3166.24	23
3167.06	23
3167.87	24.5
3168.69	24
3169.51	23
3170.33	27.5
3171.14	20
3171.96	23
3172.78	24
3173.6	24.5
3174.41	23
3175.23	20.5
3176.05	23
3176.86	24
3177.68	21
3178.5	24
3179.31	22
3180.13	22
3180.94	25
3181.76	24.5
3182.58	26
3183.39	23.5
3184.21	25
3185.02	21
3185.84	21
3186.65	22
3187.47	24
3188.28	26
3189.1	24.5
3189.91	23
3190.73	26
3191.54	22.5
3192.36	27
3193.17	27.5
3193.98	20
3194.8	24
3195.61	24.5
3196.43	26.5
3197.24	20
3198.05	24
3198.87	22.5
3199.68	24
3200.49	20.5
3201.31	22
3202.12	25
3202.93	23
3203.75	17.5
3204.56	24
3205.37	25
3206.18	24
3207	26
3207.81	21
3208.62	24
3209.43	26.5
3210.24	23.5
3211.06	21
3211.87	24
3212.68	27.5
3213.49	19.5
3214.3	22
3215.11	24.5
3215.92	23
3216.73	23.5
3217.55	25.5
3218.36	24.5
3219.17	23
3219.98	22.5
3220.79	22
3221.6	22
3222.41	26
3223.22	22
3224.03	24
3224.84	24.5
3225.65	23.5
3226.46	22.5
3227.27	24
3228.08	23
3228.89	17
3229.7	27
3230.5	21
3231.31	26
3232.12	25.5
3232.93	26
3233.74	27.5
3234.55	26.5
3235.36	21
3236.16	20
3236.97	22
3237.78	23
3238.59	25.5
3239.4	25
3240.2	23
3241.01	24
3241.82	25
3242.63	23.5
3243.43	24.5
3244.24	23.5
3245.05	23.5
3245.85	22
3246.66	23
3247.47	20
3248.27	24
3249.08	23
3249.89	24
3250.69	23
3251.5	22
3252.31	23
3253.11	27
3253.92	24.5
3254.72	23.5
3255.53	21.5
3256.33	19
3257.14	24
3257.94	26.5
3258.75	23
3259.55	26
3260.36	22.5
3261.16	25
3261.97	20
3262.77	24.5
3263.58	24.5
3264.38	28.5
3265.19	27
3265.99	24.5
3266.79	24.5
3267.6	24.5
3268.4	20.5
3269.21	18.5
3270.01	23
3270.81	23.5
3271.62	24
3272.42	25
3273.22	22
3274.03	25.5
3274.83	22
3275.63	25
3276.43	22.5
3277.24	25.5
3278.04	25
3278.84	26
3279.64	23.5
3280.45	24.5
3281.25	22.5
3282.05	20
3282.85	23
3283.65	26
3284.45	24
3285.26	24
3286.06	25.5
3286.86	24
3287.66	24.5
3288.46	23
3289.26	24
3290.06	23
3290.86	24.5
3291.66	25
3292.46	25
3293.26	27
3294.06	26
3294.86	26
3295.66	27
3296.46	20.5
3297.26	22.5
3298.06	26.5
3298.86	23
3299.66	17.5
3300.46	23.5
3301.26	24.5
3302.06	25.5
3302.86	21
3303.66	25.5
3304.46	26
3305.25	26
3306.05	20.5
3306.85	23.5
3307.65	24
3308.45	21
3309.25	21
3310.04	23.5
3310.84	25
3311.64	25
3312.44	23
3313.23	21.5
3314.03	24.5
3314.83	22.5
3315.63	22.5
3316.42	24.5
3317.22	21.5
3318.02	24
3318.81	25.5
3319.61	24
3320.41	21
3321.2	21.5
3322	25
3322.8	27.5
3323.59	25
3324.39	25.5
3325.18	24
3325.98	18
3326.78	27.5
3327.57	27
3328.37	25.5
3329.16	24.5
3329.96	21
3330.75	23.5
3331.55	24
3332.34	23.5
3333.14	24
3333.93	23
3334.73	22.5
3335.52	24
3336.31	24
3337.11	23
3337.9	24.5
3338.7	25.5
3339.49	23
3340.28	26
3341.08	25
3341.87	22.5
3342.66	24.5
3343.46	24
3344.25	23
3345.04	20.5
3345.84	26
3346.63	22
3347.42	22
3348.22	25
3349.01	24.5
3349.8	21.5
3350.59	23
3351.39	25.5
3352.18	20.5
3352.97	26.5
3353.76	27
3354.55	21.5
3355.35	23.5
3356.14	22.5
3356.93	22.5
3357.72	20
3358.51	26
3359.3	22.5
3360.09	23
3360.88	23
3361.67	25
3362.46	24
3363.26	21
3364.05	24
3364.84	23.5
3365.63	19.5
3366.42	23
3367.21	24.5
3368	23.5
3368.79	23
3369.58	23.5
3370.37	25
3371.15	23
3371.94	28
3372.73	24
3373.52	28
3374.31	22
3375.1	24.5
3375.89	26
3376.68	22
3377.47	26.5
3378.26	25
3379.04	23
3379.83	19
3380.62	24
3381.41	22.5
3382.2	26.5
3382.98	26.5
3383.77	21.5
3384.56	24.5
3385.35	24.5
3386.13	25
3386.92	21
3387.71	24
3388.5	23.5
3389.28	26.5
3390.07	26.5
3390.86	27
3391.64	23
3392.43	23
3393.22	25.5
3394	23.5
3394.79	26
3395.57	24.5
3396.36	23
3397.15	23
3397.93	24
3398.72	23.5
3399.5	24.5
3400.29	23
3401.07	24
3401.86	29
3402.65	23
3403.43	22.5
3404.21	24.5
3405	24
3405.78	23.5
3406.57	28.5
3407.35	26
3408.14	20.5
3408.92	25
3409.71	24.5
3410.49	23.5
3411.27	20
3412.06	26.5
3412.84	25
3413.62	24.5
3414.41	20
3415.19	24
3415.97	27
3416.76	21
3417.54	23.5
3418.32	23
3419.11	25
3419.89	20.5
3420.67	23.5
3421.46	21
3422.24	26
3423.02	26
3423.8	26
3424.58	25.5
3425.37	19
3426.15	27
3426.93	25.5
3427.71	25
3428.49	26.5
3429.27	24
3430.05	21
3430.84	25
3431.62	25
3432.4	24.5
3433.18	23
3433.96	23
3434.74	23.5
3435.52	23
3436.3	21
3437.08	25
3437.86	23
3438.64	20
3439.42	27.5
3440.2	24.5
3440.98	26.5
3441.76	22
3442.54	24
3443.32	25
3444.1	22
3444.88	25
3445.66	27
3446.44	26.5
3447.22	27
3448	23
3448.77	25.5
3449.55	25
3450.33	23.5
3451.11	24.5
3451.89	22
3452.67	27
3453.45	25.5
3454.22	24
3455	25
3455.78	22.5
3456.56	23
3457.33	23.5
3458.11	24
3458.89	22.5
3459.67	24
3460.44	20
3461.22	23
3462	24.5
3462.77	24
3463.55	26
3464.33	24.5
3465.1	26.5
3465.88	17.5
3466.66	24
3467.43	22.5
3468.21	22.5
3468.98	23.5
3469.76	23.5
3470.54	25.5
3471.31	25.5
3472.09	24.5
3472.86	25
3473.64	21.5
3474.41	24.5
3475.19	24.5
3475.96	20
3476.74	22
3477.51	23
3478.29	28
3479.06	25
3479.84	25
3480.61	23
3481.39	28
3482.16	23.5
3482.93	24.5
3483.71	26.5
3484.48	22
3485.25	21.5
3486.03	24
3486.8	25.5
3487.57	24
3488.35	22
3489.12	25
3489.89	22
3490.67	26
3491.44	25
3492.21	24
3492.99	23
3493.76	23
3494.53	23.5
3495.3	19.5
3496.08	23
3496.85	22
3497.62	24
3498.39	23.5
3499.16	25.5
3499.93	24.5
