#Acq. time (s)=	5
#Accumulations=	5
#Range (cm-ｹ)=	100...3500
#Windows=	4
#Autofocus=	Off
#AutoExposure=	Off
#Spike filter=	Multiple accum.
#Delay time (s)=	0
#Binning=	1
#Readout mode=	Signal
#DeNoise=	Off
#ICS correction=	Off
#Dark correction=	Off
#Inst. Process=	Off
#Instrument=	LabRAM HR Evol
#Detector=	Syncerity OE
#Objective=	x100_VIS
#Grating=	600 (500nm)
#ND Filter=	25%
#Laser=	633nm_Edge
#Hole=	100.021
#Range=	Visible
#Project=	verificaciones
#Sample=	at2
#Site=	plain
#Title=	bolusat2plain
#Remark=	
#Date=	13.01.2026 15:27
#Acquired=	13.01.2026 15:27:30
100.692	23
101.975	33
103.258	28
104.542	25
105.824	25.5
107.107	28.5
108.39	27.5
109.672	27.5
110.954	22.5
112.236	24
113.519	26.5
114.8	28
116.081	29
117.362	28.5
118.643	26
119.924	27.5
121.204	26
122.484	28
123.764	26.5
125.044	28
126.323	26
127.603	26.5
128.882	27
130.161	26.5
131.438	26.5
132.716	22
133.995	25
135.273	25.5
136.55	26.5
137.828	28.5
139.106	26
140.383	30
141.66	29
142.937	26
144.213	27
145.488	31
146.764	28
148.04	28
149.316	30
150.592	28
151.867	30.5
153.141	28
154.416	30
155.69	29
156.965	33.5
158.239	31
159.512	27
160.786	29.5
162.059	30
163.333	30
164.605	29.5
165.878	26
167.15	27.5
168.423	29
169.694	27.5
170.966	24.5
172.238	31.5
173.51	29
174.78	31.5
176.052	29
177.323	29.5
178.592	26
179.863	28.5
181.134	36
182.403	32
183.673	29.5
184.943	26
186.211	31.5
187.481	27
188.749	32.5
190.018	27.5
191.287	26.5
192.554	26.5
193.822	32
195.089	26
196.357	28
197.625	30
198.891	31
200.159	26
201.425	27.5
202.692	30
203.957	27
205.224	28
206.489	28.5
207.755	29
209.02	29.5
210.286	26
211.55	30
212.815	26.5
214.079	29
215.344	30.5
216.607	29
217.872	24.5
219.135	27
220.399	24.5
221.662	27
222.924	24
224.187	29.5
225.449	31
226.713	25
227.974	25.5
229.235	24.5
230.498	27.5
231.759	31
233.019	28.5
234.281	24
235.542	28.5
236.802	29
238.063	25.5
239.323	24.5
240.582	31
241.843	27
243.102	27
244.361	23.5
245.621	25
246.879	29
248.138	24.5
249.396	28.5
250.655	28
251.913	24
253.17	24.5
254.427	27.5
255.686	26.5
256.943	31
258.199	25.5
259.456	23.5
260.712	30.5
261.969	25
263.225	25.5
264.481	24.5
265.736	25.5
266.991	28.5
268.246	26.5
269.502	26.5
270.757	27.5
272.011	28
273.265	29
274.519	28
275.773	26.5
277.027	25.5
278.28	22.5
279.533	22.5
280.786	25.5
282.04	24.5
283.293	26.5
284.545	27
285.798	29
287.049	25
288.301	26
289.553	26
290.804	23
292.055	23.5
293.306	23.5
294.557	24.5
295.807	27
297.058	29.5
298.308	28.5
299.558	22
300.808	27
302.057	28
303.305	25
304.554	28
305.803	23
307.052	22.5
308.3	29
309.549	25.5
310.797	21.5
312.045	23.5
313.292	26.5
314.54	26
315.786	21
317.033	28
318.28	29
319.526	26
320.773	26
322.019	25
323.264	29
324.51	25.5
325.755	23
327.001	25
328.246	25.5
329.49	28
330.735	24
331.979	23
333.224	26.5
334.467	23
335.711	26.5
336.955	30.5
338.199	28.5
339.441	29
340.684	27
341.927	25
343.168	22
344.411	26
345.654	26
346.895	29.5
348.137	25
349.379	27
350.619	26
351.86	24
353.102	29
354.341	32
355.582	27
356.821	25.5
358.062	30.5
359.302	26
360.541	24.5
361.781	24.5
363.019	27
364.259	29
365.496	25
366.736	28.5
367.974	25
369.212	29
370.45	26.5
371.687	26.5
372.925	25.5
374.162	25
375.399	26
376.635	27
377.873	25
379.109	26.5
380.344	29
381.581	27.5
382.816	27
384.052	23
385.287	27.5
386.523	26
387.757	27
388.991	27
390.227	25.5
391.46	24.5
392.695	28.5
393.928	28.5
395.162	27.5
396.396	26.5
397.629	29
398.861	27
400.095	23
401.327	28
402.559	25
403.792	28.5
405.024	26.5
406.255	23.5
407.488	26.5
408.719	27
409.949	24
411.18	31.5
412.412	26.5
413.642	24.5
414.872	24.5
416.102	21.5
417.333	27.5
418.562	25
419.791	24.5
421.02	23
422.249	25.5
423.479	28.5
424.707	25.5
425.935	25.5
427.163	25
428.391	29
429.619	27
430.848	27.5
432.075	23
433.302	28
434.529	24.5
435.755	26
436.982	28
438.208	27
439.434	27
440.66	29
441.885	21.5
443.111	29
444.338	27
445.563	25.5
446.788	23
448.012	26.5
449.237	29
450.461	28
451.685	20
452.909	29
454.133	26.5
455.356	31
456.579	25
457.802	22
459.025	24.5
460.247	25
461.469	27
462.691	22.5
463.914	26
465.136	27
466.357	28
467.579	29.5
468.8	29
470.021	27.5
471.242	25.5
472.462	28
473.682	26.5
474.903	30
476.123	26
477.343	30
478.563	32.5
479.782	30.5
481	34.5
482.219	34
483.438	34
484.657	35.5
485.874	36
487.093	34
488.311	32.5
489.529	39.5
490.747	39.5
491.963	30
493.181	29.5
494.398	30
495.614	33
496.83	31
498.047	29.5
499.264	33
500.479	28
501.695	30
502.911	33
504.125	29
505.34	32
506.554	30
507.769	27.5
508.984	26
510.198	26.5
511.412	24
512.627	32.5
513.839	25
515.053	27.5
516.266	28.5
517.479	25.5
518.691	29.5
519.905	28
521.118	28
522.329	27
523.542	27.5
524.753	28
525.965	22
527.176	28
528.388	28.5
529.598	27.5
530.809	29
532.019	31
533.23	28
534.44	29.5
535.649	25.5
536.86	29.5
538.068	28
539.279	24.5
540.487	28
541.697	24
542.905	24
544.113	25
545.322	27.5
546.53	28
547.737	31.5
548.946	27
550.153	24
551.361	26.5
552.568	27
553.774	26.5
554.982	27
556.188	25
557.394	23.5
558.599	27.5
559.806	24.5
561.012	24
562.217	25.5
563.423	28
564.628	28
565.832	29
567.036	27.5
568.241	29.5
569.446	26
570.65	30
571.853	27
573.057	29.5
574.26	27.5
575.464	28.5
576.667	29
577.87	28
579.072	28
580.274	28
581.477	27
582.68	25
583.881	22
585.083	26.5
586.284	24.5
587.485	22
588.686	28.5
589.887	27
591.087	27
592.288	24.5
593.488	26.5
594.688	25.5
595.888	24.5
597.087	24.5
598.287	21.5
599.486	25
600.685	26
601.884	22
603.082	30
604.281	23.5
605.479	25
606.677	27
607.875	25.5
609.073	24.5
610.27	24
611.468	26.5
612.665	26.5
613.862	28
615.058	25.5
616.255	28
617.451	27
618.648	28.5
619.842	28
621.038	28.5
622.234	28.5
623.429	27
624.624	26
625.819	27
627.013	24
628.207	27.5
629.402	27.5
630.596	22
631.79	23.5
632.983	27
634.177	25
635.37	28
636.564	29
637.755	26.5
638.948	23.5
640.141	28
641.334	25
642.525	25.5
643.717	23
644.909	25.5
646.099	27.5
647.291	25
648.483	26
649.674	28
650.864	25
652.055	29
653.244	28
654.435	30
655.625	25.5
656.814	28
658.004	22.5
659.193	27
660.382	28.5
661.571	25
662.759	31.5
663.948	26.5
665.135	30
666.324	25.5
667.511	30
668.7	30
669.886	30
671.074	28.5
672.262	26
673.448	31.5
674.634	28
675.821	27
677.007	26
678.194	27.5
679.379	31
680.565	23
681.75	31
682.936	24
684.121	28.5
685.305	31
686.491	29
687.675	26
688.86	26
690.043	26.5
691.227	26.5
692.411	30
693.594	27
694.777	33.5
695.961	31.5
697.144	24.5
698.326	26.5
699.509	26.5
700.691	26.5
701.873	26
703.056	29.5
704.237	33
705.419	30
706.599	33.5
707.782	35.5
708.962	37.5
710.143	34
711.323	32.5
712.504	28.5
713.684	35
714.864	29.5
716.043	30.5
717.223	25.5
718.403	29.5
719.582	27.5
720.761	25
721.94	28.5
723.118	25.5
724.296	24
725.474	27
726.652	30
727.831	28.5
729.009	27.5
730.186	26.5
731.363	27.5
732.54	26.5
733.717	26.5
734.893	28
736.07	23
737.246	26.5
738.422	24.5
739.598	29
740.773	32
741.949	29.5
743.124	24.5
744.299	28
745.474	28.5
746.649	27
747.823	27
748.997	28.5
750.172	24
751.346	27.5
752.519	23.5
753.693	24
754.867	28.5
756.038	25.5
757.211	26
758.384	32
759.557	26.5
760.73	29
761.902	25
763.074	24.5
764.246	27.5
765.417	26
766.588	27.5
767.76	28
768.931	25.5
770.102	25.5
771.271	27
772.442	26
773.613	26
774.783	23
775.952	23.5
777.122	27.5
778.291	28
779.461	27
780.629	24
781.798	26.5
782.967	30.5
784.135	26.5
785.304	26.5
786.472	28
787.639	28.5
788.807	24
789.975	26
791.142	33
792.309	27.5
793.477	28
794.642	23.5
795.81	30.5
796.975	23.5
798.142	25
799.308	27.5
800.473	29
801.639	28
802.804	27
803.97	20
805.134	27
806.299	25
807.463	26.5
808.628	27.5
809.792	25
810.957	32.5
812.12	27.5
813.284	25.5
814.447	24.5
815.611	30.5
816.773	23
817.937	25
819.099	29.5
820.261	23
821.424	28
822.585	31.5
823.748	24
824.909	33.5
826.07	29.5
827.232	29
828.393	23
829.554	23
830.715	25.5
831.875	24
833.035	27
834.196	29
835.356	22
836.515	27.5
837.676	26
838.835	26
839.994	30.5
841.152	24.5
842.312	25
843.47	25.5
844.629	27
845.786	25.5
846.946	29
848.103	28.5
849.261	27
850.418	24
851.575	26
852.733	27
853.89	25.5
855.046	26
856.203	26
857.359	26.5
858.515	27
859.67	25.5
860.827	25
861.983	26
863.138	28
864.293	26
865.448	26.5
866.603	28.5
867.757	23.5
868.912	22
870.066	27.5
871.22	25.5
872.374	25.5
873.527	28.5
874.681	27
875.834	28.5
876.987	25
878.14	24
879.293	29.5
880.445	25.5
881.598	27.5
882.75	23
883.902	25
885.054	20
886.206	27
887.357	22
888.507	27
889.658	28
890.809	28
891.96	23.5
893.111	20
894.261	26
895.411	27.5
896.561	24
897.71	25.5
898.86	28
900.009	28
901.159	29
902.308	24
903.455	27
904.604	23.5
905.753	26
906.901	25
908.048	25
909.197	25
910.344	27
911.492	22.5
912.639	23
913.786	23
914.933	23.5
916.079	27
917.226	23
918.373	25
919.518	24.5
920.664	25
921.81	25
922.955	25.5
924.101	23
925.245	28
926.391	28.5
927.536	28.5
928.68	25
929.825	22.5
930.968	27
932.113	25.5
933.256	27
934.4	24
935.543	24
936.687	29.5
937.83	20
938.973	26
940.115	25
941.258	26
942.399	26.5
943.542	26
944.684	25.5
945.826	26
946.967	23
948.109	26
949.25	28.5
950.392	24
951.532	23
952.672	28
953.813	27
954.953	30.5
956.093	23
957.233	28.5
958.373	25.5
959.512	26.5
960.652	23.5
961.791	26.5
962.929	26
964.069	24.5
965.207	24.5
966.345	26.5
967.484	28
968.622	27.5
969.759	22
970.896	23.75
972.035	25
973.172	26.5
974.309	25
975.445	26.5
976.582	22.5
977.719	26.5
978.855	25
979.991	22.5
981.127	24
982.263	27.5
983.398	26
984.535	21
985.67	25
986.804	27
987.939	22.5
989.074	26
990.208	25.5
991.342	25
992.476	26
993.61	23
994.744	29
995.877	23
997.01	26.5
998.143	26
999.276	25.5
1000.41	23
1001.54	26.5
1002.67	25.5
1003.81	26.5
1004.94	25.5
1006.07	25
1007.2	26
1008.33	26.5
1009.47	29
1010.6	25
1011.73	23
1012.86	25
1013.99	28.5
1015.12	27
1016.25	25
1017.38	25
1018.51	24
1019.64	25
1020.77	26.5
1021.9	23.5
1023.03	25
1024.15	26.5
1025.28	22.5
1026.41	25
1027.54	24
1028.67	22
1029.8	22.5
1030.92	25.5
1032.05	25
1033.18	24.5
1034.31	22
1035.43	22
1036.56	24.5
1037.69	24
1038.81	24.5
1039.94	25
1041.07	24
1042.19	30
1043.32	24
1044.44	26
1045.57	25.5
1046.69	26.5
1047.82	25
1048.94	23
1050.07	24
1051.19	21
1052.32	26
1053.44	23
1054.57	24.5
1055.69	24.5
1056.81	23
1057.94	26.5
1059.06	21
1060.18	24
1061.31	23
1062.43	24.5
1063.55	26
1064.67	24
1065.8	23
1066.92	27
1068.04	27.5
1069.16	22.5
1070.28	23
1071.4	25
1072.52	27.5
1073.64	27
1074.76	24.5
1075.89	26
1077.01	24
1078.13	23
1079.25	24
1080.37	23.5
1081.49	24.5
1082.6	26
1083.72	28.5
1084.84	23
1085.96	26.5
1087.08	25.5
1088.2	29.5
1089.32	23
1090.43	25
1091.55	24.5
1092.67	25
1093.79	20.5
1094.91	21
1096.02	24
1097.14	26.5
1098.26	28
1099.37	24.5
1100.49	30
1101.61	22.5
1102.72	21
1103.84	24.5
1104.95	23.5
1106.07	26
1107.18	20
1108.3	21
1109.41	25.5
1110.53	24.5
1111.64	25.5
1112.76	21.5
1113.87	24
1114.99	25
1116.1	24
1117.21	24
1118.33	27
1119.44	22.5
1120.55	24
1121.67	24
1122.78	26
1123.89	25.5
1125	24.5
1126.12	23.5
1127.23	26.5
1128.34	24
1129.45	25.5
1130.56	25
1131.68	22
1132.79	28
1133.9	24.5
1135.01	27
1136.12	25.5
1137.23	26.5
1138.34	23
1139.45	22
1140.56	24
1141.67	27
1142.78	24
1143.89	24
1145	30
1146.11	22
1147.22	25.5
1148.32	23.5
1149.43	24.5
1150.54	24.5
1151.65	26.5
1152.76	24
1153.86	23
1154.97	24.5
1156.08	28.5
1157.19	22
1158.29	20.5
1159.4	22
1160.51	23
1161.61	27
1162.72	23
1163.83	27.5
1164.93	23
1166.04	21
1167.14	24.5
1168.25	24.5
1169.35	25.5
1170.46	22.5
1171.56	24
1172.67	26
1173.77	22
1174.88	22
1175.98	22.5
1177.08	22
1178.19	22
1179.29	18
1180.4	24.5
1181.5	23.5
1182.6	23.5
1183.71	22.5
1184.81	23.5
1185.91	23.5
1187.01	22.5
1188.12	26.5
1189.22	22
1190.32	25.5
1191.42	22.5
1192.52	22.5
1193.62	22.5
1194.72	26.4606
1195.83	23.9386
1196.93	22.5822
1198.03	22.0611
1199.13	20.6966
1200.23	25.9415
1201.33	24.9509
1202.43	25.3573
1203.53	25.9203
1204.63	23.7953
1205.73	23.9079
1206.83	26.2963
1207.92	25.9802
1209.02	24.2219
1210.12	26.2267
1211.22	23.2743
1212.32	20.3094
1213.42	24.4845
1214.51	23.7234
1215.61	24.575
1216.71	22.2015
1217.81	24.9205
1218.9	23.1725
1220	23.9987
1221.1	21.1064
1222.19	26.0985
1223.29	24.1936
1224.39	22.3438
1225.48	25.068
1226.58	28.1464
1227.68	23.3868
1228.77	21.7547
1229.87	24.2843
1230.96	22.7329
1232.06	24.1217
1233.15	24.3417
1234.25	23.0406
1235.34	21.2676
1236.43	25.493
1237.53	22
1238.62	25.0692
1239.72	22.3926
1240.81	22.2143
1241.9	21.6893
1243	23.145
1244.09	22.8384
1245.18	25.2663
1246.27	22.3058
1247.37	25.9257
1248.46	21.3781
1249.55	24.4141
1250.64	23.5153
1251.74	23.2625
1252.83	26.4078
1253.92	23.2892
1255.01	26.2358
1256.1	24.2549
1257.19	23.7913
1258.28	25.2351
1259.38	25.2339
1260.46	25.9336
1261.56	27.3
1262.65	23.4194
1263.74	23.3355
1264.82	23.9705
1265.91	25.6145
1267	23.6357
1268.09	24
1269.18	22.741
1270.27	20.8859
1271.36	21.7837
1272.45	23.1622
1273.54	24.509
1274.63	25.9229
1275.71	23.0541
1276.8	24.9048
1277.89	24.5146
1278.98	24.8415
1280.06	21.8379
1281.15	20.9563
1282.24	22.1201
1283.32	23.9853
1284.41	23.2015
1285.5	23.4053
1286.58	24.8854
1287.67	21.7454
1288.76	24.0837
1289.84	23.4798
1290.93	25.4185
1292.01	25.5699
1293.1	21.3782
1294.18	19.835
1295.27	19.461
1296.35	24.3111
1297.44	25.3868
1298.52	25.974
1299.6	25.5784
1300.69	23.9066
1301.77	24.4065
1302.86	22.7409
1303.94	23.4805
1305.02	24.6981
1306.11	25.3549
1306.41	25.5
1307.5	23
1308.59	23.5
1309.68	26
1310.77	21
1311.85	24.5
1312.94	25.5
1314.03	21.5
1315.11	22.5
1316.2	21.5
1317.29	22
1318.37	22
1319.46	24
1320.55	21
1321.63	23
1322.72	25
1323.8	21
1324.89	25.5
1325.98	25.5
1327.06	24
1328.15	23
1329.23	25
1330.31	22.5
1331.4	25.5
1332.48	26.5
1333.57	24
1334.65	26.5
1335.74	23
1336.82	25.5
1337.9	25
1338.99	23
1340.07	25
1341.15	19.5
1342.24	27
1343.32	22
1344.4	25.5
1345.48	23
1346.56	24.5
1347.65	24
1348.73	24.5
1349.81	26.5
1350.89	21
1351.97	22
1353.05	22
1354.13	21
1355.21	21.5
1356.29	24.5
1357.37	23
1358.46	20
1359.54	19
1360.62	24
1361.69	24.5
1362.77	26.5
1363.85	25.5
1364.93	23.5
1366.01	26.5
1367.09	26
1368.17	23
1369.25	22
1370.33	24
1371.41	26
1372.48	24.5
1373.56	25
1374.64	24.5
1375.72	24.5
1376.79	23
1377.87	23
1378.95	23
1380.02	27
1381.1	25
1382.18	24
1383.25	23
1384.33	23
1385.4	24.5
1386.48	24
1387.56	25.5
1388.63	24.5
1389.71	25
1390.78	23
1391.86	23.5
1392.93	22.5
1394.01	20.5
1395.08	26
1396.15	21.5
1397.23	24
1398.3	26
1399.38	25
1400.45	23
1401.52	22
1402.6	24.5
1403.67	21.5
1404.74	27
1405.81	24
1406.89	25.5
1407.96	28
1409.03	25
1410.1	20.5
1411.17	23
1412.25	26.5
1413.32	26
1414.39	28
1415.46	25.5
1416.53	27.5
1417.6	25
1418.67	28
1419.74	28
1420.81	29.5
1421.88	27.5
1422.95	25.5
1424.02	22
1425.09	22
1426.16	23
1427.23	25.5
1428.3	27
1429.37	24
1430.44	26.5
1431.51	28
1432.58	25.5
1433.64	25.5
1434.71	24
1435.78	23.5
1436.85	25.5
1437.92	25
1438.98	24.5
1440.05	26
1441.12	27
1442.18	22
1443.25	25
1444.32	26
1445.38	24.5
1446.45	23.5
1447.52	25
1448.58	23.5
1449.65	26.5
1450.71	27.5
1451.78	23.5
1452.84	28.5
1453.91	26.5
1454.97	30
1456.04	27
1457.1	24
1458.17	24
1459.23	23.5
1460.3	24
1461.36	28.5
1462.42	25.5
1463.49	26
1464.55	23
1465.61	26
1466.68	25
1467.74	27
1468.8	22.5
1469.86	23.5
1470.93	24
1471.99	27.5
1473.05	24
1474.11	21
1475.17	23
1476.24	26.5
1477.3	22
1478.36	26
1479.42	27.5
1480.48	24
1481.54	27.5
1482.6	24
1483.66	23.5
1484.72	27
1485.78	24
1486.84	25
1487.9	25
1488.96	24.5
1490.02	24.5
1491.08	28.5
1492.14	24
1493.2	22.5
1494.26	26
1495.31	25
1496.37	23.5
1497.43	19.5
1498.49	27.5
1499.55	26.5
1500.6	24.5
1501.66	26
1502.72	22.5
1503.78	26.5
1504.83	26
1505.89	24
1506.95	28.5
1508	24.5
1509.06	28
1510.12	25.5
1511.17	28
1512.23	26.5
1513.28	25.5
1514.34	21.5
1515.39	28.5
1516.45	22
1517.5	25
1518.56	22
1519.61	25.5
1520.67	23
1521.72	22.5
1522.78	25.5
1523.83	25
1524.88	25
1525.94	26
1526.99	27.5
1528.05	21
1529.1	23
1530.15	24.5
1531.2	26
1532.26	25.5
1533.31	22
1534.36	25.5
1535.41	20
1536.47	21
1537.52	28.5
1538.57	22.5
1539.62	26.5
1540.67	23.5
1541.72	27
1542.77	27
1543.83	21.5
1544.88	25
1545.93	23.5
1546.98	23
1548.03	24.5
1549.08	26.5
1550.13	27
1551.18	24
1552.23	25.5
1553.28	25
1554.32	23
1555.37	25
1556.42	28
1557.47	26
1558.52	23
1559.57	21
1560.62	22
1561.67	30.5
1562.71	23
1563.76	25.5
1564.81	22
1565.86	22
1566.9	23
1567.95	28
1569	24.5
1570.04	24
1571.09	23
1572.14	23
1573.18	23.5
1574.23	26.5
1575.27	24.5
1576.32	23
1577.37	28
1578.41	26
1579.46	22
1580.5	29.5
1581.55	22.5
1582.59	24.5
1583.64	26.5
1584.68	26.5
1585.72	28.5
1586.77	24.5
1587.81	20.5
1588.86	20
1589.9	26
1590.94	27.5
1591.99	23.5
1593.03	27
1594.07	24
1595.12	26.5
1596.16	24
1597.2	28
1598.24	23
1599.29	27
1600.33	27.5
1601.37	27
1602.41	21.5
1603.45	25
1604.49	21.5
1605.53	27.5
1606.58	24.5
1607.62	22.5
1608.66	23.5
1609.7	20.5
1610.74	23
1611.78	27.5
1612.82	23
1613.86	23.5
1614.9	26
1615.94	25
1616.98	25
1618.02	25
1619.06	24
1620.09	22
1621.13	23
1622.17	23
1623.21	24.5
1624.25	24.5
1625.29	22
1626.32	25.5
1627.36	23.5
1628.4	25.5
1629.44	26
1630.47	25
1631.51	24
1632.55	20.5
1633.58	23
1634.62	26
1635.66	26
1636.69	27
1637.73	22.5
1638.77	21
1639.8	24.5
1640.84	25
1641.87	27.5
1642.91	22
1643.94	26
1644.98	24
1646.01	24
1647.05	27.5
1648.08	25.5
1649.12	25.5
1650.15	25.5
1651.18	26.5
1652.22	25
1653.25	28
1654.29	26
1655.32	21.5
1656.35	25.5
1657.39	22.5
1658.42	22
1659.45	24
1660.48	23
1661.52	25.5
1662.55	24.5
1663.58	21.5
1664.61	24.5
1665.64	21.5
1666.68	29
1667.71	25.5
1668.74	26
1669.77	28
1670.8	25
1671.83	29
1672.86	27.5
1673.89	26.5
1674.92	20
1675.95	25
1676.98	25.5
1678.01	26
1679.04	28
1680.07	26
1681.1	26.5
1682.13	26
1683.16	28
1684.19	26
1685.22	22
1686.25	27.5
1687.27	28
1688.3	26.5
1689.33	25.5
1690.36	26
1691.38	26.5
1692.41	24
1693.44	26
1694.47	26
1695.49	22
1696.52	27
1697.55	24.5
1698.57	26
1699.6	22.5
1700.63	24
1701.65	23.5
1702.68	26
1703.7	22.5
1704.73	22
1705.76	26
1706.78	24
1707.81	28.5
1708.83	23
1709.86	23
1710.88	28
1711.91	26
1712.93	28
1713.95	29
1714.98	23
1716	24.5
1717.03	27
1718.05	26.5
1719.07	23.5
1720.1	21.5
1721.12	24.5
1722.14	24
1723.16	20
1724.19	25
1725.21	27.5
1726.23	21.5
1727.25	29
1728.28	22.5
1729.3	25.5
1730.32	21
1731.34	24.5
1732.36	23
1733.38	24
1734.41	26
1735.43	25.5
1736.45	25.5
1737.47	25
1738.49	25
1739.51	23
1740.53	22
1741.55	27.5
1742.57	22.5
1743.59	24
1744.61	27.5
1745.63	24
1746.64	26.5
1747.66	21.5
1748.68	23
1749.7	26.5
1750.72	21
1751.74	24.5
1752.76	26
1753.77	25.5
1754.79	29
1755.81	26.5
1756.83	24.5
1757.84	23.5
1758.86	28.5
1759.88	27
1760.9	23
1761.91	25.5
1762.93	24.5
1763.95	26.5
1764.96	26.5
1765.98	27
1766.99	27.5
1768.01	27
1769.02	25.5
1770.04	26
1771.06	24.5
1772.07	26
1773.09	24.5
1774.1	25
1775.12	20
1776.13	26
1777.14	26
1778.16	25.5
1779.17	27.5
1780.19	23.5
1781.2	24
1782.21	21.5
1783.23	26.5
1784.24	23
1785.25	26.5
1786.27	23.5
1787.28	23
1788.29	23
1789.3	22
1790.32	26
1791.33	24.5
1792.34	26.5
1793.35	28
1794.36	22.5
1795.38	23
1796.39	23
1797.4	25
1798.41	21.5
1799.42	27
1800.43	23
1801.44	22
1802.45	27.5
1803.46	26
1804.47	25.5
1805.48	23.5
1806.49	26
1807.5	26
1808.51	25.5
1809.52	25.5
1810.53	26.5
1811.54	29.5
1812.55	24.5
1813.56	26.5
1814.57	27
1815.57	24.5
1816.58	23.5
1817.59	23
1818.6	21.5
1819.61	25.5
1820.61	27
1821.62	21
1822.63	23
1823.64	25.5
1824.64	21.5
1825.65	26
1826.66	25
1827.66	28.5
1828.67	28
1829.68	23.5
1830.68	27
1831.69	23
1832.69	24
1833.7	23.5
1834.7	26
1835.71	25.5
1836.71	25.5
1837.72	22.5
1838.72	24.5
1839.73	27
1840.73	23.5
1841.74	27
1842.74	26
1843.75	23.5
1844.75	26.5
1845.75	28.5
1846.76	24.5
1847.76	22.5
1848.76	23
1849.77	23.5
1850.77	23.5
1851.77	24
1852.78	22
1853.78	25
1854.78	28.5
1855.78	23
1856.78	24
1857.79	26
1858.79	25
1859.79	26.5
1860.79	25
1861.79	26
1862.79	26
1863.79	30
1864.79	25
1865.79	25.5
1866.8	26
1867.8	26
1868.8	24
1869.8	26.5
1870.8	26
1871.8	27
1872.8	25
1873.79	24
1874.79	28
1875.79	26.5
1876.79	23
1877.79	22.5
1878.79	24
1879.79	23.5
1880.79	24
1881.78	22.5
1882.78	25
1883.78	21
1884.78	26
1885.77	26.5
1886.77	22
1887.77	28
1888.77	23
1889.76	25.5
1890.76	23.5
1891.76	25.5
1892.75	24.5
1893.75	23
1894.75	25.5
1895.74	27.5
1896.74	26
1897.73	27
1898.73	22.5
1899.73	23.5
1900.72	26.5
1901.72	23
1902.71	24
1903.7	23
1904.7	25
1905.69	26
1906.69	27
1907.68	24
1908.68	28
1909.67	29
1910.66	23
1911.66	25
1912.65	26
1913.64	25
1914.64	27
1915.63	25.5
1916.62	26.5
1917.62	26.5
1918.61	24
1919.6	21.5
1920.59	27
1921.58	25
1922.58	23
1923.57	23
1924.56	26
1925.55	23
1926.54	21.5
1927.53	27
1928.52	26.5
1929.51	22
1930.51	25.5
1931.5	25.5
1932.49	24
1933.48	25.5
1934.47	25
1935.46	25
1936.45	26
1937.44	22
1938.42	27
1939.41	22.5
1940.4	23.5
1941.39	25
1942.38	23
1943.37	23.5
1944.36	25
1945.35	25.5
1946.33	25
1947.32	26.5
1948.31	26.5
1949.3	25
1950.29	20
1951.27	26
1952.26	22
1953.25	25.5
1954.23	23
1955.22	23.5
1956.21	21.5
1957.19	26.5
1958.18	23.5
1959.17	23.5
1960.15	25.5
1961.14	21.5
1962.13	22.5
1963.11	23
1964.1	23.5
1965.08	24
1966.07	22
1967.05	25.5
1968.04	20
1969.02	26
1970.01	19.5
1970.99	24
1971.97	27.5
1972.96	25.5
1973.94	27
1974.93	25
1975.91	28.5
1976.89	23
1977.88	25.5
1978.86	27
1979.84	26
1980.83	26.5
1981.81	23.5
1982.79	21
1983.77	24.5
1984.76	24
1985.74	23.5
1986.72	25.5
1987.7	23.5
1988.68	20.5
1989.67	24.5
1990.65	22
1991.63	21
1992.61	24
1993.59	24.5
1994.57	25.5
1995.55	26
1996.53	22
1997.51	27
1998.49	23
1999.47	25
2000.45	26
2001.43	22.5
2002.41	22.5
2003.39	24.5
2004.37	24.5
2005.35	24
2006.33	26
2007.31	23.5
2008.29	22.5
2009.26	24
2010.24	23
2011.22	25
2012.2	27
2013.18	22
2014.15	27
2015.13	23
2016.11	21.5
2017.09	23
2018.06	21
2019.04	19
2020.02	22.5
2021	23.5
2021.97	26.5
2022.95	24.5
2023.92	25.5
2024.9	27
2025.88	22
2026.85	23
2027.83	23.5
2028.8	23
2029.78	23
2030.75	20.5
2031.73	24
2032.7	24
2033.68	22.5
2034.65	24
2035.63	24
2036.6	24.5
2037.58	26.5
2038.55	22.5
2039.52	21
2040.5	27
2041.47	23.5
2042.45	24
2043.42	23
2044.39	25
2045.36	22
2046.34	23
2047.31	23.5
2048.28	24.5
2049.26	26.5
2050.23	26
2051.2	25.5
2052.17	17.5
2053.14	21.5
2054.12	24
2055.09	22
2056.06	20.5
2057.03	22
2058	24
2058.97	23
2059.94	22
2060.91	24
2061.88	23
2062.85	25.5
2063.82	23.5
2064.79	22.5
2065.76	21.5
2066.73	26
2067.7	21
2068.67	19.5
2069.64	19
2070.61	18.5
2071.58	23.5
2072.55	27.5
2073.52	23
2074.49	27.5
2075.45	24
2076.42	25
2077.39	22
2078.36	24
2079.33	21
2080.29	24
2081.26	22
2082.23	23.5
2083.2	22.5
2084.16	24.5
2085.13	21.5
2086.1	25.5
2087.06	25.5
2088.03	25
2089	23.5
2089.96	21
2090.93	23
2091.89	25.5
2092.86	20.5
2093.83	24.5
2094.79	24
2095.76	24.5
2096.72	22.5
2097.69	23
2098.65	24
2099.62	22
2100.58	25
2101.55	23.5
2102.51	23
2103.47	24
2104.44	24
2105.4	23
2106.36	20.5
2107.33	20
2108.29	23.5
2109.25	21
2110.22	28.5
2111.18	23.5
2112.14	23
2113.11	23.5
2114.07	21.5
2115.03	25.5
2115.99	24
2116.96	23
2117.92	24
2118.88	23
2119.84	23
2120.8	20.5
2121.76	26
2122.72	23
2123.68	23
2124.65	23.5
2125.61	24
2126.57	23
2127.53	22.5
2128.49	26.5
2129.45	26
2130.41	28
2131.37	20.5
2132.33	19.5
2133.29	21.5
2134.25	21
2135.21	20
2136.17	26
2137.12	23
2138.08	20.5
2139.04	23
2140	20
2140.96	23
2141.92	26
2142.88	22.5007
2143.83	20.4862
2144.79	20.0816
2145.75	23.0184
2146.71	23.0293
2147.66	24.3014
2148.62	21.5947
2149.58	21.1639
2150.53	23.0317
2151.49	22.9395
2152.45	24.0179
2153.4	25.5878
2154.36	23.7371
2155.32	22.5683
2156.27	23.1408
2157.23	22.6148
2158.19	22.1631
2159.14	20.4321
2160.1	23.1716
2161.05	21.3654
2162.01	23.1158
2162.96	20.0973
2163.92	26.3447
2164.87	20.7765
2165.83	21.7613
2166.78	20.431
2167.73	22.7028
2168.69	21.0803
2169.64	21.1716
2170.6	21.9216
2171.55	19.6034
2172.5	21.1743
2173.46	24.8308
2174.41	20.6626
2175.36	21.6458
2176.32	21.2312
2177.27	25.4855
2178.22	19.9965
2179.18	19.8537
2180.13	24.7695
2181.08	22.9545
2182.03	22.7015
2182.98	21.7637
2183.94	20.8126
2184.89	23.6619
2185.84	24.4417
2186.79	23.9521
2187.74	24.1683
2188.69	22.2816
2189.64	23.0176
2190.6	24.6092
2191.55	20.5
2192.5	20.2579
2193.45	22.024
2194.4	22.5291
2195.35	23.9223
2196.3	23.6772
2197.25	23.2209
2198.2	22.5215
2199.15	20.7677
2200.1	21.5877
2201.04	25.325
2201.99	24.2292
2202.94	25.9409
2203.89	22.1674
2204.84	23.9919
2205.79	23.2873
2206.74	21.5865
2207.69	22.4976
2208.63	23.9663
2209.58	22.708
2210.53	21.7152
2211.48	21.7961
2212.43	22.7328
2213.37	24.0729
2214.32	22.8802
2215.27	22.8893
2216.21	22.8414
2217.16	23.244
2218.11	17.1756
2219.05	20.5727
2220	23.2184
2220.95	22.8593
2221.89	25.2904
2222.84	24.1432
2223.78	22.0597
2224.73	26.6483
2225.68	25.9764
2226.62	18.1852
2227.57	23.7006
2228.51	23.9704
2229.46	21.341
2230.4	20.5215
2231.35	21.3357
2232.29	19.899
2233.24	22.1534
2234.18	23
2235.12	25.6458
2236.07	23.0361
2237.01	22.8732
2237.95	21.5116
2238.9	24.0321
2239.84	22.3212
2240.06	21.5
2241.01	22
2241.96	22.5
2242.91	24
2243.86	21
2244.8	20
2245.75	22
2246.7	23
2247.65	18.5
2248.59	21
2249.54	24
2250.49	21
2251.43	21
2252.38	23
2253.33	20
2254.27	23
2255.22	21.5
2256.16	23.5
2257.11	19.5
2258.06	23
2259	23.5
2259.95	24.5
2260.89	23.5
2261.84	25.5
2262.78	23.5
2263.73	25
2264.67	24.5
2265.62	19.5
2266.56	23
2267.5	24
2268.45	29
2269.39	22.5
2270.34	26
2271.28	23
2272.22	23
2273.17	20.5
2274.11	26.5
2275.05	19
2276	23
2276.94	25
2277.88	22.5
2278.82	27
2279.77	19.5
2280.71	21
2281.65	26
2282.59	24
2283.53	23
2284.48	22
2285.42	22.5
2286.36	26.5
2287.3	19
2288.24	23
2289.18	21
2290.12	21.5
2291.06	21.5
2292	26
2292.94	21
2293.89	24
2294.83	22
2295.77	20
2296.71	23.5
2297.65	25
2298.58	26.5
2299.52	22
2300.46	23
2301.4	24
2302.34	24
2303.28	24
2304.22	24.5
2305.16	22.5
2306.1	23
2307.03	26
2307.97	22
2308.91	23
2309.85	23
2310.79	25
2311.72	26
2312.66	23.5
2313.6	24
2314.54	23.5
2315.47	23
2316.41	25
2317.35	19
2318.28	22.5
2319.22	23
2320.16	22.5
2321.09	22.5
2322.03	24
2322.96	22
2323.9	25
2324.84	20.5
2325.77	24
2326.71	26.5
2327.64	23
2328.58	24
2329.51	27
2330.45	25.5
2331.38	28
2332.32	25.5
2333.25	22.5
2334.18	25.5
2335.12	24.5
2336.05	26
2336.99	20
2337.92	25
2338.85	21.5
2339.79	24
2340.72	21.5
2341.65	26
2342.59	23
2343.52	22
2344.45	25
2345.39	24.5
2346.32	25.5
2347.25	25.5
2348.18	23
2349.11	26
2350.05	23.5
2350.98	23.5
2351.91	22.5
2352.84	26
2353.77	21.5
2354.7	25.5
2355.64	21
2356.57	25
2357.5	23.5
2358.43	25
2359.36	21
2360.29	26
2361.22	22.5
2362.15	23.5
2363.08	20
2364.01	24.5
2364.94	23
2365.87	26.5
2366.8	21
2367.73	23.5
2368.66	24
2369.58	23.5
2370.51	24.5
2371.44	23.5
2372.37	21
2373.3	24
2374.23	26
2375.16	22
2376.08	20.5
2377.01	27
2377.94	25.5
2378.87	21
2379.8	22.5
2380.72	22
2381.65	23
2382.58	21
2383.5	25.5
2384.43	24.5
2385.36	23.5
2386.28	23
2387.21	23
2388.14	19
2389.06	23
2389.99	25.5
2390.91	24.5
2391.84	24
2392.77	24
2393.69	25
2394.62	21
2395.54	21.5
2396.47	24.5
2397.39	25
2398.32	25
2399.24	27.5
2400.16	28.5
2401.09	25.5
2402.01	23.5
2402.94	25.5
2403.86	23
2404.78	23
2405.71	25.5
2406.63	23
2407.56	26.5
2408.48	23
2409.4	22.5
2410.32	26.5
2411.25	22
2412.17	23.5
2413.09	23
2414.02	20.5
2414.94	25.5
2415.86	22
2416.78	18
2417.7	27
2418.63	25
2419.55	25
2420.47	23
2421.39	26.5
2422.31	19
2423.23	26
2424.15	22
2425.07	25
2425.99	23
2426.92	25
2427.84	22
2428.76	23.5
2429.68	23.5
2430.59	27
2431.51	25
2432.43	26
2433.35	25
2434.27	26
2435.19	16
2436.11	22.5
2437.03	26.5
2437.95	22
2438.87	24.5
2439.79	21
2440.71	27.5
2441.62	21
2442.54	20
2443.46	24
2444.38	25.5
2445.3	26
2446.21	21
2447.13	23
2448.05	22.5
2448.97	24.5
2449.88	21.5
2450.8	20
2451.72	26
2452.63	25
2453.55	27.5
2454.47	25.5
2455.38	25.5
2456.3	21.5
2457.21	22.5
2458.13	25.5
2459.05	25
2459.96	25
2460.88	22.5
2461.79	21
2462.71	25.5
2463.62	24
2464.54	23
2465.45	23
2466.37	21
2467.28	24.5
2468.2	23
2469.11	27
2470.02	28
2470.94	21
2471.85	24.5
2472.77	27.5
2473.68	24
2474.59	24.5
2475.51	26.5
2476.42	27.5
2477.33	24.5
2478.25	24
2479.16	21.5
2480.07	25
2480.98	25
2481.9	22
2482.81	24
2483.72	21.5
2484.63	24.5
2485.55	28
2486.46	24
2487.37	23.5
2488.28	23
2489.19	23.5
2490.1	22.5
2491.01	22.5
2491.92	22
2492.83	25.5
2493.74	26
2494.66	24
2495.57	23
2496.48	27
2497.39	25
2498.3	23.5
2499.21	25
2500.12	23
2501.03	27
2501.93	22
2502.84	22.5
2503.75	22
2504.66	25
2505.57	23
2506.48	23
2507.39	24.5
2508.3	24
2509.21	19.5
2510.11	23
2511.02	22
2511.93	21.5
2512.84	24
2513.75	24
2514.65	30
2515.56	26
2516.47	23
2517.37	25.5
2518.28	24.5
2519.19	23.5
2520.09	26.5
2521	20.5
2521.91	25.5
2522.81	20.5
2523.72	24.5
2524.63	25
2525.53	23.5
2526.44	22
2527.34	23
2528.25	24.5
2529.16	27
2530.06	27.5
2530.97	27
2531.87	23
2532.78	25
2533.68	20
2534.58	19
2535.49	22.5
2536.39	22.5
2537.3	26
2538.2	25
2539.11	22.5
2540.01	26
2540.91	27
2541.82	22
2542.72	25
2543.62	25
2544.53	26.5
2545.43	24
2546.33	24.5
2547.23	23
2548.14	25.5
2549.04	23
2549.94	21
2550.84	27
2551.75	25
2552.65	24.5
2553.55	27.5
2554.45	31
2555.35	24
2556.26	25.5
2557.16	24
2558.06	26
2558.96	29
2559.86	25
2560.76	23
2561.66	25
2562.56	25
2563.46	23.5
2564.36	27.5
2565.26	24.5
2566.16	27
2567.06	24
2567.96	24
2568.86	23.5
2569.76	26
2570.66	20.5
2571.56	22
2572.46	26
2573.36	25
2574.26	27.5
2575.16	27
2576.05	24.5
2576.95	27.5
2577.85	26
2578.75	23
2579.65	20.5
2580.54	26.5
2581.44	24
2582.34	25
2583.24	25
2584.13	24
2585.03	24
2585.93	23
2586.83	23
2587.72	25.5
2588.62	20
2589.52	26.5
2590.41	23
2591.31	26
2592.2	20.5
2593.1	26
2594	24
2594.89	26
2595.79	30
2596.68	25
2597.58	22.5
2598.47	23.5
2599.37	20
2600.26	24
2601.16	21.5
2602.05	23.5
2602.95	27
2603.84	23
2604.74	30.5
2605.63	26.5
2606.52	22.5
2607.42	25.5
2608.31	23
2609.21	27
2610.1	28
2610.99	23
2611.89	25
2612.78	26
2613.67	20
2614.56	24.5
2615.46	25.5
2616.35	22.5
2617.24	26.5
2618.13	24.5
2619.03	23
2619.92	26.5
2620.81	26
2621.7	24.5
2622.59	23
2623.49	25.5
2624.38	30
2625.27	23
2626.16	26
2627.05	24
2627.94	26.5
2628.83	21
2629.72	24
2630.61	26.5
2631.5	25
2632.39	26.5
2633.28	28
2634.17	27.5
2635.06	21
2635.95	26
2636.84	25.5
2637.73	26
2638.62	24
2639.51	23.5
2640.4	25
2641.29	26
2642.18	25
2643.07	26
2643.96	28.5
2644.84	27.5
2645.73	25
2646.62	26
2647.51	24.5
2648.4	25
2649.28	23
2650.17	26.5
2651.06	22.5
2651.95	24.5
2652.83	22
2653.72	24
2654.61	24
2655.49	22
2656.38	23.5
2657.27	25.5
2658.16	27
2659.04	23.5
2659.93	24.5
2660.81	26
2661.7	24
2662.59	27.5
2663.47	25.5
2664.36	24.5
2665.24	23
2666.13	25
2667.01	24
2667.9	28.5
2668.78	24
2669.67	19
2670.55	23.5
2671.44	21
2672.32	27.5
2673.21	22
2674.09	20
2674.97	23.5
2675.86	23.5
2676.74	24
2677.62	23
2678.51	25
2679.39	25
2680.27	26.5
2681.16	26.5
2682.04	24
2682.92	26
2683.81	25.5
2684.69	24
2685.57	22
2686.45	26.5
2687.34	22.5
2688.22	28.5
2689.1	24.5
2689.98	22
2690.86	25.5
2691.75	21
2692.63	24
2693.51	26
2694.39	23
2695.27	23
2696.15	19.5
2697.03	23
2697.91	26
2698.79	23
2699.67	26
2700.55	22
2701.43	24.5
2702.31	21
2703.19	25.5
2704.07	21.5
2704.95	24.5
2705.83	24.5
2706.71	22
2707.59	28
2708.47	23.5
2709.35	25
2710.23	22
2711.11	25
2711.99	23.5
2712.86	27
2713.74	26
2714.62	22.5
2715.5	22
2716.38	24.5
2717.26	20
2718.13	27.5
2719.01	24
2719.89	26
2720.77	23.5
2721.64	25
2722.52	24
2723.4	22.5
2724.27	20.5
2725.15	24.5
2726.03	24.5
2726.9	26
2727.78	27
2728.66	24
2729.53	20.5
2730.41	26
2731.28	22
2732.16	24.5
2733.03	27
2733.91	26
2734.79	20
2735.66	22
2736.54	26
2737.41	24.5
2738.29	22
2739.16	26
2740.03	26.5
2740.91	26.5
2741.78	22
2742.66	22
2743.53	24
2744.41	26
2745.28	24
2746.15	21.5
2747.03	25.5
2747.9	21
2748.77	23
2749.65	23
2750.52	24.5
2751.39	21
2752.27	23.5
2753.14	24
2754.01	23
2754.88	25
2755.75	25
2756.63	21.5
2757.5	25
2758.37	22
2759.24	24
2760.11	22
2760.99	28
2761.86	24
2762.73	24
2763.6	24
2764.47	24
2765.34	22.5
2766.21	23.5
2767.08	26
2767.95	22.5
2768.82	25
2769.69	22
2770.56	22
2771.43	23
2772.3	23
2773.17	24.5
2774.04	22
2774.91	23
2775.78	21
2776.65	25.5
2777.52	23.5
2778.39	24.5
2779.26	25
2780.13	22.5
2780.99	22.5
2781.86	25
2782.73	22.5
2783.6	21
2784.47	25
2785.34	27
2786.2	26.5
2787.07	25
2787.94	27.5
2788.81	22
2789.67	20.5
2790.54	27
2791.41	24
2792.27	26
2793.14	21
2794.01	26
2794.87	21.5
2795.74	24
2796.61	24.5
2797.47	27
2798.34	21.5
2799.21	23
2800.07	21
2800.94	24.25
2801.8	24
2802.67	22
2803.53	23
2804.4	26.5
2805.26	21.5
2806.13	27
2806.99	23
2807.86	25
2808.72	26
2809.59	26.5
2810.45	22
2811.32	24
2812.18	27.5
2813.04	27.5
2813.91	23.5
2814.77	25
2815.64	24
2816.5	26
2817.36	21.5
2818.22	25.5
2819.09	28.5
2819.95	22
2820.81	25
2821.68	22.5
2822.54	25.5
2823.4	24
2824.26	23
2825.13	24
2825.99	27.5
2826.85	24.5
2827.71	26
2828.57	29
2829.44	23
2830.3	24.5
2831.16	22.5
2832.02	24
2832.88	27.5
2833.74	27
2834.6	25.5
2835.46	24
2836.32	23.5
2837.18	25.5
2838.04	23
2838.9	25
2839.76	22.5
2840.62	29
2841.48	22
2842.34	24
2843.2	21
2844.06	24
2844.92	24
2845.78	24.5
2846.64	24
2847.5	25.5
2848.36	24
2849.22	27
2850.08	23.5
2850.93	25
2851.79	20.5
2852.65	24
2853.51	23.5
2854.37	22.5
2855.22	25.5
2856.08	25
2856.94	23.5
2857.8	26
2858.65	24
2859.51	22.5
2860.37	22
2861.23	22
2862.08	21.5
2862.94	24.5
2863.79	23
2864.65	26
2865.51	26.5
2866.36	24
2867.22	27
2868.08	25
2868.93	24.5
2869.79	25.5
2870.64	20.5
2871.5	28.5
2872.35	23
2873.21	26.5
2874.06	24
2874.92	24.5
2875.77	25
2876.63	24.5
2877.48	22
2878.34	27.5
2879.19	24.5
2880.05	23
2880.9	24
2881.76	24.5
2882.61	27
2883.46	28
2884.32	26.5
2885.17	23
2886.02	28.5
2886.88	25
2887.73	26
2888.58	25.5
2889.44	30
2890.29	27
2891.14	27
2891.99	25
2892.85	24.5
2893.7	28
2894.55	25.5
2895.4	29
2896.25	33.5
2897.11	30
2897.96	30
2898.81	29
2899.66	31.5
2900.51	30
2901.36	32
2902.21	33
2903.07	33
2903.92	31.5
2904.77	31.5
2905.62	32.5
2906.47	31.5
2907.32	34
2908.17	32
2909.02	30
2909.87	34.5
2910.72	32
2911.57	33
2912.42	27
2913.27	28
2914.12	29
2914.97	29
2915.81	30
2916.66	25.5
2917.51	24
2918.36	27
2919.21	27
2920.06	26.5
2920.91	31
2921.75	28
2922.6	26.5
2923.45	21
2924.3	23
2925.15	24
2925.99	24.5
2926.84	26.5
2927.69	25
2928.54	23
2929.38	19.5
2930.23	26
2931.08	25.5
2931.92	23.5
2932.77	27.5
2933.62	24
2934.46	24
2935.31	27
2936.16	27
2937	28
2937.85	26
2938.69	21
2939.54	23
2940.38	22
2941.23	25
2942.08	26.5
2942.92	24.5
2943.77	27
2944.61	19.5
2945.46	25.5
2946.3	23.5
2947.15	24
2947.99	24
2948.83	24
2949.68	21
2950.52	22.5
2951.37	25.5
2952.21	27.5
2953.05	21.5
2953.9	27
2954.74	27
2955.58	22
2956.43	25
2957.27	22
2958.11	26.5
2958.96	25.5
2959.8	24
2960.64	25
2961.48	26.5
2962.33	27.5
2963.17	27
2964.01	26.5
2964.85	28.5
2965.69	28.5
2966.54	25.5
2967.38	29
2968.22	26
2969.06	25
2969.9	26.5
2970.74	24
2971.58	24.0146
2972.43	22.9503
2973.27	23.0595
2974.11	26.0933
2974.95	25.992
2975.79	25.5
2976.63	24.5915
2977.47	26.0326
2978.31	22.8301
2979.15	24.7309
2979.99	23.0722
2980.83	21.8602
2981.67	23.0733
2982.51	24.5299
2983.35	22.8247
2984.19	24.0468
2985.03	24.9759
2985.86	23.1023
2986.7	22.8311
2987.54	23.3786
2988.38	21.7032
2989.22	22.9831
2990.06	24.292
2990.9	23.473
2991.73	21.9787
2992.57	22.3768
2993.41	25.0839
2994.25	22.2411
2995.09	22.3633
2995.92	23.3796
2996.76	23.2039
2997.6	23.6491
2998.44	26.3175
2999.27	23.2856
3000.11	22.3374
3000.95	23.0873
3001.78	24.8766
3002.62	25.3718
3003.46	22.7627
3004.29	25.7704
3005.13	21.2008
3005.96	23.6859
3006.8	21.347
3007.64	23.0388
3008.47	22.6984
3009.31	21.6938
3010.14	23.6236
3010.98	20.9158
3011.81	23.8881
3012.65	20.9963
3013.48	21.3762
3014.32	21.7417
3015.15	21.4787
3015.99	21.122
3016.82	21.4479
3017.66	19.9187
3018.49	22.0949
3019.33	21.2985
3020.16	23.2194
3020.99	21.733
3021.83	21.2755
3022.66	21.446
3023.5	21.2698
3024.33	22.2604
3025.16	23.9891
3026	22.3577
3026.83	22.9684
3027.66	22.2144
3028.49	21.4163
3029.33	20.8983
3030.16	22.0136
3030.99	22.4977
3031.83	23.4625
3032.66	23.7042
3033.49	21.3123
3034.32	22.3485
3035.15	24.0862
3035.99	22.4951
3036.82	22.9037
3037.65	21.3515
3038.48	22.8255
3039.31	24.0649
3040.14	22.8072
3040.97	21.4024
3041.81	21.3395
3042.64	23.5192
3043.47	22.2883
3044.3	22.6394
3045.13	22.7869
3045.96	21.8034
3046.79	22.3795
3047.62	22.8386
3048.45	20.6839
3049.28	20.442
3050.11	22.4936
3050.94	21.5734
3051.77	23.108
3052.6	24.8131
3053.43	23.3425
3054.26	22.6287
3055.08	23.8465
3055.91	22.2207
3056.74	21.539
3057.26	20
3058.09	23.5
3058.92	24
3059.76	24.5
3060.59	21
3061.42	21.5
3062.25	23
3063.09	20.5
3063.92	20
3064.75	21
3065.58	19.5
3066.42	20.5
3067.25	22
3068.08	24
3068.91	24.5
3069.74	25
3070.57	20
3071.41	23
3072.24	22.5
3073.07	18
3073.9	22.5
3074.73	22
3075.56	24.5
3076.39	17
3077.22	23
3078.05	23
3078.88	23
3079.71	20.5
3080.54	25
3081.37	22
3082.2	25
3083.03	22
3083.86	21.5
3084.69	28.5
3085.52	20.5
3086.35	23
3087.18	25.5
3088.01	20
3088.84	23.5
3089.67	20.5
3090.5	24.5
3091.32	22.5
3092.15	23
3092.98	22
3093.81	24
3094.64	22.5
3095.47	17.5
3096.29	22
3097.12	28
3097.95	19.5
3098.78	23.5
3099.6	24
3100.43	23.5
3101.26	24
3102.09	26
3102.91	25
3103.74	22
3104.57	17.5
3105.39	21.5
3106.22	21
3107.05	24.5
3107.87	23
3108.7	20
3109.52	25
3110.35	21
3111.18	20
3112	24
3112.83	21
3113.65	22
3114.48	24
3115.3	23.5
3116.13	23.5
3116.95	22.5
3117.78	26
3118.6	20.5
3119.43	25
3120.25	25.5
3121.08	17
3121.9	23
3122.72	20
3123.55	25
3124.37	24
3125.2	27.5
3126.02	26.5
3126.84	23
3127.67	20.5
3128.49	24
3129.31	22.5
3130.14	22.5
3130.96	27
3131.78	27.5
3132.61	23
3133.43	20.5
3134.25	24.5
3135.07	26.5
3135.89	24
3136.72	21.5
3137.54	24.5
3138.36	19
3139.18	23
3140	26
3140.83	24
3141.65	24
3142.47	24
3143.29	22
3144.11	24
3144.93	23
3145.75	23.5
3146.57	22
3147.4	24
3148.22	23
3149.04	25.5
3149.86	25.5
3150.68	21
3151.5	22
3152.32	22
3153.14	26.5
3153.96	24.5
3154.78	24.5
3155.59	18.5
3156.42	24
3157.23	21
3158.05	24
3158.87	23.5
3159.69	24
3160.51	23
3161.33	23
3162.15	23
3162.97	22.5
3163.78	24
3164.6	23.5
3165.42	22
3166.24	21.5
3167.06	25
3167.87	23
3168.69	26
3169.51	22
3170.33	24.5
3171.14	17
3171.96	27.5
3172.78	20.5
3173.6	26
3174.41	26.5
3175.23	19
3176.05	25
3176.86	22
3177.68	25.5
3178.5	19.5
3179.31	24.5
3180.13	23.5
3180.94	22.5
3181.76	24.5
3182.58	23.5
3183.39	25
3184.21	24.5
3185.02	21
3185.84	22.5
3186.65	21
3187.47	20
3188.28	21
3189.1	22
3189.91	26.5
3190.73	23
3191.54	25.5
3192.36	21.5
3193.17	23
3193.98	20
3194.8	22.5
3195.61	24
3196.43	24.5
3197.24	25
3198.05	26
3198.87	19
3199.68	24.5
3200.49	20.5
3201.31	23.5
3202.12	23.5
3202.93	26.5
3203.75	19.5
3204.56	24
3205.37	23.5
3206.18	26.5
3207	25
3207.81	22
3208.62	22.5
3209.43	26.5
3210.24	23.5
3211.06	22.5
3211.87	24.5
3212.68	22.5
3213.49	21
3214.3	21.5
3215.11	24
3215.92	24
3216.73	24.5
3217.55	24
3218.36	27.5
3219.17	23
3219.98	20
3220.79	23
3221.6	22
3222.41	24
3223.22	24.5
3224.03	26
3224.84	21.5
3225.65	25.5
3226.46	25
3227.27	22
3228.08	22.5
3228.89	20
3229.7	23
3230.5	26.5
3231.31	23.5
3232.12	23.5
3232.93	24.5
3233.74	27.5
3234.55	21
3235.36	26
3236.16	23.5
3236.97	23.5
3237.78	26
3238.59	22
3239.4	24
3240.2	24.5
3241.01	20
3241.82	22
3242.63	23
3243.43	21
3244.24	22.5
3245.05	23
3245.85	22
3246.66	22.5
3247.47	20
3248.27	25.5
3249.08	19.5
3249.89	21
3250.69	22
3251.5	23.5
3252.31	20
3253.11	21
3253.92	21
3254.72	25
3255.53	23.5
3256.33	21
3257.14	24.5
3257.94	28.5
3258.75	26
3259.55	25
3260.36	23
3261.16	19
3261.97	24
3262.77	21.5
3263.58	20.5
3264.38	23
3265.19	23.5
3265.99	24
3266.79	28
3267.6	25
3268.4	22
3269.21	23
3270.01	22.5
3270.81	20
3271.62	23.5
3272.42	24
3273.22	24.5
3274.03	22
3274.83	24
3275.63	24.5
3276.43	23.5
3277.24	26.5
3278.04	22.5
3278.84	22
3279.64	25.5
3280.45	26
3281.25	22
3282.05	23
3282.85	22.5
3283.65	23.5
3284.45	23.5
3285.26	24
3286.06	22.5
3286.86	23.5
3287.66	25
3288.46	18.5
3289.26	22.5
3290.06	25.5
3290.86	23
3291.66	21
3292.46	25
3293.26	21.5
3294.06	23
3294.86	26
3295.66	22
3296.46	22.5
3297.26	27
3298.06	25
3298.86	23
3299.66	20
3300.46	26.5
3301.26	26
3302.06	23
3302.86	23.5
3303.66	23.5
3304.46	25
3305.25	25
3306.05	23.5
3306.85	26.5
3307.65	25
3308.45	22
3309.25	21.5
3310.04	27
3310.84	25.5
3311.64	20.5
3312.44	24
3313.23	24
3314.03	25.5
3314.83	18.5
3315.63	21.5
3316.42	20.5
3317.22	19
3318.02	23
3318.81	24
3319.61	28
3320.41	24
3321.2	24
3322	22
3322.8	27.5
3323.59	24
3324.39	24
3325.18	24
3325.98	21.5
3326.78	25
3327.57	28.5
3328.37	21.5
3329.16	23.5
3329.96	24
3330.75	26
3331.55	16.5
3332.34	26
3333.14	26
3333.93	23
3334.73	26
3335.52	27
3336.31	26
3337.11	23.5
3337.9	26
3338.7	21.5
3339.49	28.5
3340.28	25
3341.08	25.5
3341.87	23.5
3342.66	22
3343.46	25.5
3344.25	22.5
3345.04	26.5
3345.84	25
3346.63	23
3347.42	26
3348.22	24.5
3349.01	24
3349.8	25
3350.59	26
3351.39	25.5
3352.18	25
3352.97	24
3353.76	23.5
3354.55	27
3355.35	26
3356.14	21
3356.93	26.5
3357.72	21
3358.51	23
3359.3	24
3360.09	25
3360.88	29.5
3361.67	26
3362.46	27
3363.26	23
3364.05	24
3364.84	21.5
3365.63	24.5
3366.42	23.5
3367.21	22.5
3368	25
3368.79	25.5
3369.58	24
3370.37	20
3371.15	26
3371.94	25.5
3372.73	29
3373.52	24.5
3374.31	25.5
3375.1	24.5
3375.89	27.5
3376.68	22
3377.47	23.5
3378.26	25
3379.04	26.5
3379.83	24
3380.62	23
3381.41	23
3382.2	23.5
3382.98	23
3383.77	20
3384.56	23.5
3385.35	23
3386.13	24
3386.92	23.5
3387.71	24
3388.5	20.5
3389.28	21
3390.07	24
3390.86	22.5
3391.64	24
3392.43	27
3393.22	22
3394	22.5
3394.79	22
3395.57	27
3396.36	25.5
3397.15	25
3397.93	26
3398.72	25
3399.5	21.5
3400.29	25
3401.07	27
3401.86	23.5
3402.65	23
3403.43	22.5
3404.21	20
3405	23
3405.78	23
3406.57	23
3407.35	25.5
3408.14	26
3408.92	20.5
3409.71	22.5
3410.49	22
3411.27	23
3412.06	26
3412.84	24.5
3413.62	22.5
3414.41	25.5
3415.19	22
3415.97	23
3416.76	25.5
3417.54	25
3418.32	26
3419.11	23.5
3419.89	25.5
3420.67	23
3421.46	25
3422.24	23
3423.02	21.5
3423.8	23.5
3424.58	25.5
3425.37	20
3426.15	24
3426.93	23
3427.71	21.5
3428.49	21
3429.27	18.5
3430.05	22.5
3430.84	22.5
3431.62	23.5
3432.4	23
3433.18	22.5
3433.96	24.5
3434.74	21
3435.52	23.5
3436.3	27
3437.08	25.5
3437.86	19.5
3438.64	25.5
3439.42	21
3440.2	23.5
3440.98	24
3441.76	21.5
3442.54	24
3443.32	25.5
3444.1	27
3444.88	26
3445.66	29.5
3446.44	28.5
3447.22	25
3448	23.5
3448.77	24.5
3449.55	24
3450.33	23.5
3451.11	20
3451.89	23
3452.67	23
3453.45	27
3454.22	21.5
3455	22
3455.78	22
3456.56	20
3457.33	24
3458.11	27.5
3458.89	25
3459.67	26
3460.44	21
3461.22	24.5
3462	21
3462.77	23
3463.55	27.5
3464.33	25
3465.1	26.5
3465.88	22
3466.66	26
3467.43	23.5
3468.21	22.5
3468.98	22.5
3469.76	25.5
3470.54	20
3471.31	22
3472.09	24
3472.86	23
3473.64	22
3474.41	20.5
3475.19	23.5
3475.96	21
3476.74	21
3477.51	24.5
3478.29	24
3479.06	27.5
3479.84	20.5
3480.61	19
3481.39	24.5
3482.16	22.5
3482.93	24
3483.71	21
3484.48	27
3485.25	24.5
3486.03	21.5
3486.8	26
3487.57	23.5
3488.35	23
3489.12	20.5
3489.89	25
3490.67	24
3491.44	24
3492.21	25.5
3492.99	22
3493.76	21
3494.53	23
3495.3	22
3496.08	25
3496.85	27.5
3497.62	25
3498.39	27
3499.16	20.5
3499.93	21.5
