#Acq. time (s)=	5
#Accumulations=	5
#Range (cm-¹)=	100...3500
#Windows=	4
#Autofocus=	Off
#AutoExposure=	Off
#Spike filter=	Multiple accum.
#Delay time (s)=	0
#Binning=	1
#Readout mode=	Signal
#DeNoise=	Off
#ICS correction=	Off
#Dark correction=	Off
#Inst. Process=	Off
#Instrument=	LabRAM HR Evol
#Detector=	Syncerity OE
#Objective=	x100_VIS
#Grating=	600 (500nm)
#ND Filter=	25%
#Laser=	633nm_Edge
#Hole=	100.021
#Range=	Visible
#Project=	verificaciones
#Sample=	at2
#Site=	plain
#Title=	bolusat2plain
#Remark=	
#Date=	13.01.2026 15:10
#Acquired=	13.01.2026 15:10:40
100.692	25
101.975	25
103.258	26.5
104.542	27
105.824	28
107.107	27.5
108.39	27.5
109.672	28.5
110.954	28
112.236	27.5
113.519	27.5
114.8	29
116.081	27
117.362	26
118.643	28.5
119.924	28.5
121.204	29
122.484	28
123.764	27
125.044	23
126.323	27
127.603	25.5
128.882	25.5
130.161	32.5
131.438	27.5
132.716	24.5
133.995	29.5
135.273	23
136.55	27
137.828	34
139.106	32
140.383	27
141.66	31.5
142.937	29.5
144.213	28.5
145.488	30
146.764	31.5
148.04	28.5
149.316	30.5
150.592	29
151.867	31.5
153.141	31.5
154.416	32.5
155.69	30.5
156.965	32
158.239	30
159.512	29.5
160.786	28.5
162.059	29
163.333	32
164.605	29.5
165.878	32.5
167.15	28
168.423	28.5
169.694	28
170.966	28
172.238	29.5
173.51	33.5
174.78	31
176.052	30
177.323	26.5
178.592	32.5
179.863	32
181.134	27
182.403	32
183.673	31
184.943	28
186.211	30.5
187.481	32
188.749	33
190.018	28.5
191.287	32.5
192.554	29
193.822	29.5
195.089	31
196.357	34
197.625	35.5
198.891	29.5
200.159	26.5
201.425	27
202.692	29
203.957	36
205.224	30
206.489	26.5
207.755	31
209.02	32
210.286	28
211.55	28
212.815	27.5
214.079	27
215.344	34
216.607	27
217.872	30.5
219.135	30.5
220.399	29.5
221.662	30
222.924	29
224.187	26.5
225.449	30.5
226.713	28
227.974	30.5
229.235	23.5
230.498	27
231.759	31
233.019	31
234.281	25.5
235.542	27.5
236.802	28
238.063	27
239.323	34
240.582	26
241.843	26.5
243.102	28
244.361	26.5
245.621	29
246.879	27.5
248.138	26
249.396	25
250.655	25.5
251.913	29.5
253.17	27.5
254.427	27
255.686	22
256.943	26
258.199	25
259.456	26.5
260.712	27.5
261.969	27
263.225	26.5
264.481	28.5
265.736	27
266.991	30.5
268.246	20.5
269.502	27.5
270.757	28
272.011	28.5
273.265	25
274.519	28.5
275.773	28.5
277.027	25.5
278.28	26
279.533	28.5
280.786	24.5
282.04	22.5
283.293	24
284.545	26
285.798	24
287.049	24.5
288.301	20
289.553	29.5
290.804	20.5
292.055	23.5
293.306	29
294.557	25
295.807	28.5
297.058	29.5
298.308	26.5
299.558	24.5
300.808	25.5
302.057	26.5
303.305	27.5
304.554	28
305.803	25.5
307.052	27.5
308.3	24
309.549	24.5
310.797	29
312.045	29.5
313.292	30.5
314.54	25
315.786	30
317.033	29.5
318.28	29.5
319.526	28
320.773	27
322.019	26
323.264	29
324.51	25
325.755	27
327.001	30
328.246	28
329.49	27.5
330.735	29.5
331.979	25
333.224	30.5
334.467	24.5
335.711	27
336.955	29.5
338.199	24.5
339.441	29.5
340.684	27.5
341.927	24
343.168	30.5
344.411	23
345.654	27.5
346.895	28
348.137	25
349.379	30
350.619	27
351.86	27
353.102	30.5
354.341	28.5
355.582	31.5
356.821	29
358.062	24
359.302	27.5
360.541	27
361.781	24.5
363.019	25.5
364.259	29.5
365.496	29.5
366.736	31
367.974	25.5
369.212	26.5
370.45	27
371.687	28
372.925	26.5
374.162	27
375.399	25.5
376.635	28.5
377.873	25
379.109	31.5
380.344	28
381.581	26
382.816	22.5
384.052	25
385.287	26.5
386.523	23
387.757	27
388.991	27
390.227	28
391.46	28.5
392.695	26
393.928	27
395.162	30
396.396	28.5
397.629	23
398.861	26
400.095	26
401.327	25.5
402.559	30
403.792	25.5
405.024	26
406.255	29
407.488	28.5
408.719	25
409.949	27.5
411.18	27
412.412	27.5
413.642	25
414.872	28.5
416.102	25
417.333	26
418.562	28.5
419.791	26.5
421.02	28.5
422.249	27
423.479	25
424.707	24
425.935	27
427.163	25.5
428.391	26
429.619	25.5
430.848	24
432.075	25.5
433.302	23.5
434.529	24.5
435.755	27.5
436.982	27
438.208	28.5
439.434	24.5
440.66	26.5
441.885	30
443.111	27
444.338	28
445.563	29
446.788	29
448.012	22
449.237	30
450.461	29
451.685	27.5
452.909	30
454.133	24
455.356	23.5
456.579	26
457.802	25.5
459.025	25.5
460.247	28.5
461.469	30.5
462.691	26.5
463.914	31.5
465.136	30.5
466.357	28.5
467.579	28.5
468.8	26.5
470.021	24
471.242	28
472.462	27
473.682	29
474.903	32.5
476.123	32
477.343	37
478.563	32.5
479.782	33
481	31.5
482.219	30
483.438	39.5
484.657	38
485.874	35.5
487.093	36
488.311	36.5
489.529	41.5
490.747	41.5
491.963	36
493.181	39
494.398	36.5
495.614	36.5
496.83	34.5
498.047	31.5
499.264	31
500.479	30
501.695	32.5
502.911	33
504.125	34.5
505.34	34
506.554	33.5
507.769	28.5
508.984	29.5
510.198	29.5
511.412	30.5
512.627	27
513.839	29.5
515.053	25.5
516.266	24
517.479	28
518.691	28
519.905	30
521.118	25.5
522.329	29.5
523.542	30
524.753	27.5
525.965	28
527.176	31.5
528.388	26.5
529.598	25
530.809	27.5
532.019	33
533.23	26
534.44	26.5
535.649	27
536.86	26.5
538.068	29
539.279	30
540.487	25.5
541.697	26
542.905	28.5
544.113	29
545.322	28
546.53	27.5
547.737	28
548.946	26.5
550.153	28.5
551.361	29
552.568	29
553.774	20.5
554.982	23
556.188	25
557.394	27
558.599	25
559.806	27
561.012	28
562.217	26
563.423	29
564.628	30
565.832	25
567.036	25
568.241	28
569.446	27.5
570.65	26
571.853	30.5
573.057	27.5
574.26	31.5
575.464	31.5
576.667	24.5
577.87	27
579.072	28
580.274	25
581.477	26.5
582.68	26
583.881	28
585.083	26
586.284	27
587.485	24
588.686	28
589.887	27
591.087	26
592.288	27.5
593.488	26.5
594.688	26
595.888	23.5
597.087	29.5
598.287	26.5
599.486	27
600.685	25.5
601.884	27
603.082	23.5
604.281	31
605.479	27
606.677	25
607.875	27
609.073	28
610.27	27
611.468	28.5
612.665	30.5
613.862	29.5
615.058	22.5
616.255	29.5
617.451	26.5
618.648	27
619.842	29
621.038	28.5
622.234	29.5
623.429	25.5
624.624	28
625.819	28.5
627.013	26
628.207	30
629.402	28
630.596	24.5
631.79	26
632.983	25
634.177	24
635.37	25
636.564	27
637.755	29
638.948	25
640.141	29
641.334	25
642.525	28.5
643.717	29
644.909	26.5
646.099	25
647.291	25.5
648.483	28
649.674	29
650.864	29
652.055	29.5
653.244	23
654.435	26.5
655.625	32.5
656.814	28
658.004	28
659.193	27.5
660.382	26.5
661.571	23.5
662.759	27
663.948	26.5
665.135	28.5
666.324	29.5
667.511	28
668.7	28.5
669.886	25
671.074	28
672.262	27
673.448	25
674.634	29.5
675.821	29.5
677.007	27
678.194	26.5
679.379	28
680.565	26
681.75	31
682.936	29
684.121	27
685.305	33
686.491	26
687.675	30
688.86	28.5
690.043	31.5
691.227	31.5
692.411	27
693.594	30.5
694.777	30.5
695.961	27.5
697.144	31.5
698.326	27
699.509	33.5
700.691	31
701.873	31.5
703.056	29
704.237	32.5
705.419	33
706.599	33.5
707.782	34
708.962	35
710.143	36
711.323	34
712.504	34.5
713.684	32
714.864	30
716.043	30
717.223	29.5
718.403	31
719.582	25
720.761	29
721.94	28
723.118	29
724.296	28.5
725.474	28
726.652	22.5
727.831	27
729.009	32
730.186	25
731.363	23
732.54	29.5
733.717	22
734.893	29
736.07	31
737.246	27.5
738.422	26
739.598	27
740.773	23.5
741.949	28
743.124	25.5
744.299	29.5
745.474	26.5
746.649	27.5
747.823	25.5
748.997	27.5
750.172	29.5
751.346	28
752.519	26.5
753.693	27
754.867	28.5
756.038	27.5
757.211	26.5
758.384	27.5
759.557	27
760.73	23.5
761.902	26
763.074	25
764.246	27.5
765.417	26
766.588	26
767.76	25.5
768.931	28
770.102	25.5
771.271	22
772.442	30.5
773.613	27.5
774.783	25.5
775.952	22.5
777.122	29
778.291	26
779.461	27
780.629	27
781.798	27.5
782.967	29
784.135	28.5
785.304	30
786.472	25.5
787.639	30
788.807	26.5
789.975	26.5
791.142	27
792.309	30
793.477	29
794.642	28.5
795.81	23.5
796.975	30.5
798.142	26.5
799.308	26.5
800.473	25
801.639	26
802.804	25
803.97	25
805.134	23.5
806.299	27
807.463	26.5
808.628	26.5
809.792	24.5
810.957	24.5
812.12	29
813.284	28
814.447	27.5
815.611	30
816.773	24
817.937	30.5
819.099	25
820.261	29
821.424	27.5
822.585	27
823.748	25.5
824.909	26.5
826.07	29
827.232	25
828.393	30.5
829.554	25.5
830.715	29.5
831.875	26
833.035	22
834.196	26
835.356	26.5
836.515	26.5
837.676	28
838.835	28.5
839.994	26.5
841.152	24
842.312	28.5
843.47	23
844.629	26
845.786	27.5
846.946	26.5
848.103	27.5
849.261	25
850.418	27.5
851.575	26
852.733	27.5
853.89	25
855.046	26
856.203	25.5
857.359	27
858.515	28.5
859.67	25
860.827	28
861.983	23.5
863.138	32
864.293	28
865.448	25.5
866.603	22
867.757	24
868.912	29
870.066	25
871.22	28
872.374	28.5
873.527	30.5
874.681	31
875.834	28.5
876.987	26
878.14	28
879.293	25.5
880.445	27
881.598	31.5
882.75	28.5
883.902	29
885.054	30
886.206	24.5
887.357	24.5
888.507	26.5
889.658	27.5
890.809	26.5
891.96	30.5
893.111	28
894.261	27.5
895.411	26
896.561	23
897.71	27
898.86	29.5
900.009	25
901.159	25
902.308	29.5
903.455	30
904.604	31
905.753	22.5
906.901	24.5
908.048	25.5
909.197	26.5
910.344	24
911.492	23
912.639	25
913.786	27
914.933	28.5
916.079	26
917.226	26
918.373	30.5
919.518	21
920.664	26
921.81	23
922.955	28
924.101	27
925.245	27
926.391	24
927.536	24
928.68	25
929.825	26.5
930.968	26
932.113	28
933.256	25.5
934.4	24.5
935.543	25.5
936.687	25
937.83	26.5
938.973	24
940.115	30
941.258	24
942.399	26
943.542	26.5
944.684	27
945.826	27
946.967	27
948.109	26
949.25	23
950.392	25.5
951.532	25.5
952.672	23
953.813	24
954.953	25
956.093	25
957.233	24.5
958.373	28
959.512	24.5
960.652	24
961.791	29.5
962.929	23.5
964.069	26
965.207	24
966.345	25
967.484	25.5
968.622	29
969.759	25
970.896	24.5
972.035	23
973.172	29
974.309	23.5
975.445	24.5
976.582	21
977.719	27
978.855	28
979.991	24
981.127	28.5
982.263	28
983.398	28
984.535	25.5
985.67	25
986.804	24
987.939	24.5
989.074	28.5
990.208	26.5
991.342	24.5
992.476	24.5
993.61	27.5
994.744	28
995.877	27.5
997.01	28
998.143	25.5
999.276	25.5
1000.41	25.5
1001.54	24.5
1002.67	25.5
1003.81	27
1004.94	26.5
1006.07	26.5
1007.2	20.5
1008.33	25.5
1009.47	24.5
1010.6	26
1011.73	22
1012.86	26.5
1013.99	26.5
1015.12	28.5
1016.25	27
1017.38	23.5
1018.51	25
1019.64	28.5
1020.77	22.5
1021.9	26
1023.03	28
1024.15	32
1025.28	28
1026.41	24.5
1027.54	22
1028.67	22
1029.8	21
1030.92	24
1032.05	27.5
1033.18	26.5
1034.31	22.5
1035.43	26
1036.56	26.5
1037.69	24
1038.81	27
1039.94	23
1041.07	23.5
1042.19	19.5
1043.32	27
1044.44	22.5
1045.57	25
1046.69	25.5
1047.82	26
1048.94	28
1050.07	27
1051.19	29.5
1052.32	21.5
1053.44	26
1054.57	23
1055.69	24.5
1056.81	27.5
1057.94	24.5
1059.06	29
1060.18	17
1061.31	24.5
1062.43	27
1063.55	27.5
1064.67	26
1065.8	29
1066.92	28
1068.04	23
1069.16	22
1070.28	22.5
1071.4	25.5
1072.52	23
1073.64	27.5
1074.76	23
1075.89	25
1077.01	24
1078.13	27
1079.25	27
1080.37	26
1081.49	22
1082.6	24
1083.72	25
1084.84	27.5
1085.96	24.5
1087.08	22
1088.2	23
1089.32	30.5
1090.43	29
1091.55	23
1092.67	26
1093.79	24
1094.91	25.5
1096.02	26.5
1097.14	29
1098.26	29
1099.37	25
1100.49	22
1101.61	23
1102.72	26.5
1103.84	22
1104.95	25.5
1106.07	23.5
1107.18	23
1108.3	23
1109.41	24
1110.53	22.5
1111.64	23
1112.76	27.5
1113.87	26.5
1114.99	23.5
1116.1	27
1117.21	26
1118.33	26.5
1119.44	24.5
1120.55	26
1121.67	26
1122.78	25
1123.89	27
1125	24.5
1126.12	23.5
1127.23	27
1128.34	21
1129.45	26.5
1130.56	24
1131.68	27
1132.79	22.5
1133.9	24
1135.01	24.5
1136.12	22.5
1137.23	20
1138.34	27
1139.45	24.5
1140.56	23
1141.67	24.5
1142.78	22
1143.89	21.5
1145	25
1146.11	26.5
1147.22	24.5
1148.32	23.5
1149.43	25.5
1150.54	26.5
1151.65	27
1152.76	21.5
1153.86	23.5
1154.97	26
1156.08	22.5
1157.19	27.5
1158.29	23
1159.4	26.5
1160.51	23
1161.61	24
1162.72	21
1163.83	29.5
1164.93	26.5
1166.04	26.5
1167.14	22.5
1168.25	25
1169.35	29.5
1170.46	27.5
1171.56	26
1172.67	25.5
1173.77	22
1174.88	25.5
1175.98	25
1177.08	25
1178.19	21
1179.29	25.5
1180.4	22.5
1181.5	21.5
1182.6	25
1183.71	22.5
1184.81	19
1185.91	20.5
1187.01	23.5
1188.12	25.5
1189.22	30
1190.32	24
1191.42	22
1192.52	21.5
1193.62	22
1194.72	25.9834
1195.83	21.5034
1196.93	24.0146
1198.03	23.551
1199.13	21.1534
1200.23	26.7496
1201.33	22.0268
1202.43	24.5998
1203.53	23.9682
1204.63	27.2975
1205.73	20.8386
1206.83	20.405
1207.92	22.9905
1209.02	20.7223
1210.12	24.4804
1211.22	22.8766
1212.32	22.8564
1213.42	21.2549
1214.51	22.6612
1215.61	21.7406
1216.71	24.1263
1217.81	22.0934
1218.9	25.6841
1220	24.2068
1221.1	24.8568
1222.19	25.1309
1223.29	23.7032
1224.39	25.1675
1225.48	25.486
1226.58	27.9463
1227.68	24.5434
1228.77	22.1733
1229.87	24.529
1230.96	25.316
1232.06	25.7718
1233.15	23.9498
1234.25	23.5975
1235.34	22.7157
1236.43	27.6037
1237.53	22.8755
1238.62	23.201
1239.72	24.2879
1240.81	21.635
1241.9	23.7478
1243	22.5589
1244.09	23.3946
1245.18	23.6207
1246.27	24.8137
1247.37	21.8835
1248.46	23.4561
1249.55	25.9488
1250.64	23.3495
1251.74	23.937
1252.83	22.0596
1253.92	23.9245
1255.01	23.8544
1256.1	24.5274
1257.19	25.7121
1258.28	25.9682
1259.38	24.5558
1260.46	26.9649
1261.56	25.2152
1262.65	26.0296
1263.74	23.5876
1264.82	25.764
1265.91	25.1405
1267	24.3228
1268.09	23.3987
1269.18	26.6532
1270.27	25.0782
1271.36	26.3588
1272.45	23.3631
1273.54	24.5709
1274.63	20.7781
1275.71	24.3749
1276.8	24.1632
1277.89	28.1163
1278.98	25.9108
1280.06	24.1239
1281.15	22.4167
1282.24	24.0218
1283.32	24.6067
1284.41	24.0646
1285.5	24.9616
1286.58	23.8275
1287.67	24.402
1288.76	22.9208
1289.84	26.3809
1290.93	26.1328
1292.01	23.8271
1293.1	22.6585
1294.18	23.6338
1295.27	24.3036
1296.35	23.9078
1297.44	26.2521
1298.52	24.3755
1299.6	24.0712
1300.69	23.6751
1301.77	24.2281
1302.86	24.8878
1303.94	24.9757
1305.02	23.1673
1306.11	22.5073
1306.41	22.5
1307.5	27.5
1308.59	22
1309.68	24
1310.77	21
1311.85	23.5
1312.94	21
1314.03	25
1315.11	26
1316.2	23
1317.29	22
1318.37	25
1319.46	27.5
1320.55	22
1321.63	24
1322.72	25.5
1323.8	22.5
1324.89	21
1325.98	22
1327.06	23
1328.15	21
1329.23	26.5
1330.31	22.5
1331.4	27.5
1332.48	24.5
1333.57	26
1334.65	21
1335.74	24.5
1336.82	23
1337.9	26
1338.99	25
1340.07	26
1341.15	20
1342.24	25
1343.32	25
1344.4	24
1345.48	23.5
1346.56	25.5
1347.65	24.5
1348.73	19.5
1349.81	23
1350.89	24.5
1351.97	22
1353.05	22.5
1354.13	22.5
1355.21	20
1356.29	23.5
1357.37	23.5
1358.46	25.5
1359.54	23
1360.62	24
1361.69	26
1362.77	24
1363.85	22
1364.93	26.5
1366.01	22
1367.09	24
1368.17	25
1369.25	24
1370.33	20.5
1371.41	24.5
1372.48	19
1373.56	22.5
1374.64	26
1375.72	25.5
1376.79	22
1377.87	24.5
1378.95	28
1380.02	26
1381.1	22
1382.18	25
1383.25	26.5
1384.33	23
1385.4	24
1386.48	23.5
1387.56	25
1388.63	26
1389.71	22
1390.78	23.5
1391.86	22
1392.93	23.5
1394.01	24
1395.08	23
1396.15	22.5
1397.23	26
1398.3	30
1399.38	29
1400.45	23
1401.52	23
1402.6	23.5
1403.67	25.5
1404.74	27.5
1405.81	27
1406.89	29.5
1407.96	23.5
1409.03	27.5
1410.1	24
1411.17	28.5
1412.25	27.5
1413.32	27.5
1414.39	33.5
1415.46	24.5
1416.53	24.5
1417.6	23.5
1418.67	23
1419.74	28
1420.81	26
1421.88	22
1422.95	26
1424.02	23
1425.09	26
1426.16	22
1427.23	24.5
1428.3	26
1429.37	24
1430.44	28.5
1431.51	23.5
1432.58	23
1433.64	25.5
1434.71	20.5
1435.78	24
1436.85	25
1437.92	24.5
1438.98	23
1440.05	25.5
1441.12	25
1442.18	29
1443.25	23.5
1444.32	26
1445.38	25.5
1446.45	22.5
1447.52	20.5
1448.58	24.5
1449.65	26.5
1450.71	24.5
1451.78	26.5
1452.84	23.5
1453.91	24
1454.97	23
1456.04	22.5
1457.1	29
1458.17	27
1459.23	27.5
1460.3	23.5
1461.36	27
1462.42	27
1463.49	26.5
1464.55	22.5
1465.61	25.5
1466.68	25.5
1467.74	20
1468.8	25
1469.86	23.5
1470.93	27.5
1471.99	25.5
1473.05	28
1474.11	24
1475.17	24
1476.24	22.5
1477.3	26.5
1478.36	28.5
1479.42	22
1480.48	22.5
1481.54	26
1482.6	23.5
1483.66	23
1484.72	24.5
1485.78	21.5
1486.84	24
1487.9	25
1488.96	25
1490.02	28
1491.08	23
1492.14	25
1493.2	24
1494.26	26
1495.31	25.5
1496.37	23.5
1497.43	23
1498.49	27
1499.55	25.5
1500.6	23
1501.66	28
1502.72	24
1503.78	23
1504.83	25.5
1505.89	20.5
1506.95	23.5
1508	22
1509.06	26
1510.12	31
1511.17	29
1512.23	27
1513.28	23
1514.34	25
1515.39	26
1516.45	25
1517.5	25
1518.56	26
1519.61	27
1520.67	25
1521.72	26.5
1522.78	24
1523.83	24
1524.88	20
1525.94	21
1526.99	27
1528.05	20
1529.1	25
1530.15	23
1531.2	28.5
1532.26	26.5
1533.31	25
1534.36	26.5
1535.41	28
1536.47	28
1537.52	28
1538.57	26.5
1539.62	23
1540.67	26
1541.72	23.5
1542.77	23
1543.83	26.5
1544.88	20
1545.93	22
1546.98	27
1548.03	20
1549.08	27
1550.13	25
1551.18	29.5
1552.23	24
1553.28	25
1554.32	23.5
1555.37	25.5
1556.42	24.5
1557.47	27
1558.52	27.5
1559.57	21.5
1560.62	24.5
1561.67	27
1562.71	19
1563.76	26
1564.81	25
1565.86	25.5
1566.9	28
1567.95	31.5
1569	22.5
1570.04	26
1571.09	28
1572.14	25
1573.18	24
1574.23	28
1575.27	22.5
1576.32	26
1577.37	26.5
1578.41	24
1579.46	24.5
1580.5	28
1581.55	24.5
1582.59	23.5
1583.64	28.5
1584.68	24
1585.72	21
1586.77	25
1587.81	23
1588.86	26.5
1589.9	24.5
1590.94	25.5
1591.99	27.5
1593.03	26.5
1594.07	25.5
1595.12	25.5
1596.16	26.5
1597.2	24
1598.24	25
1599.29	23.5
1600.33	28
1601.37	25
1602.41	28
1603.45	24
1604.49	24
1605.53	24
1606.58	25.5
1607.62	27
1608.66	30.5
1609.7	25.5
1610.74	26
1611.78	24.5
1612.82	23.5
1613.86	28.5
1614.9	27.5
1615.94	25.5
1616.98	27
1618.02	25.5
1619.06	28
1620.09	23
1621.13	24.5
1622.17	22.5
1623.21	26
1624.25	24
1625.29	20.5
1626.32	22
1627.36	21
1628.4	24.5
1629.44	26
1630.47	25
1631.51	24
1632.55	26
1633.58	22
1634.62	28
1635.66	22
1636.69	23
1637.73	21.5
1638.77	25.5
1639.8	25.5
1640.84	21
1641.87	24
1642.91	27.5
1643.94	24.5
1644.98	25
1646.01	23
1647.05	22
1648.08	24
1649.12	26.5
1650.15	24
1651.18	28.5
1652.22	24.5
1653.25	25
1654.29	25
1655.32	26
1656.35	27
1657.39	27
1658.42	25.5
1659.45	25
1660.48	24.5
1661.52	25
1662.55	22
1663.58	24
1664.61	24.5
1665.64	28.5
1666.68	26.5
1667.71	21.5
1668.74	27.5
1669.77	24.5
1670.8	26
1671.83	25.5
1672.86	28
1673.89	25.5
1674.92	25
1675.95	25
1676.98	26.5
1678.01	23.5
1679.04	27
1680.07	28
1681.1	26
1682.13	26
1683.16	23
1684.19	25.5
1685.22	23
1686.25	27
1687.27	26.5
1688.3	22.5
1689.33	23
1690.36	24
1691.38	29
1692.41	30.5
1693.44	25
1694.47	25.5
1695.49	25
1696.52	24.5
1697.55	23.5
1698.57	21
1699.6	27
1700.63	26.5
1701.65	26.5
1702.68	23.5
1703.7	26.5
1704.73	22.5
1705.76	26
1706.78	23
1707.81	26.5
1708.83	24
1709.86	25
1710.88	24.5
1711.91	26.5
1712.93	25.5
1713.95	23.5
1714.98	27
1716	21.5
1717.03	21.5
1718.05	28
1719.07	24
1720.1	24.5
1721.12	23.5
1722.14	25.5
1723.16	27
1724.19	24
1725.21	29.5
1726.23	29
1727.25	27
1728.28	26
1729.3	26
1730.32	27
1731.34	26.5
1732.36	25
1733.38	24.5
1734.41	26
1735.43	27.5
1736.45	25.5
1737.47	24
1738.49	21.5
1739.51	23
1740.53	26.5
1741.55	26
1742.57	23
1743.59	29
1744.61	23
1745.63	26.5
1746.64	26.5
1747.66	28
1748.68	24
1749.7	26.5
1750.72	24
1751.74	25.5
1752.76	25.5
1753.77	25
1754.79	27.5
1755.81	27.5
1756.83	24
1757.84	24.5
1758.86	24.5
1759.88	27.5
1760.9	25.5
1761.91	24.5
1762.93	22
1763.95	25.5
1764.96	22
1765.98	27
1766.99	22
1768.01	23.5
1769.02	25
1770.04	21
1771.06	25
1772.07	24.5
1773.09	27
1774.1	25.5
1775.12	28
1776.13	25
1777.14	23
1778.16	25
1779.17	24.5
1780.19	24
1781.2	26
1782.21	24
1783.23	21
1784.24	26
1785.25	25
1786.27	22
1787.28	22.5
1788.29	25.5
1789.3	25
1790.32	28.5
1791.33	24
1792.34	26.5
1793.35	25
1794.36	28
1795.38	25
1796.39	24.5
1797.4	25
1798.41	26.5
1799.42	26.5
1800.43	24
1801.44	27
1802.45	29
1803.46	24
1804.47	25.5
1805.48	27.5
1806.49	25.5
1807.5	22
1808.51	29
1809.52	24.5
1810.53	23
1811.54	29.5
1812.55	23.5
1813.56	29
1814.57	26.5
1815.57	27
1816.58	27
1817.59	24
1818.6	22.5
1819.61	26.5
1820.61	27
1821.62	25
1822.63	27
1823.64	23.5
1824.64	24.5
1825.65	21
1826.66	22
1827.66	27
1828.67	25.5
1829.68	25
1830.68	23
1831.69	28.5
1832.69	25
1833.7	28.5
1834.7	24.5
1835.71	24
1836.71	25.5
1837.72	27
1838.72	22.5
1839.73	26.5
1840.73	24
1841.74	24.5
1842.74	25.5
1843.75	23
1844.75	24
1845.75	24.5
1846.76	24
1847.76	25.5
1848.76	26.5
1849.77	24
1850.77	26.5
1851.77	27
1852.78	24.5
1853.78	26.5
1854.78	27.5
1855.78	24
1856.78	22
1857.79	19
1858.79	23
1859.79	23
1860.79	26
1861.79	26
1862.79	24.5
1863.79	23.5
1864.79	26.5
1865.79	24
1866.8	25.5
1867.8	26
1868.8	24.5
1869.8	22
1870.8	25.5
1871.8	24
1872.8	23
1873.79	27.5
1874.79	26
1875.79	23
1876.79	27
1877.79	29
1878.79	23.5
1879.79	23.5
1880.79	24
1881.78	20
1882.78	23.5
1883.78	28.5
1884.78	22
1885.77	24.5
1886.77	27.5
1887.77	24.5
1888.77	23
1889.76	26.5
1890.76	23.5
1891.76	27
1892.75	27
1893.75	23
1894.75	22.5
1895.74	25
1896.74	24.5
1897.73	23.5
1898.73	23
1899.73	21.5
1900.72	22
1901.72	24.5
1902.71	24
1903.7	25
1904.7	26
1905.69	19
1906.69	23.5
1907.68	29
1908.68	23.5
1909.67	25.5
1910.66	24
1911.66	26
1912.65	24
1913.64	25
1914.64	28
1915.63	24.5
1916.62	27
1917.62	26.5
1918.61	24
1919.6	24
1920.59	23.5
1921.58	24.5
1922.58	25.5
1923.57	26.5
1924.56	25.5
1925.55	27.5
1926.54	20.5
1927.53	21.5
1928.52	21.5
1929.51	23.5
1930.51	23.5
1931.5	25
1932.49	20.5
1933.48	22
1934.47	25.5
1935.46	26
1936.45	24
1937.44	23.5
1938.42	21
1939.41	24
1940.4	22
1941.39	25
1942.38	24
1943.37	25
1944.36	24
1945.35	24
1946.33	24
1947.32	22.5
1948.31	25.75
1949.3	25.5
1950.29	21.5
1951.27	23.5
1952.26	25
1953.25	21.5
1954.23	22.5
1955.22	26
1956.21	23.5
1957.19	25.5
1958.18	29
1959.17	27.5
1960.15	24
1961.14	23.5
1962.13	27
1963.11	25
1964.1	24
1965.08	24.5
1966.07	23
1967.05	28.5
1968.04	22
1969.02	25
1970.01	24
1970.99	27.5
1971.97	21
1972.96	20.5
1973.94	20
1974.93	23.5
1975.91	19.5
1976.89	20.5
1977.88	25
1978.86	25
1979.84	25
1980.83	22
1981.81	25
1982.79	24.5
1983.77	23
1984.76	23.5
1985.74	26
1986.72	24
1987.7	22.5
1988.68	20
1989.67	21
1990.65	23.5
1991.63	25
1992.61	24
1993.59	27
1994.57	22
1995.55	22
1996.53	25
1997.51	23.5
1998.49	22
1999.47	27.5
2000.45	24
2001.43	25
2002.41	21
2003.39	27
2004.37	25
2005.35	23
2006.33	21
2007.31	26.5
2008.29	22
2009.26	19.5
2010.24	21
2011.22	23
2012.2	22
2013.18	24
2014.15	23.5
2015.13	23
2016.11	27.5
2017.09	24
2018.06	22
2019.04	24
2020.02	24
2021	23
2021.97	23
2022.95	23.5
2023.92	19
2024.9	23
2025.88	21.5
2026.85	22
2027.83	22.5
2028.8	24
2029.78	22.5
2030.75	25
2031.73	26
2032.7	24
2033.68	27
2034.65	24.5
2035.63	22.5
2036.6	21
2037.58	21.5
2038.55	24.5
2039.52	24
2040.5	23
2041.47	24.5
2042.45	20
2043.42	23
2044.39	22
2045.36	26
2046.34	26
2047.31	26
2048.28	20.5
2049.26	25
2050.23	22
2051.2	22
2052.17	26.5
2053.14	23
2054.12	23
2055.09	22
2056.06	22
2057.03	21
2058	24.5
2058.97	21.5
2059.94	25
2060.91	26
2061.88	24
2062.85	23
2063.82	25.5
2064.79	22
2065.76	24
2066.73	26.5
2067.7	25
2068.67	23
2069.64	24.5
2070.61	25
2071.58	25.5
2072.55	21
2073.52	21.5
2074.49	26.5
2075.45	18
2076.42	22.5
2077.39	23
2078.36	23.5
2079.33	24.5
2080.29	20
2081.26	26
2082.23	21.5
2083.2	21.5
2084.16	26.5
2085.13	21
2086.1	24.5
2087.06	25
2088.03	24.5
2089	28
2089.96	22.5
2090.93	23
2091.89	24.5
2092.86	27
2093.83	23
2094.79	23
2095.76	20.5
2096.72	25
2097.69	25
2098.65	22
2099.62	23
2100.58	23.5
2101.55	24.5
2102.51	23.5
2103.47	23
2104.44	22
2105.4	22.5
2106.36	23.5
2107.33	22.5
2108.29	23
2109.25	21
2110.22	25
2111.18	23
2112.14	24
2113.11	26
2114.07	21
2115.03	23.5
2115.99	22.5
2116.96	22
2117.92	22
2118.88	22
2119.84	23.5
2120.8	28.5
2121.76	23
2122.72	23.5
2123.68	20.5
2124.65	26
2125.61	23
2126.57	23
2127.53	24
2128.49	23.5
2129.45	25
2130.41	27
2131.37	19.5
2132.33	23.5
2133.29	19.5
2134.25	24
2135.21	19.5
2136.17	23
2137.12	24
2138.08	22
2139.04	21.5
2140	25.5
2140.96	22
2141.92	23.5
2142.88	22.4854
2143.83	23.4341
2144.79	21.0627
2145.75	23.9168
2146.71	24.7669
2147.66	22.9547
2148.62	21.6254
2149.58	22.0548
2150.53	24.9391
2151.49	23.4173
2152.45	23.5539
2153.4	22.4356
2154.36	24.009
2155.32	21.1746
2156.27	24.4354
2157.23	22.5068
2158.19	22.1602
2159.14	22.5679
2160.1	22.0898
2161.05	23.5898
2162.01	25.5002
2162.96	20.4641
2163.92	24.2512
2164.87	23.3834
2165.83	22.7864
2166.78	24.3017
2167.73	23.277
2168.69	22.0655
2169.64	21.5298
2170.6	25.2158
2171.55	20.4841
2172.5	24.6821
2173.46	22.2226
2174.41	24.8945
2175.36	22.036
2176.32	21.981
2177.27	22.5991
2178.22	21.7299
2179.18	21.0229
2180.13	24.1076
2181.08	19.2576
2182.03	24.3
2182.98	21.6077
2183.94	23.7867
2184.89	22.1204
2185.84	21.9608
2186.79	21.9328
2187.74	24.3012
2188.69	21.3058
2189.64	23.4725
2190.6	21.5447
2191.55	22.4631
2192.5	20.7601
2193.45	22.7403
2194.4	24.1343
2195.35	20.2752
2196.3	21.0958
2197.25	21.8848
2198.2	21.0192
2199.15	21.7067
2200.1	24.1119
2201.04	22.1251
2201.99	21.1394
2202.94	23.9095
2203.89	21.6499
2204.84	21.5135
2205.79	20.5313
2206.74	23.8434
2207.69	23.3056
2208.63	25.1343
2209.58	24.2784
2210.53	22.114
2211.48	22.2682
2212.43	20.3048
2213.37	22.1275
2214.32	21.2369
2215.27	23.3815
2216.21	21.2427
2217.16	23.8646
2218.11	20.4743
2219.05	23.6687
2220	23.3358
2220.95	25.4877
2221.89	23.7363
2222.84	23.5971
2223.78	25.8326
2224.73	23.9093
2225.68	20.6452
2226.62	24.6506
2227.57	22.8971
2228.51	20.8802
2229.46	19.3262
2230.4	21.8725
2231.35	21.5332
2232.29	21.4522
2233.24	21.5364
2234.18	20.8487
2235.12	21.7026
2236.07	22.0437
2237.01	21.6908
2237.95	21.5728
2238.9	21.2011
2239.84	21.3754
2240.06	21.5
2241.01	23.5
2241.96	23
2242.91	23.5
2243.86	22
2244.8	22.5
2245.75	21.5
2246.7	26.5
2247.65	20
2248.59	24
2249.54	24.5
2250.49	21
2251.43	20
2252.38	22.5
2253.33	23.5
2254.27	21
2255.22	23
2256.16	20.5
2257.11	23.5
2258.06	28.5
2259	24
2259.95	20
2260.89	20
2261.84	23.5
2262.78	22.5
2263.73	21.5
2264.67	24
2265.62	22
2266.56	23.5
2267.5	24.5
2268.45	24.5
2269.39	22.5
2270.34	26
2271.28	24.5
2272.22	21.5
2273.17	22.5
2274.11	26
2275.05	25.5
2276	21.5
2276.94	25
2277.88	20
2278.82	19.5
2279.77	23.5
2280.71	24
2281.65	22
2282.59	22
2283.53	21.5
2284.48	23.5
2285.42	24
2286.36	20.5
2287.3	23
2288.24	24
2289.18	21
2290.12	21.5
2291.06	27
2292	20.5
2292.94	23.5
2293.89	21.5
2294.83	25
2295.77	24
2296.71	26
2297.65	21
2298.58	25
2299.52	25.5
2300.46	22
2301.4	17
2302.34	23.5
2303.28	25
2304.22	23
2305.16	20
2306.1	27
2307.03	21.5
2307.97	24
2308.91	23.5
2309.85	25
2310.79	24
2311.72	24.5
2312.66	21
2313.6	24
2314.54	24.5
2315.47	22
2316.41	24.5
2317.35	25
2318.28	26
2319.22	23.5
2320.16	24
2321.09	24.5
2322.03	24.5
2322.96	22.5
2323.9	26
2324.84	24.5
2325.77	24.5
2326.71	24.5
2327.64	22.5
2328.58	20
2329.51	20.5
2330.45	31
2331.38	27
2332.32	24
2333.25	22
2334.18	25.5
2335.12	24
2336.05	24.5
2336.99	23
2337.92	25.5
2338.85	21.5
2339.79	25.5
2340.72	24.5
2341.65	21
2342.59	21.5
2343.52	25.5
2344.45	22.5
2345.39	19.5
2346.32	23.5
2347.25	25.5
2348.18	23
2349.11	25
2350.05	22.5
2350.98	21.5
2351.91	25
2352.84	22.5
2353.77	23
2354.7	23
2355.64	25.5
2356.57	27
2357.5	22
2358.43	20.5
2359.36	24
2360.29	25
2361.22	25.5
2362.15	28.5
2363.08	24
2364.01	25.5
2364.94	24.5
2365.87	21
2366.8	26
2367.73	24.5
2368.66	25
2369.58	24
2370.51	23.5
2371.44	24
2372.37	25
2373.3	25
2374.23	19.5
2375.16	23.5
2376.08	22.5
2377.01	26
2377.94	25
2378.87	23
2379.8	20
2380.72	23.5
2381.65	20.5
2382.58	23
2383.5	22.5
2384.43	25
2385.36	26.5
2386.28	24.5
2387.21	22
2388.14	20
2389.06	24
2389.99	22
2390.91	26
2391.84	23.5
2392.77	26
2393.69	24.5
2394.62	23.5
2395.54	23
2396.47	23
2397.39	24.5
2398.32	23.5
2399.24	26.5
2400.16	23
2401.09	23
2402.01	23
2402.94	26
2403.86	23
2404.78	26
2405.71	21
2406.63	22
2407.56	24.5
2408.48	23
2409.4	19
2410.32	22.5
2411.25	24
2412.17	25
2413.09	21
2414.02	24.5
2414.94	21
2415.86	24.5
2416.78	23.5
2417.7	22
2418.63	21
2419.55	26
2420.47	24
2421.39	26
2422.31	22.5
2423.23	25
2424.15	25.5
2425.07	26.5
2425.99	23.5
2426.92	24
2427.84	27
2428.76	25
2429.68	25
2430.59	24
2431.51	20.5
2432.43	24
2433.35	21
2434.27	23
2435.19	20.5
2436.11	26.5
2437.03	25
2437.95	26
2438.87	24.5
2439.79	24.5
2440.71	20.5
2441.62	22
2442.54	21.5
2443.46	22
2444.38	20.5
2445.3	25.5
2446.21	26.5
2447.13	25.5
2448.05	27.5
2448.97	17.5
2449.88	22
2450.8	21.5
2451.72	22
2452.63	26.5
2453.55	23
2454.47	26
2455.38	24.5
2456.3	24
2457.21	20.5
2458.13	25.5
2459.05	26.5
2459.96	24.5
2460.88	25
2461.79	25
2462.71	26.5
2463.62	24.5
2464.54	23
2465.45	23
2466.37	25.5
2467.28	25
2468.2	26
2469.11	19
2470.02	22
2470.94	25.5
2471.85	27
2472.77	24
2473.68	27
2474.59	22.5
2475.51	23.5
2476.42	25.5
2477.33	23.5
2478.25	23
2479.16	21
2480.07	25.5
2480.98	24
2481.9	25.5
2482.81	27
2483.72	27
2484.63	23
2485.55	25
2486.46	24
2487.37	20.5
2488.28	27
2489.19	23
2490.1	21
2491.01	19
2491.92	23
2492.83	23.5
2493.74	24
2494.66	25
2495.57	19.5
2496.48	19
2497.39	25.5
2498.3	24.5
2499.21	25
2500.12	27
2501.03	23.5
2501.93	24
2502.84	22
2503.75	24
2504.66	23.5
2505.57	24.5
2506.48	19
2507.39	26
2508.3	25
2509.21	24.5
2510.11	27
2511.02	24.5
2511.93	24
2512.84	26.5
2513.75	24
2514.65	23.5
2515.56	25
2516.47	24.5
2517.37	22.5
2518.28	26.5
2519.19	24
2520.09	23.5
2521	27.5
2521.91	24.5
2522.81	25.5
2523.72	23
2524.63	24
2525.53	22
2526.44	24.5
2527.34	23
2528.25	21.5
2529.16	24.5
2530.06	27
2530.97	22
2531.87	23
2532.78	25
2533.68	24.5
2534.58	22
2535.49	24.5
2536.39	21
2537.3	23
2538.2	28
2539.11	28
2540.01	24
2540.91	24.5
2541.82	27
2542.72	26.5
2543.62	24
2544.53	22
2545.43	27
2546.33	25
2547.23	25
2548.14	26.5
2549.04	22.5
2549.94	27
2550.84	25
2551.75	26
2552.65	28.5
2553.55	25.5
2554.45	24
2555.35	25
2556.26	25
2557.16	21.5
2558.06	24
2558.96	23
2559.86	25
2560.76	26
2561.66	25
2562.56	25.5
2563.46	22
2564.36	24
2565.26	27
2566.16	24
2567.06	24
2567.96	23
2568.86	22.5
2569.76	26.5
2570.66	23.5
2571.56	25.5
2572.46	25
2573.36	20.5
2574.26	23.5
2575.16	23.5
2576.05	27
2576.95	24.5
2577.85	27.5
2578.75	24.5
2579.65	24
2580.54	26.5
2581.44	25.5
2582.34	25.5
2583.24	26
2584.13	24.5
2585.03	25.5
2585.93	26
2586.83	26.5
2587.72	22.5
2588.62	28
2589.52	24.5
2590.41	22.5
2591.31	24
2592.2	23
2593.1	18
2594	28
2594.89	23
2595.79	20
2596.68	23
2597.58	21
2598.47	22
2599.37	23.5
2600.26	24
2601.16	24
2602.05	25
2602.95	24
2603.84	24
2604.74	22
2605.63	29
2606.52	26.5
2607.42	23
2608.31	27
2609.21	23
2610.1	24.5
2610.99	24.5
2611.89	21
2612.78	23
2613.67	24
2614.56	22.5
2615.46	18.5
2616.35	28
2617.24	23
2618.13	25
2619.03	22.5
2619.92	25
2620.81	25
2621.7	25
2622.59	24.5
2623.49	24.5
2624.38	26
2625.27	26
2626.16	27
2627.05	19
2627.94	25
2628.83	22
2629.72	25.5
2630.61	26.5
2631.5	23.5
2632.39	22
2633.28	24
2634.17	22
2635.06	25.5
2635.95	25
2636.84	22
2637.73	25.5
2638.62	24.5
2639.51	25.5
2640.4	25
2641.29	21.5
2642.18	28
2643.07	25
2643.96	24.5
2644.84	20.5
2645.73	23
2646.62	25
2647.51	27.5
2648.4	23.5
2649.28	24.5
2650.17	23.5
2651.06	24
2651.95	22
2652.83	25
2653.72	23.5
2654.61	27.5
2655.49	26
2656.38	23.5
2657.27	19.5
2658.16	25
2659.04	28
2659.93	23
2660.81	23
2661.7	21.5
2662.59	25
2663.47	24.5
2664.36	24.5
2665.24	23
2666.13	21.5
2667.01	22
2667.9	25
2668.78	21
2669.67	21.5
2670.55	20.5
2671.44	23.5
2672.32	21.5
2673.21	25
2674.09	23.5
2674.97	23.5
2675.86	23
2676.74	25
2677.62	26.5
2678.51	21.5
2679.39	21.5
2680.27	26
2681.16	28.5
2682.04	23.5
2682.92	28.5
2683.81	22
2684.69	21
2685.57	24.5
2686.45	24
2687.34	26.5
2688.22	22.5
2689.1	25
2689.98	25
2690.86	24.5
2691.75	22.5
2692.63	26
2693.51	26.5
2694.39	24.5
2695.27	19
2696.15	26
2697.03	26
2697.91	23
2698.79	21.5
2699.67	26
2700.55	23
2701.43	22.5
2702.31	21.5
2703.19	24
2704.07	24.5
2704.95	27
2705.83	21.5
2706.71	25
2707.59	23.5
2708.47	27.5
2709.35	23.5
2710.23	24
2711.11	24.5
2711.99	22.5
2712.86	26.5
2713.74	21.5
2714.62	25
2715.5	23.5
2716.38	22.5
2717.26	21
2718.13	21.5
2719.01	26
2719.89	27
2720.77	25.5
2721.64	22
2722.52	25
2723.4	22.5
2724.27	25
2725.15	23
2726.03	23.5
2726.9	29
2727.78	24.5
2728.66	25.5
2729.53	25
2730.41	25.5
2731.28	26.5
2732.16	25
2733.03	25
2733.91	24.5
2734.79	25
2735.66	27
2736.54	23.5
2737.41	23.5
2738.29	21.5
2739.16	25.5
2740.03	19
2740.91	23
2741.78	25.5
2742.66	23
2743.53	22.5
2744.41	24.5
2745.28	25
2746.15	22
2747.03	26.5
2747.9	28
2748.77	23.5
2749.65	25
2750.52	22.5
2751.39	25
2752.27	24.5
2753.14	28.5
2754.01	26
2754.88	23
2755.75	24
2756.63	19.5
2757.5	23.5
2758.37	22
2759.24	22.5
2760.11	25
2760.99	24.5
2761.86	22.5
2762.73	23.5
2763.6	23
2764.47	27
2765.34	24.5
2766.21	22.5
2767.08	26
2767.95	23
2768.82	26
2769.69	26
2770.56	22
2771.43	29
2772.3	28
2773.17	30
2774.04	24.5
2774.91	20
2775.78	22.5
2776.65	19
2777.52	24.5
2778.39	21
2779.26	22.5
2780.13	25.5
2780.99	26.5
2781.86	25.5
2782.73	23
2783.6	27
2784.47	25
2785.34	26.5
2786.2	21.5
2787.07	25
2787.94	28.5
2788.81	28
2789.67	27
2790.54	24
2791.41	24
2792.27	26
2793.14	22
2794.01	25
2794.87	26
2795.74	24
2796.61	22
2797.47	25.5
2798.34	24
2799.21	27
2800.07	27
2800.94	26.5
2801.8	26
2802.67	25
2803.53	25.5
2804.4	25.5
2805.26	25.5
2806.13	24
2806.99	22.5
2807.86	22
2808.72	24
2809.59	28
2810.45	22
2811.32	25
2812.18	25.5
2813.04	23.5
2813.91	23
2814.77	24
2815.64	24
2816.5	23
2817.36	23.5
2818.22	26
2819.09	27
2819.95	28
2820.81	19
2821.68	27.5
2822.54	23
2823.4	23.5
2824.26	21
2825.13	23.5
2825.99	22.5
2826.85	26
2827.71	28
2828.57	23.5
2829.44	27.5
2830.3	24
2831.16	26.5
2832.02	25.5
2832.88	25
2833.74	26
2834.6	25.5
2835.46	26
2836.32	25
2837.18	23.5
2838.04	22.5
2838.9	24
2839.76	28
2840.62	29
2841.48	22
2842.34	25
2843.2	28.5
2844.06	25.5
2844.92	28
2845.78	23.5
2846.64	24.5
2847.5	25.5
2848.36	24.5
2849.22	23
2850.08	24
2850.93	23.5
2851.79	27
2852.65	29
2853.51	24
2854.37	25
2855.22	26
2856.08	25.5
2856.94	23.5
2857.8	27.5
2858.65	24.5
2859.51	27
2860.37	25.5
2861.23	25
2862.08	25
2862.94	28
2863.79	20
2864.65	23.5
2865.51	23
2866.36	26
2867.22	25
2868.08	25.5
2868.93	26
2869.79	24
2870.64	26
2871.5	24
2872.35	26.5
2873.21	25
2874.06	25
2874.92	26
2875.77	28
2876.63	31.5
2877.48	23.5
2878.34	27
2879.19	27
2880.05	26
2880.9	27.5
2881.76	30
2882.61	28
2883.46	25.5
2884.32	26
2885.17	26
2886.02	28.5
2886.88	29.5
2887.73	29
2888.58	31
2889.44	31
2890.29	30.5
2891.14	31
2891.99	26
2892.85	30.5
2893.7	33
2894.55	30
2895.4	32.5
2896.25	30
2897.11	33
2897.96	36.5
2898.81	38
2899.66	39.5
2900.51	37.5
2901.36	40.5
2902.21	40.5
2903.07	43.5
2903.92	45
2904.77	40.5
2905.62	42
2906.47	40.5
2907.32	45.5
2908.17	46
2909.02	40.5
2909.87	38.5
2910.72	37.5
2911.57	38
2912.42	37
2913.27	37.5
2914.12	38
2914.97	31
2915.81	32.5
2916.66	31
2917.51	33
2918.36	29.5
2919.21	29
2920.06	27
2920.91	28
2921.75	28
2922.6	25
2923.45	26
2924.3	30
2925.15	26
2925.99	30.5
2926.84	27.5
2927.69	28
2928.54	24.5
2929.38	25.5
2930.23	24.5
2931.08	25
2931.92	23.5
2932.77	25.5
2933.62	25
2934.46	26
2935.31	23.5
2936.16	22
2937	25.5
2937.85	24.5
2938.69	23
2939.54	26.5
2940.38	23.5
2941.23	20
2942.08	24
2942.92	27
2943.77	26
2944.61	27.5
2945.46	26
2946.3	29
2947.15	23
2947.99	29.5
2948.83	28
2949.68	22
2950.52	27
2951.37	28.5
2952.21	25
2953.05	27
2953.9	26
2954.74	30
2955.58	26.5
2956.43	27.5
2957.27	33.5
2958.11	26
2958.96	29
2959.8	30
2960.64	32.5
2961.48	35
2962.33	32.5
2963.17	30.5
2964.01	31
2964.85	35
2965.69	29.5
2966.54	30.5
2967.38	27.5
2968.22	30.5
2969.06	30
2969.9	31
2970.74	28.5
2971.58	29.5073
2972.43	29.9471
2973.27	28.4952
2974.11	26.1316
2974.95	28.2476
2975.79	26.5496
2976.63	31.7192
2977.47	29.1916
2978.31	25.6973
2979.15	25.09
2979.99	25.9166
2980.83	29.7396
2981.67	25.3626
2982.51	22.0627
2983.35	24.3491
2984.19	22.6793
2985.03	22.3833
2985.86	24.3745
2986.7	25.4289
2987.54	25.2188
2988.38	22.8093
2989.22	22.1869
2990.06	22.0137
2990.9	19.4235
2991.73	24.9577
2992.57	23.1098
2993.41	23.3257
2994.25	24.1346
2995.09	22.6448
2995.92	25.491
2996.76	20.7853
2997.6	21.5205
2998.44	24.6705
2999.27	24.2185
3000.11	22.6606
3000.95	21.8373
3001.78	23.3951
3002.62	21.9563
3003.46	23.3438
3004.29	23.5153
3005.13	23.3409
3005.96	23.0323
3006.8	22.9071
3007.64	25.2482
3008.47	21.4293
3009.31	23.4634
3010.14	22.6206
3010.98	24.0667
3011.81	21.7035
3012.65	22.976
3013.48	23.0017
3014.32	21.7417
3015.15	23.2743
3015.99	22.7675
3016.82	21.3295
3017.66	23.8768
3018.49	22.2799
3019.33	18.9665
3020.16	23.5426
3020.99	22.7237
3021.83	22.7621
3022.66	22.549
3023.5	22.3319
3024.33	22.5671
3025.16	21.9514
3026	22.6145
3026.83	22.729
3027.66	22.4989
3028.49	23.689
3029.33	22.2097
3030.16	22.9796
3030.99	26.0435
3031.83	23.2277
3032.66	22.5203
3033.49	23.2189
3034.32	22.4631
3035.15	21.305
3035.99	21.5713
3036.82	24.3265
3037.65	23.0865
3038.48	21.4802
3039.31	21.5769
3040.14	22.7195
3040.97	21.9601
3041.81	21.9017
3042.64	22.8845
3043.47	23.3843
3044.3	22.2808
3045.13	23.7869
3045.96	23.4617
3046.79	24.1503
3047.62	23.815
3048.45	22.9542
3049.28	23.5716
3050.11	23.7093
3050.94	22.7112
3051.77	23.6021
3052.6	22.364
3053.43	23.7409
3054.26	22.5752
3055.08	22.0282
3055.91	22.8011
3056.74	21.1673
3057.26	19
3058.09	20
3058.92	24
3059.76	26
3060.59	19.5
3061.42	25.5
3062.25	21.5
3063.09	24
3063.92	22.5
3064.75	23
3065.58	24
3066.42	22.5
3067.25	22
3068.08	21.5
3068.91	25.5
3069.74	23
3070.57	24
3071.41	24
3072.24	21
3073.07	21.5
3073.9	21
3074.73	23.5
3075.56	18.5
3076.39	23.5
3077.22	23
3078.05	22
3078.88	24.5
3079.71	23
3080.54	23.5
3081.37	26
3082.2	24.5
3083.03	24.5
3083.86	28
3084.69	21.5
3085.52	25
3086.35	20
3087.18	23.5
3088.01	21
3088.84	21
3089.67	21
3090.5	21
3091.32	23
3092.15	24
3092.98	22
3093.81	22
3094.64	23
3095.47	23.5
3096.29	24
3097.12	22
3097.95	19.5
3098.78	24.5
3099.6	22
3100.43	26
3101.26	23.5
3102.09	18.5
3102.91	21.5
3103.74	24
3104.57	25
3105.39	25.5
3106.22	25
3107.05	22.5
3107.87	22
3108.7	21
3109.52	20.5
3110.35	22.5
3111.18	20
3112	22.5
3112.83	23.5
3113.65	22
3114.48	22.5
3115.3	25
3116.13	24
3116.95	22
3117.78	19
3118.6	20
3119.43	23
3120.25	25.5
3121.08	23.5
3121.9	24
3122.72	23.5
3123.55	23
3124.37	24.5
3125.2	22
3126.02	26
3126.84	25.5
3127.67	20
3128.49	27
3129.31	22
3130.14	20
3130.96	22.5
3131.78	23.5
3132.61	23
3133.43	22.5
3134.25	21.5
3135.07	23
3135.89	21
3136.72	21
3137.54	20.5
3138.36	25.5
3139.18	24
3140	23
3140.83	26
3141.65	24
3142.47	24
3143.29	21
3144.11	22
3144.93	19
3145.75	21
3146.57	27
3147.4	24
3148.22	21.5
3149.04	23.5
3149.86	21
3150.68	23
3151.5	24
3152.32	20.5
3153.14	21.5
3153.96	20.5
3154.78	22.5
3155.59	23
3156.42	25.5
3157.23	22
3158.05	24.5
3158.87	26
3159.69	19.5
3160.51	22
3161.33	24
3162.15	24
3162.97	21.5
3163.78	24.5
3164.6	24.5
3165.42	22.5
3166.24	23
3167.06	25
3167.87	24
3168.69	24.5
3169.51	22
3170.33	21
3171.14	25
3171.96	20
3172.78	23
3173.6	24
3174.41	24
3175.23	24
3176.05	23.5
3176.86	23.5
3177.68	24
3178.5	23
3179.31	24.5
3180.13	21
3180.94	22
3181.76	20
3182.58	21
3183.39	19.5
3184.21	23.5
3185.02	22
3185.84	24
3186.65	22.5
3187.47	27.5
3188.28	21
3189.1	24.5
3189.91	24
3190.73	23
3191.54	26
3192.36	22
3193.17	23
3193.98	27
3194.8	26.5
3195.61	23
3196.43	26
3197.24	25
3198.05	24
3198.87	19.5
3199.68	23
3200.49	22.5
3201.31	23
3202.12	21
3202.93	24.5
3203.75	25.5
3204.56	25
3205.37	20
3206.18	24.5
3207	20.5
3207.81	24
3208.62	23
3209.43	24
3210.24	24
3211.06	22
3211.87	19.5
3212.68	23
3213.49	24
3214.3	27.5
3215.11	25.5
3215.92	22
3216.73	24.5
3217.55	23.5
3218.36	24
3219.17	24
3219.98	21.5
3220.79	20.5
3221.6	20.5
3222.41	24.5
3223.22	23
3224.03	24.5
3224.84	23
3225.65	21.5
3226.46	26
3227.27	23.5
3228.08	23
3228.89	24
3229.7	23.5
3230.5	21
3231.31	25.5
3232.12	23
3232.93	20.5
3233.74	27
3234.55	21.5
3235.36	25.5
3236.16	20
3236.97	21.5
3237.78	25
3238.59	21.5
3239.4	26.5
3240.2	18
3241.01	22.5
3241.82	25
3242.63	24.5
3243.43	23.5
3244.24	26
3245.05	24.5
3245.85	23
3246.66	23.5
3247.47	22
3248.27	20.5
3249.08	23.5
3249.89	24.5
3250.69	22.5
3251.5	25
3252.31	21
3253.11	25
3253.92	21
3254.72	24
3255.53	26
3256.33	25
3257.14	22.5
3257.94	26
3258.75	26.5
3259.55	24
3260.36	21
3261.16	24
3261.97	22
3262.77	26
3263.58	24
3264.38	26.5
3265.19	24.5
3265.99	25
3266.79	22
3267.6	21
3268.4	26.5
3269.21	26
3270.01	21
3270.81	22.5
3271.62	21
3272.42	24.5
3273.22	24
3274.03	24.5
3274.83	27
3275.63	22
3276.43	20
3277.24	24.5
3278.04	23
3278.84	24
3279.64	26.5
3280.45	24
3281.25	25
3282.05	21.5
3282.85	23.5
3283.65	22.5
3284.45	23.5
3285.26	23.5
3286.06	23
3286.86	20.5
3287.66	25
3288.46	21
3289.26	24
3290.06	23.5
3290.86	26
3291.66	22
3292.46	24
3293.26	24
3294.06	27
3294.86	24
3295.66	24
3296.46	22
3297.26	21
3298.06	22.5
3298.86	25
3299.66	22
3300.46	24.5
3301.26	25
3302.06	24
3302.86	25.5
3303.66	25.5
3304.46	25.5
3305.25	21.5
3306.05	21
3306.85	23
3307.65	19
3308.45	22
3309.25	24
3310.04	22.5
3310.84	24
3311.64	21.5
3312.44	22
3313.23	24.5
3314.03	26
3314.83	27
3315.63	24
3316.42	24
3317.22	26
3318.02	25
3318.81	27.5
3319.61	22
3320.41	24
3321.2	20
3322	22.5
3322.8	26
3323.59	23.5
3324.39	19
3325.18	27
3325.98	23
3326.78	24
3327.57	22.5
3328.37	24
3329.16	21
3329.96	24
3330.75	23.5
3331.55	23.5
3332.34	21
3333.14	21
3333.93	21.5
3334.73	24.5
3335.52	24
3336.31	25.5
3337.11	24
3337.9	25
3338.7	26
3339.49	23
3340.28	26.5
3341.08	21.5
3341.87	26
3342.66	24.5
3343.46	22.5
3344.25	23
3345.04	20.5
3345.84	24.5
3346.63	26
3347.42	24
3348.22	23
3349.01	28
3349.8	20
3350.59	27.5
3351.39	24.5
3352.18	24
3352.97	21
3353.76	23
3354.55	21
3355.35	26
3356.14	29.5
3356.93	26
3357.72	25.5
3358.51	25
3359.3	24
3360.09	27
3360.88	24
3361.67	25
3362.46	24
3363.26	25.5
3364.05	27.5
3364.84	27.5
3365.63	24
3366.42	26
3367.21	22
3368	22.5
3368.79	25
3369.58	23.5
3370.37	26.5
3371.15	21
3371.94	23.5
3372.73	25
3373.52	24
3374.31	27
3375.1	21
3375.89	26
3376.68	23
3377.47	24.5
3378.26	23.5
3379.04	21.5
3379.83	23
3380.62	23
3381.41	22
3382.2	23
3382.98	26.5
3383.77	24
3384.56	27.5
3385.35	26
3386.13	24
3386.92	26.5
3387.71	22
3388.5	18
3389.28	26.5
3390.07	20
3390.86	22.5
3391.64	23
3392.43	27.5
3393.22	23
3394	23
3394.79	24
3395.57	25
3396.36	27
3397.15	25.5
3397.93	25
3398.72	23
3399.5	22
3400.29	25
3401.07	21.5
3401.86	25.5
3402.65	23
3403.43	26
3404.21	24.5
3405	22
3405.78	25
3406.57	23
3407.35	22.5
3408.14	27
3408.92	22.5
3409.71	24
3410.49	25
3411.27	22
3412.06	25
3412.84	22
3413.62	25
3414.41	22.5
3415.19	23.5
3415.97	23
3416.76	20
3417.54	27
3418.32	26
3419.11	22.5
3419.89	27.5
3420.67	23.5
3421.46	24
3422.24	18
3423.02	22.5
3423.8	24.5
3424.58	25
3425.37	23
3426.15	23
3426.93	25.5
3427.71	23.5
3428.49	21.5
3429.27	22
3430.05	24.5
3430.84	24.5
3431.62	20
3432.4	21.5
3433.18	24
3433.96	22.5
3434.74	23
3435.52	20.5
3436.3	23.5
3437.08	27
3437.86	25.5
3438.64	21
3439.42	23.5
3440.2	25.5
3440.98	25
3441.76	22.5
3442.54	21
3443.32	20
3444.1	23
3444.88	20
3445.66	22
3446.44	23.5
3447.22	24
3448	23
3448.77	25
3449.55	30
3450.33	23
3451.11	26
3451.89	26
3452.67	18.5
3453.45	21.5
3454.22	24
3455	23
3455.78	25
3456.56	24.5
3457.33	20.5
3458.11	26
3458.89	23.5
3459.67	21.5
3460.44	20
3461.22	27
3462	26.5
3462.77	26
3463.55	20
3464.33	24.5
3465.1	22
3465.88	27.5
3466.66	24
3467.43	22
3468.21	22.5
3468.98	22.5
3469.76	21
3470.54	22.5
3471.31	23.5
3472.09	22.5
3472.86	25
3473.64	26
3474.41	25.5
3475.19	21.5
3475.96	25.5
3476.74	22
3477.51	22
3478.29	23
3479.06	25
3479.84	23
3480.61	24
3481.39	24
3482.16	21
3482.93	22.5
3483.71	26.5
3484.48	25.5
3485.25	24
3486.03	24
3486.8	27.5
3487.57	22.5
3488.35	26
3489.12	23.5
3489.89	27
3490.67	23.5
3491.44	28.5
3492.21	21
3492.99	22
3493.76	21
3494.53	26
3495.3	24
3496.08	21
3496.85	24.5
3497.62	18.5
3498.39	23.5
3499.16	24.5
3499.93	21.5
