#Acq. time (s)=	5
#Accumulations=	5
#Range (cm-¹)=	100...3500
#Windows=	4
#Autofocus=	Off
#AutoExposure=	Off
#Spike filter=	Multiple accum.
#Delay time (s)=	0
#Binning=	1
#Readout mode=	Signal
#DeNoise=	Off
#ICS correction=	Off
#Dark correction=	Off
#Inst. Process=	Off
#Instrument=	LabRAM HR Evol
#Detector=	Syncerity OE
#Objective=	x100_VIS
#Grating=	600 (500nm)
#ND Filter=	25%
#Laser=	633nm_Edge
#Hole=	100.021
#Range=	Visible
#Project=	verificaciones
#Sample=	at2
#Site=	lined
#Title=	bolusat2lined
#Remark=	
#Date=	13.01.2026 15:53
#Acquired=	13.01.2026 15:53:48
100.692	27
101.975	34
103.258	33.5
104.542	29
105.824	30.5
107.107	33
108.39	29.5
109.672	25.5
110.954	30
112.236	30
113.519	28.5
114.8	31.5
116.081	32
117.362	31
118.643	34.5
119.924	31
121.204	34.5
122.484	28.5
123.764	33
125.044	34.5
126.323	37
127.603	36
128.882	31.5
130.161	32.5
131.438	33.5
132.716	31
133.995	34
135.273	36
136.55	39
137.828	36.5
139.106	36.5
140.383	37
141.66	42
142.937	42
144.213	36
145.488	39.5
146.764	38
148.04	40.5
149.316	45
150.592	44.5
151.867	43
153.141	40.5
154.416	45.5
155.69	44.5
156.965	41
158.239	47.5
159.512	41
160.786	45
162.059	46
163.333	44.5
164.605	42
165.878	40
167.15	42
168.423	42.5
169.694	44
170.966	42
172.238	40
173.51	36
174.78	37.5
176.052	44.5
177.323	44
178.592	42
179.863	37.5
181.134	44
182.403	45
183.673	45
184.943	42.5
186.211	44.5
187.481	46
188.749	39
190.018	41
191.287	46
192.554	40.5
193.822	38
195.089	41
196.357	43.5
197.625	40
198.891	40
200.159	36.5
201.425	39
202.692	37
203.957	40
205.224	38
206.489	35.5
207.755	38
209.02	32
210.286	37.5
211.55	36
212.815	35
214.079	31.5
215.344	37
216.607	39
217.872	39
219.135	37
220.399	34.5
221.662	36
222.924	34.5
224.187	33
225.449	33
226.713	30
227.974	31
229.235	33
230.498	35.5
231.759	37
233.019	28
234.281	33
235.542	30
236.802	31.5
238.063	30
239.323	30
240.582	30.5
241.843	31
243.102	30
244.361	32
245.621	29.5
246.879	29
248.138	28
249.396	32.5
250.655	30.5
251.913	31.5
253.17	30
254.427	31
255.686	29
256.943	30.5
258.199	29
259.456	28.5
260.712	31
261.969	27
263.225	33
264.481	27.5
265.736	30.5
266.991	29.5
268.246	24.5
269.502	29
270.757	28
272.011	32.5
273.265	29.5
274.519	28.5
275.773	33.5
277.027	31
278.28	28
279.533	30
280.786	30
282.04	26
283.293	32
284.545	29.5
285.798	28
287.049	30
288.301	28.5
289.553	26
290.804	31
292.055	28.5
293.306	29.5
294.557	30
295.807	28
297.058	31.5
298.308	26
299.558	28.5
300.808	27.5
302.057	28.5
303.305	28
304.554	32.5
305.803	29.5
307.052	25.5
308.3	28.5
309.549	29
310.797	25.5
312.045	31
313.292	27
314.54	31.5
315.786	29.5
317.033	30
318.28	29.5
319.526	28.5
320.773	30.5
322.019	27.5
323.264	26
324.51	28
325.755	29.5
327.001	29.5
328.246	29
329.49	30
330.735	24
331.979	27
333.224	29
334.467	26.5
335.711	24
336.955	31
338.199	26
339.441	27.5
340.684	32.5
341.927	26.5
343.168	28
344.411	33
345.654	27
346.895	30.5
348.137	29
349.379	23
350.619	26
351.86	31
353.102	33.5
354.341	32.5
355.582	28
356.821	26.5
358.062	25
359.302	29
360.541	30
361.781	29.5
363.019	30
364.259	27.5
365.496	28.5
366.736	31
367.974	30
369.212	24
370.45	23.5
371.687	27.5
372.925	31.5
374.162	28
375.399	28.5
376.635	28
377.873	33
379.109	28
380.344	30.5
381.581	29
382.816	28
384.052	26
385.287	31
386.523	31
387.757	26.5
388.991	27.5
390.227	31.5
391.46	24.5
392.695	27
393.928	30
395.162	28
396.396	30.5
397.629	29.5
398.861	27
400.095	28
401.327	27.5
402.559	31
403.792	26
405.024	29
406.255	30
407.488	24
408.719	25.5
409.949	28
411.18	24.5
412.412	30
413.642	29
414.872	31
416.102	31
417.333	24
418.562	30
419.791	28
421.02	29
422.249	30
423.479	24.5
424.707	29
425.935	25.5
427.163	26.5
428.391	27.5
429.619	30
430.848	25
432.075	25
433.302	28.5
434.529	27.5
435.755	27
436.982	24.5
438.208	27.5
439.434	27.5
440.66	30.5
441.885	30
443.111	27
444.338	27
445.563	26.5
446.788	27
448.012	27.5
449.237	30.5
450.461	31.5
451.685	28
452.909	31
454.133	27
455.356	31.5
456.579	27
457.802	28
459.025	29.5
460.247	29
461.469	30.5
462.691	28.5
463.914	32.5
465.136	32.5
466.357	31.5
467.579	33.5
468.8	35
470.021	33
471.242	33.5
472.462	34
473.682	36
474.903	40.5
476.123	41
477.343	42
478.563	48.5
479.782	51
481	49
482.219	53.5
483.438	58.5
484.657	64
485.874	61.5
487.093	60
488.311	67
489.529	58
490.747	60
491.963	60.5
493.181	59
494.398	57.5
495.614	57
496.83	53
498.047	51
499.264	49
500.479	49
501.695	45
502.911	46
504.125	41
505.34	39
506.554	42.5
507.769	37
508.984	39
510.198	37.5
511.412	38.5
512.627	36.5
513.839	30
515.053	32
516.266	31.5
517.479	31.5
518.691	36.5
519.905	31.5
521.118	32.5
522.329	33.5
523.542	31.5
524.753	36.5
525.965	29
527.176	30.5
528.388	33
529.598	24.5
530.809	28
532.019	32.5
533.23	30.5
534.44	26.5
535.649	30.5
536.86	27
538.068	30.5
539.279	28.5
540.487	32
541.697	24
542.905	31.5
544.113	28
545.322	28
546.53	29.5
547.737	24.5
548.946	31
550.153	27.5
551.361	29
552.568	25.5
553.774	31.5
554.982	29
556.188	29
557.394	29
558.599	28.5
559.806	23
561.012	30
562.217	27.5
563.423	27.5
564.628	26.5
565.832	25
567.036	26
568.241	27
569.446	31
570.65	29
571.853	24
573.057	28.5
574.26	26
575.464	27
576.667	29.5
577.87	28.5
579.072	26
580.274	28
581.477	30
582.68	28
583.881	30
585.083	25.5
586.284	25.5
587.485	28
588.686	26.5
589.887	31
591.087	22.5
592.288	30.5
593.488	28
594.688	31
595.888	27.5
597.087	27.5
598.287	29.5
599.486	31
600.685	27
601.884	27
603.082	25
604.281	24.5
605.479	29
606.677	25.5
607.875	30
609.073	27
610.27	32.5
611.468	29.5
612.665	29.5
613.862	26
615.058	26
616.255	29
617.451	28
618.648	30
619.842	29
621.038	29
622.234	29.5
623.429	29
624.624	32
625.819	30.5
627.013	32
628.207	28
629.402	26
630.596	27.5
631.79	28.5
632.983	30
634.177	26
635.37	30
636.564	27.5
637.755	32
638.948	24.5
640.141	26.5
641.334	28.5
642.525	27
643.717	32
644.909	29.5
646.099	29.5
647.291	29
648.483	26.5
649.674	30
650.864	25
652.055	26
653.244	32.5
654.435	28.5
655.625	27
656.814	32.5
658.004	25.5
659.193	30.5
660.382	31
661.571	23.5
662.759	28
663.948	30.5
665.135	32.5
666.324	32
667.511	28
668.7	31
669.886	28
671.074	28.5
672.262	32
673.448	31
674.634	35
675.821	33
677.007	31.5
678.194	34.5
679.379	34.5
680.565	36.5
681.75	30
682.936	33.5
684.121	36
685.305	34.5
686.491	34
687.675	38
688.86	35
690.043	32
691.227	36
692.411	32
693.594	37
694.777	33.5
695.961	34.5
697.144	35.5
698.326	35.5
699.509	39
700.691	35
701.873	37.5
703.056	43.5
704.237	43
705.419	50
706.599	49.5
707.782	56
708.962	51.5
710.143	50
711.323	50.5
712.504	39
713.684	44.5
714.864	38.5
716.043	32.5
717.223	33
718.403	31
719.582	29
720.761	29.5
721.94	31.5
723.118	32.5
724.296	29.5
725.474	26.5
726.652	26.5
727.831	30
729.009	24
730.186	29.5
731.363	28.5
732.54	28.5
733.717	28
734.893	28
736.07	28
737.246	31
738.422	27.5
739.598	26
740.773	25.5
741.949	27.5
743.124	30.5
744.299	27
745.474	26
746.649	26.5
747.823	33.5
748.997	30
750.172	30
751.346	28.5
752.519	27
753.693	28
754.867	31
756.038	25
757.211	23.5
758.384	30
759.557	31.5
760.73	25
761.902	26
763.074	25
764.246	27.5
765.417	29
766.588	30
767.76	30.5
768.931	27.5
770.102	26
771.271	24
772.442	28
773.613	29.5
774.783	30
775.952	24
777.122	31
778.291	28
779.461	29
780.629	26.5
781.798	30.5
782.967	31.5
784.135	31
785.304	30
786.472	34
787.639	31
788.807	31.5
789.975	31
791.142	31
792.309	31.5
793.477	34.5
794.642	29
795.81	27
796.975	29
798.142	30.5
799.308	25
800.473	29
801.639	28
802.804	29.5
803.97	28
805.134	26.5
806.299	30.5
807.463	31
808.628	27
809.792	25
810.957	32.5
812.12	30
813.284	27
814.447	26.5
815.611	27
816.773	27.5
817.937	27
819.099	32.5
820.261	29.5
821.424	26
822.585	25.5
823.748	25.5
824.909	30.5
826.07	29
827.232	27.5
828.393	28.5
829.554	26.5
830.715	28.5
831.875	28
833.035	28.5
834.196	30
835.356	29.5
836.515	27
837.676	27
838.835	23.5
839.994	28
841.152	25.5
842.312	27
843.47	32
844.629	28.5
845.786	29
846.946	24.5
848.103	26
849.261	23
850.418	27
851.575	28
852.733	26.5
853.89	30
855.046	30
856.203	31
857.359	32.5
858.515	28
859.67	33
860.827	30.5
861.983	24
863.138	33.5
864.293	29
865.448	28
866.603	29
867.757	27
868.912	27
870.066	30
871.22	26.5
872.374	31.5
873.527	29
874.681	31
875.834	26.5
876.987	25
878.14	29
879.293	28.5
880.445	26.5
881.598	28.5
882.75	25
883.902	29.5
885.054	29
886.206	26.5
887.357	30
888.507	24.5
889.658	28
890.809	30.5
891.96	28
893.111	27
894.261	26
895.411	23.5
896.561	27
897.71	25
898.86	25
900.009	26
901.159	28
902.308	28.5
903.455	27
904.604	26.5
905.753	25
906.901	22.5
908.048	29
909.197	23
910.344	29.5
911.492	24.5
912.639	26
913.786	26
914.933	24.5
916.079	23.5
917.226	29
918.373	25
919.518	28
920.664	29
921.81	27.5
922.955	30.5
924.101	28.5
925.245	29
926.391	26
927.536	29.5
928.68	24.5
929.825	24
930.968	29
932.113	28.5
933.256	28
934.4	26
935.543	27.5
936.687	24.5
937.83	24.5
938.973	24
940.115	26.5
941.258	25
942.399	25.5
943.542	27
944.684	24.5
945.826	25
946.967	28
948.109	27.5
949.25	23
950.392	26
951.532	26
952.672	24.5
953.813	27
954.953	28.5
956.093	29
957.233	23
958.373	26
959.512	28
960.652	23.5
961.791	29
962.929	29
964.069	26
965.207	24
966.345	27.5
967.484	27.5
968.622	25
969.759	24
970.896	24.25
972.035	24.5
973.172	28
974.309	27
975.445	24.5
976.582	27
977.719	26.5
978.855	27
979.991	25.5
981.127	25.5
982.263	30
983.398	29.5
984.535	22
985.67	26
986.804	22.5
987.939	27.5
989.074	25.5
990.208	26
991.342	29
992.476	25.5
993.61	24.5
994.744	28
995.877	27.5
997.01	23
998.143	26.5
999.276	29
1000.41	22.5
1001.54	25.5
1002.67	23
1003.81	23.5
1004.94	28.5
1006.07	26.5
1007.2	22
1008.33	31
1009.47	27
1010.6	25
1011.73	27.5
1012.86	28
1013.99	28.5
1015.12	24
1016.25	27
1017.38	21
1018.51	24
1019.64	28
1020.77	29.5
1021.9	23
1023.03	27
1024.15	25.5
1025.28	23.5
1026.41	20
1027.54	27.5
1028.67	25
1029.8	25
1030.92	25.5
1032.05	23.5
1033.18	24.5
1034.31	25.5
1035.43	26.5
1036.56	23.5
1037.69	24.5
1038.81	28.5
1039.94	28.5
1041.07	24.5
1042.19	25
1043.32	26
1044.44	23.5
1045.57	26.5
1046.69	21.5
1047.82	23.5
1048.94	28.5
1050.07	25.5
1051.19	24
1052.32	23.5
1053.44	26.5
1054.57	23.5
1055.69	26.5
1056.81	25.5
1057.94	29
1059.06	25.5
1060.18	28
1061.31	22
1062.43	23.5
1063.55	25.5
1064.67	24.5
1065.8	22.5
1066.92	28.5
1068.04	27
1069.16	26.5
1070.28	23.5
1071.4	27
1072.52	23
1073.64	28
1074.76	24
1075.89	28.5
1077.01	23
1078.13	22
1079.25	27
1080.37	28
1081.49	25
1082.6	24.5
1083.72	23
1084.84	29
1085.96	26.5
1087.08	27
1088.2	24.5
1089.32	25
1090.43	25.5
1091.55	26
1092.67	23
1093.79	23
1094.91	24.5
1096.02	25
1097.14	25
1098.26	23
1099.37	22
1100.49	22
1101.61	22.5
1102.72	24
1103.84	27
1104.95	27.5
1106.07	23.5
1107.18	23.5
1108.3	27
1109.41	26
1110.53	23
1111.64	22
1112.76	23.5
1113.87	24
1114.99	29
1116.1	28
1117.21	29
1118.33	24.5
1119.44	26
1120.55	27
1121.67	25
1122.78	24
1123.89	23.5
1125	22.5
1126.12	23.5
1127.23	27
1128.34	28.5
1129.45	25.5
1130.56	25
1131.68	26
1132.79	24.5
1133.9	24
1135.01	24
1136.12	23
1137.23	25
1138.34	24
1139.45	28
1140.56	24
1141.67	22.5
1142.78	23.5
1143.89	21
1145	27.5
1146.11	28.5
1147.22	24
1148.32	22.5
1149.43	22
1150.54	29.5
1151.65	23.5
1152.76	25
1153.86	25.5
1154.97	22
1156.08	26.5
1157.19	23.5
1158.29	24
1159.4	26.5
1160.51	23
1161.61	22.5
1162.72	25.5
1163.83	25.5
1164.93	25.5
1166.04	28
1167.14	25
1168.25	29
1169.35	27.5
1170.46	23.5
1171.56	26
1172.67	26
1173.77	22
1174.88	24
1175.98	27
1177.08	30
1178.19	22.5
1179.29	25
1180.4	25
1181.5	26
1182.6	26
1183.71	25
1184.81	22
1185.91	24.5
1187.01	23
1188.12	23
1189.22	23.5
1190.32	22.5
1191.42	28
1192.52	29.5
1193.62	22.5
1194.72	24.4863
1195.83	25.9382
1196.93	23.08
1198.03	24.5272
1199.13	23.0655
1200.23	25.8794
1201.33	23.3515
1202.43	23.9869
1203.53	25.7379
1204.63	22.9393
1205.73	24.915
1206.83	25.417
1207.92	22.1915
1209.02	26.6168
1210.12	24.0807
1211.22	23.7365
1212.32	24.2513
1213.42	25.1473
1214.51	25.3411
1215.61	23.633
1216.71	27.2355
1217.81	24.7982
1218.9	27.1364
1220	23.764
1221.1	21.3448
1222.19	21.8292
1223.29	25.1536
1224.39	21.534
1225.48	24.368
1226.58	24.2787
1227.68	25.6376
1228.77	23.0603
1229.87	28.432
1230.96	24.7793
1232.06	22.6675
1233.15	24.6383
1234.25	23.6606
1235.34	23.6621
1236.43	21.5607
1237.53	24.6682
1238.62	22.5942
1239.72	24.59
1240.81	22.6956
1241.9	22.7417
1243	24.3542
1244.09	24.441
1245.18	24.9252
1246.27	24.4503
1247.37	28.0427
1248.46	22.9281
1249.55	25.9077
1250.64	23.0689
1251.74	25.1897
1252.83	26.6883
1253.92	25.3055
1255.01	24.8219
1256.1	24.0789
1257.19	26.5989
1258.28	24.9305
1259.38	27.3001
1260.46	24.0224
1261.56	26.2501
1262.65	27.8063
1263.74	26.3973
1264.82	27.2213
1265.91	26.2886
1267	24.4407
1268.09	24.0725
1269.18	26.386
1270.27	25.9335
1271.36	23.1679
1272.45	23.9142
1273.54	23.3519
1274.63	25.5685
1275.71	25.5204
1276.8	25.034
1277.89	24.9003
1278.98	23.5147
1280.06	23.8617
1281.15	21.8741
1282.24	24.854
1283.32	25.7789
1284.41	21.7779
1285.5	22.6964
1286.58	24.565
1287.67	24.7419
1288.76	24.505
1289.84	23.2642
1290.93	22.112
1292.01	21.3194
1293.1	23.694
1294.18	23.9716
1295.27	21.2758
1296.35	23.9182
1297.44	24.7218
1298.52	23.2712
1299.6	24.9129
1300.69	25.0298
1301.77	26.1468
1302.86	24.3258
1303.94	25.0048
1305.02	25.4563
1306.11	25.8598
1306.41	26
1307.5	24.5
1308.59	22.5
1309.68	26
1310.77	25
1311.85	23
1312.94	27
1314.03	24.5
1315.11	22
1316.2	20
1317.29	26
1318.37	22
1319.46	21
1320.55	25
1321.63	23.5
1322.72	26
1323.8	24.5
1324.89	21.5
1325.98	20.5
1327.06	24
1328.15	25
1329.23	22.5
1330.31	24
1331.4	26
1332.48	21.5
1333.57	24.5
1334.65	20
1335.74	23
1336.82	21.5
1337.9	26
1338.99	28
1340.07	28
1341.15	20.5
1342.24	25
1343.32	26.5
1344.4	24
1345.48	23
1346.56	22
1347.65	25.5
1348.73	24
1349.81	23
1350.89	23
1351.97	22.5
1353.05	24
1354.13	24
1355.21	24.5
1356.29	24
1357.37	24
1358.46	25.5
1359.54	23
1360.62	23.5
1361.69	26
1362.77	23.5
1363.85	26
1364.93	23.5
1366.01	24.5
1367.09	27
1368.17	23.5
1369.25	26
1370.33	28.5
1371.41	26
1372.48	22.5
1373.56	24
1374.64	27.5
1375.72	25.5
1376.79	26
1377.87	24.5
1378.95	21
1380.02	22.5
1381.1	26.5
1382.18	26
1383.25	26.5
1384.33	22.5
1385.4	27.5
1386.48	18
1387.56	24.5
1388.63	25.5
1389.71	27.5
1390.78	24
1391.86	25
1392.93	26.5
1394.01	30
1395.08	26
1396.15	32.5
1397.23	28
1398.3	27.5
1399.38	25.5
1400.45	31.5
1401.52	31
1402.6	28
1403.67	32.5
1404.74	27
1405.81	26.5
1406.89	30
1407.96	30
1409.03	32.5
1410.1	29
1411.17	30
1412.25	29
1413.32	30.5
1414.39	27
1415.46	30
1416.53	28
1417.6	27
1418.67	27.5
1419.74	23.5
1420.81	31
1421.88	27
1422.95	25
1424.02	26.5
1425.09	26
1426.16	25
1427.23	24.5
1428.3	25
1429.37	27
1430.44	27
1431.51	27.5
1432.58	27.5
1433.64	24.5
1434.71	25
1435.78	26
1436.85	24.5
1437.92	27
1438.98	28.5
1440.05	26.5
1441.12	25.5
1442.18	29.5
1443.25	24.5
1444.32	26
1445.38	24
1446.45	24
1447.52	24
1448.58	29
1449.65	26
1450.71	26
1451.78	23
1452.84	25
1453.91	22.5
1454.97	28
1456.04	29
1457.1	22.5
1458.17	22.5
1459.23	26
1460.3	26.5
1461.36	23
1462.42	30.5
1463.49	28
1464.55	26
1465.61	25
1466.68	22
1467.74	28.5
1468.8	23.5
1469.86	25
1470.93	28
1471.99	28
1473.05	28
1474.11	25
1475.17	25
1476.24	23.5
1477.3	22
1478.36	28
1479.42	26.5
1480.48	27.5
1481.54	25
1482.6	21
1483.66	25
1484.72	22
1485.78	28
1486.84	25.5
1487.9	25.5
1488.96	23
1490.02	21.5
1491.08	26
1492.14	25
1493.2	23
1494.26	25
1495.31	25
1496.37	26
1497.43	25
1498.49	24
1499.55	26
1500.6	31.5
1501.66	25
1502.72	23.5
1503.78	22.5
1504.83	29.5
1505.89	25.5
1506.95	26.5
1508	25
1509.06	25.5
1510.12	23.5
1511.17	26.5
1512.23	26
1513.28	26
1514.34	26.5
1515.39	28
1516.45	27
1517.5	24
1518.56	22
1519.61	24
1520.67	23
1521.72	24
1522.78	24
1523.83	24
1524.88	26
1525.94	25
1526.99	23.5
1528.05	23
1529.1	27.5
1530.15	21.5
1531.2	26.5
1532.26	28
1533.31	24
1534.36	25
1535.41	26
1536.47	28.5
1537.52	24.5
1538.57	25
1539.62	24.5
1540.67	27
1541.72	22.5
1542.77	28
1543.83	29
1544.88	29
1545.93	25
1546.98	27
1548.03	28
1549.08	23.5
1550.13	25
1551.18	25.5
1552.23	25.5
1553.28	25
1554.32	24.5
1555.37	29
1556.42	25
1557.47	23
1558.52	26.5
1559.57	27
1560.62	25
1561.67	27
1562.71	23
1563.76	27.5
1564.81	26
1565.86	23.5
1566.9	26.5
1567.95	26
1569	24
1570.04	27.5
1571.09	24.5
1572.14	26.5
1573.18	28
1574.23	27
1575.27	27.5
1576.32	19
1577.37	25
1578.41	24
1579.46	26.5
1580.5	23.5
1581.55	24
1582.59	25.5
1583.64	25
1584.68	27.5
1585.72	23.5
1586.77	26.5
1587.81	26.5
1588.86	23.5
1589.9	24.5
1590.94	27
1591.99	26.5
1593.03	24
1594.07	26.5
1595.12	29.5
1596.16	22
1597.2	24
1598.24	29.5
1599.29	26
1600.33	26
1601.37	27
1602.41	27.5
1603.45	27
1604.49	22.5
1605.53	27.5
1606.58	26
1607.62	28.5
1608.66	23.5
1609.7	23.5
1610.74	29
1611.78	25.5
1612.82	28
1613.86	25.5
1614.9	23
1615.94	28
1616.98	29.5
1618.02	26.5
1619.06	24.5
1620.09	23
1621.13	23.5
1622.17	19
1623.21	24.5
1624.25	24.5
1625.29	25
1626.32	26.5
1627.36	26
1628.4	22
1629.44	25.5
1630.47	25.5
1631.51	24
1632.55	23.5
1633.58	26
1634.62	23.5
1635.66	26.5
1636.69	23.5
1637.73	27
1638.77	26
1639.8	25
1640.84	23.5
1641.87	27.5
1642.91	22
1643.94	28
1644.98	26.5
1646.01	26.5
1647.05	25
1648.08	29
1649.12	23.5
1650.15	27.5
1651.18	20.5
1652.22	25
1653.25	21.5
1654.29	27.5
1655.32	27.5
1656.35	24
1657.39	25
1658.42	27.5
1659.45	23.5
1660.48	25
1661.52	25.5
1662.55	25.5
1663.58	28
1664.61	26.5
1665.64	24
1666.68	25.5
1667.71	28.5
1668.74	23.5
1669.77	26
1670.8	24
1671.83	30.5
1672.86	24.5
1673.89	21
1674.92	25
1675.95	26
1676.98	26
1678.01	23
1679.04	27
1680.07	23.5
1681.1	26
1682.13	28
1683.16	23.5
1684.19	22.5
1685.22	29
1686.25	24
1687.27	29
1688.3	26
1689.33	25
1690.36	28
1691.38	25
1692.41	27.5
1693.44	25.5
1694.47	25
1695.49	25
1696.52	25
1697.55	25
1698.57	25
1699.6	22
1700.63	27.5
1701.65	25.5
1702.68	24.5
1703.7	24
1704.73	24
1705.76	22.5
1706.78	26.5
1707.81	25
1708.83	29
1709.86	23
1710.88	27
1711.91	24.5
1712.93	25
1713.95	21.5
1714.98	24
1716	27.5
1717.03	23.5
1718.05	27
1719.07	26
1720.1	22.5
1721.12	26
1722.14	28.5
1723.16	24.5
1724.19	26.5
1725.21	25.5
1726.23	26
1727.25	27
1728.28	28
1729.3	25
1730.32	24
1731.34	22.5
1732.36	20.5
1733.38	21
1734.41	25
1735.43	22
1736.45	24
1737.47	22
1738.49	26
1739.51	24.5
1740.53	25
1741.55	24.5
1742.57	25.5
1743.59	28
1744.61	26
1745.63	22
1746.64	25.5
1747.66	24
1748.68	23.5
1749.7	26
1750.72	26.5
1751.74	28
1752.76	27
1753.77	23
1754.79	28.5
1755.81	28
1756.83	26
1757.84	24
1758.86	25
1759.88	26
1760.9	27.5
1761.91	23.5
1762.93	24
1763.95	27
1764.96	26
1765.98	20
1766.99	24
1768.01	28.5
1769.02	27
1770.04	27
1771.06	25
1772.07	26
1773.09	26
1774.1	28
1775.12	24.5
1776.13	25
1777.14	28
1778.16	21.5
1779.17	25
1780.19	23.5
1781.2	25
1782.21	25.5
1783.23	21.5
1784.24	22
1785.25	21
1786.27	25
1787.28	24
1788.29	25.5
1789.3	23.5
1790.32	26
1791.33	22.5
1792.34	25
1793.35	28.5
1794.36	24
1795.38	28
1796.39	26.5
1797.4	26.5
1798.41	26.5
1799.42	26
1800.43	26.5
1801.44	24.5
1802.45	27
1803.46	25
1804.47	27
1805.48	21.5
1806.49	22.5
1807.5	26
1808.51	26
1809.52	23
1810.53	18.5
1811.54	27
1812.55	25
1813.56	21.5
1814.57	25.5
1815.57	27
1816.58	24
1817.59	27.5
1818.6	25
1819.61	24
1820.61	26
1821.62	26
1822.63	26.5
1823.64	23
1824.64	26.5
1825.65	24
1826.66	20.5
1827.66	23.5
1828.67	23.5
1829.68	22.5
1830.68	26.5
1831.69	25
1832.69	22.5
1833.7	23.5
1834.7	26
1835.71	24
1836.71	25.5
1837.72	25.5
1838.72	24
1839.73	23.5
1840.73	25.5
1841.74	22.5
1842.74	21
1843.75	26
1844.75	24.5
1845.75	24
1846.76	22
1847.76	27
1848.76	27
1849.77	29
1850.77	25
1851.77	27
1852.78	22.5
1853.78	23.5
1854.78	30
1855.78	28.5
1856.78	19.5
1857.79	23.5
1858.79	26
1859.79	25
1860.79	25.5
1861.79	23
1862.79	21.5
1863.79	23
1864.79	23.5
1865.79	29
1866.8	24.5
1867.8	29
1868.8	27.5
1869.8	29
1870.8	26.5
1871.8	24.5
1872.8	26
1873.79	26
1874.79	23
1875.79	22.5
1876.79	24
1877.79	23.5
1878.79	25
1879.79	25.5
1880.79	27.5
1881.78	23.5
1882.78	27
1883.78	25.5
1884.78	24
1885.77	23.5
1886.77	24.5
1887.77	29
1888.77	27.5
1889.76	21.5
1890.76	24.5
1891.76	29
1892.75	26.5
1893.75	21.5
1894.75	27
1895.74	26.5
1896.74	25.5
1897.73	21
1898.73	28
1899.73	23
1900.72	21.5
1901.72	29.5
1902.71	23
1903.7	25
1904.7	23
1905.69	22.5
1906.69	27.5
1907.68	21.5
1908.68	27.5
1909.67	23
1910.66	24
1911.66	23.5
1912.65	20.5
1913.64	25.5
1914.64	26
1915.63	24.5
1916.62	22
1917.62	22.5
1918.61	25
1919.6	27.5
1920.59	27.5
1921.58	22
1922.58	24
1923.57	28.5
1924.56	26
1925.55	26
1926.54	23
1927.53	23.5
1928.52	23
1929.51	25
1930.51	23
1931.5	30.5
1932.49	26
1933.48	26.5
1934.47	23.5
1935.46	24
1936.45	24.5
1937.44	23.5
1938.42	26.5
1939.41	26.5
1940.4	22.5
1941.39	26
1942.38	23
1943.37	24
1944.36	21
1945.35	23.5
1946.33	19
1947.32	22
1948.31	24.75
1949.3	24
1950.29	23
1951.27	26.5
1952.26	25
1953.25	25
1954.23	23
1955.22	23
1956.21	26
1957.19	28
1958.18	27.5
1959.17	22
1960.15	21
1961.14	22
1962.13	24.5
1963.11	23.5
1964.1	25.5
1965.08	25
1966.07	25
1967.05	24.5
1968.04	25.5
1969.02	26
1970.01	26
1970.99	24.5
1971.97	24
1972.96	24
1973.94	25.5
1974.93	20
1975.91	21
1976.89	24.5
1977.88	25.5
1978.86	27.5
1979.84	24
1980.83	28
1981.81	25
1982.79	26.5
1983.77	25
1984.76	25
1985.74	26
1986.72	24
1987.7	23
1988.68	21.5
1989.67	26
1990.65	25
1991.63	27.5
1992.61	24.5
1993.59	22
1994.57	25.5
1995.55	21.5
1996.53	28
1997.51	24
1998.49	25.5
1999.47	24.5
2000.45	22.5
2001.43	21
2002.41	21
2003.39	24
2004.37	23
2005.35	24.5
2006.33	22
2007.31	21.5
2008.29	26
2009.26	25.5
2010.24	25
2011.22	25
2012.2	23.5
2013.18	21
2014.15	28.5
2015.13	25.5
2016.11	22.5
2017.09	28.5
2018.06	21
2019.04	23
2020.02	25
2021	26
2021.97	26.5
2022.95	24
2023.92	23.5
2024.9	23
2025.88	20.5
2026.85	24
2027.83	19
2028.8	24
2029.78	23.5
2030.75	29.5
2031.73	26
2032.7	24.5
2033.68	21.5
2034.65	20
2035.63	22.5
2036.6	27
2037.58	20
2038.55	27
2039.52	25
2040.5	28.5
2041.47	21.5
2042.45	23.5
2043.42	23
2044.39	23.5
2045.36	24.5
2046.34	20
2047.31	23.5
2048.28	25
2049.26	26
2050.23	22.5
2051.2	27
2052.17	27.5
2053.14	25
2054.12	24
2055.09	24.5
2056.06	26
2057.03	21.5
2058	22
2058.97	21
2059.94	22.5
2060.91	24
2061.88	24
2062.85	24.5
2063.82	24
2064.79	28
2065.76	23.5
2066.73	23
2067.7	24.5
2068.67	27
2069.64	25
2070.61	23.5
2071.58	19.5
2072.55	23
2073.52	26
2074.49	25.5
2075.45	22
2076.42	25
2077.39	24
2078.36	26
2079.33	20
2080.29	26.5
2081.26	23.5
2082.23	25
2083.2	24
2084.16	25
2085.13	25
2086.1	23.5
2087.06	22
2088.03	25
2089	21
2089.96	27.5
2090.93	27
2091.89	22.5
2092.86	23
2093.83	26.5
2094.79	22.5
2095.76	24
2096.72	23
2097.69	21.5
2098.65	26.5
2099.62	24.5
2100.58	24
2101.55	25
2102.51	20.5
2103.47	21.5
2104.44	23
2105.4	24.5
2106.36	24
2107.33	25
2108.29	23.5
2109.25	25.5
2110.22	26
2111.18	27
2112.14	23
2113.11	23
2114.07	21
2115.03	22
2115.99	26
2116.96	25
2117.92	24
2118.88	25.5
2119.84	29
2120.8	25
2121.76	16
2122.72	24
2123.68	21
2124.65	26.5
2125.61	23.5
2126.57	19
2127.53	21.5
2128.49	23
2129.45	25
2130.41	24
2131.37	21.5
2132.33	24
2133.29	21
2134.25	25.5
2135.21	23
2136.17	21.5
2137.12	23.5
2138.08	25.5
2139.04	24
2140	25.5
2140.96	23
2141.92	24
2142.88	24.9983
2143.83	22.0093
2144.79	23.9757
2145.75	22.5078
2146.71	22.9737
2147.66	23.9524
2148.62	21.0712
2149.58	24.3726
2150.53	23.0311
2151.49	24.7933
2152.45	24.7062
2153.4	22.4098
2154.36	23.4758
2155.32	22.9124
2156.27	21.1845
2157.23	23.1605
2158.19	22.9558
2159.14	19.3061
2160.1	21.7126
2161.05	23.2569
2162.01	22.0139
2162.96	23.7246
2163.92	25.044
2164.87	24.6798
2165.83	25.8237
2166.78	19.8513
2167.73	22.3424
2168.69	23.473
2169.64	24.5211
2170.6	21.1881
2171.55	25.2274
2172.5	21.7447
2173.46	24.3096
2174.41	24.2775
2175.36	23.3654
2176.32	23.7751
2177.27	22.3578
2178.22	24.8681
2179.18	22.9646
2180.13	24.8088
2181.08	22.9665
2182.03	22.8797
2182.98	22.9377
2183.94	23.4028
2184.89	22.1083
2185.84	21.3826
2186.79	21.4813
2187.74	22.2007
2188.69	20.1613
2189.64	23.1927
2190.6	21.4806
2191.55	23
2192.5	23.7429
2193.45	24.4437
2194.4	22.3854
2195.35	23.3375
2196.3	21.9987
2197.25	21.8848
2198.2	22.7746
2199.15	21.0045
2200.1	22.5929
2201.04	22.7844
2201.99	25.1635
2202.94	24.1048
2203.89	24.0718
2204.84	21.9263
2205.79	24.906
2206.74	24.9656
2207.69	20.1943
2208.63	19.0458
2209.58	22.5371
2210.53	19.0937
2211.48	22.9892
2212.43	23.7864
2213.37	20.396
2214.32	20.4646
2215.27	23.4474
2216.21	22.4408
2217.16	22.2963
2218.11	19.3176
2219.05	25.1499
2220	22.2927
2220.95	19.8141
2221.89	23.0825
2222.84	23.1553
2223.78	22.061
2224.73	23.1048
2225.68	20.9111
2226.62	24.595
2227.57	24.2248
2228.51	24.1814
2229.46	23.9119
2230.4	23.3686
2231.35	22.77
2232.29	21.4321
2233.24	23.0027
2234.18	23.0324
2235.12	22.8398
2236.07	21.543
2237.01	22.6105
2237.95	21.8655
2238.9	22.6225
2239.84	19.2072
2240.06	18
2241.01	27.5
2241.96	21.5
2242.91	23.5
2243.86	21
2244.8	25
2245.75	24.5
2246.7	24
2247.65	22
2248.59	27
2249.54	20
2250.49	22
2251.43	24
2252.38	19
2253.33	25
2254.27	22
2255.22	21.5
2256.16	22.5
2257.11	23
2258.06	24
2259	24
2259.95	20
2260.89	23.5
2261.84	21.5
2262.78	19
2263.73	24
2264.67	23.5
2265.62	23
2266.56	22.5
2267.5	24
2268.45	23.5
2269.39	24
2270.34	22
2271.28	26
2272.22	26
2273.17	26
2274.11	25.5
2275.05	21
2276	24
2276.94	16.5
2277.88	24.5
2278.82	23
2279.77	25
2280.71	19.5
2281.65	24
2282.59	21.5
2283.53	21
2284.48	20.5
2285.42	25.5
2286.36	21
2287.3	21
2288.24	25
2289.18	23.5
2290.12	24.5
2291.06	19
2292	26.5
2292.94	24.5
2293.89	22.5
2294.83	23
2295.77	20.5
2296.71	23.5
2297.65	23
2298.58	22
2299.52	24
2300.46	21.5
2301.4	24.5
2302.34	22.5
2303.28	27
2304.22	20.5
2305.16	23
2306.1	21.5
2307.03	20
2307.97	21
2308.91	24
2309.85	25.5
2310.79	22
2311.72	28
2312.66	23
2313.6	23
2314.54	20
2315.47	23
2316.41	23.5
2317.35	23.5
2318.28	19.5
2319.22	23
2320.16	20
2321.09	28
2322.03	21.5
2322.96	25
2323.9	24.5
2324.84	25
2325.77	20
2326.71	20.5
2327.64	21
2328.58	26.5
2329.51	18.5
2330.45	26
2331.38	25.5
2332.32	21
2333.25	24
2334.18	25.5
2335.12	22.5
2336.05	22.5
2336.99	24
2337.92	23.5
2338.85	21
2339.79	25.5
2340.72	23
2341.65	20.5
2342.59	23
2343.52	22.5
2344.45	23.5
2345.39	23
2346.32	20
2347.25	24
2348.18	21.5
2349.11	26.5
2350.05	25.5
2350.98	24
2351.91	22.5
2352.84	27.5
2353.77	21
2354.7	22.5
2355.64	22.5
2356.57	22
2357.5	24.5
2358.43	25.5
2359.36	27
2360.29	24.5
2361.22	24
2362.15	22.5
2363.08	24
2364.01	24.5
2364.94	22.5
2365.87	23
2366.8	24
2367.73	26.5
2368.66	25.5
2369.58	24
2370.51	27
2371.44	20
2372.37	23
2373.3	24
2374.23	23
2375.16	23.5
2376.08	23
2377.01	22.5
2377.94	23.5
2378.87	20
2379.8	24.5
2380.72	21.5
2381.65	24
2382.58	23
2383.5	19.5
2384.43	25
2385.36	17
2386.28	27
2387.21	20.5
2388.14	23.5
2389.06	26
2389.99	24
2390.91	24
2391.84	23.5
2392.77	26
2393.69	20.5
2394.62	26
2395.54	26
2396.47	29.5
2397.39	21
2398.32	24
2399.24	25.5
2400.16	25
2401.09	24
2402.01	24.5
2402.94	23
2403.86	21.5
2404.78	29
2405.71	21
2406.63	25
2407.56	19
2408.48	25
2409.4	25.5
2410.32	23
2411.25	23
2412.17	20
2413.09	22
2414.02	25.5
2414.94	24.5
2415.86	26.5
2416.78	24
2417.7	25.5
2418.63	23.5
2419.55	23
2420.47	26
2421.39	25.5
2422.31	28
2423.23	24
2424.15	24
2425.07	23
2425.99	26.5
2426.92	24
2427.84	24
2428.76	23
2429.68	26
2430.59	24
2431.51	22
2432.43	24
2433.35	21
2434.27	26.5
2435.19	21
2436.11	26.5
2437.03	27
2437.95	23.5
2438.87	21.5
2439.79	22
2440.71	30.5
2441.62	24.5
2442.54	24
2443.46	17
2444.38	21.5
2445.3	26
2446.21	22
2447.13	26
2448.05	21.5
2448.97	27
2449.88	24
2450.8	23
2451.72	25
2452.63	24.5
2453.55	19
2454.47	27
2455.38	24
2456.3	22
2457.21	22.5
2458.13	27.5
2459.05	25
2459.96	23.5
2460.88	21.5
2461.79	21
2462.71	23.5
2463.62	23
2464.54	26
2465.45	24.5
2466.37	24.5
2467.28	23
2468.2	23.5
2469.11	24
2470.02	25
2470.94	23.5
2471.85	20
2472.77	27
2473.68	21
2474.59	22
2475.51	27
2476.42	25.5
2477.33	23
2478.25	25.5
2479.16	28.5
2480.07	23.5
2480.98	22
2481.9	23
2482.81	21
2483.72	24.5
2484.63	19
2485.55	23
2486.46	21.5
2487.37	23.5
2488.28	25
2489.19	27
2490.1	24.5
2491.01	27
2491.92	26.5
2492.83	22
2493.74	24
2494.66	23.5
2495.57	24.5
2496.48	23
2497.39	24.5
2498.3	23
2499.21	22
2500.12	23
2501.03	25
2501.93	28.5
2502.84	24.5
2503.75	24
2504.66	27
2505.57	24
2506.48	26.5
2507.39	22
2508.3	25
2509.21	30.5
2510.11	26
2511.02	25
2511.93	23
2512.84	22.5
2513.75	23.5
2514.65	23.5
2515.56	23.5
2516.47	23
2517.37	23.5
2518.28	20.5
2519.19	22
2520.09	25.5
2521	25.5
2521.91	22
2522.81	23.5
2523.72	22.5
2524.63	24.5
2525.53	28
2526.44	24
2527.34	25
2528.25	22.5
2529.16	26
2530.06	22.5
2530.97	25.5
2531.87	27.5
2532.78	27
2533.68	26.5
2534.58	26.5
2535.49	22
2536.39	24
2537.3	24
2538.2	23
2539.11	24.5
2540.01	26
2540.91	25
2541.82	27
2542.72	25.5
2543.62	23
2544.53	25
2545.43	27
2546.33	25
2547.23	24.5
2548.14	23.5
2549.04	25.5
2549.94	23
2550.84	22
2551.75	27
2552.65	23.5
2553.55	20
2554.45	26.5
2555.35	24.5
2556.26	23.5
2557.16	23
2558.06	21.5
2558.96	24
2559.86	24
2560.76	25.5
2561.66	28
2562.56	23
2563.46	24
2564.36	23
2565.26	23.5
2566.16	22
2567.06	27
2567.96	27
2568.86	23
2569.76	24
2570.66	22
2571.56	24.5
2572.46	21
2573.36	21.5
2574.26	24
2575.16	26
2576.05	26.5
2576.95	24
2577.85	29.5
2578.75	24
2579.65	25.5
2580.54	23.5
2581.44	25
2582.34	27
2583.24	25.5
2584.13	22
2585.03	20.5
2585.93	26
2586.83	21.5
2587.72	27
2588.62	26
2589.52	21.5
2590.41	22.5
2591.31	25.5
2592.2	27
2593.1	23
2594	27
2594.89	26
2595.79	22
2596.68	25
2597.58	23
2598.47	27
2599.37	24
2600.26	24
2601.16	25.5
2602.05	27
2602.95	26
2603.84	25
2604.74	26.5
2605.63	22
2606.52	23
2607.42	24.5
2608.31	25.5
2609.21	27
2610.1	23
2610.99	23
2611.89	25
2612.78	24.5
2613.67	27
2614.56	22.5
2615.46	25
2616.35	26
2617.24	25
2618.13	27
2619.03	27
2619.92	27
2620.81	21
2621.7	23
2622.59	26.5
2623.49	22.5
2624.38	24.5
2625.27	24.5
2626.16	20
2627.05	22
2627.94	30
2628.83	22
2629.72	25
2630.61	27
2631.5	22
2632.39	21.5
2633.28	25.5
2634.17	20.5
2635.06	25
2635.95	29
2636.84	22.5
2637.73	24
2638.62	26.5
2639.51	27
2640.4	24.5
2641.29	27.5
2642.18	27
2643.07	19.5
2643.96	22
2644.84	21
2645.73	25
2646.62	21.5
2647.51	24
2648.4	25
2649.28	25.5
2650.17	29
2651.06	26
2651.95	28.5
2652.83	23.5
2653.72	22.5
2654.61	23
2655.49	27.5
2656.38	27.5
2657.27	27
2658.16	23
2659.04	25
2659.93	21
2660.81	19
2661.7	27
2662.59	26
2663.47	24.5
2664.36	22
2665.24	22
2666.13	26.5
2667.01	20.5
2667.9	25
2668.78	25
2669.67	23
2670.55	19
2671.44	27
2672.32	25.5
2673.21	25.5
2674.09	23.5
2674.97	25
2675.86	26.5
2676.74	23.5
2677.62	23.5
2678.51	19.5
2679.39	25.5
2680.27	26.5
2681.16	25
2682.04	22.5
2682.92	22.5
2683.81	24
2684.69	20
2685.57	24.5
2686.45	27.5
2687.34	23
2688.22	23
2689.1	24
2689.98	24.5
2690.86	27
2691.75	27
2692.63	23
2693.51	21
2694.39	24
2695.27	25
2696.15	21.5
2697.03	27.5
2697.91	26.5
2698.79	22
2699.67	26.5
2700.55	23
2701.43	22.5
2702.31	24
2703.19	24
2704.07	23
2704.95	20.5
2705.83	24
2706.71	26
2707.59	20
2708.47	27
2709.35	23
2710.23	25
2711.11	22.5
2711.99	26
2712.86	26.5
2713.74	22.5
2714.62	26
2715.5	25
2716.38	26
2717.26	25.5
2718.13	27.5
2719.01	29.5
2719.89	28
2720.77	21
2721.64	28
2722.52	27.5
2723.4	22.5
2724.27	27
2725.15	21.5
2726.03	24.5
2726.9	25
2727.78	24.5
2728.66	22.5
2729.53	27
2730.41	23.5
2731.28	22.5
2732.16	21.5
2733.03	22
2733.91	25
2734.79	21.5
2735.66	23.5
2736.54	24
2737.41	22
2738.29	27.5
2739.16	23.5
2740.03	26.5
2740.91	25.5
2741.78	23.5
2742.66	24
2743.53	23
2744.41	23.5
2745.28	24
2746.15	24.5
2747.03	21
2747.9	24
2748.77	24
2749.65	25
2750.52	25
2751.39	25.5
2752.27	24.5
2753.14	23.5
2754.01	25.5
2754.88	25
2755.75	24
2756.63	24
2757.5	24
2758.37	23.5
2759.24	25
2760.11	23
2760.99	19.5
2761.86	24
2762.73	22
2763.6	25
2764.47	25
2765.34	22
2766.21	27
2767.08	25.5
2767.95	26
2768.82	23
2769.69	27.5
2770.56	25
2771.43	25
2772.3	20
2773.17	28.5
2774.04	24
2774.91	28
2775.78	22
2776.65	25
2777.52	22
2778.39	28
2779.26	26.5
2780.13	25.5
2780.99	24
2781.86	23.5
2782.73	29
2783.6	28.5
2784.47	25
2785.34	24
2786.2	24.5
2787.07	21
2787.94	26.5
2788.81	25
2789.67	23
2790.54	23.5
2791.41	28
2792.27	27.5
2793.14	23.5
2794.01	26
2794.87	28
2795.74	24
2796.61	27.5
2797.47	29
2798.34	21.5
2799.21	29
2800.07	26
2800.94	28.5
2801.8	29.5
2802.67	30
2803.53	26
2804.4	24.5
2805.26	27.5
2806.13	25
2806.99	22.5
2807.86	28
2808.72	27
2809.59	28
2810.45	27
2811.32	28
2812.18	26
2813.04	26
2813.91	27
2814.77	27
2815.64	27
2816.5	25
2817.36	23.5
2818.22	25.5
2819.09	24
2819.95	25
2820.81	25.5
2821.68	26.5
2822.54	25
2823.4	26
2824.26	26
2825.13	26.5
2825.99	27.5
2826.85	25.5
2827.71	24.5
2828.57	26
2829.44	31.5
2830.3	24
2831.16	26
2832.02	22.5
2832.88	24
2833.74	28.5
2834.6	25.5
2835.46	26.5
2836.32	28.5
2837.18	28.5
2838.04	25
2838.9	26
2839.76	26.5
2840.62	29
2841.48	26.5
2842.34	26
2843.2	27
2844.06	26
2844.92	28
2845.78	26.5
2846.64	24
2847.5	23
2848.36	23
2849.22	26.5
2850.08	25.5
2850.93	26
2851.79	26
2852.65	21.5
2853.51	25
2854.37	23
2855.22	28.5
2856.08	26
2856.94	28.5
2857.8	23
2858.65	24.5
2859.51	25
2860.37	26
2861.23	26.5
2862.08	28.5
2862.94	27.5
2863.79	29.5
2864.65	28
2865.51	28.5
2866.36	26
2867.22	28.5
2868.08	28.5
2868.93	28
2869.79	26.5
2870.64	28.5
2871.5	28
2872.35	29
2873.21	29
2874.06	26.5
2874.92	29
2875.77	26
2876.63	30
2877.48	32
2878.34	32
2879.19	27
2880.05	31
2880.9	27
2881.76	31
2882.61	33.5
2883.46	32.5
2884.32	32
2885.17	33
2886.02	36
2886.88	36
2887.73	33
2888.58	38.5
2889.44	39
2890.29	39.5
2891.14	39
2891.99	40
2892.85	47.5
2893.7	45
2894.55	49
2895.4	47
2896.25	54
2897.11	53
2897.96	52.5
2898.81	60.5
2899.66	58
2900.51	55
2901.36	66.5
2902.21	70.5
2903.07	68
2903.92	73.5
2904.77	77.5
2905.62	72.5
2906.47	70
2907.32	67.5
2908.17	70.5
2909.02	65.5
2909.87	65.5
2910.72	66.5
2911.57	58
2912.42	58
2913.27	56
2914.12	54
2914.97	51.5
2915.81	46
2916.66	44
2917.51	41
2918.36	37.5
2919.21	41
2920.06	35.5
2920.91	40.5
2921.75	33.5
2922.6	36
2923.45	36.5
2924.3	31
2925.15	31
2925.99	28
2926.84	34
2927.69	32
2928.54	31
2929.38	33.5
2930.23	31.5
2931.08	28.5
2931.92	27
2932.77	26
2933.62	27.5
2934.46	28
2935.31	28.5
2936.16	30.5
2937	27
2937.85	30
2938.69	26
2939.54	24
2940.38	28.5
2941.23	32
2942.08	26.5
2942.92	28.5
2943.77	27.5
2944.61	30
2945.46	29
2946.3	26
2947.15	23
2947.99	30.5
2948.83	30
2949.68	33
2950.52	27.5
2951.37	32
2952.21	31.5
2953.05	30
2953.9	31
2954.74	36.5
2955.58	31
2956.43	37.5
2957.27	36.5
2958.11	38
2958.96	40
2959.8	39
2960.64	44.5
2961.48	43.5
2962.33	43.5
2963.17	44.5
2964.01	44
2964.85	38
2965.69	41.5
2966.54	45
2967.38	43.5
2968.22	45.5
2969.06	44
2969.9	44
2970.74	40
2971.58	36.5267
2972.43	37.4711
2973.27	36.4636
2974.11	31.6345
2974.95	35.0417
2975.79	37.4199
2976.63	35.3046
2977.47	29.0557
2978.31	30.3991
2979.15	31.1706
2979.99	26.7981
2980.83	28.9024
2981.67	26.7347
2982.51	29.6339
2983.35	28.7184
2984.19	28.9313
2985.03	28.5751
2985.86	25.5714
2986.7	29.0993
2987.54	25.1828
2988.38	29.7993
2989.22	25.4893
2990.06	27.7896
2990.9	24.429
2991.73	25.4981
2992.57	24.5686
2993.41	26.2946
2994.25	25.014
2995.09	25.3746
2995.92	28.4223
2996.76	23.7338
2997.6	26.2702
2998.44	27.1017
2999.27	25.877
3000.11	23.1631
3000.95	26.2161
3001.78	23.8872
3002.62	25.6
3003.46	24.086
3004.29	23.6354
3005.13	24.0763
3005.96	26.115
3006.8	24.5354
3007.64	23.5861
3008.47	23.6633
3009.31	23.9715
3010.14	23.9185
3010.98	22.6061
3011.81	23.4169
3012.65	22.7474
3013.48	23.1093
3014.32	23.5042
3015.15	22.4024
3015.99	23.1803
3016.82	25.3944
3017.66	24.2181
3018.49	22.3544
3019.33	23.8184
3020.16	21.4862
3020.99	23.6009
3021.83	23.5265
3022.66	22.8598
3023.5	23.3676
3024.33	23.1637
3025.16	23.9127
3026	22.0739
3026.83	21.3645
3027.66	21.296
3028.49	22.0503
3029.33	21.2827
3030.16	22.6611
3030.99	21.2047
3031.83	20.2108
3032.66	21.2542
3033.49	21.3604
3034.32	23.0622
3035.15	25.2282
3035.99	24.9495
3036.82	23.0833
3037.65	22.6904
3038.48	23.293
3039.31	20.7867
3040.14	21.5686
3040.97	23.4785
3041.81	21.1082
3042.64	24.0167
3043.47	23.5501
3044.3	21.4601
3045.13	25.6312
3045.96	25.4364
3046.79	22.7391
3047.62	21.2889
3048.45	22.1501
3049.28	22.9583
3050.11	22.6333
3050.94	23.1747
3051.77	24.6877
3052.6	24.8252
3053.43	26.8403
3054.26	24.9355
3055.08	22.8069
3055.91	24.1719
3056.74	21.8376
3057.26	24
3058.09	24
3058.92	23
3059.76	25
3060.59	17
3061.42	24.5
3062.25	22.5
3063.09	24.5
3063.92	25.5
3064.75	23
3065.58	25.5
3066.42	24
3067.25	20.5
3068.08	19
3068.91	24.5
3069.74	21
3070.57	28.5
3071.41	22
3072.24	27
3073.07	24
3073.9	23
3074.73	24
3075.56	23
3076.39	22
3077.22	20.5
3078.05	23
3078.88	22
3079.71	23
3080.54	25
3081.37	21
3082.2	23
3083.03	21
3083.86	25
3084.69	23
3085.52	24.5
3086.35	24
3087.18	25
3088.01	25
3088.84	22.5
3089.67	21.5
3090.5	26.5
3091.32	25
3092.15	25
3092.98	22.5
3093.81	20
3094.64	26
3095.47	22
3096.29	23.5
3097.12	24
3097.95	21
3098.78	26
3099.6	24.5
3100.43	23
3101.26	26
3102.09	20
3102.91	26.5
3103.74	27
3104.57	22
3105.39	23
3106.22	22
3107.05	21.5
3107.87	24
3108.7	21
3109.52	21
3110.35	25
3111.18	25
3112	25.5
3112.83	21
3113.65	22
3114.48	27
3115.3	20.5
3116.13	25.5
3116.95	25
3117.78	24.5
3118.6	24
3119.43	24
3120.25	25
3121.08	27.5
3121.9	19.5
3122.72	24.5
3123.55	24
3124.37	23.5
3125.2	24
3126.02	20
3126.84	23
3127.67	26.5
3128.49	24
3129.31	20.5
3130.14	23.5
3130.96	24.5
3131.78	21
3132.61	21
3133.43	21
3134.25	21.5
3135.07	24
3135.89	19
3136.72	28.5
3137.54	23
3138.36	24
3139.18	23.5
3140	26.5
3140.83	25
3141.65	26
3142.47	23.5
3143.29	23
3144.11	21
3144.93	25
3145.75	24
3146.57	20
3147.4	21.5
3148.22	24
3149.04	22
3149.86	25.5
3150.68	23.5
3151.5	25
3152.32	22.5
3153.14	23.5
3153.96	24
3154.78	23.5
3155.59	26.5
3156.42	27
3157.23	23.5
3158.05	22
3158.87	25
3159.69	25.5
3160.51	18
3161.33	19.5
3162.15	23
3162.97	26
3163.78	21.5
3164.6	27
3165.42	26
3166.24	26
3167.06	21
3167.87	24
3168.69	24
3169.51	25
3170.33	23
3171.14	25.5
3171.96	24
3172.78	26
3173.6	22.5
3174.41	22.5
3175.23	24
3176.05	22
3176.86	23.5
3177.68	24
3178.5	24
3179.31	24.5
3180.13	23.5
3180.94	24
3181.76	20
3182.58	23
3183.39	26
3184.21	22
3185.02	23
3185.84	28
3186.65	22
3187.47	21
3188.28	22.5
3189.1	21.5
3189.91	22.5
3190.73	23
3191.54	25
3192.36	25
3193.17	23.5
3193.98	22
3194.8	23.5
3195.61	22.5
3196.43	24
3197.24	20.5
3198.05	23.5
3198.87	22.5
3199.68	24
3200.49	24
3201.31	22
3202.12	26.5
3202.93	24.5
3203.75	22.5
3204.56	23.5
3205.37	28
3206.18	23.5
3207	23
3207.81	24.5
3208.62	26.5
3209.43	21.5
3210.24	22
3211.06	20
3211.87	22.5
3212.68	25.5
3213.49	23.5
3214.3	21.5
3215.11	23.5
3215.92	27
3216.73	24
3217.55	26
3218.36	23
3219.17	20
3219.98	25
3220.79	20
3221.6	21.5
3222.41	18
3223.22	27
3224.03	24
3224.84	24.5
3225.65	22
3226.46	19
3227.27	23
3228.08	30
3228.89	24.5
3229.7	27.5
3230.5	25
3231.31	24.5
3232.12	20
3232.93	16
3233.74	26.5
3234.55	23
3235.36	24.5
3236.16	25.5
3236.97	24.5
3237.78	23.5
3238.59	26
3239.4	23.5
3240.2	24.5
3241.01	24
3241.82	24.5
3242.63	24
3243.43	26
3244.24	24.5
3245.05	25
3245.85	24
3246.66	23.5
3247.47	23
3248.27	22
3249.08	24
3249.89	24
3250.69	27
3251.5	22.5
3252.31	24
3253.11	27
3253.92	25.5
3254.72	23
3255.53	22.5
3256.33	22
3257.14	23
3257.94	23
3258.75	23
3259.55	22
3260.36	23
3261.16	22.5
3261.97	25
3262.77	27
3263.58	22.5
3264.38	24.5
3265.19	24
3265.99	23
3266.79	24
3267.6	22
3268.4	26
3269.21	27.5
3270.01	24.5
3270.81	23
3271.62	21
3272.42	23.5
3273.22	24
3274.03	22.5
3274.83	25.5
3275.63	25.5
3276.43	24
3277.24	26.5
3278.04	25.5
3278.84	24.5
3279.64	23
3280.45	22.5
3281.25	21.5
3282.05	25
3282.85	23.5
3283.65	28
3284.45	27
3285.26	23.5
3286.06	27
3286.86	26.5
3287.66	21
3288.46	24
3289.26	24.5
3290.06	24
3290.86	22
3291.66	24
3292.46	26.5
3293.26	23
3294.06	27
3294.86	22
3295.66	26
3296.46	24.5
3297.26	24.5
3298.06	21.5
3298.86	24
3299.66	21.5
3300.46	26.5
3301.26	24.5
3302.06	22.5
3302.86	27.5
3303.66	26
3304.46	22.5
3305.25	24.5
3306.05	23
3306.85	26
3307.65	24
3308.45	22.5
3309.25	21
3310.04	23.5
3310.84	25.5
3311.64	26
3312.44	22
3313.23	26
3314.03	24
3314.83	23
3315.63	22.5
3316.42	25.5
3317.22	27
3318.02	20.5
3318.81	22.5
3319.61	24
3320.41	24
3321.2	24.5
3322	23
3322.8	25
3323.59	21.5
3324.39	28
3325.18	27
3325.98	24.5
3326.78	24
3327.57	24
3328.37	27
3329.16	21.5
3329.96	21
3330.75	29.5
3331.55	23
3332.34	29
3333.14	26.5
3333.93	23.5
3334.73	23
3335.52	22
3336.31	24
3337.11	24
3337.9	25
3338.7	26
3339.49	20.5
3340.28	24
3341.08	27
3341.87	26.5
3342.66	26
3343.46	24
3344.25	25
3345.04	25.5
3345.84	25.5
3346.63	23
3347.42	25.5
3348.22	23.5
3349.01	24
3349.8	25.5
3350.59	23.5
3351.39	21.5
3352.18	24.5
3352.97	20
3353.76	24
3354.55	25
3355.35	26
3356.14	23
3356.93	20
3357.72	24
3358.51	23.5
3359.3	22.5
3360.09	27
3360.88	23
3361.67	23.5
3362.46	22
3363.26	28
3364.05	22.5
3364.84	20
3365.63	26.5
3366.42	25
3367.21	25
3368	22
3368.79	23
3369.58	24.5
3370.37	24.5
3371.15	26
3371.94	25
3372.73	23.5
3373.52	25
3374.31	26
3375.1	22
3375.89	26.5
3376.68	24
3377.47	24
3378.26	25
3379.04	25
3379.83	20.5
3380.62	25
3381.41	25
3382.2	21.5
3382.98	23
3383.77	26.5
3384.56	23
3385.35	25
3386.13	20
3386.92	26
3387.71	20
3388.5	21.5
3389.28	25
3390.07	25
3390.86	22.5
3391.64	22.5
3392.43	24
3393.22	23.5
3394	22.5
3394.79	21
3395.57	27
3396.36	23
3397.15	26.5
3397.93	19.5
3398.72	19
3399.5	26
3400.29	23
3401.07	23.5
3401.86	29.5
3402.65	21
3403.43	25
3404.21	25.5
3405	25.5
3405.78	26
3406.57	24.5
3407.35	23.5
3408.14	24.5
3408.92	25.5
3409.71	22.5
3410.49	27.5
3411.27	25
3412.06	24
3412.84	25.5
3413.62	22
3414.41	22
3415.19	25
3415.97	26
3416.76	24.5
3417.54	24
3418.32	24
3419.11	25
3419.89	26
3420.67	23
3421.46	25.5
3422.24	24
3423.02	23
3423.8	23.5
3424.58	23
3425.37	25.5
3426.15	24
3426.93	24
3427.71	26
3428.49	25.5
3429.27	21.5
3430.05	24.5
3430.84	25.5
3431.62	27
3432.4	24
3433.18	20
3433.96	24
3434.74	23.5
3435.52	22.5
3436.3	20
3437.08	26.5
3437.86	23
3438.64	22.5
3439.42	23.5
3440.2	22
3440.98	27.5
3441.76	24
3442.54	24.5
3443.32	19
3444.1	25.5
3444.88	23.5
3445.66	27
3446.44	22
3447.22	25
3448	23
3448.77	21.5
3449.55	25
3450.33	24.5
3451.11	23.5
3451.89	26.5
3452.67	26.5
3453.45	23
3454.22	22.5
3455	27
3455.78	25.5
3456.56	22.5
3457.33	27.5
3458.11	23
3458.89	23
3459.67	24
3460.44	23
3461.22	24
3462	23
3462.77	21.5
3463.55	25.5
3464.33	24
3465.1	24.5
3465.88	24
3466.66	25.5
3467.43	19
3468.21	23.5
3468.98	23.5
3469.76	23.5
3470.54	24.5
3471.31	26
3472.09	24
3472.86	23
3473.64	25.5
3474.41	23
3475.19	22.5
3475.96	25.5
3476.74	25
3477.51	26.5
3478.29	21
3479.06	29
3479.84	24
3480.61	23
3481.39	24
3482.16	25.5
3482.93	24.5
3483.71	24
3484.48	21
3485.25	23
3486.03	24.5
3486.8	26
3487.57	20
3488.35	23.5
3489.12	21.5
3489.89	26
3490.67	26.5
3491.44	27
3492.21	25
3492.99	24
3493.76	17
3494.53	25
3495.3	23.5
3496.08	24.5
3496.85	24.5
3497.62	25
3498.39	24
3499.16	26.5
3499.93	26
