#Acq. time (s)=	5
#Accumulations=	5
#Range (cm-¹)=	100...3500
#Windows=	4
#Autofocus=	Off
#AutoExposure=	Off
#Spike filter=	Multiple accum.
#Delay time (s)=	0
#Binning=	1
#Readout mode=	Signal
#DeNoise=	Off
#ICS correction=	Off
#Dark correction=	Off
#Inst. Process=	Off
#Instrument=	LabRAM HR Evol
#Detector=	Syncerity OE
#Objective=	x100_VIS
#Grating=	600 (500nm)
#ND Filter=	25%
#Laser=	633nm_Edge
#Hole=	100.021
#Range=	Visible
#Project=	verificaciones
#Sample=	at2
#Site=	lined
#Title=	bolusat2lined
#Remark=	
#Date=	13.01.2026 15:56
#Acquired=	13.01.2026 15:56:40
100.692	28
101.975	35.5
103.258	30.5
104.542	34.5
105.824	35.5
107.107	31.5
108.39	30.5
109.672	32
110.954	28.5
112.236	30
113.519	32
114.8	27.5
116.081	30.5
117.362	33.5
118.643	32
119.924	35
121.204	32
122.484	31.5
123.764	33.5
125.044	31.5
126.323	33.5
127.603	33
128.882	31
130.161	39.5
131.438	30
132.716	35
133.995	36
135.273	33.5
136.55	36.5
137.828	41.5
139.106	35
140.383	43.5
141.66	38
142.937	39.5
144.213	38.5
145.488	43
146.764	38.5
148.04	43
149.316	36
150.592	37.5
151.867	44.5
153.141	42.5
154.416	47
155.69	43.5
156.965	40
158.239	43
159.512	42
160.786	41.5
162.059	44.5
163.333	39.5
164.605	43
165.878	43.5
167.15	40
168.423	45
169.694	43
170.966	40
172.238	40.5
173.51	39
174.78	42
176.052	44
177.323	42
178.592	43
179.863	42
181.134	42
182.403	42
183.673	39.5
184.943	38
186.211	38
187.481	45.5
188.749	41.5
190.018	45
191.287	47.5
192.554	43.5
193.822	43
195.089	49
196.357	43
197.625	42
198.891	41
200.159	39.5
201.425	37
202.692	43
203.957	37.5
205.224	40
206.489	36
207.755	39
209.02	36
210.286	36.5
211.55	38.5
212.815	32
214.079	36
215.344	34.5
216.607	32
217.872	35.5
219.135	34.5
220.399	33.5
221.662	32.5
222.924	33.5
224.187	37
225.449	34
226.713	38.5
227.974	28
229.235	30
230.498	28.5
231.759	35
233.019	28.5
234.281	28
235.542	28
236.802	30.5
238.063	31.5
239.323	29
240.582	28
241.843	31
243.102	29.5
244.361	30
245.621	27
246.879	30
248.138	30
249.396	33.5
250.655	31
251.913	28
253.17	29.5
254.427	33
255.686	28
256.943	33
258.199	30.5
259.456	28
260.712	28.5
261.969	34
263.225	31
264.481	27
265.736	33.5
266.991	32
268.246	29.5
269.502	29
270.757	35
272.011	29
273.265	32
274.519	27
275.773	31
277.027	26.5
278.28	30.5
279.533	29.5
280.786	31
282.04	29.5
283.293	32
284.545	32
285.798	26
287.049	29
288.301	30
289.553	28
290.804	33
292.055	30.5
293.306	26.5
294.557	28.5
295.807	29
297.058	28
298.308	29.5
299.558	28
300.808	28
302.057	27
303.305	26
304.554	29.5
305.803	28
307.052	30.5
308.3	27.5
309.549	28.5
310.797	31.5
312.045	31
313.292	24
314.54	28.5
315.786	28
317.033	30
318.28	28.5
319.526	28.5
320.773	31
322.019	26
323.264	31
324.51	28.5
325.755	29.5
327.001	27
328.246	27
329.49	31
330.735	26.5
331.979	26.5
333.224	31.5
334.467	24
335.711	25
336.955	33
338.199	30
339.441	32
340.684	29.5
341.927	30.5
343.168	30.5
344.411	30.5
345.654	31
346.895	29
348.137	30.5
349.379	27
350.619	33
351.86	30
353.102	31
354.341	32.5
355.582	27
356.821	27
358.062	29
359.302	28
360.541	28
361.781	29.5
363.019	32.5
364.259	27.5
365.496	29.5
366.736	30.5
367.974	26
369.212	29
370.45	29
371.687	24
372.925	29.5
374.162	25.5
375.399	27.5
376.635	31
377.873	29
379.109	27
380.344	25.5
381.581	28.5
382.816	27.5
384.052	31.5
385.287	28
386.523	26
387.757	26
388.991	27.5
390.227	28.5
391.46	30.5
392.695	27
393.928	29
395.162	30
396.396	29.5
397.629	26.5
398.861	28
400.095	25.5
401.327	25.5
402.559	31
403.792	29
405.024	24
406.255	30
407.488	30
408.719	27
409.949	27.5
411.18	31.5
412.412	28.5
413.642	25
414.872	23.5
416.102	28
417.333	26.5
418.562	28
419.791	27
421.02	30
422.249	25
423.479	27.5
424.707	32.5
425.935	28.5
427.163	24.5
428.391	27.5
429.619	22.5
430.848	29.5
432.075	26.5
433.302	29.5
434.529	32.5
435.755	30
436.982	25.5
438.208	29
439.434	30
440.66	27.5
441.885	29
443.111	28
444.338	29.5
445.563	26.5
446.788	29
448.012	28.5
449.237	27
450.461	27
451.685	26
452.909	30
454.133	31
455.356	32
456.579	30.5
457.802	28
459.025	29
460.247	31.5
461.469	29
462.691	32.5
463.914	34.5
465.136	31.5
466.357	29.5
467.579	34
468.8	33.5
470.021	34.5
471.242	34
472.462	35
473.682	36.5
474.903	41
476.123	35
477.343	44
478.563	46.5
479.782	52.5
481	49.5
482.219	56.5
483.438	58.5
484.657	58.5
485.874	59
487.093	62.5
488.311	61
489.529	64
490.747	65.5
491.963	62
493.181	58.5
494.398	59.5
495.614	52
496.83	54
498.047	50
499.264	49.5
500.479	45
501.695	47
502.911	43
504.125	45.5
505.34	37.5
506.554	39
507.769	41
508.984	45
510.198	37.5
511.412	34
512.627	31.5
513.839	36.5
515.053	37
516.266	33.5
517.479	35
518.691	30
519.905	33.5
521.118	34
522.329	31.5
523.542	29
524.753	31
525.965	30.5
527.176	29.5
528.388	34
529.598	32.5
530.809	32.5
532.019	29
533.23	31.5
534.44	29
535.649	27.5
536.86	28
538.068	26
539.279	30.5
540.487	24
541.697	28.5
542.905	29.5
544.113	26.5
545.322	24.5
546.53	29.5
547.737	28
548.946	30.5
550.153	28.5
551.361	26
552.568	30.5
553.774	31
554.982	31.5
556.188	28.5
557.394	28.5
558.599	27.5
559.806	27
561.012	24
562.217	23.5
563.423	26
564.628	28
565.832	32
567.036	30
568.241	31
569.446	31
570.65	30
571.853	24
573.057	31
574.26	27.5
575.464	32
576.667	26.5
577.87	24.5
579.072	29
580.274	29
581.477	29
582.68	29.5
583.881	25
585.083	28
586.284	30
587.485	27
588.686	28
589.887	29
591.087	27
592.288	28.5
593.488	28
594.688	28.5
595.888	33
597.087	26.5
598.287	25
599.486	26.5
600.685	27.5
601.884	27
603.082	27
604.281	33.5
605.479	24
606.677	26
607.875	29.5
609.073	30.5
610.27	27
611.468	29.5
612.665	28
613.862	27
615.058	27.5
616.255	27.5
617.451	27.5
618.648	31
619.842	27
621.038	24
622.234	27.5
623.429	29.5
624.624	29
625.819	31
627.013	29.5
628.207	29.5
629.402	28
630.596	29
631.79	26.5
632.983	24.5
634.177	25
635.37	29.5
636.564	31.5
637.755	25.5
638.948	28.5
640.141	27.5
641.334	30
642.525	32
643.717	32
644.909	30.5
646.099	31.5
647.291	28
648.483	29
649.674	28
650.864	26
652.055	30.5
653.244	33
654.435	29
655.625	30.5
656.814	32
658.004	28
659.193	28
660.382	32.5
661.571	28
662.759	30
663.948	27
665.135	28.5
666.324	29.5
667.511	31
668.7	30.5
669.886	31
671.074	32.5
672.262	28.5
673.448	37
674.634	31
675.821	31
677.007	34.5
678.194	31
679.379	32
680.565	30.5
681.75	34
682.936	35
684.121	36.5
685.305	36
686.491	41.5
687.675	39
688.86	33.5
690.043	30
691.227	33
692.411	33.5
693.594	33.5
694.777	29.5
695.961	37.5
697.144	38
698.326	38
699.509	42
700.691	40.5
701.873	42
703.056	42
704.237	47.5
705.419	48.5
706.599	49.5
707.782	55
708.962	54
710.143	55.5
711.323	46.5
712.504	43
713.684	37
714.864	36
716.043	33.5
717.223	34.5
718.403	35.5
719.582	32.5
720.761	31.5
721.94	30
723.118	30
724.296	27.5
725.474	28
726.652	25.5
727.831	30
729.009	28.5
730.186	26.5
731.363	32
732.54	24
733.717	21
734.893	26.5
736.07	28.5
737.246	29
738.422	29
739.598	29
740.773	28
741.949	28.5
743.124	28
744.299	28.5
745.474	27.5
746.649	29.5
747.823	27.5
748.997	30
750.172	23.5
751.346	30.5
752.519	29
753.693	29
754.867	28.5
756.038	32
757.211	31
758.384	27.5
759.557	27
760.73	26
761.902	27.5
763.074	24.5
764.246	27.5
765.417	27
766.588	30
767.76	28.5
768.931	28
770.102	26
771.271	30
772.442	26
773.613	29
774.783	29.5
775.952	24
777.122	29.5
778.291	31
779.461	27
780.629	26.5
781.798	32
782.967	33
784.135	31.5
785.304	26
786.472	32
787.639	31
788.807	33
789.975	31.5
791.142	32
792.309	32
793.477	33
794.642	33.5
795.81	29
796.975	29
798.142	30.5
799.308	31
800.473	27
801.639	32.5
802.804	33
803.97	27.5
805.134	32.5
806.299	30.5
807.463	31
808.628	25.5
809.792	30
810.957	26
812.12	27
813.284	31
814.447	28.5
815.611	30.5
816.773	27
817.937	26
819.099	25.5
820.261	28
821.424	31.5
822.585	28
823.748	27
824.909	27
826.07	26.5
827.232	26.5
828.393	26
829.554	28.5
830.715	27
831.875	28.5
833.035	24.5
834.196	28.5
835.356	24.5
836.515	32
837.676	27
838.835	31
839.994	26
841.152	28.5
842.312	27.5
843.47	23
844.629	31.5
845.786	32
846.946	26
848.103	30
849.261	28
850.418	29
851.575	30
852.733	27.5
853.89	29
855.046	26.5
856.203	26.5
857.359	27
858.515	30.5
859.67	26
860.827	31
861.983	29
863.138	29.5
864.293	29
865.448	28.5
866.603	34
867.757	31
868.912	28.5
870.066	28
871.22	27.5
872.374	28
873.527	26
874.681	30.5
875.834	28
876.987	27
878.14	28
879.293	31
880.445	26
881.598	32
882.75	29
883.902	28
885.054	24.5
886.206	28.5
887.357	29.5
888.507	27
889.658	28
890.809	26
891.96	22.5
893.111	30
894.261	25.5
895.411	24.5
896.561	26.5
897.71	28
898.86	28
900.009	23.5
901.159	27
902.308	28
903.455	29.5
904.604	22.5
905.753	24
906.901	27.5
908.048	31.5
909.197	27.5
910.344	24
911.492	26
912.639	29
913.786	24
914.933	26.5
916.079	26.5
917.226	26.5
918.373	26
919.518	33
920.664	24
921.81	28.5
922.955	29
924.101	23
925.245	27
926.391	23.5
927.536	26
928.68	27
929.825	29
930.968	27
932.113	25.5
933.256	23
934.4	32
935.543	24
936.687	28.5
937.83	23.5
938.973	25
940.115	31.5
941.258	28
942.399	26
943.542	26.5
944.684	25
945.826	26
946.967	29
948.109	25
949.25	27
950.392	27
951.532	24
952.672	28.5
953.813	23
954.953	24
956.093	27.5
957.233	25.5
958.373	25
959.512	25
960.652	25
961.791	26
962.929	26
964.069	23.5
965.207	24.5
966.345	28
967.484	26
968.622	29.5
969.759	25
970.896	25.25
972.035	24.5
973.172	27.5
974.309	27.5
975.445	27
976.582	27
977.719	26.5
978.855	23
979.991	24
981.127	25
982.263	29
983.398	26.5
984.535	22.5
985.67	29
986.804	29
987.939	27.5
989.074	24.5
990.208	26
991.342	25
992.476	26
993.61	23
994.744	30
995.877	28
997.01	25.5
998.143	26
999.276	25.5
1000.41	27.5
1001.54	26
1002.67	27
1003.81	27.5
1004.94	22.5
1006.07	26
1007.2	25.5
1008.33	24.5
1009.47	29
1010.6	22
1011.73	25
1012.86	27.5
1013.99	20
1015.12	25
1016.25	24.5
1017.38	25.5
1018.51	24.5
1019.64	25.5
1020.77	24
1021.9	21.5
1023.03	28
1024.15	24
1025.28	27
1026.41	28
1027.54	26
1028.67	25
1029.8	24.5
1030.92	22
1032.05	27.5
1033.18	26
1034.31	22
1035.43	22
1036.56	22.5
1037.69	28
1038.81	25.5
1039.94	23
1041.07	22
1042.19	28.5
1043.32	26.5
1044.44	25.5
1045.57	32
1046.69	25
1047.82	28
1048.94	27
1050.07	26.5
1051.19	22.5
1052.32	23.5
1053.44	26
1054.57	23.5
1055.69	29.5
1056.81	26
1057.94	27
1059.06	28
1060.18	25
1061.31	24.5
1062.43	25
1063.55	27
1064.67	29
1065.8	22
1066.92	27.5
1068.04	26.5
1069.16	22
1070.28	24
1071.4	27
1072.52	27
1073.64	29
1074.76	28.5
1075.89	28.5
1077.01	22.5
1078.13	25
1079.25	23
1080.37	24.5
1081.49	26
1082.6	22.5
1083.72	27
1084.84	28.5
1085.96	24
1087.08	25
1088.2	29
1089.32	23
1090.43	24
1091.55	25
1092.67	22
1093.79	25
1094.91	24
1096.02	25
1097.14	28
1098.26	25.5
1099.37	24.5
1100.49	23
1101.61	24
1102.72	22.5
1103.84	24.5
1104.95	28
1106.07	19
1107.18	22
1108.3	29
1109.41	24
1110.53	24.5
1111.64	25
1112.76	28
1113.87	24
1114.99	22.5
1116.1	27.5
1117.21	23
1118.33	25
1119.44	24
1120.55	27
1121.67	25
1122.78	28
1123.89	24
1125	29.5
1126.12	24.5
1127.23	24.5
1128.34	25
1129.45	25
1130.56	23.5
1131.68	24.5
1132.79	22.5
1133.9	24
1135.01	22.5
1136.12	20
1137.23	28
1138.34	26
1139.45	25
1140.56	23.5
1141.67	29.5
1142.78	28
1143.89	24.5
1145	22.5
1146.11	28.5
1147.22	24
1148.32	19
1149.43	26.5
1150.54	22
1151.65	24
1152.76	26
1153.86	23
1154.97	24.5
1156.08	25.5
1157.19	28
1158.29	25
1159.4	26
1160.51	25
1161.61	22.5
1162.72	22.5
1163.83	26.5
1164.93	26.5
1166.04	27.5
1167.14	26
1168.25	26.5
1169.35	30
1170.46	26
1171.56	23.5
1172.67	22.5
1173.77	23
1174.88	24
1175.98	26
1177.08	26
1178.19	27
1179.29	23.5
1180.4	26.5
1181.5	26.5
1182.6	17
1183.71	22.5
1184.81	23.5
1185.91	26.5
1187.01	24.5
1188.12	24
1189.22	24.5
1190.32	24
1191.42	21
1192.52	27
1193.62	23
1194.72	24.9803
1195.83	25.8903
1196.93	25.9614
1198.03	23.568
1199.13	27.8034
1200.23	28.6911
1201.33	23.8738
1202.43	22.9665
1203.53	27.7669
1204.63	25.0607
1205.73	22.1616
1206.83	24.2376
1207.92	22.3487
1209.02	26.3887
1210.12	23.0921
1211.22	24.4787
1212.32	19.6602
1213.42	25.5145
1214.51	24.1892
1215.61	27.5019
1216.71	21.6205
1217.81	24.161
1218.9	21.0222
1220	21.2759
1221.1	21.7136
1222.19	24.7058
1223.29	25.4344
1224.39	23.767
1225.48	25.9354
1226.58	26.2163
1227.68	23.1616
1228.77	24.7969
1229.87	24.7112
1230.96	25.061
1232.06	24.3176
1233.15	23.3203
1234.25	23.5735
1235.34	26.9297
1236.43	23.0868
1237.53	25.9092
1238.62	21.0332
1239.72	24.118
1240.81	25
1241.9	24.4258
1243	24.0137
1244.09	25.6038
1245.18	25.3295
1246.27	23.2575
1247.37	24.266
1248.46	22.0236
1249.55	22.2421
1250.64	26.6964
1251.74	25.0118
1252.83	24.534
1253.92	26.6644
1255.01	26.936
1256.1	25.0893
1257.19	23.2041
1258.28	26.6368
1259.38	28.171
1260.46	28.5431
1261.56	29
1262.65	26.9063
1263.74	22.6561
1264.82	23.682
1265.91	29.2908
1267	27.2559
1268.09	24.8817
1269.18	27.2672
1270.27	24.8491
1271.36	22.8295
1272.45	25.3949
1273.54	25.4835
1274.63	22.7883
1275.71	26.2936
1276.8	24.4846
1277.89	24.9005
1278.98	25.8863
1280.06	25.4807
1281.15	23.2387
1282.24	24.5786
1283.32	24.5463
1284.41	23.2015
1285.5	24.3027
1286.58	24.1513
1287.67	26.4214
1288.76	24.2557
1289.84	22.0384
1290.93	24.1713
1292.01	21.728
1293.1	22.4358
1294.18	25.4808
1295.27	27.1529
1296.35	24.0441
1297.44	23.9433
1298.52	24.2184
1299.6	25.1773
1300.69	25.1484
1301.77	24.9782
1302.86	23.2986
1303.94	21.8507
1305.02	24.3652
1306.11	23.0059
1306.41	22
1307.5	24
1308.59	22.5
1309.68	25
1310.77	24
1311.85	23
1312.94	22
1314.03	22
1315.11	22.5
1316.2	26.5
1317.29	22
1318.37	24
1319.46	22
1320.55	24.5
1321.63	24
1322.72	26.5
1323.8	24
1324.89	20
1325.98	23.5
1327.06	26.5
1328.15	21.5
1329.23	26
1330.31	22.5
1331.4	24
1332.48	23
1333.57	24.5
1334.65	22.5
1335.74	23
1336.82	21
1337.9	26.5
1338.99	26
1340.07	24
1341.15	22.5
1342.24	24
1343.32	22.5
1344.4	24.5
1345.48	24
1346.56	21.5
1347.65	25.5
1348.73	22
1349.81	25
1350.89	28
1351.97	25
1353.05	27
1354.13	25.5
1355.21	27
1356.29	25
1357.37	26
1358.46	24.5
1359.54	28.5
1360.62	24.5
1361.69	30
1362.77	22.5
1363.85	29
1364.93	29
1366.01	23
1367.09	25
1368.17	25
1369.25	29
1370.33	27
1371.41	25
1372.48	26
1373.56	26
1374.64	25
1375.72	23.5
1376.79	24
1377.87	23
1378.95	28.5
1380.02	27
1381.1	22.5
1382.18	28.5
1383.25	26
1384.33	25.5
1385.4	26.5
1386.48	26
1387.56	25.5
1388.63	22
1389.71	23.5
1390.78	26
1391.86	27.5
1392.93	25
1394.01	26.5
1395.08	27
1396.15	25
1397.23	24
1398.3	28
1399.38	31
1400.45	33
1401.52	30
1402.6	26
1403.67	32.5
1404.74	30
1405.81	31.5
1406.89	31
1407.96	31.5
1409.03	33
1410.1	30
1411.17	30.5
1412.25	34.5
1413.32	30
1414.39	32
1415.46	31.5
1416.53	30
1417.6	31
1418.67	27.5
1419.74	31
1420.81	28
1421.88	27.5
1422.95	30
1424.02	28
1425.09	33.5
1426.16	27
1427.23	28.5
1428.3	24
1429.37	24
1430.44	24.5
1431.51	24.5
1432.58	29
1433.64	22
1434.71	26.5
1435.78	26
1436.85	24.5
1437.92	23
1438.98	30
1440.05	25.5
1441.12	27
1442.18	28.5
1443.25	23.5
1444.32	29
1445.38	25
1446.45	25
1447.52	29
1448.58	28.5
1449.65	25.5
1450.71	25
1451.78	23.5
1452.84	24.5
1453.91	25.5
1454.97	26
1456.04	23
1457.1	25
1458.17	25
1459.23	27.5
1460.3	30.5
1461.36	27.5
1462.42	24
1463.49	28
1464.55	25.5
1465.61	21
1466.68	28
1467.74	28.5
1468.8	26.5
1469.86	25.5
1470.93	26
1471.99	27.5
1473.05	25.5
1474.11	23.5
1475.17	26
1476.24	26.5
1477.3	22.5
1478.36	27
1479.42	28
1480.48	28.5
1481.54	23.5
1482.6	26
1483.66	24.5
1484.72	23.5
1485.78	27
1486.84	25.5
1487.9	25.5
1488.96	29
1490.02	24
1491.08	22
1492.14	28.5
1493.2	27
1494.26	24
1495.31	28.5
1496.37	29
1497.43	26
1498.49	27
1499.55	25.5
1500.6	27.5
1501.66	25
1502.72	29.5
1503.78	24.5
1504.83	24
1505.89	24.5
1506.95	27
1508	23
1509.06	23
1510.12	27
1511.17	28.5
1512.23	23.5
1513.28	25.5
1514.34	25.5
1515.39	30
1516.45	27.5
1517.5	26
1518.56	26
1519.61	30
1520.67	25.5
1521.72	26.5
1522.78	25
1523.83	24.5
1524.88	24.5
1525.94	22
1526.99	21
1528.05	26
1529.1	24
1530.15	26.5
1531.2	28
1532.26	28.5
1533.31	22
1534.36	26
1535.41	24.5
1536.47	28.5
1537.52	25
1538.57	27
1539.62	28.5
1540.67	27
1541.72	25.5
1542.77	25.5
1543.83	26.5
1544.88	20
1545.93	28
1546.98	23
1548.03	23
1549.08	26.5
1550.13	22
1551.18	28.5
1552.23	21
1553.28	22.5
1554.32	25
1555.37	26
1556.42	27.5
1557.47	28.5
1558.52	24
1559.57	26
1560.62	20
1561.67	29
1562.71	22
1563.76	27
1564.81	30
1565.86	26.5
1566.9	21
1567.95	25.5
1569	25.5
1570.04	29
1571.09	22.5
1572.14	30.5
1573.18	23
1574.23	23.5
1575.27	23
1576.32	23.5
1577.37	26.5
1578.41	28.5
1579.46	25.5
1580.5	26.5
1581.55	26.5
1582.59	28.5
1583.64	25
1584.68	25.5
1585.72	23.5
1586.77	25.5
1587.81	25
1588.86	23
1589.9	23.5
1590.94	27
1591.99	23
1593.03	28.5
1594.07	25.5
1595.12	27
1596.16	30.5
1597.2	27
1598.24	28
1599.29	24
1600.33	24.5
1601.37	26.5
1602.41	25
1603.45	25.5
1604.49	25
1605.53	25.5
1606.58	26.5
1607.62	27.5
1608.66	25
1609.7	25
1610.74	26
1611.78	24
1612.82	26
1613.86	22.5
1614.9	29
1615.94	26
1616.98	29
1618.02	30
1619.06	26
1620.09	27
1621.13	27
1622.17	24
1623.21	23
1624.25	23
1625.29	28
1626.32	24.5
1627.36	29
1628.4	28
1629.44	24
1630.47	29
1631.51	29
1632.55	24
1633.58	21
1634.62	29.5
1635.66	20.5
1636.69	28
1637.73	29
1638.77	30
1639.8	24.5
1640.84	25.5
1641.87	24.5
1642.91	24
1643.94	24.5
1644.98	25
1646.01	26.5
1647.05	25.5
1648.08	25
1649.12	25
1650.15	25
1651.18	22.5
1652.22	27
1653.25	28
1654.29	23
1655.32	23
1656.35	27.5
1657.39	26.5
1658.42	22
1659.45	24
1660.48	24
1661.52	23.5
1662.55	26
1663.58	22
1664.61	26
1665.64	23.5
1666.68	28
1667.71	22
1668.74	26
1669.77	29.5
1670.8	26.5
1671.83	27.5
1672.86	20.5
1673.89	25
1674.92	21
1675.95	27.5
1676.98	24.5
1678.01	22.5
1679.04	26
1680.07	20.5
1681.1	22.5
1682.13	27
1683.16	23
1684.19	26.5
1685.22	24.5
1686.25	27
1687.27	24
1688.3	25
1689.33	27
1690.36	25
1691.38	24.5
1692.41	25
1693.44	24
1694.47	27.5
1695.49	19
1696.52	26
1697.55	25.5
1698.57	25
1699.6	25
1700.63	27
1701.65	29
1702.68	27
1703.7	27
1704.73	23.5
1705.76	29
1706.78	30
1707.81	24
1708.83	24
1709.86	23.5
1710.88	24
1711.91	25
1712.93	24.5
1713.95	28.5
1714.98	22.5
1716	22.5
1717.03	28.5
1718.05	23.5
1719.07	25
1720.1	27
1721.12	28
1722.14	24.5
1723.16	27.5
1724.19	28
1725.21	23.5
1726.23	28
1727.25	23.5
1728.28	25.5
1729.3	26.5
1730.32	27
1731.34	26
1732.36	27.5
1733.38	22.5
1734.41	24
1735.43	22
1736.45	26
1737.47	25
1738.49	27
1739.51	27.5
1740.53	28
1741.55	30.5
1742.57	23
1743.59	26
1744.61	25
1745.63	26
1746.64	23.5
1747.66	23.5
1748.68	24
1749.7	24.5
1750.72	23.5
1751.74	21
1752.76	24
1753.77	27.5
1754.79	24
1755.81	25
1756.83	24
1757.84	25.5
1758.86	23
1759.88	28.5
1760.9	24.5
1761.91	27
1762.93	24.5
1763.95	27.5
1764.96	24.5
1765.98	24
1766.99	26.5
1768.01	22
1769.02	26
1770.04	26
1771.06	25
1772.07	22.5
1773.09	27
1774.1	29
1775.12	27.5
1776.13	25
1777.14	27.5
1778.16	24
1779.17	23
1780.19	20
1781.2	25.5
1782.21	22
1783.23	25
1784.24	28
1785.25	23.5
1786.27	25
1787.28	23
1788.29	19.5
1789.3	23.5
1790.32	24
1791.33	21.5
1792.34	25.5
1793.35	23
1794.36	25.5
1795.38	25
1796.39	25
1797.4	25
1798.41	23
1799.42	22
1800.43	27.5
1801.44	27
1802.45	23
1803.46	27
1804.47	23
1805.48	24
1806.49	22
1807.5	27
1808.51	26.5
1809.52	26
1810.53	22.5
1811.54	24.5
1812.55	26
1813.56	26
1814.57	24.5
1815.57	24
1816.58	30
1817.59	25.5
1818.6	24.5
1819.61	27.5
1820.61	23
1821.62	26
1822.63	27
1823.64	28.5
1824.64	23
1825.65	22
1826.66	21.5
1827.66	23.5
1828.67	26
1829.68	21.5
1830.68	24
1831.69	26
1832.69	24.5
1833.7	23
1834.7	27.5
1835.71	25
1836.71	26.5
1837.72	28.5
1838.72	24.5
1839.73	26.5
1840.73	28
1841.74	25.5
1842.74	22.5
1843.75	27
1844.75	26
1845.75	28
1846.76	28.5
1847.76	22.5
1848.76	27
1849.77	22
1850.77	28
1851.77	23.5
1852.78	26
1853.78	24
1854.78	27.5
1855.78	28
1856.78	26.5
1857.79	23.5
1858.79	27
1859.79	22
1860.79	21
1861.79	21.5
1862.79	25
1863.79	24
1864.79	30
1865.79	25
1866.8	25.5
1867.8	23.5
1868.8	25.5
1869.8	27.5
1870.8	22
1871.8	25.5
1872.8	29.5
1873.79	26
1874.79	24
1875.79	25.5
1876.79	23
1877.79	22.5
1878.79	30.5
1879.79	24.5
1880.79	24.5
1881.78	29.5
1882.78	25.5
1883.78	25.5
1884.78	24
1885.77	26
1886.77	25
1887.77	25.5
1888.77	24
1889.76	24.5
1890.76	27
1891.76	27
1892.75	25.5
1893.75	24.5
1894.75	27
1895.74	23.5
1896.74	26
1897.73	22.5
1898.73	25
1899.73	24.5
1900.72	24
1901.72	26
1902.71	26
1903.7	25
1904.7	25.5
1905.69	25
1906.69	24
1907.68	27.5
1908.68	26.5
1909.67	28
1910.66	23
1911.66	26
1912.65	24.5
1913.64	26.5
1914.64	26.5
1915.63	23
1916.62	27.5
1917.62	25.5
1918.61	23
1919.6	27
1920.59	25
1921.58	26.5
1922.58	28
1923.57	25
1924.56	23.5
1925.55	23.5
1926.54	25
1927.53	22
1928.52	26.5
1929.51	21
1930.51	24
1931.5	25
1932.49	26
1933.48	25
1934.47	24.5
1935.46	26.5
1936.45	23
1937.44	27
1938.42	21
1939.41	25
1940.4	23.5
1941.39	24
1942.38	22
1943.37	25
1944.36	22.5
1945.35	24
1946.33	21.5
1947.32	24.5
1948.31	23.5
1949.3	22
1950.29	23
1951.27	26
1952.26	26.5
1953.25	25
1954.23	26
1955.22	25.5
1956.21	23.5
1957.19	26
1958.18	26
1959.17	27
1960.15	27.5
1961.14	27
1962.13	24
1963.11	24
1964.1	21.5
1965.08	24
1966.07	29
1967.05	23
1968.04	25.5
1969.02	26
1970.01	23
1970.99	22
1971.97	25
1972.96	26.5
1973.94	21.5
1974.93	22
1975.91	21.5
1976.89	22
1977.88	26.5
1978.86	27.5
1979.84	23
1980.83	24.5
1981.81	24
1982.79	25
1983.77	26.5
1984.76	23.5
1985.74	25
1986.72	24.5
1987.7	27
1988.68	24
1989.67	26
1990.65	23
1991.63	20
1992.61	24
1993.59	25.5
1994.57	21
1995.55	24
1996.53	23.5
1997.51	24.5
1998.49	24
1999.47	24
2000.45	25
2001.43	25
2002.41	28.5
2003.39	24
2004.37	24
2005.35	25
2006.33	27.5
2007.31	23.5
2008.29	26
2009.26	23.5
2010.24	24
2011.22	22.5
2012.2	24
2013.18	25
2014.15	27
2015.13	23
2016.11	28
2017.09	24
2018.06	25.5
2019.04	23.5
2020.02	23.5
2021	20
2021.97	26.5
2022.95	24
2023.92	24.5
2024.9	25
2025.88	27.5
2026.85	24.5
2027.83	25.5
2028.8	24
2029.78	23.5
2030.75	24
2031.73	26
2032.7	28
2033.68	22.5
2034.65	24.5
2035.63	19
2036.6	23.5
2037.58	21.5
2038.55	22.5
2039.52	22.5
2040.5	24.5
2041.47	23.5
2042.45	28.5
2043.42	27
2044.39	25.5
2045.36	23.5
2046.34	21
2047.31	25.5
2048.28	22
2049.26	23
2050.23	22
2051.2	22.5
2052.17	23
2053.14	22
2054.12	24.5
2055.09	20
2056.06	25.5
2057.03	24
2058	21.5
2058.97	25
2059.94	21
2060.91	23.5
2061.88	25.5
2062.85	28
2063.82	24
2064.79	23
2065.76	19
2066.73	22
2067.7	23
2068.67	22.5
2069.64	27
2070.61	24
2071.58	22
2072.55	23.5
2073.52	25.5
2074.49	27
2075.45	24.5
2076.42	25.5
2077.39	17
2078.36	23
2079.33	24
2080.29	24.5
2081.26	20.5
2082.23	23
2083.2	22.5
2084.16	20
2085.13	24
2086.1	23
2087.06	23
2088.03	22.5
2089	23.5
2089.96	23
2090.93	23
2091.89	23.5
2092.86	23
2093.83	25.5
2094.79	19
2095.76	20.5
2096.72	24
2097.69	23.5
2098.65	21
2099.62	26.5
2100.58	24.5
2101.55	19
2102.51	23.5
2103.47	22.5
2104.44	26.5
2105.4	24
2106.36	27
2107.33	25
2108.29	22
2109.25	25
2110.22	28
2111.18	23
2112.14	23
2113.11	24.5
2114.07	23
2115.03	23.5
2115.99	27
2116.96	24
2117.92	23
2118.88	27.5
2119.84	25
2120.8	24
2121.76	22
2122.72	21.5
2123.68	26
2124.65	23
2125.61	18
2126.57	20
2127.53	22
2128.49	26
2129.45	23
2130.41	24
2131.37	24.5
2132.33	21.5
2133.29	24
2134.25	23
2135.21	26
2136.17	23
2137.12	21
2138.08	25.5
2139.04	24.5
2140	24.5
2140.96	21
2141.92	23
2142.88	27.4678
2143.83	21.4916
2144.79	23.9649
2145.75	23.0616
2146.71	25.0409
2147.66	22.993
2148.62	20.6505
2149.58	23.9817
2150.53	22.9594
2151.49	24.1661
2152.45	22.7812
2153.4	23.3196
2154.36	22.9419
2155.32	25.0296
2156.27	23.8345
2157.23	24.0793
2158.19	20.4729
2159.14	20.6866
2160.1	19.6073
2161.05	24.112
2162.01	24.3798
2162.96	20.4075
2163.92	20.8355
2164.87	22.2087
2165.83	23.9652
2166.78	23.3166
2167.73	21.0146
2168.69	24.3526
2169.64	23.0998
2170.6	23.3798
2171.55	22.9912
2172.5	24.717
2173.46	22.9748
2174.41	23.4533
2175.36	23.7179
2176.32	22.7708
2177.27	22.4032
2178.22	22.7463
2179.18	23.7853
2180.13	21.349
2181.08	21.8243
2182.03	22.6275
2182.98	25.5363
2183.94	21.8345
2184.89	21.9559
2185.84	21.5775
2186.79	22.5725
2187.74	20.3567
2188.69	25.3884
2189.64	21.4618
2190.6	21.7646
2191.55	23.5
2192.5	19.2897
2193.45	23.4362
2194.4	25.3613
2195.35	23.5331
2196.3	22.7231
2197.25	21.607
2198.2	22.5754
2199.15	24.0445
2200.1	23.6171
2201.04	23.6183
2201.99	25.1792
2202.94	20.741
2203.89	23.2727
2204.84	22.9729
2205.79	21.8541
2206.74	22.0344
2207.69	24.7518
2208.63	22.1028
2209.58	23.9869
2210.53	19.5282
2211.48	19.2961
2212.43	21.8904
2213.37	21.6383
2214.32	24.6159
2215.27	22.7808
2216.21	25.2323
2217.16	22.5367
2218.11	22.7058
2219.05	21.8299
2220	23.5766
2220.95	19.3214
2221.89	23.7039
2222.84	23.2646
2223.78	27.6172
2224.73	23.1779
2225.68	22.2257
2226.62	21.2107
2227.57	22.9747
2228.51	21.8802
2229.46	21.5024
2230.4	20.9901
2231.35	24.9205
2232.29	23.9929
2233.24	21.1987
2234.18	24.3876
2235.12	21.8389
2236.07	20.4719
2237.01	22.8478
2237.95	23.0612
2238.9	21.5276
2239.84	17.212
2240.06	16
2241.01	23
2241.96	24.5
2242.91	22
2243.86	24.5
2244.8	23.5
2245.75	19.5
2246.7	25
2247.65	19
2248.59	24.5
2249.54	23.5
2250.49	23
2251.43	23.5
2252.38	20
2253.33	23
2254.27	23
2255.22	25
2256.16	19
2257.11	18
2258.06	20
2259	23.5
2259.95	23
2260.89	24.5
2261.84	25.5
2262.78	21.5
2263.73	24.5
2264.67	22.5
2265.62	23
2266.56	23
2267.5	24.5
2268.45	27
2269.39	23.5
2270.34	21.5
2271.28	23
2272.22	23
2273.17	22
2274.11	19.5
2275.05	23
2276	19
2276.94	25
2277.88	22
2278.82	21.5
2279.77	22.5
2280.71	23
2281.65	23.5
2282.59	18
2283.53	22.5
2284.48	21.5
2285.42	23
2286.36	22.5
2287.3	22.5
2288.24	29
2289.18	22
2290.12	21
2291.06	19
2292	20
2292.94	28
2293.89	23
2294.83	25
2295.77	26
2296.71	24
2297.65	22
2298.58	20.5
2299.52	24.5
2300.46	23.5
2301.4	26
2302.34	26
2303.28	22.5
2304.22	25
2305.16	27
2306.1	20.5
2307.03	25.5
2307.97	25.5
2308.91	23
2309.85	22
2310.79	26
2311.72	24.5
2312.66	19.5
2313.6	23
2314.54	25
2315.47	24.5
2316.41	24.5
2317.35	25.5
2318.28	21
2319.22	25
2320.16	24
2321.09	25.5
2322.03	25
2322.96	25
2323.9	21
2324.84	23
2325.77	21
2326.71	21.5
2327.64	23
2328.58	23.5
2329.51	24.5
2330.45	21
2331.38	24
2332.32	21
2333.25	25
2334.18	25
2335.12	23
2336.05	25
2336.99	22
2337.92	21.5
2338.85	26.5
2339.79	23.5
2340.72	24
2341.65	23.5
2342.59	23
2343.52	24.5
2344.45	26
2345.39	24
2346.32	26.5
2347.25	26
2348.18	23.5
2349.11	27.5
2350.05	22.5
2350.98	21
2351.91	25
2352.84	22.5
2353.77	23
2354.7	22
2355.64	23
2356.57	23
2357.5	25.5
2358.43	23.5
2359.36	28.5
2360.29	25
2361.22	23
2362.15	23
2363.08	21
2364.01	26
2364.94	24
2365.87	22.5
2366.8	24.5
2367.73	25
2368.66	24.5
2369.58	22.5
2370.51	24
2371.44	22.5
2372.37	22
2373.3	24
2374.23	22.5
2375.16	22
2376.08	18
2377.01	29.5
2377.94	23
2378.87	24.5
2379.8	23.5
2380.72	27.5
2381.65	26
2382.58	24
2383.5	26.5
2384.43	25
2385.36	20
2386.28	26.5
2387.21	25.5
2388.14	23.5
2389.06	24.5
2389.99	19
2390.91	24.5
2391.84	20
2392.77	24
2393.69	25
2394.62	23.5
2395.54	26
2396.47	22.5
2397.39	23
2398.32	26
2399.24	24.5
2400.16	24.5
2401.09	25.5
2402.01	19.5
2402.94	28
2403.86	23.5
2404.78	22
2405.71	26.5
2406.63	22.5
2407.56	25
2408.48	24.5
2409.4	26
2410.32	21.5
2411.25	21.5
2412.17	23
2413.09	23.5
2414.02	21.5
2414.94	23.5
2415.86	22.5
2416.78	25
2417.7	25
2418.63	27
2419.55	22
2420.47	22
2421.39	22
2422.31	25.5
2423.23	24
2424.15	22.5
2425.07	23.5
2425.99	24.5
2426.92	24.5
2427.84	24.5
2428.76	25
2429.68	23
2430.59	24.5
2431.51	25
2432.43	21
2433.35	23.5
2434.27	20
2435.19	24.5
2436.11	26
2437.03	26.5
2437.95	25.5
2438.87	25
2439.79	25
2440.71	25.5
2441.62	24.5
2442.54	26.5
2443.46	25.5
2444.38	20
2445.3	23
2446.21	20
2447.13	24.5
2448.05	27
2448.97	23.5
2449.88	25
2450.8	24.5
2451.72	26
2452.63	25.5
2453.55	24
2454.47	24
2455.38	26
2456.3	24
2457.21	23.5
2458.13	25
2459.05	27
2459.96	23
2460.88	25
2461.79	23
2462.71	30.5
2463.62	24.5
2464.54	25
2465.45	24.5
2466.37	25
2467.28	26
2468.2	25
2469.11	29
2470.02	21.5
2470.94	24.5
2471.85	22
2472.77	23.5
2473.68	21
2474.59	22.5
2475.51	24
2476.42	24.5
2477.33	24
2478.25	22
2479.16	22
2480.07	19
2480.98	25.5
2481.9	25.5
2482.81	23.5
2483.72	23.5
2484.63	22.5
2485.55	21
2486.46	28.5
2487.37	24.5
2488.28	24
2489.19	25.5
2490.1	24
2491.01	25
2491.92	26
2492.83	27
2493.74	25
2494.66	22.5
2495.57	26
2496.48	24.5
2497.39	27
2498.3	20
2499.21	19.5
2500.12	23.5
2501.03	25.5
2501.93	23
2502.84	25
2503.75	21.5
2504.66	26
2505.57	25
2506.48	23
2507.39	22
2508.3	23
2509.21	20.5
2510.11	22.5
2511.02	22.5
2511.93	26.5
2512.84	23
2513.75	23.5
2514.65	22.5
2515.56	25
2516.47	23.5
2517.37	26
2518.28	25
2519.19	24
2520.09	25
2521	22
2521.91	30.5
2522.81	20
2523.72	26
2524.63	27
2525.53	25
2526.44	27.5
2527.34	28.5
2528.25	24
2529.16	25.5
2530.06	25.5
2530.97	24
2531.87	20.5
2532.78	26.5
2533.68	23.5
2534.58	28.5
2535.49	24
2536.39	23.5
2537.3	22.5
2538.2	25
2539.11	20
2540.01	25.5
2540.91	23
2541.82	22.5
2542.72	19
2543.62	25.5
2544.53	25.5
2545.43	21.5
2546.33	27
2547.23	27.5
2548.14	21.5
2549.04	23.5
2549.94	25.5
2550.84	23
2551.75	22
2552.65	26.5
2553.55	24
2554.45	24.5
2555.35	24
2556.26	22
2557.16	28.5
2558.06	24
2558.96	24
2559.86	22.5
2560.76	22
2561.66	25
2562.56	26.5
2563.46	24
2564.36	26
2565.26	24
2566.16	26
2567.06	22
2567.96	21.5
2568.86	20.5
2569.76	21
2570.66	25.5
2571.56	28
2572.46	24.5
2573.36	22
2574.26	21.5
2575.16	27.5
2576.05	24
2576.95	24.5
2577.85	24
2578.75	24
2579.65	23.5
2580.54	23
2581.44	26
2582.34	20.5
2583.24	29
2584.13	24
2585.03	24.5
2585.93	22
2586.83	24.5
2587.72	26.5
2588.62	25
2589.52	27.5
2590.41	24
2591.31	28
2592.2	25
2593.1	23
2594	29
2594.89	26
2595.79	24.5
2596.68	26
2597.58	24
2598.47	23.5
2599.37	23
2600.26	23
2601.16	23.5
2602.05	25.5
2602.95	30
2603.84	21
2604.74	24.5
2605.63	27
2606.52	27
2607.42	26.5
2608.31	23
2609.21	24
2610.1	23.5
2610.99	22.5
2611.89	23.5
2612.78	26
2613.67	23
2614.56	24
2615.46	25.5
2616.35	24.5
2617.24	29.5
2618.13	26.5
2619.03	27
2619.92	24.5
2620.81	25.5
2621.7	23
2622.59	27
2623.49	25
2624.38	26
2625.27	27
2626.16	25.5
2627.05	27.5
2627.94	25
2628.83	25
2629.72	21
2630.61	28
2631.5	23.5
2632.39	24
2633.28	29.5
2634.17	26.5
2635.06	25
2635.95	26.5
2636.84	26
2637.73	26
2638.62	21.5
2639.51	26
2640.4	25.5
2641.29	28
2642.18	24.5
2643.07	24.5
2643.96	23
2644.84	24.5
2645.73	25
2646.62	25.5
2647.51	23
2648.4	24
2649.28	21.5
2650.17	30
2651.06	26
2651.95	25.5
2652.83	22.5
2653.72	28.5
2654.61	25.5
2655.49	24
2656.38	24
2657.27	23
2658.16	28
2659.04	23.5
2659.93	22.5
2660.81	25.5
2661.7	24
2662.59	24.5
2663.47	29
2664.36	25
2665.24	27
2666.13	25.5
2667.01	25
2667.9	22
2668.78	25.5
2669.67	24
2670.55	21.5
2671.44	27.5
2672.32	29.5
2673.21	28.5
2674.09	25.5
2674.97	24.5
2675.86	25
2676.74	24
2677.62	25.5
2678.51	23
2679.39	25.5
2680.27	20.5
2681.16	26.5
2682.04	28.5
2682.92	25
2683.81	24.5
2684.69	22.5
2685.57	24.5
2686.45	21
2687.34	23
2688.22	24.5
2689.1	26.5
2689.98	24
2690.86	21.5
2691.75	25
2692.63	26.5
2693.51	22
2694.39	26.5
2695.27	23.5
2696.15	22
2697.03	23
2697.91	21
2698.79	24
2699.67	24.5
2700.55	22.5
2701.43	27
2702.31	23
2703.19	23.5
2704.07	23
2704.95	25
2705.83	24
2706.71	23
2707.59	21
2708.47	23
2709.35	25.5
2710.23	22.5
2711.11	22
2711.99	24
2712.86	23
2713.74	19
2714.62	25
2715.5	23
2716.38	26
2717.26	22.5
2718.13	20
2719.01	27.5
2719.89	24.5
2720.77	20
2721.64	23.5
2722.52	24
2723.4	27
2724.27	20
2725.15	24
2726.03	25.5
2726.9	27.5
2727.78	26.5
2728.66	26.5
2729.53	23.5
2730.41	19.5
2731.28	26.5
2732.16	23
2733.03	26.5
2733.91	29.5
2734.79	25.5
2735.66	23
2736.54	19.5
2737.41	26.5
2738.29	25
2739.16	24
2740.03	24
2740.91	25
2741.78	23
2742.66	27
2743.53	23
2744.41	21
2745.28	25
2746.15	22.5
2747.03	22
2747.9	22
2748.77	25
2749.65	24
2750.52	24.5
2751.39	25.5
2752.27	25.5
2753.14	24
2754.01	26.5
2754.88	25
2755.75	24
2756.63	17.5
2757.5	26
2758.37	24
2759.24	24
2760.11	22
2760.99	26
2761.86	24
2762.73	24.5
2763.6	23.5
2764.47	20
2765.34	22
2766.21	26.5
2767.08	24.5
2767.95	25.5
2768.82	27.5
2769.69	25.5
2770.56	25
2771.43	23
2772.3	23.5
2773.17	25
2774.04	26
2774.91	24
2775.78	26.5
2776.65	23.5
2777.52	28
2778.39	25.5
2779.26	25
2780.13	25
2780.99	26
2781.86	24
2782.73	26
2783.6	24.5
2784.47	28.5
2785.34	27
2786.2	28
2787.07	27
2787.94	25.5
2788.81	26.5
2789.67	26
2790.54	24.5
2791.41	24
2792.27	26.5
2793.14	23
2794.01	26
2794.87	28.5
2795.74	28.5
2796.61	29
2797.47	25
2798.34	25.5
2799.21	25
2800.07	31
2800.94	27.25
2801.8	21.5
2802.67	26.5
2803.53	22
2804.4	25.5
2805.26	27.5
2806.13	26
2806.99	25.5
2807.86	26.5
2808.72	27.5
2809.59	29
2810.45	26.5
2811.32	28.5
2812.18	24
2813.04	25.5
2813.91	24
2814.77	26.5
2815.64	24.5
2816.5	28
2817.36	22
2818.22	25.5
2819.09	31.5
2819.95	30
2820.81	25
2821.68	29
2822.54	25.5
2823.4	26.5
2824.26	23.5
2825.13	27
2825.99	25
2826.85	26.5
2827.71	25.5
2828.57	24
2829.44	25.5
2830.3	22
2831.16	29.5
2832.02	24
2832.88	24
2833.74	26.5
2834.6	27.5
2835.46	28.5
2836.32	27
2837.18	25
2838.04	26
2838.9	23
2839.76	24.5
2840.62	23
2841.48	27
2842.34	24
2843.2	28
2844.06	25.5
2844.92	24
2845.78	25.5
2846.64	27.5
2847.5	26
2848.36	30
2849.22	28.5
2850.08	22
2850.93	28
2851.79	31
2852.65	24.5
2853.51	23
2854.37	27.5
2855.22	26.5
2856.08	25.5
2856.94	22
2857.8	22.5
2858.65	23.5
2859.51	26.5
2860.37	28.5
2861.23	21.5
2862.08	25.5
2862.94	26.5
2863.79	25.5
2864.65	26.5
2865.51	30
2866.36	28
2867.22	27.5
2868.08	29
2868.93	30
2869.79	30.5
2870.64	27.5
2871.5	27.5
2872.35	33.5
2873.21	29.5
2874.06	31
2874.92	32
2875.77	25
2876.63	30.5
2877.48	33
2878.34	32.5
2879.19	28
2880.05	26.5
2880.9	32.5
2881.76	27
2882.61	32.5
2883.46	32.5
2884.32	31.5
2885.17	31.5
2886.02	37.5
2886.88	42
2887.73	38
2888.58	39
2889.44	37
2890.29	37
2891.14	42
2891.99	43.5
2892.85	38
2893.7	45
2894.55	48
2895.4	49.5
2896.25	51
2897.11	55
2897.96	55
2898.81	58.5
2899.66	63
2900.51	63
2901.36	68.5
2902.21	66
2903.07	77
2903.92	70
2904.77	73
2905.62	73
2906.47	73
2907.32	73.5
2908.17	67
2909.02	65
2909.87	72.5
2910.72	56
2911.57	62.5
2912.42	52
2913.27	56.5
2914.12	53
2914.97	49
2915.81	37
2916.66	43.5
2917.51	43
2918.36	45
2919.21	39.5
2920.06	40.5
2920.91	38
2921.75	35
2922.6	34.5
2923.45	35.5
2924.3	35
2925.15	32
2925.99	30.5
2926.84	33.5
2927.69	30.5
2928.54	27
2929.38	28.5
2930.23	28
2931.08	27
2931.92	28.5
2932.77	28
2933.62	34.5
2934.46	27
2935.31	27
2936.16	29.5
2937	27
2937.85	26
2938.69	28
2939.54	29.5
2940.38	27
2941.23	27.5
2942.08	27
2942.92	31
2943.77	33
2944.61	26.5
2945.46	30.5
2946.3	29
2947.15	30
2947.99	27.5
2948.83	25.5
2949.68	34
2950.52	30.5
2951.37	33.5
2952.21	32
2953.05	31
2953.9	26
2954.74	32.5
2955.58	33
2956.43	36
2957.27	36
2958.11	40.5
2958.96	41.5
2959.8	41
2960.64	41
2961.48	44.5
2962.33	38.5
2963.17	47
2964.01	52.5
2964.85	47
2965.69	49.5
2966.54	46.5
2967.38	45
2968.22	40.5
2969.06	42.5
2969.9	45
2970.74	39
2971.58	39.9854
2972.43	35.9673
2973.27	40.0324
2974.11	34.786
2974.95	36.7058
2975.79	34.3996
2976.63	28.4006
2977.47	35.1342
2978.31	32.1102
2979.15	32.6557
2979.99	27.1205
2980.83	31.2068
2981.67	28.1393
2982.51	28.8323
2983.35	32.1882
2984.19	29.4469
2985.03	27.7652
2985.86	26.0617
2986.7	26.1394
2987.54	25.7
2988.38	29.4596
2989.22	25.9201
2990.06	28.6045
2990.9	29.1202
2991.73	26.0407
2992.57	23.3453
2993.41	25.7318
2994.25	24.3654
2995.09	25.9644
2995.92	26.089
2996.76	24.3363
2997.6	23.1933
2998.44	24.2785
2999.27	23.9013
3000.11	23.1361
3000.95	23.191
3001.78	23.2035
3002.62	24.832
3003.46	22.9953
3004.29	23.049
3005.13	22.7341
3005.96	24.1947
3006.8	25.0285
3007.64	24.6638
3008.47	25.5027
3009.31	22.7846
3010.14	22.8133
3010.98	24.2893
3011.81	21.9681
3012.65	22.7234
3013.48	24.7834
3014.32	23.6653
3015.15	22.8631
3015.99	22.9091
3016.82	24.4351
3017.66	20.7982
3018.49	21.6038
3019.33	22.2743
3020.16	22.7532
3020.99	23.582
3021.83	21.9359
3022.66	21.9592
3023.5	23.0141
3024.33	23.9853
3025.16	23.6492
3026	21.7202
3026.83	24.7791
3027.66	25.1464
3028.49	25.1196
3029.33	23.1549
3030.16	21.1578
3030.99	23.033
3031.83	22.583
3032.66	22.7324
3033.49	21.2577
3034.32	20.3376
3035.15	22.4386
3035.99	22.5561
3036.82	23.7621
3037.65	23.5754
3038.48	22.5594
3039.31	21.4841
3040.14	24.589
3040.97	24.0132
3041.81	22.3918
3042.64	24.12
3043.47	24.4277
3044.3	23.2888
3045.13	23.9773
3045.96	22.4718
3046.79	23.931
3047.62	25.3899
3048.45	22.6501
3049.28	23.5284
3050.11	25.4334
3050.94	25.4766
3051.77	23.2011
3052.6	21.5436
3053.43	22.4594
3054.26	21.2111
3055.08	21.5865
3055.91	23.646
3056.74	22.8141
3057.26	22.5
3058.09	22.5
3058.92	22
3059.76	25
3060.59	21.5
3061.42	25.5
3062.25	25
3063.09	19
3063.92	22.5
3064.75	20
3065.58	19
3066.42	25
3067.25	23
3068.08	23.5
3068.91	22
3069.74	20.5
3070.57	24
3071.41	19.5
3072.24	24
3073.07	24.5
3073.9	21.5
3074.73	24.5
3075.56	23
3076.39	24
3077.22	25
3078.05	25
3078.88	23.5
3079.71	20.5
3080.54	22
3081.37	24
3082.2	23.5
3083.03	22
3083.86	22.5
3084.69	23.5
3085.52	23.5
3086.35	22
3087.18	22.5
3088.01	21.5
3088.84	21.5
3089.67	23.5
3090.5	24
3091.32	25
3092.15	25.5
3092.98	24.5
3093.81	22
3094.64	24.5
3095.47	23.5
3096.29	27
3097.12	26
3097.95	23
3098.78	23
3099.6	20.5
3100.43	21.5
3101.26	25.5
3102.09	23
3102.91	20.5
3103.74	22
3104.57	19
3105.39	23.5
3106.22	23
3107.05	22.5
3107.87	24.5
3108.7	25.5
3109.52	23.5
3110.35	23.5
3111.18	20
3112	28
3112.83	20
3113.65	19.5
3114.48	24
3115.3	22.5
3116.13	25
3116.95	25
3117.78	22
3118.6	24.5
3119.43	23
3120.25	22
3121.08	23
3121.9	26
3122.72	21
3123.55	19.5
3124.37	26
3125.2	28
3126.02	22
3126.84	22.5
3127.67	25
3128.49	24.5
3129.31	25.5
3130.14	22
3130.96	24
3131.78	22
3132.61	25
3133.43	25.5
3134.25	20.5
3135.07	24
3135.89	25
3136.72	20.5
3137.54	23.5
3138.36	24
3139.18	19.5
3140	28
3140.83	26.5
3141.65	22.5
3142.47	22
3143.29	23.5
3144.11	21.5
3144.93	24
3145.75	25.5
3146.57	23.5
3147.4	24
3148.22	22.5
3149.04	25.5
3149.86	27
3150.68	20
3151.5	23.5
3152.32	25
3153.14	25.5
3153.96	23.5
3154.78	20
3155.59	26.5
3156.42	19
3157.23	22.5
3158.05	26
3158.87	25.5
3159.69	25
3160.51	23
3161.33	23.5
3162.15	19.5
3162.97	25.5
3163.78	22
3164.6	22.5
3165.42	25.5
3166.24	24.5
3167.06	24
3167.87	28.5
3168.69	22
3169.51	24.5
3170.33	23.5
3171.14	21
3171.96	26
3172.78	23.5
3173.6	22
3174.41	24
3175.23	24
3176.05	23.5
3176.86	23.5
3177.68	24
3178.5	23
3179.31	23.5
3180.13	22
3180.94	25
3181.76	30.5
3182.58	22.5
3183.39	25
3184.21	25
3185.02	20.5
3185.84	22.5
3186.65	20.5
3187.47	23
3188.28	22.5
3189.1	22.5
3189.91	26
3190.73	24
3191.54	21
3192.36	24.5
3193.17	24.5
3193.98	20
3194.8	21.5
3195.61	25.5
3196.43	22.5
3197.24	25.5
3198.05	26
3198.87	25
3199.68	24
3200.49	23
3201.31	21.5
3202.12	22.5
3202.93	22
3203.75	23
3204.56	26.5
3205.37	23
3206.18	21.5
3207	25.5
3207.81	25.5
3208.62	27
3209.43	24
3210.24	22.5
3211.06	20.5
3211.87	20
3212.68	29
3213.49	26.5
3214.3	21
3215.11	22.5
3215.92	26.5
3216.73	21.5
3217.55	20
3218.36	27
3219.17	18.5
3219.98	25.5
3220.79	24.5
3221.6	22.5
3222.41	21.5
3223.22	23
3224.03	28
3224.84	25
3225.65	26
3226.46	22
3227.27	26
3228.08	23.5
3228.89	26
3229.7	27.5
3230.5	26
3231.31	23.5
3232.12	23.5
3232.93	22
3233.74	28.5
3234.55	29
3235.36	22
3236.16	21.5
3236.97	23
3237.78	24
3238.59	24
3239.4	25
3240.2	21
3241.01	26.5
3241.82	22.5
3242.63	23.5
3243.43	22
3244.24	22.5
3245.05	25
3245.85	24
3246.66	25
3247.47	21
3248.27	21
3249.08	24
3249.89	26.5
3250.69	23.5
3251.5	25.5
3252.31	24.5
3253.11	27.5
3253.92	24
3254.72	23
3255.53	22.5
3256.33	23
3257.14	27
3257.94	26
3258.75	28
3259.55	26
3260.36	21
3261.16	25.5
3261.97	23.5
3262.77	24.5
3263.58	24.5
3264.38	26
3265.19	27
3265.99	25.5
3266.79	23
3267.6	26
3268.4	20.5
3269.21	23
3270.01	26
3270.81	23.5
3271.62	26
3272.42	24
3273.22	25
3274.03	25
3274.83	25.5
3275.63	20
3276.43	23
3277.24	25
3278.04	21.5
3278.84	25
3279.64	21.5
3280.45	22.5
3281.25	29.5
3282.05	23
3282.85	23.5
3283.65	25
3284.45	23.5
3285.26	24
3286.06	23
3286.86	24.5
3287.66	26
3288.46	21.5
3289.26	24.5
3290.06	21.5
3290.86	25
3291.66	23
3292.46	23
3293.26	29.5
3294.06	23
3294.86	22
3295.66	22
3296.46	25
3297.26	22
3298.06	22
3298.86	25
3299.66	17
3300.46	22
3301.26	19
3302.06	24
3302.86	25
3303.66	25
3304.46	25.5
3305.25	28
3306.05	23
3306.85	27
3307.65	21.5
3308.45	26.5
3309.25	25.5
3310.04	27
3310.84	21
3311.64	25
3312.44	28
3313.23	30
3314.03	25.5
3314.83	23
3315.63	24
3316.42	22.5
3317.22	20.5
3318.02	25.5
3318.81	25
3319.61	20
3320.41	25.5
3321.2	22.5
3322	25
3322.8	21
3323.59	26.5
3324.39	24
3325.18	22.5
3325.98	25
3326.78	22.5
3327.57	24
3328.37	20
3329.16	22
3329.96	26
3330.75	24.5
3331.55	23.5
3332.34	24
3333.14	24
3333.93	22.5
3334.73	24.5
3335.52	23
3336.31	27.5
3337.11	24.5
3337.9	23.5
3338.7	22.5
3339.49	25.5
3340.28	24.5
3341.08	27.5
3341.87	21
3342.66	24
3343.46	24
3344.25	22.5
3345.04	24.5
3345.84	22.5
3346.63	23.5
3347.42	25
3348.22	27.5
3349.01	24.5
3349.8	22.5
3350.59	27
3351.39	27.5
3352.18	20
3352.97	23
3353.76	23.5
3354.55	22
3355.35	25.5
3356.14	23
3356.93	24
3357.72	22
3358.51	20.5
3359.3	20
3360.09	23.5
3360.88	23
3361.67	24
3362.46	25.5
3363.26	24
3364.05	21.5
3364.84	20
3365.63	22.5
3366.42	25
3367.21	25.5
3368	23
3368.79	22
3369.58	24
3370.37	23.5
3371.15	23.5
3371.94	24.5
3372.73	23
3373.52	26
3374.31	24.5
3375.1	20.5
3375.89	22.5
3376.68	26
3377.47	22
3378.26	25
3379.04	23
3379.83	23
3380.62	23
3381.41	26.5
3382.2	25
3382.98	25
3383.77	26.5
3384.56	26
3385.35	19
3386.13	23.5
3386.92	23
3387.71	21.5
3388.5	25
3389.28	24.5
3390.07	26
3390.86	27
3391.64	21.5
3392.43	21
3393.22	25
3394	24
3394.79	23
3395.57	21
3396.36	23.5
3397.15	23.5
3397.93	24.5
3398.72	23
3399.5	25.5
3400.29	23.5
3401.07	27.5
3401.86	25
3402.65	27.5
3403.43	27
3404.21	24.5
3405	19.5
3405.78	23.5
3406.57	25.5
3407.35	22
3408.14	23
3408.92	26.5
3409.71	22
3410.49	26
3411.27	23.5
3412.06	23.5
3412.84	25
3413.62	24.5
3414.41	24
3415.19	24
3415.97	21.5
3416.76	19
3417.54	22.5
3418.32	27.5
3419.11	27
3419.89	22.5
3420.67	23
3421.46	24.5
3422.24	24.5
3423.02	20
3423.8	27
3424.58	23
3425.37	24.5
3426.15	26
3426.93	21
3427.71	24.5
3428.49	27.5
3429.27	24
3430.05	26
3430.84	21.5
3431.62	22.5
3432.4	20
3433.18	25
3433.96	27
3434.74	23.5
3435.52	21
3436.3	26.5
3437.08	22.5
3437.86	21.5
3438.64	24
3439.42	24.5
3440.2	19
3440.98	21.5
3441.76	23.5
3442.54	24.5
3443.32	25
3444.1	22.5
3444.88	28
3445.66	25.5
3446.44	25.5
3447.22	25
3448	27.5
3448.77	21.5
3449.55	22.5
3450.33	22
3451.11	24.5
3451.89	25
3452.67	23
3453.45	26
3454.22	27.5
3455	20
3455.78	24
3456.56	21
3457.33	25
3458.11	22.5
3458.89	26
3459.67	23
3460.44	21.5
3461.22	25.5
3462	23
3462.77	23
3463.55	23
3464.33	24
3465.1	26
3465.88	26.5
3466.66	24
3467.43	23.5
3468.21	22
3468.98	24.5
3469.76	26
3470.54	23.5
3471.31	25
3472.09	24
3472.86	30
3473.64	27
3474.41	22.5
3475.19	22.5
3475.96	25
3476.74	22
3477.51	25.5
3478.29	22.5
3479.06	29
3479.84	23
3480.61	26
3481.39	25
3482.16	22
3482.93	25.5
3483.71	23.5
3484.48	25
3485.25	19.5
3486.03	28.5
3486.8	27.5
3487.57	24
3488.35	25
3489.12	22
3489.89	24.5
3490.67	26
3491.44	21
3492.21	22
3492.99	24
3493.76	25
3494.53	25
3495.3	28
3496.08	18.5
3496.85	22
3497.62	24.5
3498.39	25.5
3499.16	26
3499.93	24
