#Acq. time (s)=	5
#Accumulations=	5
#Range (cm-¹)=	100...3500
#Windows=	4
#Autofocus=	Off
#AutoExposure=	Off
#Spike filter=	Multiple accum.
#Delay time (s)=	0
#Binning=	1
#Readout mode=	Signal
#DeNoise=	Off
#ICS correction=	Off
#Dark correction=	Off
#Inst. Process=	Off
#Instrument=	LabRAM HR Evol
#Detector=	Syncerity OE
#Objective=	x100_VIS
#Grating=	600 (500nm)
#ND Filter=	25%
#Laser=	633nm_Edge
#Hole=	100.021
#Range=	Visible
#Project=	verificaciones
#Sample=	at2
#Site=	lined
#Title=	bolusat2lined
#Remark=	
#Date=	13.01.2026 15:37
#Acquired=	13.01.2026 15:37:05
100.692	28.5
101.975	36.5
103.258	31
104.542	35.5
105.824	34
107.107	27.5
108.39	29
109.672	27
110.954	29
112.236	28
113.519	31
114.8	31
116.081	29.5
117.362	34
118.643	31.5
119.924	33.5
121.204	28.5
122.484	33
123.764	27
125.044	32
126.323	32
127.603	34
128.882	32
130.161	29.5
131.438	36.5
132.716	35.5
133.995	40
135.273	38
136.55	31
137.828	38.5
139.106	38
140.383	37.5
141.66	38.5
142.937	40
144.213	38
145.488	40
146.764	38
148.04	40
149.316	39.5
150.592	42
151.867	39
153.141	44
154.416	40.5
155.69	41.5
156.965	46
158.239	39
159.512	46.5
160.786	45.5
162.059	43.5
163.333	46.5
164.605	40.5
165.878	46
167.15	43
168.423	43
169.694	44.5
170.966	42
172.238	40.5
173.51	40.5
174.78	36
176.052	40.5
177.323	40.5
178.592	43
179.863	43
181.134	45
182.403	41
183.673	43
184.943	46
186.211	40
187.481	43.5
188.749	43.5
190.018	43
191.287	40.5
192.554	41
193.822	42.5
195.089	44
196.357	43
197.625	46
198.891	35
200.159	36
201.425	41
202.692	34
203.957	41.5
205.224	38
206.489	40
207.755	41
209.02	38.5
210.286	38.5
211.55	35
212.815	33.5
214.079	38
215.344	35.5
216.607	37
217.872	36.5
219.135	33.5
220.399	37
221.662	36.5
222.924	39
224.187	35.5
225.449	31.5
226.713	33
227.974	32.5
229.235	33
230.498	31.5
231.759	37
233.019	33.5
234.281	30.5
235.542	33
236.802	28
238.063	29
239.323	29.5
240.582	31
241.843	30
243.102	35
244.361	36
245.621	33.5
246.879	33
248.138	32.5
249.396	32
250.655	29
251.913	33.5
253.17	30.5
254.427	31
255.686	28.5
256.943	31.5
258.199	31
259.456	33
260.712	30
261.969	32
263.225	30.5
264.481	32
265.736	25
266.991	31
268.246	30
269.502	28
270.757	32
272.011	28
273.265	29
274.519	28
275.773	30.5
277.027	32.5
278.28	26
279.533	28.5
280.786	27
282.04	27
283.293	27.5
284.545	27.5
285.798	32.5
287.049	30.5
288.301	30.5
289.553	27
290.804	32.5
292.055	31
293.306	30
294.557	29
295.807	33
297.058	33
298.308	32.5
299.558	30.5
300.808	31.5
302.057	27.5
303.305	32.5
304.554	29
305.803	32.5
307.052	30.5
308.3	26.5
309.549	30
310.797	31.5
312.045	27
313.292	27
314.54	29
315.786	30.5
317.033	30
318.28	28
319.526	31.5
320.773	27
322.019	33.5
323.264	33.5
324.51	31.5
325.755	30.5
327.001	31
328.246	30
329.49	28
330.735	29
331.979	27
333.224	25.5
334.467	26
335.711	35.5
336.955	31.5
338.199	30.5
339.441	34
340.684	25
341.927	31
343.168	28
344.411	35
345.654	23.5
346.895	29
348.137	28
349.379	31
350.619	31
351.86	30
353.102	32.5
354.341	26
355.582	34.5
356.821	28.5
358.062	28
359.302	30.5
360.541	25.5
361.781	28
363.019	30.5
364.259	29.5
365.496	28.5
366.736	25
367.974	32
369.212	30
370.45	29
371.687	32
372.925	30
374.162	28.5
375.399	26
376.635	29
377.873	31.5
379.109	28
380.344	31.5
381.581	29
382.816	24
384.052	29
385.287	32.5
386.523	31.5
387.757	30.5
388.991	29.5
390.227	29.5
391.46	26.5
392.695	30
393.928	33
395.162	28.5
396.396	32
397.629	33
398.861	31
400.095	31.5
401.327	30.5
402.559	28.5
403.792	30.5
405.024	29.5
406.255	28.5
407.488	29
408.719	27
409.949	30.5
411.18	31
412.412	30
413.642	27.5
414.872	30.5
416.102	27
417.333	32.5
418.562	26
419.791	32.5
421.02	28.5
422.249	28
423.479	32
424.707	30
425.935	29
427.163	25.5
428.391	30
429.619	30.5
430.848	29
432.075	29
433.302	28
434.529	31.5
435.755	34
436.982	33.5
438.208	29
439.434	34
440.66	26.5
441.885	27
443.111	30
444.338	31.5
445.563	26
446.788	31
448.012	28
449.237	34.5
450.461	28
451.685	32.5
452.909	32.5
454.133	32
455.356	32
456.579	34
457.802	31
459.025	32
460.247	32.5
461.469	26.5
462.691	32
463.914	27
465.136	35
466.357	31.5
467.579	35.5
468.8	33
470.021	34.5
471.242	36
472.462	42
473.682	37
474.903	42
476.123	40.5
477.343	40.5
478.563	42.5
479.782	48.5
481	54.5
482.219	50
483.438	56.5
484.657	60.5
485.874	59
487.093	66.5
488.311	65
489.529	64
490.747	63.5
491.963	58
493.181	60
494.398	63
495.614	54
496.83	53.5
498.047	48
499.264	49.5
500.479	49.5
501.695	49
502.911	44.5
504.125	46.5
505.34	38
506.554	38.5
507.769	39.5
508.984	35
510.198	37
511.412	40.5
512.627	38
513.839	38
515.053	37.5
516.266	33.5
517.479	36
518.691	36.5
519.905	35.5
521.118	35
522.329	35
523.542	33
524.753	38
525.965	30.5
527.176	32
528.388	30
529.598	31
530.809	27
532.019	34
533.23	29
534.44	28
535.649	29
536.86	31.5
538.068	33
539.279	26
540.487	30.5
541.697	30.5
542.905	28.5
544.113	33
545.322	27
546.53	31.5
547.737	26
548.946	29
550.153	33
551.361	35.5
552.568	29.5
553.774	31
554.982	30.5
556.188	30.5
557.394	31
558.599	32.5
559.806	29
561.012	32.5
562.217	30
563.423	30
564.628	34
565.832	29
567.036	29.5
568.241	27.5
569.446	26.5
570.65	23
571.853	33
573.057	28
574.26	32.5
575.464	28
576.667	31.5
577.87	30.5
579.072	27
580.274	33.5
581.477	27.5
582.68	31
583.881	27.5
585.083	28
586.284	32
587.485	31.5
588.686	30
589.887	31
591.087	30
592.288	29
593.488	24
594.688	30.5
595.888	28.5
597.087	33
598.287	30
599.486	32
600.685	30.5
601.884	28.5
603.082	29
604.281	33.5
605.479	28
606.677	29.5
607.875	27.5
609.073	29
610.27	31
611.468	30
612.665	30
613.862	29
615.058	27
616.255	32
617.451	28
618.648	30.5
619.842	28.5
621.038	31
622.234	29
623.429	30.5
624.624	27
625.819	28
627.013	29.5
628.207	30
629.402	27.5
630.596	28
631.79	28.5
632.983	31
634.177	31.5
635.37	31.5
636.564	34
637.755	30
638.948	30
640.141	31.5
641.334	28.5
642.525	31
643.717	27.5
644.909	27.5
646.099	30.5
647.291	29.5
648.483	33
649.674	28
650.864	30.5
652.055	35
653.244	30
654.435	31.5
655.625	26.5
656.814	30
658.004	34
659.193	32
660.382	26
661.571	34.5
662.759	28
663.948	29
665.135	23
666.324	30.5
667.511	35
668.7	31
669.886	31.5
671.074	33
672.262	30.5
673.448	31
674.634	31
675.821	34.5
677.007	30.5
678.194	29.5
679.379	35.5
680.565	35
681.75	36
682.936	38
684.121	37.5
685.305	38.5
686.491	34
687.675	39.5
688.86	37
690.043	35.5
691.227	35
692.411	33.5
693.594	39
694.777	37
695.961	32
697.144	37.5
698.326	41.5
699.509	41
700.691	45
701.873	46
703.056	41.5
704.237	46
705.419	49.5
706.599	53
707.782	55.5
708.962	56
710.143	49.5
711.323	51
712.504	40
713.684	44
714.864	34
716.043	36
717.223	32.5
718.403	33.5
719.582	30
720.761	32.5
721.94	29
723.118	30.5
724.296	32
725.474	31.5
726.652	31
727.831	34.5
729.009	27.5
730.186	29.5
731.363	30.5
732.54	28
733.717	30.5
734.893	31.5
736.07	29.5
737.246	27
738.422	30
739.598	31
740.773	24
741.949	25.5
743.124	30
744.299	30
745.474	32.5
746.649	31
747.823	30.5
748.997	27
750.172	27.5
751.346	30
752.519	25.5
753.693	28
754.867	28
756.038	33
757.211	30.5
758.384	27
759.557	31
760.73	26
761.902	29.5
763.074	28
764.246	31.5
765.417	30
766.588	24.5
767.76	29.5
768.931	34
770.102	25.5
771.271	30.5
772.442	27
773.613	28.5
774.783	31
775.952	24.5
777.122	28
778.291	29.5
779.461	27.5
780.629	27
781.798	29.5
782.967	33.5
784.135	32.5
785.304	33
786.472	33
787.639	32
788.807	34
789.975	31.5
791.142	36
792.309	31
793.477	31.5
794.642	27
795.81	30
796.975	31
798.142	31
799.308	30
800.473	34
801.639	28.5
802.804	27
803.97	29.5
805.134	29
806.299	31
807.463	28.5
808.628	28.5
809.792	28.5
810.957	30.5
812.12	34
813.284	31
814.447	30
815.611	30.5
816.773	25.5
817.937	29
819.099	28.5
820.261	31
821.424	29.5
822.585	28
823.748	28
824.909	33.5
826.07	29.5
827.232	28
828.393	27
829.554	28.5
830.715	25.5
831.875	29
833.035	27
834.196	30
835.356	29
836.515	26.5
837.676	32
838.835	28
839.994	32.5
841.152	23
842.312	28
843.47	26.5
844.629	29.5
845.786	29
846.946	31
848.103	29
849.261	27
850.418	30
851.575	29
852.733	31.5
853.89	25
855.046	31.5
856.203	36
857.359	31
858.515	29
859.67	30
860.827	31
861.983	30
863.138	37
864.293	30
865.448	33
866.603	30
867.757	29
868.912	29
870.066	34
871.22	31
872.374	27.5
873.527	25.5
874.681	33
875.834	25.5
876.987	30
878.14	28
879.293	30
880.445	28
881.598	32.5
882.75	26.5
883.902	30
885.054	27
886.206	29
887.357	28
888.507	27.5
889.658	24
890.809	30
891.96	30
893.111	28
894.261	27
895.411	25
896.561	28
897.71	25
898.86	24
900.009	30
901.159	30.5
902.308	33
903.455	28.5
904.604	31
905.753	28
906.901	25
908.048	27.5
909.197	28.5
910.344	29.5
911.492	25
912.639	28
913.786	27
914.933	27
916.079	27
917.226	25.5
918.373	26
919.518	29
920.664	26
921.81	25
922.955	29
924.101	23.5
925.245	30.5
926.391	24
927.536	25
928.68	25.5
929.825	32.5
930.968	26.5
932.113	25.5
933.256	30
934.4	29
935.543	22
936.687	29
937.83	24.5
938.973	29.5
940.115	30
941.258	28
942.399	25.5
943.542	29
944.684	28.5
945.826	28.5
946.967	27.5
948.109	29
949.25	30
950.392	27
951.532	26.5
952.672	30.5
953.813	27.5
954.953	23.5
956.093	27.5
957.233	28
958.373	27
959.512	28.5
960.652	23.5
961.791	30.5
962.929	30.5
964.069	26.5
965.207	23
966.345	28
967.484	25
968.622	28
969.759	25
970.896	25
972.035	24.5
973.172	28
974.309	28
975.445	29.5
976.582	24
977.719	28
978.855	29
979.991	28.5
981.127	24
982.263	29
983.398	26.5
984.535	28
985.67	28.5
986.804	26
987.939	25
989.074	26
990.208	27
991.342	23
992.476	29
993.61	28
994.744	32
995.877	22
997.01	21.5
998.143	28
999.276	25.5
1000.41	24
1001.54	27.5
1002.67	22
1003.81	24.5
1004.94	26
1006.07	29
1007.2	25.5
1008.33	30
1009.47	25
1010.6	25
1011.73	26.5
1012.86	26.5
1013.99	25
1015.12	26.5
1016.25	29
1017.38	25.5
1018.51	28
1019.64	25
1020.77	26
1021.9	29
1023.03	26.5
1024.15	27.5
1025.28	20
1026.41	25
1027.54	25.5
1028.67	21
1029.8	25
1030.92	25
1032.05	25
1033.18	27
1034.31	21.5
1035.43	26
1036.56	23
1037.69	26
1038.81	26
1039.94	27.5
1041.07	26
1042.19	27
1043.32	26.5
1044.44	25
1045.57	26
1046.69	25
1047.82	24
1048.94	28
1050.07	26
1051.19	25
1052.32	28
1053.44	30
1054.57	25.5
1055.69	26
1056.81	25
1057.94	24
1059.06	27.5
1060.18	24.5
1061.31	26
1062.43	24
1063.55	26.5
1064.67	26
1065.8	28
1066.92	28.5
1068.04	24.5
1069.16	25
1070.28	26
1071.4	26
1072.52	27
1073.64	31.5
1074.76	28
1075.89	25
1077.01	26
1078.13	27
1079.25	23.5
1080.37	29
1081.49	32
1082.6	22.5
1083.72	24
1084.84	25.5
1085.96	29.5
1087.08	24
1088.2	28.5
1089.32	30.5
1090.43	26.5
1091.55	26
1092.67	22.5
1093.79	23
1094.91	23.5
1096.02	24
1097.14	24
1098.26	25.5
1099.37	29
1100.49	28.5
1101.61	24
1102.72	27
1103.84	25
1104.95	27.5
1106.07	24.5
1107.18	25
1108.3	25
1109.41	27.5
1110.53	25
1111.64	25
1112.76	26.5
1113.87	24
1114.99	26.5
1116.1	27.5
1117.21	28
1118.33	23
1119.44	24.5
1120.55	23.5
1121.67	22
1122.78	25.5
1123.89	25.5
1125	28
1126.12	26
1127.23	27
1128.34	26
1129.45	24
1130.56	24.5
1131.68	25.5
1132.79	28
1133.9	26.5
1135.01	24.5
1136.12	26.5
1137.23	27
1138.34	25
1139.45	23
1140.56	29.5
1141.67	25
1142.78	26.5
1143.89	22
1145	26
1146.11	30
1147.22	28
1148.32	24
1149.43	25.5
1150.54	25
1151.65	25
1152.76	24.5
1153.86	26
1154.97	26.5
1156.08	28
1157.19	28.5
1158.29	25
1159.4	27.5
1160.51	26.5
1161.61	24
1162.72	23.5
1163.83	27
1164.93	30.5
1166.04	23
1167.14	28.5
1168.25	24
1169.35	25.5
1170.46	26.5
1171.56	23
1172.67	23.5
1173.77	26.5
1174.88	24.5
1175.98	24
1177.08	27.5
1178.19	28.5
1179.29	28
1180.4	24
1181.5	23
1182.6	23
1183.71	25
1184.81	25
1185.91	28
1187.01	26.5
1188.12	27
1189.22	23
1190.32	21
1191.42	24
1192.52	26.5
1193.62	27.5
1194.72	25.9975
1195.83	25.4213
1196.93	24.5775
1198.03	27.4795
1199.13	26.1007
1200.23	28.4162
1201.33	22.6204
1202.43	26.7881
1203.53	21.3106
1204.63	26.4933
1205.73	27.5342
1206.83	28.0806
1207.92	25.0643
1209.02	24.3532
1210.12	25.9296
1211.22	25.4786
1212.32	22.8535
1213.42	25.1473
1214.51	24.6359
1215.61	27.2778
1216.71	25.1161
1217.81	22.8628
1218.9	27.3566
1220	27.4057
1221.1	26.7864
1222.19	21.9365
1223.29	24.5752
1224.39	25.3666
1225.48	26.1411
1226.58	26.3756
1227.68	25.0209
1228.77	25.9597
1229.87	22.3082
1230.96	24.3344
1232.06	24.4677
1233.15	25.4741
1234.25	24.9835
1235.34	26.5898
1236.43	25.9155
1237.53	24.2746
1238.62	25.4654
1239.72	25.5971
1240.81	26.4791
1241.9	27.2749
1243	24.9825
1244.09	24.8052
1245.18	23.988
1246.27	23.9786
1247.37	26.5078
1248.46	25.6964
1249.55	28.8161
1250.64	25.0459
1251.74	24.9598
1252.83	23.4417
1253.92	26.3761
1255.01	26.6162
1256.1	25.6954
1257.19	25.5964
1258.28	29.2481
1259.38	27.8866
1260.46	25.4265
1261.56	27.4595
1262.65	27.0432
1263.74	26.4942
1264.82	27.3491
1265.91	26.1304
1267	28.0057
1268.09	25.0311
1269.18	23.0322
1270.27	26.1651
1271.36	26.7417
1272.45	27.2613
1273.54	23.4689
1274.63	23.9143
1275.71	26.2262
1276.8	26.6601
1277.89	25.7275
1278.98	23.5543
1280.06	23.8568
1281.15	23.757
1282.24	23.0197
1283.32	22.1846
1284.41	22.5215
1285.5	23.1017
1286.58	26.9276
1287.67	27.7387
1288.76	22.8367
1289.84	25.6781
1290.93	23.6231
1292.01	24.0578
1293.1	23.6575
1294.18	22.6564
1295.27	26.2662
1296.35	26.6311
1297.44	28.3678
1298.52	25.8864
1299.6	26.5908
1300.69	23.9734
1301.77	25.8032
1302.86	23.6793
1303.94	25.2791
1305.02	26.8345
1306.11	25.5367
1306.41	25
1307.5	22.5
1308.59	25
1309.68	25
1310.77	21.5
1311.85	23.5
1312.94	27
1314.03	23.5
1315.11	22.5
1316.2	22
1317.29	28
1318.37	24
1319.46	25
1320.55	27
1321.63	25.5
1322.72	29
1323.8	25
1324.89	24
1325.98	21
1327.06	25
1328.15	23.5
1329.23	26
1330.31	24.5
1331.4	25
1332.48	25
1333.57	22.5
1334.65	24
1335.74	25.5
1336.82	23
1337.9	24
1338.99	26
1340.07	25
1341.15	24
1342.24	27
1343.32	28
1344.4	24
1345.48	30
1346.56	25.5
1347.65	25
1348.73	25
1349.81	25
1350.89	28.5
1351.97	28.5
1353.05	21
1354.13	27.5
1355.21	27.5
1356.29	22.5
1357.37	28
1358.46	27
1359.54	22.5
1360.62	25.5
1361.69	24
1362.77	27
1363.85	27
1364.93	29
1366.01	23
1367.09	25
1368.17	26.5
1369.25	27
1370.33	22.5
1371.41	26
1372.48	26.5
1373.56	27
1374.64	27.5
1375.72	27.5
1376.79	25.5
1377.87	22.5
1378.95	29.5
1380.02	26.5
1381.1	23
1382.18	28
1383.25	21
1384.33	24
1385.4	26
1386.48	27
1387.56	28
1388.63	27.5
1389.71	26
1390.78	28.5
1391.86	27.5
1392.93	27
1394.01	28
1395.08	27
1396.15	29.5
1397.23	26
1398.3	28
1399.38	29.5
1400.45	30
1401.52	32
1402.6	27
1403.67	32.5
1404.74	32
1405.81	32
1406.89	32.5
1407.96	31
1409.03	28.5
1410.1	31
1411.17	29
1412.25	26
1413.32	30.5
1414.39	34
1415.46	35
1416.53	31
1417.6	27
1418.67	29
1419.74	28
1420.81	25
1421.88	29
1422.95	23
1424.02	27
1425.09	25
1426.16	25.5
1427.23	26.5
1428.3	28.5
1429.37	28.5
1430.44	24
1431.51	28.5
1432.58	27
1433.64	28.5
1434.71	27
1435.78	27.5
1436.85	27
1437.92	28
1438.98	27
1440.05	24.5
1441.12	27.5
1442.18	28
1443.25	25.5
1444.32	26.5
1445.38	29
1446.45	23.5
1447.52	24
1448.58	30
1449.65	26
1450.71	27.5
1451.78	24
1452.84	24.5
1453.91	23.5
1454.97	27
1456.04	25
1457.1	28.5
1458.17	27
1459.23	28.5
1460.3	23
1461.36	28
1462.42	26
1463.49	28
1464.55	27
1465.61	26.5
1466.68	23
1467.74	26.5
1468.8	26
1469.86	24.5
1470.93	24
1471.99	26.5
1473.05	23
1474.11	26
1475.17	28
1476.24	25.5
1477.3	26.5
1478.36	26.5
1479.42	26.5
1480.48	28.5
1481.54	26.5
1482.6	29
1483.66	24.5
1484.72	26.5
1485.78	26
1486.84	25.5
1487.9	27.5
1488.96	27.5
1490.02	25.5
1491.08	25.5
1492.14	25.5
1493.2	25
1494.26	25.5
1495.31	25
1496.37	30.5
1497.43	26
1498.49	29.5
1499.55	25.5
1500.6	27
1501.66	27
1502.72	26.5
1503.78	30
1504.83	28.5
1505.89	29
1506.95	26.5
1508	21
1509.06	29
1510.12	25
1511.17	25.5
1512.23	27
1513.28	29
1514.34	28
1515.39	29
1516.45	27
1517.5	28
1518.56	29
1519.61	25.5
1520.67	26
1521.72	25.5
1522.78	26.5
1523.83	26.5
1524.88	23
1525.94	26.5
1526.99	27.5
1528.05	23.5
1529.1	28
1530.15	25.5
1531.2	27
1532.26	30
1533.31	25
1534.36	23.5
1535.41	26.5
1536.47	29
1537.52	24
1538.57	21
1539.62	21.5
1540.67	24.5
1541.72	27.5
1542.77	24
1543.83	22.5
1544.88	26
1545.93	25.5
1546.98	22
1548.03	25.5
1549.08	25
1550.13	27
1551.18	22.5
1552.23	23.5
1553.28	31
1554.32	25.5
1555.37	27
1556.42	29
1557.47	24.5
1558.52	26
1559.57	26
1560.62	26.5
1561.67	26
1562.71	24
1563.76	24.5
1564.81	26
1565.86	22.5
1566.9	27.5
1567.95	25.5
1569	29
1570.04	22
1571.09	26
1572.14	28
1573.18	26
1574.23	28
1575.27	25.5
1576.32	26.5
1577.37	22.5
1578.41	28
1579.46	30
1580.5	30.5
1581.55	23
1582.59	25
1583.64	29
1584.68	27.5
1585.72	26.5
1586.77	25.5
1587.81	23.5
1588.86	23.5
1589.9	25
1590.94	26.5
1591.99	27
1593.03	27
1594.07	27
1595.12	30
1596.16	26
1597.2	22.5
1598.24	28
1599.29	26.5
1600.33	24.5
1601.37	28
1602.41	24.5
1603.45	27
1604.49	23
1605.53	21
1606.58	25
1607.62	27
1608.66	27
1609.7	25
1610.74	27
1611.78	26.5
1612.82	25
1613.86	22.5
1614.9	25
1615.94	29
1616.98	26
1618.02	28
1619.06	28
1620.09	25.5
1621.13	27
1622.17	21
1623.21	27
1624.25	25
1625.29	29
1626.32	21.5
1627.36	25
1628.4	24.5
1629.44	26
1630.47	30
1631.51	25
1632.55	28.5
1633.58	32
1634.62	26
1635.66	22
1636.69	26
1637.73	23
1638.77	25.5
1639.8	27
1640.84	27.5
1641.87	31
1642.91	29.5
1643.94	28
1644.98	26
1646.01	28
1647.05	27
1648.08	28
1649.12	21.5
1650.15	27
1651.18	27
1652.22	25
1653.25	23
1654.29	27
1655.32	27
1656.35	27
1657.39	27.5
1658.42	28
1659.45	25
1660.48	24.5
1661.52	25
1662.55	24
1663.58	27
1664.61	29.5
1665.64	25
1666.68	28
1667.71	29
1668.74	23
1669.77	22.5
1670.8	25
1671.83	27
1672.86	27
1673.89	26.5
1674.92	27.5
1675.95	25.5
1676.98	26.5
1678.01	21
1679.04	30
1680.07	27.5
1681.1	27.5
1682.13	22
1683.16	27
1684.19	25
1685.22	26
1686.25	31
1687.27	23.5
1688.3	24
1689.33	28
1690.36	24.5
1691.38	26
1692.41	27.5
1693.44	22
1694.47	23
1695.49	22
1696.52	24
1697.55	27.5
1698.57	25
1699.6	26.5
1700.63	26.5
1701.65	26.5
1702.68	22
1703.7	27.5
1704.73	25.5
1705.76	23
1706.78	25
1707.81	27
1708.83	25.5
1709.86	27.5
1710.88	27.5
1711.91	26
1712.93	27.5
1713.95	23.5
1714.98	27
1716	27
1717.03	26
1718.05	28
1719.07	26.5
1720.1	25
1721.12	26
1722.14	27
1723.16	26
1724.19	25
1725.21	25
1726.23	27
1727.25	23.5
1728.28	27
1729.3	24
1730.32	22
1731.34	27
1732.36	26
1733.38	26
1734.41	23
1735.43	26.5
1736.45	23
1737.47	26
1738.49	25
1739.51	22.5
1740.53	28
1741.55	22
1742.57	25.5
1743.59	28.5
1744.61	24.5
1745.63	24.5
1746.64	24
1747.66	23.5
1748.68	28
1749.7	23.5
1750.72	25.5
1751.74	28
1752.76	27
1753.77	28
1754.79	25
1755.81	28.5
1756.83	26.5
1757.84	26
1758.86	21.5
1759.88	28.5
1760.9	27
1761.91	28.5
1762.93	27.5
1763.95	26
1764.96	25
1765.98	27
1766.99	26.5
1768.01	26.5
1769.02	28
1770.04	26
1771.06	25
1772.07	24
1773.09	27.5
1774.1	22.5
1775.12	28
1776.13	23
1777.14	26
1778.16	25.5
1779.17	21.5
1780.19	24.5
1781.2	26.5
1782.21	23.5
1783.23	27
1784.24	31.5
1785.25	23.5
1786.27	24.5
1787.28	25
1788.29	25
1789.3	25
1790.32	25
1791.33	24.5
1792.34	27.5
1793.35	27
1794.36	26.5
1795.38	28
1796.39	28
1797.4	24.5
1798.41	23
1799.42	24.5
1800.43	26
1801.44	24
1802.45	24.5
1803.46	25
1804.47	25
1805.48	25.5
1806.49	23
1807.5	24.5
1808.51	25.5
1809.52	26.5
1810.53	23.5
1811.54	25
1812.55	25
1813.56	26.5
1814.57	28.5
1815.57	29
1816.58	24
1817.59	23
1818.6	22.5
1819.61	29
1820.61	23
1821.62	26
1822.63	22
1823.64	25
1824.64	26.5
1825.65	26
1826.66	24
1827.66	23.5
1828.67	28
1829.68	26
1830.68	25
1831.69	23.5
1832.69	22
1833.7	23
1834.7	26.5
1835.71	24
1836.71	27
1837.72	27.5
1838.72	29
1839.73	26.5
1840.73	26.5
1841.74	30.5
1842.74	25.5
1843.75	26
1844.75	27.5
1845.75	24
1846.76	25
1847.76	28
1848.76	29
1849.77	25
1850.77	24
1851.77	23.5
1852.78	25
1853.78	25
1854.78	26.5
1855.78	28
1856.78	26.5
1857.79	25.5
1858.79	28.5
1859.79	25
1860.79	23
1861.79	23
1862.79	25.5
1863.79	27
1864.79	27
1865.79	25
1866.8	26
1867.8	26
1868.8	24
1869.8	21.5
1870.8	28.5
1871.8	28.5
1872.8	28
1873.79	23
1874.79	19.5
1875.79	25
1876.79	24
1877.79	23
1878.79	27.5
1879.79	25.5
1880.79	26.5
1881.78	25.5
1882.78	29
1883.78	24.5
1884.78	23.5
1885.77	27.5
1886.77	25.5
1887.77	26
1888.77	28
1889.76	27
1890.76	24
1891.76	26.5
1892.75	23
1893.75	23
1894.75	26
1895.74	22.5
1896.74	22.5
1897.73	26.5
1898.73	25
1899.73	24
1900.72	25.5
1901.72	29.5
1902.71	26
1903.7	24
1904.7	28
1905.69	23.5
1906.69	24.5
1907.68	20.5
1908.68	25
1909.67	25.5
1910.66	22.5
1911.66	25.5
1912.65	25
1913.64	26.5
1914.64	27
1915.63	22.5
1916.62	26
1917.62	24
1918.61	21
1919.6	25.5
1920.59	24
1921.58	23.5
1922.58	26
1923.57	24.5
1924.56	25
1925.55	23
1926.54	27.5
1927.53	19.5
1928.52	26
1929.51	22
1930.51	23.5
1931.5	24
1932.49	21.5
1933.48	29
1934.47	28
1935.46	22.5
1936.45	24
1937.44	25
1938.42	24.5
1939.41	24.5
1940.4	22
1941.39	25
1942.38	25
1943.37	25
1944.36	24
1945.35	23
1946.33	24.5
1947.32	28.5
1948.31	26.5
1949.3	23
1950.29	25
1951.27	28.5
1952.26	24
1953.25	25.5
1954.23	22
1955.22	21
1956.21	26.5
1957.19	25
1958.18	29
1959.17	27
1960.15	24.5
1961.14	24
1962.13	23
1963.11	23
1964.1	25
1965.08	20.5
1966.07	26.5
1967.05	21.5
1968.04	26
1969.02	25
1970.01	26
1970.99	25
1971.97	28
1972.96	26.5
1973.94	26.5
1974.93	18.5
1975.91	26
1976.89	24.5
1977.88	27
1978.86	22
1979.84	25
1980.83	29.5
1981.81	26
1982.79	25
1983.77	24.5
1984.76	24
1985.74	25
1986.72	23
1987.7	26.5
1988.68	23
1989.67	23
1990.65	20
1991.63	27.5
1992.61	24.5
1993.59	20
1994.57	23
1995.55	22.5
1996.53	28.5
1997.51	23
1998.49	23.5
1999.47	27
2000.45	22.5
2001.43	24
2002.41	20
2003.39	25
2004.37	21.5
2005.35	23
2006.33	27
2007.31	24.5
2008.29	20.5
2009.26	21
2010.24	26
2011.22	21
2012.2	24.5
2013.18	25.5
2014.15	24
2015.13	26
2016.11	26.5
2017.09	22.5
2018.06	24
2019.04	20
2020.02	27.5
2021	23
2021.97	25.5
2022.95	25.5
2023.92	28.5
2024.9	25
2025.88	26.5
2026.85	24.5
2027.83	24.5
2028.8	24.5
2029.78	22.5
2030.75	26
2031.73	25.5
2032.7	25
2033.68	24.5
2034.65	25
2035.63	24
2036.6	27.5
2037.58	23
2038.55	27
2039.52	22
2040.5	23.5
2041.47	25
2042.45	25.5
2043.42	23.5
2044.39	21
2045.36	25.5
2046.34	23.5
2047.31	23
2048.28	27
2049.26	20
2050.23	27
2051.2	25.5
2052.17	26
2053.14	25
2054.12	22.5
2055.09	24.5
2056.06	25.5
2057.03	23
2058	26.5
2058.97	24.5
2059.94	23.5
2060.91	25.5
2061.88	24
2062.85	24
2063.82	19.5
2064.79	20
2065.76	24.5
2066.73	22.5
2067.7	22
2068.67	27.5
2069.64	25
2070.61	24.5
2071.58	26
2072.55	22
2073.52	24
2074.49	24
2075.45	20.5
2076.42	23
2077.39	25.5
2078.36	21.5
2079.33	22.5
2080.29	23.5
2081.26	25.5
2082.23	22.5
2083.2	25.5
2084.16	27
2085.13	24.5
2086.1	27
2087.06	23.5
2088.03	21
2089	23
2089.96	26
2090.93	26.5
2091.89	29.5
2092.86	24.5
2093.83	27.5
2094.79	22.5
2095.76	22.5
2096.72	22
2097.69	23.5
2098.65	21.5
2099.62	24.5
2100.58	26
2101.55	24.5
2102.51	25
2103.47	21.5
2104.44	20
2105.4	26.5
2106.36	23.5
2107.33	24.5
2108.29	23.5
2109.25	24
2110.22	25.5
2111.18	27
2112.14	23
2113.11	25.5
2114.07	22
2115.03	23.5
2115.99	28.5
2116.96	22
2117.92	25.5
2118.88	24
2119.84	22.5
2120.8	26
2121.76	22
2122.72	25
2123.68	25.5
2124.65	22
2125.61	20.5
2126.57	22
2127.53	23.5
2128.49	23
2129.45	25.5
2130.41	28
2131.37	26
2132.33	19.5
2133.29	24
2134.25	21
2135.21	22.5
2136.17	25
2137.12	25.5
2138.08	22.5
2139.04	25
2140	20
2140.96	26
2141.92	27
2142.88	19.5111
2143.83	22.0155
2144.79	21.5997
2145.75	24.5715
2146.71	21.0335
2147.66	24.936
2148.62	25.9894
2149.58	22.9366
2150.53	23.1758
2151.49	24.8299
2152.45	24.6253
2153.4	24.7338
2154.36	22.9152
2155.32	25.3302
2156.27	24.4426
2157.23	25.2347
2158.19	21.7491
2159.14	22.9833
2160.1	23.6445
2161.05	22.6532
2162.01	25.2479
2162.96	22.1869
2163.92	23.0495
2164.87	26.2403
2165.83	23.3371
2166.78	23.9209
2167.73	22.3514
2168.69	22.3333
2169.64	24.0806
2170.6	24.3311
2171.55	21.4677
2172.5	24.9112
2173.46	22.7774
2174.41	22.4868
2175.36	24.6595
2176.32	23.2767
2177.27	23.6443
2178.22	21.6366
2179.18	24.6161
2180.13	23.8558
2181.08	25.4651
2182.03	24.0084
2182.98	21.6489
2183.94	23.91
2184.89	24.7012
2185.84	23.2401
2186.79	24.8597
2187.74	25.6892
2188.69	20.9624
2189.64	21.7578
2190.6	26.2128
2191.55	23
2192.5	23.7967
2193.45	24.3541
2194.4	22.5479
2195.35	23.3797
2196.3	22.1286
2197.25	21.4417
2198.2	23.469
2199.15	22.8778
2200.1	22.2621
2201.04	24.0615
2201.99	24.2223
2202.94	23.5708
2203.89	23.5963
2204.84	24.4594
2205.79	23.4014
2206.74	22.1728
2207.69	24.5225
2208.63	22.9667
2209.58	23.1449
2210.53	22.5907
2211.48	25.1566
2212.43	21.4992
2213.37	23.3393
2214.32	20.1171
2215.27	22.0134
2216.21	24.4208
2217.16	22.8469
2218.11	24.2516
2219.05	24.3749
2220	23.1707
2220.95	25.8801
2221.89	21.446
2222.84	20.7767
2223.78	23.5264
2224.73	24.5
2225.68	23.2575
2226.62	23.3667
2227.57	23.7379
2228.51	22.7277
2229.46	19.3843
2230.4	23.592
2231.35	25.5067
2232.29	24.0608
2233.24	23.3664
2234.18	20.9458
2235.12	22.3708
2236.07	24.5444
2237.01	22.6692
2237.95	22.8049
2238.9	22.6283
2239.84	24.7694
2240.06	25.5
2241.01	22
2241.96	21
2242.91	20.5
2243.86	24
2244.8	23
2245.75	24
2246.7	22.5
2247.65	25
2248.59	20.5
2249.54	24.5
2250.49	24.5
2251.43	21.5
2252.38	24
2253.33	20
2254.27	24
2255.22	21.5
2256.16	19
2257.11	23
2258.06	25
2259	22.5
2259.95	21
2260.89	19.5
2261.84	23
2262.78	22.5
2263.73	25
2264.67	25.5
2265.62	26.5
2266.56	25
2267.5	25
2268.45	24.5
2269.39	23
2270.34	25
2271.28	24
2272.22	27
2273.17	26
2274.11	22
2275.05	20.5
2276	26
2276.94	25
2277.88	25
2278.82	20.5
2279.77	24
2280.71	23
2281.65	21.5
2282.59	22
2283.53	23
2284.48	22
2285.42	25.5
2286.36	25
2287.3	19
2288.24	20.5
2289.18	24
2290.12	23
2291.06	22
2292	25.5
2292.94	22
2293.89	21
2294.83	21
2295.77	28
2296.71	23.5
2297.65	22.5
2298.58	24.5
2299.52	23.5
2300.46	24
2301.4	24
2302.34	19
2303.28	22.5
2304.22	25.5
2305.16	25
2306.1	23
2307.03	23
2307.97	23.5
2308.91	25
2309.85	18
2310.79	20
2311.72	23.5
2312.66	23.5
2313.6	22
2314.54	22.5
2315.47	24.5
2316.41	24
2317.35	26
2318.28	22
2319.22	24
2320.16	24
2321.09	23
2322.03	24
2322.96	25.5
2323.9	27.5
2324.84	23
2325.77	21
2326.71	23
2327.64	25
2328.58	21
2329.51	22.5
2330.45	28.5
2331.38	22.5
2332.32	24
2333.25	25.5
2334.18	24.5
2335.12	24.5
2336.05	27
2336.99	25
2337.92	25
2338.85	22.5
2339.79	27
2340.72	23.5
2341.65	23.5
2342.59	24.5
2343.52	20.5
2344.45	23.5
2345.39	27.5
2346.32	23
2347.25	24.5
2348.18	28
2349.11	24
2350.05	27.5
2350.98	22.5
2351.91	25.5
2352.84	22.5
2353.77	25
2354.7	25
2355.64	22
2356.57	22
2357.5	25
2358.43	23
2359.36	20
2360.29	25
2361.22	26
2362.15	25
2363.08	22
2364.01	22.5
2364.94	20.5
2365.87	21.5
2366.8	27
2367.73	25
2368.66	20
2369.58	21.5
2370.51	24
2371.44	20
2372.37	24.5
2373.3	24
2374.23	25
2375.16	29
2376.08	24
2377.01	26
2377.94	23
2378.87	25.5
2379.8	26.5
2380.72	24
2381.65	25
2382.58	22
2383.5	22.5
2384.43	24
2385.36	24
2386.28	22
2387.21	23
2388.14	22.5
2389.06	26.5
2389.99	25
2390.91	28.5
2391.84	24
2392.77	22
2393.69	22
2394.62	27
2395.54	22.5
2396.47	25
2397.39	24
2398.32	27
2399.24	25.5
2400.16	22
2401.09	26
2402.01	22.5
2402.94	25.5
2403.86	25.5
2404.78	23.5
2405.71	23.5
2406.63	19.5
2407.56	21.5
2408.48	23
2409.4	23.5
2410.32	25
2411.25	23
2412.17	24
2413.09	22
2414.02	24
2414.94	20.5
2415.86	22
2416.78	27.5
2417.7	22.5
2418.63	23.5
2419.55	27.5
2420.47	26
2421.39	26
2422.31	25.5
2423.23	25.5
2424.15	24.5
2425.07	23
2425.99	21
2426.92	23
2427.84	23
2428.76	25
2429.68	24
2430.59	22
2431.51	22
2432.43	25.5
2433.35	27.5
2434.27	23.5
2435.19	25
2436.11	22
2437.03	24.5
2437.95	20.5
2438.87	20
2439.79	22
2440.71	27
2441.62	26.5
2442.54	27.5
2443.46	27
2444.38	24.5
2445.3	24
2446.21	25.5
2447.13	20.5
2448.05	26
2448.97	22
2449.88	24
2450.8	19.5
2451.72	25.5
2452.63	23
2453.55	26
2454.47	26
2455.38	27
2456.3	22.5
2457.21	23
2458.13	25
2459.05	26.5
2459.96	27
2460.88	19.5
2461.79	27
2462.71	28
2463.62	24
2464.54	26.5
2465.45	22.5
2466.37	22
2467.28	25.5
2468.2	27
2469.11	24.5
2470.02	25.5
2470.94	28
2471.85	24
2472.77	25
2473.68	21
2474.59	25.5
2475.51	24.5
2476.42	27
2477.33	26.5
2478.25	25.5
2479.16	26.5
2480.07	23
2480.98	26
2481.9	26.5
2482.81	23
2483.72	24
2484.63	27.5
2485.55	23.5
2486.46	23
2487.37	23.5
2488.28	24.5
2489.19	27.5
2490.1	21.5
2491.01	26.5
2491.92	24.5
2492.83	24
2493.74	23
2494.66	25.5
2495.57	22
2496.48	23.5
2497.39	24.5
2498.3	24
2499.21	26.5
2500.12	27
2501.03	26
2501.93	22
2502.84	27
2503.75	23
2504.66	26
2505.57	22.5
2506.48	27
2507.39	26
2508.3	25.5
2509.21	27
2510.11	27
2511.02	25.5
2511.93	28
2512.84	23
2513.75	22
2514.65	23
2515.56	22
2516.47	22
2517.37	28
2518.28	24
2519.19	27
2520.09	24
2521	23
2521.91	25
2522.81	25
2523.72	26.5
2524.63	24
2525.53	22
2526.44	25.5
2527.34	25.5
2528.25	27
2529.16	22
2530.06	25
2530.97	25
2531.87	24
2532.78	26
2533.68	24
2534.58	25.5
2535.49	26
2536.39	23
2537.3	26
2538.2	28
2539.11	25.5
2540.01	26.5
2540.91	23
2541.82	29
2542.72	24
2543.62	21
2544.53	24.5
2545.43	21.5
2546.33	25.5
2547.23	24
2548.14	21.5
2549.04	27
2549.94	22
2550.84	24
2551.75	22
2552.65	24
2553.55	25
2554.45	23
2555.35	23.5
2556.26	25
2557.16	28
2558.06	23.5
2558.96	23
2559.86	26.5
2560.76	24
2561.66	28
2562.56	21.5
2563.46	24.5
2564.36	25.5
2565.26	28.5
2566.16	22.5
2567.06	20
2567.96	21
2568.86	29.5
2569.76	25
2570.66	28.5
2571.56	24
2572.46	23
2573.36	24
2574.26	27.5
2575.16	22.5
2576.05	24.5
2576.95	23.5
2577.85	25.5
2578.75	25
2579.65	23
2580.54	28.5
2581.44	26.5
2582.34	25.5
2583.24	25.5
2584.13	24.5
2585.03	26
2585.93	24.5
2586.83	20
2587.72	27
2588.62	22
2589.52	27.5
2590.41	24
2591.31	27
2592.2	23
2593.1	22.5
2594	23.5
2594.89	24.5
2595.79	27.5
2596.68	29
2597.58	25
2598.47	25
2599.37	21.5
2600.26	22
2601.16	24.5
2602.05	25
2602.95	19.5
2603.84	29.5
2604.74	25
2605.63	29
2606.52	27.5
2607.42	26.5
2608.31	25
2609.21	24
2610.1	24
2610.99	22
2611.89	22
2612.78	25.5
2613.67	24.5
2614.56	24
2615.46	21
2616.35	23
2617.24	23
2618.13	21
2619.03	24
2619.92	27
2620.81	28
2621.7	25
2622.59	26.5
2623.49	23.5
2624.38	27.5
2625.27	27
2626.16	21
2627.05	23.5
2627.94	20
2628.83	24
2629.72	27
2630.61	24
2631.5	29
2632.39	26
2633.28	23.5
2634.17	27.5
2635.06	24
2635.95	26.5
2636.84	26.5
2637.73	23.5
2638.62	24.5
2639.51	23
2640.4	24
2641.29	24.5
2642.18	24.5
2643.07	25.5
2643.96	23
2644.84	25.5
2645.73	23.5
2646.62	23.5
2647.51	29.5
2648.4	25
2649.28	25
2650.17	26.5
2651.06	24.5
2651.95	25.5
2652.83	22
2653.72	26.5
2654.61	24.5
2655.49	28
2656.38	21
2657.27	25
2658.16	24.5
2659.04	24
2659.93	23.5
2660.81	24.5
2661.7	27
2662.59	25.5
2663.47	24
2664.36	25
2665.24	24
2666.13	26
2667.01	25
2667.9	23
2668.78	28.5
2669.67	27.5
2670.55	23.5
2671.44	23.5
2672.32	22
2673.21	29
2674.09	23.5
2674.97	24
2675.86	25.5
2676.74	20.5
2677.62	27
2678.51	23
2679.39	23.5
2680.27	28.5
2681.16	24.5
2682.04	25
2682.92	26
2683.81	26.5
2684.69	24
2685.57	24.5
2686.45	22.5
2687.34	22.5
2688.22	27
2689.1	19.5
2689.98	26
2690.86	23
2691.75	21.5
2692.63	25.5
2693.51	21.5
2694.39	23
2695.27	23.5
2696.15	24.5
2697.03	27
2697.91	23
2698.79	26.5
2699.67	23
2700.55	26
2701.43	25
2702.31	25
2703.19	27.5
2704.07	27
2704.95	23
2705.83	26.5
2706.71	21
2707.59	21
2708.47	23
2709.35	23
2710.23	24.5
2711.11	24
2711.99	26
2712.86	21.5
2713.74	25
2714.62	25.5
2715.5	23
2716.38	22.5
2717.26	23.5
2718.13	24.5
2719.01	31
2719.89	24
2720.77	23.5
2721.64	22.5
2722.52	26.5
2723.4	24
2724.27	22
2725.15	21.5
2726.03	24
2726.9	23
2727.78	22.5
2728.66	24
2729.53	30
2730.41	25.5
2731.28	24
2732.16	25.5
2733.03	27.5
2733.91	25.5
2734.79	27
2735.66	24.5
2736.54	23
2737.41	23
2738.29	22.5
2739.16	23
2740.03	25
2740.91	26
2741.78	22
2742.66	21.5
2743.53	25
2744.41	23
2745.28	21
2746.15	28.5
2747.03	24.5
2747.9	24.5
2748.77	28
2749.65	25.5
2750.52	20.5
2751.39	22.5
2752.27	19.5
2753.14	22
2754.01	24
2754.88	24.5
2755.75	24.5
2756.63	22
2757.5	21
2758.37	24
2759.24	22.5
2760.11	22
2760.99	23.5
2761.86	26.5
2762.73	22
2763.6	23.5
2764.47	25
2765.34	26.5
2766.21	23.5
2767.08	21
2767.95	27.5
2768.82	23
2769.69	24.5
2770.56	23.5
2771.43	25
2772.3	21.5
2773.17	27
2774.04	27.5
2774.91	28
2775.78	22
2776.65	25.5
2777.52	24.5
2778.39	24.5
2779.26	24
2780.13	21
2780.99	25.5
2781.86	27.5
2782.73	28
2783.6	23
2784.47	26.5
2785.34	25
2786.2	28
2787.07	28
2787.94	26.5
2788.81	24
2789.67	27.5
2790.54	25
2791.41	25.5
2792.27	26
2793.14	28
2794.01	26.5
2794.87	28
2795.74	23
2796.61	22.5
2797.47	25
2798.34	23.5
2799.21	28.5
2800.07	22
2800.94	23.75
2801.8	25
2802.67	26.5
2803.53	26
2804.4	27
2805.26	26
2806.13	28
2806.99	26.5
2807.86	26.5
2808.72	29
2809.59	26
2810.45	25
2811.32	27.5
2812.18	24.5
2813.04	30
2813.91	26.5
2814.77	28
2815.64	26.5
2816.5	23
2817.36	22.5
2818.22	26
2819.09	28
2819.95	26
2820.81	26.5
2821.68	23
2822.54	20
2823.4	27
2824.26	27.5
2825.13	26
2825.99	26
2826.85	24
2827.71	30
2828.57	28.5
2829.44	26
2830.3	28.5
2831.16	25
2832.02	18
2832.88	23
2833.74	28
2834.6	30
2835.46	24.5
2836.32	28
2837.18	25
2838.04	23.5
2838.9	21.5
2839.76	27
2840.62	25.5
2841.48	26.5
2842.34	28.5
2843.2	30
2844.06	25
2844.92	24
2845.78	28
2846.64	24
2847.5	24.5
2848.36	27.5
2849.22	27.5
2850.08	24.5
2850.93	24.5
2851.79	26.5
2852.65	26
2853.51	29
2854.37	27
2855.22	27.5
2856.08	27
2856.94	27
2857.8	27.5
2858.65	26
2859.51	27
2860.37	28
2861.23	29.5
2862.08	31.5
2862.94	28
2863.79	29
2864.65	28.5
2865.51	26
2866.36	30
2867.22	26.5
2868.08	29.5
2868.93	29.5
2869.79	27
2870.64	27
2871.5	29.5
2872.35	27.5
2873.21	27
2874.06	31.5
2874.92	28
2875.77	27.5
2876.63	32.5
2877.48	30
2878.34	33
2879.19	29
2880.05	33
2880.9	26.5
2881.76	34
2882.61	32.5
2883.46	32
2884.32	38
2885.17	38
2886.02	36
2886.88	37
2887.73	36
2888.58	35.5
2889.44	37
2890.29	39.5
2891.14	37
2891.99	41.5
2892.85	43
2893.7	44.5
2894.55	48.5
2895.4	48
2896.25	48.5
2897.11	59
2897.96	54.5
2898.81	57.5
2899.66	63.5
2900.51	57
2901.36	66
2902.21	63.5
2903.07	69.5
2903.92	75
2904.77	71
2905.62	76.5
2906.47	74
2907.32	72
2908.17	71.5
2909.02	74
2909.87	63.5
2910.72	61.5
2911.57	67
2912.42	62
2913.27	53.5
2914.12	54
2914.97	48
2915.81	46.5
2916.66	45.5
2917.51	40.5
2918.36	43
2919.21	37
2920.06	38
2920.91	36
2921.75	32
2922.6	33.5
2923.45	36.5
2924.3	31.5
2925.15	31.5
2925.99	35.5
2926.84	30
2927.69	30.5
2928.54	30.5
2929.38	29.5
2930.23	28
2931.08	32
2931.92	26.5
2932.77	24.5
2933.62	30
2934.46	25
2935.31	31
2936.16	30
2937	28.5
2937.85	27
2938.69	28.5
2939.54	28
2940.38	28
2941.23	29
2942.08	30
2942.92	27
2943.77	29
2944.61	27
2945.46	25.5
2946.3	30.5
2947.15	31
2947.99	30
2948.83	34
2949.68	30
2950.52	35
2951.37	33.5
2952.21	30.5
2953.05	37
2953.9	32
2954.74	31
2955.58	34
2956.43	32
2957.27	35
2958.11	33.5
2958.96	40
2959.8	36
2960.64	40.5
2961.48	40
2962.33	46
2963.17	43
2964.01	45
2964.85	50
2965.69	47
2966.54	46.5
2967.38	44.5
2968.22	47
2969.06	43
2969.9	41
2970.74	40.5
2971.58	38.5024
2972.43	39.3983
2973.27	37.0128
2974.11	34.0892
2974.95	34.8867
2975.79	31.9275
2976.63	37.3136
2977.47	31.8929
2978.31	27.6329
2979.15	35.8083
2979.99	27.0247
2980.83	28.2837
2981.67	25.5687
2982.51	29.1543
2983.35	28.1078
2984.19	30.1082
2985.03	25.5557
2985.86	25.2413
2986.7	30.232
2987.54	25.1438
2988.38	27.5674
2989.22	24.9844
2990.06	25.6845
2990.9	24.4783
2991.73	28.8832
2992.57	26.4114
2993.41	23.5218
2994.25	25.4519
2995.09	25.9652
2995.92	28.3678
2996.76	25.078
2997.6	24.1538
2998.44	23.1655
2999.27	20.4401
3000.11	23.0794
3000.95	23.7115
3001.78	25.8869
3002.62	23.2597
3003.46	23.9496
3004.29	24.7556
3005.13	25.1273
3005.96	24.4169
3006.8	25.0217
3007.64	23.0625
3008.47	22.4848
3009.31	25.1355
3010.14	23.914
3010.98	22.6683
3011.81	23.6053
3012.65	24.46
3013.48	24.1013
3014.32	23.9153
3015.15	23.333
3015.99	20.9302
3016.82	21.5655
3017.66	23.0716
3018.49	23.9729
3019.33	21.9937
3020.16	22.3066
3020.99	22.9426
3021.83	25
3022.66	23.8525
3023.5	23.9494
3024.33	22.0428
3025.16	21.6431
3026	23.8045
3026.83	22.7192
3027.66	23.0498
3028.49	23.299
3029.33	23.4391
3030.16	23.5908
3030.99	23.7623
3031.83	23.3406
3032.66	22.4906
3033.49	19.8407
3034.32	21.7028
3035.15	23.5057
3035.99	21.4316
3036.82	24.8681
3037.65	23.7581
3038.48	23.0433
3039.31	22.5797
3040.14	22.9129
3040.97	22.584
3041.81	22.2631
3042.64	23.1507
3043.47	23.6179
3044.3	23.0576
3045.13	23.595
3045.96	23.6602
3046.79	23.3795
3047.62	24.542
3048.45	23.9279
3049.28	22.3051
3050.11	23.8096
3050.94	24.3908
3051.77	23.5556
3052.6	21.6456
3053.43	23.092
3054.26	24.0472
3055.08	21.6277
3055.91	21.3977
3056.74	23.5259
3057.26	26
3058.09	21
3058.92	25.5
3059.76	21.5
3060.59	23
3061.42	22.5
3062.25	24
3063.09	25.5
3063.92	25.5
3064.75	24
3065.58	22.5
3066.42	23
3067.25	24.5
3068.08	22
3068.91	25
3069.74	20
3070.57	24
3071.41	21
3072.24	23.5
3073.07	21.5
3073.9	23
3074.73	22.5
3075.56	22.5
3076.39	24
3077.22	23
3078.05	22
3078.88	23
3079.71	24
3080.54	27
3081.37	22
3082.2	24
3083.03	24.5
3083.86	25
3084.69	24
3085.52	25
3086.35	22
3087.18	24.5
3088.01	17
3088.84	21.5
3089.67	25
3090.5	23
3091.32	19.5
3092.15	22
3092.98	23
3093.81	21.5
3094.64	24
3095.47	24.5
3096.29	23
3097.12	21.5
3097.95	24
3098.78	23
3099.6	28.5
3100.43	24
3101.26	22.5
3102.09	23.5
3102.91	21
3103.74	24
3104.57	27
3105.39	20.5
3106.22	24.5
3107.05	25
3107.87	22.5
3108.7	26
3109.52	24.5
3110.35	24
3111.18	25.5
3112	22
3112.83	23
3113.65	25.5
3114.48	20
3115.3	25.5
3116.13	21
3116.95	20
3117.78	24.5
3118.6	20.5
3119.43	23
3120.25	26.5
3121.08	26
3121.9	27.5
3122.72	23.5
3123.55	20.5
3124.37	23.5
3125.2	23.5
3126.02	21.5
3126.84	22.5
3127.67	27.5
3128.49	23
3129.31	21
3130.14	26
3130.96	25
3131.78	25
3132.61	19.5
3133.43	25
3134.25	24.5
3135.07	25
3135.89	24
3136.72	28
3137.54	24
3138.36	23
3139.18	23.5
3140	24.5
3140.83	27
3141.65	27
3142.47	24.5
3143.29	23
3144.11	23.5
3144.93	20
3145.75	24.5
3146.57	21
3147.4	24
3148.22	26.5
3149.04	23
3149.86	23.5
3150.68	26.5
3151.5	24.5
3152.32	24.5
3153.14	24
3153.96	24
3154.78	25
3155.59	23.5
3156.42	25.5
3157.23	25.5
3158.05	22.5
3158.87	22
3159.69	22.5
3160.51	22.5
3161.33	23
3162.15	20.5
3162.97	25
3163.78	25
3164.6	24
3165.42	28
3166.24	24
3167.06	24.5
3167.87	26
3168.69	22.5
3169.51	22.5
3170.33	20
3171.14	23
3171.96	23
3172.78	26
3173.6	22
3174.41	24
3175.23	21.5
3176.05	25
3176.86	23
3177.68	24
3178.5	18.5
3179.31	27
3180.13	26.5
3180.94	21.5
3181.76	26
3182.58	22
3183.39	23.5
3184.21	28
3185.02	25
3185.84	28
3186.65	26
3187.47	25.5
3188.28	24.5
3189.1	23
3189.91	24
3190.73	25
3191.54	22.5
3192.36	20.5
3193.17	25
3193.98	24
3194.8	23.5
3195.61	24.5
3196.43	25.5
3197.24	25
3198.05	23.5
3198.87	24
3199.68	22
3200.49	24
3201.31	22
3202.12	23
3202.93	24
3203.75	22.5
3204.56	25.5
3205.37	25
3206.18	26
3207	23.5
3207.81	24
3208.62	20
3209.43	24.5
3210.24	26
3211.06	26
3211.87	23.5
3212.68	23
3213.49	23.5
3214.3	20
3215.11	23
3215.92	23.5
3216.73	25
3217.55	23.5
3218.36	24
3219.17	25
3219.98	22.5
3220.79	24
3221.6	20
3222.41	24.5
3223.22	21
3224.03	20
3224.84	21
3225.65	23
3226.46	26
3227.27	22.5
3228.08	22
3228.89	24
3229.7	27
3230.5	31
3231.31	22.5
3232.12	25.5
3232.93	24
3233.74	28
3234.55	21
3235.36	24
3236.16	25.5
3236.97	28
3237.78	25.5
3238.59	26.5
3239.4	22
3240.2	25
3241.01	25.5
3241.82	22.5
3242.63	29
3243.43	19
3244.24	29.5
3245.05	22
3245.85	25
3246.66	24.5
3247.47	21.5
3248.27	24
3249.08	26
3249.89	22.5
3250.69	24.5
3251.5	21.5
3252.31	20.5
3253.11	23
3253.92	23.5
3254.72	20
3255.53	25
3256.33	24.5
3257.14	25.5
3257.94	23.5
3258.75	25
3259.55	23
3260.36	26.5
3261.16	21.5
3261.97	26
3262.77	23.5
3263.58	22
3264.38	20.5
3265.19	26.5
3265.99	22.5
3266.79	24
3267.6	27.5
3268.4	25.5
3269.21	22
3270.01	21
3270.81	23
3271.62	26.5
3272.42	23
3273.22	22
3274.03	22
3274.83	23
3275.63	27.5
3276.43	23
3277.24	23.5
3278.04	19.5
3278.84	21
3279.64	23
3280.45	25
3281.25	24
3282.05	21.5
3282.85	26.5
3283.65	23.5
3284.45	28.5
3285.26	21
3286.06	24.5
3286.86	24
3287.66	22
3288.46	24
3289.26	22.5
3290.06	25
3290.86	25
3291.66	22.5
3292.46	25
3293.26	23
3294.06	22
3294.86	23.5
3295.66	17.5
3296.46	25.5
3297.26	26
3298.06	24
3298.86	21.5
3299.66	24
3300.46	27.5
3301.26	26
3302.06	20.5
3302.86	24.5
3303.66	22
3304.46	28
3305.25	21
3306.05	25
3306.85	27.5
3307.65	24
3308.45	26.5
3309.25	20.5
3310.04	21.5
3310.84	23
3311.64	25.5
3312.44	25
3313.23	25
3314.03	22
3314.83	28.5
3315.63	22
3316.42	26.5
3317.22	26.5
3318.02	25
3318.81	22
3319.61	24.5
3320.41	23.5
3321.2	26
3322	20
3322.8	26
3323.59	26
3324.39	24.5
3325.18	23.5
3325.98	21
3326.78	25.5
3327.57	20
3328.37	27
3329.16	20
3329.96	19
3330.75	21
3331.55	24
3332.34	22.5
3333.14	25.5
3333.93	22.5
3334.73	24.5
3335.52	25
3336.31	18
3337.11	19
3337.9	23
3338.7	27
3339.49	24.5
3340.28	25
3341.08	25.5
3341.87	26
3342.66	26.5
3343.46	26.5
3344.25	23.5
3345.04	24.5
3345.84	23.5
3346.63	23.5
3347.42	24
3348.22	23
3349.01	26.5
3349.8	22
3350.59	22.5
3351.39	20
3352.18	22
3352.97	23
3353.76	21
3354.55	26.5
3355.35	25
3356.14	25
3356.93	24
3357.72	23.5
3358.51	23
3359.3	22
3360.09	26
3360.88	24
3361.67	23.5
3362.46	22.5
3363.26	23
3364.05	23
3364.84	19
3365.63	24.5
3366.42	27.5
3367.21	28
3368	25
3368.79	23
3369.58	18.5
3370.37	25
3371.15	24.5
3371.94	24
3372.73	26
3373.52	20
3374.31	26.5
3375.1	21.5
3375.89	23.5
3376.68	28
3377.47	25
3378.26	19
3379.04	25
3379.83	24
3380.62	29
3381.41	22
3382.2	23.5
3382.98	21.5
3383.77	23
3384.56	23
3385.35	28
3386.13	23
3386.92	24
3387.71	25.5
3388.5	23.5
3389.28	19
3390.07	25
3390.86	20.5
3391.64	23.5
3392.43	24
3393.22	26
3394	23
3394.79	25
3395.57	27.5
3396.36	28.5
3397.15	21
3397.93	26
3398.72	24
3399.5	24.5
3400.29	24
3401.07	25
3401.86	25.5
3402.65	28.5
3403.43	22
3404.21	23
3405	27.5
3405.78	26.5
3406.57	21.5
3407.35	22.5
3408.14	24
3408.92	22.5
3409.71	23
3410.49	24.5
3411.27	25
3412.06	26
3412.84	23
3413.62	26
3414.41	23
3415.19	18
3415.97	22.5
3416.76	19.5
3417.54	23
3418.32	25
3419.11	27.5
3419.89	22.5
3420.67	25.5
3421.46	26.5
3422.24	24
3423.02	24.5
3423.8	25.5
3424.58	23.5
3425.37	28.5
3426.15	20
3426.93	23
3427.71	22.5
3428.49	27
3429.27	19
3430.05	24
3430.84	23.5
3431.62	28
3432.4	25
3433.18	19
3433.96	20.5
3434.74	21.5
3435.52	24.5
3436.3	23.5
3437.08	25.5
3437.86	23.5
3438.64	24
3439.42	24.5
3440.2	24.5
3440.98	23.5
3441.76	22
3442.54	21.5
3443.32	27.5
3444.1	27
3444.88	23.5
3445.66	21
3446.44	26.5
3447.22	25.5
3448	28
3448.77	23.5
3449.55	24.5
3450.33	25
3451.11	25
3451.89	24.5
3452.67	23
3453.45	23.5
3454.22	20.5
3455	27.5
3455.78	22.5
3456.56	23.5
3457.33	23
3458.11	24.5
3458.89	23
3459.67	24
3460.44	25
3461.22	23.5
3462	23.5
3462.77	20.5
3463.55	24.5
3464.33	22.5
3465.1	23.5
3465.88	27
3466.66	25.5
3467.43	23.5
3468.21	24
3468.98	20
3469.76	23.5
3470.54	23
3471.31	24
3472.09	27
3472.86	21
3473.64	22.5
3474.41	21.5
3475.19	26
3475.96	23
3476.74	24
3477.51	29
3478.29	24.5
3479.06	26
3479.84	23
3480.61	25
3481.39	25
3482.16	25.5
3482.93	21
3483.71	20
3484.48	26
3485.25	22
3486.03	23.5
3486.8	24.5
3487.57	26.5
3488.35	24
3489.12	23.5
3489.89	23
3490.67	22
3491.44	22.5
3492.21	22.5
3492.99	22
3493.76	22
3494.53	21
3495.3	25
3496.08	25.5
3496.85	19.5
3497.62	21
3498.39	22
3499.16	20.5
3499.93	28
