#Acq. time (s)=	5
#Accumulations=	5
#Range (cm-¹)=	100...3500
#Windows=	4
#Autofocus=	Off
#AutoExposure=	Off
#Spike filter=	Multiple accum.
#Delay time (s)=	0
#Binning=	1
#Readout mode=	Signal
#DeNoise=	Off
#ICS correction=	Off
#Dark correction=	Off
#Inst. Process=	Off
#Instrument=	LabRAM HR Evol
#Detector=	Syncerity OE
#Objective=	x100_VIS
#Grating=	600 (500nm)
#ND Filter=	25%
#Laser=	633nm_Edge
#Hole=	100.021
#Range=	Visible
#Project=	verificaciones
#Sample=	at2
#Site=	plain
#Title=	bolusat2plain
#Remark=	
#Date=	13.01.2026 15:07
#Acquired=	13.01.2026 15:07:17
100.692	27
101.975	28.5
103.258	27
104.542	29.5
105.824	32
107.107	28.5
108.39	22
109.672	27
110.954	27
112.236	29
113.519	26.5
114.8	28
116.081	28
117.362	31.5
118.643	27
119.924	29.5
121.204	26
122.484	26
123.764	30.5
125.044	27.5
126.323	26
127.603	28.5
128.882	28.5
130.161	27
131.438	28
132.716	28.5
133.995	30.5
135.273	26.5
136.55	31
137.828	31
139.106	28
140.383	28
141.66	33
142.937	32.5
144.213	32
145.488	33
146.764	30
148.04	33
149.316	31
150.592	30
151.867	28
153.141	33
154.416	30.5
155.69	31
156.965	29.5
158.239	35
159.512	35
160.786	34
162.059	32
163.333	34
164.605	26.5
165.878	32
167.15	31.5
168.423	28.5
169.694	32.5
170.966	35.5
172.238	33
173.51	30.5
174.78	32.5
176.052	31.5
177.323	34
178.592	32.5
179.863	34
181.134	31
182.403	31
183.673	30
184.943	35.5
186.211	30
187.481	36.5
188.749	34
190.018	35.5
191.287	35
192.554	34
193.822	32
195.089	34
196.357	32.5
197.625	31
198.891	29
200.159	27
201.425	31.5
202.692	33.5
203.957	31
205.224	29.5
206.489	33.5
207.755	30.5
209.02	30.5
210.286	28.5
211.55	28
212.815	29
214.079	31
215.344	31.5
216.607	28
217.872	26
219.135	28
220.399	27
221.662	28.5
222.924	29
224.187	29
225.449	30.5
226.713	27.5
227.974	29
229.235	28
230.498	27
231.759	29
233.019	26.5
234.281	30.5
235.542	26.5
236.802	30
238.063	29.5
239.323	28
240.582	30
241.843	32
243.102	27.5
244.361	26.5
245.621	26
246.879	25
248.138	27
249.396	27.5
250.655	27.5
251.913	28
253.17	27.5
254.427	28
255.686	29
256.943	27.5
258.199	26
259.456	28.5
260.712	25
261.969	27
263.225	25
264.481	25.5
265.736	30
266.991	30
268.246	29.5
269.502	26.5
270.757	32.5
272.011	27
273.265	28.5
274.519	25.5
275.773	25.5
277.027	29.5
278.28	27
279.533	31.5
280.786	28.5
282.04	25.5
283.293	28.5
284.545	30.5
285.798	30
287.049	28
288.301	28.5
289.553	28
290.804	29
292.055	25.5
293.306	27.5
294.557	29.5
295.807	24.5
297.058	27
298.308	24
299.558	27.5
300.808	27
302.057	26.5
303.305	28.5
304.554	25
305.803	26
307.052	26.5
308.3	24.5
309.549	26
310.797	24.5
312.045	27.5
313.292	31
314.54	24
315.786	27
317.033	26.5
318.28	29.5
319.526	28
320.773	23
322.019	24
323.264	28
324.51	27
325.755	29
327.001	25
328.246	29
329.49	27.5
330.735	26.5
331.979	26
333.224	28.5
334.467	26
335.711	22
336.955	30
338.199	30
339.441	26.5
340.684	25
341.927	26
343.168	28.5
344.411	25
345.654	27.5
346.895	27
348.137	26
349.379	26
350.619	27
351.86	30.5
353.102	27.5
354.341	24.5
355.582	28
356.821	29.5
358.062	25.5
359.302	24.5
360.541	25.5
361.781	28
363.019	25.5
364.259	27
365.496	26.5
366.736	32
367.974	31.5
369.212	27.5
370.45	31
371.687	26
372.925	27
374.162	28
375.399	26
376.635	28.5
377.873	31
379.109	26
380.344	28
381.581	23
382.816	27
384.052	26
385.287	24.5
386.523	26
387.757	31
388.991	30
390.227	25.5
391.46	28
392.695	24.5
393.928	29.5
395.162	27.5
396.396	25
397.629	30
398.861	25
400.095	29
401.327	28
402.559	25
403.792	28
405.024	29
406.255	26.5
407.488	29
408.719	25.5
409.949	28
411.18	31.5
412.412	28
413.642	31.5
414.872	29.5
416.102	22
417.333	26
418.562	26
419.791	23.5
421.02	26
422.249	22.5
423.479	23
424.707	24.5
425.935	27
427.163	25
428.391	28
429.619	27.5
430.848	29
432.075	25.5
433.302	26.5
434.529	29
435.755	27
436.982	27.5
438.208	27.5
439.434	29
440.66	26
441.885	22
443.111	28
444.338	28.5
445.563	22
446.788	25
448.012	27.5
449.237	28.5
450.461	25.5
451.685	29
452.909	27
454.133	27
455.356	27.5
456.579	25
457.802	29
459.025	26
460.247	29.5
461.469	27
462.691	30
463.914	26
465.136	28
466.357	33
467.579	30
468.8	30
470.021	27.5
471.242	32.5
472.462	28.5
473.682	31
474.903	34
476.123	30
477.343	34.5
478.563	30
479.782	36
481	38.5
482.219	37
483.438	40
484.657	41.5
485.874	42.5
487.093	38
488.311	41.5
489.529	47
490.747	43.5
491.963	45
493.181	43.5
494.398	38
495.614	39
496.83	34.5
498.047	35
499.264	35
500.479	35.5
501.695	35.5
502.911	30
504.125	36.5
505.34	32
506.554	33
507.769	27
508.984	33.5
510.198	27
511.412	32
512.627	29
513.839	32.5
515.053	28
516.266	33
517.479	30.5
518.691	29
519.905	31
521.118	28.5
522.329	28.5
523.542	31.5
524.753	32.5
525.965	31.5
527.176	30
528.388	28
529.598	31.5
530.809	28.5
532.019	30
533.23	31.5
534.44	29
535.649	29.5
536.86	25
538.068	27
539.279	28
540.487	22
541.697	29
542.905	27.5
544.113	24
545.322	26
546.53	27.5
547.737	29
548.946	29.5
550.153	29
551.361	27
552.568	27.5
553.774	31
554.982	24
556.188	26.5
557.394	28.5
558.599	28.5
559.806	25
561.012	30
562.217	27
563.423	28
564.628	28.5
565.832	30.5
567.036	26.5
568.241	25.5
569.446	25
570.65	33
571.853	28
573.057	29.5
574.26	22.5
575.464	31
576.667	25
577.87	29
579.072	26.5
580.274	31.5
581.477	25.5
582.68	26
583.881	23
585.083	28
586.284	26
587.485	29
588.686	27
589.887	29
591.087	25.5
592.288	29.5
593.488	26.5
594.688	29
595.888	24
597.087	29
598.287	25
599.486	30
600.685	26.5
601.884	25
603.082	30
604.281	33.5
605.479	29.5
606.677	32
607.875	27
609.073	29.5
610.27	29.5
611.468	29
612.665	27
613.862	31
615.058	24
616.255	27
617.451	29
618.648	28.5
619.842	27
621.038	23
622.234	29
623.429	28
624.624	24
625.819	29.5
627.013	32.5
628.207	29.5
629.402	27.5
630.596	26.5
631.79	28
632.983	27
634.177	25.5
635.37	26
636.564	30
637.755	26
638.948	27
640.141	27.5
641.334	29
642.525	25
643.717	25.5
644.909	30
646.099	25.5
647.291	28
648.483	24.5
649.674	29.5
650.864	23
652.055	24
653.244	26
654.435	24
655.625	25.5
656.814	29.5
658.004	27
659.193	26
660.382	31.5
661.571	27
662.759	28
663.948	27.5
665.135	27.5
666.324	28.5
667.511	31
668.7	26.5
669.886	23.5
671.074	25
672.262	24
673.448	30
674.634	28.5
675.821	27.5
677.007	28.5
678.194	32
679.379	30.5
680.565	32.5
681.75	29
682.936	26
684.121	30.5
685.305	27.5
686.491	32
687.675	29
688.86	31.5
690.043	31
691.227	30
692.411	32
693.594	30
694.777	32.5
695.961	31
697.144	29
698.326	31
699.509	34
700.691	30.5
701.873	33.5
703.056	34
704.237	34
705.419	36
706.599	36
707.782	38.5
708.962	38
710.143	38.5
711.323	35.5
712.504	34
713.684	33
714.864	29
716.043	33
717.223	27
718.403	28
719.582	31.5
720.761	29
721.94	29
723.118	28.5
724.296	30
725.474	26
726.652	26
727.831	26
729.009	25.5
730.186	24.5
731.363	26.5
732.54	28
733.717	26.5
734.893	25.5
736.07	28.5
737.246	26
738.422	28.5
739.598	30
740.773	28.5
741.949	29.5
743.124	28.5
744.299	21.5
745.474	28
746.649	26
747.823	25.5
748.997	28.5
750.172	28
751.346	27.5
752.519	29.5
753.693	28
754.867	26
756.038	29
757.211	26.5
758.384	25
759.557	28
760.73	26.5
761.902	25
763.074	30
764.246	32
765.417	28
766.588	29
767.76	25.5
768.931	27
770.102	23.5
771.271	27
772.442	30.5
773.613	29
774.783	27
775.952	28
777.122	28
778.291	27.5
779.461	30
780.629	26
781.798	23
782.967	29
784.135	29
785.304	22.5
786.472	25
787.639	29
788.807	27
789.975	26.5
791.142	26.5
792.309	28
793.477	30.5
794.642	26.5
795.81	28
796.975	26
798.142	28
799.308	31
800.473	26
801.639	25.5
802.804	30
803.97	31
805.134	26
806.299	29.5
807.463	29
808.628	26
809.792	27
810.957	25
812.12	24.5
813.284	30.5
814.447	30.5
815.611	32.5
816.773	27
817.937	22
819.099	27
820.261	24
821.424	23.5
822.585	25.5
823.748	26
824.909	31
826.07	25.5
827.232	28.5
828.393	27.5
829.554	21
830.715	29.5
831.875	29
833.035	25
834.196	25.5
835.356	25.5
836.515	28
837.676	29
838.835	27
839.994	25
841.152	20
842.312	25
843.47	26.5
844.629	24.5
845.786	27.5
846.946	29
848.103	27
849.261	28
850.418	26.5
851.575	31
852.733	27
853.89	27
855.046	23.5
856.203	29.5
857.359	28.5
858.515	28.5
859.67	24.5
860.827	30
861.983	23.5
863.138	32.5
864.293	29
865.448	25.5
866.603	27
867.757	26.5
868.912	26.5
870.066	27.5
871.22	25
872.374	26
873.527	28
874.681	27
875.834	26.5
876.987	28
878.14	29
879.293	29.5
880.445	25
881.598	27
882.75	29.5
883.902	26
885.054	28
886.206	24
887.357	27
888.507	26
889.658	25.5
890.809	25
891.96	29
893.111	25
894.261	28.5
895.411	26.5
896.561	27.5
897.71	27.5
898.86	21
900.009	25
901.159	26.5
902.308	24
903.455	23.5
904.604	25
905.753	27
906.901	26
908.048	23.5
909.197	26.5
910.344	27
911.492	27.5
912.639	26.5
913.786	28
914.933	28.5
916.079	25
917.226	24
918.373	28
919.518	25
920.664	28.5
921.81	27
922.955	27
924.101	27.5
925.245	28
926.391	26
927.536	23
928.68	24
929.825	24.5
930.968	25
932.113	26
933.256	23.5
934.4	24
935.543	21
936.687	21
937.83	27
938.973	27
940.115	26
941.258	29
942.399	25.5
943.542	25
944.684	29
945.826	24.5
946.967	28
948.109	27
949.25	24
950.392	31
951.532	24.5
952.672	25
953.813	27
954.953	26.5
956.093	27.5
957.233	25
958.373	26
959.512	27.5
960.652	29
961.791	25.5
962.929	25.5
964.069	27
965.207	29
966.345	26
967.484	25.5
968.622	26
969.759	28.5
970.896	26.25
972.035	24
973.172	22
974.309	26.5
975.445	26
976.582	28.5
977.719	28
978.855	23
979.991	25
981.127	28.5
982.263	30
983.398	26
984.535	28.5
985.67	26.5
986.804	24
987.939	24
989.074	27
990.208	28.5
991.342	27
992.476	28
993.61	30.5
994.744	27
995.877	26.5
997.01	25.5
998.143	26
999.276	21.5
1000.41	27.5
1001.54	23
1002.67	28.5
1003.81	23
1004.94	26.5
1006.07	27
1007.2	24
1008.33	23.5
1009.47	26
1010.6	25
1011.73	25.5
1012.86	28
1013.99	25.5
1015.12	22.5
1016.25	21.5
1017.38	23
1018.51	25
1019.64	27
1020.77	26
1021.9	25
1023.03	25.5
1024.15	26
1025.28	25
1026.41	28
1027.54	25
1028.67	22
1029.8	26.5
1030.92	24.5
1032.05	27.5
1033.18	23
1034.31	27
1035.43	23
1036.56	27
1037.69	21
1038.81	28
1039.94	23.5
1041.07	23.5
1042.19	25.5
1043.32	26.5
1044.44	27.5
1045.57	22
1046.69	24
1047.82	22
1048.94	22
1050.07	28
1051.19	25
1052.32	24.5
1053.44	24.5
1054.57	26
1055.69	24
1056.81	25
1057.94	28
1059.06	26.5
1060.18	28
1061.31	24
1062.43	27
1063.55	27
1064.67	27
1065.8	25.5
1066.92	24
1068.04	24.5
1069.16	25.5
1070.28	21
1071.4	23
1072.52	27
1073.64	24.5
1074.76	27
1075.89	26.5
1077.01	23.5
1078.13	24
1079.25	22.5
1080.37	25
1081.49	24.5
1082.6	24
1083.72	24
1084.84	24.5
1085.96	28
1087.08	27
1088.2	24.5
1089.32	23
1090.43	24.5
1091.55	25
1092.67	22.5
1093.79	25
1094.91	28.5
1096.02	25.5
1097.14	24.5
1098.26	24
1099.37	25.5
1100.49	23.5
1101.61	26
1102.72	27.5
1103.84	26.5
1104.95	23.5
1106.07	21.5
1107.18	26
1108.3	24
1109.41	23.5
1110.53	25.5
1111.64	24.5
1112.76	25
1113.87	23
1114.99	26.5
1116.1	29
1117.21	24
1118.33	21
1119.44	23
1120.55	24
1121.67	27
1122.78	26.5
1123.89	19
1125	27
1126.12	24
1127.23	22
1128.34	28.5
1129.45	26
1130.56	24
1131.68	20.5
1132.79	26
1133.9	24.5
1135.01	21
1136.12	24
1137.23	25
1138.34	25
1139.45	22
1140.56	23
1141.67	25
1142.78	26
1143.89	25.5
1145	26
1146.11	26
1147.22	23.5
1148.32	24.5
1149.43	23
1150.54	26
1151.65	25.5
1152.76	26
1153.86	22
1154.97	26
1156.08	26
1157.19	26
1158.29	27.5
1159.4	25
1160.51	24.5
1161.61	24.5
1162.72	26.5
1163.83	22
1164.93	25.5
1166.04	25.5
1167.14	27.5
1168.25	26.5
1169.35	26.5
1170.46	27
1171.56	26
1172.67	23
1173.77	27
1174.88	26
1175.98	22.5
1177.08	25
1178.19	23
1179.29	26
1180.4	28
1181.5	23.5
1182.6	26
1183.71	22.5
1184.81	21
1185.91	24
1187.01	24.5
1188.12	22.5
1189.22	24.5
1190.32	24
1191.42	25
1192.52	26
1193.62	23.5
1194.72	24.4983
1195.83	24.4704
1196.93	24.575
1198.03	23.5883
1199.13	22.1326
1200.23	22.8269
1201.33	25.8165
1202.43	22.083
1203.53	22.3885
1204.63	23.6716
1205.73	26.2794
1206.83	24.2089
1207.92	25.5833
1209.02	24.0755
1210.12	28.0176
1211.22	22.4087
1212.32	23.4365
1213.42	24.2736
1214.51	21.4563
1215.61	23.8571
1216.71	24.9883
1217.81	26.502
1218.9	25.0374
1220	25.6829
1221.1	22.6423
1222.19	27.1218
1223.29	24.3253
1224.39	23.4321
1225.48	24.896
1226.58	24.1028
1227.68	25.9392
1228.77	23.857
1229.87	24.9568
1230.96	24.8395
1232.06	21.32
1233.15	23.3756
1234.25	24.0256
1235.34	24.7984
1236.43	24.2535
1237.53	25.6866
1238.62	25.7902
1239.72	24.5829
1240.81	23.1641
1241.9	23.4695
1243	21.5748
1244.09	24.102
1245.18	21.6603
1246.27	25.5318
1247.37	23.2374
1248.46	22.7995
1249.55	22.7967
1250.64	24.6811
1251.74	24.2743
1252.83	25.7313
1253.92	26.8835
1255.01	25.9475
1256.1	24.4381
1257.19	26.9417
1258.28	22.2329
1259.38	20.9223
1260.46	24.4534
1261.56	25.0971
1262.65	27.9179
1263.74	28.8223
1264.82	26.7
1265.91	23.208
1267	23.8327
1268.09	23.3632
1269.18	24.7243
1270.27	25.0539
1271.36	24.1578
1272.45	21.8625
1273.54	25.3126
1274.63	21.4213
1275.71	21.4355
1276.8	23.2979
1277.89	25.0004
1278.98	24.4998
1280.06	23.3667
1281.15	23.1855
1282.24	26.4803
1283.32	23.8669
1284.41	21.6219
1285.5	23.4264
1286.58	21.8135
1287.67	24.0063
1288.76	21.0109
1289.84	23.5213
1290.93	23.3232
1292.01	24.7015
1293.1	20.9389
1294.18	22.874
1295.27	24.6245
1296.35	25.0152
1297.44	24.1805
1298.52	23.4842
1299.6	24.6256
1300.69	24.0935
1301.77	21.0063
1302.86	22.1912
1303.94	25.8276
1305.02	23.3565
1306.11	21.6548
1306.41	21.5
1307.5	24
1308.59	24
1309.68	22
1310.77	24
1311.85	25
1312.94	25.5
1314.03	19
1315.11	25.5
1316.2	27.5
1317.29	28
1318.37	21
1319.46	20
1320.55	28
1321.63	26.5
1322.72	24.5
1323.8	23
1324.89	24.5
1325.98	21.5
1327.06	23
1328.15	26
1329.23	27
1330.31	22.5
1331.4	26
1332.48	25
1333.57	24.5
1334.65	28
1335.74	28.5
1336.82	23
1337.9	26
1338.99	27
1340.07	25.5
1341.15	22
1342.24	27.5
1343.32	26
1344.4	21.5
1345.48	20
1346.56	23
1347.65	24.5
1348.73	29
1349.81	23
1350.89	25
1351.97	26.5
1353.05	19
1354.13	17.5
1355.21	27
1356.29	22
1357.37	20.5
1358.46	26
1359.54	28
1360.62	22.5
1361.69	23.5
1362.77	21
1363.85	23
1364.93	23
1366.01	25
1367.09	20
1368.17	20.5
1369.25	26
1370.33	23.5
1371.41	23
1372.48	24.5
1373.56	22.5
1374.64	24
1375.72	25
1376.79	24
1377.87	23
1378.95	25.5
1380.02	25
1381.1	26.5
1382.18	22.5
1383.25	19
1384.33	22
1385.4	21
1386.48	24
1387.56	25
1388.63	26
1389.71	21.5
1390.78	18.5
1391.86	25.5
1392.93	25
1394.01	26
1395.08	25.5
1396.15	24
1397.23	24
1398.3	25.5
1399.38	29
1400.45	27.5
1401.52	27
1402.6	26
1403.67	23
1404.74	29
1405.81	26
1406.89	27
1407.96	25.5
1409.03	25
1410.1	25.5
1411.17	25
1412.25	27.5
1413.32	30
1414.39	27.5
1415.46	26
1416.53	27
1417.6	29.5
1418.67	30
1419.74	28
1420.81	26
1421.88	28
1422.95	24
1424.02	25.5
1425.09	29
1426.16	29.5
1427.23	25.5
1428.3	29
1429.37	25.5
1430.44	23.5
1431.51	24
1432.58	24
1433.64	26.5
1434.71	27
1435.78	24.5
1436.85	26
1437.92	22
1438.98	24
1440.05	23
1441.12	25
1442.18	25
1443.25	24.5
1444.32	24
1445.38	25
1446.45	28.5
1447.52	25
1448.58	26.5
1449.65	26
1450.71	23
1451.78	27
1452.84	25.5
1453.91	26.5
1454.97	23
1456.04	28.5
1457.1	27
1458.17	21.5
1459.23	25.5
1460.3	27
1461.36	26.5
1462.42	24
1463.49	26
1464.55	27.5
1465.61	27
1466.68	28.5
1467.74	25.5
1468.8	27
1469.86	23
1470.93	26
1471.99	24.5
1473.05	25
1474.11	28
1475.17	24.5
1476.24	26
1477.3	26.5
1478.36	24.5
1479.42	24
1480.48	26
1481.54	23
1482.6	24.5
1483.66	28
1484.72	24
1485.78	25
1486.84	27.5
1487.9	25
1488.96	24.5
1490.02	25
1491.08	25
1492.14	22
1493.2	24.5
1494.26	25.5
1495.31	27
1496.37	26
1497.43	26.5
1498.49	27
1499.55	26
1500.6	23
1501.66	24
1502.72	29.5
1503.78	27.5
1504.83	24
1505.89	23
1506.95	25.5
1508	25.5
1509.06	24.5
1510.12	26.5
1511.17	22
1512.23	24.5
1513.28	26
1514.34	28
1515.39	24.5
1516.45	26
1517.5	25.5
1518.56	24
1519.61	26.5
1520.67	25
1521.72	25
1522.78	26.5
1523.83	24.5
1524.88	27.5
1525.94	25
1526.99	23
1528.05	25.5
1529.1	23
1530.15	28.5
1531.2	28
1532.26	30
1533.31	26.5
1534.36	25
1535.41	22.5
1536.47	27
1537.52	26
1538.57	25
1539.62	22
1540.67	26.5
1541.72	26
1542.77	21
1543.83	25.5
1544.88	23.5
1545.93	24.5
1546.98	27
1548.03	22
1549.08	25
1550.13	25
1551.18	23.5
1552.23	21.5
1553.28	28
1554.32	25.5
1555.37	25
1556.42	26
1557.47	22
1558.52	24
1559.57	23.5
1560.62	22
1561.67	27
1562.71	28
1563.76	26.5
1564.81	25.5
1565.86	25.5
1566.9	23.5
1567.95	26.5
1569	28
1570.04	27
1571.09	23
1572.14	25.5
1573.18	29
1574.23	27.5
1575.27	21.5
1576.32	26.5
1577.37	26
1578.41	26
1579.46	26
1580.5	25.5
1581.55	23.5
1582.59	22.5
1583.64	25
1584.68	25
1585.72	27
1586.77	27
1587.81	24
1588.86	24.5
1589.9	26
1590.94	26.5
1591.99	25.5
1593.03	27
1594.07	23
1595.12	24.5
1596.16	29
1597.2	25
1598.24	20.5
1599.29	27
1600.33	28
1601.37	23.5
1602.41	27
1603.45	25
1604.49	24
1605.53	25
1606.58	26
1607.62	26
1608.66	23
1609.7	21.5
1610.74	25
1611.78	27
1612.82	28
1613.86	27.5
1614.9	26
1615.94	28.5
1616.98	24
1618.02	24
1619.06	26.5
1620.09	23.5
1621.13	25
1622.17	23
1623.21	27
1624.25	21.5
1625.29	28
1626.32	25
1627.36	27.5
1628.4	26
1629.44	24.5
1630.47	24
1631.51	29
1632.55	29
1633.58	24
1634.62	27
1635.66	24.5
1636.69	28
1637.73	25
1638.77	24.5
1639.8	22
1640.84	22
1641.87	25
1642.91	27
1643.94	25
1644.98	27
1646.01	26
1647.05	30
1648.08	24
1649.12	24
1650.15	21.5
1651.18	28.5
1652.22	24
1653.25	25.5
1654.29	22
1655.32	25.5
1656.35	25
1657.39	27.5
1658.42	21
1659.45	25
1660.48	26.5
1661.52	27
1662.55	27
1663.58	27
1664.61	25
1665.64	25.5
1666.68	27.5
1667.71	28.5
1668.74	24
1669.77	26
1670.8	25
1671.83	26
1672.86	24
1673.89	26
1674.92	23.5
1675.95	31
1676.98	27
1678.01	26
1679.04	27
1680.07	24
1681.1	27
1682.13	25.5
1683.16	26
1684.19	27.5
1685.22	24
1686.25	21.5
1687.27	26
1688.3	26.5
1689.33	23.5
1690.36	25
1691.38	25
1692.41	24
1693.44	27
1694.47	22.5
1695.49	28
1696.52	23
1697.55	26
1698.57	25
1699.6	25.5
1700.63	24.5
1701.65	29
1702.68	26.5
1703.7	22
1704.73	26
1705.76	24.5
1706.78	26
1707.81	30
1708.83	23
1709.86	24
1710.88	23
1711.91	24
1712.93	25
1713.95	24.5
1714.98	26
1716	30
1717.03	28.5
1718.05	26.5
1719.07	26
1720.1	18
1721.12	21.5
1722.14	25
1723.16	24.5
1724.19	26
1725.21	25
1726.23	26
1727.25	26
1728.28	25.5
1729.3	26.5
1730.32	27
1731.34	24
1732.36	25
1733.38	27.5
1734.41	25.5
1735.43	25.5
1736.45	23
1737.47	22
1738.49	21.5
1739.51	25.5
1740.53	24.5
1741.55	25.5
1742.57	27.5
1743.59	27.5
1744.61	28.5
1745.63	23.5
1746.64	26.5
1747.66	24.5
1748.68	27
1749.7	25
1750.72	23.5
1751.74	23
1752.76	25.5
1753.77	24
1754.79	22.5
1755.81	23
1756.83	24.5
1757.84	25
1758.86	26.5
1759.88	23.5
1760.9	27
1761.91	25.5
1762.93	24.5
1763.95	24
1764.96	26
1765.98	22.5
1766.99	23.5
1768.01	28
1769.02	30
1770.04	25.5
1771.06	28.5
1772.07	21.5
1773.09	26.5
1774.1	27
1775.12	23
1776.13	22.5
1777.14	22
1778.16	25.5
1779.17	26
1780.19	24.5
1781.2	24.5
1782.21	23.5
1783.23	23
1784.24	25
1785.25	27.5
1786.27	25
1787.28	25
1788.29	26
1789.3	23.5
1790.32	22.5
1791.33	25
1792.34	22
1793.35	24
1794.36	23.5
1795.38	25
1796.39	24.5
1797.4	26
1798.41	27.5
1799.42	23.5
1800.43	25
1801.44	23
1802.45	24
1803.46	24.5
1804.47	26
1805.48	22.5
1806.49	24
1807.5	22
1808.51	26.5
1809.52	22.5
1810.53	27
1811.54	29
1812.55	26
1813.56	23.5
1814.57	21.5
1815.57	24
1816.58	22.5
1817.59	25
1818.6	23
1819.61	24.5
1820.61	27
1821.62	21
1822.63	24
1823.64	21.5
1824.64	26
1825.65	27.5
1826.66	22
1827.66	24
1828.67	24
1829.68	23
1830.68	22
1831.69	26
1832.69	25
1833.7	25.5
1834.7	19.5
1835.71	25
1836.71	29
1837.72	22.5
1838.72	23
1839.73	27
1840.73	24.5
1841.74	20.5
1842.74	27.5
1843.75	28
1844.75	23
1845.75	28.5
1846.76	27
1847.76	24
1848.76	21.5
1849.77	24.5
1850.77	26
1851.77	25
1852.78	26
1853.78	24
1854.78	28
1855.78	26
1856.78	28
1857.79	23
1858.79	24
1859.79	22
1860.79	21
1861.79	24.5
1862.79	25.5
1863.79	26.5
1864.79	28
1865.79	24.5
1866.8	23.5
1867.8	24.5
1868.8	28
1869.8	25
1870.8	29.5
1871.8	25.5
1872.8	26
1873.79	25
1874.79	22
1875.79	24
1876.79	23
1877.79	23.5
1878.79	22.5
1879.79	24.5
1880.79	23
1881.78	24
1882.78	24
1883.78	23
1884.78	22
1885.77	28
1886.77	27.5
1887.77	26
1888.77	25
1889.76	24
1890.76	26
1891.76	30
1892.75	22.5
1893.75	24
1894.75	25.5
1895.74	25.5
1896.74	22.5
1897.73	23.5
1898.73	22
1899.73	26
1900.72	24
1901.72	21
1902.71	26.5
1903.7	25
1904.7	24
1905.69	24
1906.69	27.5
1907.68	25
1908.68	26
1909.67	28
1910.66	22.5
1911.66	25
1912.65	27
1913.64	22
1914.64	22
1915.63	24
1916.62	27
1917.62	24
1918.61	27
1919.6	20
1920.59	22.5
1921.58	27.5
1922.58	26
1923.57	24
1924.56	27
1925.55	26
1926.54	26
1927.53	23.5
1928.52	23
1929.51	27
1930.51	21
1931.5	25
1932.49	27
1933.48	28
1934.47	27
1935.46	25
1936.45	22.5
1937.44	21
1938.42	23.5
1939.41	23
1940.4	22
1941.39	26.5
1942.38	27.5
1943.37	22
1944.36	20.5
1945.35	22
1946.33	24.5
1947.32	26
1948.31	24
1949.3	20
1950.29	25.5
1951.27	28
1952.26	17.5
1953.25	27
1954.23	22
1955.22	28
1956.21	21.5
1957.19	25.5
1958.18	28.5
1959.17	26.5
1960.15	24.5
1961.14	24
1962.13	20
1963.11	25.5
1964.1	23
1965.08	20.5
1966.07	23
1967.05	23
1968.04	23
1969.02	26
1970.01	24
1970.99	25.5
1971.97	26
1972.96	25.5
1973.94	23.5
1974.93	25
1975.91	25
1976.89	27
1977.88	22
1978.86	27.5
1979.84	23.5
1980.83	23.5
1981.81	25
1982.79	19.5
1983.77	21.5
1984.76	25
1985.74	24
1986.72	25
1987.7	27
1988.68	25
1989.67	24
1990.65	24
1991.63	27
1992.61	21
1993.59	24.5
1994.57	25.5
1995.55	24
1996.53	23.5
1997.51	23.5
1998.49	24
1999.47	20.5
2000.45	24
2001.43	26.5
2002.41	27.5
2003.39	21.5
2004.37	28
2005.35	21
2006.33	28
2007.31	24
2008.29	22
2009.26	21.5
2010.24	23.5
2011.22	24
2012.2	22
2013.18	28
2014.15	24
2015.13	23.5
2016.11	19
2017.09	22.5
2018.06	25
2019.04	25
2020.02	28
2021	22
2021.97	24
2022.95	25
2023.92	23.5
2024.9	22.5
2025.88	24.5
2026.85	26.5
2027.83	22.5
2028.8	23.5
2029.78	22.5
2030.75	26
2031.73	24.5
2032.7	23
2033.68	25.5
2034.65	21
2035.63	24
2036.6	21.5
2037.58	22.5
2038.55	21
2039.52	26.5
2040.5	20
2041.47	26
2042.45	28
2043.42	23.5
2044.39	18.5
2045.36	25.5
2046.34	21.5
2047.31	25
2048.28	27
2049.26	21.5
2050.23	25.5
2051.2	25.5
2052.17	21
2053.14	25.5
2054.12	26
2055.09	24
2056.06	24.5
2057.03	25
2058	24
2058.97	24
2059.94	23
2060.91	23.5
2061.88	27.5
2062.85	22
2063.82	24
2064.79	22.5
2065.76	22
2066.73	24
2067.7	25
2068.67	23
2069.64	25.5
2070.61	26.5
2071.58	23
2072.55	22
2073.52	26
2074.49	25.5
2075.45	22
2076.42	22
2077.39	24
2078.36	24.5
2079.33	24
2080.29	24
2081.26	25.5
2082.23	27
2083.2	24
2084.16	27.5
2085.13	20.5
2086.1	22
2087.06	23.5
2088.03	21.5
2089	27
2089.96	19.5
2090.93	25.5
2091.89	24
2092.86	23.5
2093.83	21.5
2094.79	21
2095.76	22.5
2096.72	24
2097.69	26.5
2098.65	24
2099.62	23.5
2100.58	24
2101.55	26
2102.51	19.5
2103.47	25
2104.44	24.5
2105.4	19
2106.36	23
2107.33	23
2108.29	22
2109.25	20
2110.22	22.5
2111.18	20.5
2112.14	21.5
2113.11	20.5
2114.07	21
2115.03	23
2115.99	27
2116.96	24.5
2117.92	21.5
2118.88	28
2119.84	26
2120.8	23
2121.76	22
2122.72	24
2123.68	27.5
2124.65	27
2125.61	25
2126.57	27
2127.53	25.5
2128.49	20
2129.45	24.5
2130.41	27
2131.37	23
2132.33	23.5
2133.29	21.5
2134.25	22
2135.21	26
2136.17	22
2137.12	19.5
2138.08	23
2139.04	24.5
2140	26.5
2140.96	25.5
2141.92	23
2142.88	20.0177
2143.83	23.0269
2144.79	22.0945
2145.75	21.0588
2146.71	22.0116
2147.66	23.4524
2148.62	20.0785
2149.58	17.7641
2150.53	22.5209
2151.49	24.6788
2152.45	22.6822
2153.4	22.1264
2154.36	25.1944
2155.32	20.8862
2156.27	22.0057
2157.23	23.4326
2158.19	22.8922
2159.14	22.5582
2160.1	21.7811
2161.05	23.5766
2162.01	20.6411
2162.96	21.6987
2163.92	26.0631
2164.87	23.0506
2165.83	19.621
2166.78	22.7083
2167.73	22.654
2168.69	25.0655
2169.64	24.0674
2170.6	27.7559
2171.55	21.9636
2172.5	22.6835
2173.46	21.9475
2174.41	19.812
2175.36	21.8734
2176.32	22.0945
2177.27	23.3344
2178.22	23.0181
2179.18	21.3436
2180.13	23.4718
2181.08	22.7303
2182.03	23.1942
2182.98	21.6602
2183.94	22.5653
2184.89	21.5011
2185.84	23.3835
2186.79	21.9578
2187.74	22.2968
2188.69	21.2852
2189.64	21.9906
2190.6	23.5388
2191.55	23.7352
2192.5	21.2297
2193.45	21.9546
2194.4	23.2508
2195.35	22.6472
2196.3	23.8374
2197.25	21.767
2198.2	21.7746
2199.15	24.8402
2200.1	22.2008
2201.04	22.1942
2201.99	24.4752
2202.94	20.9407
2203.89	23.2908
2204.84	21.4779
2205.79	22.4846
2206.74	22.0689
2207.69	20.4534
2208.63	22.1909
2209.58	22.4157
2210.53	21.4919
2211.48	22.9442
2212.43	19.2432
2213.37	21.5104
2214.32	21.5641
2215.27	24.2785
2216.21	22.9951
2217.16	25.8465
2218.11	23.4252
2219.05	24.3277
2220	24.692
2220.95	22.5147
2221.89	24.4797
2222.84	27.2913
2223.78	25.2809
2224.73	22.8981
2225.68	22.746
2226.62	20.1239
2227.57	21.3337
2228.51	25.6803
2229.46	24.985
2230.4	24.3471
2231.35	24.7756
2232.29	25.3762
2233.24	20.8973
2234.18	22.3633
2235.12	22.0915
2236.07	24.7354
2237.01	23.6823
2237.95	21.4873
2238.9	22.1662
2239.84	23.2629
2240.06	23.5
2241.01	20.5
2241.96	24.5
2242.91	25
2243.86	24.5
2244.8	21.5
2245.75	23
2246.7	23
2247.65	21
2248.59	23.5
2249.54	21
2250.49	25
2251.43	23
2252.38	22.5
2253.33	24
2254.27	22
2255.22	23
2256.16	25.5
2257.11	24
2258.06	25.5
2259	23.5
2259.95	22
2260.89	23
2261.84	23
2262.78	23
2263.73	24.5
2264.67	23
2265.62	23.5
2266.56	23
2267.5	25.5
2268.45	27.5
2269.39	23.5
2270.34	21
2271.28	25
2272.22	26
2273.17	24.5
2274.11	24.5
2275.05	25
2276	21
2276.94	25.5
2277.88	24.5
2278.82	24
2279.77	22
2280.71	21.5
2281.65	23
2282.59	22
2283.53	17.5
2284.48	25
2285.42	22
2286.36	21
2287.3	22.5
2288.24	20
2289.18	22
2290.12	20
2291.06	23.5
2292	19
2292.94	22.5
2293.89	22
2294.83	24
2295.77	25.5
2296.71	23
2297.65	23
2298.58	22
2299.52	22.5
2300.46	25.5
2301.4	23.5
2302.34	22.5
2303.28	22
2304.22	19
2305.16	19.5
2306.1	24.5
2307.03	26.5
2307.97	22
2308.91	23
2309.85	23
2310.79	22.5
2311.72	20
2312.66	20
2313.6	22.5
2314.54	25.5
2315.47	22.5
2316.41	23
2317.35	24
2318.28	24
2319.22	22
2320.16	22.5
2321.09	22
2322.03	23
2322.96	21
2323.9	24.5
2324.84	22
2325.77	20
2326.71	25
2327.64	23
2328.58	25.5
2329.51	19.5
2330.45	23
2331.38	22.5
2332.32	25
2333.25	27.5
2334.18	24.5
2335.12	23
2336.05	22
2336.99	23.5
2337.92	27.5
2338.85	23
2339.79	21.5
2340.72	26
2341.65	26.5
2342.59	22
2343.52	22.5
2344.45	23.5
2345.39	21
2346.32	25.5
2347.25	27.5
2348.18	23
2349.11	20
2350.05	27.5
2350.98	21
2351.91	24.5
2352.84	23.5
2353.77	21.5
2354.7	23.5
2355.64	20.5
2356.57	21.5
2357.5	23.5
2358.43	18
2359.36	24.5
2360.29	23
2361.22	21
2362.15	21
2363.08	24
2364.01	29.5
2364.94	22.5
2365.87	19
2366.8	24
2367.73	23.5
2368.66	21
2369.58	21
2370.51	26
2371.44	25
2372.37	21
2373.3	21.5
2374.23	21
2375.16	24
2376.08	23.5
2377.01	24
2377.94	23
2378.87	23.5
2379.8	27
2380.72	23.5
2381.65	25.5
2382.58	25
2383.5	23.5
2384.43	22.5
2385.36	22
2386.28	23.5
2387.21	24.5
2388.14	24
2389.06	26.5
2389.99	21
2390.91	19
2391.84	28
2392.77	24.5
2393.69	26.5
2394.62	24
2395.54	26.5
2396.47	24
2397.39	27.5
2398.32	24
2399.24	28
2400.16	23
2401.09	20
2402.01	22
2402.94	24
2403.86	21
2404.78	22
2405.71	27.5
2406.63	23.5
2407.56	26.5
2408.48	25
2409.4	23
2410.32	24
2411.25	21
2412.17	26.5
2413.09	22
2414.02	23.5
2414.94	26
2415.86	26
2416.78	24
2417.7	24
2418.63	22.5
2419.55	21.5
2420.47	23
2421.39	23
2422.31	24
2423.23	25
2424.15	20
2425.07	23
2425.99	24.5
2426.92	23.5
2427.84	24
2428.76	20.5
2429.68	25.5
2430.59	23.5
2431.51	23.5
2432.43	21
2433.35	26
2434.27	25.5
2435.19	25
2436.11	24
2437.03	23.5
2437.95	27
2438.87	21.5
2439.79	26
2440.71	24.5
2441.62	24.5
2442.54	24.5
2443.46	24.5
2444.38	25
2445.3	24
2446.21	23
2447.13	26.5
2448.05	26
2448.97	24.5
2449.88	24
2450.8	25.5
2451.72	23
2452.63	25
2453.55	20.5
2454.47	22.5
2455.38	24.5
2456.3	22.5
2457.21	26
2458.13	19
2459.05	23
2459.96	22.5
2460.88	25
2461.79	23
2462.71	27.5
2463.62	24.5
2464.54	22
2465.45	26.5
2466.37	24.5
2467.28	22
2468.2	26.5
2469.11	23
2470.02	23.5
2470.94	23.5
2471.85	23.5
2472.77	21.5
2473.68	24
2474.59	19
2475.51	23.5
2476.42	23
2477.33	24
2478.25	24
2479.16	26
2480.07	21.5
2480.98	23
2481.9	19
2482.81	19.5
2483.72	25.5
2484.63	26
2485.55	19
2486.46	26
2487.37	22.5
2488.28	24.5
2489.19	25.5
2490.1	21.5
2491.01	23.5
2491.92	27.5
2492.83	24.5
2493.74	22
2494.66	26.5
2495.57	22.5
2496.48	27
2497.39	22
2498.3	24.5
2499.21	21
2500.12	26
2501.03	25.5
2501.93	23
2502.84	22.5
2503.75	22.5
2504.66	25
2505.57	25
2506.48	27.5
2507.39	24
2508.3	28
2509.21	21.5
2510.11	20
2511.02	20
2511.93	20.5
2512.84	26.5
2513.75	19
2514.65	23
2515.56	24
2516.47	25
2517.37	28.5
2518.28	21.5
2519.19	25.5
2520.09	23.5
2521	22
2521.91	18.5
2522.81	30
2523.72	18
2524.63	27.5
2525.53	23
2526.44	27.5
2527.34	25.5
2528.25	26
2529.16	24.5
2530.06	27.5
2530.97	27
2531.87	24.5
2532.78	27.5
2533.68	27.5
2534.58	24
2535.49	25
2536.39	23.5
2537.3	26.5
2538.2	23
2539.11	25.5
2540.01	20
2540.91	24.5
2541.82	24.5
2542.72	24.5
2543.62	29.5
2544.53	25
2545.43	23
2546.33	25
2547.23	23
2548.14	21
2549.04	24.5
2549.94	24.5
2550.84	28
2551.75	28
2552.65	26
2553.55	23
2554.45	23
2555.35	21
2556.26	25
2557.16	20
2558.06	20.5
2558.96	24
2559.86	26
2560.76	24.5
2561.66	27
2562.56	23.5
2563.46	22.5
2564.36	26
2565.26	26.5
2566.16	23.5
2567.06	24
2567.96	22
2568.86	24
2569.76	26
2570.66	26.5
2571.56	24.5
2572.46	25.5
2573.36	26
2574.26	22.5
2575.16	23.5
2576.05	26
2576.95	23
2577.85	23
2578.75	22.5
2579.65	26.5
2580.54	28.5
2581.44	23
2582.34	22.5
2583.24	28
2584.13	20
2585.03	26.5
2585.93	27
2586.83	23
2587.72	25.5
2588.62	25
2589.52	24
2590.41	24
2591.31	22
2592.2	21
2593.1	24.5
2594	24
2594.89	25.5
2595.79	23
2596.68	25
2597.58	26.5
2598.47	26.5
2599.37	29
2600.26	26
2601.16	23
2602.05	27
2602.95	22.5
2603.84	24
2604.74	25
2605.63	26.5
2606.52	24
2607.42	26
2608.31	24
2609.21	25.5
2610.1	25.5
2610.99	22
2611.89	22
2612.78	25.5
2613.67	23.5
2614.56	25
2615.46	29
2616.35	25.5
2617.24	22.5
2618.13	24
2619.03	24
2619.92	25.5
2620.81	24.5
2621.7	20
2622.59	23
2623.49	24
2624.38	23
2625.27	26.5
2626.16	25.5
2627.05	24.5
2627.94	20
2628.83	23
2629.72	23
2630.61	25
2631.5	24
2632.39	20
2633.28	24.5
2634.17	21
2635.06	21
2635.95	24
2636.84	24
2637.73	23.5
2638.62	23.5
2639.51	26
2640.4	20.5
2641.29	24
2642.18	25.5
2643.07	21
2643.96	22
2644.84	24
2645.73	26
2646.62	21.5
2647.51	24
2648.4	23.5
2649.28	19
2650.17	26.5
2651.06	24.5
2651.95	26
2652.83	22.5
2653.72	22.5
2654.61	25.5
2655.49	25
2656.38	23
2657.27	24
2658.16	26
2659.04	27
2659.93	27
2660.81	28.5
2661.7	27.5
2662.59	23.5
2663.47	23.5
2664.36	24.5
2665.24	22.5
2666.13	27
2667.01	24
2667.9	24
2668.78	24.5
2669.67	25.5
2670.55	25.5
2671.44	24
2672.32	25.5
2673.21	24.5
2674.09	27
2674.97	24
2675.86	24
2676.74	24.5
2677.62	25
2678.51	24.5
2679.39	25.5
2680.27	26
2681.16	25.5
2682.04	21.5
2682.92	26.5
2683.81	25
2684.69	21
2685.57	24.5
2686.45	26
2687.34	22
2688.22	25
2689.1	21
2689.98	21.5
2690.86	26.5
2691.75	25
2692.63	24
2693.51	20
2694.39	24
2695.27	22
2696.15	22.5
2697.03	25
2697.91	27
2698.79	22.5
2699.67	25.5
2700.55	23
2701.43	24.5
2702.31	23
2703.19	22.5
2704.07	24.5
2704.95	26.5
2705.83	21.5
2706.71	21.5
2707.59	22.5
2708.47	22.5
2709.35	22.5
2710.23	24
2711.11	25.5
2711.99	21
2712.86	22
2713.74	22.5
2714.62	27.5
2715.5	25.5
2716.38	21.5
2717.26	26.5
2718.13	21.5
2719.01	27.5
2719.89	26.5
2720.77	26
2721.64	29
2722.52	25
2723.4	24.5
2724.27	24
2725.15	22.5
2726.03	18.5
2726.9	25.5
2727.78	27
2728.66	26
2729.53	25
2730.41	25
2731.28	22.5
2732.16	28.5
2733.03	27
2733.91	23
2734.79	25.5
2735.66	22.5
2736.54	23.5
2737.41	26
2738.29	26.5
2739.16	26
2740.03	27
2740.91	21.5
2741.78	25
2742.66	23
2743.53	22.5
2744.41	25
2745.28	26
2746.15	23
2747.03	24.5
2747.9	23
2748.77	23
2749.65	24.5
2750.52	21
2751.39	26.5
2752.27	22.5
2753.14	22
2754.01	24
2754.88	28.5
2755.75	24.5
2756.63	22
2757.5	24.5
2758.37	26
2759.24	24.5
2760.11	24
2760.99	25.5
2761.86	24
2762.73	26.5
2763.6	24
2764.47	23
2765.34	27
2766.21	24.5
2767.08	26.5
2767.95	26
2768.82	21
2769.69	25
2770.56	19
2771.43	25.5
2772.3	22.5
2773.17	24
2774.04	22.5
2774.91	26.5
2775.78	24
2776.65	24
2777.52	28
2778.39	21
2779.26	23
2780.13	23
2780.99	20
2781.86	23
2782.73	24.5
2783.6	24
2784.47	24
2785.34	22
2786.2	25.5
2787.07	23.5
2787.94	23.5
2788.81	28
2789.67	22.5
2790.54	27.5
2791.41	25
2792.27	27
2793.14	26.5
2794.01	29
2794.87	26.5
2795.74	24
2796.61	24
2797.47	24.5
2798.34	24
2799.21	22
2800.07	25.5
2800.94	25.75
2801.8	24.5
2802.67	20.5
2803.53	23.5
2804.4	28
2805.26	23.5
2806.13	26.5
2806.99	27.5
2807.86	24
2808.72	22.5
2809.59	28.5
2810.45	24.5
2811.32	26.5
2812.18	18
2813.04	21
2813.91	24
2814.77	23
2815.64	26.5
2816.5	24.5
2817.36	27.5
2818.22	23
2819.09	26.5
2819.95	26.5
2820.81	25.5
2821.68	23.5
2822.54	24
2823.4	23
2824.26	21
2825.13	24.5
2825.99	26.5
2826.85	26
2827.71	25.5
2828.57	26
2829.44	29
2830.3	24
2831.16	23
2832.02	19
2832.88	27.5
2833.74	26
2834.6	22.5
2835.46	24.5
2836.32	22.5
2837.18	22
2838.04	23.5
2838.9	24
2839.76	25
2840.62	25
2841.48	23.5
2842.34	28.5
2843.2	24.5
2844.06	20
2844.92	29
2845.78	28
2846.64	24
2847.5	22
2848.36	29
2849.22	26
2850.08	25.5
2850.93	24
2851.79	24
2852.65	24
2853.51	25
2854.37	23
2855.22	23.5
2856.08	21.5
2856.94	24
2857.8	23
2858.65	24
2859.51	24
2860.37	29
2861.23	28
2862.08	21.5
2862.94	25
2863.79	24.5
2864.65	27
2865.51	29
2866.36	28.5
2867.22	25.5
2868.08	26.5
2868.93	23
2869.79	24
2870.64	26
2871.5	24.5
2872.35	29
2873.21	26
2874.06	27
2874.92	25.5
2875.77	22.5
2876.63	25
2877.48	27.5
2878.34	25
2879.19	24
2880.05	24
2880.9	26
2881.76	25.5
2882.61	29.5
2883.46	27.5
2884.32	25.5
2885.17	30.5
2886.02	25.5
2886.88	30
2887.73	32
2888.58	26.5
2889.44	31
2890.29	29.5
2891.14	27.5
2891.99	33.5
2892.85	30
2893.7	31
2894.55	31.5
2895.4	29.5
2896.25	34
2897.11	31
2897.96	36.5
2898.81	38
2899.66	38
2900.51	35
2901.36	39
2902.21	42
2903.07	39.5
2903.92	43
2904.77	40
2905.62	42.5
2906.47	46.5
2907.32	40.5
2908.17	43.5
2909.02	41
2909.87	38.5
2910.72	36.5
2911.57	37.5
2912.42	38
2913.27	33
2914.12	33
2914.97	34.5
2915.81	36
2916.66	30
2917.51	30.5
2918.36	28
2919.21	29.5
2920.06	28
2920.91	27
2921.75	28
2922.6	26
2923.45	27.5
2924.3	28
2925.15	29
2925.99	23
2926.84	26
2927.69	25
2928.54	28.5
2929.38	23.5
2930.23	24.5
2931.08	23.5
2931.92	23
2932.77	19.5
2933.62	30
2934.46	23
2935.31	24
2936.16	24
2937	20
2937.85	26
2938.69	24.5
2939.54	26
2940.38	25.5
2941.23	25
2942.08	24
2942.92	23
2943.77	27.5
2944.61	29
2945.46	27
2946.3	24
2947.15	27.5
2947.99	28.5
2948.83	28.5
2949.68	24
2950.52	26.5
2951.37	31.5
2952.21	25.5
2953.05	25
2953.9	29
2954.74	29
2955.58	32
2956.43	28
2957.27	30
2958.11	30
2958.96	31
2959.8	32
2960.64	32
2961.48	32.5
2962.33	27
2963.17	31
2964.01	31.5
2964.85	36
2965.69	32
2966.54	31.5
2967.38	29
2968.22	32
2969.06	32.5
2969.9	28.5
2970.74	28.5
2971.58	33.9733
2972.43	26.9814
2973.27	24.6026
2974.11	27.9406
2974.95	27.1351
2975.79	29.2876
2976.63	28.5344
2977.47	26.4255
2978.31	28.3947
2979.15	28.367
2979.99	27.3147
2980.83	25.5488
2981.67	24.2427
2982.51	25.4525
2983.35	23.4094
2984.19	24.1349
2985.03	24.7231
2985.86	24.5444
2986.7	24.0295
2987.54	22.1974
2988.38	25.4326
2989.22	24.1124
2990.06	22.3286
2990.9	23.2123
2991.73	22.8066
2992.57	22.2167
2993.41	26.8459
2994.25	22.3724
2995.09	22.0534
2995.92	25.15
2996.76	24.3769
2997.6	23.6425
2998.44	24.8874
2999.27	23.5874
3000.11	20.8766
3000.95	23.4422
3001.78	22.1508
3002.62	20.766
3003.46	23.6878
3004.29	24.4213
3005.13	26.2447
3005.96	24.9241
3006.8	21.8841
3007.64	22.3734
3008.47	23.1464
3009.31	21.8483
3010.14	21.964
3010.98	20.1464
3011.81	22.7024
3012.65	22.04
3013.48	22.7535
3014.32	21.9792
3015.15	22.9315
3015.99	21.4032
3016.82	20.9284
3017.66	23
3018.49	23.2438
3019.33	23.9869
3020.16	23.9216
3020.99	23.0838
3021.83	22.3916
3022.66	21.9221
3023.5	23.7388
3024.33	20.466
3025.16	24.6105
3026	23.496
3026.83	21.6786
3027.66	20.662
3028.49	23.2943
3029.33	22.2873
3030.16	23.2685
3030.99	22.1521
3031.83	21.7917
3032.66	22.068
3033.49	21.867
3034.32	23.1348
3035.15	24.329
3035.99	23.7145
3036.82	24.5805
3037.65	21.7126
3038.48	22.2485
3039.31	20.994
3040.14	21.28
3040.97	24.379
3041.81	25.522
3042.64	22.6812
3043.47	21.8285
3044.3	21.6616
3045.13	21.8631
3045.96	24.134
3046.79	25.0598
3047.62	24.2148
3048.45	23.0012
3049.28	22.7887
3050.11	22.5769
3050.94	21.6229
3051.77	23.4294
3052.6	22.7089
3053.43	21.4972
3054.26	22.6333
3055.08	19.9855
3055.91	20.9835
3056.74	21.5356
3057.26	24
3058.09	22.5
3058.92	25.5
3059.76	25.5
3060.59	19
3061.42	20
3062.25	24
3063.09	23
3063.92	21
3064.75	20
3065.58	20
3066.42	19
3067.25	21.5
3068.08	22
3068.91	24.5
3069.74	25
3070.57	24
3071.41	24
3072.24	23.5
3073.07	24
3073.9	21.5
3074.73	20.5
3075.56	23
3076.39	25
3077.22	24.5
3078.05	23
3078.88	22.5
3079.71	23.5
3080.54	22
3081.37	22
3082.2	22.5
3083.03	25
3083.86	23
3084.69	27
3085.52	24
3086.35	23
3087.18	22
3088.01	22
3088.84	25
3089.67	23.5
3090.5	21.5
3091.32	20
3092.15	24.5
3092.98	23
3093.81	21.5
3094.64	24
3095.47	17.5
3096.29	22
3097.12	19.5
3097.95	20
3098.78	18
3099.6	24.5
3100.43	24.5
3101.26	22.5
3102.09	25.5
3102.91	25
3103.74	23
3104.57	19
3105.39	21
3106.22	21.5
3107.05	18.5
3107.87	23
3108.7	23.5
3109.52	24.5
3110.35	21
3111.18	21
3112	20.5
3112.83	22
3113.65	22.5
3114.48	23.5
3115.3	22.5
3116.13	25.5
3116.95	23.5
3117.78	25
3118.6	21.5
3119.43	22.5
3120.25	23
3121.08	22.5
3121.9	24.5
3122.72	23
3123.55	24
3124.37	19
3125.2	22
3126.02	24
3126.84	21.5
3127.67	25
3128.49	25
3129.31	26.5
3130.14	26
3130.96	24.5
3131.78	22
3132.61	23.5
3133.43	21.5
3134.25	25
3135.07	24.5
3135.89	19.5
3136.72	22.5
3137.54	19
3138.36	24.5
3139.18	24
3140	23
3140.83	20
3141.65	23.5
3142.47	18
3143.29	25.5
3144.11	23.5
3144.93	25
3145.75	24.5
3146.57	19
3147.4	26
3148.22	30.5
3149.04	22
3149.86	21.5
3150.68	23.5
3151.5	26
3152.32	21.5
3153.14	25.5
3153.96	24
3154.78	23.5
3155.59	20
3156.42	22
3157.23	23
3158.05	23.5
3158.87	24.5
3159.69	23.5
3160.51	23
3161.33	24.5
3162.15	24
3162.97	24
3163.78	23
3164.6	28.5
3165.42	25.5
3166.24	24
3167.06	24.5
3167.87	21
3168.69	21
3169.51	24
3170.33	24.5
3171.14	25.5
3171.96	24.5
3172.78	24.5
3173.6	24
3174.41	20.5
3175.23	28
3176.05	20.5
3176.86	28.5
3177.68	27.5
3178.5	26.5
3179.31	24
3180.13	25
3180.94	24
3181.76	24.5
3182.58	24.5
3183.39	26
3184.21	23
3185.02	23.5
3185.84	25.5
3186.65	25.5
3187.47	22
3188.28	24
3189.1	23.5
3189.91	26.5
3190.73	24.5
3191.54	22.5
3192.36	21.5
3193.17	26
3193.98	26
3194.8	23.5
3195.61	19
3196.43	25.5
3197.24	26
3198.05	21.5
3198.87	20.5
3199.68	26.5
3200.49	21
3201.31	25.5
3202.12	24
3202.93	25
3203.75	23.5
3204.56	23.5
3205.37	20.5
3206.18	26
3207	24
3207.81	20.5
3208.62	24
3209.43	25.5
3210.24	19
3211.06	24.5
3211.87	24
3212.68	20
3213.49	25
3214.3	24
3215.11	24
3215.92	26
3216.73	22.5
3217.55	22
3218.36	26
3219.17	24.5
3219.98	23
3220.79	22
3221.6	24
3222.41	25.5
3223.22	23.5
3224.03	24.5
3224.84	25.5
3225.65	25
3226.46	24.5
3227.27	24.5
3228.08	22.5
3228.89	23
3229.7	26
3230.5	27.5
3231.31	23
3232.12	22
3232.93	24
3233.74	26.5
3234.55	24
3235.36	20
3236.16	22.5
3236.97	19.5
3237.78	25
3238.59	26
3239.4	23.5
3240.2	25.5
3241.01	23
3241.82	25.5
3242.63	23.5
3243.43	24
3244.24	23
3245.05	27
3245.85	21.5
3246.66	25
3247.47	25
3248.27	26
3249.08	24
3249.89	22.5
3250.69	24.5
3251.5	25.5
3252.31	22
3253.11	27
3253.92	25.5
3254.72	23.5
3255.53	21
3256.33	24
3257.14	22.5
3257.94	26
3258.75	21
3259.55	25
3260.36	21.5
3261.16	23.5
3261.97	22
3262.77	26
3263.58	24
3264.38	24
3265.19	26
3265.99	23
3266.79	24
3267.6	26.5
3268.4	27.5
3269.21	23.5
3270.01	23.5
3270.81	24
3271.62	25.5
3272.42	25
3273.22	22
3274.03	23.5
3274.83	24.5
3275.63	23
3276.43	23.5
3277.24	27.5
3278.04	26
3278.84	19
3279.64	22.5
3280.45	24.5
3281.25	27
3282.05	23.5
3282.85	24
3283.65	20
3284.45	20.5
3285.26	23
3286.06	21
3286.86	24.5
3287.66	25
3288.46	24
3289.26	25.5
3290.06	23
3290.86	23
3291.66	24.5
3292.46	24.5
3293.26	28
3294.06	25.5
3294.86	24
3295.66	23.5
3296.46	27
3297.26	24
3298.06	22
3298.86	23.5
3299.66	25
3300.46	23
3301.26	23.5
3302.06	26
3302.86	25
3303.66	23
3304.46	25
3305.25	22
3306.05	23.5
3306.85	25.5
3307.65	23
3308.45	22
3309.25	20
3310.04	21
3310.84	19
3311.64	28
3312.44	22
3313.23	22
3314.03	29
3314.83	24
3315.63	24
3316.42	24
3317.22	23.5
3318.02	22.5
3318.81	24
3319.61	26
3320.41	25.5
3321.2	22
3322	25.5
3322.8	24.5
3323.59	22
3324.39	24.5
3325.18	18.5
3325.98	25
3326.78	24
3327.57	19
3328.37	25
3329.16	25
3329.96	25.5
3330.75	24
3331.55	27.5
3332.34	23
3333.14	25
3333.93	21
3334.73	23
3335.52	20
3336.31	24.5
3337.11	28
3337.9	27
3338.7	23
3339.49	25.5
3340.28	20.5
3341.08	25.5
3341.87	22
3342.66	23.5
3343.46	25.5
3344.25	22
3345.04	24.5
3345.84	24.5
3346.63	24.5
3347.42	24
3348.22	26
3349.01	22
3349.8	26.5
3350.59	22
3351.39	22.5
3352.18	22
3352.97	22.5
3353.76	26.5
3354.55	26.5
3355.35	27
3356.14	24.5
3356.93	24
3357.72	24
3358.51	22.5
3359.3	23.5
3360.09	24.5
3360.88	23
3361.67	22.5
3362.46	23.5
3363.26	25
3364.05	24.5
3364.84	19.5
3365.63	24.5
3366.42	24.5
3367.21	20.5
3368	25
3368.79	27
3369.58	21
3370.37	23
3371.15	21
3371.94	24.5
3372.73	23.5
3373.52	24
3374.31	24.5
3375.1	26.5
3375.89	28.5
3376.68	24.5
3377.47	20
3378.26	22.5
3379.04	24.5
3379.83	26
3380.62	22.5
3381.41	23
3382.2	27
3382.98	23.5
3383.77	25
3384.56	27
3385.35	24
3386.13	24
3386.92	28
3387.71	21
3388.5	23
3389.28	25.5
3390.07	24.5
3390.86	22
3391.64	27
3392.43	23
3393.22	26
3394	25.5
3394.79	27.5
3395.57	25
3396.36	23
3397.15	25
3397.93	24.5
3398.72	23
3399.5	25.5
3400.29	24
3401.07	21
3401.86	24.5
3402.65	26
3403.43	25.5
3404.21	26
3405	25
3405.78	21.5
3406.57	24
3407.35	27
3408.14	24
3408.92	27
3409.71	26
3410.49	24
3411.27	22
3412.06	26.5
3412.84	22.5
3413.62	22
3414.41	24
3415.19	25
3415.97	28.5
3416.76	28.5
3417.54	22.5
3418.32	21.5
3419.11	25
3419.89	20.5
3420.67	25
3421.46	26
3422.24	21
3423.02	22
3423.8	21
3424.58	29
3425.37	26.5
3426.15	24
3426.93	24.5
3427.71	26
3428.49	23.5
3429.27	25
3430.05	25.5
3430.84	26
3431.62	24
3432.4	25.5
3433.18	25
3433.96	23.5
3434.74	25
3435.52	24.5
3436.3	23
3437.08	21
3437.86	27
3438.64	25
3439.42	24
3440.2	24
3440.98	24.5
3441.76	26
3442.54	19.5
3443.32	27
3444.1	26.5
3444.88	28
3445.66	26.5
3446.44	26
3447.22	25.5
3448	25
3448.77	20.5
3449.55	28.5
3450.33	25.5
3451.11	25.5
3451.89	22.5
3452.67	26
3453.45	20
3454.22	23.5
3455	22
3455.78	26
3456.56	27
3457.33	26
3458.11	21
3458.89	26
3459.67	25.5
3460.44	23.5
3461.22	21.5
3462	27
3462.77	21
3463.55	26.5
3464.33	26.5
3465.1	23
3465.88	25.5
3466.66	23.5
3467.43	21
3468.21	24
3468.98	22.5
3469.76	22.5
3470.54	22.5
3471.31	26
3472.09	21
3472.86	28.5
3473.64	22
3474.41	23
3475.19	26
3475.96	21
3476.74	24.5
3477.51	26
3478.29	27
3479.06	25.5
3479.84	26
3480.61	26.5
3481.39	24
3482.16	25
3482.93	23
3483.71	27.5
3484.48	20
3485.25	30.5
3486.03	25
3486.8	26
3487.57	25
3488.35	25
3489.12	25.5
3489.89	24
3490.67	23
3491.44	21.5
3492.21	21
3492.99	23.5
3493.76	26
3494.53	21
3495.3	27
3496.08	20.5
3496.85	23.5
3497.62	25.5
3498.39	23.5
3499.16	22
3499.93	23
