#Acq. time (s)=	5
#Accumulations=	5
#Range (cm-¹)=	100...3500
#Windows=	4
#Autofocus=	Off
#AutoExposure=	Off
#Spike filter=	Multiple accum.
#Delay time (s)=	0
#Binning=	1
#Readout mode=	Signal
#DeNoise=	Off
#ICS correction=	Off
#Dark correction=	Off
#Inst. Process=	Off
#Instrument=	LabRAM HR Evol
#Detector=	Syncerity OE
#Objective=	x100_VIS
#Grating=	600 (500nm)
#ND Filter=	25%
#Laser=	633nm_Edge
#Hole=	100.021
#Range=	Visible
#Project=	verificaciones
#Sample=	at2
#Site=	plain
#Title=	bolusat2plain
#Remark=	
#Date=	13.01.2026 15:22
#Acquired=	13.01.2026 15:22:19
100.692	23.5
101.975	31
103.258	31.5
104.542	27
105.824	29
107.107	29
108.39	24.5
109.672	27.5
110.954	25.5
112.236	26
113.519	25
114.8	27
116.081	28
117.362	27.5
118.643	26.5
119.924	25.5
121.204	24
122.484	24
123.764	28
125.044	29.5
126.323	25.5
127.603	28.5
128.882	30
130.161	26
131.438	25.5
132.716	27.5
133.995	30
135.273	27.5
136.55	30
137.828	26.5
139.106	27
140.383	31
141.66	26
142.937	31.5
144.213	27
145.488	27.5
146.764	27
148.04	27.5
149.316	30.5
150.592	28
151.867	26
153.141	30
154.416	28
155.69	27.5
156.965	28.5
158.239	25.5
159.512	31
160.786	25
162.059	30.5
163.333	25.5
164.605	31.5
165.878	29
167.15	33.5
168.423	34.5
169.694	27
170.966	29
172.238	32
173.51	31
174.78	28.5
176.052	29
177.323	33
178.592	28.5
179.863	28
181.134	34
182.403	31.5
183.673	30
184.943	29
186.211	30
187.481	29.5
188.749	32
190.018	31.5
191.287	32
192.554	30.5
193.822	30
195.089	28
196.357	32
197.625	28.5
198.891	28
200.159	30
201.425	30.5
202.692	28.5
203.957	30
205.224	27
206.489	30
207.755	30
209.02	30
210.286	30.5
211.55	35
212.815	27
214.079	27.5
215.344	24.5
216.607	28.5
217.872	26
219.135	34
220.399	28.5
221.662	30.5
222.924	31
224.187	31
225.449	29
226.713	30
227.974	28
229.235	28.5
230.498	28
231.759	28
233.019	22
234.281	27.5
235.542	29.5
236.802	29.5
238.063	25.5
239.323	25
240.582	25.5
241.843	30
243.102	23.5
244.361	28
245.621	24
246.879	27
248.138	25
249.396	27
250.655	28
251.913	28
253.17	27.5
254.427	26
255.686	24.5
256.943	27.5
258.199	27
259.456	27
260.712	26.5
261.969	26.5
263.225	32
264.481	25
265.736	25.5
266.991	30.5
268.246	26.5
269.502	23.5
270.757	29.5
272.011	26
273.265	34
274.519	29.5
275.773	26
277.027	25.5
278.28	29.5
279.533	23
280.786	27
282.04	24
283.293	28
284.545	28
285.798	26.5
287.049	29
288.301	28
289.553	25
290.804	30
292.055	28.5
293.306	29.5
294.557	25
295.807	24.5
297.058	25
298.308	28
299.558	26
300.808	26
302.057	28.5
303.305	25.5
304.554	27.5
305.803	24
307.052	28
308.3	25
309.549	23
310.797	24
312.045	23
313.292	23.5
314.54	23
315.786	27.5
317.033	27.5
318.28	24.5
319.526	27
320.773	23
322.019	28.5
323.264	27
324.51	26.5
325.755	27
327.001	26
328.246	25
329.49	25
330.735	26.5
331.979	24.5
333.224	26
334.467	28.5
335.711	28
336.955	24.5
338.199	25
339.441	24.5
340.684	26
341.927	26
343.168	28.5
344.411	29
345.654	27
346.895	28.5
348.137	25.5
349.379	25.5
350.619	24.5
351.86	25.5
353.102	26
354.341	28
355.582	27.5
356.821	22
358.062	23.5
359.302	24.5
360.541	27.5
361.781	27.5
363.019	23.5
364.259	27
365.496	29
366.736	28.5
367.974	29
369.212	24.5
370.45	25
371.687	29
372.925	27
374.162	28
375.399	28.5
376.635	30
377.873	28.5
379.109	26
380.344	26
381.581	26
382.816	29.5
384.052	26.5
385.287	26
386.523	28
387.757	28.5
388.991	23
390.227	24.5
391.46	27
392.695	26.5
393.928	25
395.162	27.5
396.396	27
397.629	24.5
398.861	26
400.095	22.5
401.327	27.5
402.559	28
403.792	29
405.024	27
406.255	26.5
407.488	21
408.719	28.5
409.949	26
411.18	26
412.412	23
413.642	26.5
414.872	26
416.102	26.5
417.333	26.5
418.562	23.5
419.791	26.5
421.02	27.5
422.249	27.5
423.479	26
424.707	30
425.935	26
427.163	30
428.391	23.5
429.619	26.5
430.848	29.5
432.075	30
433.302	29.5
434.529	29
435.755	27
436.982	24
438.208	23
439.434	29
440.66	28.5
441.885	25
443.111	29
444.338	29.5
445.563	25
446.788	25.5
448.012	25
449.237	27
450.461	28
451.685	31.5
452.909	30.5
454.133	28.5
455.356	31
456.579	30.5
457.802	24.5
459.025	27.5
460.247	31
461.469	25
462.691	28.5
463.914	30
465.136	26
466.357	28
467.579	23
468.8	30.5
470.021	26
471.242	30
472.462	26
473.682	26
474.903	27.5
476.123	31
477.343	30
478.563	29.5
479.782	33
481	32
482.219	31.5
483.438	34
484.657	33.5
485.874	38
487.093	39.5
488.311	36
489.529	38.5
490.747	37.5
491.963	36.5
493.181	32
494.398	34
495.614	31
496.83	32.5
498.047	34
499.264	31
500.479	34
501.695	31.5
502.911	28.5
504.125	27.5
505.34	26
506.554	31
507.769	29
508.984	31.5
510.198	30.5
511.412	28.5
512.627	27
513.839	26
515.053	26
516.266	30.5
517.479	26.5
518.691	26.5
519.905	29.5
521.118	31.5
522.329	27.5
523.542	27
524.753	30.5
525.965	29
527.176	27
528.388	29.5
529.598	26
530.809	26
532.019	27.5
533.23	29.5
534.44	24.5
535.649	27
536.86	28
538.068	26
539.279	24.5
540.487	26.5
541.697	30.5
542.905	30.5
544.113	25.5
545.322	26.5
546.53	28
547.737	27.5
548.946	27
550.153	29.5
551.361	30
552.568	27
553.774	29.5
554.982	27.5
556.188	30
557.394	26.5
558.599	29
559.806	24
561.012	28.5
562.217	23
563.423	27.5
564.628	28
565.832	23
567.036	27
568.241	29.5
569.446	30
570.65	29
571.853	27
573.057	27.5
574.26	29.5
575.464	27.5
576.667	23
577.87	24
579.072	31
580.274	27.5
581.477	24
582.68	29
583.881	25
585.083	26
586.284	26.5
587.485	28
588.686	25
589.887	22
591.087	30.5
592.288	28.5
593.488	24.5
594.688	27
595.888	26
597.087	24
598.287	28
599.486	27
600.685	33
601.884	27.5
603.082	26.5
604.281	26.5
605.479	27.5
606.677	26.5
607.875	28.5
609.073	22
610.27	30.5
611.468	23.5
612.665	29
613.862	28
615.058	28
616.255	26
617.451	27.5
618.648	30.5
619.842	27
621.038	26.5
622.234	29.5
623.429	25
624.624	30
625.819	27
627.013	25
628.207	28
629.402	26
630.596	28.5
631.79	27.5
632.983	27.5
634.177	31
635.37	29
636.564	27.5
637.755	25
638.948	27
640.141	29.5
641.334	28
642.525	30
643.717	26
644.909	33
646.099	27.5
647.291	29
648.483	25.5
649.674	26.5
650.864	26.5
652.055	27.5
653.244	26
654.435	25
655.625	27.5
656.814	31.5
658.004	23
659.193	26.5
660.382	29.5
661.571	28.5
662.759	27
663.948	28.5
665.135	27
666.324	28.5
667.511	28.5
668.7	28
669.886	26
671.074	30.5
672.262	29.5
673.448	26.5
674.634	30
675.821	27
677.007	30
678.194	28.5
679.379	33
680.565	26.5
681.75	24
682.936	26
684.121	24
685.305	30.5
686.491	32.5
687.675	30
688.86	27.5
690.043	27.5
691.227	28
692.411	23
693.594	27.5
694.777	24.5
695.961	33
697.144	24
698.326	28
699.509	31.5
700.691	28.5
701.873	28.5
703.056	29.5
704.237	31
705.419	34
706.599	34
707.782	32
708.962	34
710.143	32
711.323	33
712.504	33
713.684	31
714.864	32
716.043	26
717.223	30
718.403	26
719.582	27
720.761	29
721.94	26.5
723.118	29
724.296	27
725.474	27
726.652	28.5
727.831	24.5
729.009	30.5
730.186	25.5
731.363	27.5
732.54	28.5
733.717	26.5
734.893	28.5
736.07	31
737.246	26
738.422	21.5
739.598	28
740.773	28
741.949	27
743.124	25.5
744.299	23
745.474	32.5
746.649	27.5
747.823	28
748.997	25.5
750.172	30.5
751.346	28.5
752.519	28.5
753.693	32
754.867	24.5
756.038	26
757.211	28.5
758.384	30
759.557	28
760.73	26
761.902	25.5
763.074	26
764.246	27.5
765.417	27
766.588	30.5
767.76	25
768.931	30.5
770.102	30.5
771.271	27
772.442	28
773.613	25.5
774.783	26.5
775.952	26
777.122	29
778.291	29
779.461	29.5
780.629	34.5
781.798	31
782.967	26
784.135	26
785.304	24
786.472	31
787.639	27
788.807	26.5
789.975	27
791.142	27.5
792.309	31.5
793.477	29
794.642	23
795.81	28
796.975	27.5
798.142	27
799.308	27
800.473	24
801.639	28.5
802.804	24
803.97	26.5
805.134	23
806.299	24.5
807.463	26.5
808.628	30.5
809.792	29
810.957	29
812.12	27
813.284	25
814.447	30.5
815.611	25
816.773	24.5
817.937	27
819.099	22.5
820.261	26.5
821.424	26
822.585	28.5
823.748	24.5
824.909	24
826.07	24.5
827.232	25.5
828.393	26.5
829.554	31.5
830.715	28
831.875	27
833.035	28.5
834.196	26.5
835.356	24.5
836.515	30.5
837.676	26.5
838.835	24.5
839.994	28
841.152	27
842.312	24
843.47	27.5
844.629	23.5
845.786	26.5
846.946	26
848.103	27.5
849.261	27.5
850.418	24.5
851.575	28
852.733	26.5
853.89	28
855.046	26.5
856.203	24.5
857.359	27.5
858.515	32
859.67	23.5
860.827	27
861.983	27.5
863.138	27.5
864.293	26
865.448	28
866.603	25
867.757	26
868.912	26.5
870.066	26.5
871.22	29
872.374	24.5
873.527	27
874.681	28.5
875.834	29
876.987	29.5
878.14	27
879.293	27
880.445	26.5
881.598	30.5
882.75	26
883.902	30.5
885.054	26
886.206	25
887.357	27.5
888.507	26
889.658	21
890.809	27.5
891.96	23.5
893.111	26.5
894.261	27.5
895.411	28.5
896.561	23.5
897.71	22
898.86	27
900.009	25
901.159	27.5
902.308	27
903.455	25
904.604	26
905.753	26.5
906.901	27
908.048	27
909.197	26.5
910.344	28
911.492	23
912.639	25.5
913.786	27.5
914.933	25
916.079	25
917.226	24
918.373	26.5
919.518	24.5
920.664	21
921.81	26.5
922.955	27
924.101	26
925.245	27
926.391	25
927.536	25.5
928.68	28.5
929.825	24
930.968	28
932.113	28
933.256	24
934.4	28
935.543	24.5
936.687	25.5
937.83	23.5
938.973	29.5
940.115	26.5
941.258	26
942.399	27.5
943.542	23
944.684	24
945.826	27.5
946.967	28
948.109	25
949.25	24.5
950.392	26.5
951.532	24
952.672	23
953.813	27.5
954.953	29.5
956.093	26
957.233	25.5
958.373	30
959.512	28.5
960.652	22.5
961.791	26
962.929	26
964.069	29
965.207	27.5
966.345	28
967.484	22.5
968.622	29.5
969.759	25.5
970.896	26
972.035	26
973.172	24.5
974.309	22
975.445	26
976.582	22.5
977.719	25.5
978.855	26
979.991	26.5
981.127	25.5
982.263	22
983.398	25.5
984.535	28
985.67	27
986.804	27.5
987.939	27
989.074	26.5
990.208	27
991.342	27.5
992.476	25.5
993.61	29
994.744	29
995.877	23
997.01	29
998.143	25.5
999.276	20
1000.41	25.5
1001.54	24
1002.67	20.5
1003.81	26
1004.94	22.5
1006.07	26
1007.2	24
1008.33	30
1009.47	21
1010.6	21.5
1011.73	25
1012.86	27
1013.99	28
1015.12	26.5
1016.25	27
1017.38	27.5
1018.51	23
1019.64	23
1020.77	23
1021.9	26
1023.03	26
1024.15	28.5
1025.28	24
1026.41	23.5
1027.54	23
1028.67	24
1029.8	30.5
1030.92	27.5
1032.05	28.5
1033.18	23.5
1034.31	25.5
1035.43	25
1036.56	26
1037.69	27
1038.81	25.5
1039.94	24
1041.07	25
1042.19	24
1043.32	24
1044.44	25
1045.57	24
1046.69	26
1047.82	23
1048.94	24
1050.07	25.5
1051.19	27
1052.32	25.5
1053.44	27
1054.57	25.5
1055.69	27
1056.81	28.5
1057.94	23
1059.06	23.5
1060.18	27.5
1061.31	22.5
1062.43	25.5
1063.55	24
1064.67	25
1065.8	26
1066.92	26.5
1068.04	26
1069.16	20
1070.28	25.5
1071.4	25.5
1072.52	27
1073.64	25
1074.76	25
1075.89	30.5
1077.01	27
1078.13	24.5
1079.25	27
1080.37	22.5
1081.49	27
1082.6	22.5
1083.72	25.5
1084.84	22.5
1085.96	27.5
1087.08	22.5
1088.2	27
1089.32	30
1090.43	22
1091.55	27
1092.67	21.5
1093.79	24
1094.91	23
1096.02	27
1097.14	24
1098.26	22
1099.37	25
1100.49	23.5
1101.61	25.5
1102.72	26
1103.84	23
1104.95	26
1106.07	27
1107.18	21
1108.3	27.5
1109.41	23.5
1110.53	26
1111.64	25
1112.76	27
1113.87	26
1114.99	26.5
1116.1	27
1117.21	24.5
1118.33	28.5
1119.44	21.5
1120.55	23
1121.67	22.5
1122.78	25
1123.89	26
1125	25
1126.12	24.5
1127.23	25.5
1128.34	25
1129.45	29.5
1130.56	24.5
1131.68	26
1132.79	23.5
1133.9	25
1135.01	23
1136.12	24.5
1137.23	25.5
1138.34	24
1139.45	23
1140.56	24.5
1141.67	20
1142.78	24
1143.89	24
1145	26.5
1146.11	22
1147.22	21.5
1148.32	25.5
1149.43	28.5
1150.54	28
1151.65	21
1152.76	24.5
1153.86	26
1154.97	21.5
1156.08	25.5
1157.19	25
1158.29	27
1159.4	27
1160.51	24
1161.61	26.5
1162.72	24.5
1163.83	27.5
1164.93	26.5
1166.04	23.5
1167.14	25
1168.25	30
1169.35	25.5
1170.46	28
1171.56	21.5
1172.67	22
1173.77	22
1174.88	23
1175.98	22
1177.08	26.5
1178.19	26
1179.29	25.5
1180.4	25
1181.5	26.5
1182.6	27.5
1183.71	27
1184.81	23
1185.91	24.5
1187.01	25.5
1188.12	26.5
1189.22	22.5
1190.32	24
1191.42	23.5
1192.52	22.5
1193.62	24
1194.72	23.9967
1195.83	25.416
1196.93	24.4688
1198.03	25.0205
1199.13	21.5836
1200.23	21.9719
1201.33	23.986
1202.43	21.7483
1203.53	26.2987
1204.63	22.9078
1205.73	23.364
1206.83	25.7013
1207.92	23.606
1209.02	24.5952
1210.12	23.4492
1211.22	21.5429
1212.32	25.1686
1213.42	24.6941
1214.51	25.6269
1215.61	21.6909
1216.71	23.8244
1217.81	22.4294
1218.9	23.2439
1220	26.0289
1221.1	23.0125
1222.19	25.5379
1223.29	23.4394
1224.39	23.7669
1225.48	24.8392
1226.58	25.2732
1227.68	24.7911
1228.77	22.7545
1229.87	23.2962
1230.96	22.7362
1232.06	26.3176
1233.15	23.2812
1234.25	20.0375
1235.34	21.5661
1236.43	22.157
1237.53	23.5884
1238.62	24.6746
1239.72	24.8883
1240.81	22.5134
1241.9	21.8071
1243	22.7734
1244.09	22.3369
1245.18	24.3674
1246.27	26.9166
1247.37	23.3752
1248.46	22.5388
1249.55	23.7776
1250.64	24.2041
1251.74	26.9647
1252.83	24.5895
1253.92	22.1293
1255.01	23.5367
1256.1	24.4666
1257.19	24.3173
1258.28	25.7048
1259.38	24.7339
1260.46	24.2821
1261.56	24.3
1262.65	25.3121
1263.74	25.5215
1264.82	23.4295
1265.91	25.1191
1267	23.8719
1268.09	25.4475
1269.18	25.665
1270.27	23.8633
1271.36	24.4619
1272.45	23
1273.54	19.967
1274.63	25.9057
1275.71	23.4297
1276.8	25.5154
1277.89	24.5993
1278.98	25.5099
1280.06	26.2815
1281.15	23.8622
1282.24	22.8999
1283.32	24.5773
1284.41	22.0825
1285.5	21.0492
1286.58	21.9136
1287.67	24.0946
1288.76	24.2403
1289.84	24.6734
1290.93	25.0569
1292.01	22.8557
1293.1	22.0607
1294.18	21.6564
1295.27	22.9932
1296.35	23.2306
1297.44	23.5719
1298.52	23.9272
1299.6	26.1969
1300.69	23.8933
1301.77	22.4248
1302.86	23.8373
1303.94	22.3702
1305.02	23.3181
1306.11	23.2659
1306.41	23
1307.5	24.5
1308.59	25
1309.68	23.5
1310.77	24.5
1311.85	21.5
1312.94	25
1314.03	22.5
1315.11	24.5
1316.2	25
1317.29	27
1318.37	20
1319.46	23
1320.55	22.5
1321.63	24
1322.72	24.5
1323.8	24
1324.89	24
1325.98	23
1327.06	21.5
1328.15	21
1329.23	24
1330.31	27
1331.4	24
1332.48	25
1333.57	23.5
1334.65	27
1335.74	24
1336.82	24
1337.9	27
1338.99	25
1340.07	24.5
1341.15	26.5
1342.24	24.5
1343.32	23
1344.4	26
1345.48	22.5
1346.56	25
1347.65	25.5
1348.73	26
1349.81	22.5
1350.89	25.5
1351.97	24.5
1353.05	23
1354.13	26
1355.21	24.5
1356.29	24.5
1357.37	22.5
1358.46	25.5
1359.54	22
1360.62	28
1361.69	25
1362.77	27.5
1363.85	24.5
1364.93	24
1366.01	23.5
1367.09	24.5
1368.17	22.5
1369.25	25
1370.33	26
1371.41	27.5
1372.48	21
1373.56	24
1374.64	24.5
1375.72	24.5
1376.79	24
1377.87	27.5
1378.95	23
1380.02	27.5
1381.1	20
1382.18	24
1383.25	25
1384.33	22.5
1385.4	23
1386.48	21.5
1387.56	25.5
1388.63	23.5
1389.71	20
1390.78	27
1391.86	26
1392.93	22
1394.01	26
1395.08	22.5
1396.15	23.5
1397.23	24.5
1398.3	24.5
1399.38	26.5
1400.45	26.5
1401.52	26
1402.6	29
1403.67	19
1404.74	28
1405.81	23
1406.89	22
1407.96	26
1409.03	25
1410.1	25
1411.17	25.5
1412.25	25.5
1413.32	29.5
1414.39	30
1415.46	28
1416.53	26
1417.6	27
1418.67	24
1419.74	25
1420.81	25
1421.88	25.5
1422.95	23
1424.02	29.5
1425.09	28
1426.16	25.5
1427.23	26.5
1428.3	22
1429.37	28.5
1430.44	24
1431.51	24
1432.58	25
1433.64	26
1434.71	23
1435.78	25.5
1436.85	23
1437.92	22.5
1438.98	23
1440.05	22.5
1441.12	28
1442.18	25
1443.25	26.5
1444.32	26.5
1445.38	20
1446.45	24.5
1447.52	26
1448.58	29
1449.65	25.5
1450.71	27
1451.78	25
1452.84	25
1453.91	26
1454.97	27
1456.04	23.5
1457.1	22
1458.17	23
1459.23	25.5
1460.3	26.5
1461.36	19
1462.42	23.5
1463.49	24.5
1464.55	24
1465.61	25.5
1466.68	23.5
1467.74	21.5
1468.8	25
1469.86	22
1470.93	23.5
1471.99	25.5
1473.05	24.5
1474.11	26
1475.17	23.5
1476.24	21
1477.3	26
1478.36	24.5
1479.42	27
1480.48	24
1481.54	24
1482.6	24
1483.66	25
1484.72	23.5
1485.78	22
1486.84	24
1487.9	25.5
1488.96	28.5
1490.02	28
1491.08	26.5
1492.14	26
1493.2	27
1494.26	25.5
1495.31	24
1496.37	26
1497.43	24
1498.49	28
1499.55	19
1500.6	22.5
1501.66	23.5
1502.72	27.5
1503.78	21.5
1504.83	25
1505.89	24
1506.95	24.5
1508	25
1509.06	27
1510.12	28
1511.17	26
1512.23	23
1513.28	21.5
1514.34	25
1515.39	25
1516.45	24
1517.5	26
1518.56	22
1519.61	27.5
1520.67	25.5
1521.72	25
1522.78	22.5
1523.83	23
1524.88	26
1525.94	25
1526.99	28
1528.05	27.5
1529.1	21.5
1530.15	24
1531.2	24
1532.26	28.5
1533.31	26.5
1534.36	23
1535.41	26.5
1536.47	26
1537.52	24.5
1538.57	22
1539.62	25.5
1540.67	26
1541.72	23.5
1542.77	25.5
1543.83	26
1544.88	25
1545.93	23
1546.98	22
1548.03	22
1549.08	23.5
1550.13	27
1551.18	25.5
1552.23	26
1553.28	24
1554.32	27
1555.37	23
1556.42	28
1557.47	23
1558.52	26
1559.57	22.5
1560.62	24.5
1561.67	25.5
1562.71	21.5
1563.76	25.5
1564.81	24
1565.86	27.5
1566.9	21.5
1567.95	29.5
1569	25
1570.04	26.5
1571.09	25
1572.14	24.5
1573.18	24.5
1574.23	25
1575.27	26
1576.32	23.5
1577.37	27.5
1578.41	27
1579.46	24.5
1580.5	27.5
1581.55	24
1582.59	26
1583.64	26
1584.68	24
1585.72	25
1586.77	29
1587.81	26
1588.86	26.5
1589.9	23.5
1590.94	18
1591.99	28
1593.03	24
1594.07	28
1595.12	29.5
1596.16	27.5
1597.2	27.5
1598.24	26
1599.29	24
1600.33	25
1601.37	25
1602.41	25.5
1603.45	26
1604.49	25
1605.53	25
1606.58	27.5
1607.62	24
1608.66	22
1609.7	25.5
1610.74	22.5
1611.78	28
1612.82	27.5
1613.86	22
1614.9	24.5
1615.94	28
1616.98	28
1618.02	23
1619.06	25.5
1620.09	23.5
1621.13	26
1622.17	24
1623.21	24
1624.25	21.5
1625.29	24.5
1626.32	29
1627.36	28.5
1628.4	28.5
1629.44	24
1630.47	23.5
1631.51	25
1632.55	20
1633.58	23
1634.62	25.5
1635.66	30
1636.69	27
1637.73	22
1638.77	24
1639.8	27
1640.84	23.5
1641.87	26.5
1642.91	23
1643.94	27.5
1644.98	24.5
1646.01	26.5
1647.05	27
1648.08	24
1649.12	25
1650.15	24
1651.18	26
1652.22	28.5
1653.25	27
1654.29	24.5
1655.32	24
1656.35	22
1657.39	28
1658.42	28
1659.45	28
1660.48	25
1661.52	22
1662.55	25.5
1663.58	25
1664.61	26
1665.64	24.5
1666.68	24
1667.71	23
1668.74	28.5
1669.77	22.5
1670.8	23.5
1671.83	26
1672.86	25
1673.89	26.5
1674.92	26.5
1675.95	27.5
1676.98	27
1678.01	28
1679.04	20
1680.07	28
1681.1	22.5
1682.13	21.5
1683.16	27.5
1684.19	25.5
1685.22	24.5
1686.25	28.5
1687.27	23
1688.3	25
1689.33	24.5
1690.36	19
1691.38	25.5
1692.41	24.5
1693.44	24.5
1694.47	25
1695.49	19.5
1696.52	26
1697.55	28
1698.57	24.5
1699.6	28
1700.63	27
1701.65	23.5
1702.68	28
1703.7	21
1704.73	24.5
1705.76	26.5
1706.78	23
1707.81	21.5
1708.83	29
1709.86	28.5
1710.88	28
1711.91	27.5
1712.93	23
1713.95	27
1714.98	25.5
1716	25
1717.03	24
1718.05	28
1719.07	27
1720.1	26
1721.12	27.5
1722.14	26.5
1723.16	25.5
1724.19	24
1725.21	23.5
1726.23	23
1727.25	23
1728.28	23.5
1729.3	25.5
1730.32	26.5
1731.34	28.5
1732.36	24.5
1733.38	27
1734.41	22
1735.43	23.5
1736.45	22
1737.47	27.5
1738.49	22.5
1739.51	29.5
1740.53	27
1741.55	23.5
1742.57	25
1743.59	28.5
1744.61	27
1745.63	30.5
1746.64	20
1747.66	25
1748.68	23
1749.7	25.5
1750.72	24.5
1751.74	25.5
1752.76	28
1753.77	26
1754.79	24.5
1755.81	24
1756.83	25.5
1757.84	26
1758.86	23
1759.88	27
1760.9	26
1761.91	23
1762.93	26.5
1763.95	24.5
1764.96	24
1765.98	25
1766.99	28
1768.01	26.5
1769.02	26
1770.04	26
1771.06	27
1772.07	22.5
1773.09	26
1774.1	24
1775.12	24.5
1776.13	26.5
1777.14	24
1778.16	24.5
1779.17	26.5
1780.19	24
1781.2	25
1782.21	27.5
1783.23	25.5
1784.24	24
1785.25	24.5
1786.27	24
1787.28	26
1788.29	24
1789.3	21
1790.32	21
1791.33	26
1792.34	27.5
1793.35	25.5
1794.36	24.5
1795.38	26.5
1796.39	27
1797.4	23
1798.41	25.5
1799.42	26.5
1800.43	25
1801.44	28
1802.45	22.5
1803.46	26
1804.47	27.5
1805.48	29
1806.49	24
1807.5	24.5
1808.51	24
1809.52	21
1810.53	24.5
1811.54	29
1812.55	26
1813.56	24.5
1814.57	28.5
1815.57	25
1816.58	26.5
1817.59	23
1818.6	24.5
1819.61	21
1820.61	23
1821.62	24
1822.63	24
1823.64	21
1824.64	28
1825.65	24.5
1826.66	24
1827.66	25
1828.67	23
1829.68	24
1830.68	24
1831.69	27.5
1832.69	25
1833.7	26
1834.7	23
1835.71	24
1836.71	24.5
1837.72	28
1838.72	24
1839.73	17
1840.73	19.5
1841.74	22.5
1842.74	26.5
1843.75	27
1844.75	26
1845.75	24.5
1846.76	25
1847.76	25
1848.76	25.5
1849.77	24
1850.77	26
1851.77	24.5
1852.78	26
1853.78	27
1854.78	25.5
1855.78	24
1856.78	23
1857.79	25
1858.79	28
1859.79	27
1860.79	24.5
1861.79	24
1862.79	25
1863.79	23.5
1864.79	27.5
1865.79	23
1866.8	25.5
1867.8	26
1868.8	27
1869.8	26
1870.8	28.5
1871.8	25
1872.8	24.5
1873.79	24.5
1874.79	25
1875.79	23
1876.79	23
1877.79	23
1878.79	23
1879.79	22
1880.79	24
1881.78	23.5
1882.78	25
1883.78	26
1884.78	26
1885.77	25
1886.77	27
1887.77	24.5
1888.77	26
1889.76	20
1890.76	22
1891.76	25
1892.75	23
1893.75	21
1894.75	21
1895.74	26.5
1896.74	26.5
1897.73	23.5
1898.73	24.5
1899.73	24
1900.72	28
1901.72	28
1902.71	21
1903.7	25.5
1904.7	25
1905.69	26.5
1906.69	21.5
1907.68	25
1908.68	25
1909.67	25.5
1910.66	26.5
1911.66	23
1912.65	25.5
1913.64	26
1914.64	21
1915.63	27
1916.62	27
1917.62	29
1918.61	24
1919.6	24
1920.59	22
1921.58	24.5
1922.58	21.5
1923.57	21.5
1924.56	26.5
1925.55	23.5
1926.54	24
1927.53	25.5
1928.52	24
1929.51	27.5
1930.51	24
1931.5	26.5
1932.49	22.5
1933.48	26.5
1934.47	26.5
1935.46	25.5
1936.45	24.5
1937.44	25
1938.42	24.5
1939.41	24
1940.4	25.5
1941.39	25.5
1942.38	25.5
1943.37	25
1944.36	22
1945.35	25.5
1946.33	23
1947.32	21.5
1948.31	24.5
1949.3	27
1950.29	22
1951.27	25
1952.26	27.5
1953.25	22
1954.23	23.5
1955.22	25
1956.21	22.5
1957.19	23
1958.18	27.5
1959.17	25
1960.15	24.5
1961.14	24
1962.13	28
1963.11	25.5
1964.1	25
1965.08	22
1966.07	25
1967.05	23.5
1968.04	23.5
1969.02	29
1970.01	25.5
1970.99	25
1971.97	26
1972.96	25.5
1973.94	25.5
1974.93	22
1975.91	22.5
1976.89	27.5
1977.88	24.5
1978.86	26
1979.84	24
1980.83	26.5
1981.81	19.5
1982.79	24.5
1983.77	27.5
1984.76	24
1985.74	27
1986.72	25.5
1987.7	24
1988.68	25.5
1989.67	24
1990.65	25.5
1991.63	25
1992.61	23.5
1993.59	24
1994.57	23.5
1995.55	26
1996.53	23
1997.51	23.5
1998.49	23.5
1999.47	26
2000.45	25.5
2001.43	23
2002.41	23
2003.39	21.5
2004.37	22.5
2005.35	25
2006.33	25
2007.31	21
2008.29	22
2009.26	24
2010.24	23.5
2011.22	28.5
2012.2	24
2013.18	23.5
2014.15	27
2015.13	22
2016.11	27
2017.09	20.5
2018.06	24.5
2019.04	25
2020.02	22
2021	23
2021.97	24
2022.95	23
2023.92	25
2024.9	20.5
2025.88	24
2026.85	23.5
2027.83	25
2028.8	22
2029.78	22
2030.75	24
2031.73	25
2032.7	21
2033.68	23
2034.65	21
2035.63	20.5
2036.6	25.5
2037.58	21
2038.55	24.5
2039.52	25.5
2040.5	21
2041.47	20.5
2042.45	21
2043.42	24.5
2044.39	26
2045.36	22.5
2046.34	20.5
2047.31	27
2048.28	23.5
2049.26	23
2050.23	27.5
2051.2	22.5
2052.17	23
2053.14	26
2054.12	23
2055.09	21.5
2056.06	25.5
2057.03	28
2058	24
2058.97	24
2059.94	24
2060.91	24.5
2061.88	24
2062.85	24.5
2063.82	22.5
2064.79	21
2065.76	24.5
2066.73	22
2067.7	21.5
2068.67	23
2069.64	20
2070.61	24
2071.58	22.5
2072.55	25.5
2073.52	27
2074.49	25.5
2075.45	24
2076.42	23
2077.39	23
2078.36	22
2079.33	27.5
2080.29	23
2081.26	22.5
2082.23	26.5
2083.2	23.5
2084.16	21.5
2085.13	24.5
2086.1	24.5
2087.06	21.5
2088.03	21
2089	21.5
2089.96	26
2090.93	23
2091.89	25
2092.86	25
2093.83	25
2094.79	20.5
2095.76	22
2096.72	25.5
2097.69	25.5
2098.65	20
2099.62	25
2100.58	22.5
2101.55	23
2102.51	24
2103.47	26
2104.44	21.5
2105.4	21.5
2106.36	23
2107.33	23
2108.29	25
2109.25	18.5
2110.22	28
2111.18	20.5
2112.14	25
2113.11	22
2114.07	27
2115.03	24.5
2115.99	22
2116.96	23.5
2117.92	22
2118.88	23
2119.84	25.5
2120.8	21
2121.76	21
2122.72	24
2123.68	24
2124.65	19.5
2125.61	20.5
2126.57	23
2127.53	24.5
2128.49	22
2129.45	23.5
2130.41	25.5
2131.37	21
2132.33	23
2133.29	25.5
2134.25	21.5
2135.21	29.5
2136.17	20
2137.12	24.5
2138.08	22
2139.04	24
2140	22
2140.96	24
2141.92	23.5
2142.88	22.4927
2143.83	21.4989
2144.79	22.5302
2145.75	24.0513
2146.71	24.8297
2147.66	24.7886
2148.62	23.9595
2149.58	23.3635
2150.53	25.2924
2151.49	24.6495
2152.45	19.5485
2153.4	18.9356
2154.36	20.2371
2155.32	20.3572
2156.27	22.1481
2157.23	21.7624
2158.19	24.9393
2159.14	21.6362
2160.1	23.8576
2161.05	24.9095
2162.01	24.2895
2162.96	23.8449
2163.92	22.847
2164.87	22.7066
2165.83	21.7546
2166.78	22.1975
2167.73	24.7499
2168.69	24.2985
2169.64	19.6742
2170.6	26.4976
2171.55	22.4724
2172.5	19.5432
2173.46	24.36
2174.41	20.3385
2175.36	21.3853
2176.32	21.5589
2177.27	23.4871
2178.22	24.8354
2179.18	21.1062
2180.13	24.1358
2181.08	21.8142
2182.03	25.2582
2182.98	24.2184
2183.94	22.6004
2184.89	21.2083
2185.84	21.8114
2186.79	20.0438
2187.74	21.8765
2188.69	22.1613
2189.64	25.0989
2190.6	21.2672
2191.55	18.7722
2192.5	21.0092
2193.45	21.3216
2194.4	25.9176
2195.35	22.4281
2196.3	20.0675
2197.25	23.3936
2198.2	23.5703
2199.15	22.5958
2200.1	19.7183
2201.04	22.3464
2201.99	22.9826
2202.94	21.0431
2203.89	23.0725
2204.84	21.7718
2205.79	21.9684
2206.74	19.6046
2207.69	20.1727
2208.63	24.1865
2209.58	23.5406
2210.53	25.5284
2211.48	21.6953
2212.43	21.2656
2213.37	22.9891
2214.32	23.4954
2215.27	22.5336
2216.21	23.0098
2217.16	21.0284
2218.11	20.2975
2219.05	23.2945
2220	23.5825
2220.95	22.708
2221.89	21.489
2222.84	22.1456
2223.78	23.7606
2224.73	24.5111
2225.68	22.8358
2226.62	22.7189
2227.57	22.2762
2228.51	22.7882
2229.46	19.5556
2230.4	23.2783
2231.35	21.1452
2232.29	21.0695
2233.24	21.3714
2234.18	22.4296
2235.12	20.8351
2236.07	22.3821
2237.01	21.5254
2237.95	20.5976
2238.9	22.0161
2239.84	16.4281
2240.06	14.5
2241.01	25
2241.96	22
2242.91	20.5
2243.86	23
2244.8	23.5
2245.75	23
2246.7	22
2247.65	24
2248.59	24.5
2249.54	21.5
2250.49	24
2251.43	23
2252.38	23
2253.33	22.5
2254.27	24
2255.22	24
2256.16	19.5
2257.11	23
2258.06	24
2259	21
2259.95	23.5
2260.89	17.5
2261.84	24.5
2262.78	22.5
2263.73	20.5
2264.67	25
2265.62	23.5
2266.56	25
2267.5	27
2268.45	25.5
2269.39	24
2270.34	23.5
2271.28	23.5
2272.22	22.5
2273.17	23
2274.11	23
2275.05	21.5
2276	22
2276.94	24
2277.88	20.5
2278.82	26
2279.77	22.5
2280.71	22
2281.65	23.5
2282.59	27
2283.53	24.5
2284.48	20.5
2285.42	24
2286.36	19.5
2287.3	19
2288.24	22
2289.18	22
2290.12	18
2291.06	24.5
2292	23.5
2292.94	24.5
2293.89	19.5
2294.83	25
2295.77	21.5
2296.71	27
2297.65	25
2298.58	25
2299.52	24.5
2300.46	23.5
2301.4	23
2302.34	24.5
2303.28	26
2304.22	20.5
2305.16	21
2306.1	24
2307.03	20
2307.97	20
2308.91	24
2309.85	23
2310.79	23.5
2311.72	23.5
2312.66	25
2313.6	23
2314.54	21
2315.47	21.5
2316.41	24.5
2317.35	21
2318.28	26
2319.22	26
2320.16	23
2321.09	24.5
2322.03	23.5
2322.96	22
2323.9	25.5
2324.84	24
2325.77	22
2326.71	23.5
2327.64	24.5
2328.58	20.5
2329.51	21
2330.45	22
2331.38	22.5
2332.32	23.5
2333.25	27.5
2334.18	26.5
2335.12	25
2336.05	23.5
2336.99	22
2337.92	25.5
2338.85	22.5
2339.79	25
2340.72	23
2341.65	24
2342.59	25
2343.52	26
2344.45	23
2345.39	24
2346.32	23
2347.25	20.5
2348.18	21.5
2349.11	24.5
2350.05	24
2350.98	21
2351.91	24
2352.84	23
2353.77	23.5
2354.7	23
2355.64	19.5
2356.57	25.5
2357.5	22.5
2358.43	26.5
2359.36	25
2360.29	23
2361.22	22
2362.15	25.5
2363.08	25
2364.01	29
2364.94	22.5
2365.87	20
2366.8	23
2367.73	24
2368.66	20.5
2369.58	26
2370.51	23.5
2371.44	22
2372.37	24
2373.3	25.5
2374.23	24.5
2375.16	22
2376.08	23.5
2377.01	26
2377.94	26.5
2378.87	23
2379.8	23.5
2380.72	21.5
2381.65	23
2382.58	20
2383.5	24
2384.43	21.5
2385.36	24
2386.28	22
2387.21	22
2388.14	22.5
2389.06	21.5
2389.99	22.5
2390.91	23
2391.84	24
2392.77	23.5
2393.69	22
2394.62	22
2395.54	28.5
2396.47	24
2397.39	23.5
2398.32	26
2399.24	22.5
2400.16	25.5
2401.09	18
2402.01	23.5
2402.94	26.5
2403.86	22
2404.78	18
2405.71	26
2406.63	21
2407.56	25
2408.48	27
2409.4	23.5
2410.32	21
2411.25	24.5
2412.17	24
2413.09	25
2414.02	21
2414.94	23.5
2415.86	23.5
2416.78	23
2417.7	24
2418.63	24
2419.55	24.5
2420.47	26
2421.39	27
2422.31	19
2423.23	22.5
2424.15	26
2425.07	23
2425.99	23
2426.92	27.5
2427.84	24
2428.76	25
2429.68	25
2430.59	21
2431.51	22.5
2432.43	22.5
2433.35	27
2434.27	24
2435.19	29.5
2436.11	23.5
2437.03	26
2437.95	24.5
2438.87	25
2439.79	25
2440.71	27
2441.62	24
2442.54	26
2443.46	23
2444.38	18
2445.3	24.5
2446.21	22
2447.13	23
2448.05	26
2448.97	24.5
2449.88	24
2450.8	25
2451.72	21.5
2452.63	22.5
2453.55	22.5
2454.47	24.5
2455.38	26
2456.3	23.5
2457.21	23
2458.13	21.5
2459.05	23
2459.96	23
2460.88	21.5
2461.79	26
2462.71	26.5
2463.62	24
2464.54	23.5
2465.45	26
2466.37	22.5
2467.28	21
2468.2	23.5
2469.11	26
2470.02	26
2470.94	24
2471.85	25.5
2472.77	25
2473.68	24
2474.59	21
2475.51	23
2476.42	30.5
2477.33	27
2478.25	21
2479.16	24
2480.07	23.5
2480.98	24.5
2481.9	23.5
2482.81	24
2483.72	24.5
2484.63	18.5
2485.55	24.5
2486.46	21.5
2487.37	20.5
2488.28	24
2489.19	25
2490.1	26
2491.01	25
2491.92	25.5
2492.83	25.5
2493.74	23.5
2494.66	27
2495.57	23.5
2496.48	21
2497.39	23.5
2498.3	22.5
2499.21	26
2500.12	25.5
2501.03	27
2501.93	25
2502.84	23.5
2503.75	24
2504.66	24.5
2505.57	25
2506.48	21
2507.39	22
2508.3	24
2509.21	25
2510.11	21.5
2511.02	26.5
2511.93	26.5
2512.84	22.5
2513.75	21.5
2514.65	22.5
2515.56	21.5
2516.47	26
2517.37	23
2518.28	23
2519.19	23
2520.09	23.5
2521	25
2521.91	25
2522.81	22
2523.72	24
2524.63	22.5
2525.53	26.5
2526.44	22
2527.34	28
2528.25	24
2529.16	22.5
2530.06	22
2530.97	21.5
2531.87	25
2532.78	23
2533.68	28.5
2534.58	26
2535.49	26.5
2536.39	22
2537.3	25.5
2538.2	24.5
2539.11	22
2540.01	25
2540.91	27.5
2541.82	21.5
2542.72	24
2543.62	24.5
2544.53	23
2545.43	24
2546.33	24
2547.23	20.5
2548.14	24
2549.04	26.5
2549.94	24
2550.84	25.5
2551.75	28
2552.65	24.5
2553.55	26
2554.45	26
2555.35	24
2556.26	22
2557.16	20
2558.06	27
2558.96	25
2559.86	24.5
2560.76	25
2561.66	27
2562.56	26
2563.46	24.5
2564.36	28.5
2565.26	16
2566.16	22.5
2567.06	22.5
2567.96	23
2568.86	24
2569.76	27
2570.66	22.5
2571.56	25.5
2572.46	26
2573.36	24
2574.26	23
2575.16	24
2576.05	25
2576.95	23
2577.85	25.5
2578.75	23
2579.65	25
2580.54	23.5
2581.44	20
2582.34	24.5
2583.24	23
2584.13	22
2585.03	24
2585.93	23
2586.83	22.5
2587.72	23.5
2588.62	24.5
2589.52	22
2590.41	26.5
2591.31	21.5
2592.2	25
2593.1	23.5
2594	23
2594.89	23.5
2595.79	26
2596.68	24
2597.58	23.5
2598.47	25.5
2599.37	30.5
2600.26	26.5
2601.16	24
2602.05	26.5
2602.95	22.5
2603.84	23.5
2604.74	25
2605.63	24
2606.52	25.5
2607.42	22
2608.31	25.5
2609.21	23
2610.1	24.5
2610.99	21.5
2611.89	22.5
2612.78	25
2613.67	26
2614.56	19
2615.46	24
2616.35	27
2617.24	25
2618.13	25
2619.03	21.5
2619.92	27
2620.81	24.5
2621.7	26
2622.59	24.5
2623.49	27
2624.38	24
2625.27	24.5
2626.16	25
2627.05	26
2627.94	23
2628.83	24
2629.72	24.5
2630.61	26
2631.5	28
2632.39	29.5
2633.28	20
2634.17	28.5
2635.06	23
2635.95	23.5
2636.84	23.5
2637.73	24
2638.62	23.5
2639.51	23
2640.4	27.5
2641.29	24
2642.18	27
2643.07	26.5
2643.96	24
2644.84	25
2645.73	22.5
2646.62	24.5
2647.51	27.5
2648.4	27.5
2649.28	25.5
2650.17	25
2651.06	27
2651.95	23
2652.83	24.5
2653.72	24.5
2654.61	24
2655.49	20.5
2656.38	23.5
2657.27	27
2658.16	29
2659.04	22.5
2659.93	27
2660.81	26
2661.7	26
2662.59	28.5
2663.47	19.5
2664.36	21.5
2665.24	24
2666.13	21.5
2667.01	26.5
2667.9	29
2668.78	22.5
2669.67	24.5
2670.55	22
2671.44	23
2672.32	25
2673.21	25.5
2674.09	22.5
2674.97	23.5
2675.86	24.5
2676.74	23
2677.62	28.5
2678.51	20
2679.39	23
2680.27	24
2681.16	21.5
2682.04	26
2682.92	26.5
2683.81	23
2684.69	24.5
2685.57	28
2686.45	25.5
2687.34	26.5
2688.22	22
2689.1	23.5
2689.98	22
2690.86	19.5
2691.75	24
2692.63	26
2693.51	18.5
2694.39	28
2695.27	22
2696.15	22.5
2697.03	20
2697.91	23
2698.79	24
2699.67	24
2700.55	25
2701.43	23
2702.31	18
2703.19	27
2704.07	16
2704.95	24
2705.83	25
2706.71	20.5
2707.59	21.5
2708.47	24.5
2709.35	24.5
2710.23	26.5
2711.11	25.5
2711.99	19.5
2712.86	22
2713.74	24
2714.62	22
2715.5	23.5
2716.38	23.5
2717.26	22
2718.13	28
2719.01	27
2719.89	22.5
2720.77	24
2721.64	21.5
2722.52	23.5
2723.4	27.5
2724.27	23.5
2725.15	25.5
2726.03	22.5
2726.9	21.5
2727.78	23.5
2728.66	28
2729.53	27
2730.41	26.5
2731.28	22.5
2732.16	26.5
2733.03	27.5
2733.91	23
2734.79	26.5
2735.66	23.5
2736.54	24
2737.41	24
2738.29	24.5
2739.16	24
2740.03	23
2740.91	25
2741.78	21.5
2742.66	22
2743.53	20.5
2744.41	27
2745.28	25
2746.15	21
2747.03	25
2747.9	25
2748.77	25
2749.65	23.5
2750.52	26.5
2751.39	22.5
2752.27	22
2753.14	28.5
2754.01	21
2754.88	27
2755.75	23
2756.63	23.5
2757.5	22
2758.37	24
2759.24	27
2760.11	23
2760.99	21
2761.86	22.5
2762.73	21.5
2763.6	22.5
2764.47	23
2765.34	26
2766.21	27.5
2767.08	24.5
2767.95	24
2768.82	22.5
2769.69	26.5
2770.56	25.5
2771.43	24.5
2772.3	21.5
2773.17	26.5
2774.04	25
2774.91	23.5
2775.78	22
2776.65	24.5
2777.52	22.5
2778.39	23
2779.26	22.5
2780.13	21.5
2780.99	24
2781.86	22
2782.73	24
2783.6	26
2784.47	27
2785.34	23.5
2786.2	21
2787.07	22.5
2787.94	22.5
2788.81	23.5
2789.67	27
2790.54	25.5
2791.41	23
2792.27	25.5
2793.14	26.5
2794.01	24
2794.87	25.5
2795.74	22.5
2796.61	25
2797.47	25.5
2798.34	25
2799.21	23
2800.07	24
2800.94	24.25
2801.8	20.5
2802.67	24
2803.53	24
2804.4	23
2805.26	29.5
2806.13	27.5
2806.99	25
2807.86	24
2808.72	27.5
2809.59	29.5
2810.45	26
2811.32	23
2812.18	21
2813.04	21
2813.91	23.5
2814.77	21.5
2815.64	26.5
2816.5	23
2817.36	25
2818.22	27
2819.09	22.5
2819.95	28.5
2820.81	23
2821.68	24.5
2822.54	23
2823.4	26
2824.26	27
2825.13	27.5
2825.99	25
2826.85	25
2827.71	22
2828.57	27.5
2829.44	26
2830.3	22.5
2831.16	25
2832.02	20
2832.88	24
2833.74	30
2834.6	24.5
2835.46	24
2836.32	22
2837.18	25.5
2838.04	16.5
2838.9	20.5
2839.76	24
2840.62	24
2841.48	24
2842.34	26
2843.2	24.5
2844.06	25
2844.92	22
2845.78	23
2846.64	22.5
2847.5	24
2848.36	23.5
2849.22	24
2850.08	22.5
2850.93	23.5
2851.79	27.5
2852.65	22
2853.51	23
2854.37	29.5
2855.22	23
2856.08	25
2856.94	25.5
2857.8	27
2858.65	28
2859.51	22.5
2860.37	26.5
2861.23	28.5
2862.08	25
2862.94	22.5
2863.79	27.5
2864.65	21.5
2865.51	25.5
2866.36	20
2867.22	26.5
2868.08	20
2868.93	26.5
2869.79	26
2870.64	23.5
2871.5	25
2872.35	23
2873.21	22.5
2874.06	26
2874.92	22.5
2875.77	21
2876.63	24
2877.48	23.5
2878.34	26.5
2879.19	28.5
2880.05	27
2880.9	22.5
2881.76	21.5
2882.61	27.5
2883.46	24
2884.32	20.5
2885.17	29
2886.02	24
2886.88	27.5
2887.73	29
2888.58	27.5
2889.44	25
2890.29	27.5
2891.14	30
2891.99	30
2892.85	26
2893.7	31
2894.55	27.5
2895.4	33
2896.25	27
2897.11	27.5
2897.96	31.5
2898.81	26
2899.66	27.5
2900.51	32
2901.36	36
2902.21	37.5
2903.07	33
2903.92	35
2904.77	32.5
2905.62	37
2906.47	38.5
2907.32	35.5
2908.17	29.5
2909.02	36.5
2909.87	33.5
2910.72	36
2911.57	40.5
2912.42	33
2913.27	29
2914.12	32.5
2914.97	31.5
2915.81	29.5
2916.66	32
2917.51	32
2918.36	27.5
2919.21	27
2920.06	25
2920.91	25.5
2921.75	27.5
2922.6	30
2923.45	21
2924.3	24
2925.15	25.5
2925.99	24.5
2926.84	24.5
2927.69	26
2928.54	25
2929.38	21.5
2930.23	27
2931.08	23
2931.92	24
2932.77	20.5
2933.62	26.5
2934.46	27.5
2935.31	25
2936.16	25
2937	24
2937.85	25.5
2938.69	22.5
2939.54	23
2940.38	29
2941.23	26
2942.08	24.5
2942.92	22.5
2943.77	24.5
2944.61	19
2945.46	24
2946.3	26.5
2947.15	26.5
2947.99	27.5
2948.83	25.5
2949.68	21
2950.52	24.5
2951.37	25
2952.21	29.5
2953.05	20.5
2953.9	24.5
2954.74	23.5
2955.58	23
2956.43	24.5
2957.27	21
2958.11	25
2958.96	28
2959.8	28.5
2960.64	30.5
2961.48	29.5
2962.33	26.5
2963.17	29
2964.01	25
2964.85	31
2965.69	29.5
2966.54	25
2967.38	23
2968.22	30
2969.06	24
2969.9	27.5
2970.74	29
2971.58	23.4976
2972.43	26.9485
2973.27	26.4719
2974.11	25.0792
2974.95	24.9701
2975.79	23.6717
2976.63	28.6468
2977.47	27.4731
2978.31	25.014
2979.15	25.6042
2979.99	23.9305
2980.83	24.1881
2981.67	24.032
2982.51	24.6429
2983.35	23.2816
2984.19	25.1151
2985.03	23.1361
2985.86	23.2181
2986.7	23.866
2987.54	25.7627
2988.38	22.1859
2989.22	24.735
2990.06	23.5744
2990.9	23.005
2991.73	25.1653
2992.57	24.7087
2993.41	23.5612
2994.25	22.5
2995.09	23.4046
2995.92	23.6342
2996.76	22.6903
2997.6	21.6078
2998.44	26.2609
2999.27	22.3608
3000.11	22.2032
3000.95	21.3107
3001.78	23.1075
3002.62	22.268
3003.46	22.5663
3004.29	23.3762
3005.13	23.0029
3005.96	21.7338
3006.8	21.4634
3007.64	22.3226
3008.47	19.8706
3009.31	23.2195
3010.14	23.9308
3010.98	23.3486
3011.81	23.4351
3012.65	21.8105
3013.48	22.528
3014.32	23.407
3015.15	22.7715
3015.99	19.5583
3016.82	23.5412
3017.66	24.9414
3018.49	23.9718
3019.33	24.0854
3020.16	20.2448
3020.99	23.4845
3021.83	24.2806
3022.66	23.686
3023.5	21.5898
3024.33	21.9587
3025.16	21.006
3026	20.9841
3026.83	22.4178
3027.66	20.5159
3028.49	22.9498
3029.33	22.6595
3030.16	21.1544
3030.99	23.4078
3031.83	23.7164
3032.66	23.1635
3033.49	20.3417
3034.32	20.4467
3035.15	23.3332
3035.99	22.6397
3036.82	21.7023
3037.65	20.3354
3038.48	20.6148
3039.31	22.5088
3040.14	22.4067
3040.97	21.9839
3041.81	21.396
3042.64	21.7741
3043.47	22.8617
3044.3	23.6349
3045.13	21.9369
3045.96	22.9597
3046.79	22.0435
3047.62	21.4405
3048.45	22.3751
3049.28	22.6546
3050.11	21.0787
3050.94	21.4345
3051.77	19.8439
3052.6	22.546
3053.43	25.8954
3054.26	26.0144
3055.08	21.2029
3055.91	20.797
3056.74	23.8718
3057.26	24.5
3058.09	22
3058.92	22.5
3059.76	24.5
3060.59	23
3061.42	23
3062.25	25.5
3063.09	20
3063.92	21.5
3064.75	24
3065.58	24
3066.42	21
3067.25	20.5
3068.08	23.5
3068.91	25.5
3069.74	23
3070.57	21
3071.41	16
3072.24	23
3073.07	24
3073.9	26.5
3074.73	23.5
3075.56	24
3076.39	21
3077.22	21.5
3078.05	25.5
3078.88	20
3079.71	22.5
3080.54	26
3081.37	23.5
3082.2	26.5
3083.03	22
3083.86	21.5
3084.69	25.5
3085.52	23.5
3086.35	21.5
3087.18	24
3088.01	24
3088.84	22
3089.67	21.5
3090.5	23
3091.32	21
3092.15	22.5
3092.98	24.5
3093.81	23.5
3094.64	25
3095.47	18
3096.29	22.5
3097.12	19.5
3097.95	24
3098.78	23
3099.6	25.5
3100.43	23
3101.26	23.5
3102.09	21
3102.91	25.5
3103.74	22
3104.57	19.5
3105.39	19
3106.22	20
3107.05	25.5
3107.87	23.5
3108.7	23
3109.52	24
3110.35	20
3111.18	22
3112	21
3112.83	24
3113.65	25.5
3114.48	22
3115.3	25
3116.13	21.5
3116.95	24
3117.78	20
3118.6	22
3119.43	25
3120.25	21.5
3121.08	19
3121.9	20
3122.72	21
3123.55	22
3124.37	20
3125.2	20.5
3126.02	24.5
3126.84	21.5
3127.67	25
3128.49	21
3129.31	25
3130.14	26
3130.96	22.5
3131.78	23
3132.61	23.5
3133.43	21
3134.25	24
3135.07	19
3135.89	23
3136.72	26
3137.54	23
3138.36	22
3139.18	21
3140	29
3140.83	22
3141.65	20
3142.47	23.5
3143.29	22
3144.11	24.5
3144.93	17
3145.75	19.5
3146.57	20.5
3147.4	27
3148.22	19
3149.04	26.5
3149.86	21.5
3150.68	27
3151.5	26.5
3152.32	21
3153.14	24.5
3153.96	23.5
3154.78	21.5
3155.59	24.5
3156.42	20.5
3157.23	24.5
3158.05	23
3158.87	23
3159.69	24
3160.51	20
3161.33	23
3162.15	24.5
3162.97	24
3163.78	27.5
3164.6	24
3165.42	23.5
3166.24	28
3167.06	21.5
3167.87	24
3168.69	23.5
3169.51	25
3170.33	23.5
3171.14	22
3171.96	27
3172.78	24
3173.6	23.5
3174.41	27.5
3175.23	26
3176.05	26
3176.86	23
3177.68	27.5
3178.5	25
3179.31	23
3180.13	23
3180.94	21
3181.76	22
3182.58	24.5
3183.39	19
3184.21	24.5
3185.02	25
3185.84	24
3186.65	22.5
3187.47	21
3188.28	21.5
3189.1	26
3189.91	23
3190.73	24.5
3191.54	21
3192.36	24.5
3193.17	20
3193.98	25
3194.8	26
3195.61	27
3196.43	26
3197.24	21.5
3198.05	22.5
3198.87	26.5
3199.68	24
3200.49	23
3201.31	22.5
3202.12	21
3202.93	25
3203.75	24.5
3204.56	20
3205.37	23
3206.18	23
3207	18.5
3207.81	24.5
3208.62	22
3209.43	27.5
3210.24	19
3211.06	22.5
3211.87	25
3212.68	26
3213.49	26.5
3214.3	25.5
3215.11	21
3215.92	23
3216.73	22.5
3217.55	24
3218.36	22
3219.17	25
3219.98	21
3220.79	21
3221.6	19.5
3222.41	23
3223.22	20
3224.03	28
3224.84	21.5
3225.65	23.5
3226.46	28
3227.27	24.5
3228.08	25.5
3228.89	22
3229.7	24.5
3230.5	23.5
3231.31	25
3232.12	23.5
3232.93	24.5
3233.74	26
3234.55	18.5
3235.36	20
3236.16	21
3236.97	21.5
3237.78	25
3238.59	21.5
3239.4	23
3240.2	26
3241.01	22.5
3241.82	21.5
3242.63	27
3243.43	23
3244.24	19
3245.05	23.5
3245.85	23
3246.66	19.5
3247.47	22
3248.27	21
3249.08	23
3249.89	23.5
3250.69	25.5
3251.5	25
3252.31	22
3253.11	26
3253.92	20.5
3254.72	22.5
3255.53	22.5
3256.33	24
3257.14	22
3257.94	26.5
3258.75	25
3259.55	23
3260.36	26.5
3261.16	22.5
3261.97	22
3262.77	21.5
3263.58	23.5
3264.38	24
3265.19	19.5
3265.99	23.5
3266.79	23.5
3267.6	27
3268.4	26.5
3269.21	23.5
3270.01	19
3270.81	25
3271.62	23.5
3272.42	23
3273.22	22
3274.03	25.5
3274.83	23.5
3275.63	24.5
3276.43	25
3277.24	25
3278.04	22.5
3278.84	28
3279.64	24
3280.45	24
3281.25	24.5
3282.05	26
3282.85	21.5
3283.65	24
3284.45	23
3285.26	26.5
3286.06	22.5
3286.86	25
3287.66	23.5
3288.46	22
3289.26	24.5
3290.06	23
3290.86	20
3291.66	22.5
3292.46	23
3293.26	26.5
3294.06	24
3294.86	23
3295.66	26
3296.46	21
3297.26	22
3298.06	25.5
3298.86	23
3299.66	23
3300.46	21.5
3301.26	22
3302.06	26
3302.86	21
3303.66	27
3304.46	20
3305.25	23.5
3306.05	27
3306.85	23
3307.65	22
3308.45	25
3309.25	21.5
3310.04	25
3310.84	23.5
3311.64	22
3312.44	23.5
3313.23	23.5
3314.03	21.5
3314.83	24
3315.63	24
3316.42	22.5
3317.22	23
3318.02	22
3318.81	22
3319.61	23.5
3320.41	23
3321.2	24
3322	27
3322.8	21.5
3323.59	23.5
3324.39	22
3325.18	23.5
3325.98	20.5
3326.78	23.5
3327.57	23.5
3328.37	24.5
3329.16	22.5
3329.96	22
3330.75	27
3331.55	25
3332.34	23
3333.14	24.5
3333.93	23.5
3334.73	19.5
3335.52	22
3336.31	25
3337.11	26
3337.9	25
3338.7	25.5
3339.49	23.5
3340.28	21.5
3341.08	28.5
3341.87	23
3342.66	26.5
3343.46	22.5
3344.25	28
3345.04	23
3345.84	24.5
3346.63	24
3347.42	26.5
3348.22	25
3349.01	24.5
3349.8	21.5
3350.59	21
3351.39	22.5
3352.18	26.5
3352.97	23
3353.76	26.5
3354.55	28
3355.35	22.5
3356.14	26
3356.93	21.5
3357.72	23
3358.51	20.5
3359.3	21.5
3360.09	24.5
3360.88	24
3361.67	23
3362.46	24
3363.26	23
3364.05	26
3364.84	22.5
3365.63	27
3366.42	28
3367.21	24
3368	25
3368.79	21
3369.58	24
3370.37	23
3371.15	22
3371.94	21
3372.73	25
3373.52	25
3374.31	20
3375.1	26
3375.89	26.5
3376.68	27.5
3377.47	25
3378.26	28
3379.04	27.5
3379.83	27
3380.62	27
3381.41	22
3382.2	24
3382.98	21
3383.77	25
3384.56	28
3385.35	23
3386.13	22.5
3386.92	25
3387.71	24.5
3388.5	22.5
3389.28	25
3390.07	23
3390.86	23.5
3391.64	26.5
3392.43	23
3393.22	21.5
3394	21.5
3394.79	22.5
3395.57	22
3396.36	26.5
3397.15	20
3397.93	25
3398.72	21
3399.5	25
3400.29	25.5
3401.07	21
3401.86	26
3402.65	24
3403.43	25.5
3404.21	24
3405	24
3405.78	27.5
3406.57	24
3407.35	19
3408.14	21.5
3408.92	25
3409.71	24
3410.49	22
3411.27	24
3412.06	24
3412.84	26.5
3413.62	26.5
3414.41	21
3415.19	21
3415.97	21
3416.76	29.5
3417.54	22.5
3418.32	24
3419.11	23.5
3419.89	22.5
3420.67	25
3421.46	25.5
3422.24	22
3423.02	23.5
3423.8	20
3424.58	24
3425.37	21
3426.15	25
3426.93	24.5
3427.71	23.5
3428.49	26.5
3429.27	27.5
3430.05	19.5
3430.84	22
3431.62	25
3432.4	22
3433.18	21
3433.96	21.5
3434.74	23.5
3435.52	25
3436.3	25.5
3437.08	23
3437.86	24.5
3438.64	25
3439.42	26
3440.2	19.5
3440.98	23
3441.76	25
3442.54	27.5
3443.32	19
3444.1	18.5
3444.88	21.5
3445.66	27
3446.44	23
3447.22	26
3448	24
3448.77	23
3449.55	24.5
3450.33	25
3451.11	24.5
3451.89	20
3452.67	26.5
3453.45	25.5
3454.22	24.5
3455	25.5
3455.78	20.5
3456.56	24.5
3457.33	25
3458.11	22.5
3458.89	25.5
3459.67	23.5
3460.44	28.5
3461.22	23
3462	24.5
3462.77	21
3463.55	21
3464.33	22
3465.1	26
3465.88	26.5
3466.66	25
3467.43	22
3468.21	24
3468.98	22
3469.76	24
3470.54	23
3471.31	27
3472.09	22
3472.86	25
3473.64	26
3474.41	24.5
3475.19	23
3475.96	23.5
3476.74	25.5
3477.51	22.5
3478.29	24.5
3479.06	24.5
3479.84	25
3480.61	23
3481.39	21.5
3482.16	23.5
3482.93	24.5
3483.71	21
3484.48	26.5
3485.25	21.5
3486.03	26.5
3486.8	25.5
3487.57	26.5
3488.35	24
3489.12	26.5
3489.89	22.5
3490.67	23
3491.44	27
3492.21	25
3492.99	24
3493.76	26
3494.53	19
3495.3	23
3496.08	23
3496.85	25.5
3497.62	22
3498.39	27
3499.16	25
3499.93	28
