#Acq. time (s)=	5
#Accumulations=	5
#Range (cm-¹)=	100...3500
#Windows=	4
#Autofocus=	Off
#AutoExposure=	Off
#Spike filter=	Multiple accum.
#Delay time (s)=	0
#Binning=	1
#Readout mode=	Signal
#DeNoise=	Off
#ICS correction=	Off
#Dark correction=	Off
#Inst. Process=	Off
#Instrument=	LabRAM HR Evol
#Detector=	Syncerity OE
#Objective=	x100_VIS
#Grating=	600 (500nm)
#ND Filter=	25%
#Laser=	633nm_Edge
#Hole=	100.021
#Range=	Visible
#Project=	verificaciones
#Sample=	at2
#Site=	lined
#Title=	bolusat2lined
#Remark=	
#Date=	13.01.2026 15:43
#Acquired=	13.01.2026 15:43:01
100.692	24
101.975	30.5
103.258	30.5
104.542	32
105.824	37.5
107.107	32
108.39	27.5
109.672	32
110.954	31
112.236	29.5
113.519	29
114.8	30
116.081	29
117.362	31
118.643	32
119.924	31.5
121.204	30
122.484	35
123.764	33.5
125.044	33
126.323	36
127.603	32
128.882	37
130.161	31.5
131.438	35.5
132.716	33
133.995	36
135.273	40
136.55	32.5
137.828	39.5
139.106	36
140.383	36.5
141.66	36.5
142.937	39.5
144.213	40
145.488	38
146.764	43.5
148.04	40
149.316	43
150.592	41
151.867	47.5
153.141	44.5
154.416	45
155.69	38
156.965	43
158.239	42.5
159.512	39
160.786	46
162.059	44
163.333	47.5
164.605	44.5
165.878	46.5
167.15	47
168.423	44
169.694	44
170.966	42.5
172.238	40
173.51	43.5
174.78	42
176.052	41
177.323	40
178.592	37
179.863	40
181.134	43.5
182.403	43
183.673	44
184.943	41.5
186.211	41
187.481	44
188.749	43.5
190.018	40.5
191.287	45
192.554	44.5
193.822	40.5
195.089	42.5
196.357	42.5
197.625	39
198.891	39
200.159	39.5
201.425	44
202.692	39
203.957	37.5
205.224	40
206.489	36.5
207.755	36
209.02	36
210.286	33.5
211.55	39.5
212.815	35.5
214.079	36
215.344	35
216.607	34
217.872	35.5
219.135	37
220.399	38
221.662	33
222.924	34
224.187	36
225.449	29
226.713	34
227.974	31
229.235	33
230.498	37
231.759	32.5
233.019	32.5
234.281	30
235.542	31
236.802	35.5
238.063	30
239.323	30
240.582	31.5
241.843	36
243.102	32
244.361	28
245.621	28
246.879	29
248.138	32
249.396	32
250.655	33
251.913	31
253.17	33
254.427	30
255.686	28.5
256.943	32
258.199	30
259.456	31
260.712	29.5
261.969	30
263.225	31.5
264.481	28.5
265.736	32
266.991	29
268.246	26
269.502	29.5
270.757	29
272.011	28.5
273.265	28.5
274.519	30
275.773	29
277.027	29
278.28	30.5
279.533	28
280.786	26
282.04	33
283.293	27.5
284.545	29
285.798	29.5
287.049	33
288.301	27.5
289.553	27.5
290.804	31
292.055	31
293.306	33
294.557	27
295.807	33
297.058	26
298.308	28.5
299.558	33
300.808	28
302.057	28.5
303.305	30
304.554	27.5
305.803	29
307.052	32.5
308.3	27
309.549	27
310.797	32
312.045	28
313.292	30
314.54	32.5
315.786	30
317.033	27
318.28	33.5
319.526	27
320.773	28.5
322.019	27
323.264	35
324.51	31
325.755	26.5
327.001	31
328.246	30
329.49	31
330.735	27
331.979	29.5
333.224	28.5
334.467	31.5
335.711	31.5
336.955	29
338.199	27
339.441	30.5
340.684	27.5
341.927	26.5
343.168	33.5
344.411	30
345.654	30.5
346.895	27.5
348.137	33.5
349.379	26
350.619	27
351.86	28
353.102	27.5
354.341	34.5
355.582	28.5
356.821	31.5
358.062	25
359.302	28.5
360.541	27
361.781	30
363.019	26
364.259	26
365.496	31
366.736	30
367.974	30
369.212	30
370.45	30
371.687	29
372.925	28
374.162	30
375.399	32.5
376.635	26
377.873	24
379.109	30
380.344	28.5
381.581	33.5
382.816	28.5
384.052	30.5
385.287	33
386.523	31
387.757	24.5
388.991	29.5
390.227	27
391.46	33
392.695	30
393.928	30
395.162	29.5
396.396	27
397.629	28.5
398.861	27
400.095	30.5
401.327	31.5
402.559	30
403.792	28.5
405.024	27.5
406.255	29
407.488	34
408.719	28.5
409.949	29
411.18	28.5
412.412	25.5
413.642	26
414.872	30.5
416.102	29
417.333	28
418.562	28
419.791	29
421.02	30.5
422.249	28
423.479	30
424.707	29.5
425.935	31.5
427.163	25
428.391	29.5
429.619	32.5
430.848	25
432.075	31
433.302	29.5
434.529	30
435.755	31.5
436.982	31.5
438.208	29.5
439.434	34
440.66	29.5
441.885	32.5
443.111	30.5
444.338	29
445.563	30.5
446.788	31
448.012	33.5
449.237	29.5
450.461	29
451.685	32.5
452.909	30
454.133	29.5
455.356	29
456.579	33
457.802	35.5
459.025	30.5
460.247	30
461.469	35
462.691	35
463.914	26
465.136	31
466.357	40
467.579	36
468.8	35.5
470.021	35
471.242	42
472.462	36.5
473.682	38.5
474.903	42
476.123	42.5
477.343	42.5
478.563	48.5
479.782	51
481	53.5
482.219	55
483.438	59
484.657	61.5
485.874	61.5
487.093	60
488.311	63
489.529	63
490.747	61
491.963	64
493.181	59.5
494.398	59
495.614	53
496.83	55.5
498.047	50
499.264	52.5
500.479	47
501.695	47
502.911	40.5
504.125	41
505.34	37
506.554	37
507.769	37.5
508.984	37
510.198	37.5
511.412	37
512.627	36
513.839	35.5
515.053	35
516.266	30
517.479	35.5
518.691	30.5
519.905	31.5
521.118	34
522.329	34
523.542	35.5
524.753	29
525.965	31.5
527.176	32.5
528.388	33
529.598	31
530.809	29
532.019	33.5
533.23	32
534.44	34
535.649	29
536.86	32
538.068	28
539.279	31.5
540.487	29.5
541.697	32
542.905	30.5
544.113	34
545.322	29.5
546.53	33
547.737	33.5
548.946	30
550.153	28
551.361	32
552.568	34
553.774	32
554.982	25
556.188	31
557.394	31.5
558.599	32
559.806	28.5
561.012	30.5
562.217	30
563.423	28.5
564.628	34
565.832	30
567.036	31
568.241	31
569.446	28.5
570.65	32
571.853	27.5
573.057	28
574.26	30.5
575.464	31
576.667	28.5
577.87	29
579.072	32.5
580.274	27.5
581.477	29
582.68	25.5
583.881	30
585.083	33
586.284	32
587.485	30
588.686	30
589.887	30.5
591.087	30
592.288	27.5
593.488	32
594.688	25
595.888	30
597.087	29
598.287	29
599.486	32.5
600.685	38.5
601.884	27
603.082	26.5
604.281	25.5
605.479	31.5
606.677	28
607.875	31.5
609.073	31.5
610.27	27
611.468	32.5
612.665	30
613.862	31
615.058	30
616.255	27
617.451	28.5
618.648	30
619.842	26
621.038	30.5
622.234	31.5
623.429	29
624.624	30.5
625.819	32.5
627.013	30
628.207	28.5
629.402	34
630.596	29
631.79	29
632.983	26.5
634.177	30
635.37	35.5
636.564	28.5
637.755	30
638.948	29
640.141	32.5
641.334	30
642.525	29
643.717	30
644.909	28.5
646.099	30
647.291	28.5
648.483	35
649.674	29
650.864	30.5
652.055	30
653.244	30
654.435	31.5
655.625	31
656.814	27
658.004	27
659.193	30
660.382	34.5
661.571	32.5
662.759	30.5
663.948	32.5
665.135	30
666.324	34
667.511	32.5
668.7	35
669.886	33
671.074	32.5
672.262	30
673.448	33
674.634	33
675.821	35.5
677.007	34.5
678.194	28.5
679.379	31.5
680.565	35.5
681.75	33.5
682.936	37.5
684.121	35
685.305	37.5
686.491	37.5
687.675	38
688.86	35
690.043	37
691.227	37
692.411	36
693.594	39
694.777	37
695.961	38
697.144	37.5
698.326	34
699.509	37
700.691	43
701.873	42.5
703.056	46
704.237	46
705.419	49
706.599	49.5
707.782	53
708.962	55.5
710.143	54
711.323	49.5
712.504	48.5
713.684	41
714.864	43
716.043	37.5
717.223	32
718.403	35
719.582	35
720.761	31
721.94	32.5
723.118	32
724.296	32
725.474	30
726.652	36.5
727.831	30.5
729.009	29
730.186	30.5
731.363	29.5
732.54	27.5
733.717	29
734.893	29
736.07	31
737.246	29
738.422	28
739.598	29
740.773	28
741.949	29.5
743.124	29
744.299	35
745.474	28.5
746.649	27.5
747.823	26.5
748.997	32
750.172	30
751.346	34
752.519	31.5
753.693	31.5
754.867	26
756.038	31
757.211	30
758.384	25
759.557	29
760.73	25.5
761.902	28.5
763.074	29.5
764.246	29
765.417	27.5
766.588	27
767.76	27
768.931	30
770.102	29.5
771.271	29
772.442	30.5
773.613	29
774.783	33.5
775.952	29.5
777.122	27.5
778.291	31
779.461	29.5
780.629	31.5
781.798	30
782.967	32.5
784.135	29
785.304	34
786.472	36
787.639	31.5
788.807	31
789.975	33.5
791.142	33
792.309	37.5
793.477	33.5
794.642	29.5
795.81	30.5
796.975	31
798.142	33
799.308	29.5
800.473	32.5
801.639	30.5
802.804	29.5
803.97	29.5
805.134	29.5
806.299	31
807.463	29
808.628	28.5
809.792	29.5
810.957	27.5
812.12	32
813.284	31
814.447	28
815.611	33.5
816.773	28
817.937	26
819.099	31
820.261	30
821.424	26.5
822.585	26
823.748	32
824.909	29.5
826.07	31.5
827.232	28.5
828.393	30
829.554	28.5
830.715	26
831.875	30
833.035	28.5
834.196	29.5
835.356	27.5
836.515	27.5
837.676	24
838.835	30
839.994	29
841.152	25
842.312	25
843.47	28.5
844.629	28
845.786	25
846.946	26.5
848.103	27
849.261	30
850.418	30
851.575	29
852.733	26
853.89	31.5
855.046	29
856.203	35
857.359	30
858.515	32
859.67	26.5
860.827	30
861.983	32.5
863.138	30.5
864.293	31.5
865.448	26.5
866.603	27.5
867.757	31
868.912	31
870.066	30
871.22	29
872.374	31
873.527	30.5
874.681	26
875.834	30.5
876.987	28
878.14	31
879.293	28.5
880.445	27.5
881.598	29
882.75	27.5
883.902	26
885.054	27.5
886.206	26
887.357	32.5
888.507	24.5
889.658	29.5
890.809	29
891.96	29.5
893.111	27
894.261	27
895.411	26.5
896.561	28
897.71	27.5
898.86	31
900.009	27.5
901.159	29
902.308	28.5
903.455	25
904.604	23.5
905.753	26
906.901	28
908.048	26
909.197	24
910.344	28
911.492	23
912.639	27
913.786	30
914.933	30
916.079	27.5
917.226	24.5
918.373	31
919.518	27
920.664	27.5
921.81	29
922.955	26
924.101	28
925.245	31
926.391	26.5
927.536	24.5
928.68	27
929.825	29
930.968	25.5
932.113	27.5
933.256	24
934.4	25
935.543	27
936.687	26
937.83	25.5
938.973	27
940.115	25.5
941.258	23
942.399	27
943.542	28
944.684	27
945.826	31
946.967	25.5
948.109	32
949.25	26
950.392	30.5
951.532	28.5
952.672	27
953.813	25.5
954.953	23
956.093	23.5
957.233	27
958.373	30.5
959.512	31.5
960.652	29
961.791	26
962.929	27.5
964.069	22
965.207	26.5
966.345	28
967.484	28.5
968.622	28.5
969.759	26
970.896	26.5
972.035	27
973.172	29
974.309	29
975.445	27.5
976.582	27
977.719	27
978.855	26
979.991	28
981.127	27.5
982.263	33
983.398	25
984.535	23
985.67	26
986.804	27.5
987.939	26.5
989.074	25.5
990.208	27
991.342	29.5
992.476	26
993.61	23
994.744	29.5
995.877	27
997.01	27.5
998.143	28
999.276	27.5
1000.41	25.5
1001.54	29
1002.67	26.5
1003.81	25
1004.94	23
1006.07	27.5
1007.2	29.5
1008.33	27
1009.47	28.5
1010.6	26
1011.73	23
1012.86	23
1013.99	27.5
1015.12	26.5
1016.25	28.5
1017.38	27
1018.51	25
1019.64	30
1020.77	28
1021.9	27.5
1023.03	29
1024.15	24.5
1025.28	21
1026.41	25
1027.54	24
1028.67	27
1029.8	24
1030.92	27
1032.05	28.5
1033.18	26.5
1034.31	25.5
1035.43	25
1036.56	26
1037.69	25
1038.81	26.5
1039.94	30
1041.07	29
1042.19	26
1043.32	24
1044.44	26
1045.57	26
1046.69	26
1047.82	26.5
1048.94	26.5
1050.07	23
1051.19	26
1052.32	29
1053.44	23.5
1054.57	24.5
1055.69	28.5
1056.81	25
1057.94	28
1059.06	27
1060.18	27.5
1061.31	26.5
1062.43	25
1063.55	19.5
1064.67	25.5
1065.8	27.5
1066.92	29.5
1068.04	23.5
1069.16	27
1070.28	28
1071.4	27
1072.52	29
1073.64	21
1074.76	28
1075.89	26
1077.01	25
1078.13	28
1079.25	28
1080.37	24
1081.49	26
1082.6	24.5
1083.72	21
1084.84	28.5
1085.96	25
1087.08	25.5
1088.2	26.5
1089.32	27.5
1090.43	23
1091.55	30.5
1092.67	27
1093.79	28
1094.91	24.5
1096.02	25.5
1097.14	23
1098.26	27
1099.37	22
1100.49	27
1101.61	29.5
1102.72	24.5
1103.84	24
1104.95	26
1106.07	24.5
1107.18	23.5
1108.3	22.5
1109.41	26.5
1110.53	29
1111.64	28.5
1112.76	26
1113.87	23
1114.99	32
1116.1	27
1117.21	23.5
1118.33	25
1119.44	25.5
1120.55	21.5
1121.67	24
1122.78	27.5
1123.89	27.5
1125	24.5
1126.12	20
1127.23	21.5
1128.34	25
1129.45	26.5
1130.56	26
1131.68	26.5
1132.79	23
1133.9	27
1135.01	24
1136.12	24
1137.23	24.5
1138.34	22.5
1139.45	28.5
1140.56	24
1141.67	27.5
1142.78	26.5
1143.89	24
1145	27.5
1146.11	23
1147.22	26
1148.32	21
1149.43	25.5
1150.54	25
1151.65	23
1152.76	29.5
1153.86	24.5
1154.97	27.5
1156.08	26
1157.19	27.5
1158.29	25.5
1159.4	25
1160.51	27
1161.61	25
1162.72	24.5
1163.83	24
1164.93	28.5
1166.04	26.5
1167.14	26
1168.25	30
1169.35	31
1170.46	29.5
1171.56	22.5
1172.67	23.5
1173.77	25.5
1174.88	20
1175.98	25.5
1177.08	26.5
1178.19	28
1179.29	29
1180.4	25.5
1181.5	23
1182.6	27.5
1183.71	28
1184.81	25
1185.91	24.5
1187.01	26
1188.12	24.5
1189.22	25.5
1190.32	25
1191.42	21
1192.52	26
1193.62	29
1194.72	23.9986
1195.83	27.8842
1196.93	24.5053
1198.03	22.653
1199.13	24.9872
1200.23	26.3449
1201.33	27.3141
1202.43	20.49
1203.53	27.3784
1204.63	26.1518
1205.73	25.7028
1206.83	26.8468
1207.92	21.9248
1209.02	25.0697
1210.12	23.6811
1211.22	23.1183
1212.32	24.6326
1213.42	21.5776
1214.51	26.4516
1215.61	19.4714
1216.71	25.7658
1217.81	21.8817
1218.9	24.8431
1220	27.1763
1221.1	22.1542
1222.19	22.5535
1223.29	26.048
1224.39	25.6221
1225.48	26.1784
1226.58	27.4356
1227.68	24.0209
1228.77	24.2857
1229.87	25.6725
1230.96	24.0243
1232.06	26.9792
1233.15	25.1206
1234.25	20.3003
1235.34	25.6059
1236.43	27.8452
1237.53	27.0778
1238.62	26.2784
1239.72	25.1943
1240.81	24.1983
1241.9	24.733
1243	24.1352
1244.09	22.5003
1245.18	26.3148
1246.27	23.4693
1247.37	24.5621
1248.46	24.7495
1249.55	26.5067
1250.64	25.477
1251.74	24.5429
1252.83	28.3946
1253.92	26.071
1255.01	26.6414
1256.1	28.4604
1257.19	28.8923
1258.28	25.4567
1259.38	24.6187
1260.46	24.0862
1261.56	29.0463
1262.65	26.8986
1263.74	27.7884
1264.82	25.1294
1265.91	26.6943
1267	24.6692
1268.09	26.2211
1269.18	22.931
1270.27	25.1087
1271.36	24.7837
1272.45	24.1975
1273.54	23.6859
1274.63	28.1448
1275.71	27.1545
1276.8	26.3869
1277.89	27.0858
1278.98	25.2672
1280.06	26.7061
1281.15	21.5613
1282.24	25.4975
1283.32	24.6438
1284.41	24.5085
1285.5	24.3411
1286.58	22.3169
1287.67	24.3462
1288.76	23.6557
1289.84	23.5624
1290.93	23.6273
1292.01	21.3431
1293.1	22.6178
1294.18	21.8128
1295.27	25.611
1296.35	25.5304
1297.44	25.7241
1298.52	26.9011
1299.6	23.6775
1300.69	25.1646
1301.77	27.1407
1302.86	23.9104
1303.94	25.0697
1305.02	25.2655
1306.11	22.1219
1306.41	21
1307.5	26
1308.59	27
1309.68	27
1310.77	26
1311.85	24
1312.94	26
1314.03	23
1315.11	24.5
1316.2	25
1317.29	25.5
1318.37	26
1319.46	28
1320.55	26.5
1321.63	27
1322.72	28
1323.8	20
1324.89	27.5
1325.98	25
1327.06	23.5
1328.15	28
1329.23	21
1330.31	28
1331.4	29
1332.48	25.5
1333.57	25
1334.65	26.5
1335.74	29.5
1336.82	27
1337.9	25
1338.99	27
1340.07	26
1341.15	26.5
1342.24	25.5
1343.32	25
1344.4	25
1345.48	25.5
1346.56	25.5
1347.65	27.5
1348.73	23.5
1349.81	27.5
1350.89	23
1351.97	23.5
1353.05	27
1354.13	25
1355.21	24.5
1356.29	21
1357.37	26.5
1358.46	22.5
1359.54	23
1360.62	29
1361.69	26
1362.77	27.5
1363.85	24
1364.93	27
1366.01	26
1367.09	22
1368.17	24
1369.25	29.5
1370.33	31.5
1371.41	27
1372.48	26.5
1373.56	26
1374.64	25
1375.72	25
1376.79	22
1377.87	22.5
1378.95	24
1380.02	25.5
1381.1	27
1382.18	27.5
1383.25	22
1384.33	27.5
1385.4	27
1386.48	26
1387.56	29
1388.63	26
1389.71	25
1390.78	23
1391.86	28.5
1392.93	27
1394.01	29
1395.08	28
1396.15	27
1397.23	29
1398.3	27.5
1399.38	32
1400.45	27
1401.52	29
1402.6	29.5
1403.67	26.5
1404.74	33
1405.81	34
1406.89	31.5
1407.96	31.5
1409.03	31.5
1410.1	28.5
1411.17	30
1412.25	38
1413.32	34
1414.39	39
1415.46	34
1416.53	29.5
1417.6	28.5
1418.67	31
1419.74	28.5
1420.81	28.5
1421.88	25
1422.95	30
1424.02	26.5
1425.09	30.5
1426.16	31
1427.23	25.5
1428.3	25.5
1429.37	27
1430.44	26.5
1431.51	31
1432.58	29
1433.64	25
1434.71	26
1435.78	28.5
1436.85	26
1437.92	29
1438.98	24.5
1440.05	28
1441.12	27
1442.18	28.5
1443.25	21
1444.32	29
1445.38	25
1446.45	25
1447.52	25
1448.58	25
1449.65	25.5
1450.71	25
1451.78	24
1452.84	27
1453.91	23.5
1454.97	23.5
1456.04	24.5
1457.1	25
1458.17	31
1459.23	26
1460.3	28
1461.36	28
1462.42	26.5
1463.49	31
1464.55	22.5
1465.61	27
1466.68	28
1467.74	24
1468.8	28
1469.86	29
1470.93	24.5
1471.99	27
1473.05	23
1474.11	25
1475.17	24
1476.24	26.5
1477.3	30
1478.36	23.5
1479.42	26
1480.48	29
1481.54	27
1482.6	27.5
1483.66	27.5
1484.72	29
1485.78	22
1486.84	25
1487.9	25
1488.96	27
1490.02	24
1491.08	24.5
1492.14	27
1493.2	29.5
1494.26	27.5
1495.31	27
1496.37	28
1497.43	28
1498.49	27
1499.55	24
1500.6	30.5
1501.66	24
1502.72	25.5
1503.78	25.5
1504.83	26
1505.89	22
1506.95	27
1508	28.5
1509.06	29
1510.12	26
1511.17	24
1512.23	26.5
1513.28	25.5
1514.34	26.5
1515.39	30
1516.45	24
1517.5	27
1518.56	23.5
1519.61	28
1520.67	26
1521.72	30.5
1522.78	24.5
1523.83	22
1524.88	28
1525.94	26
1526.99	25
1528.05	26
1529.1	28
1530.15	24.5
1531.2	27.5
1532.26	28.5
1533.31	28
1534.36	25
1535.41	26.5
1536.47	30
1537.52	26
1538.57	27.5
1539.62	26
1540.67	20
1541.72	26
1542.77	24.5
1543.83	28
1544.88	27.5
1545.93	27
1546.98	23
1548.03	28.5
1549.08	25.5
1550.13	29
1551.18	23.5
1552.23	28
1553.28	23.5
1554.32	27.5
1555.37	26
1556.42	26.5
1557.47	25
1558.52	27.5
1559.57	24
1560.62	26.5
1561.67	25
1562.71	26.5
1563.76	25.5
1564.81	25.5
1565.86	23
1566.9	29
1567.95	28.5
1569	28
1570.04	28.5
1571.09	25.5
1572.14	25.5
1573.18	26
1574.23	29
1575.27	24.5
1576.32	24.5
1577.37	29
1578.41	28
1579.46	25
1580.5	25
1581.55	25
1582.59	30
1583.64	22.5
1584.68	27
1585.72	27
1586.77	27.5
1587.81	27
1588.86	23
1589.9	25.5
1590.94	26.5
1591.99	24
1593.03	26.5
1594.07	26
1595.12	27
1596.16	25.5
1597.2	25
1598.24	24.5
1599.29	26
1600.33	20
1601.37	30.5
1602.41	26
1603.45	26
1604.49	25
1605.53	23
1606.58	24.5
1607.62	28.5
1608.66	27.5
1609.7	26
1610.74	25.5
1611.78	24
1612.82	28.5
1613.86	27
1614.9	28.5
1615.94	23.5
1616.98	26
1618.02	25
1619.06	23.5
1620.09	28
1621.13	23.5
1622.17	25.5
1623.21	28.5
1624.25	27
1625.29	24
1626.32	26.5
1627.36	26.5
1628.4	24.5
1629.44	28
1630.47	27
1631.51	25
1632.55	27
1633.58	25.5
1634.62	24.5
1635.66	27
1636.69	25
1637.73	29
1638.77	26
1639.8	25
1640.84	26
1641.87	25
1642.91	25.5
1643.94	29
1644.98	24.5
1646.01	28.5
1647.05	28
1648.08	29
1649.12	24
1650.15	26
1651.18	26
1652.22	26.5
1653.25	27.5
1654.29	29
1655.32	24.5
1656.35	24.5
1657.39	29.5
1658.42	23.5
1659.45	25
1660.48	25
1661.52	25.5
1662.55	32
1663.58	25
1664.61	23
1665.64	25.5
1666.68	22
1667.71	26
1668.74	27
1669.77	22
1670.8	30.5
1671.83	28
1672.86	25
1673.89	20.5
1674.92	28
1675.95	26
1676.98	28
1678.01	22
1679.04	23
1680.07	25
1681.1	25.5
1682.13	24.5
1683.16	24
1684.19	28
1685.22	22
1686.25	26.5
1687.27	28
1688.3	29
1689.33	23.5
1690.36	24
1691.38	22.5
1692.41	26
1693.44	23
1694.47	24
1695.49	27.5
1696.52	26
1697.55	29
1698.57	26
1699.6	27
1700.63	24
1701.65	27.5
1702.68	29
1703.7	25
1704.73	24
1705.76	27
1706.78	27
1707.81	24.5
1708.83	28
1709.86	23
1710.88	26.5
1711.91	21
1712.93	22.5
1713.95	28
1714.98	29.5
1716	22.5
1717.03	23
1718.05	27.5
1719.07	26.5
1720.1	22.5
1721.12	26.5
1722.14	30.5
1723.16	25.5
1724.19	29
1725.21	27
1726.23	25
1727.25	28
1728.28	26
1729.3	25.5
1730.32	25
1731.34	24.5
1732.36	25.5
1733.38	25.5
1734.41	26.5
1735.43	23
1736.45	24.5
1737.47	27
1738.49	27.5
1739.51	26.5
1740.53	25
1741.55	24.5
1742.57	26.5
1743.59	26
1744.61	27
1745.63	24.5
1746.64	27
1747.66	24
1748.68	27
1749.7	23
1750.72	28
1751.74	25.5
1752.76	23.5
1753.77	26.5
1754.79	26
1755.81	25.5
1756.83	26
1757.84	24
1758.86	26
1759.88	27
1760.9	26
1761.91	24
1762.93	22.5
1763.95	27
1764.96	24
1765.98	26.5
1766.99	22
1768.01	23.5
1769.02	24.5
1770.04	26
1771.06	27.5
1772.07	27
1773.09	24
1774.1	24.5
1775.12	23.5
1776.13	27.5
1777.14	20
1778.16	26
1779.17	26.5
1780.19	24.5
1781.2	24.5
1782.21	26.5
1783.23	22.5
1784.24	22
1785.25	26.5
1786.27	25
1787.28	28.5
1788.29	25
1789.3	25.5
1790.32	26.5
1791.33	27
1792.34	26
1793.35	24
1794.36	25.5
1795.38	28.5
1796.39	27
1797.4	24
1798.41	23
1799.42	28
1800.43	23.5
1801.44	31
1802.45	25
1803.46	30
1804.47	29
1805.48	25
1806.49	26
1807.5	26
1808.51	23.5
1809.52	25
1810.53	27
1811.54	27.5
1812.55	26.5
1813.56	26.5
1814.57	26.5
1815.57	28
1816.58	28
1817.59	28
1818.6	22
1819.61	24
1820.61	30
1821.62	26
1822.63	28
1823.64	24.5
1824.64	26.5
1825.65	25.5
1826.66	28.5
1827.66	25
1828.67	27.5
1829.68	26
1830.68	25
1831.69	25
1832.69	24.5
1833.7	21.5
1834.7	26
1835.71	24.5
1836.71	24.5
1837.72	25.5
1838.72	27
1839.73	25
1840.73	25.5
1841.74	27
1842.74	23.5
1843.75	24.5
1844.75	25
1845.75	23.5
1846.76	28
1847.76	24.5
1848.76	24.5
1849.77	22.5
1850.77	23.5
1851.77	26
1852.78	27
1853.78	24.5
1854.78	25.5
1855.78	20
1856.78	27
1857.79	23.5
1858.79	24.5
1859.79	27
1860.79	25.5
1861.79	25
1862.79	27
1863.79	27.5
1864.79	26
1865.79	27
1866.8	28.5
1867.8	26
1868.8	26.5
1869.8	27
1870.8	31.5
1871.8	26
1872.8	24
1873.79	24
1874.79	21
1875.79	24.5
1876.79	22
1877.79	27
1878.79	24
1879.79	23.5
1880.79	25
1881.78	26
1882.78	26
1883.78	26
1884.78	26.5
1885.77	25
1886.77	25
1887.77	25.5
1888.77	25
1889.76	26
1890.76	22
1891.76	26
1892.75	25
1893.75	25.5
1894.75	24.5
1895.74	25.5
1896.74	27.5
1897.73	28
1898.73	24.5
1899.73	25.5
1900.72	24.5
1901.72	22.5
1902.71	22
1903.7	24.5
1904.7	28
1905.69	24.5
1906.69	30.5
1907.68	29.5
1908.68	27
1909.67	25
1910.66	22
1911.66	21
1912.65	24.5
1913.64	25.5
1914.64	24
1915.63	26
1916.62	24
1917.62	26.5
1918.61	27
1919.6	25.5
1920.59	21
1921.58	21.5
1922.58	25
1923.57	27
1924.56	24
1925.55	25
1926.54	25.5
1927.53	25.5
1928.52	27.5
1929.51	22
1930.51	26.5
1931.5	26.5
1932.49	26
1933.48	20
1934.47	24
1935.46	23
1936.45	24.5
1937.44	24
1938.42	28
1939.41	25.5
1940.4	23.5
1941.39	29
1942.38	25.5
1943.37	24
1944.36	24
1945.35	26
1946.33	24.5
1947.32	23
1948.31	24.5
1949.3	25.5
1950.29	24.5
1951.27	27.5
1952.26	26.5
1953.25	23
1954.23	24.5
1955.22	25
1956.21	23
1957.19	24
1958.18	28
1959.17	26
1960.15	25
1961.14	25
1962.13	24
1963.11	26
1964.1	24
1965.08	25
1966.07	20.5
1967.05	24
1968.04	25.5
1969.02	24.5
1970.01	23
1970.99	24
1971.97	24.5
1972.96	23
1973.94	24.5
1974.93	25
1975.91	24
1976.89	21.5
1977.88	25.5
1978.86	27
1979.84	23.5
1980.83	25
1981.81	25
1982.79	24
1983.77	24
1984.76	23.5
1985.74	24.5
1986.72	21
1987.7	22
1988.68	28
1989.67	24.5
1990.65	25
1991.63	24.5
1992.61	21.5
1993.59	25
1994.57	24
1995.55	27
1996.53	20
1997.51	25
1998.49	24.5
1999.47	21
2000.45	24.5
2001.43	26
2002.41	24.5
2003.39	24
2004.37	25
2005.35	25
2006.33	25
2007.31	24
2008.29	23
2009.26	23.5
2010.24	28
2011.22	23.5
2012.2	21
2013.18	24.5
2014.15	23
2015.13	23.5
2016.11	24.5
2017.09	23.5
2018.06	24
2019.04	24.5
2020.02	25.5
2021	25
2021.97	28
2022.95	25.5
2023.92	27.5
2024.9	24
2025.88	21
2026.85	26
2027.83	18.5
2028.8	23
2029.78	27
2030.75	25.5
2031.73	26
2032.7	25.5
2033.68	25.5
2034.65	22
2035.63	23.5
2036.6	26
2037.58	24
2038.55	24
2039.52	23
2040.5	25.5
2041.47	22
2042.45	25
2043.42	25
2044.39	24
2045.36	25.5
2046.34	22.5
2047.31	22
2048.28	23.5
2049.26	22
2050.23	26.5
2051.2	21
2052.17	26
2053.14	23
2054.12	19
2055.09	23.5
2056.06	25
2057.03	26.5
2058	25.5
2058.97	23
2059.94	19.5
2060.91	23
2061.88	29
2062.85	25
2063.82	25
2064.79	26
2065.76	21
2066.73	26
2067.7	23
2068.67	24
2069.64	23.5
2070.61	23
2071.58	20.5
2072.55	24
2073.52	24
2074.49	23
2075.45	25
2076.42	24.5
2077.39	26
2078.36	24.5
2079.33	25.5
2080.29	24.5
2081.26	23.5
2082.23	20.5
2083.2	23
2084.16	25.5
2085.13	23
2086.1	23
2087.06	26
2088.03	21
2089	23
2089.96	25
2090.93	27.5
2091.89	25.5
2092.86	25
2093.83	22
2094.79	22
2095.76	23
2096.72	24
2097.69	23.5
2098.65	23
2099.62	26
2100.58	23.5
2101.55	22
2102.51	21.5
2103.47	25.5
2104.44	24.5
2105.4	24.5
2106.36	18.5
2107.33	23
2108.29	23
2109.25	24.5
2110.22	22.5
2111.18	20
2112.14	24
2113.11	24
2114.07	25.5
2115.03	23.5
2115.99	25
2116.96	24.5
2117.92	25
2118.88	24
2119.84	27.5
2120.8	24
2121.76	26
2122.72	20.5
2123.68	20
2124.65	21.5
2125.61	24
2126.57	22
2127.53	24
2128.49	22.5
2129.45	24.5
2130.41	22
2131.37	24
2132.33	23
2133.29	22.5
2134.25	23
2135.21	25
2136.17	22.5
2137.12	24
2138.08	22.5
2139.04	24.5
2140	19
2140.96	23
2141.92	23
2142.88	24.4903
2143.83	23.932
2144.79	25.9515
2145.75	22.068
2146.71	24.4549
2147.66	22.9953
2148.62	23.5696
2149.58	27.5448
2150.53	23.7931
2151.49	21.1066
2152.45	21.8172
2153.4	23.9098
2154.36	21.9166
2155.32	24.7959
2156.27	24.4181
2157.23	23.9496
2158.19	21.9005
2159.14	22.2886
2160.1	23.7657
2161.05	23.0766
2162.01	23.8564
2162.96	23.8967
2163.92	25.8345
2164.87	24.3665
2165.83	24.085
2166.78	23.7519
2167.73	23.7663
2168.69	23.5262
2169.64	24.6655
2170.6	21.4342
2171.55	19.9283
2172.5	21.9388
2173.46	24.5138
2174.41	24.3363
2175.36	24.1812
2176.32	24.6992
2177.27	22.7984
2178.22	23.6984
2179.18	25.3131
2180.13	24.2973
2181.08	24.0505
2182.03	23.4681
2182.98	22.5
2183.94	24.7962
2184.89	22.5127
2185.84	20.3575
2186.79	23.0369
2187.74	25.7669
2188.69	21.2646
2189.64	20.8341
2190.6	24.6837
2191.55	23.1983
2192.5	21.7504
2193.45	22.2653
2194.4	22.9367
2195.35	24.5388
2196.3	20.9291
2197.25	20.9958
2198.2	25.2534
2199.15	24.0218
2200.1	22.8599
2201.04	26.1588
2201.99	19.9196
2202.94	19.955
2203.89	25.1534
2204.84	22.0592
2205.79	23.1145
2206.74	23.1379
2207.69	18.9084
2208.63	22.6096
2209.58	24.3932
2210.53	24.2128
2211.48	23.7961
2212.43	24.0096
2213.37	21.0665
2214.32	20.4306
2215.27	24.4876
2216.21	21.6737
2217.16	25.0156
2218.11	22.2451
2219.05	24.3417
2220	22.4021
2220.95	20.6076
2221.89	22.8455
2222.84	22.6238
2223.78	25.0732
2224.73	22.5253
2225.68	24.731
2226.62	24.5774
2227.57	24.4757
2228.51	24.3339
2229.46	22.7641
2230.4	22.3667
2231.35	22.8684
2232.29	23.7807
2233.24	22.9659
2234.18	20.2945
2235.12	20.8361
2236.07	23.7136
2237.01	21.7411
2237.95	21.8049
2238.9	20.4694
2239.84	25.3333
2240.06	27
2241.01	22.5
2241.96	23.5
2242.91	23
2243.86	23
2244.8	19.5
2245.75	21.5
2246.7	19.5
2247.65	25
2248.59	24
2249.54	23.5
2250.49	23
2251.43	22.5
2252.38	18.5
2253.33	26
2254.27	23.5
2255.22	22
2256.16	20.5
2257.11	23
2258.06	23
2259	21
2259.95	24
2260.89	24
2261.84	25
2262.78	21
2263.73	24.5
2264.67	21.5
2265.62	22
2266.56	25
2267.5	23.5
2268.45	27
2269.39	24
2270.34	22.5
2271.28	29
2272.22	25.5
2273.17	24
2274.11	25
2275.05	25
2276	22
2276.94	26
2277.88	22.5
2278.82	22.5
2279.77	22.5
2280.71	23.5
2281.65	22.5
2282.59	20.5
2283.53	21
2284.48	23.5
2285.42	21.5
2286.36	23
2287.3	20
2288.24	21.5
2289.18	24.5
2290.12	25
2291.06	24
2292	26
2292.94	23
2293.89	24
2294.83	23.5
2295.77	25.5
2296.71	24
2297.65	25.5
2298.58	23.5
2299.52	24.5
2300.46	23
2301.4	20.5
2302.34	20.5
2303.28	24.5
2304.22	25
2305.16	21.5
2306.1	24
2307.03	25
2307.97	24
2308.91	24.5
2309.85	28.5
2310.79	23.5
2311.72	22
2312.66	26.5
2313.6	19.5
2314.54	23
2315.47	23.5
2316.41	24
2317.35	19.5
2318.28	20
2319.22	26
2320.16	21.5
2321.09	25.5
2322.03	24
2322.96	24
2323.9	24.5
2324.84	25
2325.77	23.5
2326.71	22.5
2327.64	21.5
2328.58	23
2329.51	22.5
2330.45	23
2331.38	20
2332.32	25
2333.25	21
2334.18	28
2335.12	24.5
2336.05	26
2336.99	22
2337.92	21.5
2338.85	20.5
2339.79	25
2340.72	24
2341.65	26.5
2342.59	26.5
2343.52	25
2344.45	28
2345.39	24.5
2346.32	25
2347.25	27
2348.18	24.5
2349.11	22.5
2350.05	25
2350.98	22.5
2351.91	18.5
2352.84	19
2353.77	25
2354.7	23
2355.64	22
2356.57	23
2357.5	28.5
2358.43	26
2359.36	25.5
2360.29	26.5
2361.22	22
2362.15	22
2363.08	25
2364.01	19
2364.94	24.5
2365.87	20.5
2366.8	23.5
2367.73	27.5
2368.66	22
2369.58	23
2370.51	21.5
2371.44	23.5
2372.37	24
2373.3	26
2374.23	28
2375.16	22
2376.08	26.5
2377.01	23.5
2377.94	24
2378.87	21.5
2379.8	27
2380.72	19
2381.65	25.5
2382.58	22
2383.5	19.5
2384.43	20
2385.36	24
2386.28	21
2387.21	24.5
2388.14	23
2389.06	19
2389.99	26
2390.91	23
2391.84	21
2392.77	25.5
2393.69	24.5
2394.62	22
2395.54	25
2396.47	22
2397.39	24
2398.32	21.5
2399.24	28.5
2400.16	22
2401.09	24
2402.01	24
2402.94	24
2403.86	24.5
2404.78	26
2405.71	24.5
2406.63	28.5
2407.56	25
2408.48	24
2409.4	25.5
2410.32	23
2411.25	23
2412.17	26
2413.09	22.5
2414.02	22.5
2414.94	26
2415.86	23
2416.78	24.5
2417.7	21.5
2418.63	23
2419.55	22.5
2420.47	24
2421.39	24.5
2422.31	22
2423.23	24
2424.15	24.5
2425.07	23
2425.99	26.5
2426.92	25.5
2427.84	26.5
2428.76	26.5
2429.68	24
2430.59	22.5
2431.51	24.5
2432.43	24.5
2433.35	24
2434.27	21.5
2435.19	27.5
2436.11	26
2437.03	27
2437.95	22.5
2438.87	27
2439.79	20.5
2440.71	24
2441.62	24
2442.54	27
2443.46	22
2444.38	25
2445.3	26
2446.21	23
2447.13	24
2448.05	24.5
2448.97	22.5
2449.88	22.5
2450.8	24
2451.72	24.5
2452.63	27
2453.55	22.5
2454.47	20
2455.38	25.5
2456.3	25.5
2457.21	23.5
2458.13	24
2459.05	23
2459.96	24
2460.88	25.5
2461.79	24.5
2462.71	22
2463.62	23
2464.54	25.5
2465.45	28
2466.37	26.5
2467.28	26
2468.2	23
2469.11	24.5
2470.02	22.5
2470.94	28.5
2471.85	22
2472.77	27
2473.68	25.5
2474.59	21
2475.51	24.5
2476.42	28
2477.33	22
2478.25	22
2479.16	23.5
2480.07	24
2480.98	27
2481.9	23
2482.81	24
2483.72	22.5
2484.63	28
2485.55	23
2486.46	24
2487.37	26
2488.28	21
2489.19	26
2490.1	21.5
2491.01	24
2491.92	26
2492.83	24.5
2493.74	24.5
2494.66	22.5
2495.57	24
2496.48	23
2497.39	29
2498.3	23
2499.21	27
2500.12	25
2501.03	25
2501.93	23.5
2502.84	24.5
2503.75	26.5
2504.66	22.5
2505.57	23.5
2506.48	26
2507.39	23
2508.3	23.5
2509.21	21.5
2510.11	30
2511.02	25
2511.93	24.5
2512.84	26
2513.75	27.5
2514.65	25.5
2515.56	25
2516.47	24.5
2517.37	25.5
2518.28	24
2519.19	21
2520.09	24
2521	25.5
2521.91	20.5
2522.81	24
2523.72	25
2524.63	24.5
2525.53	25
2526.44	26
2527.34	22
2528.25	28
2529.16	27.5
2530.06	26
2530.97	24.5
2531.87	26.5
2532.78	21
2533.68	20
2534.58	25
2535.49	21
2536.39	27.5
2537.3	27
2538.2	21.5
2539.11	21.5
2540.01	26
2540.91	27
2541.82	25
2542.72	22.5
2543.62	22.5
2544.53	21.5
2545.43	23.5
2546.33	26
2547.23	24
2548.14	26
2549.04	24.5
2549.94	27
2550.84	25.5
2551.75	20
2552.65	27.5
2553.55	26
2554.45	25
2555.35	23.5
2556.26	23
2557.16	24.5
2558.06	24
2558.96	24.5
2559.86	29
2560.76	29
2561.66	24
2562.56	26
2563.46	26
2564.36	20.5
2565.26	26
2566.16	26.5
2567.06	29.5
2567.96	25.5
2568.86	25.5
2569.76	29
2570.66	23
2571.56	28
2572.46	24
2573.36	27.5
2574.26	23
2575.16	25
2576.05	21
2576.95	24.5
2577.85	23
2578.75	22
2579.65	25
2580.54	25.5
2581.44	28
2582.34	24.5
2583.24	25
2584.13	25
2585.03	24.5
2585.93	28
2586.83	27
2587.72	20
2588.62	23.5
2589.52	23
2590.41	21
2591.31	28.5
2592.2	26
2593.1	20
2594	27.5
2594.89	21
2595.79	26
2596.68	27
2597.58	25.5
2598.47	25
2599.37	23
2600.26	26.5
2601.16	27
2602.05	25
2602.95	26
2603.84	26.5
2604.74	26.5
2605.63	29
2606.52	26
2607.42	23.5
2608.31	23
2609.21	26.5
2610.1	29.5
2610.99	23
2611.89	26
2612.78	25
2613.67	26
2614.56	27.5
2615.46	27
2616.35	27
2617.24	24
2618.13	26
2619.03	27
2619.92	24.5
2620.81	22
2621.7	20
2622.59	24
2623.49	26.5
2624.38	26.5
2625.27	22
2626.16	18.5
2627.05	21.5
2627.94	23.5
2628.83	27.5
2629.72	29
2630.61	24
2631.5	23
2632.39	23.5
2633.28	22
2634.17	24
2635.06	25
2635.95	24.5
2636.84	27.5
2637.73	23
2638.62	25
2639.51	26.5
2640.4	25
2641.29	26
2642.18	23.5
2643.07	27
2643.96	24.5
2644.84	27
2645.73	23.5
2646.62	24
2647.51	26
2648.4	32.5
2649.28	24.5
2650.17	27
2651.06	26
2651.95	23.5
2652.83	24
2653.72	24
2654.61	20.5
2655.49	27.5
2656.38	20.5
2657.27	23.5
2658.16	23.5
2659.04	26.5
2659.93	25.5
2660.81	21
2661.7	22
2662.59	22.5
2663.47	23
2664.36	24
2665.24	23.5
2666.13	26.5
2667.01	19
2667.9	22
2668.78	26
2669.67	23
2670.55	26
2671.44	22.5
2672.32	27
2673.21	27
2674.09	25.5
2674.97	26
2675.86	20.5
2676.74	26.5
2677.62	23
2678.51	26.5
2679.39	23.5
2680.27	27
2681.16	26.5
2682.04	28
2682.92	21
2683.81	23
2684.69	24.5
2685.57	25.5
2686.45	26
2687.34	25.5
2688.22	25.5
2689.1	24
2689.98	26
2690.86	24
2691.75	27.5
2692.63	24
2693.51	20
2694.39	26.5
2695.27	22.5
2696.15	23.5
2697.03	23
2697.91	22.5
2698.79	24
2699.67	22.5
2700.55	23
2701.43	22
2702.31	22
2703.19	29
2704.07	23.5
2704.95	26.5
2705.83	23
2706.71	23.5
2707.59	17.5
2708.47	23.5
2709.35	25.5
2710.23	23
2711.11	24.5
2711.99	22
2712.86	23
2713.74	23
2714.62	23
2715.5	23.5
2716.38	25
2717.26	22.5
2718.13	23
2719.01	27
2719.89	24.5
2720.77	26
2721.64	24.5
2722.52	26.5
2723.4	24.5
2724.27	26.5
2725.15	23.5
2726.03	24
2726.9	25.5
2727.78	23
2728.66	26
2729.53	24
2730.41	21.5
2731.28	24.5
2732.16	22
2733.03	26
2733.91	27
2734.79	25
2735.66	24.5
2736.54	26
2737.41	22
2738.29	27.5
2739.16	25
2740.03	24.5
2740.91	25.5
2741.78	27
2742.66	28
2743.53	26
2744.41	22.5
2745.28	23
2746.15	27.5
2747.03	23
2747.9	26.5
2748.77	23
2749.65	24
2750.52	22.5
2751.39	26.5
2752.27	23
2753.14	17.5
2754.01	25
2754.88	25.5
2755.75	23
2756.63	22
2757.5	23
2758.37	25
2759.24	23.5
2760.11	26
2760.99	26
2761.86	23.5
2762.73	25.5
2763.6	27
2764.47	29.5
2765.34	25
2766.21	22
2767.08	20
2767.95	23
2768.82	26
2769.69	23
2770.56	23.5
2771.43	23.5
2772.3	21
2773.17	24
2774.04	26.5
2774.91	24.5
2775.78	22.5
2776.65	25
2777.52	24.5
2778.39	26
2779.26	26
2780.13	23.5
2780.99	23.5
2781.86	25.5
2782.73	25.5
2783.6	27.5
2784.47	25
2785.34	24
2786.2	24.5
2787.07	25
2787.94	25.5
2788.81	26.5
2789.67	26
2790.54	22.5
2791.41	29
2792.27	24
2793.14	26
2794.01	26.5
2794.87	29
2795.74	24.5
2796.61	26
2797.47	27.5
2798.34	27.5
2799.21	25
2800.07	23
2800.94	25
2801.8	25
2802.67	23
2803.53	28
2804.4	25.5
2805.26	26.5
2806.13	26.5
2806.99	26
2807.86	25
2808.72	25
2809.59	26
2810.45	24
2811.32	28.5
2812.18	26
2813.04	23.5
2813.91	27
2814.77	26
2815.64	25
2816.5	26
2817.36	27
2818.22	26
2819.09	28
2819.95	26
2820.81	23.5
2821.68	23
2822.54	29.5
2823.4	24.5
2824.26	24
2825.13	25.5
2825.99	28
2826.85	26
2827.71	23.5
2828.57	25
2829.44	28.5
2830.3	26.5
2831.16	27
2832.02	25
2832.88	28.5
2833.74	29
2834.6	26
2835.46	28
2836.32	28
2837.18	23
2838.04	25.5
2838.9	22
2839.76	26.5
2840.62	24
2841.48	25
2842.34	28
2843.2	27.5
2844.06	26
2844.92	24
2845.78	21.5
2846.64	25
2847.5	23.5
2848.36	26
2849.22	30
2850.08	28.5
2850.93	26.5
2851.79	28
2852.65	22.5
2853.51	18.5
2854.37	32.5
2855.22	25.5
2856.08	28.5
2856.94	25
2857.8	24
2858.65	29.5
2859.51	25
2860.37	31
2861.23	29
2862.08	24
2862.94	26
2863.79	29
2864.65	27.5
2865.51	30
2866.36	29.5
2867.22	29.5
2868.08	26.5
2868.93	30.5
2869.79	27.5
2870.64	32
2871.5	30.5
2872.35	32
2873.21	30.5
2874.06	27
2874.92	28.5
2875.77	32
2876.63	30
2877.48	30
2878.34	35
2879.19	26
2880.05	34
2880.9	34
2881.76	28
2882.61	30.5
2883.46	33.5
2884.32	37
2885.17	34
2886.02	33
2886.88	35
2887.73	37
2888.58	38.5
2889.44	42.5
2890.29	41
2891.14	40.5
2891.99	40
2892.85	41
2893.7	42
2894.55	44
2895.4	51
2896.25	56
2897.11	54.5
2897.96	51.5
2898.81	53.5
2899.66	62
2900.51	62
2901.36	63.5
2902.21	64
2903.07	69
2903.92	72
2904.77	68
2905.62	77.5
2906.47	70
2907.32	77.5
2908.17	73
2909.02	70
2909.87	64.5
2910.72	69.5
2911.57	61.5
2912.42	58
2913.27	49
2914.12	51.5
2914.97	45.5
2915.81	43
2916.66	42.5
2917.51	47
2918.36	36.5
2919.21	40.5
2920.06	34
2920.91	37
2921.75	34
2922.6	35.5
2923.45	33
2924.3	34
2925.15	32.5
2925.99	33
2926.84	27
2927.69	33
2928.54	29
2929.38	30.5
2930.23	29
2931.08	31
2931.92	31.5
2932.77	26.5
2933.62	30.5
2934.46	29
2935.31	26.5
2936.16	28.5
2937	24.5
2937.85	26
2938.69	23
2939.54	29.5
2940.38	27
2941.23	25
2942.08	32.5
2942.92	27
2943.77	24
2944.61	28.5
2945.46	27
2946.3	28
2947.15	29
2947.99	32.5
2948.83	34
2949.68	25
2950.52	29.5
2951.37	32
2952.21	30
2953.05	32.5
2953.9	32
2954.74	35.5
2955.58	36.5
2956.43	33.5
2957.27	36
2958.11	37.5
2958.96	37
2959.8	37
2960.64	42
2961.48	42
2962.33	47
2963.17	43
2964.01	36
2964.85	41.5
2965.69	45
2966.54	43.5
2967.38	40.5
2968.22	41
2969.06	41
2969.9	40.5
2970.74	42
2971.58	36.9903
2972.43	41.952
2973.27	35.0076
2974.11	37.9914
2974.95	32.1827
2975.79	33.5369
2976.63	32.0273
2977.47	33.0609
2978.31	36.0092
2979.15	32.1879
2979.99	29.7178
2980.83	28.9934
2981.67	26.9187
2982.51	28.8328
2983.35	27.8793
2984.19	26.5752
2985.03	27.5682
2985.86	26.3301
2986.7	25.7734
2987.54	29.1001
2988.38	25.264
2989.22	29.1307
2990.06	20.9467
2990.9	25.7991
2991.73	24.0715
2992.57	27.307
2993.41	23.7189
2994.25	25.7844
2995.09	23.7775
2995.92	24.1456
2996.76	25.5037
2997.6	27.4409
2998.44	25.7008
2999.27	23.8973
3000.11	23.1224
3000.95	24.4688
3001.78	23.7153
3002.62	22.2403
3003.46	24.4646
3004.29	23.3985
3005.13	21.4554
3005.96	25.0792
3006.8	25.9122
3007.64	23.4155
3008.47	24.8465
3009.31	23.9824
3010.14	23.428
3010.98	23.634
3011.81	22.8337
3012.65	22.0912
3013.48	23.8276
3014.32	22.3347
3015.15	22.7655
3015.99	23.4167
3016.82	22.7469
3017.66	23.1559
3018.49	22.7414
3019.33	22.6238
3020.16	25.121
3020.99	23.3214
3021.83	22.8202
3022.66	24.3717
3023.5	25.5787
3024.33	25.2743
3025.16	23.6601
3026	24.6885
3026.83	24.0435
3027.66	23.0838
3028.49	23.3254
3029.33	24.7006
3030.16	23.3558
3030.99	22.6184
3031.83	22.6811
3032.66	22.3131
3033.49	20.1908
3034.32	22.4576
3035.15	24.3998
3035.99	24.0159
3036.82	22.4053
3037.65	22.1509
3038.48	21.6064
3039.31	19.8057
3040.14	21.7595
3040.97	22.7424
3041.81	20.9901
3042.64	21.9353
3043.47	21.7907
3044.3	23.3197
3045.13	23.3365
3045.96	23.619
3046.79	23.5725
3047.62	22.2233
3048.45	24.079
3049.28	24.5595
3050.11	23.9137
3050.94	24.3025
3051.77	22.7898
3052.6	23.1942
3053.43	24.2742
3054.26	24.3652
3055.08	21.8951
3055.91	21.3265
3056.74	22.9424
3057.26	22
3058.09	24
3058.92	27
3059.76	24.5
3060.59	24
3061.42	20
3062.25	24
3063.09	24
3063.92	22
3064.75	21
3065.58	24
3066.42	24
3067.25	22
3068.08	23
3068.91	22
3069.74	22.5
3070.57	21.5
3071.41	24
3072.24	24.5
3073.07	22
3073.9	27
3074.73	22
3075.56	22
3076.39	22.5
3077.22	24.5
3078.05	22.5
3078.88	22.5
3079.71	23
3080.54	24.5
3081.37	26
3082.2	26.5
3083.03	26.5
3083.86	25
3084.69	22.5
3085.52	24
3086.35	21.5
3087.18	22.5
3088.01	23.5
3088.84	25
3089.67	24.5
3090.5	26
3091.32	21
3092.15	23
3092.98	23.5
3093.81	24
3094.64	22
3095.47	26
3096.29	25
3097.12	25.5
3097.95	26
3098.78	22
3099.6	22.5
3100.43	24.5
3101.26	23
3102.09	25
3102.91	21.5
3103.74	27
3104.57	21.5
3105.39	25.5
3106.22	21
3107.05	23
3107.87	25.5
3108.7	23.5
3109.52	28
3110.35	17
3111.18	22
3112	24.5
3112.83	19.5
3113.65	21
3114.48	27.5
3115.3	24.5
3116.13	23.5
3116.95	24.5
3117.78	23
3118.6	21.5
3119.43	25
3120.25	26
3121.08	22.5
3121.9	21
3122.72	24
3123.55	26
3124.37	24.5
3125.2	21.5
3126.02	24
3126.84	24
3127.67	24
3128.49	26
3129.31	27
3130.14	23
3130.96	23
3131.78	23.5
3132.61	22.5
3133.43	24.5
3134.25	20
3135.07	24
3135.89	23
3136.72	22.5
3137.54	26
3138.36	24
3139.18	24
3140	26
3140.83	24.5
3141.65	25.5
3142.47	24.5
3143.29	22
3144.11	26
3144.93	23.5
3145.75	25
3146.57	27
3147.4	26.5
3148.22	28
3149.04	26
3149.86	23
3150.68	21
3151.5	25
3152.32	25
3153.14	24.5
3153.96	21
3154.78	22
3155.59	21
3156.42	25.5
3157.23	23
3158.05	28.5
3158.87	24.5
3159.69	23
3160.51	20
3161.33	23.5
3162.15	26
3162.97	25
3163.78	23
3164.6	24
3165.42	24.5
3166.24	25.5
3167.06	22.5
3167.87	25
3168.69	24
3169.51	23.5
3170.33	24
3171.14	22
3171.96	27
3172.78	26.5
3173.6	25
3174.41	22.5
3175.23	24
3176.05	24.5
3176.86	22.5
3177.68	25
3178.5	22
3179.31	22.5
3180.13	23.5
3180.94	25
3181.76	26.5
3182.58	23.5
3183.39	25
3184.21	25.5
3185.02	20.5
3185.84	21
3186.65	23
3187.47	25
3188.28	26
3189.1	22.5
3189.91	24.5
3190.73	22.5
3191.54	20
3192.36	24
3193.17	22
3193.98	23
3194.8	24
3195.61	22
3196.43	25.5
3197.24	22.5
3198.05	26.5
3198.87	26.5
3199.68	30.5
3200.49	25
3201.31	22.5
3202.12	23
3202.93	28
3203.75	22
3204.56	24
3205.37	22
3206.18	24
3207	23
3207.81	24
3208.62	23
3209.43	27
3210.24	17
3211.06	24
3211.87	23.5
3212.68	23.5
3213.49	26.5
3214.3	26.5
3215.11	24.5
3215.92	25
3216.73	25
3217.55	22
3218.36	24.5
3219.17	21
3219.98	25
3220.79	20.5
3221.6	22
3222.41	26
3223.22	22.5
3224.03	23.5
3224.84	20.5
3225.65	22
3226.46	22
3227.27	23
3228.08	22.5
3228.89	22
3229.7	27
3230.5	28
3231.31	25.5
3232.12	24
3232.93	26.5
3233.74	23.5
3234.55	22.5
3235.36	20
3236.16	24.5
3236.97	20.5
3237.78	23.5
3238.59	25
3239.4	24
3240.2	24
3241.01	19
3241.82	25
3242.63	22.5
3243.43	22
3244.24	25.5
3245.05	25
3245.85	21.5
3246.66	22
3247.47	25.5
3248.27	23.5
3249.08	22
3249.89	21.5
3250.69	25.5
3251.5	26.5
3252.31	23.5
3253.11	26.5
3253.92	25
3254.72	22
3255.53	22.5
3256.33	25
3257.14	22.5
3257.94	28.5
3258.75	23.5
3259.55	26
3260.36	21.5
3261.16	26
3261.97	23.5
3262.77	22.5
3263.58	25
3264.38	21.5
3265.19	22
3265.99	22.5
3266.79	25.5
3267.6	28
3268.4	20
3269.21	24
3270.01	26.5
3270.81	26
3271.62	25
3272.42	27
3273.22	23.5
3274.03	27
3274.83	23
3275.63	24
3276.43	22.5
3277.24	25
3278.04	23.5
3278.84	24.5
3279.64	20.5
3280.45	25
3281.25	21
3282.05	21
3282.85	25.5
3283.65	26.5
3284.45	25.5
3285.26	27
3286.06	23.5
3286.86	24
3287.66	25
3288.46	24
3289.26	23
3290.06	20
3290.86	23.5
3291.66	22
3292.46	23
3293.26	28
3294.06	20
3294.86	24.5
3295.66	23
3296.46	26.5
3297.26	23.5
3298.06	23
3298.86	26
3299.66	23.5
3300.46	24
3301.26	22
3302.06	24
3302.86	20.5
3303.66	22.5
3304.46	23
3305.25	22.5
3306.05	20.5
3306.85	22.5
3307.65	23
3308.45	25.5
3309.25	23
3310.04	23
3310.84	23.5
3311.64	24
3312.44	25
3313.23	24
3314.03	26
3314.83	25.5
3315.63	22.5
3316.42	21.5
3317.22	21
3318.02	21
3318.81	25.5
3319.61	22
3320.41	25
3321.2	21
3322	24
3322.8	30
3323.59	22.5
3324.39	23
3325.18	25
3325.98	25
3326.78	27
3327.57	23.5
3328.37	24
3329.16	26.5
3329.96	19.5
3330.75	29
3331.55	26
3332.34	21
3333.14	29
3333.93	22.5
3334.73	19
3335.52	25
3336.31	24
3337.11	24.5
3337.9	26
3338.7	24.5
3339.49	21.5
3340.28	26.5
3341.08	26
3341.87	25
3342.66	25
3343.46	28
3344.25	25
3345.04	23
3345.84	21
3346.63	26
3347.42	21.5
3348.22	24.5
3349.01	28.5
3349.8	26
3350.59	21
3351.39	25
3352.18	25
3352.97	24.5
3353.76	23.5
3354.55	27.5
3355.35	24.5
3356.14	24
3356.93	24.5
3357.72	23
3358.51	21.5
3359.3	23.5
3360.09	24.5
3360.88	20
3361.67	24
3362.46	25
3363.26	24.5
3364.05	21.5
3364.84	19
3365.63	24
3366.42	23
3367.21	23
3368	23.5
3368.79	25.5
3369.58	26.5
3370.37	22.5
3371.15	23
3371.94	25
3372.73	21.5
3373.52	28
3374.31	25
3375.1	23
3375.89	28
3376.68	22.5
3377.47	23
3378.26	25.5
3379.04	25
3379.83	21.5
3380.62	26
3381.41	25
3382.2	23
3382.98	21
3383.77	29.5
3384.56	23.5
3385.35	25
3386.13	22
3386.92	22.5
3387.71	25
3388.5	25
3389.28	26
3390.07	26
3390.86	25
3391.64	21.5
3392.43	21.5
3393.22	23
3394	21.5
3394.79	25.5
3395.57	27
3396.36	25.5
3397.15	22.5
3397.93	24.5
3398.72	27
3399.5	21
3400.29	25.5
3401.07	24.5
3401.86	27
3402.65	25
3403.43	26
3404.21	25.5
3405	25
3405.78	25
3406.57	25
3407.35	29.5
3408.14	23
3408.92	21
3409.71	27.5
3410.49	23
3411.27	24
3412.06	22
3412.84	20
3413.62	26.5
3414.41	22.5
3415.19	26
3415.97	23
3416.76	25
3417.54	26
3418.32	24.5
3419.11	23
3419.89	25
3420.67	20.5
3421.46	23.5
3422.24	23.5
3423.02	24
3423.8	27
3424.58	26.5
3425.37	24
3426.15	26
3426.93	26
3427.71	25
3428.49	22.5
3429.27	25
3430.05	23
3430.84	25
3431.62	23
3432.4	22.5
3433.18	26.5
3433.96	26
3434.74	19.5
3435.52	23.5
3436.3	27
3437.08	25.5
3437.86	22
3438.64	23
3439.42	23.5
3440.2	22
3440.98	24
3441.76	23
3442.54	25
3443.32	22
3444.1	23.5
3444.88	21.5
3445.66	27
3446.44	26.5
3447.22	20.5
3448	20.5
3448.77	22
3449.55	26
3450.33	23
3451.11	23.5
3451.89	27.5
3452.67	24.5
3453.45	23.5
3454.22	17
3455	22.5
3455.78	26.5
3456.56	26.5
3457.33	23.5
3458.11	23.5
3458.89	25
3459.67	27
3460.44	25.5
3461.22	22
3462	25.5
3462.77	27
3463.55	24
3464.33	23.5
3465.1	26.5
3465.88	20.5
3466.66	21
3467.43	28
3468.21	22.5
3468.98	22
3469.76	24
3470.54	23
3471.31	23.5
3472.09	22
3472.86	24.5
3473.64	23
3474.41	22.5
3475.19	26
3475.96	24.5
3476.74	27
3477.51	24
3478.29	27
3479.06	23
3479.84	22
3480.61	24.5
3481.39	25
3482.16	21
3482.93	22.5
3483.71	21.5
3484.48	25.5
3485.25	24
3486.03	20
3486.8	27.5
3487.57	25
3488.35	24
3489.12	24
3489.89	20.5
3490.67	26
3491.44	25
3492.21	25.5
3492.99	25
3493.76	21
3494.53	24.5
3495.3	22
3496.08	26.5
3496.85	22
3497.62	24.5
3498.39	25.5
3499.16	26.5
3499.93	23
