#Acq. time (s)=	5
#Accumulations=	5
#Range (cm-¹)=	100...3500
#Windows=	4
#Autofocus=	Off
#AutoExposure=	Off
#Spike filter=	Multiple accum.
#Delay time (s)=	0
#Binning=	1
#Readout mode=	Signal
#DeNoise=	Off
#ICS correction=	Off
#Dark correction=	Off
#Inst. Process=	Off
#Instrument=	LabRAM HR Evol
#Detector=	Syncerity OE
#Objective=	x100_VIS
#Grating=	600 (500nm)
#ND Filter=	25%
#Laser=	633nm_Edge
#Hole=	100.021
#Range=	Visible
#Project=	verificaciones
#Sample=	at2
#Site=	lined
#Title=	bolusat2lined
#Remark=	
#Date=	13.01.2026 15:34
#Acquired=	13.01.2026 15:34:42
100.692	30
101.975	28.5
103.258	35
104.542	28
105.824	32.5
107.107	28
108.39	34
109.672	28
110.954	27.5
112.236	29
113.519	34
114.8	28
116.081	26.5
117.362	27
118.643	29
119.924	33.5
121.204	33.5
122.484	28
123.764	35.5
125.044	32
126.323	30
127.603	35
128.882	34.5
130.161	33.5
131.438	36
132.716	38.5
133.995	33
135.273	35
136.55	36.5
137.828	36.5
139.106	35
140.383	35.5
141.66	36.5
142.937	39
144.213	39
145.488	43
146.764	37.5
148.04	45
149.316	38
150.592	45.5
151.867	44
153.141	42
154.416	42.5
155.69	47.5
156.965	44.5
158.239	41
159.512	42.5
160.786	44.5
162.059	41.5
163.333	39
164.605	42
165.878	40.5
167.15	38.5
168.423	44.5
169.694	44
170.966	43
172.238	42.5
173.51	44.5
174.78	42.5
176.052	39.5
177.323	40.5
178.592	44.5
179.863	45
181.134	43
182.403	43.5
183.673	46
184.943	40
186.211	42.5
187.481	42
188.749	43.5
190.018	43
191.287	41
192.554	43
193.822	39
195.089	40
196.357	42
197.625	38.5
198.891	39.5
200.159	41.5
201.425	41
202.692	41.5
203.957	41
205.224	37.5
206.489	39
207.755	34.5
209.02	36.5
210.286	35.5
211.55	35
212.815	38.5
214.079	34.5
215.344	33.5
216.607	36
217.872	35
219.135	31.5
220.399	31.5
221.662	33.5
222.924	32
224.187	33
225.449	34.5
226.713	27
227.974	33
229.235	33
230.498	30
231.759	31.5
233.019	33
234.281	31
235.542	29.5
236.802	33
238.063	29
239.323	31
240.582	29.5
241.843	31.5
243.102	29
244.361	29
245.621	35.5
246.879	32
248.138	29.5
249.396	32
250.655	32.5
251.913	31
253.17	32
254.427	29
255.686	30.5
256.943	32
258.199	30
259.456	34
260.712	30
261.969	33
263.225	31
264.481	29
265.736	33
266.991	35.5
268.246	31.5
269.502	30
270.757	35
272.011	30
273.265	28
274.519	32.5
275.773	29.5
277.027	27
278.28	28.5
279.533	31
280.786	28.5
282.04	29.5
283.293	30.5
284.545	30
285.798	28
287.049	35
288.301	28.5
289.553	29.5
290.804	29
292.055	32
293.306	29.5
294.557	30
295.807	29
297.058	26
298.308	31
299.558	30
300.808	30
302.057	28
303.305	28.5
304.554	33.5
305.803	26
307.052	31.5
308.3	31
309.549	31
310.797	28
312.045	29.5
313.292	28
314.54	32.5
315.786	29
317.033	25
318.28	31
319.526	28.5
320.773	29.5
322.019	29
323.264	28
324.51	29
325.755	31
327.001	28
328.246	27
329.49	29
330.735	31.5
331.979	27
333.224	25.5
334.467	28.5
335.711	29.5
336.955	31
338.199	26
339.441	29.5
340.684	32.5
341.927	32
343.168	28
344.411	25.5
345.654	28
346.895	32
348.137	27.5
349.379	26.5
350.619	29
351.86	29
353.102	31
354.341	30.5
355.582	30.5
356.821	34
358.062	33.5
359.302	26
360.541	27
361.781	30.5
363.019	29.5
364.259	34
365.496	29.5
366.736	27
367.974	31
369.212	33
370.45	29
371.687	31
372.925	27.5
374.162	27
375.399	28
376.635	29.5
377.873	29
379.109	28
380.344	30.5
381.581	28.5
382.816	28
384.052	28.5
385.287	27.5
386.523	32.5
387.757	29
388.991	26.5
390.227	30
391.46	29.5
392.695	24
393.928	25
395.162	29
396.396	29.5
397.629	27
398.861	28
400.095	26
401.327	27
402.559	25
403.792	23.5
405.024	26
406.255	30.5
407.488	28.5
408.719	31.5
409.949	29
411.18	22.5
412.412	29.5
413.642	27
414.872	32.5
416.102	29
417.333	27
418.562	28
419.791	27
421.02	25.5
422.249	30
423.479	28.5
424.707	29
425.935	27.5
427.163	29.5
428.391	32
429.619	29.5
430.848	30
432.075	30
433.302	30.5
434.529	30.5
435.755	29
436.982	28
438.208	33.5
439.434	27.5
440.66	29
441.885	28
443.111	30.5
444.338	27.5
445.563	30.5
446.788	31
448.012	29
449.237	30
450.461	28.5
451.685	30
452.909	31
454.133	30.5
455.356	33
456.579	32.5
457.802	30.5
459.025	27
460.247	27.5
461.469	29.5
462.691	31.5
463.914	34.5
465.136	34
466.357	31.5
467.579	33
468.8	30
470.021	35
471.242	37
472.462	41
473.682	39
474.903	40
476.123	41
477.343	43
478.563	47
479.782	49.5
481	56.5
482.219	60.5
483.438	57
484.657	59
485.874	60.5
487.093	64.5
488.311	64
489.529	62.5
490.747	64.5
491.963	62
493.181	61
494.398	58
495.614	54.5
496.83	51.5
498.047	46
499.264	47
500.479	40
501.695	44
502.911	42
504.125	39
505.34	38
506.554	38
507.769	42.5
508.984	37
510.198	38
511.412	32.5
512.627	33.5
513.839	32
515.053	34
516.266	31
517.479	35
518.691	35.5
519.905	33.5
521.118	34.5
522.329	33
523.542	30
524.753	38
525.965	31
527.176	30.5
528.388	31
529.598	32.5
530.809	30
532.019	36
533.23	27
534.44	33
535.649	33.5
536.86	31
538.068	27.5
539.279	31.5
540.487	31.5
541.697	32
542.905	28
544.113	31.5
545.322	28.5
546.53	33
547.737	28
548.946	29
550.153	32
551.361	30
552.568	34
553.774	34.5
554.982	28.5
556.188	29.5
557.394	25
558.599	27
559.806	30.5
561.012	30
562.217	30
563.423	33.5
564.628	31
565.832	29
567.036	30.5
568.241	33
569.446	28.5
570.65	32.5
571.853	28.5
573.057	28.5
574.26	30
575.464	29.5
576.667	32
577.87	28
579.072	28
580.274	30
581.477	26
582.68	31
583.881	28.5
585.083	27
586.284	26
587.485	31.5
588.686	32.5
589.887	30
591.087	30
592.288	30
593.488	29
594.688	23.5
595.888	28
597.087	27
598.287	35
599.486	23
600.685	24
601.884	29
603.082	24
604.281	31.5
605.479	28
606.677	31
607.875	30.5
609.073	29
610.27	29.5
611.468	31
612.665	29
613.862	28.5
615.058	30.5
616.255	30.5
617.451	27.5
618.648	29.5
619.842	27.5
621.038	30
622.234	29
623.429	25
624.624	29.5
625.819	26
627.013	25
628.207	29
629.402	29.5
630.596	29
631.79	25
632.983	31
634.177	29.5
635.37	31
636.564	28.5
637.755	28.5
638.948	26
640.141	30.5
641.334	31
642.525	29.5
643.717	32
644.909	27
646.099	30.5
647.291	30
648.483	26
649.674	31
650.864	29
652.055	33.5
653.244	28
654.435	28.5
655.625	27
656.814	32
658.004	32.5
659.193	27.5
660.382	30
661.571	27
662.759	30
663.948	30
665.135	35.5
666.324	30.5
667.511	26
668.7	30.5
669.886	33
671.074	29
672.262	26.5
673.448	31
674.634	31
675.821	32.5
677.007	32
678.194	34.5
679.379	36
680.565	30
681.75	33
682.936	35.5
684.121	35
685.305	37
686.491	37
687.675	36.5
688.86	36.5
690.043	37
691.227	37.5
692.411	34
693.594	36
694.777	33
695.961	37.5
697.144	32.5
698.326	36
699.509	35
700.691	42
701.873	41
703.056	43.5
704.237	44
705.419	46.5
706.599	49
707.782	51
708.962	53.5
710.143	48
711.323	52
712.504	38.5
713.684	47
714.864	40.5
716.043	34
717.223	28
718.403	29.5
719.582	32.5
720.761	31
721.94	32.5
723.118	30.5
724.296	31
725.474	28.5
726.652	30
727.831	28
729.009	25
730.186	32.5
731.363	29
732.54	27.5
733.717	29.5
734.893	29.5
736.07	30
737.246	28
738.422	28.5
739.598	28
740.773	31.5
741.949	30.5
743.124	29.5
744.299	26
745.474	27.5
746.649	26.5
747.823	30.5
748.997	29
750.172	29.5
751.346	29
752.519	29.5
753.693	30.5
754.867	27.5
756.038	28
757.211	28
758.384	32.5
759.557	26
760.73	31
761.902	28
763.074	32
764.246	26
765.417	25.5
766.588	27.5
767.76	28.5
768.931	30.5
770.102	26.5
771.271	27.5
772.442	33.5
773.613	26
774.783	29.5
775.952	29
777.122	29.5
778.291	34.5
779.461	29
780.629	35
781.798	31
782.967	33
784.135	32
785.304	33.5
786.472	29.5
787.639	31
788.807	33
789.975	34.5
791.142	31
792.309	30.5
793.477	34
794.642	32
795.81	30.5
796.975	28
798.142	30
799.308	31
800.473	32.5
801.639	29.5
802.804	30.5
803.97	32.5
805.134	29
806.299	26
807.463	28
808.628	28
809.792	23
810.957	31.5
812.12	31.5
813.284	34
814.447	29.5
815.611	31.5
816.773	26.5
817.937	26
819.099	25
820.261	30
821.424	27
822.585	26
823.748	29.5
824.909	28
826.07	26.5
827.232	29
828.393	33.5
829.554	28
830.715	30
831.875	27.5
833.035	26
834.196	28
835.356	28.5
836.515	29.5
837.676	28
838.835	26.5
839.994	30.5
841.152	30.5
842.312	31
843.47	28
844.629	27
845.786	27.5
846.946	25
848.103	27.5
849.261	29.5
850.418	32
851.575	28.5
852.733	32
853.89	29
855.046	26.5
856.203	32
857.359	31
858.515	29
859.67	29
860.827	29
861.983	28
863.138	34.5
864.293	29
865.448	32
866.603	31.5
867.757	27.5
868.912	29
870.066	26
871.22	34.5
872.374	31
873.527	31
874.681	27.5
875.834	25
876.987	27
878.14	33
879.293	30.5
880.445	24
881.598	29
882.75	24.5
883.902	28.5
885.054	29.5
886.206	26
887.357	29.5
888.507	29.5
889.658	26.5
890.809	26
891.96	25
893.111	27
894.261	30
895.411	27
896.561	32.5
897.71	28
898.86	27.5
900.009	24
901.159	28
902.308	25.5
903.455	24.5
904.604	25.5
905.753	25
906.901	28.5
908.048	31
909.197	26.5
910.344	27
911.492	27.5
912.639	26
913.786	26
914.933	24
916.079	23
917.226	26.5
918.373	26.5
919.518	26.5
920.664	26
921.81	27.5
922.955	22.5
924.101	27.5
925.245	30
926.391	27
927.536	27
928.68	28.5
929.825	26
930.968	26.5
932.113	28
933.256	26
934.4	29
935.543	23.5
936.687	24
937.83	21
938.973	29.5
940.115	27.5
941.258	29.5
942.399	24
943.542	27
944.684	29.5
945.826	27
946.967	27
948.109	25
949.25	25.5
950.392	29
951.532	26.5
952.672	26
953.813	27
954.953	26
956.093	26.5
957.233	25
958.373	28
959.512	26
960.652	25.5
961.791	27
962.929	31
964.069	25
965.207	25
966.345	30
967.484	28.5
968.622	26.5
969.759	26
970.896	29
972.035	28
973.172	27.5
974.309	24.5
975.445	29
976.582	33
977.719	22
978.855	25.5
979.991	26
981.127	26.5
982.263	28.5
983.398	29.5
984.535	27
985.67	27.5
986.804	29
987.939	25.5
989.074	27
990.208	26.5
991.342	24
992.476	23.5
993.61	26
994.744	30
995.877	25.5
997.01	23.5
998.143	27.5
999.276	29.5
1000.41	22.5
1001.54	26.5
1002.67	23.5
1003.81	29
1004.94	25.5
1006.07	28.5
1007.2	26.5
1008.33	28.5
1009.47	27.5
1010.6	28
1011.73	24
1012.86	24
1013.99	28.5
1015.12	28
1016.25	26
1017.38	29
1018.51	25
1019.64	27.5
1020.77	24.5
1021.9	24
1023.03	30
1024.15	23
1025.28	27
1026.41	26.5
1027.54	26
1028.67	25
1029.8	23.5
1030.92	28.5
1032.05	25.5
1033.18	26
1034.31	27.5
1035.43	25
1036.56	27.5
1037.69	25
1038.81	27.5
1039.94	24.5
1041.07	25.5
1042.19	25.5
1043.32	27
1044.44	28.5
1045.57	26.5
1046.69	26
1047.82	27.5
1048.94	24
1050.07	25.5
1051.19	22
1052.32	26
1053.44	26
1054.57	28.5
1055.69	26
1056.81	21.5
1057.94	25
1059.06	26.5
1060.18	28.5
1061.31	28.5
1062.43	25
1063.55	26.5
1064.67	26
1065.8	22.5
1066.92	24
1068.04	26.5
1069.16	23.5
1070.28	28
1071.4	27.5
1072.52	29.5
1073.64	27.5
1074.76	25.5
1075.89	24.5
1077.01	23
1078.13	28.5
1079.25	23
1080.37	24.5
1081.49	27
1082.6	27
1083.72	24.5
1084.84	21.5
1085.96	25.5
1087.08	28.5
1088.2	27.5
1089.32	26.5
1090.43	19
1091.55	27.5
1092.67	27.5
1093.79	26
1094.91	28.5
1096.02	24
1097.14	25.5
1098.26	27
1099.37	27
1100.49	28
1101.61	23.5
1102.72	31
1103.84	22
1104.95	27.5
1106.07	25.5
1107.18	23
1108.3	26.5
1109.41	27.5
1110.53	27
1111.64	22
1112.76	25
1113.87	25
1114.99	29
1116.1	26
1117.21	29
1118.33	29
1119.44	22
1120.55	24
1121.67	25
1122.78	25
1123.89	26.5
1125	24
1126.12	22.5
1127.23	25
1128.34	27
1129.45	26.5
1130.56	22.5
1131.68	24.5
1132.79	23.5
1133.9	26.5
1135.01	26
1136.12	22
1137.23	26.5
1138.34	24
1139.45	23.5
1140.56	26
1141.67	23
1142.78	25.5
1143.89	25.5
1145	24.5
1146.11	21
1147.22	25.5
1148.32	24
1149.43	23
1150.54	28
1151.65	25
1152.76	26
1153.86	27
1154.97	27
1156.08	23.5
1157.19	27
1158.29	26.5
1159.4	23.5
1160.51	24.5
1161.61	23
1162.72	23
1163.83	25.5
1164.93	28.5
1166.04	27.5
1167.14	23
1168.25	26.5
1169.35	24.5
1170.46	26.5
1171.56	26.5
1172.67	23.5
1173.77	28
1174.88	23.5
1175.98	23
1177.08	24
1178.19	26
1179.29	26.5
1180.4	25.5
1181.5	28
1182.6	25.5
1183.71	24
1184.81	25.5
1185.91	20
1187.01	24
1188.12	22.5
1189.22	27
1190.32	27
1191.42	25
1192.52	25
1193.62	25
1194.72	26.4943
1195.83	22.9907
1196.93	24.5778
1198.03	24.1563
1199.13	24.1715
1200.23	21.622
1201.33	24.0456
1202.43	23.9505
1203.53	23.9269
1204.63	25.4989
1205.73	25.6857
1206.83	23.8507
1207.92	26.5657
1209.02	22.2506
1210.12	25.501
1211.22	26.7959
1212.32	23.8426
1213.42	22.5694
1214.51	22.1888
1215.61	26.1381
1216.71	22.4414
1217.81	24.7476
1218.9	22.879
1220	23.9868
1221.1	22.0954
1222.19	25.3438
1223.29	25.7197
1224.39	24.2533
1225.48	23.4297
1226.58	26.6435
1227.68	26.0434
1228.77	26.7164
1229.87	22.4002
1230.96	25.3558
1232.06	23.9007
1233.15	21.4081
1234.25	25.9925
1235.34	23.8903
1236.43	24.325
1237.53	24.3783
1238.62	20.5734
1239.72	25.288
1240.81	23.6876
1241.9	24.2583
1243	24.0612
1244.09	24.4399
1245.18	26.8451
1246.27	22.9468
1247.37	25.4553
1248.46	23.7607
1249.55	24.4776
1250.64	26.4541
1251.74	24.5609
1252.83	23
1253.92	26.6353
1255.01	24.8471
1256.1	26.6772
1257.19	25.8621
1258.28	25.24
1259.38	26.055
1260.46	27.0758
1261.56	27.9775
1262.65	25.4922
1263.74	26.4802
1264.82	30.3902
1265.91	27.0159
1267	27.2677
1268.09	24.2167
1269.18	26.1936
1270.27	23.5397
1271.36	22.3003
1272.45	23.7101
1273.54	25.9985
1274.63	23.4898
1275.71	24.0029
1276.8	23.5772
1277.89	23.515
1278.98	25.3911
1280.06	22.9336
1281.15	23.2772
1282.24	24.9387
1283.32	25.9077
1284.41	23.9099
1285.5	23
1286.58	23.1513
1287.67	26.0096
1288.76	25.7502
1289.84	24.9733
1290.93	23.1879
1292.01	24.7384
1293.1	24.5742
1294.18	26.218
1295.27	25.6597
1296.35	22.6127
1297.44	27.0783
1298.52	26.5114
1299.6	24.0904
1300.69	25.3916
1301.77	25.5377
1302.86	25.1461
1303.94	29.2353
1305.02	25.5676
1306.11	26.7233
1306.41	28
1307.5	21
1308.59	26
1309.68	22
1310.77	22
1311.85	26
1312.94	24.5
1314.03	21
1315.11	26.5
1316.2	23
1317.29	26.5
1318.37	25
1319.46	23
1320.55	28
1321.63	23.5
1322.72	26
1323.8	25
1324.89	22
1325.98	26
1327.06	28.5
1328.15	25.5
1329.23	20.5
1330.31	24
1331.4	23
1332.48	25
1333.57	24.5
1334.65	24.5
1335.74	29.5
1336.82	23.5
1337.9	26
1338.99	24
1340.07	24.5
1341.15	21
1342.24	25
1343.32	24.5
1344.4	25
1345.48	24
1346.56	25.5
1347.65	25.5
1348.73	27
1349.81	27
1350.89	25
1351.97	24
1353.05	26
1354.13	27
1355.21	27
1356.29	24.5
1357.37	26
1358.46	24.5
1359.54	24.5
1360.62	25
1361.69	25.5
1362.77	25.5
1363.85	26
1364.93	23
1366.01	28
1367.09	26.5
1368.17	26
1369.25	23.5
1370.33	22
1371.41	25
1372.48	19
1373.56	22
1374.64	24
1375.72	28.5
1376.79	22
1377.87	28.5
1378.95	26.5
1380.02	27
1381.1	22.5
1382.18	25.5
1383.25	28.5
1384.33	29
1385.4	25
1386.48	27.5
1387.56	24.5
1388.63	29
1389.71	25
1390.78	25
1391.86	28
1392.93	27
1394.01	25
1395.08	29
1396.15	27
1397.23	27
1398.3	31
1399.38	27.5
1400.45	32.5
1401.52	27
1402.6	29
1403.67	31.5
1404.74	26
1405.81	29.5
1406.89	27
1407.96	29
1409.03	28
1410.1	32
1411.17	30
1412.25	29
1413.32	29.5
1414.39	34.5
1415.46	30.5
1416.53	27
1417.6	28.5
1418.67	28
1419.74	30.5
1420.81	28.5
1421.88	26.5
1422.95	28.5
1424.02	30
1425.09	26
1426.16	30.5
1427.23	25
1428.3	31
1429.37	25
1430.44	27.5
1431.51	20.5
1432.58	24.5
1433.64	28
1434.71	28
1435.78	24
1436.85	23
1437.92	22.5
1438.98	25.5
1440.05	26
1441.12	27.5
1442.18	25
1443.25	25.5
1444.32	26
1445.38	25
1446.45	28.5
1447.52	27
1448.58	30
1449.65	26.5
1450.71	32
1451.78	23
1452.84	25.5
1453.91	26
1454.97	27
1456.04	24.5
1457.1	27.5
1458.17	20
1459.23	27
1460.3	28.5
1461.36	25
1462.42	23.5
1463.49	27
1464.55	26.5
1465.61	29.5
1466.68	28
1467.74	24.5
1468.8	27.5
1469.86	24
1470.93	28
1471.99	25
1473.05	29
1474.11	26
1475.17	25
1476.24	25.5
1477.3	27
1478.36	28
1479.42	25
1480.48	28.5
1481.54	32.5
1482.6	24
1483.66	25
1484.72	28
1485.78	29.5
1486.84	24.5
1487.9	25
1488.96	30
1490.02	29
1491.08	23
1492.14	24
1493.2	25.5
1494.26	31.5
1495.31	24.5
1496.37	31
1497.43	27
1498.49	27.5
1499.55	21
1500.6	26.5
1501.66	28.5
1502.72	24.5
1503.78	24.5
1504.83	27
1505.89	26.5
1506.95	27.5
1508	24.5
1509.06	27
1510.12	25
1511.17	24
1512.23	25
1513.28	25.5
1514.34	26.5
1515.39	23
1516.45	23.5
1517.5	24
1518.56	27
1519.61	25.5
1520.67	24
1521.72	26
1522.78	25
1523.83	26
1524.88	24.5
1525.94	26.5
1526.99	24
1528.05	25.5
1529.1	24.5
1530.15	26.5
1531.2	26
1532.26	24
1533.31	26
1534.36	21.5
1535.41	22.5
1536.47	23.5
1537.52	29
1538.57	26.5
1539.62	31.5
1540.67	26
1541.72	25
1542.77	20.5
1543.83	28
1544.88	25.5
1545.93	23.5
1546.98	26.5
1548.03	25
1549.08	26
1550.13	24.5
1551.18	27
1552.23	25
1553.28	22.5
1554.32	26.5
1555.37	25
1556.42	30
1557.47	22.5
1558.52	23
1559.57	28.5
1560.62	31
1561.67	27.5
1562.71	27.5
1563.76	26.5
1564.81	29
1565.86	24
1566.9	20
1567.95	27.5
1569	25.5
1570.04	25.5
1571.09	26.5
1572.14	28
1573.18	23
1574.23	24
1575.27	24
1576.32	25
1577.37	27.5
1578.41	24
1579.46	27
1580.5	24
1581.55	27.5
1582.59	24.5
1583.64	24.5
1584.68	23
1585.72	27
1586.77	27.5
1587.81	23.5
1588.86	27.5
1589.9	24.5
1590.94	23.5
1591.99	24
1593.03	27
1594.07	22.5
1595.12	26.5
1596.16	21.5
1597.2	27
1598.24	30.5
1599.29	30
1600.33	25
1601.37	28
1602.41	23.5
1603.45	24
1604.49	24.5
1605.53	24.5
1606.58	27
1607.62	26.5
1608.66	26
1609.7	25.5
1610.74	24
1611.78	26.5
1612.82	21
1613.86	30
1614.9	23
1615.94	28.5
1616.98	23
1618.02	27
1619.06	26
1620.09	21.5
1621.13	22.5
1622.17	26
1623.21	30.5
1624.25	21
1625.29	26.5
1626.32	23.5
1627.36	28
1628.4	23.5
1629.44	25
1630.47	27.5
1631.51	27.5
1632.55	30
1633.58	23.5
1634.62	26
1635.66	28.5
1636.69	26.5
1637.73	27.5
1638.77	25
1639.8	27
1640.84	26
1641.87	27.5
1642.91	26
1643.94	25.5
1644.98	26.5
1646.01	22.5
1647.05	26.5
1648.08	25.5
1649.12	23
1650.15	27.5
1651.18	28
1652.22	27
1653.25	22.5
1654.29	26.5
1655.32	24
1656.35	25.5
1657.39	23
1658.42	26.5
1659.45	26
1660.48	23.5
1661.52	26.5
1662.55	23
1663.58	28
1664.61	25
1665.64	22.5
1666.68	22.5
1667.71	27.5
1668.74	22
1669.77	21
1670.8	26
1671.83	28
1672.86	22.5
1673.89	28
1674.92	24
1675.95	28.5
1676.98	23
1678.01	27.5
1679.04	27
1680.07	25.5
1681.1	19.5
1682.13	25.5
1683.16	24
1684.19	30
1685.22	23
1686.25	24.5
1687.27	26.5
1688.3	24
1689.33	25
1690.36	25.5
1691.38	24
1692.41	26.5
1693.44	27.5
1694.47	26
1695.49	21.5
1696.52	26
1697.55	24.5
1698.57	27.5
1699.6	22
1700.63	26
1701.65	23.5
1702.68	28.5
1703.7	26
1704.73	25
1705.76	24
1706.78	27
1707.81	24.5
1708.83	25
1709.86	22
1710.88	27
1711.91	27.5
1712.93	26.5
1713.95	25
1714.98	24
1716	25
1717.03	27
1718.05	24.5
1719.07	28
1720.1	27
1721.12	25
1722.14	28
1723.16	28.5
1724.19	24
1725.21	26.5
1726.23	28
1727.25	25.5
1728.28	28
1729.3	25
1730.32	26
1731.34	24
1732.36	26
1733.38	27.5
1734.41	27.5
1735.43	24
1736.45	24.5
1737.47	20.5
1738.49	27.5
1739.51	22.5
1740.53	26
1741.55	26
1742.57	24.5
1743.59	24.5
1744.61	28
1745.63	23.5
1746.64	29
1747.66	28.5
1748.68	23
1749.7	25
1750.72	25
1751.74	24
1752.76	25
1753.77	26
1754.79	28.5
1755.81	26.5
1756.83	26
1757.84	25
1758.86	28.5
1759.88	25
1760.9	27
1761.91	24
1762.93	24
1763.95	27
1764.96	26
1765.98	27
1766.99	26.5
1768.01	28
1769.02	25.5
1770.04	30
1771.06	27
1772.07	28.5
1773.09	20
1774.1	28.5
1775.12	25
1776.13	26.5
1777.14	21.5
1778.16	25
1779.17	22.5
1780.19	24
1781.2	26
1782.21	24
1783.23	22
1784.24	25.5
1785.25	21
1786.27	23
1787.28	23.5
1788.29	26
1789.3	23
1790.32	23
1791.33	23
1792.34	26
1793.35	26
1794.36	23
1795.38	25
1796.39	24.5
1797.4	28.5
1798.41	24
1799.42	25.5
1800.43	23
1801.44	23.5
1802.45	27.5
1803.46	23.5
1804.47	28.5
1805.48	26.5
1806.49	28
1807.5	24
1808.51	23.5
1809.52	26
1810.53	22.5
1811.54	26.5
1812.55	27.5
1813.56	28
1814.57	29
1815.57	25.5
1816.58	25
1817.59	27
1818.6	27.5
1819.61	25.5
1820.61	22.5
1821.62	26.5
1822.63	25.5
1823.64	25.5
1824.64	26
1825.65	23.5
1826.66	24
1827.66	23
1828.67	21.5
1829.68	22
1830.68	24.5
1831.69	24.5
1832.69	25
1833.7	30.5
1834.7	23
1835.71	27
1836.71	22.5
1837.72	25
1838.72	26
1839.73	21.5
1840.73	26.5
1841.74	21
1842.74	25
1843.75	27.5
1844.75	25
1845.75	26.5
1846.76	25.5
1847.76	24.5
1848.76	23
1849.77	22.5
1850.77	30
1851.77	25.5
1852.78	24.5
1853.78	25.5
1854.78	25
1855.78	21.5
1856.78	26
1857.79	23
1858.79	26
1859.79	19
1860.79	25.5
1861.79	21
1862.79	27.5
1863.79	27
1864.79	26
1865.79	26.5
1866.8	23
1867.8	24
1868.8	28.5
1869.8	24.5
1870.8	27
1871.8	21.5
1872.8	23
1873.79	21
1874.79	21.5
1875.79	29
1876.79	31.5
1877.79	25.5
1878.79	23
1879.79	25.5
1880.79	22.5
1881.78	22
1882.78	24.5
1883.78	25.5
1884.78	24.5
1885.77	24
1886.77	27.5
1887.77	24.5
1888.77	20
1889.76	25
1890.76	26
1891.76	24
1892.75	21
1893.75	25
1894.75	22.5
1895.74	24.5
1896.74	24
1897.73	23
1898.73	27.5
1899.73	25
1900.72	26
1901.72	23
1902.71	25
1903.7	30.5
1904.7	25
1905.69	24
1906.69	22.5
1907.68	29
1908.68	26
1909.67	23
1910.66	23
1911.66	26
1912.65	27
1913.64	25
1914.64	29
1915.63	24
1916.62	25
1917.62	23
1918.61	23.5
1919.6	26
1920.59	22
1921.58	24
1922.58	30
1923.57	25
1924.56	30
1925.55	24
1926.54	24
1927.53	25
1928.52	24.5
1929.51	22
1930.51	25.5
1931.5	27
1932.49	24.5
1933.48	25.5
1934.47	20
1935.46	25.5
1936.45	23.5
1937.44	23
1938.42	20.5
1939.41	22
1940.4	25.5
1941.39	24
1942.38	26.5
1943.37	26.5
1944.36	20
1945.35	24
1946.33	25.5
1947.32	27
1948.31	25.5
1949.3	21
1950.29	22.5
1951.27	25.5
1952.26	24.5
1953.25	27
1954.23	26
1955.22	24.5
1956.21	25.5
1957.19	26.5
1958.18	27
1959.17	26.5
1960.15	24
1961.14	24.5
1962.13	26.5
1963.11	23.5
1964.1	24
1965.08	22.5
1966.07	25.5
1967.05	25.5
1968.04	27
1969.02	27.5
1970.01	26.5
1970.99	26.5
1971.97	26.5
1972.96	26.5
1973.94	24
1974.93	24.5
1975.91	20
1976.89	24
1977.88	24.5
1978.86	24.5
1979.84	25
1980.83	23
1981.81	25
1982.79	24.5
1983.77	22.5
1984.76	23
1985.74	24.5
1986.72	24
1987.7	21.5
1988.68	28.5
1989.67	25
1990.65	27.5
1991.63	22.5
1992.61	21.5
1993.59	24
1994.57	23.5
1995.55	26
1996.53	24.5
1997.51	23
1998.49	23.5
1999.47	23.5
2000.45	25
2001.43	22.5
2002.41	25.5
2003.39	24.5
2004.37	21.5
2005.35	23
2006.33	28
2007.31	25
2008.29	22
2009.26	24
2010.24	25
2011.22	24
2012.2	23.5
2013.18	22
2014.15	28.5
2015.13	24.5
2016.11	27
2017.09	22
2018.06	24
2019.04	23
2020.02	28
2021	20
2021.97	27
2022.95	25.5
2023.92	20
2024.9	24
2025.88	27
2026.85	27.5
2027.83	27
2028.8	23.5
2029.78	24
2030.75	28.5
2031.73	24
2032.7	21
2033.68	26
2034.65	24.5
2035.63	20.5
2036.6	30
2037.58	22
2038.55	24.5
2039.52	19.5
2040.5	24.5
2041.47	23.5
2042.45	23
2043.42	21
2044.39	22
2045.36	22.5
2046.34	27
2047.31	24
2048.28	22
2049.26	23
2050.23	18
2051.2	26.5
2052.17	25
2053.14	21.5
2054.12	27.5
2055.09	21
2056.06	28
2057.03	22
2058	24
2058.97	24.5
2059.94	26
2060.91	22
2061.88	24
2062.85	22
2063.82	27
2064.79	23
2065.76	24.5
2066.73	23
2067.7	23.5
2068.67	20
2069.64	26
2070.61	25
2071.58	24.5
2072.55	21.5
2073.52	23.5
2074.49	24
2075.45	26
2076.42	23
2077.39	22.5
2078.36	23
2079.33	25
2080.29	24.5
2081.26	21.5
2082.23	24
2083.2	25.5
2084.16	23
2085.13	25
2086.1	22.5
2087.06	24.5
2088.03	23
2089	25
2089.96	23
2090.93	19
2091.89	27
2092.86	24
2093.83	22.5
2094.79	23
2095.76	22.5
2096.72	21.5
2097.69	22.5
2098.65	23
2099.62	25
2100.58	25
2101.55	20
2102.51	24
2103.47	22
2104.44	22.5
2105.4	23
2106.36	24.5
2107.33	25
2108.29	21
2109.25	25
2110.22	24
2111.18	23
2112.14	25.5
2113.11	22
2114.07	24.5
2115.03	24
2115.99	23
2116.96	29
2117.92	22
2118.88	23.5
2119.84	23
2120.8	28
2121.76	23.5
2122.72	25
2123.68	22
2124.65	22
2125.61	25
2126.57	21.5
2127.53	24.5
2128.49	25
2129.45	19
2130.41	20.5
2131.37	20.5
2132.33	22
2133.29	23.5
2134.25	26
2135.21	25
2136.17	24.5
2137.12	24
2138.08	25
2139.04	25.5
2140	24
2140.96	21
2141.92	23
2142.88	23.9865
2143.83	20.9973
2144.79	20.1707
2145.75	24.9922
2146.71	25.4477
2147.66	23.4013
2148.62	25.3252
2149.58	21.4546
2150.53	22.9073
2151.49	21.9539
2152.45	23.8172
2153.4	21.3392
2154.36	22.9255
2155.32	25.6643
2156.27	23.2533
2157.23	24.8375
2158.19	24.315
2159.14	23.7025
2160.1	25.8204
2161.05	24.4504
2162.01	21.9119
2162.96	22.342
2163.92	21.6666
2164.87	26.6263
2165.83	23.7969
2166.78	25.8813
2167.73	25.268
2168.69	24.4321
2169.64	18.5298
2170.6	24.558
2171.55	23.4401
2172.5	22.9616
2173.46	23.1593
2174.41	19.3794
2175.36	21.0265
2176.32	24.4241
2177.27	23.9592
2178.22	22.3857
2179.18	20.8814
2180.13	23.7225
2181.08	21.201
2182.03	22.5797
2182.98	23.4126
2183.94	25.1264
2184.89	22.6884
2185.84	24.1154
2186.79	20.3779
2187.74	23.8083
2188.69	22.1238
2189.64	20.6333
2190.6	23.5013
2191.55	23.2796
2192.5	23.2571
2193.45	22.0204
2194.4	22.4126
2195.35	22.395
2196.3	22.1961
2197.25	24.1728
2198.2	21.1716
2199.15	18.6734
2200.1	22.5263
2201.04	20.8528
2201.99	24.1888
2202.94	23.4013
2203.89	24.9289
2204.84	22.2633
2205.79	23.0042
2206.74	20.9152
2207.69	23.4683
2208.63	20.6886
2209.58	21.9998
2210.53	18.8704
2211.48	21.8411
2212.43	22.7448
2213.37	23.8622
2214.32	25.0557
2215.27	23.773
2216.21	23.6579
2217.16	25.1675
2218.11	23.1545
2219.05	24.3742
2220	22.089
2220.95	23.144
2221.89	21.5157
2222.84	23.8738
2223.78	22.55
2224.73	23.649
2225.68	24.4331
2226.62	24.867
2227.57	24.4486
2228.51	24.5607
2229.46	26.1007
2230.4	23.0374
2231.35	23.0067
2232.29	21.6433
2233.24	24.282
2234.18	23.0089
2235.12	21.7784
2236.07	23.4414
2237.01	24.4111
2237.95	24.0976
2238.9	24.7435
2239.84	24.2322
2240.06	24
2241.01	25
2241.96	25
2242.91	22
2243.86	24
2244.8	22
2245.75	25.5
2246.7	22
2247.65	20.5
2248.59	25.5
2249.54	24.5
2250.49	25
2251.43	21
2252.38	24.5
2253.33	22
2254.27	22
2255.22	24
2256.16	22
2257.11	23
2258.06	23.5
2259	22.5
2259.95	24
2260.89	22
2261.84	24.5
2262.78	24.5
2263.73	18
2264.67	25
2265.62	21.5
2266.56	21
2267.5	23
2268.45	21.5
2269.39	21
2270.34	23.5
2271.28	26.5
2272.22	24.5
2273.17	26.5
2274.11	21.5
2275.05	27.5
2276	24.5
2276.94	22
2277.88	23
2278.82	23.5
2279.77	21.5
2280.71	21
2281.65	26
2282.59	24
2283.53	24
2284.48	23
2285.42	23.5
2286.36	23.5
2287.3	24
2288.24	27
2289.18	21.5
2290.12	24.5
2291.06	26
2292	26
2292.94	22.5
2293.89	26
2294.83	24
2295.77	26.5
2296.71	26
2297.65	23.5
2298.58	22.5
2299.52	25
2300.46	23
2301.4	18
2302.34	25
2303.28	22
2304.22	23.5
2305.16	20
2306.1	23.5
2307.03	27
2307.97	21.5
2308.91	24
2309.85	22
2310.79	28.5
2311.72	20
2312.66	24.5
2313.6	22
2314.54	20
2315.47	27
2316.41	22.5
2317.35	22.5
2318.28	20
2319.22	19
2320.16	23
2321.09	22.5
2322.03	27.5
2322.96	22
2323.9	24
2324.84	23.5
2325.77	27.5
2326.71	22
2327.64	18.5
2328.58	24.5
2329.51	23
2330.45	22
2331.38	21
2332.32	23.5
2333.25	20
2334.18	24
2335.12	21
2336.05	22
2336.99	22
2337.92	26
2338.85	23.5
2339.79	21.5
2340.72	24
2341.65	23.5
2342.59	18
2343.52	24
2344.45	25
2345.39	21.5
2346.32	27.5
2347.25	22
2348.18	26.5
2349.11	23
2350.05	23.5
2350.98	28.5
2351.91	18.5
2352.84	24.5
2353.77	21.5
2354.7	21.5
2355.64	23.5
2356.57	24.5
2357.5	26.5
2358.43	25.5
2359.36	20.5
2360.29	29
2361.22	23
2362.15	24.5
2363.08	25
2364.01	24
2364.94	25
2365.87	25
2366.8	21.5
2367.73	21.5
2368.66	22.5
2369.58	20.5
2370.51	27.5
2371.44	25
2372.37	19.5
2373.3	24.5
2374.23	23
2375.16	25
2376.08	22.5
2377.01	22.5
2377.94	21.5
2378.87	24
2379.8	27
2380.72	26.5
2381.65	26
2382.58	22.5
2383.5	25.5
2384.43	20.5
2385.36	22
2386.28	26
2387.21	25.5
2388.14	25
2389.06	24
2389.99	25
2390.91	29
2391.84	25.5
2392.77	24
2393.69	23
2394.62	21.5
2395.54	21
2396.47	27
2397.39	24
2398.32	20.5
2399.24	27.5
2400.16	26
2401.09	24.5
2402.01	23.5
2402.94	23
2403.86	24.5
2404.78	22
2405.71	24.5
2406.63	19
2407.56	25
2408.48	23
2409.4	22.5
2410.32	25.5
2411.25	24
2412.17	26.5
2413.09	23.5
2414.02	23.5
2414.94	26
2415.86	24.5
2416.78	25.5
2417.7	24
2418.63	23.5
2419.55	22
2420.47	21
2421.39	28.5
2422.31	22
2423.23	25
2424.15	26.5
2425.07	25.5
2425.99	26
2426.92	21.5
2427.84	26
2428.76	26.5
2429.68	20.5
2430.59	24
2431.51	25
2432.43	21
2433.35	26
2434.27	21.5
2435.19	26
2436.11	26
2437.03	24.5
2437.95	24.5
2438.87	21
2439.79	22
2440.71	24
2441.62	25
2442.54	24
2443.46	23.5
2444.38	23.5
2445.3	23
2446.21	21.5
2447.13	27.5
2448.05	24.5
2448.97	25
2449.88	26.5
2450.8	25
2451.72	25.5
2452.63	25
2453.55	28
2454.47	22
2455.38	22
2456.3	23
2457.21	23.5
2458.13	28
2459.05	25
2459.96	25.5
2460.88	22.5
2461.79	23.5
2462.71	27
2463.62	23.5
2464.54	25.5
2465.45	24
2466.37	23
2467.28	27.5
2468.2	23
2469.11	27
2470.02	22
2470.94	17.5
2471.85	22.5
2472.77	25.5
2473.68	24
2474.59	23.5
2475.51	26
2476.42	24.5
2477.33	22
2478.25	26
2479.16	23.5
2480.07	27.5
2480.98	24
2481.9	24.5
2482.81	22
2483.72	25
2484.63	23
2485.55	23.5
2486.46	25.5
2487.37	24.5
2488.28	26
2489.19	21
2490.1	26.5
2491.01	23
2491.92	27
2492.83	25
2493.74	23
2494.66	27.5
2495.57	23
2496.48	24.5
2497.39	24
2498.3	23.5
2499.21	28.5
2500.12	24.5
2501.03	24.5
2501.93	28
2502.84	26.5
2503.75	24.5
2504.66	21.5
2505.57	24.5
2506.48	23
2507.39	26
2508.3	27
2509.21	24.5
2510.11	26.5
2511.02	25
2511.93	24.5
2512.84	24
2513.75	23
2514.65	20.5
2515.56	24.5
2516.47	24
2517.37	26
2518.28	23
2519.19	23
2520.09	23
2521	24
2521.91	31
2522.81	19.5
2523.72	23.5
2524.63	25
2525.53	30
2526.44	25.5
2527.34	21.5
2528.25	25.5
2529.16	26
2530.06	28.5
2530.97	25
2531.87	24.5
2532.78	26.5
2533.68	23.5
2534.58	26
2535.49	24
2536.39	24
2537.3	23.5
2538.2	25.5
2539.11	21.5
2540.01	27.5
2540.91	24.5
2541.82	20
2542.72	24
2543.62	24
2544.53	25
2545.43	20.5
2546.33	26
2547.23	24
2548.14	24.5
2549.04	25.5
2549.94	24
2550.84	25
2551.75	28
2552.65	21
2553.55	25.5
2554.45	25.5
2555.35	23.5
2556.26	22.5
2557.16	22
2558.06	23.5
2558.96	22
2559.86	23
2560.76	22
2561.66	30
2562.56	26.5
2563.46	19
2564.36	29
2565.26	24
2566.16	27
2567.06	22.5
2567.96	24
2568.86	24
2569.76	24
2570.66	24.5
2571.56	25
2572.46	21
2573.36	28
2574.26	24.5
2575.16	24
2576.05	24.5
2576.95	23
2577.85	28.5
2578.75	29.5
2579.65	25
2580.54	19
2581.44	26.5
2582.34	23
2583.24	23.5
2584.13	23
2585.03	23.5
2585.93	21
2586.83	23.5
2587.72	26
2588.62	23
2589.52	21
2590.41	24.5
2591.31	24
2592.2	24
2593.1	28
2594	23
2594.89	25
2595.79	27
2596.68	23
2597.58	24.5
2598.47	27
2599.37	24
2600.26	24
2601.16	21
2602.05	26.5
2602.95	25
2603.84	28.5
2604.74	19
2605.63	28
2606.52	24
2607.42	22
2608.31	28.5
2609.21	21
2610.1	23
2610.99	25.5
2611.89	28.5
2612.78	25
2613.67	24
2614.56	25.5
2615.46	26.5
2616.35	23.5
2617.24	23.5
2618.13	25
2619.03	26
2619.92	25.5
2620.81	25.5
2621.7	23
2622.59	23.5
2623.49	26.5
2624.38	23.5
2625.27	23
2626.16	24
2627.05	27.5
2627.94	25
2628.83	25.5
2629.72	26.5
2630.61	24
2631.5	25.5
2632.39	23
2633.28	26.5
2634.17	24.5
2635.06	27
2635.95	24
2636.84	23.5
2637.73	26
2638.62	27.5
2639.51	25
2640.4	25
2641.29	24
2642.18	25
2643.07	22
2643.96	23.5
2644.84	22.5
2645.73	25
2646.62	21
2647.51	26
2648.4	21
2649.28	24
2650.17	26.5
2651.06	26.5
2651.95	24
2652.83	24.5
2653.72	25.5
2654.61	22.5
2655.49	22
2656.38	28.5
2657.27	22.5
2658.16	26
2659.04	22
2659.93	24
2660.81	26.5
2661.7	26
2662.59	25
2663.47	27
2664.36	27
2665.24	24.5
2666.13	23
2667.01	26
2667.9	24.5
2668.78	22.5
2669.67	29.5
2670.55	21
2671.44	26.5
2672.32	21.5
2673.21	21
2674.09	24.5
2674.97	23.5
2675.86	27
2676.74	26
2677.62	22.5
2678.51	21.5
2679.39	25
2680.27	24.5
2681.16	25
2682.04	27
2682.92	21.5
2683.81	23.5
2684.69	26
2685.57	23.5
2686.45	21.5
2687.34	23
2688.22	26
2689.1	24.5
2689.98	24
2690.86	23.5
2691.75	24.5
2692.63	26
2693.51	22
2694.39	22
2695.27	24.5
2696.15	22
2697.03	27
2697.91	22.5
2698.79	27
2699.67	26
2700.55	22.5
2701.43	24
2702.31	21
2703.19	22
2704.07	26.5
2704.95	27.5
2705.83	27.5
2706.71	24
2707.59	24
2708.47	26.5
2709.35	24
2710.23	26
2711.11	24
2711.99	24
2712.86	29.5
2713.74	23
2714.62	22
2715.5	23.5
2716.38	27.5
2717.26	28
2718.13	23.5
2719.01	26.5
2719.89	22
2720.77	26
2721.64	22.5
2722.52	28
2723.4	20
2724.27	26.5
2725.15	24.5
2726.03	24.5
2726.9	23
2727.78	28.5
2728.66	25
2729.53	26
2730.41	27.5
2731.28	25
2732.16	26
2733.03	29.5
2733.91	23
2734.79	21.5
2735.66	24
2736.54	25.5
2737.41	27
2738.29	26
2739.16	26
2740.03	24.5
2740.91	27
2741.78	23
2742.66	18
2743.53	25
2744.41	27.5
2745.28	23.5
2746.15	24
2747.03	25
2747.9	22.5
2748.77	23.5
2749.65	24
2750.52	28
2751.39	24
2752.27	24
2753.14	25.5
2754.01	25.5
2754.88	25
2755.75	26
2756.63	20.5
2757.5	22
2758.37	24
2759.24	22.5
2760.11	23
2760.99	29.5
2761.86	25
2762.73	21.5
2763.6	23.5
2764.47	21.5
2765.34	29.5
2766.21	23
2767.08	23
2767.95	23
2768.82	24.5
2769.69	26.5
2770.56	22.5
2771.43	23
2772.3	24.5
2773.17	27
2774.04	26.5
2774.91	25
2775.78	27.5
2776.65	26.5
2777.52	27.5
2778.39	26.5
2779.26	27.5
2780.13	22
2780.99	28.5
2781.86	26
2782.73	27.5
2783.6	27
2784.47	24.5
2785.34	21
2786.2	25.5
2787.07	27.5
2787.94	25
2788.81	26.5
2789.67	24
2790.54	25
2791.41	25.5
2792.27	27
2793.14	25.5
2794.01	23
2794.87	26.5
2795.74	28.5
2796.61	28
2797.47	25.5
2798.34	26
2799.21	26.5
2800.07	24
2800.94	24.75
2801.8	24
2802.67	29
2803.53	24
2804.4	27.5
2805.26	24
2806.13	26.5
2806.99	28
2807.86	25
2808.72	25.5
2809.59	28.5
2810.45	25
2811.32	27.5
2812.18	30.5
2813.04	30
2813.91	27.5
2814.77	26
2815.64	17
2816.5	22.5
2817.36	24.5
2818.22	26.5
2819.09	30
2819.95	28
2820.81	25
2821.68	25.5
2822.54	23.5
2823.4	25
2824.26	24
2825.13	30.5
2825.99	24
2826.85	25.5
2827.71	26
2828.57	25
2829.44	30.5
2830.3	25
2831.16	22
2832.02	25.5
2832.88	24
2833.74	28
2834.6	24.5
2835.46	25
2836.32	23
2837.18	27.5
2838.04	22
2838.9	26.5
2839.76	27.5
2840.62	24
2841.48	27.5
2842.34	28
2843.2	25.5
2844.06	21.5
2844.92	21
2845.78	25.5
2846.64	28
2847.5	25.5
2848.36	26
2849.22	28.5
2850.08	22
2850.93	25
2851.79	27.5
2852.65	27.5
2853.51	22
2854.37	27.5
2855.22	27
2856.08	26.5
2856.94	28.5
2857.8	28.5
2858.65	26
2859.51	26
2860.37	29
2861.23	23
2862.08	27
2862.94	28
2863.79	26
2864.65	24.5
2865.51	27
2866.36	26
2867.22	26.5
2868.08	26
2868.93	27.5
2869.79	24
2870.64	32
2871.5	32
2872.35	30
2873.21	29
2874.06	32
2874.92	29.5
2875.77	31.5
2876.63	32.5
2877.48	30
2878.34	30.5
2879.19	33
2880.05	32
2880.9	34.5
2881.76	28.5
2882.61	33.5
2883.46	33
2884.32	33.5
2885.17	30.5
2886.02	36.5
2886.88	37
2887.73	39
2888.58	34.5
2889.44	34
2890.29	38.5
2891.14	38.5
2891.99	38
2892.85	42
2893.7	46.5
2894.55	42
2895.4	45
2896.25	51.5
2897.11	53
2897.96	55
2898.81	55
2899.66	57.5
2900.51	60
2901.36	64.5
2902.21	64.5
2903.07	68.5
2903.92	66.5
2904.77	68.5
2905.62	68.5
2906.47	69
2907.32	70.5
2908.17	77.5
2909.02	65.5
2909.87	67.5
2910.72	59.5
2911.57	59
2912.42	58
2913.27	55.5
2914.12	55.5
2914.97	51
2915.81	43
2916.66	43.5
2917.51	40
2918.36	40
2919.21	36.5
2920.06	39
2920.91	35.5
2921.75	34
2922.6	36
2923.45	33
2924.3	35.5
2925.15	32
2925.99	31
2926.84	28
2927.69	34
2928.54	30
2929.38	32
2930.23	34
2931.08	33.5
2931.92	30
2932.77	29
2933.62	29
2934.46	30
2935.31	30
2936.16	31
2937	28
2937.85	30
2938.69	26.5
2939.54	31
2940.38	29
2941.23	34
2942.08	28
2942.92	28
2943.77	28.5
2944.61	29.5
2945.46	26
2946.3	29
2947.15	29
2947.99	35
2948.83	31.5
2949.68	29.5
2950.52	32.5
2951.37	27
2952.21	29
2953.05	31.5
2953.9	27.5
2954.74	34.5
2955.58	34
2956.43	34
2957.27	34
2958.11	40
2958.96	42
2959.8	40.5
2960.64	43
2961.48	44.5
2962.33	46.5
2963.17	44.5
2964.01	48.5
2964.85	44.5
2965.69	43.5
2966.54	49.5
2967.38	44
2968.22	46.5
2969.06	43.5
2969.9	43
2970.74	44
2971.58	42.966
2972.43	31.9773
2973.27	36.5212
2974.11	36.9251
2974.95	28.2442
2975.79	32.9784
2976.63	32.8833
2977.47	34.3428
2978.31	30.3348
2979.15	33.1965
2979.99	30.5448
2980.83	27.7983
2981.67	28.9439
2982.51	26.6971
2983.35	23.9856
2984.19	29.3408
2985.03	25.7092
2985.86	26.7625
2986.7	27.681
2987.54	27.4025
2988.38	23.4457
2989.22	28.7507
2990.06	27.8301
2990.9	23.0599
2991.73	23.8166
2992.57	25.6523
2993.41	24.9243
2994.25	25.4941
2995.09	28.4118
2995.92	26.1566
2996.76	25.3569
2997.6	23.1678
2998.44	24.9974
2999.27	24.2622
3000.11	23.9966
3000.95	24.7818
3001.78	25.3228
3002.62	25.5359
3003.46	20.9547
3004.29	20.9665
3005.13	23.2277
3005.96	23.5681
3006.8	24.9919
3007.64	22.789
3008.47	22.95
3009.31	23.8495
3010.14	22.339
3010.98	24.0821
3011.81	24.6456
3012.65	25.2077
3013.48	25.0819
3014.32	22.093
3015.15	21.333
3015.99	23.3312
3016.82	21.1996
3017.66	21.9451
3018.49	24.2698
3019.33	22.468
3020.16	21.1977
3020.99	22.0729
3021.83	22.5925
3022.66	23.6271
3023.5	25.4268
3024.33	22.9461
3025.16	22.3002
3026	24.3021
3026.83	22.8752
3027.66	22.704
3028.49	24.3804
3029.33	22.2218
3030.16	22.4801
3030.99	22.1919
3031.83	22.3075
3032.66	20.8474
3033.49	21.9119
3034.32	22.5557
3035.15	22.6526
3035.99	22.0062
3036.82	23.5081
3037.65	22.2186
3038.48	22.4122
3039.31	23.9421
3040.14	22.1971
3040.97	22.792
3041.81	23.2533
3042.64	23.4168
3043.47	21.9097
3044.3	24.2167
3045.13	22.9465
3045.96	22.3156
3046.79	22.559
3047.62	21.9902
3048.45	22.032
3049.28	22.9716
3050.11	22.6041
3050.94	22.9624
3051.77	23.392
3052.6	23.1263
3053.43	21.7742
3054.26	24.0158
3055.08	25.0791
3055.91	23.4911
3056.74	22.017
3057.26	22
3058.09	24
3058.92	25
3059.76	24
3060.59	25
3061.42	20.5
3062.25	24.5
3063.09	23
3063.92	21
3064.75	23
3065.58	24.5
3066.42	23.5
3067.25	21
3068.08	23
3068.91	23
3069.74	22.5
3070.57	24.5
3071.41	20
3072.24	25
3073.07	23.5
3073.9	23
3074.73	22
3075.56	22
3076.39	21
3077.22	26.5
3078.05	25
3078.88	24
3079.71	23.5
3080.54	21.5
3081.37	26
3082.2	23.5
3083.03	27
3083.86	22.5
3084.69	26
3085.52	21
3086.35	20
3087.18	22
3088.01	22.5
3088.84	23
3089.67	24.5
3090.5	25.5
3091.32	22.5
3092.15	25.5
3092.98	26.5
3093.81	23
3094.64	25
3095.47	23.5
3096.29	25
3097.12	24.5
3097.95	22
3098.78	20
3099.6	21
3100.43	24
3101.26	22
3102.09	23.5
3102.91	25
3103.74	24
3104.57	23.5
3105.39	26
3106.22	23.5
3107.05	24.5
3107.87	23.5
3108.7	21.5
3109.52	25.5
3110.35	23
3111.18	25.5
3112	22.5
3112.83	24
3113.65	24
3114.48	22
3115.3	24
3116.13	21
3116.95	19.5
3117.78	24.5
3118.6	24.5
3119.43	26.5
3120.25	24.5
3121.08	22
3121.9	23.5
3122.72	21
3123.55	26
3124.37	25
3125.2	23
3126.02	18
3126.84	24
3127.67	18
3128.49	24
3129.31	21
3130.14	26
3130.96	23.5
3131.78	23.5
3132.61	22
3133.43	25.5
3134.25	21.5
3135.07	22
3135.89	20
3136.72	25
3137.54	27.5
3138.36	24.5
3139.18	27
3140	26
3140.83	28
3141.65	20
3142.47	23.5
3143.29	26
3144.11	24.5
3144.93	25
3145.75	27
3146.57	18
3147.4	24
3148.22	24.5
3149.04	29
3149.86	23.5
3150.68	24
3151.5	23
3152.32	23
3153.14	22.5
3153.96	26
3154.78	20
3155.59	25.5
3156.42	23
3157.23	24.5
3158.05	25
3158.87	25
3159.69	23
3160.51	26.5
3161.33	20.5
3162.15	23
3162.97	24.5
3163.78	20
3164.6	27
3165.42	22.5
3166.24	24.5
3167.06	25
3167.87	29
3168.69	28
3169.51	22.5
3170.33	24
3171.14	23
3171.96	22
3172.78	25
3173.6	22.5
3174.41	28
3175.23	23
3176.05	24
3176.86	19
3177.68	21.5
3178.5	27
3179.31	25.5
3180.13	23
3180.94	26
3181.76	21.5
3182.58	25
3183.39	24
3184.21	20.5
3185.02	24
3185.84	21.5
3186.65	25
3187.47	23
3188.28	20.5
3189.1	24
3189.91	26
3190.73	22
3191.54	26.5
3192.36	23.5
3193.17	26.5
3193.98	23
3194.8	24
3195.61	20
3196.43	21
3197.24	23
3198.05	22.5
3198.87	25
3199.68	26
3200.49	21.5
3201.31	22
3202.12	22
3202.93	25
3203.75	24.5
3204.56	24
3205.37	23
3206.18	26.5
3207	20
3207.81	24.5
3208.62	25
3209.43	22
3210.24	22.5
3211.06	23
3211.87	24.5
3212.68	23
3213.49	23.5
3214.3	25
3215.11	20
3215.92	21.5
3216.73	24.5
3217.55	23.5
3218.36	26
3219.17	19
3219.98	27
3220.79	24
3221.6	20.5
3222.41	25
3223.22	22
3224.03	24
3224.84	22
3225.65	23.5
3226.46	23
3227.27	23
3228.08	23
3228.89	22.5
3229.7	20
3230.5	21
3231.31	22.5
3232.12	24
3232.93	22.5
3233.74	24
3234.55	23
3235.36	26
3236.16	20.5
3236.97	23
3237.78	23
3238.59	24
3239.4	26
3240.2	27
3241.01	23
3241.82	27.5
3242.63	24
3243.43	28
3244.24	24.5
3245.05	28
3245.85	27.5
3246.66	25
3247.47	16.5
3248.27	24
3249.08	22
3249.89	24.5
3250.69	20.5
3251.5	23
3252.31	21
3253.11	25.5
3253.92	26.5
3254.72	20
3255.53	23
3256.33	27.5
3257.14	26
3257.94	27.5
3258.75	22.5
3259.55	25
3260.36	23.5
3261.16	21
3261.97	24
3262.77	22
3263.58	25
3264.38	24
3265.19	30
3265.99	24
3266.79	23
3267.6	23
3268.4	25
3269.21	24.5
3270.01	24.5
3270.81	23
3271.62	25.5
3272.42	23
3273.22	21
3274.03	27
3274.83	27.5
3275.63	25
3276.43	25.5
3277.24	23
3278.04	22.5
3278.84	22
3279.64	26
3280.45	26
3281.25	24.5
3282.05	25.5
3282.85	23.5
3283.65	20
3284.45	25.5
3285.26	22
3286.06	20.5
3286.86	21.5
3287.66	25.5
3288.46	27
3289.26	23.5
3290.06	24.5
3290.86	24
3291.66	28
3292.46	24.5
3293.26	26.5
3294.06	23.5
3294.86	22.5
3295.66	23
3296.46	23.5
3297.26	21
3298.06	22.5
3298.86	23
3299.66	24
3300.46	27
3301.26	25.5
3302.06	22.5
3302.86	26
3303.66	25
3304.46	27.5
3305.25	24
3306.05	25
3306.85	23.5
3307.65	22.5
3308.45	23
3309.25	23
3310.04	21
3310.84	24
3311.64	23
3312.44	25.5
3313.23	27.5
3314.03	23
3314.83	26.5
3315.63	25
3316.42	24.5
3317.22	24.5
3318.02	24.5
3318.81	26
3319.61	25.5
3320.41	24.5
3321.2	25.5
3322	25.5
3322.8	25.5
3323.59	23.5
3324.39	24
3325.18	23.5
3325.98	21.5
3326.78	24
3327.57	26
3328.37	24
3329.16	21
3329.96	23.5
3330.75	20.5
3331.55	24.5
3332.34	24.5
3333.14	17.5
3333.93	20
3334.73	25
3335.52	24
3336.31	21
3337.11	23
3337.9	25.5
3338.7	20
3339.49	24.5
3340.28	23
3341.08	28.5
3341.87	25
3342.66	24
3343.46	25.5
3344.25	27.5
3345.04	23.5
3345.84	23
3346.63	23.5
3347.42	26.5
3348.22	23
3349.01	27.5
3349.8	23.5
3350.59	24
3351.39	27
3352.18	24.5
3352.97	26
3353.76	26.5
3354.55	29
3355.35	17
3356.14	22.5
3356.93	24
3357.72	24.5
3358.51	25
3359.3	27
3360.09	25
3360.88	26
3361.67	25
3362.46	23
3363.26	22
3364.05	22.5
3364.84	25
3365.63	26.5
3366.42	22.5
3367.21	24
3368	22
3368.79	24
3369.58	27
3370.37	20.5
3371.15	24
3371.94	22.5
3372.73	27.5
3373.52	24.5
3374.31	24
3375.1	23
3375.89	24
3376.68	27.5
3377.47	27
3378.26	22
3379.04	26.5
3379.83	24.5
3380.62	24.5
3381.41	23
3382.2	24
3382.98	25.5
3383.77	20
3384.56	24
3385.35	24.5
3386.13	26
3386.92	25.5
3387.71	24
3388.5	26.5
3389.28	25
3390.07	25
3390.86	26.5
3391.64	23.5
3392.43	24
3393.22	25
3394	27
3394.79	24.5
3395.57	25
3396.36	22.5
3397.15	28
3397.93	22.5
3398.72	27
3399.5	24.5
3400.29	25
3401.07	22
3401.86	26.5
3402.65	23
3403.43	27.5
3404.21	21
3405	20
3405.78	26
3406.57	27.5
3407.35	21.5
3408.14	21
3408.92	21
3409.71	22.5
3410.49	22
3411.27	19
3412.06	26.5
3412.84	24.5
3413.62	23.5
3414.41	26.5
3415.19	22
3415.97	28.5
3416.76	22.5
3417.54	22
3418.32	23.5
3419.11	21.5
3419.89	21.5
3420.67	26.5
3421.46	25
3422.24	24
3423.02	22.5
3423.8	21.5
3424.58	24.5
3425.37	23.5
3426.15	21
3426.93	25
3427.71	26
3428.49	28
3429.27	22
3430.05	27.5
3430.84	23
3431.62	22
3432.4	24.5
3433.18	27.5
3433.96	24
3434.74	24
3435.52	26.5
3436.3	22
3437.08	23.5
3437.86	23.5
3438.64	24
3439.42	24.5
3440.2	27
3440.98	24
3441.76	24
3442.54	20.5
3443.32	24
3444.1	22.5
3444.88	26.5
3445.66	26
3446.44	22.5
3447.22	22
3448	22.5
3448.77	25.5
3449.55	25.5
3450.33	24
3451.11	29
3451.89	23.5
3452.67	22
3453.45	25
3454.22	26
3455	21.5
3455.78	23.5
3456.56	22.5
3457.33	25
3458.11	27
3458.89	22
3459.67	25
3460.44	22.5
3461.22	25
3462	25.5
3462.77	25.5
3463.55	26
3464.33	25.5
3465.1	23.5
3465.88	27.5
3466.66	21.5
3467.43	25
3468.21	21.5
3468.98	23.5
3469.76	25
3470.54	22
3471.31	23
3472.09	21
3472.86	24
3473.64	26
3474.41	26
3475.19	26
3475.96	23.5
3476.74	23.5
3477.51	26
3478.29	26
3479.06	28
3479.84	23.5
3480.61	26.5
3481.39	21.5
3482.16	24
3482.93	27
3483.71	25
3484.48	21.5
3485.25	25
3486.03	23
3486.8	23.5
3487.57	23.5
3488.35	22.5
3489.12	22
3489.89	24
3490.67	24
3491.44	26
3492.21	24
3492.99	24.5
3493.76	27
3494.53	23.5
3495.3	25
3496.08	22.5
3496.85	24.5
3497.62	24
3498.39	23
3499.16	24
3499.93	21
