#Acq. time (s)=	5
#Accumulations=	5
#Range (cm-¹)=	100...3500
#Windows=	4
#Autofocus=	Off
#AutoExposure=	Off
#Spike filter=	Multiple accum.
#Delay time (s)=	0
#Binning=	1
#Readout mode=	Signal
#DeNoise=	Off
#ICS correction=	Off
#Dark correction=	Off
#Inst. Process=	Off
#Instrument=	LabRAM HR Evol
#Detector=	Syncerity OE
#Objective=	x100_VIS
#Grating=	600 (500nm)
#ND Filter=	25%
#Laser=	633nm_Edge
#Hole=	100.021
#Range=	Visible
#Project=	verificaciones
#Sample=	at2
#Site=	lined
#Title=	bolusat2lined
#Remark=	
#Date=	13.01.2026 15:32
#Acquired=	13.01.2026 15:32:30
100.692	28
101.975	31
103.258	37
104.542	31.5
105.824	34.5
107.107	31
108.39	30.5
109.672	31
110.954	35
112.236	30.5
113.519	33
114.8	26
116.081	30.5
117.362	37
118.643	28.5
119.924	32.5
121.204	32
122.484	29
123.764	35.5
125.044	33
126.323	30
127.603	33.5
128.882	35.5
130.161	29.5
131.438	37
132.716	42
133.995	34.5
135.273	37.5
136.55	34
137.828	38
139.106	39
140.383	36
141.66	40.5
142.937	38.5
144.213	42
145.488	39
146.764	42.5
148.04	37
149.316	37
150.592	42.5
151.867	41
153.141	46
154.416	38.5
155.69	42.5
156.965	40.5
158.239	43
159.512	46
160.786	44
162.059	41.5
163.333	43
164.605	40
165.878	42
167.15	37
168.423	40
169.694	40.5
170.966	41
172.238	39.5
173.51	42
174.78	38
176.052	47
177.323	38
178.592	38.5
179.863	38.5
181.134	41
182.403	42
183.673	47
184.943	48
186.211	45.5
187.481	41.5
188.749	47.5
190.018	45
191.287	41
192.554	47.5
193.822	42
195.089	41.5
196.357	40.5
197.625	43.5
198.891	43.5
200.159	40.5
201.425	43.5
202.692	38
203.957	38
205.224	38
206.489	38.5
207.755	37
209.02	37.5
210.286	38
211.55	35
212.815	34.5
214.079	37.5
215.344	33
216.607	33
217.872	36
219.135	36
220.399	31.5
221.662	35.5
222.924	35.5
224.187	33
225.449	37
226.713	35
227.974	33.5
229.235	33.5
230.498	31
231.759	30.5
233.019	35.5
234.281	35.5
235.542	31
236.802	31.5
238.063	37
239.323	32.5
240.582	35
241.843	29.5
243.102	33.5
244.361	30
245.621	33.5
246.879	32.5
248.138	32
249.396	32
250.655	31
251.913	34.5
253.17	32
254.427	28.5
255.686	27
256.943	33.5
258.199	33.5
259.456	28
260.712	30.5
261.969	32.5
263.225	26
264.481	34.5
265.736	28
266.991	31
268.246	29
269.502	33.5
270.757	32.5
272.011	29.5
273.265	29.5
274.519	27.5
275.773	29.5
277.027	32.5
278.28	27
279.533	30
280.786	31
282.04	31.5
283.293	24.5
284.545	33
285.798	31
287.049	31
288.301	28.5
289.553	34.5
290.804	28.5
292.055	32
293.306	30.5
294.557	32.5
295.807	30
297.058	30.5
298.308	34.5
299.558	30.5
300.808	28
302.057	31
303.305	29
304.554	30.5
305.803	29.5
307.052	26.5
308.3	27.5
309.549	30
310.797	30
312.045	28.5
313.292	28.5
314.54	32.5
315.786	31
317.033	28
318.28	30
319.526	30
320.773	28
322.019	27
323.264	31
324.51	27
325.755	28
327.001	29.5
328.246	27
329.49	30.5
330.735	30
331.979	27
333.224	27
334.467	31
335.711	29.5
336.955	31.5
338.199	33
339.441	26.5
340.684	31
341.927	27.5
343.168	30.5
344.411	28.5
345.654	23
346.895	27.5
348.137	32.5
349.379	27
350.619	31
351.86	28.5
353.102	28
354.341	30
355.582	28.5
356.821	27.5
358.062	27
359.302	31.5
360.541	30
361.781	29
363.019	25.5
364.259	33
365.496	29
366.736	28.5
367.974	27.5
369.212	28
370.45	31
371.687	30
372.925	31
374.162	26
375.399	32.5
376.635	32.5
377.873	30
379.109	25
380.344	28.5
381.581	33.5
382.816	30
384.052	30
385.287	32.5
386.523	28
387.757	26
388.991	25.5
390.227	30
391.46	24
392.695	32
393.928	28
395.162	27
396.396	31
397.629	31.5
398.861	27.5
400.095	31.5
401.327	29
402.559	27
403.792	28
405.024	30.5
406.255	25
407.488	29.5
408.719	29.5
409.949	29.5
411.18	29
412.412	28.5
413.642	27
414.872	29
416.102	26.5
417.333	25.5
418.562	28.5
419.791	26.5
421.02	30
422.249	30
423.479	32.5
424.707	31
425.935	28
427.163	30
428.391	30
429.619	30
430.848	27.5
432.075	32
433.302	25
434.529	29.5
435.755	28.5
436.982	29
438.208	28.5
439.434	32
440.66	28
441.885	28.5
443.111	31.5
444.338	29
445.563	29.5
446.788	29.5
448.012	27.5
449.237	31
450.461	32
451.685	31.5
452.909	32.5
454.133	30
455.356	29.5
456.579	33
457.802	31
459.025	29
460.247	30.5
461.469	31
462.691	37
463.914	33
465.136	29
466.357	28
467.579	33
468.8	38.5
470.021	37.5
471.242	36.5
472.462	38.5
473.682	34.5
474.903	39
476.123	40
477.343	45.5
478.563	47.5
479.782	46
481	46
482.219	56
483.438	62
484.657	61.5
485.874	62.5
487.093	58.5
488.311	60
489.529	67
490.747	64.5
491.963	55
493.181	58
494.398	57
495.614	52.5
496.83	56
498.047	48.5
499.264	48
500.479	50.5
501.695	44.5
502.911	46
504.125	40.5
505.34	45
506.554	38.5
507.769	38
508.984	42
510.198	36
511.412	36
512.627	35.5
513.839	35
515.053	32
516.266	36
517.479	36
518.691	37.5
519.905	42
521.118	30
522.329	32.5
523.542	34.5
524.753	34
525.965	31
527.176	32.5
528.388	28.5
529.598	29.5
530.809	30
532.019	36
533.23	28.5
534.44	32.5
535.649	27.5
536.86	32
538.068	29
539.279	33
540.487	32
541.697	31
542.905	30
544.113	29
545.322	30.5
546.53	32
547.737	31
548.946	31
550.153	27.5
551.361	30.5
552.568	32
553.774	28
554.982	29
556.188	31
557.394	25
558.599	25
559.806	33.5
561.012	30
562.217	32.5
563.423	23.5
564.628	31
565.832	30
567.036	27.5
568.241	32
569.446	27.5
570.65	30
571.853	29
573.057	26.5
574.26	29.5
575.464	25.5
576.667	27.5
577.87	28.5
579.072	27
580.274	30.5
581.477	31
582.68	30
583.881	30
585.083	26
586.284	28
587.485	30
588.686	28.5
589.887	29
591.087	29.5
592.288	35
593.488	27
594.688	26.5
595.888	28.5
597.087	28
598.287	27
599.486	32.5
600.685	27.5
601.884	29
603.082	29
604.281	28
605.479	29
606.677	30
607.875	31
609.073	30
610.27	30
611.468	31
612.665	27
613.862	31.5
615.058	26
616.255	29.5
617.451	37.5
618.648	29
619.842	27.5
621.038	28.5
622.234	29
623.429	32
624.624	32.5
625.819	29.5
627.013	28
628.207	25
629.402	30
630.596	28
631.79	30.5
632.983	25.5
634.177	31
635.37	32
636.564	31.5
637.755	26
638.948	27
640.141	29
641.334	27
642.525	27
643.717	34.5
644.909	33
646.099	27
647.291	25.5
648.483	27.5
649.674	25.5
650.864	28
652.055	30.5
653.244	29.5
654.435	27
655.625	32
656.814	30.5
658.004	33
659.193	31.5
660.382	30.5
661.571	30
662.759	24
663.948	29
665.135	33.5
666.324	32.5
667.511	29.5
668.7	32
669.886	22
671.074	38.5
672.262	32
673.448	34
674.634	32.5
675.821	28
677.007	28
678.194	30
679.379	32
680.565	35.5
681.75	35
682.936	35
684.121	34
685.305	37
686.491	35
687.675	29
688.86	34
690.043	38
691.227	35.5
692.411	36.5
693.594	34
694.777	31
695.961	42.5
697.144	36
698.326	37
699.509	39
700.691	42
701.873	36
703.056	41
704.237	47.5
705.419	45
706.599	53.5
707.782	53.5
708.962	56
710.143	54.5
711.323	47
712.504	47
713.684	43
714.864	40
716.043	34
717.223	34.5
718.403	36
719.582	36
720.761	33.5
721.94	33.5
723.118	31.5
724.296	31
725.474	30.5
726.652	36.5
727.831	25
729.009	31
730.186	33
731.363	29.5
732.54	30
733.717	29
734.893	33
736.07	32.5
737.246	31.5
738.422	29
739.598	36
740.773	28
741.949	29.5
743.124	31
744.299	28.5
745.474	31.5
746.649	31.5
747.823	29
748.997	33
750.172	30
751.346	28
752.519	26
753.693	31.5
754.867	30
756.038	31
757.211	25.5
758.384	31
759.557	30.5
760.73	30.5
761.902	28.5
763.074	29.5
764.246	27.5
765.417	31
766.588	29
767.76	27
768.931	27.5
770.102	31.5
771.271	29
772.442	33.5
773.613	29
774.783	30
775.952	27.5
777.122	27.5
778.291	28
779.461	32
780.629	30.5
781.798	34
782.967	30.5
784.135	33.5
785.304	29
786.472	31
787.639	29.5
788.807	36
789.975	32.5
791.142	31
792.309	35
793.477	34
794.642	31
795.81	33
796.975	32
798.142	33
799.308	28.5
800.473	33
801.639	32
802.804	26
803.97	26
805.134	27.5
806.299	28
807.463	26.5
808.628	26.5
809.792	29
810.957	31
812.12	28.5
813.284	32.5
814.447	29
815.611	34
816.773	32
817.937	28.5
819.099	30
820.261	29
821.424	30.5
822.585	29.5
823.748	27
824.909	25
826.07	33.5
827.232	29
828.393	30.5
829.554	25.5
830.715	30.5
831.875	26.5
833.035	30
834.196	25
835.356	28
836.515	28
837.676	27.5
838.835	26.5
839.994	30
841.152	29.5
842.312	27
843.47	34
844.629	28
845.786	26.5
846.946	26.5
848.103	29.5
849.261	28
850.418	28
851.575	30
852.733	25.5
853.89	29
855.046	30
856.203	29
857.359	26.5
858.515	28
859.67	32
860.827	34
861.983	32.5
863.138	33
864.293	32
865.448	27
866.603	31
867.757	30.5
868.912	29
870.066	31
871.22	30
872.374	26
873.527	30
874.681	33.5
875.834	29
876.987	26.5
878.14	30.5
879.293	30
880.445	30.5
881.598	28
882.75	24
883.902	29
885.054	29.5
886.206	27
887.357	27
888.507	31
889.658	24.5
890.809	29.5
891.96	25.5
893.111	29
894.261	28.5
895.411	25
896.561	30
897.71	26.5
898.86	30
900.009	26
901.159	24.5
902.308	24
903.455	26.5
904.604	24.5
905.753	29.5
906.901	28.5
908.048	27
909.197	30.5
910.344	26
911.492	29
912.639	28.5
913.786	25.5
914.933	25
916.079	27
917.226	26
918.373	30
919.518	25
920.664	24
921.81	28.5
922.955	29
924.101	32.5
925.245	28
926.391	27.5
927.536	25
928.68	27
929.825	25
930.968	23.5
932.113	25
933.256	29.5
934.4	24
935.543	26
936.687	29
937.83	26.5
938.973	25.5
940.115	26
941.258	27
942.399	31.5
943.542	26
944.684	29.5
945.826	27
946.967	25.5
948.109	23
949.25	28
950.392	28.5
951.532	27
952.672	29
953.813	28
954.953	28
956.093	32.5
957.233	26
958.373	29
959.512	31.5
960.652	29
961.791	25.5
962.929	27.5
964.069	28
965.207	30
966.345	27.5
967.484	26.5
968.622	23.5
969.759	23.5
970.896	25.75
972.035	26.5
973.172	27
974.309	25.5
975.445	28.5
976.582	28
977.719	27.5
978.855	27.5
979.991	25
981.127	28
982.263	32.5
983.398	28.5
984.535	23
985.67	25
986.804	28
987.939	23.5
989.074	28.5
990.208	25
991.342	24
992.476	29
993.61	26.5
994.744	27
995.877	24.5
997.01	22
998.143	25
999.276	22.5
1000.41	28
1001.54	26.5
1002.67	26.5
1003.81	29
1004.94	24
1006.07	26.5
1007.2	25
1008.33	27
1009.47	28.5
1010.6	25
1011.73	23.5
1012.86	27
1013.99	23
1015.12	28.5
1016.25	27.5
1017.38	25.5
1018.51	23
1019.64	28
1020.77	25.5
1021.9	28
1023.03	26.5
1024.15	29.5
1025.28	26.5
1026.41	27.5
1027.54	25.5
1028.67	26
1029.8	27
1030.92	24.5
1032.05	23.5
1033.18	29
1034.31	25
1035.43	26
1036.56	27
1037.69	29.5
1038.81	28.5
1039.94	25.5
1041.07	29
1042.19	31
1043.32	31.5
1044.44	27
1045.57	27.5
1046.69	26
1047.82	27.5
1048.94	26.5
1050.07	27.5
1051.19	25
1052.32	27
1053.44	29.5
1054.57	26.5
1055.69	26
1056.81	21
1057.94	29
1059.06	23
1060.18	28
1061.31	25
1062.43	23
1063.55	29
1064.67	27
1065.8	28
1066.92	27
1068.04	29.5
1069.16	25.5
1070.28	26.5
1071.4	25.5
1072.52	34
1073.64	29
1074.76	31
1075.89	25.5
1077.01	24
1078.13	29.5
1079.25	27.5
1080.37	22
1081.49	28
1082.6	28
1083.72	25.5
1084.84	22
1085.96	25.5
1087.08	28.5
1088.2	28.5
1089.32	26.5
1090.43	26
1091.55	28.5
1092.67	28
1093.79	26.5
1094.91	28.5
1096.02	24.5
1097.14	31
1098.26	25
1099.37	23.5
1100.49	24.5
1101.61	25.5
1102.72	29
1103.84	23
1104.95	26
1106.07	24
1107.18	25
1108.3	25
1109.41	26
1110.53	26.5
1111.64	28
1112.76	27
1113.87	28
1114.99	27
1116.1	26
1117.21	27.5
1118.33	22
1119.44	25
1120.55	26
1121.67	29
1122.78	27
1123.89	23.5
1125	26.5
1126.12	24
1127.23	26
1128.34	27.5
1129.45	23
1130.56	22.5
1131.68	23
1132.79	27
1133.9	24.5
1135.01	26
1136.12	27.5
1137.23	26
1138.34	29
1139.45	26.5
1140.56	27.5
1141.67	25
1142.78	23
1143.89	24.5
1145	25.5
1146.11	26
1147.22	26
1148.32	26
1149.43	23
1150.54	28.5
1151.65	25
1152.76	25.5
1153.86	29
1154.97	28.5
1156.08	29
1157.19	29
1158.29	25
1159.4	26
1160.51	27.5
1161.61	24
1162.72	25.5
1163.83	25
1164.93	26
1166.04	27.5
1167.14	24.5
1168.25	29
1169.35	26
1170.46	25
1171.56	27
1172.67	27
1173.77	26
1174.88	25
1175.98	26.5
1177.08	29.5
1178.19	24
1179.29	23.5
1180.4	25.5
1181.5	22.5
1182.6	21.5
1183.71	23.5
1184.81	30.5
1185.91	29
1187.01	28.5
1188.12	25.5
1189.22	25
1190.32	25.5
1191.42	29
1192.52	28
1193.62	26
1194.72	18.5343
1195.83	26.9655
1196.93	29.4468
1198.03	26.5849
1199.13	23.2898
1200.23	26.3766
1201.33	25.4976
1202.43	27.4672
1203.53	24.9276
1204.63	26.4568
1205.73	26.0086
1206.83	25.7495
1207.92	23.8845
1209.02	25.0614
1210.12	27.6657
1211.22	27.6723
1212.32	24.3039
1213.42	25.8075
1214.51	24.9586
1215.61	25.877
1216.71	27.6603
1217.81	22.6779
1218.9	24.6332
1220	27.1339
1221.1	26.202
1222.19	25.5489
1223.29	24.0941
1224.39	25.932
1225.48	25.9381
1226.58	24.9568
1227.68	23.7457
1228.77	25.7043
1229.87	26.1362
1230.96	24.7053
1232.06	25.6887
1233.15	25.5325
1234.25	27.4775
1235.34	25.6488
1236.43	26.9858
1237.53	27.878
1238.62	26.4838
1239.72	26.3851
1240.81	25.9818
1241.9	25.5384
1243	23.9879
1244.09	23.1165
1245.18	25.3411
1246.27	25.5815
1247.37	25.2175
1248.46	27.1352
1249.55	24.5829
1250.64	24.477
1251.74	25.982
1252.83	26.2673
1253.92	26.6381
1255.01	28.0651
1256.1	26.2823
1257.19	25.65
1258.28	26.1353
1259.38	29.8185
1260.46	26.1352
1261.56	26.5927
1262.65	27.4961
1263.74	26.3223
1264.82	24.7607
1265.91	26.5663
1267	26.1141
1268.09	25.5243
1269.18	26.9502
1270.27	22.7789
1271.36	26.6223
1272.45	25.0319
1273.54	26.2838
1274.63	21.8036
1275.71	25.6642
1276.8	26.1273
1277.89	24.9429
1278.98	25.7673
1280.06	25.0233
1281.15	24.0928
1282.24	24.3999
1283.32	23.0704
1284.41	26.3444
1285.5	23.8725
1286.58	25.9504
1287.67	25.0787
1288.76	25.0702
1289.84	27.0597
1290.93	26.1897
1292.01	27.5991
1293.1	24.1746
1294.18	26.8158
1295.27	25.0764
1296.35	27.4098
1297.44	25.0806
1298.52	20.6928
1299.6	24.1892
1300.69	24.9451
1301.77	27.2376
1302.86	26.4278
1303.94	27.2627
1305.02	25.0692
1306.11	22.5828
1306.41	22
1307.5	24
1308.59	25
1309.68	24.5
1310.77	25
1311.85	25
1312.94	23
1314.03	26.5
1315.11	21.5
1316.2	27.5
1317.29	26.5
1318.37	24.5
1319.46	24.5
1320.55	25
1321.63	25
1322.72	26
1323.8	24
1324.89	26.5
1325.98	26.5
1327.06	25
1328.15	24.5
1329.23	23.5
1330.31	24
1331.4	28.5
1332.48	27
1333.57	26.5
1334.65	29.5
1335.74	25
1336.82	28
1337.9	23
1338.99	31
1340.07	27
1341.15	24.5
1342.24	27
1343.32	23
1344.4	25.5
1345.48	27.5
1346.56	25
1347.65	27.5
1348.73	23.5
1349.81	23
1350.89	22.5
1351.97	22
1353.05	24.5
1354.13	28.5
1355.21	26
1356.29	24.5
1357.37	24
1358.46	27.5
1359.54	24.5
1360.62	25
1361.69	25.5
1362.77	25.5
1363.85	28
1364.93	24
1366.01	28.5
1367.09	25
1368.17	25
1369.25	28.5
1370.33	28.5
1371.41	27
1372.48	25.5
1373.56	26
1374.64	27
1375.72	27.5
1376.79	23.5
1377.87	26.5
1378.95	28
1380.02	23
1381.1	28.5
1382.18	23
1383.25	26
1384.33	28.5
1385.4	28
1386.48	28.5
1387.56	22.5
1388.63	30
1389.71	27
1390.78	28
1391.86	28.5
1392.93	27
1394.01	25
1395.08	26
1396.15	28
1397.23	26.5
1398.3	28.5
1399.38	31.5
1400.45	31.5
1401.52	28
1402.6	29
1403.67	29.5
1404.74	29.5
1405.81	30
1406.89	32
1407.96	32
1409.03	31
1410.1	31
1411.17	32.5
1412.25	30
1413.32	32.5
1414.39	35.5
1415.46	32.5
1416.53	29
1417.6	27
1418.67	30.5
1419.74	28.5
1420.81	30.5
1421.88	30
1422.95	26
1424.02	25
1425.09	27
1426.16	31.5
1427.23	26.5
1428.3	29.5
1429.37	26
1430.44	29
1431.51	27.5
1432.58	29.5
1433.64	26
1434.71	28
1435.78	28
1436.85	27
1437.92	30
1438.98	27
1440.05	28
1441.12	27
1442.18	29
1443.25	27.5
1444.32	27
1445.38	26.5
1446.45	27
1447.52	28
1448.58	24
1449.65	24
1450.71	28.5
1451.78	26
1452.84	28
1453.91	27
1454.97	28.5
1456.04	25
1457.1	28
1458.17	26
1459.23	25
1460.3	28
1461.36	29.5
1462.42	28.5
1463.49	27.5
1464.55	25.5
1465.61	26.5
1466.68	23
1467.74	28
1468.8	27.5
1469.86	24.5
1470.93	27.5
1471.99	25
1473.05	25
1474.11	30
1475.17	27.5
1476.24	31
1477.3	26.5
1478.36	25
1479.42	22.5
1480.48	28.5
1481.54	28
1482.6	25
1483.66	25
1484.72	27
1485.78	29
1486.84	24.5
1487.9	30
1488.96	28
1490.02	26.5
1491.08	27
1492.14	25
1493.2	27
1494.26	27.5
1495.31	26
1496.37	30.5
1497.43	24.5
1498.49	30.5
1499.55	26.5
1500.6	27
1501.66	28.5
1502.72	24
1503.78	26
1504.83	27
1505.89	29
1506.95	25.5
1508	26.5
1509.06	26.5
1510.12	27.5
1511.17	26.5
1512.23	27
1513.28	30
1514.34	25.5
1515.39	25.5
1516.45	29.5
1517.5	27.5
1518.56	27
1519.61	28
1520.67	30
1521.72	22
1522.78	26
1523.83	27
1524.88	29.5
1525.94	26
1526.99	25
1528.05	30
1529.1	29
1530.15	26
1531.2	31
1532.26	29.5
1533.31	23.5
1534.36	27.5
1535.41	25.5
1536.47	24
1537.52	30.5
1538.57	26
1539.62	30.5
1540.67	28.5
1541.72	29
1542.77	28.5
1543.83	25.5
1544.88	24
1545.93	22
1546.98	28
1548.03	27.5
1549.08	29.5
1550.13	24
1551.18	24
1552.23	30.5
1553.28	26
1554.32	22
1555.37	27
1556.42	27
1557.47	28.5
1558.52	26.5
1559.57	29.5
1560.62	27.5
1561.67	27.5
1562.71	26
1563.76	25
1564.81	26
1565.86	24
1566.9	22.5
1567.95	29.5
1569	28
1570.04	22
1571.09	26.5
1572.14	27.5
1573.18	29.5
1574.23	29.5
1575.27	22
1576.32	24.5
1577.37	30.5
1578.41	29.5
1579.46	25.5
1580.5	29
1581.55	25
1582.59	27
1583.64	26.5
1584.68	23.5
1585.72	24.5
1586.77	23
1587.81	27
1588.86	27.5
1589.9	28.5
1590.94	27
1591.99	25
1593.03	29.5
1594.07	23.5
1595.12	28.5
1596.16	25
1597.2	30
1598.24	32
1599.29	29
1600.33	26.5
1601.37	24.5
1602.41	26.5
1603.45	26
1604.49	22.5
1605.53	25
1606.58	30.5
1607.62	26
1608.66	28
1609.7	29
1610.74	28.5
1611.78	24.5
1612.82	26
1613.86	25
1614.9	24.5
1615.94	25.5
1616.98	24
1618.02	26
1619.06	29.5
1620.09	22.5
1621.13	27
1622.17	24.5
1623.21	28
1624.25	24.5
1625.29	25
1626.32	21
1627.36	27.5
1628.4	29.5
1629.44	30
1630.47	28.5
1631.51	28
1632.55	27.5
1633.58	24.5
1634.62	19
1635.66	25.5
1636.69	25
1637.73	28
1638.77	23
1639.8	24
1640.84	22.5
1641.87	25.5
1642.91	28.5
1643.94	27
1644.98	26.5
1646.01	28
1647.05	28
1648.08	28
1649.12	23
1650.15	24
1651.18	26
1652.22	23
1653.25	24.5
1654.29	27
1655.32	27
1656.35	29
1657.39	28.5
1658.42	27
1659.45	29
1660.48	28.5
1661.52	24.5
1662.55	26
1663.58	28.5
1664.61	27
1665.64	30.5
1666.68	26
1667.71	28.5
1668.74	25
1669.77	25.5
1670.8	26.5
1671.83	28.5
1672.86	26
1673.89	28.5
1674.92	25.5
1675.95	28.5
1676.98	28.5
1678.01	28
1679.04	25
1680.07	26
1681.1	26
1682.13	29.5
1683.16	23
1684.19	22
1685.22	26.5
1686.25	26
1687.27	25.5
1688.3	25
1689.33	26.5
1690.36	24.5
1691.38	26
1692.41	27.5
1693.44	28
1694.47	25
1695.49	25
1696.52	23.5
1697.55	25.5
1698.57	23
1699.6	27.5
1700.63	25.5
1701.65	26
1702.68	24
1703.7	31
1704.73	24.5
1705.76	27
1706.78	25.5
1707.81	22
1708.83	27.5
1709.86	22.5
1710.88	25.5
1711.91	27.5
1712.93	24
1713.95	25
1714.98	28.5
1716	25
1717.03	24.5
1718.05	23.5
1719.07	24.5
1720.1	22.5
1721.12	25
1722.14	24
1723.16	25
1724.19	30
1725.21	26
1726.23	27
1727.25	29.5
1728.28	24
1729.3	25.5
1730.32	27.5
1731.34	26
1732.36	27.5
1733.38	27.5
1734.41	29.5
1735.43	22.5
1736.45	25
1737.47	25.5
1738.49	26
1739.51	25
1740.53	26
1741.55	23.5
1742.57	29
1743.59	23.5
1744.61	29
1745.63	27
1746.64	26
1747.66	28.5
1748.68	27
1749.7	26
1750.72	28
1751.74	27
1752.76	26
1753.77	27
1754.79	25
1755.81	30.5
1756.83	27.5
1757.84	24
1758.86	27
1759.88	25
1760.9	28.5
1761.91	24
1762.93	25
1763.95	23.5
1764.96	25.5
1765.98	25
1766.99	23
1768.01	28
1769.02	26.5
1770.04	25.5
1771.06	26.5
1772.07	25.5
1773.09	27
1774.1	26.5
1775.12	21.5
1776.13	28
1777.14	21.5
1778.16	24
1779.17	24
1780.19	29.5
1781.2	27
1782.21	28
1783.23	25
1784.24	26
1785.25	25.5
1786.27	27.5
1787.28	24
1788.29	22
1789.3	26
1790.32	27.5
1791.33	26.5
1792.34	23
1793.35	26.5
1794.36	28
1795.38	25.5
1796.39	24.5
1797.4	23
1798.41	28
1799.42	25
1800.43	24.5
1801.44	29.5
1802.45	22.5
1803.46	27
1804.47	25
1805.48	23.5
1806.49	30
1807.5	25.5
1808.51	24
1809.52	28
1810.53	24
1811.54	28.5
1812.55	24.5
1813.56	29.5
1814.57	26.5
1815.57	26.5
1816.58	24
1817.59	22
1818.6	24.5
1819.61	24
1820.61	25
1821.62	23.5
1822.63	22.5
1823.64	27.5
1824.64	24.5
1825.65	24.5
1826.66	24.5
1827.66	27
1828.67	20
1829.68	25.5
1830.68	26.5
1831.69	27
1832.69	28
1833.7	21
1834.7	25
1835.71	22.5
1836.71	25
1837.72	26
1838.72	24.5
1839.73	28
1840.73	25
1841.74	27
1842.74	26
1843.75	27.5
1844.75	25
1845.75	26
1846.76	29
1847.76	26.5
1848.76	25.5
1849.77	27
1850.77	26
1851.77	23.5
1852.78	25
1853.78	22
1854.78	25.5
1855.78	25
1856.78	29
1857.79	25
1858.79	24.5
1859.79	25.5
1860.79	25
1861.79	21.5
1862.79	23
1863.79	24.5
1864.79	30
1865.79	20
1866.8	24
1867.8	22
1868.8	24.5
1869.8	27.5
1870.8	26.5
1871.8	26
1872.8	24
1873.79	25
1874.79	26.5
1875.79	21.5
1876.79	25.5
1877.79	25
1878.79	22.5
1879.79	23.5
1880.79	27
1881.78	22
1882.78	25
1883.78	24.5
1884.78	26.5
1885.77	27
1886.77	29
1887.77	26
1888.77	28.5
1889.76	23.5
1890.76	23.5
1891.76	25
1892.75	26
1893.75	23
1894.75	28.5
1895.74	27
1896.74	22.5
1897.73	29
1898.73	24
1899.73	24
1900.72	25
1901.72	28
1902.71	25
1903.7	27
1904.7	26
1905.69	21.5
1906.69	29
1907.68	26.5
1908.68	26
1909.67	21
1910.66	24.5
1911.66	24
1912.65	24
1913.64	25.5
1914.64	22
1915.63	26
1916.62	28.5
1917.62	28
1918.61	26
1919.6	24.5
1920.59	26
1921.58	31
1922.58	26
1923.57	26.5
1924.56	25
1925.55	24
1926.54	24
1927.53	25.5
1928.52	26.5
1929.51	21.5
1930.51	24.5
1931.5	25.5
1932.49	26
1933.48	26.5
1934.47	23
1935.46	27
1936.45	25.5
1937.44	31
1938.42	23
1939.41	26.5
1940.4	24
1941.39	22
1942.38	22
1943.37	28
1944.36	26
1945.35	25.5
1946.33	23
1947.32	25
1948.31	27
1949.3	27.5
1950.29	27.5
1951.27	27
1952.26	23
1953.25	25
1954.23	23
1955.22	27
1956.21	23.5
1957.19	22
1958.18	27
1959.17	27
1960.15	22.5
1961.14	22.5
1962.13	23
1963.11	23
1964.1	27
1965.08	24.5
1966.07	25.5
1967.05	25
1968.04	27.5
1969.02	24
1970.01	26
1970.99	26.5
1971.97	25.5
1972.96	26.5
1973.94	25
1974.93	22
1975.91	28
1976.89	22
1977.88	25.5
1978.86	26
1979.84	27
1980.83	26.5
1981.81	23.5
1982.79	28
1983.77	24.5
1984.76	19.5
1985.74	25.5
1986.72	26.5
1987.7	27
1988.68	22
1989.67	25
1990.65	27
1991.63	25.5
1992.61	23
1993.59	27
1994.57	24.5
1995.55	28.5
1996.53	24
1997.51	22
1998.49	23.5
1999.47	20
2000.45	22.5
2001.43	26
2002.41	24
2003.39	24.5
2004.37	25
2005.35	24
2006.33	25
2007.31	24
2008.29	27.5
2009.26	27
2010.24	21.5
2011.22	25
2012.2	24.5
2013.18	22
2014.15	24
2015.13	26
2016.11	24.5
2017.09	28.5
2018.06	23
2019.04	26
2020.02	22.5
2021	24
2021.97	24
2022.95	26
2023.92	23
2024.9	25
2025.88	22
2026.85	24.5
2027.83	24
2028.8	25
2029.78	23.5
2030.75	24
2031.73	24
2032.7	23
2033.68	22.5
2034.65	21
2035.63	20.5
2036.6	23
2037.58	24.5
2038.55	23.5
2039.52	17.5
2040.5	22
2041.47	23
2042.45	28
2043.42	26.5
2044.39	23.5
2045.36	27.5
2046.34	20
2047.31	26.5
2048.28	18
2049.26	21
2050.23	25
2051.2	25
2052.17	19
2053.14	24
2054.12	25
2055.09	23
2056.06	24.5
2057.03	24.5
2058	25
2058.97	26.5
2059.94	20.5
2060.91	23.5
2061.88	24
2062.85	24.5
2063.82	24
2064.79	25
2065.76	24.5
2066.73	22.5
2067.7	24
2068.67	25.5
2069.64	23
2070.61	27
2071.58	22.5
2072.55	26.5
2073.52	26
2074.49	25.5
2075.45	21.5
2076.42	25.5
2077.39	22
2078.36	21.5
2079.33	24.5
2080.29	20.5
2081.26	25.5
2082.23	24.5
2083.2	25
2084.16	25
2085.13	23
2086.1	25
2087.06	25.5
2088.03	23.5
2089	24
2089.96	22.5
2090.93	23
2091.89	28.5
2092.86	27
2093.83	25
2094.79	23
2095.76	23
2096.72	23.5
2097.69	20.5
2098.65	25.5
2099.62	24.5
2100.58	25.5
2101.55	22
2102.51	22
2103.47	22.5
2104.44	22
2105.4	25
2106.36	22.5
2107.33	25
2108.29	23
2109.25	26
2110.22	24.5
2111.18	26
2112.14	19.5
2113.11	22.5
2114.07	22
2115.03	24.5
2115.99	25
2116.96	28.5
2117.92	26
2118.88	28.5
2119.84	28
2120.8	27.5
2121.76	21.5
2122.72	25
2123.68	22
2124.65	26
2125.61	22.5
2126.57	27.5
2127.53	24
2128.49	24
2129.45	22
2130.41	25
2131.37	24
2132.33	22.5
2133.29	24
2134.25	21
2135.21	25.5
2136.17	24.5
2137.12	20
2138.08	25
2139.04	19
2140	24
2140.96	24
2141.92	24.5
2142.88	23.4927
2143.83	23.4725
2144.79	20.1397
2145.75	22.0308
2146.71	24.9331
2147.66	25.3479
2148.62	22.5857
2149.58	21.0545
2150.53	25.2201
2151.49	24.0383
2152.45	22.8441
2153.4	23.3926
2154.36	23.293
2155.32	26.2089
2156.27	23.0247
2157.23	22.0951
2158.19	26.2762
2159.14	26.2106
2160.1	22.8555
2161.05	22.1352
2162.01	22.7015
2162.96	22.668
2163.92	22.973
2164.87	22.2135
2165.83	23.1666
2166.78	23.3762
2167.73	25.931
2168.69	22.7531
2169.64	22.8012
2170.6	25.4226
2171.55	22.5605
2172.5	22.916
2173.46	22.5327
2174.41	22.2029
2175.36	24.6297
2176.32	24.8463
2177.27	22.7539
2178.22	21.017
2179.18	23.0228
2180.13	23.384
2181.08	25.8206
2182.03	23.29
2182.98	22.2645
2183.94	25.524
2184.89	24.568
2185.84	26.4337
2186.79	21.5117
2187.74	23.3062
2188.69	21.5601
2189.64	24.3367
2190.6	23.5084
2191.55	24.7426
2192.5	24.0419
2193.45	26.2304
2194.4	20.6499
2195.35	25.081
2196.3	24.0466
2197.25	23.2229
2198.2	22.7376
2199.15	22.626
2200.1	24.8866
2201.04	22.4168
2201.99	24.1805
2202.94	26.0234
2203.89	23.1186
2204.84	25.674
2205.79	22.5783
2206.74	22.8102
2207.69	24.5863
2208.63	21.526
2209.58	22.6682
2210.53	20.8268
2211.48	22.8605
2212.43	23.4672
2213.37	24.0321
2214.32	23.0694
2215.27	23.566
2216.21	24.7129
2217.16	21.214
2218.11	23.4149
2219.05	23.3133
2220	23.3576
2220.95	23.0502
2221.89	22.6609
2222.84	20.8058
2223.78	24.2443
2224.73	22.3816
2225.68	24.2227
2226.62	23.4918
2227.57	23.9859
2228.51	24.3034
2229.46	22.3733
2230.4	23.2019
2231.35	21.7965
2232.29	24.6574
2233.24	23.7595
2234.18	22.8487
2235.12	23.6492
2236.07	23.2934
2237.01	21.8006
2237.95	24.2321
2238.9	21.2026
2239.84	21.9013
2240.06	22.5
2241.01	21.5
2241.96	26
2242.91	24
2243.86	22.5
2244.8	22.5
2245.75	24
2246.7	21.5
2247.65	21
2248.59	24
2249.54	23
2250.49	26
2251.43	24
2252.38	22
2253.33	20.5
2254.27	24.5
2255.22	20
2256.16	23.5
2257.11	20.5
2258.06	25
2259	25
2259.95	25.5
2260.89	23
2261.84	25
2262.78	23
2263.73	25
2264.67	24
2265.62	24.5
2266.56	24
2267.5	22
2268.45	22
2269.39	26.5
2270.34	23
2271.28	22
2272.22	21
2273.17	23
2274.11	20.5
2275.05	24.5
2276	23
2276.94	22.5
2277.88	20
2278.82	22.5
2279.77	20
2280.71	20
2281.65	21
2282.59	25
2283.53	25
2284.48	22
2285.42	23
2286.36	21
2287.3	25
2288.24	24.5
2289.18	18.5
2290.12	26
2291.06	25.5
2292	22.5
2292.94	21
2293.89	25
2294.83	25.5
2295.77	21
2296.71	22.5
2297.65	22.5
2298.58	24
2299.52	22
2300.46	25
2301.4	23.5
2302.34	25
2303.28	25
2304.22	21
2305.16	24
2306.1	22.5
2307.03	27
2307.97	24.5
2308.91	23.5
2309.85	24
2310.79	27
2311.72	25
2312.66	20
2313.6	25
2314.54	23
2315.47	22.5
2316.41	21.5
2317.35	28
2318.28	25
2319.22	21
2320.16	20.5
2321.09	23
2322.03	21
2322.96	25
2323.9	26.5
2324.84	22
2325.77	22
2326.71	25
2327.64	23
2328.58	22
2329.51	27
2330.45	23
2331.38	22.5
2332.32	27
2333.25	25
2334.18	29
2335.12	21.5
2336.05	27.5
2336.99	21.5
2337.92	26
2338.85	23
2339.79	25
2340.72	20.5
2341.65	20
2342.59	26
2343.52	27
2344.45	24
2345.39	25
2346.32	23.5
2347.25	25
2348.18	23
2349.11	22
2350.05	25
2350.98	23
2351.91	22.5
2352.84	22.5
2353.77	23
2354.7	23.5
2355.64	25.5
2356.57	26
2357.5	25
2358.43	26
2359.36	26.5
2360.29	22.5
2361.22	24
2362.15	26
2363.08	22
2364.01	25
2364.94	24.5
2365.87	25.5
2366.8	23.5
2367.73	19
2368.66	23.5
2369.58	26.5
2370.51	23.5
2371.44	21
2372.37	22.5
2373.3	24
2374.23	23
2375.16	26.5
2376.08	23
2377.01	24.5
2377.94	24
2378.87	25.5
2379.8	26.5
2380.72	27
2381.65	25
2382.58	24
2383.5	25.5
2384.43	22.5
2385.36	25
2386.28	21
2387.21	23.5
2388.14	25.5
2389.06	25.5
2389.99	26.5
2390.91	22.5
2391.84	23.5
2392.77	25.5
2393.69	25.5
2394.62	22.5
2395.54	24
2396.47	21
2397.39	23.5
2398.32	25.5
2399.24	26.5
2400.16	23.5
2401.09	20
2402.01	26.5
2402.94	25.5
2403.86	24
2404.78	23.5
2405.71	28
2406.63	23
2407.56	22
2408.48	21
2409.4	24
2410.32	20.5
2411.25	28
2412.17	24.5
2413.09	23
2414.02	31
2414.94	23
2415.86	24.5
2416.78	27
2417.7	28.5
2418.63	23
2419.55	23
2420.47	25.5
2421.39	21.5
2422.31	23.5
2423.23	23.5
2424.15	20.5
2425.07	29
2425.99	21.5
2426.92	26
2427.84	28
2428.76	26.5
2429.68	22
2430.59	24
2431.51	22.5
2432.43	24
2433.35	26
2434.27	22
2435.19	22
2436.11	27
2437.03	23.5
2437.95	26.5
2438.87	25
2439.79	24.5
2440.71	25.5
2441.62	28.5
2442.54	19
2443.46	25
2444.38	26
2445.3	23
2446.21	20.5
2447.13	24
2448.05	24
2448.97	23.5
2449.88	23.5
2450.8	24
2451.72	27
2452.63	28
2453.55	25
2454.47	22.5
2455.38	24.5
2456.3	19.5
2457.21	24
2458.13	27
2459.05	26
2459.96	25.5
2460.88	27
2461.79	27
2462.71	24
2463.62	24
2464.54	28
2465.45	24
2466.37	25
2467.28	25
2468.2	23
2469.11	25
2470.02	26
2470.94	23
2471.85	24
2472.77	22
2473.68	23.5
2474.59	27
2475.51	25.5
2476.42	22
2477.33	20.5
2478.25	23.5
2479.16	27.5
2480.07	23.5
2480.98	23
2481.9	22
2482.81	24
2483.72	23.5
2484.63	26.5
2485.55	25
2486.46	20
2487.37	27.5
2488.28	23.5
2489.19	22.5
2490.1	26
2491.01	26
2491.92	27
2492.83	23.5
2493.74	26
2494.66	22
2495.57	25.5
2496.48	27
2497.39	23.5
2498.3	27
2499.21	25.5
2500.12	22
2501.03	24
2501.93	25.5
2502.84	30
2503.75	26
2504.66	22
2505.57	21.5
2506.48	26
2507.39	26
2508.3	24.5
2509.21	20.5
2510.11	27
2511.02	23
2511.93	25
2512.84	23
2513.75	24.5
2514.65	27.5
2515.56	24.5
2516.47	29
2517.37	23.5
2518.28	20
2519.19	22.5
2520.09	25.5
2521	23
2521.91	24.5
2522.81	29.5
2523.72	24
2524.63	26
2525.53	26
2526.44	26
2527.34	24
2528.25	23
2529.16	25
2530.06	28.5
2530.97	27
2531.87	26
2532.78	26.5
2533.68	24
2534.58	24
2535.49	24.5
2536.39	24.5
2537.3	25.5
2538.2	23.5
2539.11	26.5
2540.01	27
2540.91	25.5
2541.82	26.5
2542.72	21.5
2543.62	25
2544.53	22
2545.43	24
2546.33	24
2547.23	21
2548.14	24
2549.04	24.5
2549.94	23.5
2550.84	26.5
2551.75	20
2552.65	27
2553.55	23.5
2554.45	26
2555.35	22.5
2556.26	25.5
2557.16	27
2558.06	20.5
2558.96	25
2559.86	24
2560.76	24
2561.66	25.5
2562.56	25.5
2563.46	26.5
2564.36	24
2565.26	27.5
2566.16	22
2567.06	25
2567.96	28
2568.86	23
2569.76	25.5
2570.66	23.5
2571.56	28.5
2572.46	24.5
2573.36	22.5
2574.26	25
2575.16	25.5
2576.05	24
2576.95	24.5
2577.85	27
2578.75	26.5
2579.65	22.5
2580.54	25.5
2581.44	22.5
2582.34	29.5
2583.24	21
2584.13	24.5
2585.03	24
2585.93	23.5
2586.83	24
2587.72	26.5
2588.62	25
2589.52	22
2590.41	28.5
2591.31	22.5
2592.2	27
2593.1	27
2594	24.5
2594.89	26
2595.79	24.5
2596.68	23.5
2597.58	26.5
2598.47	27
2599.37	22.5
2600.26	26.5
2601.16	26
2602.05	29.5
2602.95	25.5
2603.84	25
2604.74	24.5
2605.63	24
2606.52	25
2607.42	24.5
2608.31	25.5
2609.21	25
2610.1	20
2610.99	21.5
2611.89	24.5
2612.78	22
2613.67	23
2614.56	24
2615.46	20
2616.35	22.5
2617.24	26.5
2618.13	23.5
2619.03	25
2619.92	23.5
2620.81	25
2621.7	25
2622.59	24
2623.49	21.5
2624.38	25
2625.27	23
2626.16	22
2627.05	22.5
2627.94	28
2628.83	21.5
2629.72	25
2630.61	24
2631.5	24.5
2632.39	26.5
2633.28	26
2634.17	22.5
2635.06	18.5
2635.95	26
2636.84	20
2637.73	24
2638.62	25
2639.51	26
2640.4	24.5
2641.29	25
2642.18	23
2643.07	22
2643.96	25
2644.84	25.5
2645.73	26
2646.62	27
2647.51	22
2648.4	24.5
2649.28	25
2650.17	27
2651.06	21.5
2651.95	26
2652.83	28
2653.72	25
2654.61	20.5
2655.49	26.5
2656.38	25.5
2657.27	28.5
2658.16	20.5
2659.04	24
2659.93	24
2660.81	26
2661.7	22
2662.59	26.5
2663.47	27
2664.36	25.5
2665.24	23.5
2666.13	20.5
2667.01	22
2667.9	22.5
2668.78	26
2669.67	24
2670.55	27
2671.44	19
2672.32	20.5
2673.21	24
2674.09	25.5
2674.97	25
2675.86	21
2676.74	26.5
2677.62	28
2678.51	24.5
2679.39	26.5
2680.27	26
2681.16	30
2682.04	22.5
2682.92	28
2683.81	28
2684.69	22
2685.57	26
2686.45	23
2687.34	23.5
2688.22	26
2689.1	20.5
2689.98	24.5
2690.86	23.5
2691.75	26
2692.63	22.5
2693.51	22.5
2694.39	27.5
2695.27	24.5
2696.15	25
2697.03	26
2697.91	22.5
2698.79	20.5
2699.67	25
2700.55	22
2701.43	24
2702.31	21
2703.19	23.5
2704.07	27.5
2704.95	26.5
2705.83	23.5
2706.71	21.5
2707.59	24.5
2708.47	23.5
2709.35	23
2710.23	26
2711.11	22
2711.99	25
2712.86	27.5
2713.74	20.5
2714.62	25.5
2715.5	23
2716.38	25
2717.26	23.5
2718.13	24
2719.01	28
2719.89	29.5
2720.77	26.5
2721.64	27
2722.52	28
2723.4	23
2724.27	27.5
2725.15	22
2726.03	24
2726.9	25
2727.78	27
2728.66	21
2729.53	29.5
2730.41	24
2731.28	26.5
2732.16	25.5
2733.03	27.5
2733.91	26
2734.79	23
2735.66	26
2736.54	27.5
2737.41	24
2738.29	26.5
2739.16	26
2740.03	25
2740.91	21.5
2741.78	25
2742.66	26.5
2743.53	25.5
2744.41	22.5
2745.28	24
2746.15	23.5
2747.03	23.5
2747.9	28.5
2748.77	23.5
2749.65	23
2750.52	23
2751.39	19.5
2752.27	26
2753.14	29.5
2754.01	25
2754.88	25.5
2755.75	23
2756.63	25
2757.5	26.5
2758.37	22
2759.24	25.5
2760.11	23.5
2760.99	25
2761.86	25
2762.73	24
2763.6	26.5
2764.47	27.5
2765.34	23
2766.21	28
2767.08	22.5
2767.95	25.5
2768.82	25
2769.69	25.5
2770.56	24
2771.43	23
2772.3	24
2773.17	26
2774.04	24
2774.91	26.5
2775.78	24
2776.65	26
2777.52	22
2778.39	25
2779.26	28
2780.13	26.5
2780.99	26.5
2781.86	24
2782.73	27
2783.6	28
2784.47	27
2785.34	25
2786.2	27
2787.07	24.5
2787.94	25
2788.81	25
2789.67	25
2790.54	24.5
2791.41	24.5
2792.27	27
2793.14	27
2794.01	28.5
2794.87	26
2795.74	22
2796.61	21
2797.47	23
2798.34	24.5
2799.21	24.5
2800.07	23.5
2800.94	25.75
2801.8	27
2802.67	27.5
2803.53	23
2804.4	27
2805.26	28.5
2806.13	30.5
2806.99	26
2807.86	26.5
2808.72	23
2809.59	25
2810.45	28
2811.32	27
2812.18	25
2813.04	22
2813.91	22.5
2814.77	28.5
2815.64	27.5
2816.5	26.5
2817.36	30
2818.22	27
2819.09	30
2819.95	28
2820.81	29.5
2821.68	27
2822.54	28.5
2823.4	23.5
2824.26	20
2825.13	27
2825.99	24.5
2826.85	30
2827.71	25
2828.57	28
2829.44	29.5
2830.3	26.5
2831.16	27
2832.02	22.5
2832.88	25
2833.74	24
2834.6	25
2835.46	22
2836.32	29.5
2837.18	24
2838.04	26
2838.9	24
2839.76	26
2840.62	27.5
2841.48	27
2842.34	28.5
2843.2	26
2844.06	23
2844.92	25.5
2845.78	20
2846.64	25.5
2847.5	20.5
2848.36	26
2849.22	24
2850.08	25
2850.93	24
2851.79	28
2852.65	25.5
2853.51	25
2854.37	25.5
2855.22	24
2856.08	25
2856.94	26.5
2857.8	23
2858.65	25.5
2859.51	26
2860.37	28
2861.23	27.5
2862.08	27
2862.94	27
2863.79	26
2864.65	27.5
2865.51	30
2866.36	28.5
2867.22	30
2868.08	28
2868.93	25.5
2869.79	28.5
2870.64	32.5
2871.5	28.5
2872.35	29
2873.21	27
2874.06	26.5
2874.92	29
2875.77	29.5
2876.63	31.5
2877.48	27.5
2878.34	32.5
2879.19	29.5
2880.05	33
2880.9	26.5
2881.76	29.5
2882.61	33.5
2883.46	30.5
2884.32	35.5
2885.17	35.5
2886.02	35
2886.88	38
2887.73	34.5
2888.58	37
2889.44	36.5
2890.29	36
2891.14	41
2891.99	38
2892.85	43
2893.7	46.5
2894.55	45
2895.4	45
2896.25	53.5
2897.11	55.5
2897.96	55.5
2898.81	51
2899.66	51.5
2900.51	55
2901.36	62
2902.21	58.5
2903.07	73
2903.92	74
2904.77	69.5
2905.62	66.5
2906.47	65
2907.32	71.5
2908.17	65
2909.02	69.5
2909.87	66
2910.72	64
2911.57	64.5
2912.42	57
2913.27	58
2914.12	55
2914.97	48
2915.81	46.5
2916.66	48
2917.51	43
2918.36	43.5
2919.21	38.5
2920.06	38
2920.91	36
2921.75	34.5
2922.6	35.5
2923.45	36
2924.3	37.5
2925.15	33.5
2925.99	32
2926.84	34.5
2927.69	31
2928.54	30.5
2929.38	34
2930.23	29.5
2931.08	25
2931.92	25
2932.77	27
2933.62	28
2934.46	27.5
2935.31	29.5
2936.16	25
2937	26.5
2937.85	28.5
2938.69	29
2939.54	25
2940.38	29
2941.23	32.5
2942.08	29
2942.92	33
2943.77	28
2944.61	27
2945.46	31
2946.3	29.5
2947.15	30
2947.99	29
2948.83	27.5
2949.68	29
2950.52	33
2951.37	29
2952.21	32
2953.05	32
2953.9	31
2954.74	30
2955.58	27.5
2956.43	34
2957.27	38.5
2958.11	36.5
2958.96	35
2959.8	37.5
2960.64	42.5
2961.48	39.5
2962.33	46.5
2963.17	43
2964.01	42
2964.85	46
2965.69	46
2966.54	40
2967.38	42
2968.22	45
2969.06	47.5
2969.9	35
2970.74	45
2971.58	40.4806
2972.43	36.9657
2973.27	34.6007
2974.11	36.1175
2974.95	36.8906
2975.79	32.5076
2976.63	30.1294
2977.47	34.8792
2978.31	28.0502
2979.15	28.9021
2979.99	32.2436
2980.83	29.5
2981.67	30.6073
2982.51	29.2944
2983.35	26.1005
2984.19	29.4733
2985.03	27.9205
2985.86	24.361
2986.7	25.6541
2987.54	28.3521
2988.38	26.0608
2989.22	25.7663
2990.06	28.0881
2990.9	25.3537
2991.73	25.6723
2992.57	25.9557
2993.41	24.7427
2994.25	23.3221
2995.09	26.2177
2995.92	27.0614
2996.76	24.8048
2997.6	22.4896
2998.44	26.2826
2999.27	24.4522
3000.11	26.3311
3000.95	23.2766
3001.78	26.8307
3002.62	21.9165
3003.46	20.9942
3004.29	24.3906
3005.13	26.4859
3005.96	23.4286
3006.8	24.072
3007.64	20.4459
3008.47	23.2566
3009.31	24.5718
3010.14	21.928
3010.98	23.257
3011.81	23.7646
3012.65	22.398
3013.48	22.8065
3014.32	25.6778
3015.15	22.6485
3015.99	24.1045
3016.82	21.8701
3017.66	24.7276
3018.49	21.4626
3019.33	23.6752
3020.16	25.8624
3020.99	22.3852
3021.83	24.0791
3022.66	23.019
3023.5	22.7111
3024.33	23.6099
3025.16	24.6242
3026	22.3815
3026.83	23.1126
3027.66	24.321
3028.49	24.0694
3029.33	23.0638
3030.16	22.6238
3030.99	23.6905
3031.83	23.9122
3032.66	23.889
3033.49	22.1165
3034.32	21.3858
3035.15	21.6907
3035.99	24.2352
3036.82	25.8002
3037.65	22.8036
3038.48	20.6856
3039.31	20.8089
3040.14	22.9876
3040.97	23.3918
3041.81	21.2674
3042.64	22.9518
3043.47	24.8913
3044.3	26.009
3045.13	24.3592
3045.96	23.7097
3046.79	21.8469
3047.62	22.2355
3048.45	22.803
3049.28	23.1696
3050.11	22.726
3050.94	21.7919
3051.77	22.9759
3052.6	22.5924
3053.43	21.7418
3054.26	24.7609
3055.08	23.8223
3055.91	22.8924
3056.74	22.7567
3057.26	20
3058.09	22.5
3058.92	25
3059.76	22.5
3060.59	22
3061.42	24
3062.25	25
3063.09	20.5
3063.92	23.5
3064.75	25.5
3065.58	20.5
3066.42	21.5
3067.25	23
3068.08	25
3068.91	23.5
3069.74	23.5
3070.57	23.5
3071.41	19
3072.24	24
3073.07	22
3073.9	24.5
3074.73	27
3075.56	23.5
3076.39	21.5
3077.22	23.5
3078.05	15.5
3078.88	21
3079.71	20
3080.54	24
3081.37	24
3082.2	26
3083.03	23.5
3083.86	26
3084.69	26
3085.52	26
3086.35	25
3087.18	24
3088.01	25.5
3088.84	19.5
3089.67	23
3090.5	24
3091.32	20
3092.15	28.5
3092.98	20.5
3093.81	21
3094.64	21.5
3095.47	23
3096.29	22
3097.12	25
3097.95	25.5
3098.78	25.5
3099.6	23
3100.43	24
3101.26	22
3102.09	26
3102.91	24
3103.74	21.5
3104.57	24.5
3105.39	21
3106.22	20.5
3107.05	27
3107.87	27
3108.7	22.5
3109.52	19
3110.35	21
3111.18	21.5
3112	22
3112.83	27
3113.65	19.5
3114.48	24.5
3115.3	24
3116.13	25.5
3116.95	20
3117.78	20.5
3118.6	21
3119.43	22
3120.25	20
3121.08	24.5
3121.9	26
3122.72	27
3123.55	25
3124.37	23.5
3125.2	22
3126.02	27
3126.84	23
3127.67	24
3128.49	24.5
3129.31	24
3130.14	23.5
3130.96	17
3131.78	23
3132.61	25.5
3133.43	23
3134.25	22
3135.07	22.5
3135.89	23.5
3136.72	21
3137.54	24
3138.36	23
3139.18	22.5
3140	28.5
3140.83	24.5
3141.65	23
3142.47	22
3143.29	26
3144.11	23
3144.93	22.5
3145.75	22
3146.57	25.5
3147.4	24
3148.22	27
3149.04	26
3149.86	22.5
3150.68	25
3151.5	25.5
3152.32	25
3153.14	20.5
3153.96	23.5
3154.78	22
3155.59	17.5
3156.42	24
3157.23	18.5
3158.05	23.5
3158.87	26
3159.69	22
3160.51	16.5
3161.33	28
3162.15	24
3162.97	24
3163.78	26.5
3164.6	23
3165.42	26
3166.24	25
3167.06	24.5
3167.87	23.5
3168.69	23.5
3169.51	21
3170.33	20.5
3171.14	20
3171.96	20.5
3172.78	21
3173.6	22
3174.41	25.5
3175.23	26
3176.05	23.5
3176.86	20.5
3177.68	28.5
3178.5	24.5
3179.31	24
3180.13	25.5
3180.94	23.5
3181.76	24
3182.58	24
3183.39	25
3184.21	25
3185.02	24.5
3185.84	27.5
3186.65	22
3187.47	23
3188.28	21.5
3189.1	20
3189.91	24.5
3190.73	25.5
3191.54	23.5
3192.36	24.5
3193.17	24
3193.98	22
3194.8	27
3195.61	22
3196.43	23.5
3197.24	25
3198.05	20
3198.87	23
3199.68	24.5
3200.49	20
3201.31	25
3202.12	24.5
3202.93	27
3203.75	23
3204.56	20.5
3205.37	20.5
3206.18	21.5
3207	23
3207.81	21
3208.62	24
3209.43	24
3210.24	25.5
3211.06	24.5
3211.87	26.5
3212.68	25.5
3213.49	22
3214.3	25.5
3215.11	23
3215.92	22.5
3216.73	25.5
3217.55	25
3218.36	22.5
3219.17	22
3219.98	22.5
3220.79	21
3221.6	23
3222.41	22.5
3223.22	24
3224.03	23.5
3224.84	22
3225.65	22
3226.46	25.5
3227.27	22.5
3228.08	21
3228.89	23
3229.7	27
3230.5	25
3231.31	25
3232.12	23.5
3232.93	24.5
3233.74	23
3234.55	20
3235.36	26
3236.16	23.5
3236.97	24
3237.78	22
3238.59	22
3239.4	23
3240.2	24
3241.01	23
3241.82	27.5
3242.63	24.5
3243.43	22.5
3244.24	25
3245.05	25.5
3245.85	24
3246.66	21
3247.47	23
3248.27	22
3249.08	25
3249.89	26
3250.69	28
3251.5	21
3252.31	24.5
3253.11	28.5
3253.92	22.5
3254.72	26.5
3255.53	26
3256.33	23
3257.14	23
3257.94	27
3258.75	25.5
3259.55	21
3260.36	24
3261.16	25.5
3261.97	24.5
3262.77	23
3263.58	26
3264.38	22
3265.19	26
3265.99	20
3266.79	21.5
3267.6	26
3268.4	21.5
3269.21	26
3270.01	26.5
3270.81	20.5
3271.62	25
3272.42	24.5
3273.22	30
3274.03	25
3274.83	23
3275.63	27.5
3276.43	22
3277.24	23.5
3278.04	26.5
3278.84	26.5
3279.64	24
3280.45	21
3281.25	21.5
3282.05	22
3282.85	22
3283.65	21.5
3284.45	23
3285.26	23
3286.06	27.5
3286.86	25
3287.66	24.5
3288.46	27
3289.26	23
3290.06	22.5
3290.86	24
3291.66	23
3292.46	22
3293.26	26.5
3294.06	26
3294.86	25
3295.66	23.5
3296.46	26.5
3297.26	22
3298.06	22.5
3298.86	23
3299.66	20.5
3300.46	24
3301.26	25.5
3302.06	24.5
3302.86	25
3303.66	25
3304.46	24.5
3305.25	23
3306.05	23.5
3306.85	23
3307.65	25
3308.45	24.5
3309.25	22
3310.04	24
3310.84	26.5
3311.64	20.5
3312.44	25
3313.23	21.5
3314.03	24
3314.83	23
3315.63	24
3316.42	21
3317.22	25
3318.02	26.5
3318.81	26
3319.61	21.5
3320.41	23.5
3321.2	25
3322	20.5
3322.8	28
3323.59	24.5
3324.39	21.5
3325.18	24
3325.98	26
3326.78	24
3327.57	26
3328.37	22
3329.16	23
3329.96	22.5
3330.75	30
3331.55	22
3332.34	23
3333.14	26
3333.93	21
3334.73	22
3335.52	22.5
3336.31	23
3337.11	26
3337.9	23
3338.7	26.5
3339.49	25.5
3340.28	23.5
3341.08	25
3341.87	23
3342.66	24.5
3343.46	23
3344.25	23
3345.04	25
3345.84	23.5
3346.63	25.5
3347.42	25
3348.22	23.5
3349.01	25
3349.8	27
3350.59	22
3351.39	24.5
3352.18	25.5
3352.97	25.5
3353.76	22.5
3354.55	25
3355.35	26
3356.14	25
3356.93	22
3357.72	24
3358.51	24
3359.3	23
3360.09	25
3360.88	27
3361.67	26.5
3362.46	23.5
3363.26	23.5
3364.05	22
3364.84	24
3365.63	29
3366.42	25.5
3367.21	26
3368	23
3368.79	23.5
3369.58	23.5
3370.37	23
3371.15	23
3371.94	27.5
3372.73	24.5
3373.52	27
3374.31	23
3375.1	26
3375.89	25
3376.68	24
3377.47	22.5
3378.26	25.5
3379.04	24
3379.83	24
3380.62	23.5
3381.41	25.5
3382.2	23.5
3382.98	26.5
3383.77	24.5
3384.56	26.5
3385.35	24
3386.13	25.5
3386.92	24
3387.71	25.5
3388.5	24
3389.28	27
3390.07	22
3390.86	24.5
3391.64	19
3392.43	27.5
3393.22	27
3394	25.5
3394.79	25
3395.57	21.5
3396.36	26.5
3397.15	24.5
3397.93	23.5
3398.72	27.5
3399.5	23.5
3400.29	28
3401.07	25.5
3401.86	28
3402.65	23.5
3403.43	24
3404.21	22.5
3405	24.5
3405.78	25.5
3406.57	22
3407.35	22
3408.14	26.5
3408.92	23
3409.71	27
3410.49	22.5
3411.27	28.5
3412.06	25.5
3412.84	28.5
3413.62	27.5
3414.41	24
3415.19	25.5
3415.97	22
3416.76	25
3417.54	21.5
3418.32	26.5
3419.11	27
3419.89	24
3420.67	22.5
3421.46	22
3422.24	27
3423.02	24.5
3423.8	22.5
3424.58	26
3425.37	24
3426.15	23.5
3426.93	22
3427.71	23.5
3428.49	26
3429.27	24.5
3430.05	21.5
3430.84	25
3431.62	23
3432.4	23
3433.18	26.5
3433.96	25
3434.74	20
3435.52	26
3436.3	22
3437.08	24.5
3437.86	26.5
3438.64	21.5
3439.42	25
3440.2	21.5
3440.98	21
3441.76	23.5
3442.54	21
3443.32	25
3444.1	28
3444.88	22.5
3445.66	27
3446.44	27
3447.22	26
3448	21
3448.77	24.5
3449.55	23.5
3450.33	26
3451.11	18
3451.89	23
3452.67	16
3453.45	26
3454.22	22.5
3455	18.5
3455.78	24.5
3456.56	23
3457.33	23
3458.11	25.5
3458.89	21
3459.67	23.5
3460.44	23.5
3461.22	24.5
3462	24
3462.77	22
3463.55	25.5
3464.33	24.5
3465.1	24
3465.88	24
3466.66	25.5
3467.43	25
3468.21	26.5
3468.98	24
3469.76	20.5
3470.54	26
3471.31	23
3472.09	24.5
3472.86	25
3473.64	22
3474.41	25
3475.19	26
3475.96	29
3476.74	21.5
3477.51	26
3478.29	26.5
3479.06	26.5
3479.84	18.5
3480.61	24.5
3481.39	23.5
3482.16	26
3482.93	23
3483.71	24
3484.48	23
3485.25	26
3486.03	22
3486.8	25
3487.57	25
3488.35	25.5
3489.12	22
3489.89	25
3490.67	28.5
3491.44	25
3492.21	23
3492.99	20.5
3493.76	22.5
3494.53	24.5
3495.3	24.5
3496.08	27.5
3496.85	22
3497.62	22
3498.39	26
3499.16	26.5
3499.93	27
