#Acq. time (s)=	5
#Accumulations=	5
#Range (cm-¹)=	100...3500
#Windows=	4
#Autofocus=	Off
#AutoExposure=	Off
#Spike filter=	Multiple accum.
#Delay time (s)=	0
#Binning=	1
#Readout mode=	Signal
#DeNoise=	Off
#ICS correction=	Off
#Dark correction=	Off
#Inst. Process=	Off
#Instrument=	LabRAM HR Evol
#Detector=	Syncerity OE
#Objective=	x100_VIS
#Grating=	600 (500nm)
#ND Filter=	25%
#Laser=	633nm_Edge
#Hole=	100.021
#Range=	Visible
#Project=	verificaciones
#Sample=	at2
#Site=	plain
#Title=	bolusat2plain
#Remark=	
#Date=	13.01.2026 14:58
#Acquired=	13.01.2026 14:58:50
100.692	26
101.975	33.5
103.258	33.5
104.542	29.5
105.824	31.5
107.107	29.5
108.39	29
109.672	28.5
110.954	28.5
112.236	30
113.519	28
114.8	28
116.081	28
117.362	33.5
118.643	31
119.924	30
121.204	26.5
122.484	29.5
123.764	31.5
125.044	24
126.323	30
127.603	31
128.882	30
130.161	32.5
131.438	29
132.716	31
133.995	31
135.273	33.5
136.55	33.5
137.828	33
139.106	28
140.383	30
141.66	30
142.937	30
144.213	34.5
145.488	34
146.764	36.5
148.04	34.5
149.316	35
150.592	31
151.867	35
153.141	39
154.416	35
155.69	36.5
156.965	35
158.239	38.5
159.512	38.5
160.786	37
162.059	35
163.333	36
164.605	36
165.878	34.5
167.15	37.5
168.423	36
169.694	31
170.966	34.5
172.238	31
173.51	37
174.78	37
176.052	36
177.323	29.5
178.592	37.5
179.863	32.5
181.134	34.5
182.403	38
183.673	32
184.943	33
186.211	37.5
187.481	33.5
188.749	36
190.018	36
191.287	34
192.554	32.5
193.822	31.5
195.089	35
196.357	32
197.625	33.5
198.891	33.5
200.159	35
201.425	32.5
202.692	33.5
203.957	31
205.224	29.5
206.489	30
207.755	32
209.02	31
210.286	37.5
211.55	35
212.815	33.5
214.079	32.5
215.344	36
216.607	27
217.872	29.5
219.135	35
220.399	28.5
221.662	31
222.924	28.5
224.187	36
225.449	30
226.713	31.5
227.974	28
229.235	29.5
230.498	27
231.759	35
233.019	28
234.281	29
235.542	27
236.802	36
238.063	27
239.323	28.5
240.582	34
241.843	33.5
243.102	30
244.361	30
245.621	31
246.879	31.5
248.138	24
249.396	29
250.655	30.5
251.913	28
253.17	30
254.427	29
255.686	29
256.943	27
258.199	30.5
259.456	27
260.712	32
261.969	30.5
263.225	30.5
264.481	29
265.736	30.5
266.991	31
268.246	29
269.502	32
270.757	29
272.011	29.5
273.265	30.5
274.519	26
275.773	29.5
277.027	30
278.28	31
279.533	29
280.786	31
282.04	33
283.293	29
284.545	35
285.798	28.5
287.049	30
288.301	24.5
289.553	32.5
290.804	29.5
292.055	29
293.306	31
294.557	29
295.807	29.5
297.058	28.5
298.308	29.5
299.558	28
300.808	34.5
302.057	30.5
303.305	32
304.554	30.5
305.803	33.5
307.052	30.5
308.3	29
309.549	29
310.797	29
312.045	29.5
313.292	28
314.54	29
315.786	31.5
317.033	28.5
318.28	31.5
319.526	31
320.773	28
322.019	31
323.264	36.5
324.51	26
325.755	31.5
327.001	32.5
328.246	31.5
329.49	30.5
330.735	29.5
331.979	31
333.224	29.5
334.467	30
335.711	27
336.955	32
338.199	29.5
339.441	34
340.684	31.5
341.927	28
343.168	28
344.411	34
345.654	31
346.895	30.5
348.137	33
349.379	28.5
350.619	31.5
351.86	28
353.102	33
354.341	34
355.582	31.5
356.821	30.5
358.062	35.5
359.302	30
360.541	32
361.781	33
363.019	32
364.259	33.5
365.496	29.5
366.736	31
367.974	34.5
369.212	32.5
370.45	30
371.687	31
372.925	35.5
374.162	30
375.399	33
376.635	27.5
377.873	33
379.109	33
380.344	28
381.581	30.5
382.816	29
384.052	30.5
385.287	34.5
386.523	31.5
387.757	31
388.991	33
390.227	32
391.46	30
392.695	33
393.928	31.5
395.162	33
396.396	34.5
397.629	35.5
398.861	33
400.095	30
401.327	29
402.559	35
403.792	31
405.024	32.5
406.255	35
407.488	35.5
408.719	29
409.949	32
411.18	34
412.412	35.5
413.642	34.5
414.872	29
416.102	29.5
417.333	37
418.562	34.5
419.791	34
421.02	36.5
422.249	31.5
423.479	33.5
424.707	29.5
425.935	31
427.163	34.5
428.391	34.5
429.619	33
430.848	34.5
432.075	35
433.302	36
434.529	35
435.755	34
436.982	37
438.208	36
439.434	30
440.66	37
441.885	36.5
443.111	35
444.338	30.5
445.563	33.5
446.788	36.5
448.012	32.5
449.237	36.5
450.461	38
451.685	36.5
452.909	34
454.133	36
455.356	36
456.579	37
457.802	36.5
459.025	34.5
460.247	33.5
461.469	39
462.691	30.5
463.914	40.5
465.136	39.5
466.357	36.5
467.579	39
468.8	36.5
470.021	37
471.242	36
472.462	40.5
473.682	38.5
474.903	40
476.123	46
477.343	44.5
478.563	43
479.782	45.5
481	49.5
482.219	50
483.438	52
484.657	47
485.874	51
487.093	55
488.311	56
489.529	54.5
490.747	52.5
491.963	49
493.181	49.5
494.398	50.5
495.614	53
496.83	51
498.047	44
499.264	48
500.479	47.5
501.695	45.5
502.911	41
504.125	44.5
505.34	44.5
506.554	41.5
507.769	41
508.984	40
510.198	43.5
511.412	40.5
512.627	40.5
513.839	43.5
515.053	44
516.266	40.5
517.479	40
518.691	42
519.905	39
521.118	38
522.329	38
523.542	40
524.753	46
525.965	37
527.176	40.5
528.388	43
529.598	35.5
530.809	37
532.019	39.5
533.23	43.5
534.44	36
535.649	36.5
536.86	38
538.068	39.5
539.279	40
540.487	36.5
541.697	39.5
542.905	37
544.113	38.5
545.322	36.5
546.53	39
547.737	35
548.946	40
550.153	40.5
551.361	40
552.568	36
553.774	40.5
554.982	37.5
556.188	39.5
557.394	38.5
558.599	37
559.806	38
561.012	34.5
562.217	38.5
563.423	33
564.628	38.5
565.832	41
567.036	35
568.241	37.5
569.446	38
570.65	41.5
571.853	39.5
573.057	39
574.26	36.5
575.464	38.5
576.667	36.5
577.87	36
579.072	36
580.274	38.5
581.477	39.5
582.68	34.5
583.881	37
585.083	36.5
586.284	39
587.485	41
588.686	35.5
589.887	40.5
591.087	36
592.288	39
593.488	33
594.688	35.5
595.888	37
597.087	33.5
598.287	31
599.486	38
600.685	41
601.884	36.5
603.082	35
604.281	35
605.479	43.5
606.677	35.5
607.875	39.5
609.073	40
610.27	39
611.468	38
612.665	35.5
613.862	37.5
615.058	40
616.255	35.5
617.451	39
618.648	36
619.842	39
621.038	34.5
622.234	38.5
623.429	34.5
624.624	36
625.819	34
627.013	39
628.207	41
629.402	37.5
630.596	40
631.79	36
632.983	39
634.177	37.5
635.37	40
636.564	36
637.755	41
638.948	38
640.141	33
641.334	40
642.525	37.5
643.717	41
644.909	36.5
646.099	39.5
647.291	34.5
648.483	37.5
649.674	35.5
650.864	37.5
652.055	36
653.244	34
654.435	38
655.625	37
656.814	37
658.004	37
659.193	32.5
660.382	42
661.571	37.5
662.759	39
663.948	35.5
665.135	36.5
666.324	33.5
667.511	34
668.7	35
669.886	37
671.074	35
672.262	40
673.448	41
674.634	40
675.821	38.5
677.007	37
678.194	36
679.379	37.5
680.565	40.5
681.75	37.5
682.936	36.5
684.121	39
685.305	40
686.491	44
687.675	40
688.86	39
690.043	34
691.227	38
692.411	34.5
693.594	40
694.777	43.5
695.961	34
697.144	37.5
698.326	39
699.509	41
700.691	40
701.873	40.5
703.056	49
704.237	49.5
705.419	46
706.599	43
707.782	48
708.962	52
710.143	48
711.323	47
712.504	43.5
713.684	44
714.864	42
716.043	41
717.223	36
718.403	36.5
719.582	29
720.761	40
721.94	38.5
723.118	36.5
724.296	33.5
725.474	35
726.652	37
727.831	36.5
729.009	36
730.186	30.5
731.363	30
732.54	38
733.717	36
734.893	33.5
736.07	35
737.246	37.5
738.422	32
739.598	39
740.773	35
741.949	33.5
743.124	36.5
744.299	39
745.474	37.5
746.649	37
747.823	34.5
748.997	34
750.172	32.5
751.346	33.5
752.519	37.5
753.693	35
754.867	29
756.038	36
757.211	33
758.384	35.5
759.557	35
760.73	31.5
761.902	34.5
763.074	30
764.246	32
765.417	34.5
766.588	33.5
767.76	35
768.931	34.5
770.102	34
771.271	36
772.442	35
773.613	32.5
774.783	33
775.952	38.5
777.122	37
778.291	37
779.461	36.5
780.629	38.5
781.798	39
782.967	34.5
784.135	31
785.304	34
786.472	39
787.639	34
788.807	32.5
789.975	38
791.142	33
792.309	35
793.477	38
794.642	36.5
795.81	35
796.975	35.5
798.142	33
799.308	32
800.473	35
801.639	37
802.804	35.5
803.97	29
805.134	33.5
806.299	33
807.463	30.5
808.628	34
809.792	33.5
810.957	27.5
812.12	33
813.284	33
814.447	33.5
815.611	32
816.773	32.5
817.937	34.5
819.099	32.5
820.261	33
821.424	35
822.585	28
823.748	30.5
824.909	35.5
826.07	27.5
827.232	32.5
828.393	29.5
829.554	34
830.715	36.5
831.875	33.5
833.035	35.5
834.196	31.5
835.356	31
836.515	33.5
837.676	30.5
838.835	33.5
839.994	32.5
841.152	29
842.312	30.5
843.47	35
844.629	27
845.786	35
846.946	32.5
848.103	32.5
849.261	31.5
850.418	34.5
851.575	32
852.733	30.5
853.89	32.5
855.046	32
856.203	33.5
857.359	34.5
858.515	30
859.67	33
860.827	31.5
861.983	31.5
863.138	36.5
864.293	34
865.448	35
866.603	34
867.757	33
868.912	29.5
870.066	31
871.22	37
872.374	33.5
873.527	29
874.681	38.5
875.834	34
876.987	33
878.14	35.5
879.293	35
880.445	32
881.598	35
882.75	30
883.902	33.5
885.054	32
886.206	27
887.357	30.5
888.507	31.5
889.658	34
890.809	30.5
891.96	29
893.111	32
894.261	29.5
895.411	28
896.561	33.5
897.71	34.5
898.86	29
900.009	33
901.159	28
902.308	28.5
903.455	31
904.604	31.5
905.753	29
906.901	33.5
908.048	30
909.197	37.5
910.344	28
911.492	36
912.639	30
913.786	29
914.933	31
916.079	29
917.226	30
918.373	35
919.518	33
920.664	32.5
921.81	29
922.955	36
924.101	31
925.245	30
926.391	30.5
927.536	34
928.68	31
929.825	29
930.968	30
932.113	30
933.256	26
934.4	30
935.543	30
936.687	34.5
937.83	34
938.973	34
940.115	34.5
941.258	28
942.399	29
943.542	30
944.684	30.5
945.826	33
946.967	29
948.109	31
949.25	27.5
950.392	28.5
951.532	30
952.672	34.5
953.813	30.5
954.953	34
956.093	31
957.233	33.5
958.373	31
959.512	32.5
960.652	29.5
961.791	30
962.929	31
964.069	31
965.207	29.5
966.345	35
967.484	29.5
968.622	31
969.759	28.5
970.896	31.25
972.035	33.5
973.172	34.5
974.309	32
975.445	31
976.582	33
977.719	32
978.855	29
979.991	32
981.127	31.5
982.263	31.5
983.398	29
984.535	33
985.67	34
986.804	33.5
987.939	29
989.074	31
990.208	30.5
991.342	30.5
992.476	29.5
993.61	31.5
994.744	30
995.877	33
997.01	32
998.143	27.5
999.276	33.5
1000.41	27
1001.54	32
1002.67	33.5
1003.81	30.5
1004.94	32.5
1006.07	31.5
1007.2	32
1008.33	30
1009.47	31.5
1010.6	31
1011.73	28.5
1012.86	26.5
1013.99	31.5
1015.12	29.5
1016.25	28.5
1017.38	25.5
1018.51	33
1019.64	30.5
1020.77	32
1021.9	30.5
1023.03	35.5
1024.15	32
1025.28	26
1026.41	32
1027.54	28.5
1028.67	27
1029.8	28
1030.92	31
1032.05	29.5
1033.18	30.5
1034.31	35.5
1035.43	33
1036.56	30
1037.69	31.5
1038.81	33.5
1039.94	33.5
1041.07	30.5
1042.19	32
1043.32	33.5
1044.44	28.5
1045.57	31
1046.69	31
1047.82	30.5
1048.94	32
1050.07	29
1051.19	28
1052.32	32.5
1053.44	30.5
1054.57	27.5
1055.69	26
1056.81	30
1057.94	27
1059.06	29
1060.18	29
1061.31	29.5
1062.43	33.5
1063.55	26
1064.67	30.5
1065.8	32
1066.92	30.5
1068.04	28.5
1069.16	28.5
1070.28	30
1071.4	30.5
1072.52	33
1073.64	32
1074.76	28
1075.89	31
1077.01	28.5
1078.13	25.5
1079.25	31
1080.37	30.5
1081.49	33
1082.6	29
1083.72	29
1084.84	32
1085.96	30
1087.08	33
1088.2	30.5
1089.32	26
1090.43	31
1091.55	31
1092.67	25
1093.79	30
1094.91	29
1096.02	25.5
1097.14	30
1098.26	30
1099.37	30
1100.49	31.5
1101.61	24
1102.72	31
1103.84	25
1104.95	31.5
1106.07	30.5
1107.18	27.5
1108.3	26.5
1109.41	28.5
1110.53	24
1111.64	29.5
1112.76	27.5
1113.87	31
1114.99	31
1116.1	31
1117.21	24.5
1118.33	25.5
1119.44	30
1120.55	28
1121.67	26.5
1122.78	29.5
1123.89	30
1125	32
1126.12	30.5
1127.23	32.5
1128.34	28.5
1129.45	28.5
1130.56	26.5
1131.68	25.5
1132.79	30.5
1133.9	31
1135.01	27
1136.12	30
1137.23	28.5
1138.34	28.5
1139.45	28.5
1140.56	30.5
1141.67	28
1142.78	28.5
1143.89	27
1145	31
1146.11	31.5
1147.22	30.5
1148.32	30
1149.43	27.5
1150.54	30
1151.65	31
1152.76	26
1153.86	29.5
1154.97	29
1156.08	28
1157.19	28.5
1158.29	27.5
1159.4	27
1160.51	25
1161.61	28
1162.72	30
1163.83	32
1164.93	30
1166.04	31
1167.14	30.5
1168.25	29.5
1169.35	28
1170.46	29
1171.56	27
1172.67	29.5
1173.77	28.5
1174.88	27
1175.98	29.5
1177.08	25
1178.19	27
1179.29	28
1180.4	30
1181.5	29
1182.6	26
1183.71	29.5
1184.81	28.5
1185.91	29.5
1187.01	30.5
1188.12	30
1189.22	27
1190.32	29
1191.42	25
1192.52	31
1193.62	27
1194.72	28.021
1195.83	24.6418
1196.93	33.1244
1198.03	28.9182
1199.13	25.897
1200.23	28.9792
1201.33	29.6218
1202.43	29.0396
1203.53	30.9633
1204.63	28.8964
1205.73	26.6199
1206.83	30.2228
1207.92	32.1661
1209.02	29.2567
1210.12	30.9368
1211.22	30.1019
1212.32	31.9667
1213.42	27.4539
1214.51	29.9346
1215.61	29.8732
1216.71	28.7302
1217.81	28.7743
1218.9	31.0698
1220	29.2998
1221.1	31.5816
1222.19	27.3189
1223.29	28.6899
1224.39	31.1449
1225.48	28.078
1226.58	32.0348
1227.68	28.9193
1228.77	29.8652
1229.87	31.0606
1230.96	28.5961
1232.06	27.2787
1233.15	29.5753
1234.25	28.8274
1235.34	31.2876
1236.43	27.57
1237.53	27.6612
1238.62	29.888
1239.72	30.0937
1240.81	29.5401
1241.9	31.2198
1243	30.8845
1244.09	31.2683
1245.18	32.2283
1246.27	31.0782
1247.37	28.566
1248.46	31.7682
1249.55	31.1578
1250.64	32.477
1251.74	37.0139
1252.83	32.267
1253.92	33.503
1255.01	31.753
1256.1	34.9804
1257.19	32.3043
1258.28	31.9623
1259.38	32.9416
1260.46	33.8599
1261.56	33.1962
1262.65	32.6748
1263.74	35.2477
1264.82	33.3606
1265.91	34.3403
1267	31.7517
1268.09	31.5142
1269.18	32.3097
1270.27	29.6146
1271.36	35.3309
1272.45	34.2729
1273.54	33.7248
1274.63	32.335
1275.71	32.0301
1276.8	33.1916
1277.89	32.4411
1278.98	33.2078
1280.06	34.1115
1281.15	33.2131
1282.24	30.2613
1283.32	35.4942
1284.41	32.1544
1285.5	32.2802
1286.58	31.771
1287.67	34.7352
1288.76	31.6348
1289.84	31.7577
1290.93	33.509
1292.01	29.8678
1293.1	29.9795
1294.18	34.5453
1295.27	34.599
1296.35	34.3308
1297.44	32.7963
1298.52	34.8023
1299.6	31.8337
1300.69	36.4391
1301.77	35.6944
1302.86	35.3679
1303.94	32.9297
1305.02	34.0361
1306.11	33.9037
1306.41	33.5
1307.5	36
1308.59	32
1309.68	35
1310.77	34
1311.85	32
1312.94	36
1314.03	35.5
1315.11	33.5
1316.2	31
1317.29	37
1318.37	33.5
1319.46	34
1320.55	31.5
1321.63	35.5
1322.72	36.5
1323.8	37
1324.89	35.5
1325.98	35.5
1327.06	37
1328.15	36
1329.23	35
1330.31	30.5
1331.4	33
1332.48	32
1333.57	32
1334.65	33
1335.74	31
1336.82	31
1337.9	32
1338.99	35
1340.07	34.5
1341.15	31
1342.24	29
1343.32	33
1344.4	35
1345.48	32.5
1346.56	31
1347.65	33
1348.73	30.5
1349.81	29.5
1350.89	34
1351.97	32.5
1353.05	33.5
1354.13	36
1355.21	29
1356.29	35.5
1357.37	37.5
1358.46	34.5
1359.54	28.5
1360.62	30.5
1361.69	30
1362.77	31.5
1363.85	38
1364.93	30.5
1366.01	34
1367.09	34.5
1368.17	35.5
1369.25	30
1370.33	30.5
1371.41	33
1372.48	29
1373.56	31.5
1374.64	34
1375.72	30.5
1376.79	31
1377.87	32.5
1378.95	31
1380.02	32
1381.1	32
1382.18	30
1383.25	35
1384.33	27.5
1385.4	35.5
1386.48	32
1387.56	38.5
1388.63	34.5
1389.71	30.5
1390.78	32
1391.86	32
1392.93	33
1394.01	33
1395.08	33.5
1396.15	31
1397.23	36.5
1398.3	30.5
1399.38	35
1400.45	32.5
1401.52	34
1402.6	36
1403.67	35.5
1404.74	39
1405.81	36.5
1406.89	36
1407.96	31
1409.03	34.5
1410.1	34.5
1411.17	32.5
1412.25	35.5
1413.32	34.5
1414.39	39
1415.46	35.5
1416.53	34.5
1417.6	34
1418.67	32
1419.74	34
1420.81	34.5
1421.88	31.5
1422.95	35
1424.02	31.5
1425.09	34
1426.16	35.5
1427.23	34
1428.3	34.5
1429.37	36
1430.44	33
1431.51	33.5
1432.58	31.5
1433.64	34
1434.71	34
1435.78	31.5
1436.85	30.5
1437.92	32
1438.98	37.5
1440.05	32
1441.12	32
1442.18	34.5
1443.25	33
1444.32	34
1445.38	32
1446.45	32
1447.52	31
1448.58	35.5
1449.65	36
1450.71	34
1451.78	32.5
1452.84	32.5
1453.91	38
1454.97	37.5
1456.04	32.5
1457.1	34
1458.17	32.5
1459.23	33.5
1460.3	31.5
1461.36	30.5
1462.42	30
1463.49	33
1464.55	32
1465.61	28.5
1466.68	32.5
1467.74	30.5
1468.8	35
1469.86	30
1470.93	26.5
1471.99	33.5
1473.05	33.5
1474.11	36.5
1475.17	33.5
1476.24	32
1477.3	29
1478.36	30
1479.42	32.5
1480.48	31
1481.54	33.5
1482.6	28.5
1483.66	31
1484.72	25.5
1485.78	32
1486.84	30
1487.9	35.5
1488.96	31.5
1490.02	32
1491.08	33.5
1492.14	31.5
1493.2	31
1494.26	34.5
1495.31	35.5
1496.37	35
1497.43	35
1498.49	30.5
1499.55	32
1500.6	29
1501.66	34
1502.72	29
1503.78	34.5
1504.83	29
1505.89	31.5
1506.95	30.5
1508	34.5
1509.06	32.5
1510.12	31.5
1511.17	29.5
1512.23	36.5
1513.28	31
1514.34	33.5
1515.39	35.5
1516.45	30.5
1517.5	36.5
1518.56	32
1519.61	32
1520.67	34
1521.72	33.5
1522.78	31
1523.83	27.5
1524.88	30
1525.94	34
1526.99	30
1528.05	30.5
1529.1	30.5
1530.15	29
1531.2	27
1532.26	32
1533.31	33.5
1534.36	33
1535.41	31
1536.47	34
1537.52	34
1538.57	31
1539.62	29.5
1540.67	28
1541.72	31
1542.77	29
1543.83	33
1544.88	31.5
1545.93	33
1546.98	35
1548.03	31.5
1549.08	34.5
1550.13	30
1551.18	31
1552.23	32
1553.28	28
1554.32	33.5
1555.37	27.5
1556.42	33
1557.47	33
1558.52	37
1559.57	27.5
1560.62	31.5
1561.67	36
1562.71	31
1563.76	30.5
1564.81	34.5
1565.86	29
1566.9	33
1567.95	33.5
1569	32
1570.04	31
1571.09	32
1572.14	29
1573.18	27
1574.23	30
1575.27	30
1576.32	30
1577.37	34.5
1578.41	32
1579.46	34
1580.5	33
1581.55	35
1582.59	23.5
1583.64	25.5
1584.68	32.5
1585.72	34
1586.77	31.5
1587.81	35.5
1588.86	30
1589.9	32.5
1590.94	29
1591.99	28.5
1593.03	29
1594.07	31
1595.12	31.5
1596.16	28.5
1597.2	32.5
1598.24	30.5
1599.29	34
1600.33	34.5
1601.37	30
1602.41	30.5
1603.45	31.5
1604.49	32
1605.53	28.5
1606.58	31
1607.62	31.5
1608.66	29
1609.7	31.5
1610.74	31
1611.78	33
1612.82	32
1613.86	31.5
1614.9	33
1615.94	31
1616.98	32
1618.02	34
1619.06	32.5
1620.09	32
1621.13	32
1622.17	28
1623.21	32.5
1624.25	28.5
1625.29	29.5
1626.32	32
1627.36	32
1628.4	30.5
1629.44	32
1630.47	37
1631.51	32.5
1632.55	34
1633.58	26.5
1634.62	32
1635.66	33
1636.69	33
1637.73	31
1638.77	35.5
1639.8	30
1640.84	31
1641.87	30.5
1642.91	32.5
1643.94	34
1644.98	28.5
1646.01	31.5
1647.05	33
1648.08	30.5
1649.12	28.5
1650.15	33
1651.18	28
1652.22	33
1653.25	29
1654.29	33.5
1655.32	32
1656.35	25
1657.39	33.5
1658.42	34.5
1659.45	29.5
1660.48	30.5
1661.52	33
1662.55	34
1663.58	36
1664.61	29
1665.64	29.5
1666.68	29.5
1667.71	31.5
1668.74	30.5
1669.77	33
1670.8	35
1671.83	28
1672.86	31
1673.89	34.5
1674.92	31.5
1675.95	33
1676.98	32.5
1678.01	31.5
1679.04	33
1680.07	29.5
1681.1	30.5
1682.13	28
1683.16	32.5
1684.19	29
1685.22	32
1686.25	32
1687.27	35.5
1688.3	32
1689.33	32
1690.36	30.5
1691.38	33.5
1692.41	35
1693.44	34.5
1694.47	32
1695.49	34.5
1696.52	30
1697.55	30.5
1698.57	29.5
1699.6	33.5
1700.63	29.5
1701.65	30
1702.68	31
1703.7	30
1704.73	32
1705.76	33.5
1706.78	29
1707.81	30.5
1708.83	34.5
1709.86	31
1710.88	33
1711.91	30
1712.93	32
1713.95	31
1714.98	33.5
1716	28
1717.03	29
1718.05	35.5
1719.07	34.5
1720.1	30
1721.12	33
1722.14	36
1723.16	32.5
1724.19	29
1725.21	29.5
1726.23	27.5
1727.25	33.5
1728.28	34
1729.3	32
1730.32	32
1731.34	29
1732.36	34.5
1733.38	30
1734.41	35.5
1735.43	32.5
1736.45	33
1737.47	30
1738.49	34.5
1739.51	34
1740.53	34
1741.55	33.5
1742.57	28.5
1743.59	32.5
1744.61	27.5
1745.63	31
1746.64	28
1747.66	29.5
1748.68	34.5
1749.7	32
1750.72	30
1751.74	28
1752.76	29.5
1753.77	29
1754.79	33.5
1755.81	30
1756.83	31.5
1757.84	31.5
1758.86	33
1759.88	34
1760.9	30
1761.91	33.5
1762.93	27
1763.95	30
1764.96	27.5
1765.98	30
1766.99	33
1768.01	32
1769.02	33.5
1770.04	33
1771.06	33.5
1772.07	32
1773.09	31
1774.1	30.5
1775.12	34
1776.13	33.5
1777.14	28
1778.16	33
1779.17	29
1780.19	30
1781.2	32
1782.21	34
1783.23	26
1784.24	36
1785.25	32.5
1786.27	34.5
1787.28	29.5
1788.29	33
1789.3	30.5
1790.32	32.5
1791.33	25
1792.34	32.5
1793.35	35
1794.36	35.5
1795.38	32.5
1796.39	35.5
1797.4	31.5
1798.41	33
1799.42	30.5
1800.43	30.5
1801.44	32.5
1802.45	32
1803.46	32.5
1804.47	36
1805.48	33.5
1806.49	35
1807.5	35.5
1808.51	30.5
1809.52	30.5
1810.53	31
1811.54	31.5
1812.55	29
1813.56	33
1814.57	29
1815.57	32.5
1816.58	33
1817.59	29
1818.6	31
1819.61	33
1820.61	26
1821.62	32
1822.63	32.5
1823.64	31.5
1824.64	32.5
1825.65	31
1826.66	27.5
1827.66	29.5
1828.67	30.5
1829.68	27
1830.68	30
1831.69	34.5
1832.69	30.5
1833.7	29.5
1834.7	33.5
1835.71	34.5
1836.71	32
1837.72	30.5
1838.72	30
1839.73	28.5
1840.73	29
1841.74	29
1842.74	30
1843.75	29.5
1844.75	30
1845.75	30
1846.76	35
1847.76	33
1848.76	27.5
1849.77	32
1850.77	31
1851.77	31.5
1852.78	33.5
1853.78	32
1854.78	30
1855.78	30
1856.78	32
1857.79	29.5
1858.79	32
1859.79	29.5
1860.79	35
1861.79	29.5
1862.79	29
1863.79	30.5
1864.79	31
1865.79	30.5
1866.8	34
1867.8	28.5
1868.8	27.5
1869.8	30
1870.8	33
1871.8	33.5
1872.8	27.5
1873.79	33
1874.79	32.5
1875.79	30.5
1876.79	31
1877.79	31
1878.79	32
1879.79	31
1880.79	33.5
1881.78	29
1882.78	34
1883.78	32
1884.78	29.5
1885.77	29
1886.77	30.5
1887.77	33
1888.77	33
1889.76	28
1890.76	26
1891.76	30
1892.75	29
1893.75	27
1894.75	27
1895.74	30.5
1896.74	25
1897.73	31
1898.73	34
1899.73	31.5
1900.72	29
1901.72	28
1902.71	33
1903.7	34
1904.7	27.5
1905.69	28
1906.69	34
1907.68	32.5
1908.68	29
1909.67	30
1910.66	28
1911.66	34
1912.65	33.5
1913.64	32
1914.64	30
1915.63	33.5
1916.62	31
1917.62	29
1918.61	32.5
1919.6	31
1920.59	25.5
1921.58	31
1922.58	31
1923.57	29
1924.56	28
1925.55	30
1926.54	31
1927.53	31.5
1928.52	28.5
1929.51	34.5
1930.51	31
1931.5	29
1932.49	29
1933.48	29.5
1934.47	31.5
1935.46	29.5
1936.45	25
1937.44	31.5
1938.42	31
1939.41	28.5
1940.4	34.5
1941.39	32
1942.38	30.5
1943.37	24
1944.36	29.5
1945.35	30.5
1946.33	32.5
1947.32	32.5
1948.31	31.75
1949.3	31
1950.29	32.5
1951.27	28.5
1952.26	26.5
1953.25	29.5
1954.23	31
1955.22	35
1956.21	29
1957.19	29.5
1958.18	33.5
1959.17	34
1960.15	33
1961.14	27.5
1962.13	26.5
1963.11	28
1964.1	27.5
1965.08	32
1966.07	31.5
1967.05	29
1968.04	31.5
1969.02	31.5
1970.01	31
1970.99	30
1971.97	28
1972.96	31
1973.94	29.5
1974.93	27
1975.91	32
1976.89	27.5
1977.88	28
1978.86	30.5
1979.84	30.5
1980.83	29
1981.81	27.5
1982.79	28.5
1983.77	31
1984.76	29
1985.74	29
1986.72	31.5
1987.7	34.5
1988.68	27.5
1989.67	30
1990.65	27.5
1991.63	31
1992.61	33
1993.59	26
1994.57	30.5
1995.55	29
1996.53	31.5
1997.51	30.5
1998.49	30
1999.47	31
2000.45	26.5
2001.43	26
2002.41	28.5
2003.39	31
2004.37	31
2005.35	33
2006.33	30.5
2007.31	34
2008.29	28.5
2009.26	33
2010.24	26.5
2011.22	30
2012.2	27.5
2013.18	32
2014.15	34
2015.13	27.5
2016.11	23.5
2017.09	28.5
2018.06	27.5
2019.04	30
2020.02	31
2021	28
2021.97	27
2022.95	27.5
2023.92	27.5
2024.9	35
2025.88	29.5
2026.85	33.5
2027.83	27.5
2028.8	29.5
2029.78	25.5
2030.75	33
2031.73	32
2032.7	27
2033.68	31
2034.65	26.5
2035.63	26.5
2036.6	32.5
2037.58	28
2038.55	32.5
2039.52	30
2040.5	28.5
2041.47	27.5
2042.45	28
2043.42	33
2044.39	29.5
2045.36	31
2046.34	27
2047.31	32
2048.28	32.5
2049.26	32
2050.23	34.5
2051.2	30
2052.17	33
2053.14	28
2054.12	25
2055.09	27.5
2056.06	32
2057.03	28.5
2058	30
2058.97	29
2059.94	31
2060.91	27.5
2061.88	29
2062.85	31
2063.82	29.5
2064.79	30
2065.76	33
2066.73	30.5
2067.7	29.5
2068.67	23.5
2069.64	30
2070.61	28.5
2071.58	29
2072.55	33
2073.52	30.5
2074.49	28.5
2075.45	29
2076.42	29.5
2077.39	33.5
2078.36	28.5
2079.33	28.5
2080.29	27
2081.26	29
2082.23	28
2083.2	27
2084.16	30.5
2085.13	29
2086.1	32
2087.06	30.5
2088.03	32.5
2089	28.5
2089.96	25
2090.93	32
2091.89	29.5
2092.86	27.5
2093.83	29
2094.79	28
2095.76	31.5
2096.72	34.5
2097.69	29.5
2098.65	26
2099.62	28
2100.58	28
2101.55	29
2102.51	30.5
2103.47	33.5
2104.44	32
2105.4	31.5
2106.36	27.5
2107.33	33
2108.29	31
2109.25	31.5
2110.22	29.5
2111.18	30.5
2112.14	30.5
2113.11	23.5
2114.07	27.5
2115.03	26
2115.99	29
2116.96	27
2117.92	29
2118.88	29
2119.84	30
2120.8	28
2121.76	27.5
2122.72	29
2123.68	29
2124.65	28.5
2125.61	24
2126.57	28.5
2127.53	27
2128.49	27
2129.45	30
2130.41	29
2131.37	29.5
2132.33	27
2133.29	32
2134.25	30.5
2135.21	31
2136.17	30.5
2137.12	24.5
2138.08	29
2139.04	28
2140	27
2140.96	30.5
2141.92	25
2142.88	29.9775
2143.83	28.4311
2144.79	24.5976
2145.75	30.0205
2146.71	27.4242
2147.66	26.9872
2148.62	27.5081
2149.58	28.918
2150.53	27.908
2151.49	29.5944
2152.45	24.7578
2153.4	28.165
2154.36	26.3786
2155.32	27.7738
2156.27	27.6503
2157.23	29.4851
2158.19	27.8404
2159.14	30.3522
2160.1	27.7247
2161.05	25.3426
2162.01	27.6019
2162.96	28.5059
2163.92	27.0214
2164.87	28.335
2165.83	28.0243
2166.78	28.0642
2167.73	29.4456
2168.69	31.0316
2169.64	25.6138
2170.6	28.0425
2171.55	27.3478
2172.5	31.6806
2173.46	31.5069
2174.41	25.7358
2175.36	28.2539
2176.32	26.6913
2177.27	28.5058
2178.22	27.329
2179.18	24.7094
2180.13	25.1923
2181.08	29.798
2182.03	27.4682
2182.98	27.0679
2183.94	26.2207
2184.89	26.0027
2185.84	27.9929
2186.79	26.6456
2187.74	27.4362
2188.69	26.3143
2189.64	26.9725
2190.6	25.8008
2191.55	26.2574
2192.5	26.2584
2193.45	27.9575
2194.4	25.2389
2195.35	28.5014
2196.3	27.4029
2197.25	28.0461
2198.2	26.5384
2199.15	27.3854
2200.1	25.3357
2201.04	29.3393
2201.99	25.0652
2202.94	25.9625
2203.89	25.8675
2204.84	27.4218
2205.79	25.4325
2206.74	29.2225
2207.69	28.1847
2208.63	22.9496
2209.58	27.9835
2210.53	25.6189
2211.48	27.6286
2212.43	25.7136
2213.37	25.4265
2214.32	29.2865
2215.27	27.1847
2216.21	26.5891
2217.16	26.0786
2218.11	26.708
2219.05	23.2055
2220	24.9935
2220.95	27.936
2221.89	26.7317
2222.84	28.318
2223.78	26.1817
2224.73	27.3616
2225.68	23.8557
2226.62	28.1585
2227.57	25.9397
2228.51	27.7721
2229.46	28.7595
2230.4	26.3529
2231.35	26.2435
2232.29	29.0879
2233.24	26.3659
2234.18	25.8155
2235.12	26.0344
2236.07	27.0818
2237.01	27.8432
2237.95	27.2437
2238.9	26.2711
2239.84	25.6367
2240.06	25.5
2241.01	24
2241.96	26
2242.91	26
2243.86	28.5
2244.8	28
2245.75	26
2246.7	25.5
2247.65	24
2248.59	24.5
2249.54	26.5
2250.49	25.5
2251.43	26.5
2252.38	26
2253.33	28.5
2254.27	25.5
2255.22	27
2256.16	25
2257.11	25
2258.06	26.5
2259	23
2259.95	25.5
2260.89	28
2261.84	23
2262.78	24
2263.73	27
2264.67	26
2265.62	28
2266.56	25.5
2267.5	30
2268.45	20
2269.39	22
2270.34	23.5
2271.28	28
2272.22	27
2273.17	25
2274.11	23
2275.05	22.5
2276	25
2276.94	25
2277.88	26
2278.82	26
2279.77	29
2280.71	31.5
2281.65	31
2282.59	29.5
2283.53	26
2284.48	22
2285.42	30
2286.36	23.5
2287.3	25.5
2288.24	27.5
2289.18	28
2290.12	25.5
2291.06	27.5
2292	28.5
2292.94	25
2293.89	22
2294.83	27
2295.77	29.5
2296.71	23
2297.65	29
2298.58	22
2299.52	26.5
2300.46	23.5
2301.4	26
2302.34	22
2303.28	23
2304.22	28.5
2305.16	29
2306.1	28.5
2307.03	24
2307.97	25
2308.91	29.5
2309.85	27.5
2310.79	25.5
2311.72	21
2312.66	27.5
2313.6	24
2314.54	25.5
2315.47	28
2316.41	25
2317.35	28
2318.28	24.5
2319.22	28
2320.16	28
2321.09	26
2322.03	28.5
2322.96	27
2323.9	26
2324.84	23.5
2325.77	23.5
2326.71	30.5
2327.64	22.5
2328.58	27
2329.51	23
2330.45	27
2331.38	26.5
2332.32	26.5
2333.25	26.5
2334.18	24
2335.12	25
2336.05	26.5
2336.99	26.5
2337.92	28
2338.85	26.5
2339.79	26
2340.72	25.5
2341.65	26.5
2342.59	24
2343.52	23
2344.45	28.5
2345.39	29.5
2346.32	22.5
2347.25	24.5
2348.18	27
2349.11	24
2350.05	24
2350.98	29
2351.91	29
2352.84	24.5
2353.77	22
2354.7	22
2355.64	24.5
2356.57	24
2357.5	27.5
2358.43	25.5
2359.36	24
2360.29	26
2361.22	24
2362.15	29
2363.08	25
2364.01	25
2364.94	27
2365.87	25
2366.8	24.5
2367.73	23.5
2368.66	28
2369.58	25.5
2370.51	28
2371.44	23
2372.37	25.5
2373.3	26
2374.23	27.5
2375.16	23.5
2376.08	29
2377.01	29
2377.94	27
2378.87	27
2379.8	28
2380.72	26
2381.65	32
2382.58	22
2383.5	27
2384.43	29.5
2385.36	27.5
2386.28	25.5
2387.21	28
2388.14	28.5
2389.06	24.5
2389.99	27
2390.91	30.5
2391.84	27
2392.77	25
2393.69	22
2394.62	28.5
2395.54	25.5
2396.47	26.5
2397.39	27
2398.32	26
2399.24	29
2400.16	27.5
2401.09	29
2402.01	24
2402.94	27
2403.86	27
2404.78	26.5
2405.71	26
2406.63	29
2407.56	26
2408.48	25.5
2409.4	27.5
2410.32	28
2411.25	24
2412.17	28
2413.09	24
2414.02	25
2414.94	23.5
2415.86	26
2416.78	24.5
2417.7	26.5
2418.63	26
2419.55	27
2420.47	26
2421.39	23
2422.31	26.5
2423.23	26.5
2424.15	27.5
2425.07	26.5
2425.99	25.5
2426.92	25
2427.84	24
2428.76	28.5
2429.68	22.5
2430.59	24
2431.51	29
2432.43	22
2433.35	28.5
2434.27	28.5
2435.19	26
2436.11	27
2437.03	29.5
2437.95	24
2438.87	27
2439.79	26.5
2440.71	23
2441.62	26.5
2442.54	26
2443.46	25.5
2444.38	23.5
2445.3	28
2446.21	27.5
2447.13	24.5
2448.05	26.5
2448.97	24
2449.88	31
2450.8	25.5
2451.72	27
2452.63	27
2453.55	26
2454.47	28
2455.38	27.5
2456.3	31.5
2457.21	28
2458.13	27.5
2459.05	24
2459.96	26
2460.88	25.5
2461.79	26
2462.71	27.5
2463.62	24
2464.54	28
2465.45	28
2466.37	27
2467.28	28
2468.2	30.5
2469.11	27
2470.02	22
2470.94	22
2471.85	25
2472.77	24
2473.68	23
2474.59	26
2475.51	28
2476.42	26
2477.33	24
2478.25	24
2479.16	30
2480.07	28
2480.98	26.5
2481.9	29
2482.81	21
2483.72	25.5
2484.63	26.5
2485.55	26
2486.46	20
2487.37	23.5
2488.28	26.5
2489.19	26
2490.1	25.5
2491.01	27
2491.92	25.5
2492.83	27
2493.74	22
2494.66	26
2495.57	24.5
2496.48	28.5
2497.39	26.5
2498.3	28.5
2499.21	26.5
2500.12	25.5
2501.03	28
2501.93	26.5
2502.84	24.5
2503.75	25.5
2504.66	25.5
2505.57	26
2506.48	24.5
2507.39	25
2508.3	28.5
2509.21	23.5
2510.11	24.5
2511.02	26.5
2511.93	26.5
2512.84	29.5
2513.75	28.5
2514.65	27
2515.56	25
2516.47	25
2517.37	29
2518.28	24.5
2519.19	24
2520.09	29
2521	26.5
2521.91	27.5
2522.81	28
2523.72	25.5
2524.63	27.5
2525.53	26
2526.44	29.5
2527.34	24.5
2528.25	19
2529.16	26
2530.06	26
2530.97	25
2531.87	22.5
2532.78	24.5
2533.68	25.5
2534.58	28.5
2535.49	27.5
2536.39	27
2537.3	25
2538.2	27
2539.11	28.5
2540.01	28.5
2540.91	27
2541.82	26.5
2542.72	25.5
2543.62	24.5
2544.53	26
2545.43	28.5
2546.33	26.5
2547.23	25.5
2548.14	27.5
2549.04	25
2549.94	25
2550.84	25
2551.75	27
2552.65	26.5
2553.55	27
2554.45	30
2555.35	26
2556.26	27.5
2557.16	27
2558.06	23.5
2558.96	21.5
2559.86	28.5
2560.76	25.5
2561.66	23
2562.56	29.5
2563.46	28.5
2564.36	27.5
2565.26	25
2566.16	26.5
2567.06	25.5
2567.96	28.5
2568.86	27.5
2569.76	26
2570.66	26.5
2571.56	29
2572.46	31.5
2573.36	25
2574.26	28.5
2575.16	26.5
2576.05	21
2576.95	25.5
2577.85	31
2578.75	26.5
2579.65	26
2580.54	27
2581.44	27.5
2582.34	27.5
2583.24	26.5
2584.13	25.5
2585.03	25.5
2585.93	25
2586.83	22
2587.72	23.5
2588.62	25
2589.52	26.5
2590.41	29.5
2591.31	23.5
2592.2	27.5
2593.1	28
2594	26
2594.89	24.5
2595.79	30
2596.68	26
2597.58	24.5
2598.47	25
2599.37	24.5
2600.26	23
2601.16	27
2602.05	25
2602.95	25.5
2603.84	22
2604.74	30
2605.63	28
2606.52	30
2607.42	25
2608.31	26
2609.21	25.5
2610.1	28
2610.99	26
2611.89	27
2612.78	27
2613.67	23.5
2614.56	27
2615.46	23.5
2616.35	26
2617.24	28.5
2618.13	23
2619.03	24.5
2619.92	26.5
2620.81	27
2621.7	25.5
2622.59	26.5
2623.49	25
2624.38	27
2625.27	25.5
2626.16	26.5
2627.05	29
2627.94	22
2628.83	25.5
2629.72	26.5
2630.61	28
2631.5	22
2632.39	29.5
2633.28	24.5
2634.17	25.5
2635.06	24
2635.95	25
2636.84	26.5
2637.73	27.5
2638.62	26.5
2639.51	26
2640.4	27
2641.29	25
2642.18	25.5
2643.07	27
2643.96	24.5
2644.84	27
2645.73	28.5
2646.62	27
2647.51	24.5
2648.4	28
2649.28	25
2650.17	25.5
2651.06	25.5
2651.95	27.5
2652.83	27.5
2653.72	24
2654.61	26
2655.49	21
2656.38	26
2657.27	28.5
2658.16	25.5
2659.04	23.5
2659.93	24
2660.81	26.5
2661.7	28
2662.59	27.5
2663.47	22.5
2664.36	26
2665.24	24.5
2666.13	29.5
2667.01	26.5
2667.9	25
2668.78	27
2669.67	20.5
2670.55	25.5
2671.44	24.5
2672.32	23.5
2673.21	26
2674.09	26
2674.97	29.5
2675.86	26
2676.74	29
2677.62	29
2678.51	26.5
2679.39	24
2680.27	30.5
2681.16	27
2682.04	25.5
2682.92	25
2683.81	22.5
2684.69	24
2685.57	30
2686.45	28
2687.34	26
2688.22	24.5
2689.1	26
2689.98	26.5
2690.86	25.5
2691.75	25.5
2692.63	23
2693.51	25
2694.39	28
2695.27	28
2696.15	23.5
2697.03	27.5
2697.91	24
2698.79	25.5
2699.67	23.5
2700.55	22
2701.43	26.5
2702.31	24
2703.19	23.5
2704.07	25
2704.95	28
2705.83	25
2706.71	23
2707.59	26.5
2708.47	25.5
2709.35	23
2710.23	23
2711.11	28.5
2711.99	25.5
2712.86	27
2713.74	24.5
2714.62	25
2715.5	28.5
2716.38	23
2717.26	23
2718.13	25
2719.01	26
2719.89	27
2720.77	26.5
2721.64	23
2722.52	24
2723.4	27.5
2724.27	23.5
2725.15	23
2726.03	23.5
2726.9	25
2727.78	26.5
2728.66	27.5
2729.53	28.5
2730.41	27.5
2731.28	26
2732.16	26
2733.03	28
2733.91	25
2734.79	27.5
2735.66	27.5
2736.54	24.5
2737.41	25.5
2738.29	25.5
2739.16	27
2740.03	27
2740.91	26
2741.78	24
2742.66	24.5
2743.53	24
2744.41	23
2745.28	28
2746.15	24.5
2747.03	27
2747.9	26
2748.77	26.5
2749.65	25.5
2750.52	25
2751.39	24
2752.27	21
2753.14	27.5
2754.01	23.5
2754.88	27.5
2755.75	26
2756.63	23.5
2757.5	26
2758.37	28
2759.24	26.5
2760.11	23
2760.99	22.5
2761.86	26.5
2762.73	24
2763.6	27
2764.47	26.5
2765.34	24.5
2766.21	26.5
2767.08	27.5
2767.95	25.5
2768.82	20
2769.69	26
2770.56	24.5
2771.43	25
2772.3	27.5
2773.17	23
2774.04	25.5
2774.91	29.5
2775.78	26
2776.65	27
2777.52	26
2778.39	23
2779.26	25
2780.13	26
2780.99	27.5
2781.86	25.5
2782.73	26
2783.6	24
2784.47	26.5
2785.34	26
2786.2	25
2787.07	28.5
2787.94	25.5
2788.81	22.5
2789.67	27
2790.54	22.5
2791.41	28
2792.27	23
2793.14	27.5
2794.01	25
2794.87	28.5
2795.74	26
2796.61	23.5
2797.47	29
2798.34	28
2799.21	21.5
2800.07	25
2800.94	26.5
2801.8	27.5
2802.67	28
2803.53	27
2804.4	28.5
2805.26	28.5
2806.13	25.5
2806.99	27.5
2807.86	27
2808.72	28.5
2809.59	29.5
2810.45	29
2811.32	25
2812.18	26
2813.04	24
2813.91	26.5
2814.77	25.5
2815.64	29.5
2816.5	26
2817.36	24
2818.22	25.5
2819.09	27
2819.95	30
2820.81	26.5
2821.68	28.5
2822.54	23
2823.4	28
2824.26	26.5
2825.13	28
2825.99	25
2826.85	31.5
2827.71	27
2828.57	27.5
2829.44	33
2830.3	21
2831.16	24.5
2832.02	26
2832.88	24.5
2833.74	28.5
2834.6	23
2835.46	28
2836.32	23
2837.18	21
2838.04	26.5
2838.9	24.5
2839.76	26
2840.62	29.5
2841.48	24.5
2842.34	26.5
2843.2	26
2844.06	28
2844.92	26
2845.78	28.5
2846.64	20
2847.5	28
2848.36	25
2849.22	27
2850.08	27.5
2850.93	26
2851.79	27
2852.65	25.5
2853.51	22.5
2854.37	24.5
2855.22	28.5
2856.08	23
2856.94	24
2857.8	24.5
2858.65	27.5
2859.51	27
2860.37	22.5
2861.23	25
2862.08	23.5
2862.94	28.5
2863.79	28
2864.65	23
2865.51	26.5
2866.36	28.5
2867.22	27.5
2868.08	22.5
2868.93	27
2869.79	27
2870.64	27.5
2871.5	27
2872.35	26
2873.21	28
2874.06	30.5
2874.92	23
2875.77	25
2876.63	28
2877.48	28
2878.34	31.5
2879.19	29.5
2880.05	25
2880.9	27
2881.76	24.5
2882.61	26
2883.46	27
2884.32	28.5
2885.17	29
2886.02	28.5
2886.88	32
2887.73	32.5
2888.58	33.5
2889.44	31
2890.29	35
2891.14	31.5
2891.99	33.5
2892.85	37
2893.7	35
2894.55	34
2895.4	36.5
2896.25	34.5
2897.11	43
2897.96	41
2898.81	43
2899.66	49
2900.51	46
2901.36	50.5
2902.21	49.5
2903.07	47
2903.92	51.5
2904.77	49.5
2905.62	50
2906.47	55
2907.32	45
2908.17	47.5
2909.02	51.5
2909.87	48
2910.72	46.5
2911.57	45.5
2912.42	42
2913.27	46.5
2914.12	41
2914.97	38
2915.81	37
2916.66	36.5
2917.51	33
2918.36	38.5
2919.21	33.5
2920.06	36.5
2920.91	32
2921.75	31.5
2922.6	30.5
2923.45	29
2924.3	28.5
2925.15	28.5
2925.99	29
2926.84	28
2927.69	28
2928.54	31.5
2929.38	26.5
2930.23	28
2931.08	26
2931.92	25
2932.77	27.5
2933.62	26
2934.46	26
2935.31	30.5
2936.16	26.5
2937	27
2937.85	26.5
2938.69	26.5
2939.54	30
2940.38	26
2941.23	27
2942.08	27.5
2942.92	27
2943.77	26
2944.61	29.5
2945.46	25.5
2946.3	27.5
2947.15	25.5
2947.99	26
2948.83	30
2949.68	28.5
2950.52	26
2951.37	27.5
2952.21	28.5
2953.05	24.5
2953.9	27
2954.74	30
2955.58	31.5
2956.43	27.5
2957.27	28
2958.11	33
2958.96	37
2959.8	27.5
2960.64	30.5
2961.48	35.5
2962.33	36.5
2963.17	31
2964.01	34.5
2964.85	36.5
2965.69	35
2966.54	39.5
2967.38	35.5
2968.22	36.5
2969.06	34.5
2969.9	34
2970.74	35
2971.58	34.4733
2972.43	32.4288
2973.27	25.1613
2974.11	31.4081
2974.95	33.8591
2975.79	25.7454
2976.63	31.2068
2977.47	31.567
2978.31	27.0276
2979.15	26.5107
2979.99	28.4305
2980.83	30.7189
2981.67	28.8672
2982.51	27.896
2983.35	25.8319
2984.19	24.7944
2985.03	29.3767
2985.86	25
2986.7	23.0108
2987.54	24.9533
2988.38	23.935
2989.22	25.0294
2990.06	22.5324
2990.9	26.3211
2991.73	23.8317
2992.57	25.554
2993.41	23.5529
2994.25	24.4941
2995.09	27.0146
2995.92	26.2272
2996.76	24.7933
2997.6	21.7384
2998.44	27.1289
2999.27	23.0121
3000.11	24.9119
3000.95	22.415
3001.78	25.2494
3002.62	24.0703
3003.46	21.3336
3004.29	23.9548
3005.13	23.0722
3005.96	24.6188
3006.8	22.7101
3007.64	22.9137
3008.47	23.5152
3009.31	24.8807
3010.14	22.8169
3010.98	21.6574
3011.81	23.7494
3012.65	23.2523
3013.48	24.2537
3014.32	23.1694
3015.15	22.1739
3015.99	23.1026
3016.82	21.6002
3017.66	22.9903
3018.49	21.9503
3019.33	23.3252
3020.16	24.4354
3020.99	22.8959
3021.83	23.3778
3022.66	21.3561
3023.5	20.2893
3024.33	23.0362
3025.16	23.6472
3026	22.0342
3026.83	23.2704
3027.66	22.4173
3028.49	24.2369
3029.33	24.0927
3030.16	23.349
3030.99	22.3516
3031.83	23.107
3032.66	22.1526
3033.49	23.524
3034.32	22.4047
3035.15	22.6198
3035.99	22.1896
3036.82	24.0659
3037.65	23.6707
3038.48	22.2401
3039.31	20.7927
3040.14	20.9018
3040.97	21.7335
3041.81	22.5326
3042.64	24.9887
3043.47	25.4358
3044.3	24.1494
3045.13	21.6142
3045.96	21.3287
3046.79	24.4864
3047.62	25.1031
3048.45	22.9279
3049.28	22.3334
3050.11	22.7299
3050.94	21.8352
3051.77	23.8182
3052.6	21.5243
3053.43	21.5957
3054.26	22.9551
3055.08	21.8078
3055.91	23.2315
3056.74	23.6966
3057.26	20
3058.09	20.5
3058.92	25.5
3059.76	25
3060.59	24.5
3061.42	22.5
3062.25	19
3063.09	22
3063.92	23
3064.75	19
3065.58	21.5
3066.42	22
3067.25	24.5
3068.08	26
3068.91	24.5
3069.74	21
3070.57	22
3071.41	23
3072.24	23
3073.07	25
3073.9	24
3074.73	24
3075.56	25.5
3076.39	23
3077.22	22
3078.05	23.5
3078.88	23
3079.71	23.5
3080.54	22
3081.37	23.5
3082.2	28.5
3083.03	24
3083.86	26.5
3084.69	28
3085.52	23
3086.35	21
3087.18	23.5
3088.01	21.5
3088.84	19
3089.67	24.5
3090.5	21.5
3091.32	24.5
3092.15	24
3092.98	22
3093.81	25
3094.64	22
3095.47	23.5
3096.29	25.5
3097.12	22
3097.95	23
3098.78	23
3099.6	21.5
3100.43	23
3101.26	24
3102.09	19
3102.91	22.5
3103.74	24.5
3104.57	22
3105.39	20
3106.22	20
3107.05	21.5
3107.87	23
3108.7	26
3109.52	24
3110.35	24
3111.18	25
3112	21.5
3112.83	25
3113.65	23
3114.48	26.5
3115.3	24.5
3116.13	24
3116.95	24.5
3117.78	20.5
3118.6	22.5
3119.43	27.5
3120.25	24.5
3121.08	20
3121.9	24.5
3122.72	23.5
3123.55	25
3124.37	23
3125.2	24
3126.02	23
3126.84	20.5
3127.67	23
3128.49	28.5
3129.31	23
3130.14	23.5
3130.96	22
3131.78	24.5
3132.61	29.5
3133.43	24.5
3134.25	20
3135.07	22.5
3135.89	24
3136.72	24.5
3137.54	25
3138.36	22
3139.18	24.5
3140	28
3140.83	23
3141.65	22
3142.47	23.5
3143.29	23
3144.11	22
3144.93	22.5
3145.75	22
3146.57	27
3147.4	26.5
3148.22	26.5
3149.04	22.5
3149.86	22
3150.68	22
3151.5	24
3152.32	26.5
3153.14	26
3153.96	22
3154.78	25.5
3155.59	25
3156.42	26.5
3157.23	26.5
3158.05	24.5
3158.87	25
3159.69	24
3160.51	19.5
3161.33	25.5
3162.15	20
3162.97	21.5
3163.78	21
3164.6	23
3165.42	25.5
3166.24	22
3167.06	22
3167.87	25.5
3168.69	22.5
3169.51	27
3170.33	21.5
3171.14	21
3171.96	23
3172.78	22.5
3173.6	24
3174.41	23.5
3175.23	22
3176.05	24
3176.86	21.5
3177.68	27.5
3178.5	26
3179.31	24.5
3180.13	26
3180.94	22
3181.76	23
3182.58	21
3183.39	23
3184.21	21.5
3185.02	25
3185.84	26.5
3186.65	20.5
3187.47	24
3188.28	24.5
3189.1	21
3189.91	23
3190.73	22.5
3191.54	27
3192.36	24.5
3193.17	25
3193.98	22.5
3194.8	18
3195.61	24
3196.43	23
3197.24	25.5
3198.05	26.5
3198.87	24
3199.68	25
3200.49	23
3201.31	26.5
3202.12	24
3202.93	25.5
3203.75	23.5
3204.56	24.5
3205.37	22
3206.18	21.5
3207	23
3207.81	24.5
3208.62	22.5
3209.43	23
3210.24	21.5
3211.06	22
3211.87	22
3212.68	22.5
3213.49	20.5
3214.3	24
3215.11	24.5
3215.92	28
3216.73	26
3217.55	26
3218.36	23
3219.17	23
3219.98	23.5
3220.79	23.5
3221.6	25
3222.41	22.5
3223.22	25
3224.03	21.5
3224.84	24
3225.65	23
3226.46	26
3227.27	24.5
3228.08	22
3228.89	25
3229.7	22.5
3230.5	24.5
3231.31	26
3232.12	22.5
3232.93	25.5
3233.74	27
3234.55	25.5
3235.36	23.5
3236.16	23
3236.97	23
3237.78	27.5
3238.59	22.5
3239.4	22.5
3240.2	20
3241.01	23.5
3241.82	24.5
3242.63	23.5
3243.43	23.5
3244.24	22.5
3245.05	28.5
3245.85	21.5
3246.66	25.5
3247.47	24
3248.27	21
3249.08	25.5
3249.89	22.5
3250.69	24
3251.5	22
3252.31	22.5
3253.11	25.5
3253.92	25
3254.72	28
3255.53	23
3256.33	26.5
3257.14	22
3257.94	25.5
3258.75	25.5
3259.55	24.5
3260.36	25
3261.16	25
3261.97	21.5
3262.77	21.5
3263.58	24.5
3264.38	23
3265.19	22.5
3265.99	21.5
3266.79	25
3267.6	24.5
3268.4	18
3269.21	22
3270.01	27
3270.81	24
3271.62	25
3272.42	22.5
3273.22	22
3274.03	23
3274.83	29.5
3275.63	23
3276.43	27
3277.24	23
3278.04	21
3278.84	23
3279.64	24
3280.45	22
3281.25	24
3282.05	21
3282.85	25
3283.65	23.5
3284.45	26
3285.26	23
3286.06	23
3286.86	23
3287.66	26.5
3288.46	26.5
3289.26	25.5
3290.06	24
3290.86	24.5
3291.66	20.5
3292.46	20.5
3293.26	23
3294.06	20.5
3294.86	23.5
3295.66	25.5
3296.46	25.5
3297.26	22
3298.06	25
3298.86	23.5
3299.66	21
3300.46	26
3301.26	21.5
3302.06	24.5
3302.86	18.5
3303.66	25
3304.46	22.5
3305.25	24
3306.05	24.5
3306.85	23.5
3307.65	20.5
3308.45	22.5
3309.25	24
3310.04	23
3310.84	22.5
3311.64	23.5
3312.44	27.5
3313.23	27
3314.03	25
3314.83	27
3315.63	26
3316.42	21.5
3317.22	23.5
3318.02	20.5
3318.81	30
3319.61	22
3320.41	26.5
3321.2	23.5
3322	22
3322.8	22
3323.59	28.5
3324.39	23.5
3325.18	25
3325.98	24.5
3326.78	24
3327.57	22
3328.37	24
3329.16	23.5
3329.96	23
3330.75	20.5
3331.55	22.5
3332.34	24
3333.14	22
3333.93	21
3334.73	24.5
3335.52	20.5
3336.31	22.5
3337.11	27
3337.9	25
3338.7	23
3339.49	22.5
3340.28	25
3341.08	26
3341.87	20.5
3342.66	25.5
3343.46	21.5
3344.25	23
3345.04	24
3345.84	24
3346.63	24
3347.42	25
3348.22	28
3349.01	27
3349.8	25
3350.59	25
3351.39	25
3352.18	24.5
3352.97	26
3353.76	27.5
3354.55	23
3355.35	22.5
3356.14	22
3356.93	25
3357.72	26
3358.51	26.5
3359.3	25.5
3360.09	24.5
3360.88	26.5
3361.67	25
3362.46	24.5
3363.26	23.5
3364.05	25
3364.84	27
3365.63	24
3366.42	23.5
3367.21	23.5
3368	21
3368.79	22
3369.58	27
3370.37	24
3371.15	18.5
3371.94	25.5
3372.73	25.5
3373.52	25
3374.31	27
3375.1	25.5
3375.89	24
3376.68	22
3377.47	24
3378.26	25
3379.04	26.5
3379.83	26.5
3380.62	27.5
3381.41	22
3382.2	24.5
3382.98	23.5
3383.77	27
3384.56	23
3385.35	22.5
3386.13	23.5
3386.92	19
3387.71	19
3388.5	28
3389.28	22
3390.07	23.5
3390.86	24.5
3391.64	23.5
3392.43	24
3393.22	24.5
3394	26
3394.79	23
3395.57	25
3396.36	18
3397.15	25
3397.93	24.5
3398.72	23
3399.5	24.5
3400.29	24
3401.07	26
3401.86	25.5
3402.65	23
3403.43	25
3404.21	21
3405	22.5
3405.78	16.5
3406.57	27
3407.35	26
3408.14	22.5
3408.92	24
3409.71	23
3410.49	21.5
3411.27	22.5
3412.06	24
3412.84	24
3413.62	22.5
3414.41	22
3415.19	23.5
3415.97	25.5
3416.76	24.5
3417.54	25
3418.32	22.5
3419.11	23
3419.89	25.5
3420.67	23.5
3421.46	27
3422.24	23
3423.02	27.5
3423.8	24.5
3424.58	23.5
3425.37	26
3426.15	23
3426.93	26.5
3427.71	25.5
3428.49	23.5
3429.27	23
3430.05	25
3430.84	22
3431.62	26
3432.4	27
3433.18	22
3433.96	19
3434.74	26
3435.52	24
3436.3	24
3437.08	21
3437.86	23
3438.64	26
3439.42	21.5
3440.2	23.5
3440.98	24
3441.76	24.5
3442.54	21.5
3443.32	26
3444.1	25.5
3444.88	25
3445.66	25.5
3446.44	23.5
3447.22	22
3448	25
3448.77	24.5
3449.55	23.5
3450.33	23
3451.11	28
3451.89	24
3452.67	21
3453.45	26
3454.22	26
3455	25
3455.78	24
3456.56	27
3457.33	24.5
3458.11	27.5
3458.89	20.5
3459.67	24
3460.44	24
3461.22	23
3462	28
3462.77	21.5
3463.55	18
3464.33	21.5
3465.1	24
3465.88	25.5
3466.66	24.5
3467.43	23
3468.21	25
3468.98	23.5
3469.76	22.5
3470.54	23
3471.31	27
3472.09	21.5
3472.86	24
3473.64	21
3474.41	22.5
3475.19	23.5
3475.96	23.5
3476.74	29.5
3477.51	23
3478.29	24.5
3479.06	27
3479.84	26
3480.61	26
3481.39	23
3482.16	27
3482.93	22.5
3483.71	22
3484.48	21
3485.25	21.5
3486.03	25
3486.8	26
3487.57	24.5
3488.35	27.5
3489.12	25.5
3489.89	24
3490.67	21.5
3491.44	26.5
3492.21	24.5
3492.99	26
3493.76	23.5
3494.53	22.5
3495.3	23
3496.08	22
3496.85	26
3497.62	24
3498.39	26.5
3499.16	25.5
3499.93	20
