#Acq. time (s)=	5
#Accumulations=	5
#Range (cm-¹)=	100...3500
#Windows=	4
#Autofocus=	Off
#AutoExposure=	Off
#Spike filter=	Multiple accum.
#Delay time (s)=	0
#Binning=	1
#Readout mode=	Signal
#DeNoise=	Off
#ICS correction=	Off
#Dark correction=	Off
#Inst. Process=	Off
#Instrument=	LabRAM HR Evol
#Detector=	Syncerity OE
#Objective=	x100_VIS
#Grating=	600 (500nm)
#ND Filter=	25%
#Laser=	633nm_Edge
#Hole=	100.021
#Range=	Visible
#Project=	verificaciones
#Sample=	at2
#Site=	plain
#Title=	bolusat2plain
#Remark=	
#Date=	13.01.2026 15:13
#Acquired=	13.01.2026 15:13:32
100.692	23.5
101.975	31.5
103.258	28.5
104.542	28
105.824	30
107.107	28.5
108.39	27
109.672	25
110.954	28
112.236	28
113.519	24
114.8	24
116.081	25.5
117.362	28.5
118.643	28.5
119.924	29.5
121.204	25.5
122.484	27
123.764	27.5
125.044	26.5
126.323	23
127.603	29.5
128.882	27.5
130.161	23
131.438	32.5
132.716	28
133.995	29
135.273	32.5
136.55	28
137.828	30.5
139.106	32.5
140.383	28.5
141.66	28.5
142.937	30
144.213	29
145.488	31
146.764	31
148.04	29.5
149.316	30
150.592	29
151.867	28
153.141	27
154.416	30
155.69	28
156.965	28.5
158.239	29
159.512	33.5
160.786	29.5
162.059	29.5
163.333	31
164.605	28.5
165.878	32
167.15	33
168.423	26.5
169.694	30.5
170.966	33.5
172.238	29.5
173.51	29
174.78	31
176.052	26.5
177.323	30
178.592	33
179.863	30
181.134	30.5
182.403	28
183.673	35
184.943	32.5
186.211	33
187.481	30.5
188.749	29.5
190.018	32
191.287	30.5
192.554	29
193.822	25.5
195.089	32
196.357	29
197.625	31
198.891	31.5
200.159	28.5
201.425	31
202.692	29
203.957	31
205.224	29.5
206.489	32.5
207.755	33.5
209.02	27
210.286	33
211.55	29
212.815	25
214.079	29.5
215.344	30.5
216.607	24.5
217.872	27
219.135	28
220.399	28.5
221.662	29.5
222.924	30
224.187	26
225.449	30
226.713	27
227.974	30
229.235	28.5
230.498	27.5
231.759	25.5
233.019	26
234.281	28
235.542	23.5
236.802	27
238.063	27.5
239.323	29.5
240.582	26.5
241.843	25
243.102	26
244.361	29.5
245.621	30
246.879	27
248.138	30
249.396	27.5
250.655	25
251.913	28.5
253.17	28
254.427	26.5
255.686	26.5
256.943	30
258.199	28
259.456	25.5
260.712	28.5
261.969	28.5
263.225	31
264.481	26.5
265.736	28.5
266.991	28.5
268.246	29.5
269.502	28.5
270.757	29.5
272.011	31.5
273.265	28.5
274.519	29
275.773	24.5
277.027	26
278.28	29
279.533	28
280.786	28
282.04	24
283.293	29
284.545	25
285.798	29
287.049	27
288.301	26
289.553	25.5
290.804	29
292.055	24
293.306	27
294.557	28
295.807	23.5
297.058	24
298.308	22
299.558	27.5
300.808	30.5
302.057	26
303.305	32
304.554	27
305.803	26.5
307.052	29.5
308.3	26.5
309.549	29
310.797	26
312.045	28
313.292	26
314.54	27.5
315.786	27
317.033	24.5
318.28	28.5
319.526	23
320.773	29
322.019	26.5
323.264	27.5
324.51	25.5
325.755	28
327.001	28
328.246	30
329.49	21
330.735	30.5
331.979	26
333.224	27
334.467	25
335.711	27
336.955	27
338.199	28
339.441	26
340.684	26
341.927	25.5
343.168	28.5
344.411	26
345.654	27
346.895	29.5
348.137	29
349.379	26.5
350.619	27.5
351.86	26.5
353.102	27
354.341	33.5
355.582	28.5
356.821	26
358.062	29
359.302	29
360.541	26
361.781	27
363.019	31.5
364.259	24.5
365.496	26
366.736	27.5
367.974	29
369.212	27.5
370.45	29
371.687	25.5
372.925	27.5
374.162	29
375.399	25
376.635	28.5
377.873	29
379.109	22
380.344	23
381.581	29
382.816	30.5
384.052	28
385.287	28
386.523	27.5
387.757	28
388.991	27
390.227	25
391.46	25.5
392.695	24
393.928	29.5
395.162	30
396.396	27
397.629	26
398.861	28.5
400.095	23
401.327	30
402.559	28
403.792	30
405.024	26
406.255	25.5
407.488	25.5
408.719	27
409.949	27
411.18	27
412.412	25
413.642	28.5
414.872	27
416.102	23.5
417.333	26
418.562	25
419.791	27
421.02	27
422.249	26.5
423.479	28
424.707	30
425.935	27
427.163	29.5
428.391	24.5
429.619	25.5
430.848	28
432.075	29
433.302	26
434.529	29
435.755	27
436.982	27
438.208	30.5
439.434	25.5
440.66	25.5
441.885	26
443.111	28
444.338	27
445.563	26
446.788	27.5
448.012	26.5
449.237	29.5
450.461	24.5
451.685	26.5
452.909	27
454.133	27.5
455.356	28.5
456.579	27
457.802	27.5
459.025	30.5
460.247	31
461.469	27
462.691	24.5
463.914	28
465.136	25
466.357	30
467.579	31
468.8	28
470.021	29
471.242	31
472.462	27.5
473.682	30
474.903	31
476.123	32
477.343	28.5
478.563	30
479.782	33
481	33
482.219	40
483.438	36
484.657	40.5
485.874	36
487.093	36
488.311	41.5
489.529	40.5
490.747	40.5
491.963	37
493.181	37
494.398	36
495.614	35
496.83	38
498.047	36
499.264	29
500.479	28
501.695	30.5
502.911	30
504.125	31
505.34	34
506.554	36
507.769	26.5
508.984	32
510.198	31
511.412	30.5
512.627	28.5
513.839	31
515.053	27.5
516.266	27.5
517.479	30.5
518.691	30.5
519.905	27.5
521.118	28.5
522.329	33.5
523.542	28.5
524.753	32
525.965	27.5
527.176	26
528.388	27
529.598	25
530.809	31
532.019	29
533.23	23.5
534.44	27
535.649	24.5
536.86	26
538.068	24.5
539.279	27
540.487	26.5
541.697	31.5
542.905	27.5
544.113	27
545.322	28
546.53	29
547.737	25
548.946	24.5
550.153	28
551.361	25.5
552.568	27
553.774	28.5
554.982	27.5
556.188	26
557.394	29
558.599	27
559.806	27
561.012	28
562.217	27.5
563.423	29
564.628	26.5
565.832	25.5
567.036	27
568.241	29
569.446	24
570.65	29
571.853	26.5
573.057	28
574.26	27
575.464	31.5
576.667	26
577.87	25.5
579.072	30
580.274	27
581.477	31
582.68	27
583.881	25.5
585.083	22
586.284	23.5
587.485	24
588.686	26
589.887	24
591.087	25
592.288	28.5
593.488	24
594.688	23.5
595.888	27
597.087	28.5
598.287	25.5
599.486	26.5
600.685	24
601.884	26.5
603.082	29.5
604.281	31
605.479	27.5
606.677	27
607.875	28.5
609.073	26
610.27	27.5
611.468	24
612.665	24.5
613.862	24
615.058	25.5
616.255	26.5
617.451	26
618.648	29.5
619.842	26
621.038	27
622.234	29.5
623.429	32
624.624	30
625.819	29.5
627.013	25
628.207	27.5
629.402	29.5
630.596	23
631.79	26
632.983	28
634.177	27
635.37	26.5
636.564	31
637.755	29.5
638.948	26
640.141	26.5
641.334	26
642.525	24.5
643.717	27
644.909	29.5
646.099	29.5
647.291	28
648.483	26
649.674	24.5
650.864	28.5
652.055	27
653.244	25.5
654.435	29.5
655.625	28
656.814	25
658.004	29
659.193	30
660.382	26
661.571	26.5
662.759	24
663.948	24
665.135	29.5
666.324	27
667.511	28
668.7	28
669.886	24
671.074	26.5
672.262	29.5
673.448	26
674.634	27
675.821	30
677.007	31
678.194	25
679.379	30
680.565	28.5
681.75	26
682.936	27
684.121	31.5
685.305	30.5
686.491	34.5
687.675	28
688.86	30
690.043	29
691.227	31
692.411	28
693.594	28.5
694.777	30
695.961	32
697.144	30
698.326	28
699.509	33.5
700.691	30
701.873	31
703.056	26.5
704.237	31.5
705.419	38.5
706.599	30.5
707.782	37
708.962	35.5
710.143	34
711.323	32.5
712.504	32.5
713.684	32.5
714.864	30.5
716.043	29.5
717.223	30
718.403	25.5
719.582	28
720.761	22.5
721.94	27
723.118	25.5
724.296	31.5
725.474	27
726.652	26
727.831	24.5
729.009	30.5
730.186	25.5
731.363	26.5
732.54	25.5
733.717	27.5
734.893	26
736.07	27.5
737.246	29.5
738.422	25
739.598	28
740.773	28
741.949	26
743.124	34
744.299	30
745.474	27.5
746.649	26.5
747.823	28.5
748.997	27.5
750.172	24.5
751.346	27
752.519	20.5
753.693	24.5
754.867	30.5
756.038	25.5
757.211	25
758.384	29
759.557	28
760.73	23.5
761.902	25
763.074	27
764.246	26.5
765.417	27
766.588	26.5
767.76	27
768.931	23.5
770.102	28.5
771.271	32
772.442	25
773.613	26.5
774.783	23
775.952	28
777.122	26
778.291	24.5
779.461	26.5
780.629	27
781.798	28.5
782.967	30.5
784.135	23.5
785.304	27
786.472	26.5
787.639	29.5
788.807	24.5
789.975	28.5
791.142	27.5
792.309	29
793.477	25
794.642	27
795.81	22
796.975	24
798.142	24.5
799.308	31.5
800.473	27.5
801.639	25
802.804	29
803.97	28.5
805.134	27
806.299	26
807.463	28
808.628	26
809.792	27
810.957	27
812.12	27
813.284	27.5
814.447	29.5
815.611	29
816.773	26.5
817.937	26
819.099	27.5
820.261	29.5
821.424	24.5
822.585	28.5
823.748	25.5
824.909	27.5
826.07	22.5
827.232	27.5
828.393	28.5
829.554	27
830.715	27.5
831.875	24.5
833.035	29
834.196	26
835.356	27.5
836.515	25.5
837.676	24
838.835	24
839.994	30
841.152	26.5
842.312	27.5
843.47	26
844.629	26.5
845.786	28
846.946	31
848.103	26.5
849.261	23
850.418	27.5
851.575	25
852.733	25
853.89	27
855.046	27.5
856.203	30
857.359	30
858.515	25
859.67	27.5
860.827	27
861.983	24
863.138	31
864.293	30
865.448	25.5
866.603	27.5
867.757	29.5
868.912	28.5
870.066	30.5
871.22	25.5
872.374	26
873.527	29
874.681	31
875.834	26.5
876.987	28
878.14	25
879.293	28
880.445	29.5
881.598	28
882.75	26.5
883.902	27
885.054	27.5
886.206	25.5
887.357	26
888.507	25
889.658	26
890.809	26
891.96	26
893.111	27
894.261	26
895.411	23.5
896.561	25
897.71	27.5
898.86	26
900.009	27
901.159	25
902.308	26
903.455	27.5
904.604	27.5
905.753	27.5
906.901	26
908.048	25
909.197	27.5
910.344	25.5
911.492	24
912.639	27.5
913.786	25
914.933	23
916.079	21
917.226	29
918.373	25
919.518	27.5
920.664	27.5
921.81	22
922.955	23
924.101	28
925.245	27
926.391	26.5
927.536	28
928.68	27.5
929.825	25
930.968	27
932.113	23
933.256	28
934.4	25.5
935.543	27.5
936.687	27
937.83	25
938.973	28
940.115	28.5
941.258	24
942.399	26.5
943.542	22.5
944.684	27.5
945.826	24
946.967	27
948.109	29
949.25	26
950.392	26.5
951.532	28
952.672	25.5
953.813	25
954.953	22.5
956.093	25
957.233	26
958.373	28
959.512	31
960.652	24
961.791	21.5
962.929	29
964.069	24.5
965.207	26
966.345	24
967.484	26.5
968.622	25
969.759	26
970.896	25.5
972.035	25
973.172	24
974.309	26
975.445	23.5
976.582	28.5
977.719	26
978.855	28.5
979.991	28
981.127	22
982.263	28.5
983.398	25.5
984.535	26.5
985.67	21
986.804	27.5
987.939	27
989.074	28.5
990.208	21
991.342	26
992.476	24
993.61	22.5
994.744	25
995.877	27
997.01	22.5
998.143	24.5
999.276	24
1000.41	26
1001.54	27
1002.67	26
1003.81	26.5
1004.94	22
1006.07	28.5
1007.2	25
1008.33	24
1009.47	27.5
1010.6	26.5
1011.73	27
1012.86	26
1013.99	29
1015.12	28
1016.25	25.5
1017.38	20.5
1018.51	25.5
1019.64	20
1020.77	22
1021.9	24.5
1023.03	27.5
1024.15	24.5
1025.28	24.5
1026.41	23.5
1027.54	26
1028.67	24.5
1029.8	24
1030.92	24
1032.05	21.5
1033.18	27.5
1034.31	23.5
1035.43	25.5
1036.56	26
1037.69	29
1038.81	28
1039.94	26
1041.07	23.5
1042.19	25.5
1043.32	26
1044.44	26.5
1045.57	21.5
1046.69	28.5
1047.82	29
1048.94	28
1050.07	25
1051.19	25
1052.32	24
1053.44	27
1054.57	23
1055.69	25
1056.81	26.5
1057.94	24.5
1059.06	23
1060.18	25
1061.31	22
1062.43	29
1063.55	25
1064.67	25
1065.8	26.5
1066.92	27
1068.04	27.5
1069.16	25
1070.28	25
1071.4	25
1072.52	21.5
1073.64	23
1074.76	27
1075.89	24
1077.01	27
1078.13	30
1079.25	26.5
1080.37	24
1081.49	27
1082.6	23.5
1083.72	21
1084.84	23.5
1085.96	24.5
1087.08	21
1088.2	29
1089.32	27.5
1090.43	26
1091.55	25
1092.67	29
1093.79	23
1094.91	24.5
1096.02	24
1097.14	25.5
1098.26	23.5
1099.37	28
1100.49	25.5
1101.61	22.5
1102.72	24
1103.84	23
1104.95	27.5
1106.07	26
1107.18	25.5
1108.3	24.5
1109.41	24.5
1110.53	25
1111.64	28
1112.76	22.5
1113.87	26
1114.99	26.5
1116.1	26
1117.21	23.5
1118.33	26
1119.44	24
1120.55	28
1121.67	21
1122.78	23.5
1123.89	22.5
1125	22.5
1126.12	25
1127.23	24
1128.34	23
1129.45	25
1130.56	24
1131.68	20
1132.79	26
1133.9	27.5
1135.01	25.5
1136.12	26
1137.23	25.5
1138.34	27.5
1139.45	24
1140.56	28
1141.67	23.5
1142.78	25.5
1143.89	21
1145	25.5
1146.11	25.5
1147.22	23
1148.32	23
1149.43	23.5
1150.54	23
1151.65	26.5
1152.76	22
1153.86	24.5
1154.97	25.5
1156.08	24.5
1157.19	26.5
1158.29	24.5
1159.4	22
1160.51	26.5
1161.61	20.5
1162.72	25
1163.83	27.5
1164.93	26
1166.04	19.5
1167.14	23
1168.25	26
1169.35	24.5
1170.46	26
1171.56	25.5
1172.67	27
1173.77	23
1174.88	21.5
1175.98	26
1177.08	24
1178.19	26
1179.29	23
1180.4	28.5
1181.5	23
1182.6	23
1183.71	25.5
1184.81	25.5
1185.91	25
1187.01	25
1188.12	25.5
1189.22	23.5
1190.32	26.5
1191.42	29
1192.52	23.5
1193.62	25
1194.72	18.0385
1195.83	24.9762
1196.93	22.6258
1198.03	20.1394
1199.13	23.4478
1200.23	25.8053
1201.33	23.1368
1202.43	23.3347
1203.53	26.4658
1204.63	23.8763
1205.73	23.279
1206.83	22.0845
1207.92	21.9773
1209.02	24.4685
1210.12	24.1211
1211.22	23.554
1212.32	22.1437
1213.42	23.3243
1214.51	23.4836
1215.61	22.0779
1216.71	25.678
1217.81	23.0447
1218.9	24.5648
1220	20.6606
1221.1	23.1903
1222.19	22.8714
1223.29	22.8283
1224.39	21.5226
1225.48	24.6587
1226.58	24.9191
1227.68	26.0035
1228.77	22.7967
1229.87	23.8515
1230.96	26.1777
1232.06	24.9802
1233.15	21.4428
1234.25	23.0977
1235.34	24.3246
1236.43	22.3023
1237.53	23.9688
1238.62	24.6584
1239.72	22.1044
1240.81	23.0107
1241.9	23.2583
1243	21.6473
1244.09	23.675
1245.18	25.6403
1246.27	22.6529
1247.37	23.6029
1248.46	22.2597
1249.55	25.6783
1250.64	20.5995
1251.74	24.4168
1252.83	22.2972
1253.92	24.2873
1255.01	28.2922
1256.1	23.5426
1257.19	24.85
1258.28	24.1487
1259.38	26.1335
1260.46	26.2935
1261.56	24.9645
1262.65	25.0898
1263.74	22.5065
1264.82	24.5017
1265.91	22.4899
1267	26.8426
1268.09	24.213
1269.18	25.259
1270.27	24.8654
1271.36	24.1539
1272.45	22.9203
1273.54	24.9318
1274.63	23.7246
1275.71	22.6903
1276.8	22.3665
1277.89	25.1156
1278.98	22.6236
1280.06	25.1962
1281.15	23.3132
1282.24	23.0461
1283.32	23.6964
1284.41	25.1836
1285.5	24.6785
1286.58	25.5388
1287.67	24.0785
1288.76	24.3348
1289.84	23.1175
1290.93	26.681
1292.01	23.0804
1293.1	21.8641
1294.18	23.7763
1295.27	24.8306
1296.35	22.1055
1297.44	23.7827
1298.52	25.2761
1299.6	24.9288
1300.69	25.9481
1301.77	26.3252
1302.86	23.955
1303.94	25.1419
1305.02	24.9019
1306.11	25.1977
1306.41	25.5
1307.5	24.5
1308.59	24
1309.68	23.5
1310.77	24
1311.85	23.5
1312.94	24
1314.03	25
1315.11	25
1316.2	24.5
1317.29	22
1318.37	23
1319.46	22
1320.55	25
1321.63	28
1322.72	24.5
1323.8	24
1324.89	19
1325.98	24
1327.06	27
1328.15	24
1329.23	19.5
1330.31	26.5
1331.4	24
1332.48	20.5
1333.57	21
1334.65	25
1335.74	25
1336.82	24
1337.9	19
1338.99	26
1340.07	26.5
1341.15	26
1342.24	27.5
1343.32	23.5
1344.4	19
1345.48	26.5
1346.56	22.5
1347.65	22
1348.73	23.5
1349.81	23.5
1350.89	23.5
1351.97	25
1353.05	26
1354.13	19
1355.21	23.5
1356.29	24
1357.37	24
1358.46	26
1359.54	24
1360.62	23
1361.69	26
1362.77	24
1363.85	25.5
1364.93	23
1366.01	22
1367.09	23
1368.17	25
1369.25	22
1370.33	23
1371.41	23
1372.48	25
1373.56	24
1374.64	24.5
1375.72	25.5
1376.79	23.5
1377.87	23
1378.95	22
1380.02	26
1381.1	25
1382.18	24
1383.25	21
1384.33	24
1385.4	26
1386.48	22.5
1387.56	25
1388.63	24
1389.71	27
1390.78	21.5
1391.86	25.5
1392.93	21
1394.01	25
1395.08	27.5
1396.15	26.5
1397.23	24.5
1398.3	29
1399.38	26.5
1400.45	22.5
1401.52	26
1402.6	23.5
1403.67	27
1404.74	26
1405.81	27
1406.89	23.5
1407.96	28
1409.03	26
1410.1	22
1411.17	28
1412.25	23
1413.32	28
1414.39	26.5
1415.46	22
1416.53	27
1417.6	27
1418.67	24
1419.74	26
1420.81	25
1421.88	25.5
1422.95	28
1424.02	20.5
1425.09	27
1426.16	29.5
1427.23	24
1428.3	26
1429.37	23
1430.44	23.5
1431.51	21.5
1432.58	26.5
1433.64	26
1434.71	20
1435.78	24
1436.85	25.5
1437.92	24
1438.98	24
1440.05	22
1441.12	20
1442.18	27.5
1443.25	25
1444.32	25
1445.38	26.5
1446.45	24
1447.52	24.5
1448.58	26
1449.65	26
1450.71	27
1451.78	28
1452.84	27.5
1453.91	28
1454.97	28
1456.04	25
1457.1	23
1458.17	29
1459.23	26
1460.3	25
1461.36	25.5
1462.42	27
1463.49	21
1464.55	25.5
1465.61	21.5
1466.68	25.5
1467.74	24.5
1468.8	25
1469.86	24
1470.93	24.5
1471.99	26
1473.05	23.5
1474.11	22.5
1475.17	26
1476.24	23.5
1477.3	23
1478.36	23.5
1479.42	25.5
1480.48	25
1481.54	27.5
1482.6	23
1483.66	25
1484.72	27
1485.78	23.5
1486.84	23
1487.9	26
1488.96	23.5
1490.02	26.5
1491.08	25
1492.14	25
1493.2	26.5
1494.26	27
1495.31	24
1496.37	23.5
1497.43	22.5
1498.49	29
1499.55	25
1500.6	25
1501.66	24.5
1502.72	25
1503.78	26.5
1504.83	24.5
1505.89	24.5
1506.95	20.5
1508	25
1509.06	28.5
1510.12	24
1511.17	22
1512.23	30
1513.28	27
1514.34	26
1515.39	27
1516.45	25
1517.5	25.5
1518.56	25.5
1519.61	22
1520.67	22.5
1521.72	23
1522.78	25
1523.83	25
1524.88	25
1525.94	22
1526.99	24
1528.05	28.5
1529.1	28
1530.15	24
1531.2	25.5
1532.26	31.5
1533.31	24
1534.36	24
1535.41	22.5
1536.47	22
1537.52	26
1538.57	26
1539.62	26
1540.67	27
1541.72	28.5
1542.77	25
1543.83	24
1544.88	25
1545.93	25
1546.98	25
1548.03	24.5
1549.08	26.5
1550.13	20.5
1551.18	23
1552.23	21.5
1553.28	25.5
1554.32	23.5
1555.37	24.5
1556.42	26
1557.47	29.5
1558.52	24.5
1559.57	25.5
1560.62	24
1561.67	28
1562.71	22
1563.76	24.5
1564.81	20.5
1565.86	26
1566.9	25
1567.95	29.5
1569	29.5
1570.04	26
1571.09	26
1572.14	23.5
1573.18	23
1574.23	23
1575.27	26.5
1576.32	25.5
1577.37	28.5
1578.41	23
1579.46	26.5
1580.5	25
1581.55	29.5
1582.59	24.5
1583.64	25.5
1584.68	22.5
1585.72	28.5
1586.77	25.5
1587.81	22.5
1588.86	22
1589.9	23.5
1590.94	23.5
1591.99	25
1593.03	27
1594.07	25
1595.12	21.5
1596.16	27.5
1597.2	25
1598.24	27
1599.29	22.5
1600.33	25
1601.37	27
1602.41	24.5
1603.45	22
1604.49	24
1605.53	27.5
1606.58	25
1607.62	23.5
1608.66	27
1609.7	25
1610.74	24
1611.78	25
1612.82	25
1613.86	22.5
1614.9	25.5
1615.94	24
1616.98	25
1618.02	28.5
1619.06	21
1620.09	23.5
1621.13	22
1622.17	25.5
1623.21	25
1624.25	25
1625.29	24.5
1626.32	27
1627.36	24.5
1628.4	25
1629.44	21.5
1630.47	24.5
1631.51	27.5
1632.55	22
1633.58	22.5
1634.62	25
1635.66	25
1636.69	24
1637.73	23.5
1638.77	22.5
1639.8	22
1640.84	25.5
1641.87	25
1642.91	23.5
1643.94	26.5
1644.98	25.5
1646.01	23.5
1647.05	24.5
1648.08	24
1649.12	22
1650.15	27
1651.18	26
1652.22	27
1653.25	25
1654.29	24
1655.32	23
1656.35	24
1657.39	26.5
1658.42	28
1659.45	25.5
1660.48	29
1661.52	22
1662.55	25.5
1663.58	23
1664.61	27
1665.64	29
1666.68	22.5
1667.71	27
1668.74	27
1669.77	26.5
1670.8	28
1671.83	26.5
1672.86	24
1673.89	22
1674.92	23.5
1675.95	28
1676.98	27.5
1678.01	25.5
1679.04	27.5
1680.07	26
1681.1	25.5
1682.13	26.5
1683.16	23
1684.19	22.5
1685.22	25
1686.25	26
1687.27	20.5
1688.3	24
1689.33	23
1690.36	28
1691.38	26
1692.41	25
1693.44	24
1694.47	30
1695.49	27
1696.52	27.5
1697.55	27.5
1698.57	21
1699.6	24
1700.63	24
1701.65	25.5
1702.68	26.5
1703.7	24.5
1704.73	23
1705.76	23.5
1706.78	22
1707.81	26
1708.83	29
1709.86	23
1710.88	28.5
1711.91	23
1712.93	21
1713.95	25
1714.98	22
1716	26.5
1717.03	20
1718.05	25
1719.07	22
1720.1	26.5
1721.12	27.5
1722.14	23
1723.16	25
1724.19	22.5
1725.21	26
1726.23	29
1727.25	23.5
1728.28	24
1729.3	25
1730.32	27
1731.34	29
1732.36	25
1733.38	25
1734.41	26
1735.43	24
1736.45	23
1737.47	28.5
1738.49	26
1739.51	25.5
1740.53	25
1741.55	24.5
1742.57	25
1743.59	23
1744.61	26
1745.63	23
1746.64	24
1747.66	28.5
1748.68	22.5
1749.7	25.5
1750.72	26
1751.74	26
1752.76	24
1753.77	23.5
1754.79	22.5
1755.81	23.5
1756.83	23
1757.84	23.5
1758.86	24
1759.88	24.5
1760.9	25
1761.91	25.5
1762.93	26
1763.95	24.5
1764.96	26
1765.98	24.5
1766.99	22
1768.01	24
1769.02	27.5
1770.04	25.5
1771.06	22
1772.07	25.5
1773.09	22
1774.1	25.5
1775.12	26.5
1776.13	22.5
1777.14	25
1778.16	24
1779.17	23.5
1780.19	21
1781.2	27
1782.21	25
1783.23	24
1784.24	27.5
1785.25	27.5
1786.27	22
1787.28	23.5
1788.29	23.5
1789.3	27.5
1790.32	20
1791.33	23.5
1792.34	23.5
1793.35	26.5
1794.36	24
1795.38	24.5
1796.39	22
1797.4	27
1798.41	21
1799.42	24
1800.43	23
1801.44	27.5
1802.45	26.5
1803.46	23.5
1804.47	25
1805.48	24
1806.49	24
1807.5	23.5
1808.51	24.5
1809.52	21.5
1810.53	24.5
1811.54	27.5
1812.55	22
1813.56	25.5
1814.57	24.5
1815.57	24.5
1816.58	23
1817.59	24.5
1818.6	23
1819.61	26.5
1820.61	24.5
1821.62	28
1822.63	23
1823.64	24
1824.64	27
1825.65	25.5
1826.66	28
1827.66	21.5
1828.67	24
1829.68	25.5
1830.68	27
1831.69	23.5
1832.69	25
1833.7	23
1834.7	24
1835.71	22
1836.71	20
1837.72	25.5
1838.72	28
1839.73	23
1840.73	26.5
1841.74	25.5
1842.74	23.5
1843.75	23
1844.75	26
1845.75	24.5
1846.76	24.5
1847.76	20
1848.76	26
1849.77	20.5
1850.77	22
1851.77	23.5
1852.78	22
1853.78	21
1854.78	27
1855.78	23
1856.78	20.5
1857.79	28
1858.79	23
1859.79	20
1860.79	25.5
1861.79	26.5
1862.79	28
1863.79	24.5
1864.79	29
1865.79	25
1866.8	17.5
1867.8	24.5
1868.8	22
1869.8	24.5
1870.8	28.5
1871.8	26.5
1872.8	23.5
1873.79	26
1874.79	25.5
1875.79	23
1876.79	20.5
1877.79	25
1878.79	24
1879.79	25
1880.79	19
1881.78	21
1882.78	26
1883.78	26.5
1884.78	21
1885.77	25.5
1886.77	25
1887.77	24
1888.77	24
1889.76	21
1890.76	26.5
1891.76	24
1892.75	26
1893.75	26.5
1894.75	25
1895.74	24
1896.74	19.5
1897.73	26
1898.73	25.5
1899.73	25.5
1900.72	26
1901.72	27
1902.71	24.5
1903.7	26
1904.7	24
1905.69	27
1906.69	27
1907.68	28.5
1908.68	27
1909.67	26
1910.66	20
1911.66	25.5
1912.65	23
1913.64	18
1914.64	26
1915.63	24
1916.62	24
1917.62	26.5
1918.61	27
1919.6	22
1920.59	26
1921.58	25
1922.58	23
1923.57	22.5
1924.56	23
1925.55	22
1926.54	25
1927.53	23
1928.52	28
1929.51	21
1930.51	21
1931.5	25
1932.49	25.5
1933.48	23.5
1934.47	24
1935.46	24.5
1936.45	25
1937.44	27
1938.42	24
1939.41	24
1940.4	23
1941.39	27
1942.38	27
1943.37	26
1944.36	19
1945.35	22.5
1946.33	24
1947.32	23.5
1948.31	25.75
1949.3	25
1950.29	23
1951.27	23
1952.26	26.5
1953.25	21
1954.23	20
1955.22	23.5
1956.21	25
1957.19	24
1958.18	28.5
1959.17	22
1960.15	25.5
1961.14	21
1962.13	22.5
1963.11	23.5
1964.1	24.5
1965.08	23
1966.07	25.5
1967.05	24
1968.04	23.5
1969.02	29.5
1970.01	25
1970.99	20
1971.97	25
1972.96	20
1973.94	25
1974.93	23
1975.91	21.5
1976.89	25.5
1977.88	25.5
1978.86	21
1979.84	26
1980.83	23.5
1981.81	26
1982.79	22
1983.77	26
1984.76	23
1985.74	25
1986.72	23
1987.7	27.5
1988.68	25.5
1989.67	23
1990.65	23
1991.63	25
1992.61	23.5
1993.59	25
1994.57	25.5
1995.55	27
1996.53	21.5
1997.51	27
1998.49	25.5
1999.47	23.5
2000.45	27
2001.43	20.5
2002.41	23
2003.39	27
2004.37	22.5
2005.35	24.5
2006.33	23
2007.31	26
2008.29	25.5
2009.26	22.5
2010.24	25.5
2011.22	23
2012.2	23
2013.18	25.5
2014.15	27.5
2015.13	22
2016.11	22
2017.09	23
2018.06	21.5
2019.04	23.5
2020.02	25.5
2021	24.5
2021.97	19.5
2022.95	22
2023.92	22
2024.9	24
2025.88	20
2026.85	23
2027.83	23
2028.8	25
2029.78	27.5
2030.75	27
2031.73	23
2032.7	21
2033.68	24.5
2034.65	24
2035.63	25
2036.6	24
2037.58	20.5
2038.55	25.5
2039.52	24
2040.5	25.5
2041.47	22
2042.45	23.5
2043.42	23
2044.39	25.5
2045.36	21
2046.34	24.5
2047.31	19
2048.28	21
2049.26	27
2050.23	22
2051.2	20
2052.17	25.5
2053.14	28
2054.12	26.5
2055.09	25
2056.06	23.5
2057.03	26
2058	23.5
2058.97	22
2059.94	21
2060.91	20
2061.88	24.5
2062.85	20
2063.82	24
2064.79	22
2065.76	23
2066.73	26.5
2067.7	23.5
2068.67	28.5
2069.64	24.5
2070.61	21
2071.58	25.5
2072.55	23.5
2073.52	26
2074.49	24
2075.45	22.5
2076.42	24
2077.39	25
2078.36	23
2079.33	21.5
2080.29	19
2081.26	22
2082.23	24.5
2083.2	21
2084.16	24
2085.13	23.5
2086.1	22
2087.06	19.5
2088.03	22.5
2089	26.5
2089.96	28.5
2090.93	22
2091.89	24
2092.86	23
2093.83	25.5
2094.79	25
2095.76	25.5
2096.72	24.5
2097.69	26
2098.65	25.5
2099.62	23
2100.58	24.5
2101.55	22.5
2102.51	22
2103.47	28
2104.44	23.5
2105.4	30
2106.36	22.5
2107.33	25
2108.29	24.5
2109.25	24.5
2110.22	23
2111.18	22
2112.14	23.5
2113.11	23.5
2114.07	23.5
2115.03	23
2115.99	26.5
2116.96	28.5
2117.92	24
2118.88	19
2119.84	25.5
2120.8	23.5
2121.76	25.5
2122.72	23.5
2123.68	22
2124.65	20
2125.61	22
2126.57	23
2127.53	24
2128.49	23
2129.45	23.5
2130.41	23.5
2131.37	22.5
2132.33	25.5
2133.29	22
2134.25	19.5
2135.21	26
2136.17	22.5
2137.12	21
2138.08	26.5
2139.04	24
2140	22
2140.96	20.5
2141.92	19
2142.88	25.4778
2143.83	21.9882
2144.79	21.1159
2145.75	24.0527
2146.71	24.872
2147.66	24.7897
2148.62	23.1497
2149.58	23.4996
2150.53	24.1578
2151.49	23.5144
2152.45	24.6042
2153.4	23.7209
2154.36	25.0146
2155.32	23.3829
2156.27	24.5836
2157.23	23.4773
2158.19	21.6437
2159.14	20.6183
2160.1	22.365
2161.05	22.5364
2162.01	21.162
2162.96	24.9186
2163.92	23.9843
2164.87	21.653
2165.83	23.6834
2166.78	22.6037
2167.73	23.3604
2168.69	22.2993
2169.64	22.8415
2170.6	24.9551
2171.55	23.7162
2172.5	22.8471
2173.46	25.5603
2174.41	20.6309
2175.36	22.5168
2176.32	23.3107
2177.27	23.6327
2178.22	22.8722
2179.18	22.1391
2180.13	24.7393
2181.08	20.8157
2182.03	20.6611
2182.98	24.1901
2183.94	25.2475
2184.89	24.7967
2185.84	21.1365
2186.79	22.4451
2187.74	22.8077
2188.69	20.7901
2189.64	16.7259
2190.6	25.0898
2191.55	20.3017
2192.5	23.7412
2193.45	23.7357
2194.4	24.1565
2195.35	20.4612
2196.3	20.9055
2197.25	21.3347
2198.2	21.8304
2199.15	22.6485
2200.1	23.4844
2201.04	23.0971
2201.99	20.156
2202.94	23.0377
2203.89	22.0356
2204.84	25.3455
2205.79	21.9953
2206.74	24.4297
2207.69	19.0735
2208.63	24.5261
2209.58	23.4362
2210.53	19.1108
2211.48	21.5923
2212.43	21.084
2213.37	22.9662
2214.32	19.8463
2215.27	20.1063
2216.21	21.6781
2217.16	22.2016
2218.11	21.9744
2219.05	21.5329
2220	21.962
2220.95	22.4943
2221.89	24.7811
2222.84	20.5631
2223.78	21.95
2224.73	24.9387
2225.68	21.4393
2226.62	22.8054
2227.57	21.8287
2228.51	21.8475
2229.46	21.882
2230.4	26.1449
2231.35	23.7307
2232.29	24.5136
2233.24	24.4028
2234.18	21.0162
2235.12	21.4162
2236.07	21.4563
2237.01	23.5726
2237.95	24.7563
2238.9	21.9388
2239.84	21.7557
2240.06	22
2241.01	23.5
2241.96	21.5
2242.91	21
2243.86	22.5
2244.8	22
2245.75	22.5
2246.7	24.5
2247.65	22
2248.59	21
2249.54	22
2250.49	23
2251.43	23
2252.38	24
2253.33	22
2254.27	20
2255.22	22
2256.16	27.5
2257.11	21.5
2258.06	21
2259	17
2259.95	23.5
2260.89	22
2261.84	20.5
2262.78	23.5
2263.73	23
2264.67	24.5
2265.62	24.5
2266.56	24
2267.5	23
2268.45	26.5
2269.39	23
2270.34	21
2271.28	23
2272.22	25
2273.17	21.5
2274.11	22
2275.05	23.5
2276	23
2276.94	21
2277.88	25.5
2278.82	22
2279.77	22
2280.71	23
2281.65	22
2282.59	18.5
2283.53	21.5
2284.48	21.5
2285.42	21
2286.36	23.5
2287.3	22.5
2288.24	25
2289.18	25.5
2290.12	23
2291.06	22
2292	26.5
2292.94	20
2293.89	21
2294.83	23
2295.77	23
2296.71	24
2297.65	26.5
2298.58	23.5
2299.52	23.5
2300.46	23
2301.4	19
2302.34	25.5
2303.28	25
2304.22	27
2305.16	23.5
2306.1	23
2307.03	21.5
2307.97	24
2308.91	23
2309.85	20
2310.79	20
2311.72	23
2312.66	20
2313.6	19.5
2314.54	19.5
2315.47	22
2316.41	26
2317.35	22.5
2318.28	18.5
2319.22	18.5
2320.16	22.5
2321.09	24
2322.03	24
2322.96	21
2323.9	22.5
2324.84	27
2325.77	23
2326.71	23
2327.64	22.5
2328.58	21.5
2329.51	23.5
2330.45	22.5
2331.38	24
2332.32	21
2333.25	28
2334.18	28.5
2335.12	24
2336.05	23
2336.99	23.5
2337.92	19
2338.85	22
2339.79	25
2340.72	27
2341.65	26
2342.59	17.5
2343.52	22
2344.45	23.5
2345.39	21.5
2346.32	25.5
2347.25	22.5
2348.18	21
2349.11	20
2350.05	23.5
2350.98	25
2351.91	22.5
2352.84	23.5
2353.77	22
2354.7	32.5
2355.64	21
2356.57	24
2357.5	23.5
2358.43	24
2359.36	23
2360.29	23.5
2361.22	26.5
2362.15	22
2363.08	19
2364.01	24
2364.94	23
2365.87	19
2366.8	22.5
2367.73	22.5
2368.66	23
2369.58	25.5
2370.51	26
2371.44	20
2372.37	25
2373.3	24.5
2374.23	22
2375.16	25.5
2376.08	22
2377.01	20
2377.94	23
2378.87	21
2379.8	25.5
2380.72	27.5
2381.65	21.5
2382.58	23
2383.5	23.5
2384.43	22
2385.36	27
2386.28	24.5
2387.21	24
2388.14	24
2389.06	24
2389.99	22.5
2390.91	28
2391.84	21.5
2392.77	21
2393.69	24.5
2394.62	21
2395.54	21.5
2396.47	24.5
2397.39	19
2398.32	25
2399.24	24
2400.16	25.5
2401.09	26
2402.01	19.5
2402.94	24
2403.86	24.5
2404.78	26.5
2405.71	26
2406.63	23
2407.56	24
2408.48	27
2409.4	25
2410.32	26
2411.25	23
2412.17	23.5
2413.09	25.5
2414.02	23.5
2414.94	25.5
2415.86	24.5
2416.78	22.5
2417.7	25.5
2418.63	26
2419.55	26
2420.47	25
2421.39	26
2422.31	23.5
2423.23	20.5
2424.15	27
2425.07	21.5
2425.99	22
2426.92	21
2427.84	23
2428.76	26
2429.68	26
2430.59	25.5
2431.51	25.5
2432.43	21
2433.35	22
2434.27	20
2435.19	25.5
2436.11	22
2437.03	26.5
2437.95	24.5
2438.87	24
2439.79	25
2440.71	24
2441.62	23.5
2442.54	24.5
2443.46	22.5
2444.38	20
2445.3	22.5
2446.21	22.5
2447.13	24
2448.05	23.5
2448.97	20.5
2449.88	26
2450.8	22.5
2451.72	26
2452.63	26
2453.55	29
2454.47	25.5
2455.38	22.5
2456.3	21
2457.21	23.5
2458.13	26
2459.05	24
2459.96	24
2460.88	22.5
2461.79	24
2462.71	27.5
2463.62	25
2464.54	26.5
2465.45	23
2466.37	22
2467.28	21.5
2468.2	24
2469.11	23.5
2470.02	25
2470.94	25.5
2471.85	21
2472.77	24.5
2473.68	23
2474.59	21
2475.51	22
2476.42	27.5
2477.33	25
2478.25	26
2479.16	24
2480.07	23
2480.98	25
2481.9	21
2482.81	25
2483.72	22
2484.63	28.5
2485.55	25
2486.46	21
2487.37	25
2488.28	24.5
2489.19	21.5
2490.1	23.5
2491.01	21.5
2491.92	25
2492.83	24.5
2493.74	25.5
2494.66	26
2495.57	26.5
2496.48	24
2497.39	22
2498.3	22
2499.21	21
2500.12	22.5
2501.03	26
2501.93	30
2502.84	27
2503.75	26.5
2504.66	26.5
2505.57	20.5
2506.48	23
2507.39	26
2508.3	23.5
2509.21	27
2510.11	23
2511.02	28
2511.93	22
2512.84	21
2513.75	20.5
2514.65	24.5
2515.56	22.5
2516.47	25
2517.37	25
2518.28	25
2519.19	23
2520.09	25
2521	20
2521.91	26.5
2522.81	27.5
2523.72	25
2524.63	21
2525.53	24.5
2526.44	28
2527.34	26.5
2528.25	23.5
2529.16	24.5
2530.06	23
2530.97	22.5
2531.87	28
2532.78	25.5
2533.68	24
2534.58	25
2535.49	25
2536.39	27
2537.3	25
2538.2	24.5
2539.11	25.5
2540.01	24.5
2540.91	21
2541.82	21.5
2542.72	22
2543.62	24.5
2544.53	24.5
2545.43	20.5
2546.33	27.5
2547.23	20.5
2548.14	24
2549.04	20.5
2549.94	27
2550.84	22
2551.75	24
2552.65	24.5
2553.55	24
2554.45	24
2555.35	23
2556.26	21.5
2557.16	22.5
2558.06	23
2558.96	27
2559.86	23
2560.76	25.5
2561.66	26
2562.56	28
2563.46	25.5
2564.36	25
2565.26	26
2566.16	26
2567.06	25.5
2567.96	26
2568.86	27.5
2569.76	25
2570.66	20
2571.56	22
2572.46	25
2573.36	22.5
2574.26	22
2575.16	27.5
2576.05	23
2576.95	26
2577.85	24
2578.75	25
2579.65	23
2580.54	26.5
2581.44	21.5
2582.34	23.5
2583.24	25
2584.13	23
2585.03	19
2585.93	26.5
2586.83	25.5
2587.72	26.5
2588.62	25
2589.52	26.5
2590.41	24
2591.31	24.5
2592.2	25
2593.1	20
2594	25
2594.89	26.5
2595.79	22
2596.68	24
2597.58	25.5
2598.47	24.5
2599.37	25.5
2600.26	25.5
2601.16	27.5
2602.05	26
2602.95	22
2603.84	27
2604.74	23
2605.63	22
2606.52	19.5
2607.42	27.5
2608.31	23
2609.21	27.5
2610.1	23.5
2610.99	24
2611.89	24
2612.78	24.5
2613.67	24.5
2614.56	26
2615.46	22
2616.35	25
2617.24	25
2618.13	21.5
2619.03	22
2619.92	26
2620.81	22
2621.7	23
2622.59	24.5
2623.49	24.5
2624.38	22.5
2625.27	18
2626.16	21
2627.05	21
2627.94	23
2628.83	23
2629.72	23
2630.61	21
2631.5	24.5
2632.39	26
2633.28	30
2634.17	26.5
2635.06	23
2635.95	24.5
2636.84	24
2637.73	28.5
2638.62	23
2639.51	25.5
2640.4	26.5
2641.29	23.5
2642.18	25
2643.07	24
2643.96	23
2644.84	28
2645.73	23.5
2646.62	23
2647.51	26.5
2648.4	27.5
2649.28	28.5
2650.17	27.5
2651.06	22
2651.95	23
2652.83	25.5
2653.72	22.5
2654.61	23
2655.49	24.5
2656.38	25.5
2657.27	24.5
2658.16	23
2659.04	22
2659.93	26.5
2660.81	26.5
2661.7	24
2662.59	24.5
2663.47	23
2664.36	21
2665.24	26.5
2666.13	26
2667.01	22.5
2667.9	22
2668.78	22
2669.67	23.5
2670.55	23.5
2671.44	23.5
2672.32	20
2673.21	24
2674.09	22
2674.97	26
2675.86	22
2676.74	22
2677.62	28.5
2678.51	25.5
2679.39	25
2680.27	25
2681.16	26.5
2682.04	23
2682.92	25.5
2683.81	25
2684.69	21
2685.57	23.5
2686.45	23.5
2687.34	23.5
2688.22	25
2689.1	21
2689.98	22
2690.86	22.5
2691.75	23
2692.63	25
2693.51	20
2694.39	21.5
2695.27	22.5
2696.15	25
2697.03	25.5
2697.91	23
2698.79	23.5
2699.67	26
2700.55	22
2701.43	23.5
2702.31	23.5
2703.19	25.5
2704.07	25
2704.95	23
2705.83	26.5
2706.71	27
2707.59	22.5
2708.47	24.5
2709.35	27
2710.23	23
2711.11	22
2711.99	26.5
2712.86	25
2713.74	25
2714.62	22.5
2715.5	24.5
2716.38	22
2717.26	21.5
2718.13	24.5
2719.01	27
2719.89	25
2720.77	20
2721.64	25
2722.52	23
2723.4	23.5
2724.27	25.5
2725.15	24.5
2726.03	26
2726.9	27
2727.78	27.5
2728.66	22.5
2729.53	24.5
2730.41	26.5
2731.28	27
2732.16	25
2733.03	25
2733.91	24.5
2734.79	21
2735.66	25
2736.54	22.5
2737.41	24
2738.29	23
2739.16	22.5
2740.03	20
2740.91	27
2741.78	25.5
2742.66	24.5
2743.53	22
2744.41	27.5
2745.28	22.5
2746.15	25.5
2747.03	26.5
2747.9	28
2748.77	23.5
2749.65	26
2750.52	25
2751.39	23
2752.27	23.5
2753.14	22
2754.01	27.5
2754.88	22.5
2755.75	26.5
2756.63	23
2757.5	23
2758.37	22.5
2759.24	23.5
2760.11	22
2760.99	25
2761.86	25.5
2762.73	23.5
2763.6	24
2764.47	23.5
2765.34	27
2766.21	23
2767.08	25.5
2767.95	27.5
2768.82	25
2769.69	18
2770.56	21.5
2771.43	23.5
2772.3	22
2773.17	21.5
2774.04	24
2774.91	22.5
2775.78	25
2776.65	24
2777.52	24
2778.39	19
2779.26	24
2780.13	22
2780.99	24.5
2781.86	26
2782.73	22.5
2783.6	25
2784.47	25.5
2785.34	23
2786.2	27
2787.07	22
2787.94	23.5
2788.81	25
2789.67	27
2790.54	25
2791.41	24
2792.27	20
2793.14	20
2794.01	25
2794.87	23
2795.74	24
2796.61	23
2797.47	25
2798.34	23.5
2799.21	22
2800.07	26
2800.94	25.5
2801.8	25
2802.67	22
2803.53	24.5
2804.4	27
2805.26	20.5
2806.13	25.5
2806.99	23.5
2807.86	24
2808.72	22.5
2809.59	24.5
2810.45	25
2811.32	24.5
2812.18	25
2813.04	24.5
2813.91	23.5
2814.77	27.5
2815.64	23
2816.5	23
2817.36	26
2818.22	21.5
2819.09	24
2819.95	26.5
2820.81	24
2821.68	24
2822.54	27
2823.4	24.5
2824.26	23
2825.13	23.5
2825.99	23
2826.85	27.5
2827.71	26
2828.57	23
2829.44	25
2830.3	26
2831.16	22
2832.02	22
2832.88	23
2833.74	24
2834.6	28
2835.46	20.5
2836.32	27
2837.18	21.5
2838.04	25
2838.9	21
2839.76	25
2840.62	24
2841.48	28
2842.34	23
2843.2	25
2844.06	25.5
2844.92	23.5
2845.78	23.5
2846.64	25.5
2847.5	21.5
2848.36	22
2849.22	22.5
2850.08	24
2850.93	27
2851.79	28
2852.65	27
2853.51	23.5
2854.37	25.5
2855.22	22.5
2856.08	19
2856.94	21.5
2857.8	22
2858.65	22
2859.51	28.5
2860.37	28
2861.23	24
2862.08	23
2862.94	28
2863.79	25.5
2864.65	24
2865.51	24
2866.36	23
2867.22	26
2868.08	28.5
2868.93	26
2869.79	22
2870.64	24
2871.5	27
2872.35	28
2873.21	19
2874.06	25.5
2874.92	26
2875.77	25.5
2876.63	25
2877.48	27.5
2878.34	29
2879.19	24
2880.05	27
2880.9	24
2881.76	25.5
2882.61	29
2883.46	24.5
2884.32	25
2885.17	21.5
2886.02	26
2886.88	27
2887.73	29
2888.58	26
2889.44	30.5
2890.29	28.5
2891.14	29.5
2891.99	35
2892.85	28
2893.7	30
2894.55	30
2895.4	26
2896.25	32
2897.11	40.5
2897.96	31
2898.81	38
2899.66	37.5
2900.51	38
2901.36	39
2902.21	36
2903.07	36.5
2903.92	35.5
2904.77	41.5
2905.62	42.5
2906.47	40
2907.32	44
2908.17	37.5
2909.02	35
2909.87	39
2910.72	38.5
2911.57	35.5
2912.42	37
2913.27	35.5
2914.12	33.5
2914.97	34
2915.81	28.5
2916.66	30
2917.51	28
2918.36	27.5
2919.21	27
2920.06	29
2920.91	26
2921.75	27
2922.6	29
2923.45	24.5
2924.3	23
2925.15	26
2925.99	26
2926.84	24.5
2927.69	27.5
2928.54	21.5
2929.38	26.5
2930.23	24
2931.08	25
2931.92	28
2932.77	27.5
2933.62	27
2934.46	26
2935.31	28
2936.16	21
2937	24.5
2937.85	23
2938.69	24
2939.54	25.5
2940.38	24.5
2941.23	28.5
2942.08	23.5
2942.92	28
2943.77	26
2944.61	22.5
2945.46	22.5
2946.3	22
2947.15	24.5
2947.99	26
2948.83	28
2949.68	25
2950.52	23.5
2951.37	28
2952.21	29
2953.05	25
2953.9	25
2954.74	25
2955.58	30.5
2956.43	31
2957.27	26.5
2958.11	32
2958.96	26
2959.8	31
2960.64	27.5
2961.48	30
2962.33	28.5
2963.17	27.5
2964.01	27.5
2964.85	30.5
2965.69	30.5
2966.54	27.5
2967.38	26.5
2968.22	28.5
2969.06	30
2969.9	31
2970.74	25
2971.58	30.4903
2972.43	30.9029
2973.27	31.8953
2974.11	29.9632
2974.95	26.4304
2975.79	22.5102
2976.63	26.9146
2977.47	24.9752
2978.31	26.4634
2979.15	24.6203
2979.99	22.6617
2980.83	24.7762
2981.67	24.2206
2982.51	23.6989
2983.35	27.8291
2984.19	23.2812
2985.03	28.0754
2985.86	21.4827
2986.7	23.3298
2987.54	24.1893
2988.38	27.3815
2989.22	24.2457
2990.06	23.822
2990.9	24.0654
2991.73	21.1653
2992.57	23.5188
2993.41	25.3221
2994.25	21.7237
2995.09	22.9215
2995.92	22.2546
2996.76	23.9241
2997.6	24.5665
2998.44	23.8879
2999.27	23.2419
3000.11	21.0837
3000.95	20.5556
3001.78	22.9345
3002.62	24.198
3003.46	24.0104
3004.29	21.9325
3005.13	21.0205
3005.96	22.0686
3006.8	23.1735
3007.64	23.4375
3008.47	24.4851
3009.31	25.0081
3010.14	22.1604
3010.98	21.757
3011.81	22.6344
3012.65	21.9282
3013.48	23.8133
3014.32	22.7833
3015.15	22.5833
3015.99	23.9922
3016.82	23.0401
3017.66	20.7045
3018.49	21.2201
3019.33	19.8039
3020.16	21.7823
3020.99	22.8121
3021.83	21.2146
3022.66	22.0373
3023.5	21.7107
3024.33	21.9587
3025.16	22.2881
3026	23.2337
3026.83	21.4899
3027.66	22.0498
3028.49	21.3971
3029.33	23.2705
3030.16	22.1578
3030.99	21.8502
3031.83	23.4669
3032.66	23.5297
3033.49	21.6468
3034.32	21.5722
3035.15	23.2046
3035.99	23.1549
3036.82	23.8317
3037.65	22.8883
3038.48	22.4669
3039.31	23.3015
3040.14	22.3152
3040.97	22.2708
3041.81	21.1421
3042.64	21.6481
3043.47	23.5536
3044.3	22.8394
3045.13	23.2435
3045.96	22.0272
3046.79	22.4991
3047.62	22.0236
3048.45	21.854
3049.28	20.61
3050.11	20.2279
3050.94	22.0734
3051.77	23.2433
3052.6	23.4588
3053.43	23.3283
3054.26	22.3531
3055.08	21.3563
3055.91	21.8464
3056.74	22.4351
3057.26	21.5
3058.09	24
3058.92	24
3059.76	24
3060.59	24.5
3061.42	19.5
3062.25	23
3063.09	22
3063.92	24.5
3064.75	26.5
3065.58	25.5
3066.42	25
3067.25	23.5
3068.08	22
3068.91	21.5
3069.74	24
3070.57	21.5
3071.41	19.5
3072.24	23.5
3073.07	19
3073.9	24
3074.73	24.5
3075.56	23.5
3076.39	23
3077.22	23
3078.05	22.5
3078.88	21.5
3079.71	26
3080.54	26
3081.37	23
3082.2	26.5
3083.03	24.5
3083.86	21.5
3084.69	24
3085.52	25.5
3086.35	26
3087.18	22
3088.01	20
3088.84	22
3089.67	22.5
3090.5	23.5
3091.32	24.5
3092.15	21.5
3092.98	22
3093.81	20.5
3094.64	23.5
3095.47	23
3096.29	25
3097.12	21
3097.95	25
3098.78	21
3099.6	24
3100.43	23
3101.26	24.5
3102.09	24.5
3102.91	22.5
3103.74	26.5
3104.57	24.5
3105.39	23
3106.22	19
3107.05	23.5
3107.87	21.5
3108.7	26
3109.52	28
3110.35	21
3111.18	24
3112	18.5
3112.83	26.5
3113.65	25
3114.48	26.5
3115.3	25.5
3116.13	23
3116.95	22.5
3117.78	25
3118.6	24
3119.43	23.5
3120.25	25.5
3121.08	23.5
3121.9	23
3122.72	26
3123.55	25
3124.37	22.5
3125.2	22
3126.02	24
3126.84	22
3127.67	25
3128.49	26
3129.31	27
3130.14	22.5
3130.96	19.5
3131.78	26
3132.61	23
3133.43	23.5
3134.25	24
3135.07	23
3135.89	22.5
3136.72	26.5
3137.54	20
3138.36	26
3139.18	22.5
3140	27
3140.83	27.5
3141.65	23.5
3142.47	23
3143.29	20
3144.11	24
3144.93	21
3145.75	21.5
3146.57	18.5
3147.4	21.5
3148.22	22.5
3149.04	24
3149.86	22
3150.68	26
3151.5	23.5
3152.32	23.5
3153.14	21
3153.96	23
3154.78	26.5
3155.59	26
3156.42	25
3157.23	24.5
3158.05	23
3158.87	25
3159.69	24
3160.51	22.5
3161.33	24
3162.15	18.5
3162.97	19.5
3163.78	22
3164.6	22.5
3165.42	24.5
3166.24	23
3167.06	21
3167.87	23.5
3168.69	26.5
3169.51	23
3170.33	20.5
3171.14	22.5
3171.96	23
3172.78	20.5
3173.6	24
3174.41	27.5
3175.23	24
3176.05	23
3176.86	22
3177.68	23.5
3178.5	24
3179.31	23
3180.13	24
3180.94	22.5
3181.76	26.5
3182.58	21.5
3183.39	22
3184.21	21
3185.02	24.5
3185.84	23
3186.65	19
3187.47	25
3188.28	25.5
3189.1	23.5
3189.91	23
3190.73	21
3191.54	26.5
3192.36	21.5
3193.17	22.5
3193.98	25
3194.8	23
3195.61	23
3196.43	27.5
3197.24	22.5
3198.05	25
3198.87	24
3199.68	25
3200.49	24
3201.31	22.5
3202.12	23
3202.93	23.5
3203.75	26
3204.56	18.5
3205.37	22.5
3206.18	22
3207	28
3207.81	24.5
3208.62	21.5
3209.43	22
3210.24	25.5
3211.06	23
3211.87	26.5
3212.68	25
3213.49	23
3214.3	27
3215.11	25
3215.92	22.5
3216.73	21.5
3217.55	22
3218.36	23
3219.17	21.5
3219.98	27.5
3220.79	22
3221.6	26.5
3222.41	22
3223.22	23.5
3224.03	22
3224.84	21.5
3225.65	21
3226.46	29
3227.27	26.5
3228.08	25
3228.89	23
3229.7	22
3230.5	26.5
3231.31	24
3232.12	22
3232.93	21
3233.74	25.5
3234.55	21.5
3235.36	24
3236.16	20
3236.97	21.5
3237.78	18.5
3238.59	24.5
3239.4	25.5
3240.2	26.5
3241.01	22
3241.82	26.5
3242.63	26
3243.43	21
3244.24	22
3245.05	21.5
3245.85	25
3246.66	23
3247.47	22
3248.27	27.5
3249.08	21
3249.89	21.5
3250.69	24
3251.5	26.5
3252.31	24.5
3253.11	26
3253.92	19
3254.72	21
3255.53	24
3256.33	20
3257.14	23
3257.94	26.5
3258.75	22
3259.55	25.5
3260.36	26
3261.16	23
3261.97	24
3262.77	23.5
3263.58	23.5
3264.38	23.5
3265.19	27.5
3265.99	20
3266.79	21
3267.6	26
3268.4	28
3269.21	24
3270.01	23
3270.81	24
3271.62	24.5
3272.42	24.5
3273.22	27
3274.03	21.5
3274.83	25
3275.63	21
3276.43	26
3277.24	25.5
3278.04	21
3278.84	25.5
3279.64	22
3280.45	24.5
3281.25	24
3282.05	26
3282.85	22
3283.65	28.5
3284.45	23.5
3285.26	22
3286.06	23
3286.86	24
3287.66	28.5
3288.46	22
3289.26	29
3290.06	20.5
3290.86	21
3291.66	27
3292.46	22.5
3293.26	24.5
3294.06	26.5
3294.86	23
3295.66	24
3296.46	23.5
3297.26	21
3298.06	22
3298.86	22.5
3299.66	23.5
3300.46	26.5
3301.26	24
3302.06	24
3302.86	21
3303.66	25.5
3304.46	21.5
3305.25	24
3306.05	25
3306.85	25
3307.65	23
3308.45	24
3309.25	25.5
3310.04	25
3310.84	24
3311.64	25
3312.44	23
3313.23	22.5
3314.03	27
3314.83	25
3315.63	25.5
3316.42	24
3317.22	24
3318.02	22
3318.81	25
3319.61	23.5
3320.41	27.5
3321.2	23
3322	25
3322.8	25.5
3323.59	24
3324.39	20.5
3325.18	26
3325.98	20
3326.78	23.5
3327.57	23
3328.37	24.5
3329.16	22
3329.96	24.5
3330.75	23
3331.55	26.5
3332.34	21
3333.14	22
3333.93	23.5
3334.73	26
3335.52	22
3336.31	26.5
3337.11	25
3337.9	22
3338.7	22.5
3339.49	25
3340.28	21.5
3341.08	28
3341.87	25
3342.66	28
3343.46	26
3344.25	23.5
3345.04	25
3345.84	25
3346.63	25.5
3347.42	25
3348.22	22
3349.01	21
3349.8	24.5
3350.59	22
3351.39	23.5
3352.18	26.5
3352.97	24.5
3353.76	25
3354.55	24
3355.35	23
3356.14	23
3356.93	20.5
3357.72	22
3358.51	22.5
3359.3	21.5
3360.09	19.5
3360.88	25.5
3361.67	23
3362.46	25
3363.26	28
3364.05	17
3364.84	23
3365.63	26
3366.42	22
3367.21	23.5
3368	25
3368.79	24.5
3369.58	22
3370.37	24.5
3371.15	23
3371.94	25.5
3372.73	27
3373.52	27
3374.31	23
3375.1	23
3375.89	24
3376.68	25.5
3377.47	24
3378.26	24
3379.04	26.5
3379.83	27.5
3380.62	29
3381.41	26.5
3382.2	22.5
3382.98	27
3383.77	19.5
3384.56	23
3385.35	25
3386.13	23.5
3386.92	24
3387.71	22
3388.5	21
3389.28	24
3390.07	27.5
3390.86	21
3391.64	26
3392.43	24.5
3393.22	21.5
3394	24.5
3394.79	27.5
3395.57	23.5
3396.36	26
3397.15	27
3397.93	24
3398.72	21.5
3399.5	24.5
3400.29	22
3401.07	26.5
3401.86	27
3402.65	24
3403.43	24
3404.21	24.5
3405	24.5
3405.78	21.5
3406.57	23
3407.35	24
3408.14	26
3408.92	22
3409.71	29.5
3410.49	20.5
3411.27	25.5
3412.06	24
3412.84	25.5
3413.62	28
3414.41	25.5
3415.19	25
3415.97	24
3416.76	23.5
3417.54	25
3418.32	22
3419.11	24.5
3419.89	22
3420.67	22
3421.46	25
3422.24	23
3423.02	25.5
3423.8	27
3424.58	24.5
3425.37	28
3426.15	23.5
3426.93	24
3427.71	27.5
3428.49	23.5
3429.27	22
3430.05	25.5
3430.84	27
3431.62	24
3432.4	23.5
3433.18	22.5
3433.96	20
3434.74	24
3435.52	26.5
3436.3	24.5
3437.08	22
3437.86	25
3438.64	24
3439.42	22.5
3440.2	24.5
3440.98	24.5
3441.76	25.5
3442.54	20
3443.32	27.5
3444.1	23.5
3444.88	24.5
3445.66	24.5
3446.44	20.5
3447.22	27
3448	27.5
3448.77	24.5
3449.55	25.5
3450.33	21
3451.11	27
3451.89	21
3452.67	24
3453.45	23
3454.22	23.5
3455	22
3455.78	21
3456.56	21
3457.33	26.5
3458.11	23
3458.89	25
3459.67	22.5
3460.44	25.5
3461.22	23.5
3462	26.5
3462.77	17
3463.55	25
3464.33	24.5
3465.1	25.5
3465.88	26
3466.66	24
3467.43	27
3468.21	20.5
3468.98	21.5
3469.76	24
3470.54	27
3471.31	25
3472.09	24
3472.86	23
3473.64	27
3474.41	22.5
3475.19	23
3475.96	22.5
3476.74	26.5
3477.51	21.5
3478.29	26.5
3479.06	26.5
3479.84	21.5
3480.61	24.5
3481.39	24
3482.16	26.5
3482.93	24.5
3483.71	23
3484.48	22.5
3485.25	21
3486.03	23
3486.8	25
3487.57	28
3488.35	22.5
3489.12	26.5
3489.89	22.5
3490.67	23
3491.44	28
3492.21	24
3492.99	23.5
3493.76	24
3494.53	26
3495.3	24.5
3496.08	21.5
3496.85	20
3497.62	23.5
3498.39	25.5
3499.16	23.5
3499.93	25.5
