#Acq. time (s)=	5
#Accumulations=	5
#Range (cm-¹)=	100...3500
#Windows=	4
#Autofocus=	Off
#AutoExposure=	Off
#Spike filter=	Multiple accum.
#Delay time (s)=	0
#Binning=	1
#Readout mode=	Signal
#DeNoise=	Off
#ICS correction=	Off
#Dark correction=	Off
#Inst. Process=	Off
#Instrument=	LabRAM HR Evol
#Detector=	Syncerity OE
#Objective=	x100_VIS
#Grating=	600 (500nm)
#ND Filter=	25%
#Laser=	633nm_Edge
#Hole=	100.021
#Range=	Visible
#Project=	verificaciones
#Sample=	at2
#Site=	plain
#Title=	bolusat2plain
#Remark=	
#Date=	13.01.2026 15:18
#Acquired=	13.01.2026 15:18:42
100.692	25
101.975	26
103.258	28
104.542	31
105.824	25
107.107	28
108.39	26.5
109.672	29.5
110.954	26.5
112.236	25
113.519	25
114.8	27
116.081	28.5
117.362	29
118.643	28
119.924	25
121.204	26
122.484	28
123.764	25.5
125.044	28.5
126.323	29
127.603	22.5
128.882	28
130.161	26
131.438	24
132.716	29
133.995	28
135.273	27
136.55	26.5
137.828	27.5
139.106	29
140.383	26
141.66	26
142.937	26.5
144.213	33
145.488	30.5
146.764	29
148.04	30
149.316	26
150.592	28.5
151.867	28.5
153.141	27
154.416	31
155.69	29.5
156.965	28
158.239	28.5
159.512	28
160.786	29
162.059	25
163.333	27.5
164.605	28
165.878	23.5
167.15	32.5
168.423	30.5
169.694	31
170.966	30
172.238	26
173.51	26
174.78	24.5
176.052	30.5
177.323	25
178.592	29.5
179.863	30
181.134	31
182.403	31
183.673	29.5
184.943	26.5
186.211	31.5
187.481	27
188.749	30
190.018	26
191.287	31.5
192.554	29
193.822	30
195.089	34
196.357	32
197.625	28
198.891	28
200.159	26.5
201.425	32.5
202.692	29
203.957	30
205.224	31
206.489	27
207.755	33
209.02	28.5
210.286	30.5
211.55	26
212.815	29
214.079	27
215.344	29
216.607	27.5
217.872	26.5
219.135	30
220.399	29
221.662	25.5
222.924	28
224.187	31.5
225.449	30
226.713	31
227.974	27.5
229.235	26.5
230.498	28.5
231.759	28
233.019	27
234.281	30.5
235.542	27.5
236.802	28
238.063	26
239.323	27
240.582	28
241.843	25
243.102	29.5
244.361	26.5
245.621	25.5
246.879	24.5
248.138	26
249.396	26
250.655	25.5
251.913	30.5
253.17	27
254.427	21.5
255.686	28
256.943	24
258.199	29
259.456	26
260.712	26
261.969	28.5
263.225	24.5
264.481	22
265.736	30
266.991	31
268.246	27
269.502	29.5
270.757	27
272.011	24
273.265	28
274.519	30.5
275.773	29
277.027	26
278.28	26.5
279.533	25
280.786	23.5
282.04	29
283.293	28
284.545	26
285.798	28.5
287.049	24.5
288.301	29.5
289.553	27
290.804	27
292.055	28.5
293.306	27.5
294.557	25.5
295.807	24.5
297.058	25.5
298.308	24
299.558	25
300.808	27
302.057	29.5
303.305	27.5
304.554	26
305.803	23
307.052	25
308.3	28
309.549	28
310.797	27
312.045	27.5
313.292	24.5
314.54	25
315.786	25
317.033	27
318.28	29
319.526	28.5
320.773	28
322.019	24.5
323.264	25
324.51	28
325.755	27
327.001	27.5
328.246	28
329.49	25.5
330.735	26
331.979	21
333.224	29
334.467	24
335.711	35
336.955	28.5
338.199	31
339.441	26
340.684	27
341.927	25
343.168	28.5
344.411	27
345.654	27.5
346.895	25
348.137	27
349.379	26
350.619	29.5
351.86	26.5
353.102	27
354.341	32
355.582	23
356.821	29.5
358.062	26
359.302	21.5
360.541	25
361.781	27
363.019	30.5
364.259	26
365.496	29.5
366.736	28.5
367.974	26
369.212	25
370.45	23
371.687	28.5
372.925	22
374.162	28
375.399	30.5
376.635	25
377.873	26
379.109	24.5
380.344	21
381.581	28.5
382.816	29
384.052	27
385.287	25
386.523	29
387.757	24
388.991	25.5
390.227	32
391.46	25.5
392.695	26.5
393.928	27.5
395.162	28.5
396.396	25.5
397.629	27.5
398.861	29.5
400.095	25
401.327	31
402.559	25.5
403.792	25
405.024	28.5
406.255	24
407.488	26.5
408.719	27
409.949	28
411.18	29.5
412.412	28
413.642	26
414.872	27
416.102	25.5
417.333	28
418.562	26
419.791	29
421.02	27
422.249	30
423.479	27.5
424.707	24.5
425.935	25
427.163	26
428.391	29.5
429.619	29
430.848	24.5
432.075	27
433.302	27
434.529	31.5
435.755	24
436.982	28
438.208	27
439.434	27.5
440.66	26
441.885	27
443.111	26
444.338	27
445.563	23.5
446.788	28
448.012	29.5
449.237	24.5
450.461	32
451.685	23
452.909	28
454.133	30.5
455.356	28.5
456.579	26.5
457.802	25.5
459.025	24
460.247	28
461.469	26
462.691	28
463.914	27
465.136	29
466.357	28
467.579	28.5
468.8	30.5
470.021	27.5
471.242	32
472.462	29
473.682	32.5
474.903	27
476.123	31.5
477.343	30
478.563	27.5
479.782	36
481	34
482.219	34
483.438	37.5
484.657	35.5
485.874	36.5
487.093	35
488.311	40
489.529	38.5
490.747	41
491.963	36.5
493.181	35.5
494.398	35
495.614	34
496.83	35
498.047	32
499.264	32.5
500.479	33.5
501.695	33
502.911	34.5
504.125	29
505.34	31.5
506.554	28.5
507.769	27
508.984	31
510.198	30
511.412	31.5
512.627	33.5
513.839	27
515.053	29
516.266	30
517.479	29
518.691	27.5
519.905	32
521.118	26.5
522.329	31.5
523.542	29.5
524.753	27.5
525.965	27
527.176	27.5
528.388	25
529.598	28.5
530.809	31.5
532.019	29
533.23	27
534.44	25.5
535.649	30
536.86	28.5
538.068	28
539.279	32.5
540.487	24
541.697	21.5
542.905	26.5
544.113	29
545.322	26
546.53	29.5
547.737	27.5
548.946	28.5
550.153	27.5
551.361	25.5
552.568	27
553.774	26
554.982	27.5
556.188	23
557.394	29
558.599	30
559.806	27
561.012	26.5
562.217	28.5
563.423	27.5
564.628	26
565.832	27
567.036	28.5
568.241	29.5
569.446	29.5
570.65	29.5
571.853	30.5
573.057	28
574.26	29
575.464	27
576.667	25
577.87	22.5
579.072	26.5
580.274	27.5
581.477	24
582.68	31
583.881	25.5
585.083	29
586.284	25
587.485	30
588.686	24.5
589.887	27
591.087	27.5
592.288	26.5
593.488	23
594.688	29
595.888	28
597.087	27
598.287	27.5
599.486	26
600.685	25
601.884	28.5
603.082	28
604.281	24
605.479	29
606.677	21.5
607.875	24.5
609.073	25
610.27	27
611.468	26.5
612.665	28
613.862	26
615.058	28
616.255	22
617.451	30.5
618.648	28
619.842	27
621.038	24
622.234	28
623.429	30.5
624.624	32.5
625.819	29.5
627.013	26.5
628.207	28.5
629.402	28.5
630.596	25
631.79	29
632.983	28.5
634.177	25.5
635.37	29
636.564	29
637.755	26.5
638.948	26.5
640.141	25
641.334	30.5
642.525	28.5
643.717	21.5
644.909	28.5
646.099	29
647.291	26.5
648.483	26.5
649.674	29.5
650.864	26
652.055	28.5
653.244	25
654.435	27
655.625	30
656.814	27
658.004	26
659.193	29.5
660.382	26
661.571	29.5
662.759	24
663.948	25
665.135	28.5
666.324	27.5
667.511	27.5
668.7	28.5
669.886	25.5
671.074	26
672.262	31
673.448	30
674.634	24.5
675.821	29
677.007	28
678.194	30
679.379	32
680.565	26.5
681.75	25
682.936	29.5
684.121	30.5
685.305	33
686.491	30.5
687.675	32.5
688.86	27
690.043	27
691.227	30
692.411	28
693.594	30.5
694.777	31
695.961	29
697.144	27
698.326	29.5
699.509	32
700.691	29.5
701.873	30
703.056	31
704.237	32.5
705.419	34.5
706.599	33.5
707.782	38
708.962	31.5
710.143	33.5
711.323	34
712.504	30
713.684	31.5
714.864	32
716.043	30
717.223	27.5
718.403	33.5
719.582	26
720.761	28
721.94	26.5
723.118	26
724.296	22.5
725.474	30.5
726.652	30
727.831	24.5
729.009	24
730.186	28.5
731.363	26.5
732.54	26
733.717	25.5
734.893	28.5
736.07	28
737.246	25.5
738.422	25.5
739.598	27
740.773	32
741.949	24.5
743.124	27
744.299	24.5
745.474	30.5
746.649	29.5
747.823	27.5
748.997	26.5
750.172	28.5
751.346	27
752.519	21
753.693	24.5
754.867	31
756.038	27.5
757.211	31
758.384	23
759.557	26.5
760.73	27.5
761.902	30
763.074	26
764.246	25.5
765.417	27
766.588	21.5
767.76	26
768.931	26
770.102	30
771.271	27
772.442	28
773.613	23
774.783	27.5
775.952	21
777.122	29.5
778.291	24.5
779.461	26.5
780.629	29
781.798	24.5
782.967	25.5
784.135	27
785.304	28
786.472	26.5
787.639	28
788.807	27.5
789.975	30
791.142	29
792.309	32.5
793.477	25.5
794.642	22.5
795.81	23
796.975	29.5
798.142	29.5
799.308	27
800.473	26
801.639	28.5
802.804	27.5
803.97	30
805.134	26
806.299	23.5
807.463	22.5
808.628	29.5
809.792	28.5
810.957	29.5
812.12	29.5
813.284	27.5
814.447	27.5
815.611	25
816.773	27
817.937	24.5
819.099	29
820.261	28
821.424	23.5
822.585	25.5
823.748	27.5
824.909	21
826.07	29
827.232	29.5
828.393	30.5
829.554	28
830.715	23
831.875	24
833.035	29
834.196	24.5
835.356	25
836.515	27
837.676	26.5
838.835	25
839.994	25
841.152	25.5
842.312	28
843.47	28
844.629	31.5
845.786	23.5
846.946	30.5
848.103	23
849.261	26
850.418	28.5
851.575	30.5
852.733	25.5
853.89	27.5
855.046	24.5
856.203	24.5
857.359	23
858.515	24.5
859.67	27.5
860.827	27.5
861.983	27
863.138	29.5
864.293	29
865.448	21
866.603	30
867.757	28.5
868.912	26
870.066	25.5
871.22	27.5
872.374	29
873.527	26
874.681	27
875.834	27.5
876.987	28
878.14	25.5
879.293	27
880.445	23
881.598	28
882.75	28.5
883.902	28
885.054	27.5
886.206	26.5
887.357	25.5
888.507	24
889.658	26
890.809	23.5
891.96	28.5
893.111	29
894.261	26.5
895.411	25
896.561	24
897.71	28.5
898.86	23
900.009	29
901.159	26
902.308	23.5
903.455	30.5
904.604	25
905.753	24
906.901	27.5
908.048	26.5
909.197	24
910.344	29
911.492	27.5
912.639	24
913.786	27
914.933	28
916.079	27
917.226	28.5
918.373	26.5
919.518	25
920.664	27.5
921.81	28
922.955	21
924.101	27.5
925.245	26
926.391	24
927.536	27
928.68	27
929.825	27
930.968	24
932.113	29
933.256	26
934.4	25.5
935.543	24
936.687	24
937.83	25
938.973	24
940.115	25.5
941.258	25.5
942.399	28.5
943.542	24.5
944.684	27.5
945.826	26
946.967	24
948.109	28
949.25	22
950.392	26.5
951.532	27.5
952.672	23.5
953.813	26
954.953	30.5
956.093	23
957.233	25.5
958.373	24
959.512	25
960.652	22
961.791	28
962.929	25
964.069	28
965.207	29.5
966.345	28
967.484	26
968.622	27
969.759	28
970.896	28
972.035	28
973.172	26
974.309	28.5
975.445	27.5
976.582	26.5
977.719	27
978.855	25.5
979.991	26
981.127	25.5
982.263	31
983.398	25
984.535	29
985.67	27
986.804	21.5
987.939	23
989.074	28.5
990.208	27
991.342	25
992.476	26.5
993.61	27
994.744	30
995.877	24.5
997.01	25
998.143	26
999.276	25
1000.41	24.5
1001.54	27
1002.67	22
1003.81	24.5
1004.94	27
1006.07	24
1007.2	27.5
1008.33	24.5
1009.47	28
1010.6	26.5
1011.73	27.5
1012.86	25.5
1013.99	27
1015.12	26
1016.25	23
1017.38	24
1018.51	25.5
1019.64	24.5
1020.77	25
1021.9	24
1023.03	24.5
1024.15	28
1025.28	25
1026.41	26.5
1027.54	29.5
1028.67	26
1029.8	27.5
1030.92	28
1032.05	23
1033.18	27.5
1034.31	27
1035.43	27
1036.56	24.5
1037.69	27
1038.81	24
1039.94	17
1041.07	27
1042.19	22.5
1043.32	23.5
1044.44	23.5
1045.57	25
1046.69	20
1047.82	26.5
1048.94	31
1050.07	25.5
1051.19	22.5
1052.32	28.5
1053.44	25
1054.57	26
1055.69	23
1056.81	29.5
1057.94	24
1059.06	26
1060.18	26
1061.31	24.5
1062.43	24.5
1063.55	28.5
1064.67	20.5
1065.8	26
1066.92	26.5
1068.04	24
1069.16	26
1070.28	25
1071.4	26
1072.52	28
1073.64	24.5
1074.76	27.5
1075.89	22
1077.01	27.5
1078.13	26
1079.25	24.5
1080.37	30.5
1081.49	24.5
1082.6	24
1083.72	27
1084.84	24.5
1085.96	27
1087.08	24.5
1088.2	22.5
1089.32	25.5
1090.43	23
1091.55	24.5
1092.67	21
1093.79	27.5
1094.91	23
1096.02	26
1097.14	21.5
1098.26	22
1099.37	21
1100.49	23
1101.61	23
1102.72	24
1103.84	23
1104.95	27.5
1106.07	26
1107.18	23
1108.3	22
1109.41	27.5
1110.53	28.5
1111.64	25.5
1112.76	27
1113.87	28
1114.99	23
1116.1	28
1117.21	24
1118.33	25
1119.44	23
1120.55	26
1121.67	25
1122.78	23.5
1123.89	26
1125	23.5
1126.12	24.5
1127.23	23
1128.34	25.5
1129.45	22
1130.56	25.5
1131.68	22.5
1132.79	19
1133.9	26
1135.01	25
1136.12	23
1137.23	22
1138.34	25
1139.45	23.5
1140.56	23
1141.67	22.5
1142.78	21.5
1143.89	27.5
1145	26
1146.11	27
1147.22	29.5
1148.32	23
1149.43	23.5
1150.54	22
1151.65	25
1152.76	24.5
1153.86	27
1154.97	22
1156.08	21
1157.19	30
1158.29	23.5
1159.4	22
1160.51	24.5
1161.61	22.5
1162.72	25
1163.83	26
1164.93	24.5
1166.04	25
1167.14	25
1168.25	26
1169.35	26
1170.46	18.5
1171.56	26.5
1172.67	24
1173.77	25
1174.88	27
1175.98	23
1177.08	28
1178.19	26.5
1179.29	21
1180.4	24
1181.5	20
1182.6	25
1183.71	23
1184.81	23.5
1185.91	25
1187.01	22
1188.12	26
1189.22	24
1190.32	24
1191.42	24.5
1192.52	21.5
1193.62	23
1194.72	25.486
1195.83	22.9535
1196.93	24.5847
1198.03	25.4933
1199.13	25.386
1200.23	19.2684
1201.33	25.7476
1202.43	22.9272
1203.53	26.5729
1204.63	25.5861
1205.73	19.4843
1206.83	22.926
1207.92	26.7909
1209.02	24.218
1210.12	22.8613
1211.22	24.9893
1212.32	21.5276
1213.42	25.5129
1214.51	22.3938
1215.61	22.5583
1216.71	23.8268
1217.81	25.5845
1218.9	28.8617
1220	20.6725
1221.1	26.2989
1222.19	23.1286
1223.29	23.8798
1224.39	23.0453
1225.48	26.6735
1226.58	25.4763
1227.68	24.6884
1228.77	22.8874
1229.87	23.5216
1230.96	23.9084
1232.06	22.9851
1233.15	20.7307
1234.25	27.3828
1235.34	25.2523
1236.43	24.3441
1237.53	22.2229
1238.62	25.1966
1239.72	25.7736
1240.81	23.1908
1241.9	24.1335
1243	24.4328
1244.09	24.9415
1245.18	23.3308
1246.27	22.5415
1247.37	25.4063
1248.46	23.725
1249.55	24.7324
1250.64	25.9617
1251.74	22.8373
1252.83	24.2854
1253.92	24.3638
1255.01	24.6959
1256.1	26.5272
1257.19	25.0759
1258.28	22.9383
1259.38	24.384
1260.46	23.3928
1261.56	23.9224
1262.65	24.7602
1263.74	25.0198
1264.82	23.095
1265.91	23.5315
1267	25.6555
1268.09	24.7264
1269.18	25.2137
1270.27	22.2546
1271.36	24.6642
1272.45	25.3091
1273.54	24.6391
1274.63	22.6263
1275.71	26.2036
1276.8	25.6632
1277.89	24.7282
1278.98	23.4354
1280.06	22.6046
1281.15	25.7796
1282.24	22.9906
1283.32	25.9729
1284.41	23.8392
1285.5	21.5726
1286.58	24.9876
1287.67	26.4085
1288.76	27.7836
1289.84	23.3832
1290.93	25.1297
1292.01	24.848
1293.1	23.4148
1294.18	20.8267
1295.27	23.7542
1296.35	26.5702
1297.44	23.7457
1298.52	25.6039
1299.6	25.4092
1300.69	23.4333
1301.77	25.45
1302.86	24.8976
1303.94	22.7009
1305.02	24.2035
1306.11	24.2659
1306.41	24
1307.5	24.5
1308.59	27
1309.68	24
1310.77	22.5
1311.85	23.5
1312.94	29
1314.03	23
1315.11	21
1316.2	24
1317.29	24.5
1318.37	26
1319.46	25.5
1320.55	21.5
1321.63	24
1322.72	22
1323.8	20
1324.89	22
1325.98	28
1327.06	27
1328.15	23
1329.23	22.5
1330.31	26
1331.4	24.5
1332.48	23
1333.57	25.5
1334.65	22.5
1335.74	22
1336.82	22
1337.9	23.5
1338.99	29.5
1340.07	27
1341.15	22.5
1342.24	27
1343.32	22.5
1344.4	25
1345.48	23.5
1346.56	27
1347.65	24
1348.73	28.5
1349.81	25
1350.89	21
1351.97	22
1353.05	25.5
1354.13	21.5
1355.21	22.5
1356.29	25
1357.37	21
1358.46	22.5
1359.54	23.5
1360.62	22.5
1361.69	24
1362.77	19
1363.85	23.5
1364.93	27.5
1366.01	21
1367.09	19.5
1368.17	20.5
1369.25	23
1370.33	23.5
1371.41	25.5
1372.48	21.5
1373.56	23
1374.64	23.5
1375.72	29
1376.79	24.5
1377.87	25.5
1378.95	26.5
1380.02	24.5
1381.1	25
1382.18	27
1383.25	23
1384.33	26
1385.4	27.5
1386.48	27
1387.56	26
1388.63	22.5
1389.71	24
1390.78	28.5
1391.86	25
1392.93	24.5
1394.01	22.5
1395.08	26
1396.15	24.5
1397.23	25
1398.3	24
1399.38	22
1400.45	27
1401.52	27.5
1402.6	25.5
1403.67	20
1404.74	25
1405.81	26
1406.89	25.5
1407.96	26
1409.03	25
1410.1	26.5
1411.17	27
1412.25	26
1413.32	26
1414.39	30.5
1415.46	27
1416.53	27
1417.6	27.5
1418.67	28.5
1419.74	21
1420.81	28.5
1421.88	21.5
1422.95	25
1424.02	23.5
1425.09	25.5
1426.16	26.5
1427.23	24
1428.3	28
1429.37	25.5
1430.44	24.5
1431.51	24
1432.58	24
1433.64	23
1434.71	28
1435.78	26
1436.85	23
1437.92	23.5
1438.98	27
1440.05	25.5
1441.12	26
1442.18	25.5
1443.25	22
1444.32	25
1445.38	26
1446.45	26
1447.52	24
1448.58	29.5
1449.65	27
1450.71	25.5
1451.78	22
1452.84	24
1453.91	23
1454.97	25
1456.04	23
1457.1	28.5
1458.17	22.5
1459.23	26.5
1460.3	25
1461.36	22
1462.42	25
1463.49	21.5
1464.55	23
1465.61	25.5
1466.68	23
1467.74	22.5
1468.8	23
1469.86	26
1470.93	24.5
1471.99	26.5
1473.05	28.5
1474.11	25.5
1475.17	26
1476.24	20.5
1477.3	28
1478.36	29
1479.42	25.5
1480.48	23.5
1481.54	25.5
1482.6	21.5
1483.66	25
1484.72	28
1485.78	24
1486.84	26
1487.9	29
1488.96	22
1490.02	21.5
1491.08	22.5
1492.14	26
1493.2	24
1494.26	27
1495.31	24.5
1496.37	22
1497.43	27
1498.49	24
1499.55	24.5
1500.6	25.5
1501.66	25.5
1502.72	23.5
1503.78	25.5
1504.83	23
1505.89	20
1506.95	24.5
1508	26
1509.06	26
1510.12	24.5
1511.17	27
1512.23	24.5
1513.28	27
1514.34	25.5
1515.39	21.5
1516.45	25.5
1517.5	23
1518.56	24.5
1519.61	22.5
1520.67	24
1521.72	28.5
1522.78	19.5
1523.83	22
1524.88	22
1525.94	24
1526.99	24
1528.05	24
1529.1	26
1530.15	20.5
1531.2	26.5
1532.26	24
1533.31	25
1534.36	20
1535.41	28
1536.47	28.5
1537.52	20
1538.57	24
1539.62	27.5
1540.67	23
1541.72	27
1542.77	21
1543.83	23.5
1544.88	26.5
1545.93	25
1546.98	26
1548.03	22
1549.08	21
1550.13	21
1551.18	26.5
1552.23	25
1553.28	21
1554.32	25
1555.37	24
1556.42	24
1557.47	24.5
1558.52	25.5
1559.57	22.5
1560.62	27
1561.67	26.5
1562.71	28
1563.76	26
1564.81	25.5
1565.86	24.5
1566.9	26.5
1567.95	28
1569	25
1570.04	25.5
1571.09	23
1572.14	22.5
1573.18	26.5
1574.23	31
1575.27	26.5
1576.32	22.5
1577.37	24.5
1578.41	23.5
1579.46	22.5
1580.5	27
1581.55	26.5
1582.59	26
1583.64	26.5
1584.68	19.5
1585.72	27.5
1586.77	21.5
1587.81	28
1588.86	25.5
1589.9	23.5
1590.94	24.5
1591.99	22.5
1593.03	22.5
1594.07	21
1595.12	21.5
1596.16	25.5
1597.2	23.5
1598.24	25
1599.29	21
1600.33	20
1601.37	23.5
1602.41	21
1603.45	26.5
1604.49	23
1605.53	23
1606.58	25.5
1607.62	21.5
1608.66	23.5
1609.7	22.5
1610.74	25
1611.78	29
1612.82	23
1613.86	25
1614.9	27
1615.94	24.5
1616.98	28.5
1618.02	26
1619.06	26
1620.09	26
1621.13	26.5
1622.17	27.5
1623.21	27
1624.25	23.5
1625.29	26
1626.32	25.5
1627.36	22.5
1628.4	26.5
1629.44	24
1630.47	24.5
1631.51	20
1632.55	26
1633.58	24.5
1634.62	24.5
1635.66	23.5
1636.69	26.5
1637.73	23
1638.77	26
1639.8	21
1640.84	22
1641.87	23
1642.91	23
1643.94	24
1644.98	26
1646.01	22
1647.05	29
1648.08	23
1649.12	23
1650.15	23
1651.18	23.5
1652.22	26
1653.25	25
1654.29	23
1655.32	25.5
1656.35	21
1657.39	22.5
1658.42	23.5
1659.45	23
1660.48	26.5
1661.52	20.5
1662.55	21.5
1663.58	22.5
1664.61	24.5
1665.64	23
1666.68	22.5
1667.71	21
1668.74	26
1669.77	22.5
1670.8	23.5
1671.83	26
1672.86	25.5
1673.89	29.5
1674.92	24
1675.95	26
1676.98	25
1678.01	24.5
1679.04	25.5
1680.07	25
1681.1	22
1682.13	25
1683.16	26.5
1684.19	25
1685.22	24
1686.25	24
1687.27	24
1688.3	25.5
1689.33	26.5
1690.36	24.5
1691.38	28
1692.41	27.5
1693.44	26
1694.47	22
1695.49	24.5
1696.52	22
1697.55	24.5
1698.57	27
1699.6	25.5
1700.63	19
1701.65	25.5
1702.68	23.5
1703.7	23.5
1704.73	25.5
1705.76	23
1706.78	25.5
1707.81	27.5
1708.83	29.5
1709.86	26
1710.88	23
1711.91	25
1712.93	26.5
1713.95	25
1714.98	24
1716	20.5
1717.03	28
1718.05	27.5
1719.07	23
1720.1	22.5
1721.12	28.5
1722.14	24.5
1723.16	20.5
1724.19	25.5
1725.21	26.5
1726.23	33
1727.25	30.5
1728.28	28.5
1729.3	25.5
1730.32	23
1731.34	26
1732.36	23
1733.38	24.5
1734.41	27
1735.43	25.5
1736.45	21.5
1737.47	24
1738.49	24
1739.51	21
1740.53	27.5
1741.55	21.5
1742.57	24.5
1743.59	24
1744.61	25.5
1745.63	24.5
1746.64	26
1747.66	24.5
1748.68	28
1749.7	20.5
1750.72	26
1751.74	25.5
1752.76	23.5
1753.77	26
1754.79	30.5
1755.81	25
1756.83	29
1757.84	25
1758.86	24.5
1759.88	25
1760.9	29
1761.91	23.5
1762.93	25
1763.95	24.5
1764.96	24
1765.98	23.5
1766.99	27.5
1768.01	26.5
1769.02	26
1770.04	23.5
1771.06	26
1772.07	25.5
1773.09	24.5
1774.1	23
1775.12	27.5
1776.13	20
1777.14	26
1778.16	20
1779.17	26
1780.19	23.5
1781.2	25
1782.21	25
1783.23	22
1784.24	25
1785.25	28.5
1786.27	26
1787.28	26
1788.29	23.5
1789.3	25.5
1790.32	28.5
1791.33	23
1792.34	24.5
1793.35	25
1794.36	25
1795.38	24
1796.39	20.5
1797.4	23.5
1798.41	27.5
1799.42	25
1800.43	24.5
1801.44	27.5
1802.45	26
1803.46	28.5
1804.47	25.5
1805.48	23
1806.49	24
1807.5	23.5
1808.51	26
1809.52	25.5
1810.53	24
1811.54	24
1812.55	25.5
1813.56	22
1814.57	26
1815.57	22
1816.58	21
1817.59	23
1818.6	25.5
1819.61	23
1820.61	23.5
1821.62	26.5
1822.63	24
1823.64	24.5
1824.64	20.5
1825.65	26
1826.66	23
1827.66	25.5
1828.67	27.5
1829.68	22
1830.68	27.5
1831.69	24.5
1832.69	24.5
1833.7	27.5
1834.7	23.5
1835.71	22
1836.71	26
1837.72	26.5
1838.72	24
1839.73	25
1840.73	25.5
1841.74	25.5
1842.74	26
1843.75	27
1844.75	22.5
1845.75	23
1846.76	26.5
1847.76	28.5
1848.76	22.5
1849.77	23
1850.77	26
1851.77	23
1852.78	26.5
1853.78	23
1854.78	25
1855.78	23.5
1856.78	24
1857.79	27
1858.79	21.5
1859.79	29
1860.79	26
1861.79	27.5
1862.79	24
1863.79	19.5
1864.79	28
1865.79	26
1866.8	24.5
1867.8	27.5
1868.8	24.5
1869.8	27
1870.8	23
1871.8	25
1872.8	22.5
1873.79	28.5
1874.79	24.5
1875.79	23.5
1876.79	25
1877.79	24.5
1878.79	24
1879.79	26.5
1880.79	20.5
1881.78	24
1882.78	21
1883.78	28.5
1884.78	24.5
1885.77	24.5
1886.77	23
1887.77	25
1888.77	23.5
1889.76	26.5
1890.76	23
1891.76	24
1892.75	24.5
1893.75	22
1894.75	23
1895.74	22
1896.74	23
1897.73	22
1898.73	26
1899.73	26
1900.72	24.5
1901.72	25.5
1902.71	22.5
1903.7	26.5
1904.7	22.5
1905.69	25.5
1906.69	24.5
1907.68	25
1908.68	26
1909.67	28.5
1910.66	23.5
1911.66	25
1912.65	25
1913.64	27.5
1914.64	26
1915.63	25.5
1916.62	21
1917.62	25
1918.61	24
1919.6	20
1920.59	23
1921.58	27.5
1922.58	26
1923.57	23
1924.56	21
1925.55	25
1926.54	27.5
1927.53	24
1928.52	25
1929.51	24
1930.51	24.5
1931.5	22
1932.49	21.5
1933.48	24
1934.47	26
1935.46	23
1936.45	21
1937.44	24
1938.42	28
1939.41	26
1940.4	21.5
1941.39	16
1942.38	25
1943.37	25
1944.36	26
1945.35	23
1946.33	22.5
1947.32	24
1948.31	24.25
1949.3	22.5
1950.29	24.5
1951.27	22.5
1952.26	26
1953.25	26.5
1954.23	23.5
1955.22	22
1956.21	24.5
1957.19	23
1958.18	28.5
1959.17	22
1960.15	25.5
1961.14	21
1962.13	23.5
1963.11	26.5
1964.1	25.5
1965.08	29
1966.07	21
1967.05	20
1968.04	26.5
1969.02	27
1970.01	19.5
1970.99	23
1971.97	20.5
1972.96	22.5
1973.94	23
1974.93	21
1975.91	26.5
1976.89	26
1977.88	25.5
1978.86	29
1979.84	25
1980.83	25
1981.81	26
1982.79	26.5
1983.77	20
1984.76	22
1985.74	24
1986.72	24.5
1987.7	21.5
1988.68	24
1989.67	22.5
1990.65	25
1991.63	24.5
1992.61	26
1993.59	24
1994.57	26.5
1995.55	22.5
1996.53	26.5
1997.51	20.5
1998.49	24.5
1999.47	23.5
2000.45	23.5
2001.43	25.5
2002.41	25.5
2003.39	21
2004.37	22
2005.35	22
2006.33	24
2007.31	20.5
2008.29	23
2009.26	23.5
2010.24	25.5
2011.22	25
2012.2	26.5
2013.18	27
2014.15	23
2015.13	18.5
2016.11	22.5
2017.09	25
2018.06	24.5
2019.04	20.5
2020.02	25.5
2021	27
2021.97	21.5
2022.95	21.5
2023.92	26
2024.9	25
2025.88	23.5
2026.85	21
2027.83	24.5
2028.8	23
2029.78	26.5
2030.75	24.5
2031.73	28
2032.7	23
2033.68	22
2034.65	27
2035.63	19
2036.6	24.5
2037.58	20.5
2038.55	24
2039.52	23.5
2040.5	23
2041.47	23
2042.45	22
2043.42	22.5
2044.39	25.5
2045.36	21.5
2046.34	25
2047.31	23.5
2048.28	27
2049.26	20.5
2050.23	26.5
2051.2	25.5
2052.17	23.5
2053.14	22.5
2054.12	25.5
2055.09	24.5
2056.06	21
2057.03	22
2058	25.5
2058.97	25
2059.94	25
2060.91	19.5
2061.88	24
2062.85	21.5
2063.82	24.5
2064.79	24
2065.76	25
2066.73	25.5
2067.7	23
2068.67	25.5
2069.64	20.5
2070.61	23.5
2071.58	23
2072.55	26.5
2073.52	24.5
2074.49	27
2075.45	26
2076.42	21
2077.39	22.5
2078.36	21
2079.33	23
2080.29	21
2081.26	24
2082.23	25
2083.2	24.5
2084.16	20.5
2085.13	23
2086.1	22
2087.06	24.5
2088.03	26
2089	26.5
2089.96	20.5
2090.93	19
2091.89	21.5
2092.86	21.5
2093.83	21.5
2094.79	24
2095.76	24.5
2096.72	21
2097.69	22
2098.65	20
2099.62	20
2100.58	22
2101.55	22
2102.51	23.5
2103.47	19
2104.44	26
2105.4	28.5
2106.36	24
2107.33	21.5
2108.29	20.5
2109.25	23
2110.22	27
2111.18	24
2112.14	21.5
2113.11	23
2114.07	26
2115.03	24
2115.99	24.5
2116.96	26
2117.92	21
2118.88	23
2119.84	25
2120.8	23
2121.76	23
2122.72	22.5
2123.68	22.5
2124.65	22.5
2125.61	25.5
2126.57	23.5
2127.53	21.5
2128.49	24.5
2129.45	24.5
2130.41	25.5
2131.37	24
2132.33	21
2133.29	21
2134.25	23
2135.21	23.5
2136.17	22
2137.12	17.5
2138.08	25.5
2139.04	25.5
2140	23
2140.96	20
2141.92	25.5
2142.88	22.9938
2143.83	22.9509
2144.79	22.0323
2145.75	24.9755
2146.71	23.927
2147.66	26.8771
2148.62	20.1036
2149.58	22.1001
2150.53	22.1232
2151.49	24.4572
2152.45	22.8561
2153.4	21.1245
2154.36	22.4289
2155.32	20.942
2156.27	22.1443
2157.23	23.4683
2158.19	22.8374
2159.14	22.5927
2160.1	22.8597
2161.05	22.7022
2162.01	23.7039
2162.96	23.2883
2163.92	26.3178
2164.87	23.0027
2165.83	23.1637
2166.78	21.9997
2167.73	21.846
2168.69	23.466
2169.64	24.2907
2170.6	24.4821
2171.55	23.0717
2172.5	21.8748
2173.46	23.6583
2174.41	23.6124
2175.36	25.0144
2176.32	21.1684
2177.27	23.7539
2178.22	21.2725
2179.18	24.9393
2180.13	21.603
2181.08	24.5856
2182.03	20.3465
2182.98	21.2371
2183.94	23.5684
2184.89	23.7735
2185.84	21.4087
2186.79	20.3117
2187.74	23.3695
2188.69	23.1748
2189.64	19.5181
2190.6	23.5796
2191.55	23.4335
2192.5	22.7579
2193.45	22.0935
2194.4	22.2473
2195.35	22.5383
2196.3	21.8602
2197.25	26.0984
2198.2	24.0703
2199.15	22.3144
2200.1	20.9509
2201.04	22.9293
2201.99	20.6399
2202.94	19.4445
2203.89	22.0976
2204.84	22.3966
2205.79	21.1101
2206.74	22.8953
2207.69	24.0839
2208.63	22.4358
2209.58	21.7282
2210.53	21.4385
2211.48	21.0085
2212.43	21.2256
2213.37	20.3938
2214.32	22.5634
2215.27	21.5884
2216.21	24.0446
2217.16	21.9901
2218.11	23.0693
2219.05	24.1558
2220	20.4963
2220.95	24.6228
2221.89	22.5755
2222.84	20.5922
2223.78	23.6821
2224.73	21.7738
2225.68	22.5267
2226.62	21.2811
2227.57	22.5444
2228.51	21.3497
2229.46	24.3453
2230.4	22.7609
2231.35	21.4016
2232.29	22.4788
2233.24	22.6286
2234.18	22.9676
2235.12	22.6525
2236.07	23.2503
2237.01	21.6483
2237.95	21.4146
2238.9	19.5904
2239.84	22.0542
2240.06	23
2241.01	21
2241.96	23
2242.91	22
2243.86	23.5
2244.8	22
2245.75	23.5
2246.7	24.5
2247.65	18
2248.59	23.5
2249.54	23
2250.49	19.5
2251.43	24.5
2252.38	23.5
2253.33	21
2254.27	23
2255.22	23
2256.16	24
2257.11	23.5
2258.06	23
2259	22
2259.95	24
2260.89	23.5
2261.84	22.5
2262.78	20.5
2263.73	22
2264.67	23
2265.62	21
2266.56	19.5
2267.5	22
2268.45	27
2269.39	22.5
2270.34	24.5
2271.28	22.5
2272.22	25
2273.17	25.5
2274.11	23
2275.05	23.5
2276	20
2276.94	24
2277.88	26
2278.82	25.5
2279.77	20
2280.71	20
2281.65	23
2282.59	20
2283.53	25
2284.48	20
2285.42	22
2286.36	21
2287.3	24
2288.24	23.5
2289.18	25
2290.12	21
2291.06	19.5
2292	22
2292.94	23
2293.89	26.5
2294.83	23
2295.77	21
2296.71	19.5
2297.65	25
2298.58	26.5
2299.52	23
2300.46	18
2301.4	23
2302.34	24
2303.28	25
2304.22	21.5
2305.16	21
2306.1	28
2307.03	27
2307.97	21.5
2308.91	24.5
2309.85	22
2310.79	21
2311.72	22
2312.66	23
2313.6	26
2314.54	26
2315.47	22.5
2316.41	22
2317.35	21.5
2318.28	24
2319.22	23.5
2320.16	23
2321.09	25
2322.03	21
2322.96	25.5
2323.9	23.5
2324.84	24.5
2325.77	22
2326.71	19.5
2327.64	25
2328.58	24
2329.51	22.5
2330.45	24
2331.38	22.5
2332.32	23.5
2333.25	22.5
2334.18	25
2335.12	22
2336.05	21
2336.99	28
2337.92	27.5
2338.85	22
2339.79	24
2340.72	24.5
2341.65	26
2342.59	23
2343.52	22
2344.45	21
2345.39	19
2346.32	24.5
2347.25	20
2348.18	25.5
2349.11	20
2350.05	21.5
2350.98	22.5
2351.91	24
2352.84	23.5
2353.77	23
2354.7	25
2355.64	26
2356.57	23
2357.5	21.5
2358.43	20
2359.36	24
2360.29	24
2361.22	19
2362.15	26.5
2363.08	24.5
2364.01	27.5
2364.94	24
2365.87	23
2366.8	23.5
2367.73	24
2368.66	27
2369.58	22
2370.51	23.5
2371.44	28
2372.37	24
2373.3	21
2374.23	23.5
2375.16	22.5
2376.08	17.5
2377.01	20
2377.94	21.5
2378.87	24.5
2379.8	22.5
2380.72	25.5
2381.65	25.5
2382.58	26
2383.5	24
2384.43	23
2385.36	26
2386.28	21
2387.21	22
2388.14	24
2389.06	20.5
2389.99	20.5
2390.91	19.5
2391.84	24
2392.77	26.5
2393.69	24
2394.62	26
2395.54	24
2396.47	24.5
2397.39	24
2398.32	24
2399.24	25.5
2400.16	20
2401.09	24
2402.01	26
2402.94	19
2403.86	24
2404.78	27
2405.71	26.5
2406.63	23.5
2407.56	21
2408.48	23
2409.4	21
2410.32	23
2411.25	22
2412.17	22.5
2413.09	24.5
2414.02	26.5
2414.94	27
2415.86	26.5
2416.78	29
2417.7	24
2418.63	27
2419.55	25
2420.47	22
2421.39	24
2422.31	27
2423.23	24
2424.15	26
2425.07	25
2425.99	22
2426.92	21.5
2427.84	22.5
2428.76	21.5
2429.68	24.5
2430.59	25.5
2431.51	22
2432.43	21
2433.35	23.5
2434.27	27
2435.19	20
2436.11	24
2437.03	26.5
2437.95	27
2438.87	24.5
2439.79	27.5
2440.71	23.5
2441.62	24.5
2442.54	20.5
2443.46	24.5
2444.38	25.5
2445.3	26
2446.21	25.5
2447.13	23.5
2448.05	23
2448.97	22.5
2449.88	21
2450.8	24.5
2451.72	21.5
2452.63	24.5
2453.55	23.5
2454.47	25
2455.38	21.5
2456.3	22.5
2457.21	22
2458.13	24.5
2459.05	25
2459.96	23.5
2460.88	22
2461.79	26.5
2462.71	26
2463.62	26
2464.54	23.5
2465.45	25
2466.37	22
2467.28	22.5
2468.2	27.5
2469.11	25
2470.02	27
2470.94	25.5
2471.85	24.5
2472.77	25
2473.68	24
2474.59	23.5
2475.51	26
2476.42	24.5
2477.33	21.5
2478.25	23
2479.16	26
2480.07	26.5
2480.98	22.5
2481.9	21.5
2482.81	22
2483.72	21
2484.63	24
2485.55	24
2486.46	22
2487.37	22.5
2488.28	26.5
2489.19	23.5
2490.1	22.5
2491.01	25.5
2491.92	25
2492.83	23
2493.74	25.5
2494.66	27
2495.57	21
2496.48	18.5
2497.39	23.5
2498.3	26
2499.21	22.5
2500.12	24
2501.03	25.5
2501.93	20
2502.84	22
2503.75	21
2504.66	20.5
2505.57	21
2506.48	24
2507.39	23
2508.3	26
2509.21	26
2510.11	24.5
2511.02	22.5
2511.93	28
2512.84	21
2513.75	22.5
2514.65	22.5
2515.56	20.5
2516.47	24.5
2517.37	21.5
2518.28	26.5
2519.19	23
2520.09	23
2521	24.5
2521.91	24
2522.81	23
2523.72	29
2524.63	22.5
2525.53	23
2526.44	23.5
2527.34	25.5
2528.25	25.5
2529.16	25.5
2530.06	25
2530.97	21.5
2531.87	24
2532.78	25.5
2533.68	26
2534.58	24
2535.49	23.5
2536.39	24
2537.3	23
2538.2	24.5
2539.11	21.5
2540.01	21
2540.91	23.5
2541.82	22.5
2542.72	24.5
2543.62	25.5
2544.53	21.5
2545.43	24.5
2546.33	26
2547.23	24
2548.14	26
2549.04	23
2549.94	22.5
2550.84	23
2551.75	25.5
2552.65	24
2553.55	24
2554.45	24.5
2555.35	23.5
2556.26	25
2557.16	22.5
2558.06	26
2558.96	24.5
2559.86	23
2560.76	25.5
2561.66	23
2562.56	24
2563.46	28.5
2564.36	26
2565.26	21
2566.16	26
2567.06	23.5
2567.96	22
2568.86	25
2569.76	26
2570.66	24.5
2571.56	29.5
2572.46	25.5
2573.36	28
2574.26	26
2575.16	23.5
2576.05	26.5
2576.95	24.5
2577.85	26
2578.75	29
2579.65	23
2580.54	22.5
2581.44	19
2582.34	23.5
2583.24	20.5
2584.13	23.5
2585.03	25
2585.93	26
2586.83	23.5
2587.72	22
2588.62	25
2589.52	21
2590.41	26
2591.31	23
2592.2	23.5
2593.1	22
2594	20
2594.89	22.5
2595.79	24.5
2596.68	24.5
2597.58	23
2598.47	23.5
2599.37	26
2600.26	23.5
2601.16	23.5
2602.05	24.5
2602.95	21.5
2603.84	27
2604.74	22
2605.63	25
2606.52	23.5
2607.42	25
2608.31	24
2609.21	27.5
2610.1	23.5
2610.99	22
2611.89	26.5
2612.78	25.5
2613.67	21.5
2614.56	23
2615.46	21
2616.35	24.5
2617.24	22
2618.13	21.5
2619.03	24
2619.92	23.5
2620.81	21.5
2621.7	27
2622.59	23
2623.49	23.5
2624.38	23
2625.27	23
2626.16	24
2627.05	23
2627.94	21
2628.83	23.5
2629.72	24.5
2630.61	22.5
2631.5	22.5
2632.39	27.5
2633.28	28
2634.17	26
2635.06	24.5
2635.95	25
2636.84	23
2637.73	23
2638.62	26.5
2639.51	25.5
2640.4	23
2641.29	23
2642.18	19
2643.07	25
2643.96	20
2644.84	24.5
2645.73	24
2646.62	23
2647.51	24
2648.4	25
2649.28	22
2650.17	26
2651.06	26.5
2651.95	23.5
2652.83	22
2653.72	26.5
2654.61	23.5
2655.49	25.5
2656.38	24
2657.27	24.5
2658.16	25
2659.04	23.5
2659.93	25.5
2660.81	25.5
2661.7	24
2662.59	21
2663.47	26.5
2664.36	19.5
2665.24	22
2666.13	23
2667.01	21.5
2667.9	23.5
2668.78	25
2669.67	24.5
2670.55	22.5
2671.44	22
2672.32	25.5
2673.21	24
2674.09	27
2674.97	27
2675.86	21
2676.74	24.5
2677.62	25
2678.51	23
2679.39	24
2680.27	25
2681.16	23
2682.04	24.5
2682.92	26.5
2683.81	25.5
2684.69	25.5
2685.57	24.5
2686.45	25
2687.34	23.5
2688.22	25
2689.1	24.5
2689.98	26.5
2690.86	28
2691.75	24
2692.63	24.5
2693.51	23
2694.39	26
2695.27	19
2696.15	25
2697.03	25
2697.91	19.5
2698.79	25.5
2699.67	24
2700.55	21.5
2701.43	24.5
2702.31	24.5
2703.19	25.5
2704.07	24.5
2704.95	25.5
2705.83	23.5
2706.71	22.5
2707.59	23.5
2708.47	24
2709.35	20
2710.23	25.5
2711.11	25
2711.99	23
2712.86	24.5
2713.74	24.5
2714.62	23.5
2715.5	17
2716.38	21
2717.26	25.5
2718.13	24.5
2719.01	26
2719.89	23.5
2720.77	26.5
2721.64	20
2722.52	22.5
2723.4	23.5
2724.27	23.5
2725.15	23
2726.03	24.5
2726.9	23
2727.78	24.5
2728.66	26
2729.53	22.5
2730.41	23
2731.28	22
2732.16	22
2733.03	28
2733.91	24.5
2734.79	23
2735.66	22.5
2736.54	23.5
2737.41	21
2738.29	23
2739.16	25
2740.03	25
2740.91	24
2741.78	25.5
2742.66	26
2743.53	24.5
2744.41	20.5
2745.28	27
2746.15	23
2747.03	24.5
2747.9	26
2748.77	26.5
2749.65	22
2750.52	23.5
2751.39	23.5
2752.27	22
2753.14	24
2754.01	25
2754.88	26
2755.75	21
2756.63	25
2757.5	20.5
2758.37	26
2759.24	23.5
2760.11	28
2760.99	21.5
2761.86	24.5
2762.73	25
2763.6	27
2764.47	26.5
2765.34	31.5
2766.21	22.5
2767.08	23
2767.95	22.5
2768.82	26.5
2769.69	23.5
2770.56	19
2771.43	27.5
2772.3	27
2773.17	26
2774.04	27
2774.91	24.5
2775.78	25.5
2776.65	20
2777.52	22
2778.39	21.5
2779.26	24
2780.13	26.5
2780.99	24.5
2781.86	26
2782.73	23
2783.6	26
2784.47	24.5
2785.34	25.5
2786.2	25.5
2787.07	24
2787.94	21.5
2788.81	27.5
2789.67	24
2790.54	23.5
2791.41	26
2792.27	21.5
2793.14	23
2794.01	24.5
2794.87	26.5
2795.74	28
2796.61	27.5
2797.47	24.5
2798.34	22.5
2799.21	24.5
2800.07	26
2800.94	25
2801.8	21
2802.67	25.5
2803.53	25.5
2804.4	21
2805.26	26
2806.13	24
2806.99	24.5
2807.86	23
2808.72	23
2809.59	28
2810.45	24
2811.32	22
2812.18	22
2813.04	27
2813.91	22
2814.77	23
2815.64	23.5
2816.5	23
2817.36	22
2818.22	27
2819.09	26
2819.95	20.5
2820.81	26
2821.68	24.5
2822.54	26
2823.4	22.5
2824.26	24
2825.13	24
2825.99	26
2826.85	23.5
2827.71	29.5
2828.57	25.5
2829.44	22.5
2830.3	26
2831.16	19
2832.02	26
2832.88	24.5
2833.74	24
2834.6	23
2835.46	26
2836.32	26
2837.18	25.5
2838.04	24
2838.9	26
2839.76	19.5
2840.62	25.5
2841.48	23.5
2842.34	22
2843.2	22.5
2844.06	24
2844.92	24
2845.78	25.5
2846.64	24
2847.5	22
2848.36	22
2849.22	24.5
2850.08	22
2850.93	25
2851.79	23
2852.65	24
2853.51	25
2854.37	23
2855.22	24.5
2856.08	25.5
2856.94	23.5
2857.8	26.5
2858.65	24
2859.51	24.5
2860.37	22
2861.23	24.5
2862.08	24
2862.94	22
2863.79	26
2864.65	24.5
2865.51	24
2866.36	24.5
2867.22	22
2868.08	24.5
2868.93	23.5
2869.79	24
2870.64	26.5
2871.5	22
2872.35	24
2873.21	23.5
2874.06	23.5
2874.92	25
2875.77	24
2876.63	22
2877.48	24
2878.34	28
2879.19	25
2880.05	23.5
2880.9	23
2881.76	23
2882.61	23
2883.46	26
2884.32	29.5
2885.17	25.5
2886.02	30.5
2886.88	30
2887.73	27
2888.58	26
2889.44	25
2890.29	26.5
2891.14	28
2891.99	26
2892.85	32
2893.7	32
2894.55	29.5
2895.4	31
2896.25	31
2897.11	31.5
2897.96	30.5
2898.81	30
2899.66	30
2900.51	30.5
2901.36	32
2902.21	34.5
2903.07	38.5
2903.92	42.5
2904.77	36.5
2905.62	33
2906.47	36
2907.32	37
2908.17	36.5
2909.02	37
2909.87	36.5
2910.72	38.5
2911.57	35.5
2912.42	34.5
2913.27	33
2914.12	32.5
2914.97	29
2915.81	33
2916.66	29.5
2917.51	27.5
2918.36	28.5
2919.21	28
2920.06	30
2920.91	24
2921.75	29
2922.6	22
2923.45	29
2924.3	25
2925.15	25
2925.99	24
2926.84	23
2927.69	26
2928.54	26
2929.38	23.5
2930.23	24.5
2931.08	28
2931.92	25
2932.77	21
2933.62	25.5
2934.46	22
2935.31	26.5
2936.16	26.5
2937	27
2937.85	22
2938.69	27
2939.54	19.5
2940.38	25.5
2941.23	25
2942.08	21.5
2942.92	27.5
2943.77	22.5
2944.61	24.5
2945.46	26
2946.3	27
2947.15	23.5
2947.99	20
2948.83	23
2949.68	22
2950.52	24
2951.37	25
2952.21	22.5
2953.05	24
2953.9	26
2954.74	25
2955.58	30
2956.43	25.5
2957.27	25
2958.11	27.5
2958.96	33.5
2959.8	32.5
2960.64	27.5
2961.48	23.5
2962.33	29
2963.17	28
2964.01	33
2964.85	28.5
2965.69	29.5
2966.54	30
2967.38	29
2968.22	26
2969.06	28
2969.9	28
2970.74	26
2971.58	26.5073
2972.43	28.9045
2973.27	26.9569
2974.11	26.606
2974.95	17.3494
2975.79	27.1707
2976.63	26.7916
2977.47	24.2032
2978.31	23.2662
2979.15	27.5354
2979.99	24.9475
2980.83	23.8536
2981.67	21.2527
2982.51	23.5883
2983.35	21.6235
2984.19	27.0066
2985.03	25.056
2985.86	22.2992
2986.7	20.2332
2987.54	24.6373
2988.38	22.5995
2989.22	24.925
2990.06	21.7113
2990.9	23.5495
2991.73	22.3366
2992.57	23.2476
2993.41	23.9253
2994.25	24.0363
2995.09	22.4515
2995.92	23.2932
2996.76	23.6952
2997.6	23.5571
2998.44	22.4964
2999.27	22.8212
3000.11	21.9123
3000.95	21.568
3001.78	22.6957
3002.62	22.7903
3003.46	21.8131
3004.29	22.3646
3005.13	22.9137
3005.96	21.9241
3006.8	20.9424
3007.64	22.2025
3008.47	23.1535
3009.31	22.9187
3010.14	22.8147
3010.98	20.6529
3011.81	22.1053
3012.65	21.0228
3013.48	21.5784
3014.32	22.6736
3015.15	20.8418
3015.99	23.2712
3016.82	24.4872
3017.66	22.7308
3018.49	20.894
3019.33	23.3306
3020.16	21.7093
3020.99	22.767
3021.83	21.5265
3022.66	20.9183
3023.5	21.343
3024.33	22.3946
3025.16	20.0905
3026	22.0987
3026.83	23.5101
3027.66	22.338
3028.49	23.3518
3029.33	25.6657
3030.16	24.2685
3030.99	21.3172
3031.83	22.2142
3032.66	22.6204
3033.49	22.5303
3034.32	21.9849
3035.15	22.948
3035.99	21.9481
3036.82	22.4939
3037.65	21.8266
3038.48	20.6101
3039.31	23.0233
3040.14	20.8171
3040.97	20.444
3041.81	21.7595
3042.64	23.9615
3043.47	23.5674
3044.3	21.7566
3045.13	22.4542
3045.96	22.8558
3046.79	20.6341
3047.62	20.9389
3048.45	21.7119
3049.28	22.0015
3050.11	23.3039
3050.94	21.8259
3051.77	19.8679
3052.6	20.1893
3053.43	21.9895
3054.26	23.591
3055.08	23.5306
3055.91	21.2394
3056.74	19.6638
3057.26	21.5
3058.09	21.5
3058.92	22.5
3059.76	23.5
3060.59	21.5
3061.42	21.5
3062.25	22.5
3063.09	21.5
3063.92	25.5
3064.75	23
3065.58	21
3066.42	22.5
3067.25	21
3068.08	21
3068.91	23.5
3069.74	21
3070.57	23
3071.41	21
3072.24	25
3073.07	26.5
3073.9	22.5
3074.73	22
3075.56	22.5
3076.39	23
3077.22	24
3078.05	20.5
3078.88	24
3079.71	23.5
3080.54	23
3081.37	25
3082.2	27
3083.03	25.5
3083.86	23
3084.69	27.5
3085.52	20.5
3086.35	23.5
3087.18	24.5
3088.01	19.5
3088.84	23
3089.67	26.5
3090.5	23.5
3091.32	25
3092.15	23.5
3092.98	21.5
3093.81	22.5
3094.64	20.5
3095.47	22.5
3096.29	20
3097.12	24.5
3097.95	23
3098.78	18
3099.6	24
3100.43	21
3101.26	22.5
3102.09	21
3102.91	23
3103.74	25
3104.57	22
3105.39	25.5
3106.22	22
3107.05	22
3107.87	25.5
3108.7	19
3109.52	21
3110.35	20
3111.18	25.5
3112	20
3112.83	24
3113.65	24
3114.48	23
3115.3	23
3116.13	23.5
3116.95	22
3117.78	26
3118.6	21
3119.43	26
3120.25	24
3121.08	22
3121.9	21
3122.72	23
3123.55	23
3124.37	26
3125.2	24.5
3126.02	24.5
3126.84	26
3127.67	21.5
3128.49	26.5
3129.31	19
3130.14	22.5
3130.96	19
3131.78	22.5
3132.61	25.5
3133.43	26.5
3134.25	23
3135.07	21.5
3135.89	23
3136.72	25
3137.54	20.5
3138.36	22.5
3139.18	23
3140	25.5
3140.83	23
3141.65	24.5
3142.47	23.5
3143.29	24.5
3144.11	24.5
3144.93	30
3145.75	21.5
3146.57	22
3147.4	25
3148.22	26
3149.04	22.5
3149.86	25
3150.68	24
3151.5	28
3152.32	23.5
3153.14	22
3153.96	24.5
3154.78	26
3155.59	22
3156.42	20.5
3157.23	23.5
3158.05	25.5
3158.87	25.5
3159.69	22
3160.51	23.5
3161.33	25.5
3162.15	26.5
3162.97	20.5
3163.78	19
3164.6	20.5
3165.42	27.5
3166.24	23
3167.06	24.5
3167.87	23.5
3168.69	25.5
3169.51	21
3170.33	26.5
3171.14	23
3171.96	24
3172.78	23
3173.6	22.5
3174.41	24.5
3175.23	26
3176.05	26
3176.86	22
3177.68	27
3178.5	19.5
3179.31	21.5
3180.13	25.5
3180.94	23
3181.76	25.5
3182.58	23.5
3183.39	22.5
3184.21	22
3185.02	23
3185.84	22
3186.65	26.5
3187.47	24
3188.28	22.5
3189.1	24.5
3189.91	23
3190.73	25.5
3191.54	24
3192.36	24.5
3193.17	23.5
3193.98	24.5
3194.8	24.5
3195.61	26
3196.43	21
3197.24	23
3198.05	21.5
3198.87	27
3199.68	22
3200.49	21.5
3201.31	20
3202.12	23.5
3202.93	22.5
3203.75	24.5
3204.56	23
3205.37	21.5
3206.18	26
3207	24
3207.81	23
3208.62	22
3209.43	24.5
3210.24	20.5
3211.06	21
3211.87	25
3212.68	27.5
3213.49	23
3214.3	19.5
3215.11	25.5
3215.92	21
3216.73	22
3217.55	24.5
3218.36	24
3219.17	23
3219.98	21.5
3220.79	25.5
3221.6	23
3222.41	19.5
3223.22	23
3224.03	25.5
3224.84	23
3225.65	21
3226.46	26
3227.27	25.5
3228.08	20.5
3228.89	25
3229.7	25
3230.5	21
3231.31	24
3232.12	25.5
3232.93	20
3233.74	25
3234.55	23
3235.36	24
3236.16	22.5
3236.97	20.5
3237.78	21.5
3238.59	22
3239.4	23
3240.2	22
3241.01	28
3241.82	26.5
3242.63	21
3243.43	26
3244.24	23
3245.05	24.5
3245.85	21
3246.66	24.5
3247.47	21.5
3248.27	23.5
3249.08	25
3249.89	21
3250.69	24.5
3251.5	23.5
3252.31	25.5
3253.11	22
3253.92	25.5
3254.72	22
3255.53	25
3256.33	21.5
3257.14	24
3257.94	24.5
3258.75	25.5
3259.55	23.5
3260.36	22.5
3261.16	23
3261.97	22.5
3262.77	23
3263.58	24.5
3264.38	26
3265.19	24.5
3265.99	21
3266.79	24.5
3267.6	22.5
3268.4	23.5
3269.21	23.5
3270.01	24.5
3270.81	23
3271.62	28
3272.42	25.5
3273.22	25
3274.03	26
3274.83	22.5
3275.63	24
3276.43	23.5
3277.24	19
3278.04	27
3278.84	25.5
3279.64	24
3280.45	25
3281.25	25.5
3282.05	21
3282.85	21
3283.65	22.5
3284.45	27
3285.26	23
3286.06	25
3286.86	24.5
3287.66	20
3288.46	27
3289.26	25
3290.06	22
3290.86	21.5
3291.66	22
3292.46	26.5
3293.26	27
3294.06	26
3294.86	26.5
3295.66	21
3296.46	28
3297.26	27
3298.06	23.5
3298.86	19
3299.66	22
3300.46	20.5
3301.26	21
3302.06	21
3302.86	25
3303.66	20.5
3304.46	26.5
3305.25	25.5
3306.05	25.5
3306.85	23
3307.65	25
3308.45	22.5
3309.25	23
3310.04	24.5
3310.84	24
3311.64	26.5
3312.44	22
3313.23	25.5
3314.03	23
3314.83	21.5
3315.63	20.5
3316.42	24.5
3317.22	23
3318.02	25
3318.81	23.5
3319.61	25
3320.41	23.5
3321.2	25
3322	23.5
3322.8	24.5
3323.59	22
3324.39	24.5
3325.18	25
3325.98	23.5
3326.78	23
3327.57	24.5
3328.37	25.5
3329.16	24
3329.96	22
3330.75	25.5
3331.55	24.5
3332.34	22
3333.14	20.5
3333.93	24.5
3334.73	22.5
3335.52	21.5
3336.31	24.5
3337.11	19
3337.9	24
3338.7	22
3339.49	26
3340.28	26.5
3341.08	24
3341.87	26.5
3342.66	23
3343.46	24.5
3344.25	22
3345.04	22.5
3345.84	24
3346.63	25.5
3347.42	23
3348.22	23.5
3349.01	24
3349.8	23
3350.59	24
3351.39	26.5
3352.18	29
3352.97	28
3353.76	23.5
3354.55	24.5
3355.35	24.5
3356.14	25
3356.93	24.5
3357.72	17.5
3358.51	25
3359.3	25.5
3360.09	22.5
3360.88	22.5
3361.67	22.5
3362.46	24.5
3363.26	21
3364.05	23
3364.84	23
3365.63	27.5
3366.42	27
3367.21	23.5
3368	27.5
3368.79	23
3369.58	25.5
3370.37	25.5
3371.15	26
3371.94	20.5
3372.73	25
3373.52	24
3374.31	26
3375.1	25
3375.89	22
3376.68	23.5
3377.47	24
3378.26	25.5
3379.04	26
3379.83	22
3380.62	28
3381.41	25.5
3382.2	27
3382.98	24.5
3383.77	24.5
3384.56	22.5
3385.35	23.5
3386.13	27
3386.92	22.5
3387.71	26
3388.5	23.5
3389.28	29.5
3390.07	20
3390.86	23
3391.64	24.5
3392.43	27
3393.22	27
3394	23.5
3394.79	21
3395.57	25
3396.36	24.5
3397.15	22.5
3397.93	22
3398.72	24.5
3399.5	25
3400.29	22.5
3401.07	23.5
3401.86	26.5
3402.65	21.5
3403.43	27
3404.21	24
3405	23
3405.78	23
3406.57	20
3407.35	23.5
3408.14	28
3408.92	27
3409.71	21.5
3410.49	27
3411.27	26
3412.06	23
3412.84	24.5
3413.62	22.5
3414.41	24.5
3415.19	22
3415.97	24.5
3416.76	22.5
3417.54	20
3418.32	25
3419.11	24
3419.89	26
3420.67	23.5
3421.46	25
3422.24	25.5
3423.02	24.5
3423.8	26
3424.58	22
3425.37	25
3426.15	19.5
3426.93	23.5
3427.71	25
3428.49	27
3429.27	21
3430.05	24
3430.84	23
3431.62	23
3432.4	26.5
3433.18	21.5
3433.96	22
3434.74	24
3435.52	23
3436.3	25
3437.08	29
3437.86	25
3438.64	24.5
3439.42	24
3440.2	21
3440.98	25
3441.76	24
3442.54	21
3443.32	24
3444.1	24.5
3444.88	26.5
3445.66	27
3446.44	23
3447.22	24
3448	23
3448.77	23
3449.55	26.5
3450.33	23.5
3451.11	21
3451.89	23
3452.67	24.5
3453.45	22
3454.22	22
3455	24.5
3455.78	23
3456.56	22
3457.33	23.5
3458.11	26
3458.89	22.5
3459.67	26
3460.44	24
3461.22	22.5
3462	23.5
3462.77	21
3463.55	22
3464.33	24
3465.1	22
3465.88	25
3466.66	24
3467.43	19.5
3468.21	20.5
3468.98	26
3469.76	26
3470.54	20.5
3471.31	21
3472.09	23
3472.86	23
3473.64	24
3474.41	21
3475.19	24
3475.96	24
3476.74	24
3477.51	25
3478.29	20.5
3479.06	25
3479.84	29
3480.61	22.5
3481.39	23
3482.16	26
3482.93	24
3483.71	23.5
3484.48	23
3485.25	21
3486.03	23
3486.8	24
3487.57	21.5
3488.35	22
3489.12	23.5
3489.89	24
3490.67	24
3491.44	26
3492.21	23
3492.99	22.5
3493.76	24
3494.53	23
3495.3	22.5
3496.08	23
3496.85	24
3497.62	18.5
3498.39	25
3499.16	26.5
3499.93	22.5
