#Acq. time (s)=	5
#Accumulations=	5
#Range (cm-¹)=	100...3500
#Windows=	4
#Autofocus=	Off
#AutoExposure=	Off
#Spike filter=	Multiple accum.
#Delay time (s)=	0
#Binning=	1
#Readout mode=	Signal
#DeNoise=	Off
#ICS correction=	Off
#Dark correction=	Off
#Inst. Process=	Off
#Instrument=	LabRAM HR Evol
#Detector=	Syncerity OE
#Objective=	x100_VIS
#Grating=	600 (500nm)
#ND Filter=	25%
#Laser=	633nm_Edge
#Hole=	100.021
#Range=	Visible
#Project=	verificaciones
#Sample=	at2
#Site=	lined
#Title=	bolusat2lined
#Remark=	
#Date=	13.01.2026 15:45
#Acquired=	13.01.2026 15:45:54
100.692	28.5
101.975	29
103.258	30.5
104.542	31
105.824	32.5
107.107	33.5
108.39	30
109.672	31
110.954	35
112.236	30
113.519	31.5
114.8	33
116.081	32
117.362	32.5
118.643	35
119.924	32.5
121.204	30
122.484	35
123.764	34
125.044	31.5
126.323	33
127.603	33
128.882	38
130.161	36.5
131.438	36.5
132.716	37
133.995	34
135.273	36
136.55	37
137.828	37
139.106	39.5
140.383	34
141.66	38.5
142.937	44
144.213	40
145.488	35.5
146.764	41
148.04	45
149.316	42
150.592	42
151.867	44
153.141	42.5
154.416	45
155.69	44
156.965	41
158.239	37
159.512	44.5
160.786	45.5
162.059	43
163.333	44.5
164.605	42
165.878	43
167.15	42.5
168.423	42.5
169.694	40
170.966	40
172.238	37
173.51	38
174.78	42
176.052	37
177.323	40.5
178.592	42
179.863	44
181.134	43.5
182.403	44.5
183.673	41
184.943	41.5
186.211	39
187.481	42
188.749	43
190.018	44
191.287	44.5
192.554	45
193.822	44
195.089	44
196.357	40.5
197.625	43
198.891	41.5
200.159	39.5
201.425	41.5
202.692	42
203.957	41
205.224	35
206.489	35.5
207.755	38.5
209.02	35
210.286	34
211.55	34
212.815	36
214.079	32.5
215.344	36.5
216.607	36.5
217.872	36
219.135	37
220.399	35
221.662	32
222.924	32
224.187	33
225.449	33
226.713	36
227.974	36
229.235	25
230.498	34
231.759	33
233.019	34.5
234.281	32.5
235.542	32
236.802	32.5
238.063	33.5
239.323	33
240.582	28.5
241.843	31.5
243.102	26.5
244.361	30
245.621	34
246.879	29
248.138	28
249.396	31.5
250.655	33.5
251.913	31.5
253.17	31.5
254.427	30.5
255.686	33.5
256.943	25.5
258.199	28.5
259.456	30.5
260.712	29.5
261.969	28.5
263.225	29.5
264.481	32
265.736	33.5
266.991	34
268.246	29.5
269.502	27.5
270.757	31
272.011	31
273.265	29
274.519	29
275.773	31.5
277.027	33.5
278.28	29
279.533	27.5
280.786	28.5
282.04	29
283.293	33
284.545	31
285.798	29
287.049	29.5
288.301	30
289.553	28.5
290.804	28
292.055	27.5
293.306	29.5
294.557	31
295.807	28
297.058	27
298.308	31
299.558	30
300.808	26.5
302.057	26
303.305	28
304.554	31.5
305.803	26
307.052	32
308.3	27.5
309.549	28
310.797	26
312.045	28.5
313.292	26
314.54	29.5
315.786	27
317.033	33.5
318.28	32.5
319.526	30.5
320.773	30.5
322.019	28
323.264	30.5
324.51	30.5
325.755	29
327.001	29.5
328.246	29.5
329.49	29
330.735	29
331.979	28.5
333.224	31.5
334.467	27.5
335.711	30
336.955	28
338.199	31
339.441	29
340.684	30
341.927	28
343.168	31
344.411	30.5
345.654	30
346.895	30
348.137	31
349.379	31
350.619	30.5
351.86	27
353.102	27.5
354.341	34
355.582	32
356.821	30
358.062	28
359.302	29.5
360.541	31.5
361.781	32
363.019	27.5
364.259	29.5
365.496	31.5
366.736	32.5
367.974	31
369.212	27
370.45	31
371.687	35.5
372.925	27.5
374.162	30
375.399	32.5
376.635	28.5
377.873	26
379.109	30.5
380.344	30
381.581	28
382.816	29
384.052	30.5
385.287	32
386.523	28
387.757	24.5
388.991	30
390.227	27
391.46	27
392.695	27
393.928	30
395.162	28.5
396.396	31.5
397.629	29
398.861	29
400.095	27
401.327	28
402.559	30
403.792	29.5
405.024	30
406.255	29
407.488	28
408.719	26
409.949	28
411.18	31
412.412	30
413.642	28
414.872	32
416.102	32.5
417.333	29.5
418.562	27.5
419.791	31
421.02	31.5
422.249	28.5
423.479	25
424.707	29
425.935	30
427.163	29
428.391	30
429.619	28
430.848	28.5
432.075	29
433.302	32
434.529	32.5
435.755	29.5
436.982	30
438.208	29
439.434	28
440.66	32
441.885	34
443.111	27.5
444.338	32
445.563	32.5
446.788	32.5
448.012	30
449.237	33
450.461	31
451.685	30
452.909	31.5
454.133	29.5
455.356	28.5
456.579	29
457.802	33.5
459.025	31
460.247	36
461.469	30.5
462.691	29.5
463.914	31
465.136	32.5
466.357	34
467.579	39
468.8	34
470.021	40
471.242	37
472.462	42
473.682	38
474.903	42
476.123	44
477.343	46.5
478.563	44
479.782	50
481	51
482.219	62
483.438	59
484.657	59
485.874	67.5
487.093	69.5
488.311	59.5
489.529	69.5
490.747	63
491.963	55.5
493.181	60
494.398	57
495.614	60.5
496.83	51
498.047	49
499.264	47
500.479	48
501.695	43.5
502.911	49
504.125	45.5
505.34	40.5
506.554	39
507.769	44
508.984	38.5
510.198	35.5
511.412	37
512.627	37
513.839	33
515.053	36.5
516.266	33.5
517.479	28
518.691	33
519.905	35
521.118	34
522.329	30
523.542	33
524.753	36
525.965	34
527.176	34.5
528.388	31
529.598	30.5
530.809	33.5
532.019	31.5
533.23	34
534.44	32
535.649	35.5
536.86	30.5
538.068	29.5
539.279	32.5
540.487	30
541.697	32
542.905	28
544.113	29.5
545.322	32
546.53	33
547.737	28
548.946	35
550.153	32
551.361	28.5
552.568	28.5
553.774	27
554.982	31.5
556.188	29
557.394	33
558.599	31.5
559.806	30
561.012	26
562.217	29.5
563.423	28.5
564.628	27
565.832	33
567.036	30
568.241	32.5
569.446	31.5
570.65	25.5
571.853	29
573.057	30.5
574.26	28
575.464	34
576.667	30.5
577.87	30.5
579.072	28
580.274	32.5
581.477	33
582.68	29.5
583.881	27.5
585.083	29
586.284	27
587.485	31.5
588.686	31.5
589.887	30.5
591.087	27.5
592.288	30
593.488	27
594.688	28
595.888	30
597.087	32
598.287	29
599.486	26.5
600.685	28.5
601.884	29
603.082	30
604.281	28
605.479	28
606.677	31.5
607.875	30
609.073	34.5
610.27	31
611.468	29.5
612.665	29
613.862	27.5
615.058	31.5
616.255	28.5
617.451	34.5
618.648	31
619.842	29
621.038	25
622.234	29.5
623.429	35
624.624	32
625.819	30
627.013	32
628.207	31.5
629.402	28
630.596	27
631.79	31.5
632.983	32
634.177	29
635.37	35
636.564	31.5
637.755	31
638.948	30.5
640.141	30
641.334	27.5
642.525	30
643.717	30
644.909	28.5
646.099	30.5
647.291	25
648.483	32
649.674	26
650.864	30.5
652.055	34.5
653.244	31
654.435	26.5
655.625	30.5
656.814	34.5
658.004	27.5
659.193	33.5
660.382	33
661.571	30.5
662.759	30.5
663.948	34.5
665.135	37
666.324	32.5
667.511	34
668.7	34
669.886	34
671.074	32.5
672.262	31
673.448	31
674.634	32
675.821	37.5
677.007	35
678.194	34
679.379	36
680.565	37.5
681.75	35.5
682.936	36
684.121	37
685.305	34
686.491	34.5
687.675	34.5
688.86	34
690.043	35.5
691.227	38.5
692.411	39
693.594	40
694.777	37
695.961	40
697.144	40
698.326	39
699.509	40
700.691	40
701.873	41.5
703.056	41
704.237	49.5
705.419	45
706.599	51
707.782	48.5
708.962	56
710.143	53.5
711.323	52.5
712.504	49.5
713.684	43.5
714.864	35
716.043	39.5
717.223	36
718.403	35.5
719.582	27
720.761	33
721.94	36.5
723.118	34
724.296	29
725.474	30
726.652	30
727.831	33.5
729.009	31
730.186	32
731.363	32.5
732.54	31
733.717	27
734.893	29.5
736.07	31.5
737.246	32
738.422	30
739.598	26
740.773	30.5
741.949	29
743.124	34
744.299	26.5
745.474	29.5
746.649	30.5
747.823	34
748.997	29
750.172	27
751.346	33.5
752.519	24.5
753.693	29.5
754.867	31.5
756.038	31
757.211	31
758.384	29
759.557	31
760.73	30.5
761.902	34.5
763.074	27.5
764.246	31.5
765.417	31.5
766.588	32
767.76	27
768.931	28.5
770.102	31.5
771.271	33
772.442	31
773.613	31.5
774.783	32
775.952	34.5
777.122	31.5
778.291	34.5
779.461	31
780.629	32.5
781.798	32
782.967	30
784.135	32.5
785.304	32.5
786.472	32
787.639	34.5
788.807	31.5
789.975	33
791.142	32.5
792.309	31.5
793.477	35.5
794.642	32.5
795.81	34
796.975	32.5
798.142	33
799.308	33
800.473	31
801.639	34.5
802.804	29
803.97	29
805.134	32
806.299	33.5
807.463	28
808.628	32.5
809.792	29
810.957	28.5
812.12	31.5
813.284	26
814.447	32
815.611	29.5
816.773	29
817.937	31
819.099	29.5
820.261	27
821.424	29.5
822.585	25.5
823.748	31.5
824.909	28
826.07	27.5
827.232	27.5
828.393	24.5
829.554	30
830.715	26.5
831.875	26
833.035	29.5
834.196	27
835.356	26
836.515	27
837.676	29
838.835	30.5
839.994	25.5
841.152	24
842.312	30
843.47	32
844.629	27.5
845.786	29
846.946	31
848.103	28
849.261	26.5
850.418	28
851.575	32
852.733	25.5
853.89	27.5
855.046	29.5
856.203	31
857.359	30.5
858.515	29
859.67	31
860.827	26
861.983	30.5
863.138	35
864.293	32.5
865.448	32
866.603	32
867.757	24
868.912	32
870.066	30
871.22	26
872.374	33
873.527	27.5
874.681	32.5
875.834	30
876.987	30.5
878.14	26
879.293	33
880.445	31
881.598	35.5
882.75	28
883.902	30.5
885.054	28.5
886.206	26.5
887.357	30.5
888.507	25
889.658	28
890.809	25
891.96	27.5
893.111	29.5
894.261	26
895.411	28.5
896.561	24
897.71	29.5
898.86	33
900.009	21.5
901.159	33
902.308	28.5
903.455	25.5
904.604	28
905.753	29
906.901	28.5
908.048	29
909.197	25.5
910.344	28.5
911.492	25
912.639	32.5
913.786	28.5
914.933	31
916.079	26
917.226	30
918.373	31.5
919.518	25
920.664	30
921.81	25.5
922.955	29.5
924.101	31
925.245	29.5
926.391	27
927.536	26
928.68	28
929.825	28
930.968	28.5
932.113	26
933.256	29.5
934.4	26
935.543	25
936.687	27.5
937.83	31
938.973	27
940.115	25
941.258	22.5
942.399	26
943.542	27.5
944.684	27.5
945.826	29
946.967	31
948.109	31
949.25	26.5
950.392	24
951.532	29.5
952.672	27.5
953.813	25
954.953	26.5
956.093	28.5
957.233	28
958.373	26
959.512	27
960.652	27.5
961.791	28.5
962.929	25
964.069	27.5
965.207	23
966.345	30
967.484	28
968.622	25
969.759	29.5
970.896	27.5
972.035	24.5
973.172	26.5
974.309	27.5
975.445	28.5
976.582	27
977.719	27
978.855	28
979.991	29.5
981.127	27
982.263	30.5
983.398	24
984.535	27
985.67	25
986.804	25
987.939	26.5
989.074	27
990.208	28
991.342	26
992.476	26.5
993.61	26
994.744	26.5
995.877	24
997.01	26
998.143	27
999.276	30
1000.41	27.5
1001.54	30.5
1002.67	25.5
1003.81	24
1004.94	26.5
1006.07	30
1007.2	25.5
1008.33	26.5
1009.47	29
1010.6	27.5
1011.73	31
1012.86	23.5
1013.99	24
1015.12	26
1016.25	24.5
1017.38	25.5
1018.51	29
1019.64	29
1020.77	28
1021.9	32.5
1023.03	25
1024.15	27
1025.28	25
1026.41	22
1027.54	27
1028.67	26
1029.8	23
1030.92	25
1032.05	26
1033.18	28.5
1034.31	26.5
1035.43	27.5
1036.56	28
1037.69	25
1038.81	25.5
1039.94	28
1041.07	27.5
1042.19	22
1043.32	29
1044.44	23
1045.57	27
1046.69	27.5
1047.82	25.5
1048.94	28
1050.07	29
1051.19	32.5
1052.32	23.5
1053.44	26.5
1054.57	24.5
1055.69	26
1056.81	26.5
1057.94	27
1059.06	32.5
1060.18	27.5
1061.31	29.5
1062.43	24.5
1063.55	32.5
1064.67	25
1065.8	24
1066.92	25
1068.04	28.5
1069.16	22
1070.28	23.5
1071.4	28
1072.52	26.5
1073.64	25
1074.76	32
1075.89	27
1077.01	22
1078.13	26.5
1079.25	25
1080.37	30
1081.49	28.5
1082.6	26.5
1083.72	26
1084.84	26
1085.96	28
1087.08	27.5
1088.2	25.5
1089.32	24
1090.43	27
1091.55	26
1092.67	23.5
1093.79	27.5
1094.91	24
1096.02	29
1097.14	28
1098.26	24.5
1099.37	26.5
1100.49	26
1101.61	25.5
1102.72	26.5
1103.84	24.5
1104.95	29
1106.07	24.5
1107.18	24
1108.3	25.5
1109.41	27
1110.53	26
1111.64	23.5
1112.76	24
1113.87	26.5
1114.99	25
1116.1	23
1117.21	28.5
1118.33	26.5
1119.44	24
1120.55	25
1121.67	28.5
1122.78	25
1123.89	25
1125	27
1126.12	25
1127.23	29.5
1128.34	25.5
1129.45	24
1130.56	27.5
1131.68	25
1132.79	26
1133.9	25.5
1135.01	25.5
1136.12	25
1137.23	25
1138.34	24.5
1139.45	26
1140.56	29
1141.67	25
1142.78	26.5
1143.89	24
1145	31
1146.11	27.5
1147.22	24
1148.32	26.5
1149.43	26
1150.54	30
1151.65	26
1152.76	28.5
1153.86	22.5
1154.97	26
1156.08	21.5
1157.19	23
1158.29	26.5
1159.4	24
1160.51	24
1161.61	27
1162.72	24.5
1163.83	24.5
1164.93	21.5
1166.04	24
1167.14	27.5
1168.25	30.5
1169.35	28
1170.46	24.5
1171.56	21.5
1172.67	27.5
1173.77	27.5
1174.88	26.5
1175.98	27
1177.08	22
1178.19	24
1179.29	25
1180.4	26
1181.5	24
1182.6	23
1183.71	22
1184.81	26
1185.91	24.5
1187.01	23
1188.12	26.5
1189.22	27
1190.32	26.5
1191.42	21.5
1192.52	26.5
1193.62	23.5
1194.72	22.0073
1195.83	22.4619
1196.93	25.0585
1198.03	23.6328
1199.13	28.1894
1200.23	24.9236
1201.33	24.1204
1202.43	27.8114
1203.53	25.9392
1204.63	26.9224
1205.73	25.3727
1206.83	27.4961
1207.92	25.981
1209.02	27.1922
1210.12	25.9689
1211.22	25.7421
1212.32	23.011
1213.42	27.2694
1214.51	24.6589
1215.61	23.8306
1216.71	22.9179
1217.81	21.6451
1218.9	29.1876
1220	23.7401
1221.1	27.3335
1222.19	25.1423
1223.29	26.4109
1224.39	23.9571
1225.48	26.3252
1226.58	26.7543
1227.68	27.9636
1228.77	23.7242
1229.87	25.2015
1230.96	25.0886
1232.06	28.1279
1233.15	24.1399
1234.25	23.5435
1235.34	28.0628
1236.43	23.5893
1237.53	26.1682
1238.62	27.1546
1239.72	23.7055
1240.81	25.418
1241.9	25.5471
1243	26.2062
1244.09	24.6036
1245.18	24.7284
1246.27	26.6782
1247.37	24.2587
1248.46	26.0828
1249.55	27.4716
1250.64	24.0766
1251.74	25.6849
1252.83	23.0936
1253.92	24.7345
1255.01	27.0346
1256.1	25.7579
1257.19	29.0909
1258.28	24.2569
1259.38	26.8952
1260.46	25.6632
1261.56	27.3073
1262.65	27.4743
1263.74	26.1578
1264.82	27.6032
1265.91	27.8809
1267	25.4723
1268.09	27.1198
1269.18	28.3836
1270.27	22.074
1271.36	25.0026
1272.45	21.9968
1273.54	26.1129
1274.63	24.9662
1275.71	24.995
1276.8	26.1428
1277.89	26.2004
1278.98	24.4851
1280.06	25.4331
1281.15	24.6087
1282.24	22.72
1283.32	26.1696
1284.41	25.0467
1285.5	25.6589
1286.58	24.7377
1287.67	25.0097
1288.76	23.7502
1289.84	23.801
1290.93	25.8689
1292.01	26.201
1293.1	24.8305
1294.18	24.8436
1295.27	25.4858
1296.35	27.8244
1297.44	25.6938
1298.52	22.3542
1299.6	24.248
1300.69	25.4733
1301.77	26.4283
1302.86	25.3156
1303.94	25.5892
1305.02	23.8037
1306.11	23
1306.41	23
1307.5	25.5
1308.59	26.5
1309.68	25
1310.77	20.5
1311.85	21.5
1312.94	29.5
1314.03	23
1315.11	20.5
1316.2	25
1317.29	29
1318.37	25.5
1319.46	22
1320.55	24.5
1321.63	21
1322.72	26
1323.8	26
1324.89	29.5
1325.98	24
1327.06	26
1328.15	26
1329.23	23.5
1330.31	26.5
1331.4	23
1332.48	24
1333.57	25.5
1334.65	21
1335.74	27
1336.82	23.5
1337.9	20
1338.99	26.5
1340.07	22.5
1341.15	27
1342.24	25
1343.32	27.5
1344.4	27.5
1345.48	24
1346.56	18
1347.65	23
1348.73	25
1349.81	28.5
1350.89	19.5
1351.97	26
1353.05	24
1354.13	23.5
1355.21	25.5
1356.29	24
1357.37	25.5
1358.46	28
1359.54	27
1360.62	25
1361.69	25.5
1362.77	24.5
1363.85	29.5
1364.93	22
1366.01	26
1367.09	26.5
1368.17	25.5
1369.25	24.5
1370.33	28
1371.41	24
1372.48	23.5
1373.56	26.5
1374.64	24.5
1375.72	26.5
1376.79	29.5
1377.87	25
1378.95	24
1380.02	22.5
1381.1	28.5
1382.18	27.5
1383.25	26
1384.33	27
1385.4	29.5
1386.48	30
1387.56	27
1388.63	27
1389.71	27
1390.78	27.5
1391.86	31
1392.93	28
1394.01	25
1395.08	33
1396.15	31.5
1397.23	26.5
1398.3	28
1399.38	33
1400.45	31
1401.52	29.5
1402.6	33
1403.67	30.5
1404.74	31
1405.81	31
1406.89	32
1407.96	29
1409.03	31
1410.1	32
1411.17	31.5
1412.25	31
1413.32	34.5
1414.39	34
1415.46	27
1416.53	30.5
1417.6	32.5
1418.67	31.5
1419.74	33
1420.81	29
1421.88	29.5
1422.95	29.5
1424.02	27.5
1425.09	25.5
1426.16	29.5
1427.23	24
1428.3	27.5
1429.37	24.5
1430.44	29
1431.51	28
1432.58	28.5
1433.64	29.5
1434.71	27.5
1435.78	28.5
1436.85	25
1437.92	26.5
1438.98	27
1440.05	26.5
1441.12	29.5
1442.18	28
1443.25	29
1444.32	27.5
1445.38	27
1446.45	28
1447.52	30
1448.58	25.5
1449.65	24.5
1450.71	26.5
1451.78	31.5
1452.84	26.5
1453.91	24
1454.97	28
1456.04	24.5
1457.1	26.5
1458.17	25
1459.23	24.5
1460.3	25
1461.36	24.5
1462.42	27.5
1463.49	29
1464.55	23.5
1465.61	30.5
1466.68	23.5
1467.74	26
1468.8	27
1469.86	26.5
1470.93	23
1471.99	27
1473.05	26
1474.11	27
1475.17	24
1476.24	29.5
1477.3	24.5
1478.36	22.5
1479.42	24
1480.48	27.5
1481.54	25
1482.6	24.5
1483.66	25
1484.72	27.5
1485.78	26
1486.84	27
1487.9	26.5
1488.96	25.5
1490.02	27.5
1491.08	27
1492.14	28.5
1493.2	26
1494.26	25.5
1495.31	28
1496.37	32
1497.43	25.5
1498.49	25
1499.55	21.5
1500.6	24.5
1501.66	21
1502.72	30
1503.78	23
1504.83	26
1505.89	27
1506.95	24
1508	24
1509.06	25.5
1510.12	24.5
1511.17	25.5
1512.23	25.5
1513.28	27.5
1514.34	27.5
1515.39	26.5
1516.45	26.5
1517.5	27.5
1518.56	24
1519.61	28
1520.67	27
1521.72	30.5
1522.78	28
1523.83	23
1524.88	26.5
1525.94	27
1526.99	25
1528.05	25.5
1529.1	27
1530.15	23
1531.2	31
1532.26	24
1533.31	25.5
1534.36	25
1535.41	27
1536.47	27.5
1537.52	29
1538.57	23.5
1539.62	27.5
1540.67	23.5
1541.72	27.5
1542.77	20
1543.83	26
1544.88	27
1545.93	27
1546.98	28.5
1548.03	27
1549.08	27
1550.13	24
1551.18	27
1552.23	26.5
1553.28	26.5
1554.32	26
1555.37	28
1556.42	26.5
1557.47	27
1558.52	26
1559.57	26
1560.62	29
1561.67	27.5
1562.71	27.5
1563.76	23
1564.81	28
1565.86	27
1566.9	21.5
1567.95	27.5
1569	26
1570.04	23.5
1571.09	25
1572.14	25
1573.18	25.5
1574.23	24.5
1575.27	28.5
1576.32	28.5
1577.37	27
1578.41	28
1579.46	23
1580.5	27.5
1581.55	27.5
1582.59	27.5
1583.64	24
1584.68	23.5
1585.72	26.5
1586.77	31.5
1587.81	29
1588.86	24
1589.9	24
1590.94	23
1591.99	26.5
1593.03	27
1594.07	24.5
1595.12	21
1596.16	24.5
1597.2	26.5
1598.24	22
1599.29	26.5
1600.33	25
1601.37	27.5
1602.41	27
1603.45	22.5
1604.49	19.5
1605.53	26.5
1606.58	28
1607.62	27
1608.66	25
1609.7	24
1610.74	28
1611.78	26
1612.82	21.5
1613.86	26.5
1614.9	27
1615.94	23
1616.98	25.5
1618.02	27.5
1619.06	25
1620.09	25
1621.13	28
1622.17	22.5
1623.21	28.5
1624.25	26
1625.29	26
1626.32	27
1627.36	23
1628.4	25.5
1629.44	29.5
1630.47	25
1631.51	24.5
1632.55	25
1633.58	25.5
1634.62	24.5
1635.66	28
1636.69	21
1637.73	28
1638.77	26
1639.8	29
1640.84	22.5
1641.87	26
1642.91	23
1643.94	30.5
1644.98	24.5
1646.01	24
1647.05	25
1648.08	26.5
1649.12	31
1650.15	27.5
1651.18	27.5
1652.22	23
1653.25	27
1654.29	25
1655.32	24
1656.35	25
1657.39	25
1658.42	32
1659.45	23
1660.48	26.5
1661.52	26.5
1662.55	22
1663.58	26.5
1664.61	26
1665.64	22.5
1666.68	26.5
1667.71	26
1668.74	24.5
1669.77	27
1670.8	24
1671.83	29.5
1672.86	25.5
1673.89	27.5
1674.92	29.5
1675.95	24
1676.98	30
1678.01	21.5
1679.04	26.5
1680.07	26.5
1681.1	23.5
1682.13	30
1683.16	23.5
1684.19	26.5
1685.22	26.5
1686.25	30.5
1687.27	26
1688.3	22.5
1689.33	25
1690.36	26.5
1691.38	27
1692.41	27
1693.44	25.5
1694.47	26
1695.49	24
1696.52	23
1697.55	24.5
1698.57	28
1699.6	23.5
1700.63	27.5
1701.65	24
1702.68	25
1703.7	25
1704.73	25
1705.76	25.5
1706.78	23.5
1707.81	27
1708.83	22.5
1709.86	23
1710.88	25
1711.91	24.5
1712.93	24.5
1713.95	23.5
1714.98	26
1716	24.5
1717.03	28
1718.05	26
1719.07	25
1720.1	27
1721.12	24.5
1722.14	25
1723.16	27
1724.19	25.5
1725.21	27
1726.23	28
1727.25	26
1728.28	26
1729.3	26.5
1730.32	26
1731.34	30.5
1732.36	25.5
1733.38	24.5
1734.41	23.5
1735.43	23.5
1736.45	25.5
1737.47	26
1738.49	27
1739.51	26.5
1740.53	27
1741.55	23.5
1742.57	29
1743.59	30
1744.61	23
1745.63	25.5
1746.64	21.5
1747.66	24
1748.68	29
1749.7	28
1750.72	26.5
1751.74	26
1752.76	26
1753.77	25
1754.79	29.5
1755.81	29
1756.83	27.5
1757.84	31
1758.86	22
1759.88	24.5
1760.9	25
1761.91	24.5
1762.93	28.5
1763.95	26
1764.96	25
1765.98	27.5
1766.99	26
1768.01	25
1769.02	27
1770.04	25
1771.06	24.5
1772.07	27
1773.09	24
1774.1	28.5
1775.12	23
1776.13	27.5
1777.14	25.5
1778.16	24.5
1779.17	24.5
1780.19	25
1781.2	24
1782.21	25.5
1783.23	25.5
1784.24	27
1785.25	28.5
1786.27	23
1787.28	24.5
1788.29	19.5
1789.3	26
1790.32	26.5
1791.33	26.5
1792.34	26.5
1793.35	27
1794.36	27.5
1795.38	29
1796.39	27
1797.4	25.5
1798.41	29
1799.42	25.5
1800.43	22
1801.44	22
1802.45	28
1803.46	25
1804.47	26
1805.48	30
1806.49	24.5
1807.5	26
1808.51	24.5
1809.52	23
1810.53	22.5
1811.54	26
1812.55	23.5
1813.56	28.5
1814.57	26
1815.57	24
1816.58	27
1817.59	26.5
1818.6	26
1819.61	29
1820.61	26
1821.62	27.5
1822.63	20
1823.64	23.5
1824.64	23.5
1825.65	28
1826.66	22
1827.66	26
1828.67	24.5
1829.68	24
1830.68	26
1831.69	23.5
1832.69	24
1833.7	25
1834.7	26.5
1835.71	27
1836.71	25
1837.72	28
1838.72	21
1839.73	24
1840.73	23.5
1841.74	27.5
1842.74	25.5
1843.75	24
1844.75	25
1845.75	27.5
1846.76	23.5
1847.76	28.5
1848.76	25
1849.77	24.5
1850.77	25
1851.77	25.5
1852.78	26
1853.78	24.5
1854.78	24
1855.78	26
1856.78	28
1857.79	24.5
1858.79	26.5
1859.79	24.5
1860.79	24.5
1861.79	25
1862.79	25
1863.79	27.5
1864.79	30
1865.79	27
1866.8	20
1867.8	28
1868.8	24.5
1869.8	25.5
1870.8	24.5
1871.8	26
1872.8	24
1873.79	23
1874.79	22.5
1875.79	23
1876.79	23
1877.79	26.5
1878.79	26
1879.79	28
1880.79	25.5
1881.78	27
1882.78	24
1883.78	28
1884.78	27
1885.77	30.5
1886.77	24
1887.77	27.5
1888.77	27.5
1889.76	23.5
1890.76	25
1891.76	27
1892.75	24
1893.75	25
1894.75	29.5
1895.74	25
1896.74	24.5
1897.73	26.5
1898.73	25
1899.73	25
1900.72	25
1901.72	25
1902.71	24
1903.7	24.5
1904.7	24
1905.69	25
1906.69	25
1907.68	23
1908.68	22.5
1909.67	21
1910.66	26
1911.66	29
1912.65	25
1913.64	25.5
1914.64	26
1915.63	25
1916.62	26
1917.62	25.5
1918.61	25.5
1919.6	22
1920.59	23.5
1921.58	23
1922.58	26
1923.57	25.5
1924.56	25
1925.55	26
1926.54	27
1927.53	29.5
1928.52	22.5
1929.51	25.5
1930.51	20
1931.5	21
1932.49	24
1933.48	25
1934.47	26.5
1935.46	25
1936.45	22
1937.44	26
1938.42	22
1939.41	27
1940.4	22.5
1941.39	24.5
1942.38	25
1943.37	27
1944.36	25.5
1945.35	31
1946.33	22
1947.32	24
1948.31	23.5
1949.3	22.5
1950.29	25
1951.27	27.5
1952.26	26
1953.25	25
1954.23	24.5
1955.22	25.5
1956.21	24
1957.19	24.5
1958.18	28.5
1959.17	26
1960.15	24.5
1961.14	23
1962.13	22.5
1963.11	24.5
1964.1	25
1965.08	26.5
1966.07	27.5
1967.05	24
1968.04	23
1969.02	28.5
1970.01	26
1970.99	25.5
1971.97	25
1972.96	24.5
1973.94	23.5
1974.93	26
1975.91	22
1976.89	25
1977.88	19
1978.86	20
1979.84	24
1980.83	24.5
1981.81	23
1982.79	25
1983.77	26
1984.76	25
1985.74	27
1986.72	22
1987.7	25
1988.68	24.5
1989.67	22.5
1990.65	24
1991.63	22.5
1992.61	24
1993.59	20.5
1994.57	26
1995.55	29.5
1996.53	24
1997.51	22.5
1998.49	27
1999.47	21.5
2000.45	22
2001.43	22.5
2002.41	25.5
2003.39	23.5
2004.37	28
2005.35	20
2006.33	27
2007.31	19
2008.29	22.5
2009.26	25.5
2010.24	25
2011.22	25.5
2012.2	23
2013.18	24
2014.15	23.5
2015.13	25.5
2016.11	27
2017.09	24.5
2018.06	23.5
2019.04	22
2020.02	24
2021	24.5
2021.97	25
2022.95	23
2023.92	23.5
2024.9	22.5
2025.88	24.5
2026.85	24
2027.83	26
2028.8	24.5
2029.78	22.5
2030.75	24.5
2031.73	24.5
2032.7	22
2033.68	25.5
2034.65	25
2035.63	23.5
2036.6	26.5
2037.58	25
2038.55	24.5
2039.52	23
2040.5	22.5
2041.47	27
2042.45	23.5
2043.42	23
2044.39	24.5
2045.36	25.5
2046.34	20
2047.31	26
2048.28	24
2049.26	24.5
2050.23	27
2051.2	24
2052.17	28
2053.14	24
2054.12	26.5
2055.09	24
2056.06	22
2057.03	24
2058	25.5
2058.97	24
2059.94	21
2060.91	20.5
2061.88	21
2062.85	24
2063.82	25.5
2064.79	20.5
2065.76	25
2066.73	24.5
2067.7	23
2068.67	22
2069.64	24.5
2070.61	22
2071.58	25.5
2072.55	26.5
2073.52	26
2074.49	23
2075.45	24
2076.42	27.5
2077.39	25.5
2078.36	26.5
2079.33	21.5
2080.29	26.5
2081.26	23
2082.23	24.5
2083.2	24
2084.16	25.5
2085.13	21
2086.1	24.5
2087.06	24.5
2088.03	25
2089	20.5
2089.96	19
2090.93	25
2091.89	21.5
2092.86	24
2093.83	21
2094.79	24
2095.76	26
2096.72	24.5
2097.69	25.5
2098.65	23.5
2099.62	22.5
2100.58	25
2101.55	27
2102.51	21
2103.47	27.5
2104.44	27.5
2105.4	24.5
2106.36	24.5
2107.33	21
2108.29	25
2109.25	25
2110.22	28.5
2111.18	22.5
2112.14	22
2113.11	21
2114.07	21.5
2115.03	26
2115.99	29
2116.96	23
2117.92	22
2118.88	25.5
2119.84	24
2120.8	25
2121.76	21
2122.72	22.5
2123.68	24
2124.65	23
2125.61	22.5
2126.57	24.5
2127.53	22.5
2128.49	22.5
2129.45	25.5
2130.41	22
2131.37	20
2132.33	23
2133.29	24.5
2134.25	23.5
2135.21	22.5
2136.17	23.5
2137.12	23.5
2138.08	23
2139.04	23.5
2140	23.5
2140.96	27
2141.92	24
2142.88	21.4979
2143.83	24.9477
2144.79	24.5121
2145.75	26.9044
2146.71	22.0058
2147.66	22.9733
2148.62	18.7524
2149.58	22.0729
2150.53	24.4898
2151.49	24.8855
2152.45	24.8081
2153.4	23.8926
2154.36	22.4337
2155.32	22.6746
2156.27	23.5894
2157.23	23.1238
2158.19	25.2485
2159.14	22.0508
2160.1	21.195
2161.05	24.2836
2162.01	21.3774
2162.96	21.9693
2163.92	25.1735
2164.87	22.2813
2165.83	23.028
2166.78	23.1682
2167.73	22.509
2168.69	24.4181
2169.64	22.268
2170.6	24.9325
2171.55	20.5041
2172.5	24.0015
2173.46	22.5459
2174.41	22.2504
2175.36	22.5119
2176.32	21.7142
2177.27	21.541
2178.22	25.511
2179.18	23.1564
2180.13	22.2785
2181.08	22.5731
2182.03	23.3305
2182.98	23.8616
2183.94	24.3243
2184.89	25.2398
2185.84	23.4348
2186.79	24.286
2187.74	23.8401
2188.69	22.4429
2189.64	22.7591
2190.6	22.4625
2191.55	22.2278
2192.5	23.4422
2193.45	20.9648
2194.4	21.0479
2195.35	22.5772
2196.3	21.6752
2197.25	21.7107
2198.2	23.9132
2199.15	21.1666
2200.1	22.577
2201.04	22.6185
2201.99	21.017
2202.94	21.9149
2203.89	23.0607
2204.84	22.9268
2205.79	23.2401
2206.74	20.2251
2207.69	23.739
2208.63	21.7273
2209.58	22.2985
2210.53	20.4765
2211.48	25.3969
2212.43	22.9992
2213.37	22.4472
2214.32	24.4561
2215.27	23.2617
2216.21	24.4555
2217.16	23.4416
2218.11	22.4296
2219.05	24.0306
2220	22.3196
2220.95	21.2516
2221.89	23.158
2222.84	22.6335
2223.78	21.4605
2224.73	21.4971
2225.68	21.9985
2226.62	22.2184
2227.57	24.5373
2228.51	22.1381
2229.46	22.4852
2230.4	23.8647
2231.35	24.5922
2232.29	23.3084
2233.24	20.888
2234.18	23.7047
2235.12	23.244
2236.07	23.794
2237.01	22.9026
2237.95	22.8054
2238.9	24.1516
2239.84	21.4628
2240.06	20.5
2241.01	19
2241.96	21.5
2242.91	22.5
2243.86	19.5
2244.8	24.5
2245.75	20
2246.7	23.5
2247.65	25.5
2248.59	23.5
2249.54	24.5
2250.49	23
2251.43	22.5
2252.38	18
2253.33	24
2254.27	21.5
2255.22	26
2256.16	22.5
2257.11	26
2258.06	22
2259	23
2259.95	21
2260.89	22
2261.84	24
2262.78	25.5
2263.73	20
2264.67	22
2265.62	21.5
2266.56	23.5
2267.5	23
2268.45	23.5
2269.39	25.5
2270.34	21.5
2271.28	22
2272.22	22
2273.17	18
2274.11	22
2275.05	23
2276	23.5
2276.94	25
2277.88	22.5
2278.82	21.5
2279.77	22.5
2280.71	22
2281.65	21
2282.59	22.5
2283.53	22
2284.48	24.5
2285.42	21
2286.36	23
2287.3	24.5
2288.24	21
2289.18	22.5
2290.12	23
2291.06	24
2292	21.5
2292.94	19.5
2293.89	28
2294.83	21
2295.77	23.5
2296.71	19
2297.65	22
2298.58	22.5
2299.52	23
2300.46	22
2301.4	23
2302.34	25.5
2303.28	24.5
2304.22	20.5
2305.16	22.5
2306.1	22
2307.03	23
2307.97	26
2308.91	23.5
2309.85	21.5
2310.79	29.5
2311.72	22
2312.66	22
2313.6	23
2314.54	23.5
2315.47	24
2316.41	24
2317.35	26
2318.28	21.5
2319.22	21.5
2320.16	23.5
2321.09	22.5
2322.03	27.5
2322.96	23.5
2323.9	24.5
2324.84	26
2325.77	27
2326.71	22.5
2327.64	22
2328.58	17.5
2329.51	24.5
2330.45	20
2331.38	25
2332.32	25.5
2333.25	20
2334.18	27.5
2335.12	24
2336.05	23.5
2336.99	24
2337.92	20
2338.85	25.5
2339.79	22.5
2340.72	23.5
2341.65	20.5
2342.59	18.5
2343.52	25.5
2344.45	17
2345.39	25.5
2346.32	20
2347.25	22
2348.18	23.5
2349.11	24
2350.05	24.5
2350.98	20.5
2351.91	24
2352.84	23
2353.77	26
2354.7	24
2355.64	26
2356.57	19.5
2357.5	26
2358.43	25.5
2359.36	25
2360.29	23
2361.22	23
2362.15	22.5
2363.08	23
2364.01	21
2364.94	24
2365.87	23
2366.8	25.5
2367.73	24.5
2368.66	25
2369.58	21
2370.51	24
2371.44	26.5
2372.37	23.5
2373.3	27.5
2374.23	24.5
2375.16	23.5
2376.08	25
2377.01	25.5
2377.94	24
2378.87	22.5
2379.8	23.5
2380.72	22
2381.65	22.5
2382.58	23.5
2383.5	22.5
2384.43	24
2385.36	18
2386.28	24.5
2387.21	29
2388.14	21
2389.06	23.5
2389.99	22.5
2390.91	25
2391.84	23
2392.77	26.5
2393.69	22.5
2394.62	26
2395.54	23
2396.47	30
2397.39	22
2398.32	22.5
2399.24	26.5
2400.16	25
2401.09	23.5
2402.01	26
2402.94	24
2403.86	26.5
2404.78	23.5
2405.71	23.5
2406.63	22.5
2407.56	22
2408.48	20
2409.4	21
2410.32	23.5
2411.25	22
2412.17	26
2413.09	26.5
2414.02	23
2414.94	21.5
2415.86	22
2416.78	23
2417.7	21
2418.63	21.5
2419.55	26.5
2420.47	22
2421.39	24
2422.31	23
2423.23	24.5
2424.15	26.5
2425.07	23
2425.99	23
2426.92	22.5
2427.84	22
2428.76	20.5
2429.68	23.5
2430.59	21.5
2431.51	23.5
2432.43	25
2433.35	22
2434.27	25.5
2435.19	21.5
2436.11	25
2437.03	23.5
2437.95	23.5
2438.87	27.5
2439.79	26.5
2440.71	24.5
2441.62	28.5
2442.54	22
2443.46	22
2444.38	21.5
2445.3	22
2446.21	21.5
2447.13	26
2448.05	23
2448.97	21
2449.88	25
2450.8	22.5
2451.72	24.5
2452.63	21.5
2453.55	26
2454.47	21
2455.38	25
2456.3	24.5
2457.21	18
2458.13	22
2459.05	23
2459.96	22
2460.88	23.5
2461.79	24
2462.71	26.5
2463.62	22
2464.54	25.5
2465.45	22.5
2466.37	22
2467.28	21
2468.2	27
2469.11	28
2470.02	27.5
2470.94	20.5
2471.85	25
2472.77	22.5
2473.68	25.5
2474.59	23
2475.51	21
2476.42	25
2477.33	25
2478.25	22
2479.16	27
2480.07	25
2480.98	20.5
2481.9	23
2482.81	22.5
2483.72	26
2484.63	25
2485.55	26
2486.46	19
2487.37	24.5
2488.28	27.5
2489.19	25
2490.1	22.5
2491.01	22.5
2491.92	24
2492.83	25
2493.74	20
2494.66	30
2495.57	25
2496.48	25.5
2497.39	26
2498.3	23.5
2499.21	25
2500.12	23
2501.03	28
2501.93	25.5
2502.84	25
2503.75	22
2504.66	24
2505.57	24.5
2506.48	23.5
2507.39	23
2508.3	25
2509.21	25
2510.11	28
2511.02	22
2511.93	26
2512.84	24
2513.75	27
2514.65	25
2515.56	21
2516.47	25.5
2517.37	23.5
2518.28	24.5
2519.19	22.5
2520.09	19
2521	24.5
2521.91	23
2522.81	25
2523.72	24
2524.63	24.5
2525.53	23.5
2526.44	24.5
2527.34	27
2528.25	24.5
2529.16	22.5
2530.06	18.5
2530.97	25
2531.87	24
2532.78	27.5
2533.68	25
2534.58	23.5
2535.49	24
2536.39	25
2537.3	24
2538.2	24.5
2539.11	25
2540.01	19.5
2540.91	25
2541.82	27.5
2542.72	22
2543.62	22.5
2544.53	22
2545.43	23.5
2546.33	21.5
2547.23	23.5
2548.14	25
2549.04	24.5
2549.94	22
2550.84	25
2551.75	25
2552.65	25
2553.55	23
2554.45	25.5
2555.35	23.5
2556.26	24
2557.16	25.5
2558.06	22.5
2558.96	24.5
2559.86	26
2560.76	23
2561.66	22.5
2562.56	24.5
2563.46	27
2564.36	24.5
2565.26	24.5
2566.16	20
2567.06	24.5
2567.96	27.5
2568.86	20.5
2569.76	24
2570.66	23.5
2571.56	25.5
2572.46	23
2573.36	28
2574.26	23.5
2575.16	27
2576.05	22
2576.95	21
2577.85	23.5
2578.75	24
2579.65	25
2580.54	26
2581.44	24
2582.34	27
2583.24	23
2584.13	22.5
2585.03	25
2585.93	25
2586.83	25
2587.72	26
2588.62	27.5
2589.52	23.5
2590.41	24
2591.31	24
2592.2	23.5
2593.1	24.5
2594	25
2594.89	25.5
2595.79	24
2596.68	28.5
2597.58	26
2598.47	26
2599.37	27.5
2600.26	21
2601.16	26
2602.05	27
2602.95	24.5
2603.84	21
2604.74	23
2605.63	26
2606.52	24.5
2607.42	24
2608.31	22
2609.21	23.5
2610.1	26
2610.99	23.5
2611.89	24.5
2612.78	25.5
2613.67	26
2614.56	24
2615.46	22.5
2616.35	25
2617.24	23.5
2618.13	21.5
2619.03	25
2619.92	21.5
2620.81	22
2621.7	24
2622.59	26
2623.49	23.5
2624.38	28
2625.27	26.5
2626.16	26
2627.05	26.5
2627.94	20
2628.83	23
2629.72	23.5
2630.61	28
2631.5	23
2632.39	28
2633.28	22
2634.17	24
2635.06	23
2635.95	23
2636.84	21.5
2637.73	23
2638.62	26
2639.51	25
2640.4	27
2641.29	22
2642.18	26
2643.07	25.5
2643.96	25
2644.84	29
2645.73	26.5
2646.62	23
2647.51	23.5
2648.4	23.5
2649.28	25
2650.17	25.5
2651.06	23
2651.95	24
2652.83	26.5
2653.72	24.5
2654.61	24.5
2655.49	23.5
2656.38	24.5
2657.27	22.5
2658.16	24.5
2659.04	24
2659.93	24
2660.81	21
2661.7	23.5
2662.59	24
2663.47	20.5
2664.36	23
2665.24	26.5
2666.13	25
2667.01	25
2667.9	25
2668.78	24
2669.67	21
2670.55	26.5
2671.44	23
2672.32	26.5
2673.21	25.5
2674.09	24.5
2674.97	23.5
2675.86	25.5
2676.74	27
2677.62	23
2678.51	22.5
2679.39	30.5
2680.27	25
2681.16	26.5
2682.04	20
2682.92	28
2683.81	27.5
2684.69	25
2685.57	23.5
2686.45	24.5
2687.34	28
2688.22	21
2689.1	24.5
2689.98	23.5
2690.86	23
2691.75	25.5
2692.63	23.5
2693.51	24
2694.39	26
2695.27	24.5
2696.15	23
2697.03	28
2697.91	25.5
2698.79	25
2699.67	24
2700.55	22.5
2701.43	27.5
2702.31	25
2703.19	25.5
2704.07	21.5
2704.95	26
2705.83	25
2706.71	26
2707.59	21
2708.47	26
2709.35	23
2710.23	28.5
2711.11	22.5
2711.99	23.5
2712.86	26
2713.74	22.5
2714.62	24
2715.5	24
2716.38	25.5
2717.26	22.5
2718.13	26
2719.01	23
2719.89	27.5
2720.77	25.5
2721.64	25
2722.52	24
2723.4	21
2724.27	24.5
2725.15	26
2726.03	26.5
2726.9	21.5
2727.78	25
2728.66	27.5
2729.53	25
2730.41	24.5
2731.28	25
2732.16	26.5
2733.03	23
2733.91	24.5
2734.79	25.5
2735.66	25
2736.54	23
2737.41	27.5
2738.29	24
2739.16	26
2740.03	26.5
2740.91	24
2741.78	23
2742.66	24
2743.53	22
2744.41	23.5
2745.28	21
2746.15	25
2747.03	26
2747.9	22
2748.77	23.5
2749.65	21.5
2750.52	25
2751.39	23
2752.27	25.5
2753.14	23
2754.01	25
2754.88	27.5
2755.75	23
2756.63	22.5
2757.5	23
2758.37	23
2759.24	26.5
2760.11	23
2760.99	27
2761.86	22.5
2762.73	27
2763.6	22
2764.47	25.5
2765.34	26
2766.21	24
2767.08	27
2767.95	22
2768.82	25
2769.69	24.5
2770.56	29
2771.43	22
2772.3	23
2773.17	22
2774.04	27.5
2774.91	26
2775.78	25.5
2776.65	23
2777.52	26.5
2778.39	24.5
2779.26	24.5
2780.13	23
2780.99	25
2781.86	27
2782.73	24.5
2783.6	23
2784.47	26.5
2785.34	21.5
2786.2	25.5
2787.07	26
2787.94	26.5
2788.81	24.5
2789.67	25
2790.54	27.5
2791.41	28.5
2792.27	28.5
2793.14	29
2794.01	26
2794.87	22
2795.74	23
2796.61	26.5
2797.47	25.5
2798.34	27.5
2799.21	30
2800.07	25.5
2800.94	27
2801.8	26
2802.67	23
2803.53	23
2804.4	28
2805.26	23
2806.13	25
2806.99	23.5
2807.86	23
2808.72	27.5
2809.59	31.5
2810.45	28
2811.32	24.5
2812.18	26.5
2813.04	25
2813.91	26.5
2814.77	23
2815.64	27
2816.5	24
2817.36	25
2818.22	29
2819.09	29
2819.95	27
2820.81	28.5
2821.68	28.5
2822.54	21.5
2823.4	24.5
2824.26	25
2825.13	29
2825.99	27.5
2826.85	23
2827.71	27
2828.57	26
2829.44	25
2830.3	25.5
2831.16	27
2832.02	26
2832.88	23.5
2833.74	27
2834.6	25
2835.46	26
2836.32	24
2837.18	25
2838.04	27.5
2838.9	25
2839.76	27
2840.62	24.5
2841.48	24
2842.34	29.5
2843.2	24
2844.06	24.5
2844.92	27.5
2845.78	24.5
2846.64	25.5
2847.5	27
2848.36	24
2849.22	21.5
2850.08	25
2850.93	23
2851.79	28.5
2852.65	25.5
2853.51	22.5
2854.37	21.5
2855.22	26.5
2856.08	26.5
2856.94	27.5
2857.8	22
2858.65	24
2859.51	26
2860.37	22.5
2861.23	27
2862.08	23
2862.94	26
2863.79	26
2864.65	27
2865.51	31.5
2866.36	30
2867.22	24.5
2868.08	25
2868.93	25
2869.79	34.5
2870.64	28
2871.5	31
2872.35	31.5
2873.21	26
2874.06	29
2874.92	32.5
2875.77	30
2876.63	33.5
2877.48	31.5
2878.34	30
2879.19	30
2880.05	32
2880.9	30
2881.76	29.5
2882.61	33.5
2883.46	34
2884.32	32.5
2885.17	40
2886.02	40
2886.88	36.5
2887.73	32.5
2888.58	36
2889.44	39.5
2890.29	39
2891.14	41.5
2891.99	38
2892.85	36.5
2893.7	37.5
2894.55	44.5
2895.4	48.5
2896.25	52
2897.11	49.5
2897.96	55.5
2898.81	59
2899.66	64.5
2900.51	63
2901.36	66
2902.21	59.5
2903.07	68
2903.92	71
2904.77	77.5
2905.62	69.5
2906.47	74
2907.32	67
2908.17	69
2909.02	70.5
2909.87	72.5
2910.72	64.5
2911.57	55.5
2912.42	56
2913.27	55.5
2914.12	45.5
2914.97	53.5
2915.81	47
2916.66	38
2917.51	42
2918.36	39.5
2919.21	34.5
2920.06	36
2920.91	37.5
2921.75	38
2922.6	34
2923.45	33.5
2924.3	34
2925.15	33
2925.99	32
2926.84	31
2927.69	29.5
2928.54	28
2929.38	28
2930.23	29
2931.08	31
2931.92	28
2932.77	31
2933.62	30.5
2934.46	27
2935.31	31.5
2936.16	29.5
2937	28
2937.85	30.5
2938.69	31
2939.54	29
2940.38	31.5
2941.23	27.5
2942.08	27
2942.92	30.5
2943.77	26.5
2944.61	29
2945.46	28.5
2946.3	26
2947.15	29
2947.99	29.5
2948.83	33.5
2949.68	31
2950.52	32
2951.37	36
2952.21	35
2953.05	29.5
2953.9	32.5
2954.74	34.5
2955.58	35
2956.43	34.5
2957.27	37.5
2958.11	37.5
2958.96	38
2959.8	39
2960.64	43
2961.48	44
2962.33	44
2963.17	47
2964.01	46.5
2964.85	49
2965.69	40
2966.54	41.5
2967.38	47
2968.22	42.5
2969.06	40
2969.9	36
2970.74	39
2971.58	39.9951
2972.43	38.4129
2973.27	35.5157
2974.11	35.4873
2974.95	35.3788
2975.79	33.7266
2976.63	31.8926
2977.47	28.2146
2978.31	35.881
2979.15	34.5518
2979.99	29.5896
2980.83	27.098
2981.67	30.1706
2982.51	29.8101
2983.35	27.8793
2984.19	26.8717
2985.03	24.1167
2985.86	30.525
2986.7	23.4638
2987.54	25.6574
2988.38	27.6192
2989.22	27.7538
2990.06	27.3366
2990.9	27.0003
2991.73	26.7371
2992.57	24.0989
2993.41	26.5886
2994.25	23.3103
2995.09	25.5671
2995.92	27.9498
2996.76	25.5981
2997.6	23
2998.44	24.1284
2999.27	22.5551
3000.11	23.5489
3000.95	23.75
3001.78	23.155
3002.62	24.564
3003.46	22.2682
3004.29	22.9888
3005.13	26.3309
3005.96	23.057
3006.8	24.1969
3007.64	23.5694
3008.47	23.4879
3009.31	22.4905
3010.14	25.9478
3010.98	25.1787
3011.81	23.6372
3012.65	23.9331
3013.48	22.1019
3014.32	21.9958
3015.15	24.3733
3015.99	22.1163
3016.82	24.9776
3017.66	23.5161
3018.49	21.9107
3019.33	21.8568
3020.16	22.9983
3020.99	23.7469
3021.83	22.8549
3022.66	19.9569
3023.5	24.1817
3024.33	22.9572
3025.16	23.9276
3026	23.1161
3026.83	23.709
3027.66	21.2778
3028.49	25.6892
3029.33	23.6686
3030.16	23.0971
3030.99	22.7309
3031.83	23.4408
3032.66	24.0203
3033.49	23.1971
3034.32	22.2712
3035.15	23.5336
3035.99	23.1604
3036.82	21.572
3037.65	21.1913
3038.48	22.6609
3039.31	21.3766
3040.14	22.5828
3040.97	24.1465
3041.81	22.9674
3042.64	24.5832
3043.47	25.4118
3044.3	23.897
3045.13	23.2165
3045.96	22.2369
3046.79	22.4402
3047.62	23.0322
3048.45	21.7022
3049.28	21.4851
3050.11	22.5056
3050.94	23.6593
3051.77	24.5481
3052.6	24.9272
3053.43	25.4345
3054.26	24.6601
3055.08	22.8262
3055.91	21.7939
3056.74	22.2702
3057.26	23.5
3058.09	23
3058.92	23
3059.76	22.5
3060.59	22
3061.42	19
3062.25	23.5
3063.09	24.5
3063.92	24.5
3064.75	22.5
3065.58	25
3066.42	23
3067.25	23
3068.08	21.5
3068.91	27
3069.74	21
3070.57	23
3071.41	21.5
3072.24	20.5
3073.07	25
3073.9	19.5
3074.73	20.5
3075.56	27
3076.39	24
3077.22	23
3078.05	23.5
3078.88	25.5
3079.71	25
3080.54	23
3081.37	21.5
3082.2	24
3083.03	24.5
3083.86	21.5
3084.69	26.5
3085.52	22
3086.35	21.5
3087.18	23.5
3088.01	22.5
3088.84	21
3089.67	24.5
3090.5	27.5
3091.32	21.5
3092.15	23
3092.98	22
3093.81	23.5
3094.64	28
3095.47	24
3096.29	19.5
3097.12	22
3097.95	22
3098.78	24.5
3099.6	23.5
3100.43	22.5
3101.26	23
3102.09	23
3102.91	19
3103.74	22
3104.57	24
3105.39	25.5
3106.22	25.5
3107.05	23.5
3107.87	21
3108.7	21
3109.52	25
3110.35	24
3111.18	22
3112	27.5
3112.83	21
3113.65	24
3114.48	23
3115.3	22
3116.13	21
3116.95	22.5
3117.78	25
3118.6	24
3119.43	25
3120.25	23
3121.08	23
3121.9	23.5
3122.72	24
3123.55	25.5
3124.37	23.5
3125.2	24
3126.02	22
3126.84	20
3127.67	27.5
3128.49	24.5
3129.31	26
3130.14	24.5
3130.96	24
3131.78	24
3132.61	23
3133.43	24
3134.25	22.5
3135.07	24
3135.89	23
3136.72	26.5
3137.54	25.5
3138.36	26
3139.18	26.5
3140	26
3140.83	26
3141.65	22.5
3142.47	20.5
3143.29	23
3144.11	25
3144.93	23
3145.75	25.5
3146.57	22
3147.4	23.5
3148.22	24
3149.04	20
3149.86	23.5
3150.68	24.5
3151.5	26.5
3152.32	23
3153.14	26
3153.96	23
3154.78	23.5
3155.59	23
3156.42	24
3157.23	22.5
3158.05	23.5
3158.87	18
3159.69	24
3160.51	20.5
3161.33	21.5
3162.15	19
3162.97	24.5
3163.78	22.5
3164.6	24
3165.42	26.5
3166.24	25.5
3167.06	22
3167.87	27.5
3168.69	26
3169.51	20
3170.33	28
3171.14	23.5
3171.96	25
3172.78	21
3173.6	25.5
3174.41	23.5
3175.23	22.5
3176.05	27
3176.86	25.5
3177.68	27
3178.5	23.5
3179.31	23.5
3180.13	25
3180.94	24.5
3181.76	25.5
3182.58	23
3183.39	26
3184.21	24
3185.02	23.5
3185.84	26.5
3186.65	25
3187.47	28
3188.28	20.5
3189.1	22
3189.91	24.5
3190.73	24
3191.54	24
3192.36	23.5
3193.17	21
3193.98	23.5
3194.8	23
3195.61	21.5
3196.43	25
3197.24	24.5
3198.05	23
3198.87	25.5
3199.68	26.5
3200.49	20
3201.31	26
3202.12	22.5
3202.93	24
3203.75	22
3204.56	23.5
3205.37	24
3206.18	22.5
3207	25
3207.81	22.5
3208.62	29
3209.43	26.5
3210.24	22
3211.06	25.5
3211.87	23
3212.68	24.5
3213.49	23
3214.3	24
3215.11	23
3215.92	20.5
3216.73	24
3217.55	23.5
3218.36	23.5
3219.17	23.5
3219.98	24
3220.79	22.5
3221.6	23
3222.41	24
3223.22	24.5
3224.03	21.5
3224.84	21.5
3225.65	20
3226.46	24.5
3227.27	23
3228.08	20
3228.89	21
3229.7	29.5
3230.5	23
3231.31	25.5
3232.12	23.5
3232.93	22.5
3233.74	21.5
3234.55	23
3235.36	26
3236.16	27.5
3236.97	22
3237.78	22
3238.59	24.5
3239.4	26
3240.2	24
3241.01	22.5
3241.82	27
3242.63	28
3243.43	25
3244.24	20
3245.05	23.5
3245.85	25.5
3246.66	26
3247.47	25
3248.27	25.5
3249.08	23.5
3249.89	22
3250.69	24.5
3251.5	24
3252.31	21.5
3253.11	28.5
3253.92	25.5
3254.72	20.5
3255.53	22
3256.33	23
3257.14	23
3257.94	27
3258.75	23
3259.55	21.5
3260.36	24
3261.16	23.5
3261.97	24.5
3262.77	25
3263.58	21
3264.38	24
3265.19	24
3265.99	25
3266.79	19
3267.6	29
3268.4	23
3269.21	23
3270.01	24
3270.81	24.5
3271.62	25.5
3272.42	20.5
3273.22	25
3274.03	21.5
3274.83	25
3275.63	26.5
3276.43	24
3277.24	22.5
3278.04	24
3278.84	24
3279.64	23
3280.45	22.5
3281.25	23.5
3282.05	20
3282.85	25
3283.65	27.5
3284.45	25
3285.26	24
3286.06	21.5
3286.86	24
3287.66	23
3288.46	23.5
3289.26	22
3290.06	25
3290.86	22
3291.66	18.5
3292.46	22.5
3293.26	22.5
3294.06	24.5
3294.86	25
3295.66	23.5
3296.46	22
3297.26	26
3298.06	28
3298.86	23
3299.66	27
3300.46	25.5
3301.26	26
3302.06	23
3302.86	21.5
3303.66	23.5
3304.46	20
3305.25	25
3306.05	23.5
3306.85	24.5
3307.65	25
3308.45	23
3309.25	25
3310.04	28
3310.84	22
3311.64	26
3312.44	23.5
3313.23	24
3314.03	24
3314.83	25.5
3315.63	26.5
3316.42	27
3317.22	23
3318.02	25
3318.81	28
3319.61	18
3320.41	24.5
3321.2	20.5
3322	26.5
3322.8	21.5
3323.59	25
3324.39	24
3325.18	25.5
3325.98	23.5
3326.78	24.5
3327.57	24
3328.37	25
3329.16	19
3329.96	24.5
3330.75	23
3331.55	21
3332.34	23.5
3333.14	24
3333.93	27.5
3334.73	23
3335.52	22
3336.31	21.5
3337.11	22.5
3337.9	23
3338.7	25.5
3339.49	27
3340.28	29
3341.08	22
3341.87	23
3342.66	28.5
3343.46	25.5
3344.25	23
3345.04	20.5
3345.84	23
3346.63	24
3347.42	25.5
3348.22	22.5
3349.01	24
3349.8	23.5
3350.59	24
3351.39	23.5
3352.18	23.5
3352.97	24
3353.76	26
3354.55	27.5
3355.35	27
3356.14	26
3356.93	26.5
3357.72	23
3358.51	19
3359.3	23.5
3360.09	24.5
3360.88	25.5
3361.67	21.5
3362.46	24.5
3363.26	23
3364.05	23
3364.84	23.5
3365.63	26
3366.42	25.5
3367.21	23
3368	26.5
3368.79	24.5
3369.58	25.5
3370.37	22
3371.15	25
3371.94	20
3372.73	21.5
3373.52	24
3374.31	22
3375.1	25
3375.89	26
3376.68	22
3377.47	25.5
3378.26	26
3379.04	25
3379.83	25.5
3380.62	26.5
3381.41	25.5
3382.2	23
3382.98	24
3383.77	24.5
3384.56	23
3385.35	22
3386.13	26.5
3386.92	24
3387.71	25.5
3388.5	23.5
3389.28	26.5
3390.07	26
3390.86	20.5
3391.64	25.5
3392.43	23.5
3393.22	23.5
3394	23
3394.79	24.5
3395.57	23.5
3396.36	21.5
3397.15	23.5
3397.93	25
3398.72	26.5
3399.5	22.5
3400.29	22.5
3401.07	23
3401.86	23.5
3402.65	25.5
3403.43	30
3404.21	23.5
3405	24
3405.78	23.5
3406.57	22
3407.35	24
3408.14	23
3408.92	25
3409.71	24.5
3410.49	28
3411.27	23.5
3412.06	20
3412.84	28
3413.62	25.5
3414.41	26.5
3415.19	23.5
3415.97	23
3416.76	22
3417.54	23
3418.32	22
3419.11	22
3419.89	23.5
3420.67	25
3421.46	24.5
3422.24	24.5
3423.02	24
3423.8	29
3424.58	20
3425.37	22
3426.15	26
3426.93	24.5
3427.71	19
3428.49	24.5
3429.27	20
3430.05	26
3430.84	24.5
3431.62	24
3432.4	25.5
3433.18	22
3433.96	25.5
3434.74	28
3435.52	20.5
3436.3	25
3437.08	24.5
3437.86	25.5
3438.64	23.5
3439.42	26.5
3440.2	21.5
3440.98	26
3441.76	22.5
3442.54	28
3443.32	24
3444.1	21.5
3444.88	25
3445.66	24
3446.44	24.5
3447.22	24
3448	24
3448.77	17.5
3449.55	25
3450.33	27
3451.11	22.5
3451.89	22.5
3452.67	19
3453.45	23
3454.22	24.5
3455	24
3455.78	25.5
3456.56	24.5
3457.33	25
3458.11	23.5
3458.89	21
3459.67	23
3460.44	25.5
3461.22	24.5
3462	23.5
3462.77	27
3463.55	25
3464.33	23.5
3465.1	28.5
3465.88	23
3466.66	24.5
3467.43	23.5
3468.21	23.5
3468.98	21
3469.76	24
3470.54	24.5
3471.31	22
3472.09	20
3472.86	25
3473.64	21
3474.41	26
3475.19	26.5
3475.96	24
3476.74	21
3477.51	27.5
3478.29	29.5
3479.06	28.5
3479.84	22
3480.61	25
3481.39	24
3482.16	21.5
3482.93	23
3483.71	24
3484.48	24
3485.25	23
3486.03	24.5
3486.8	30
3487.57	21.5
3488.35	23.5
3489.12	25
3489.89	23.5
3490.67	25
3491.44	27.5
3492.21	25.5
3492.99	22
3493.76	25
3494.53	22
3495.3	23.5
3496.08	26
3496.85	22.5
3497.62	24.5
3498.39	25
3499.16	25
3499.93	23
