#Acq. time (s)=	5
#Accumulations=	5
#Range (cm-¹)=	100...3500
#Windows=	4
#Autofocus=	Off
#AutoExposure=	Off
#Spike filter=	Multiple accum.
#Delay time (s)=	0
#Binning=	1
#Readout mode=	Signal
#DeNoise=	Off
#ICS correction=	Off
#Dark correction=	Off
#Inst. Process=	Off
#Instrument=	LabRAM HR Evol
#Detector=	Syncerity OE
#Objective=	x100_VIS
#Grating=	600 (500nm)
#ND Filter=	25%
#Laser=	633nm_Edge
#Hole=	100.021
#Range=	Visible
#Project=	verificaciones
#Sample=	at2
#Site=	plain
#Title=	bolusat2plain
#Remark=	
#Date=	13.01.2026 15:24
#Acquired=	13.01.2026 15:24:57
100.692	25.5
101.975	28.5
103.258	29
104.542	28
105.824	29
107.107	26
108.39	26
109.672	29
110.954	27.5
112.236	23.5
113.519	26.5
114.8	25
116.081	28.5
117.362	27
118.643	24
119.924	29
121.204	28.5
122.484	25
123.764	26.5
125.044	29.5
126.323	27.5
127.603	22
128.882	24
130.161	29.5
131.438	31.5
132.716	28
133.995	24
135.273	29
136.55	27.5
137.828	27.5
139.106	29
140.383	29
141.66	28.5
142.937	29.5
144.213	26
145.488	29.5
146.764	26
148.04	30
149.316	27
150.592	26
151.867	24
153.141	32.5
154.416	32.5
155.69	27.5
156.965	29
158.239	31
159.512	32.5
160.786	27
162.059	28.5
163.333	28
164.605	32
165.878	27
167.15	32
168.423	29
169.694	30
170.966	24.5
172.238	26.5
173.51	28.5
174.78	27
176.052	28
177.323	31
178.592	25
179.863	27.5
181.134	27
182.403	28
183.673	28.5
184.943	32.5
186.211	27
187.481	29
188.749	27.5
190.018	33
191.287	29
192.554	28
193.822	29.5
195.089	32
196.357	29
197.625	28.5
198.891	26.5
200.159	24.5
201.425	31
202.692	28.5
203.957	30.5
205.224	26
206.489	29.5
207.755	27
209.02	27.5
210.286	31.5
211.55	30.5
212.815	27.5
214.079	27.5
215.344	25.5
216.607	27
217.872	21.5
219.135	31
220.399	31
221.662	26
222.924	27.5
224.187	30
225.449	27
226.713	29.5
227.974	27
229.235	26
230.498	26.5
231.759	29
233.019	24.5
234.281	26.5
235.542	26
236.802	30
238.063	25.5
239.323	28
240.582	29.5
241.843	28.5
243.102	29.5
244.361	24
245.621	29
246.879	26
248.138	23.5
249.396	24.5
250.655	24
251.913	29
253.17	26
254.427	22.5
255.686	23
256.943	28
258.199	30
259.456	26.5
260.712	24
261.969	25.5
263.225	27.5
264.481	31
265.736	30
266.991	27
268.246	30
269.502	27.5
270.757	27
272.011	25.5
273.265	24.5
274.519	27
275.773	26.5
277.027	25
278.28	25
279.533	23
280.786	24.5
282.04	26
283.293	30
284.545	24.5
285.798	26.5
287.049	27
288.301	26
289.553	24
290.804	22.5
292.055	28
293.306	28.5
294.557	29
295.807	28
297.058	21
298.308	25.5
299.558	24
300.808	25.5
302.057	26
303.305	24.5
304.554	24
305.803	23.5
307.052	25.5
308.3	30
309.549	16
310.797	23.5
312.045	27
313.292	24
314.54	27
315.786	26.5
317.033	22
318.28	28.5
319.526	23
320.773	25.5
322.019	24.5
323.264	26.5
324.51	27
325.755	28
327.001	23.5
328.246	26.5
329.49	27.5
330.735	27.5
331.979	24
333.224	28.5
334.467	25
335.711	27
336.955	28.5
338.199	22.5
339.441	23.5
340.684	29
341.927	27
343.168	28
344.411	28.5
345.654	32.5
346.895	27
348.137	27
349.379	28.5
350.619	26
351.86	28
353.102	26.5
354.341	31
355.582	29
356.821	30.5
358.062	26
359.302	26.5
360.541	30
361.781	27
363.019	26
364.259	24
365.496	22.5
366.736	28.5
367.974	27.5
369.212	26
370.45	27
371.687	27
372.925	27.5
374.162	26
375.399	32
376.635	23
377.873	26
379.109	24.5
380.344	26
381.581	28
382.816	27.5
384.052	28
385.287	27
386.523	29
387.757	21
388.991	29
390.227	24.5
391.46	27
392.695	26
393.928	31.5
395.162	23.5
396.396	28
397.629	30
398.861	29
400.095	25.5
401.327	25.5
402.559	23.5
403.792	29
405.024	25
406.255	20.5
407.488	25
408.719	27.5
409.949	26
411.18	29
412.412	24.5
413.642	26
414.872	28
416.102	27
417.333	29.5
418.562	29
419.791	27
421.02	24
422.249	26
423.479	27
424.707	27
425.935	29
427.163	27.5
428.391	31
429.619	26
430.848	26
432.075	28
433.302	28
434.529	23
435.755	25
436.982	27
438.208	25.5
439.434	29.5
440.66	29
441.885	26.5
443.111	27.5
444.338	23.5
445.563	27.5
446.788	29
448.012	26
449.237	26
450.461	28
451.685	29
452.909	27
454.133	27
455.356	28
456.579	27
457.802	28
459.025	28.5
460.247	26
461.469	26.5
462.691	30.5
463.914	26.5
465.136	28
466.357	28.5
467.579	29
468.8	21.5
470.021	32
471.242	27
472.462	29
473.682	28
474.903	30.5
476.123	31
477.343	29.5
478.563	29.5
479.782	30.5
481	36
482.219	33.5
483.438	38.5
484.657	32.5
485.874	34.5
487.093	37.5
488.311	35.5
489.529	37
490.747	36.5
491.963	37
493.181	35
494.398	32
495.614	34
496.83	34
498.047	31
499.264	35
500.479	31
501.695	30.5
502.911	31
504.125	36
505.34	30
506.554	29
507.769	34
508.984	29
510.198	26
511.412	27.5
512.627	27
513.839	26
515.053	31.5
516.266	26.5
517.479	26.5
518.691	24
519.905	31
521.118	28
522.329	27.5
523.542	28
524.753	31.5
525.965	28.5
527.176	26.5
528.388	22.5
529.598	26.5
530.809	22.5
532.019	28.5
533.23	28.5
534.44	26.5
535.649	27.5
536.86	22.5
538.068	24.5
539.279	24.5
540.487	31
541.697	29.5
542.905	28.5
544.113	31
545.322	25.5
546.53	25
547.737	27
548.946	28
550.153	26
551.361	29.5
552.568	26
553.774	33
554.982	25
556.188	25
557.394	24.5
558.599	23.5
559.806	30
561.012	24.5
562.217	25.5
563.423	27
564.628	25
565.832	30.5
567.036	24
568.241	28
569.446	25
570.65	26.5
571.853	25
573.057	27
574.26	28
575.464	26.5
576.667	32
577.87	29
579.072	26.5
580.274	26
581.477	28
582.68	30.5
583.881	28.5
585.083	28
586.284	27
587.485	27
588.686	26
589.887	28
591.087	29
592.288	28
593.488	27.5
594.688	27.5
595.888	31
597.087	26
598.287	25
599.486	27.5
600.685	27
601.884	23.5
603.082	25
604.281	29.5
605.479	27
606.677	23
607.875	24
609.073	27
610.27	28.5
611.468	28
612.665	28
613.862	28.5
615.058	27
616.255	28.5
617.451	27.5
618.648	24.5
619.842	29.5
621.038	29.5
622.234	27.5
623.429	26
624.624	28
625.819	28.5
627.013	29
628.207	25
629.402	27.5
630.596	23.5
631.79	26.5
632.983	29
634.177	28
635.37	30
636.564	25.5
637.755	22.5
638.948	24.5
640.141	25
641.334	28
642.525	26.5
643.717	25.5
644.909	24
646.099	30
647.291	26.5
648.483	29.5
649.674	27
650.864	29
652.055	26
653.244	24.5
654.435	28.5
655.625	26.5
656.814	27
658.004	28
659.193	25
660.382	28.5
661.571	28.5
662.759	30
663.948	25.5
665.135	28
666.324	28
667.511	26.5
668.7	25.5
669.886	20
671.074	25
672.262	27
673.448	27.5
674.634	26
675.821	28.5
677.007	31
678.194	24.5
679.379	26
680.565	26.5
681.75	30
682.936	26
684.121	26.5
685.305	29
686.491	29
687.675	26.5
688.86	28
690.043	25
691.227	29.5
692.411	27.5
693.594	23
694.777	28.5
695.961	27
697.144	28
698.326	27
699.509	33
700.691	29.5
701.873	32
703.056	31.5
704.237	28.5
705.419	28.5
706.599	32
707.782	35
708.962	38.5
710.143	32.5
711.323	29.5
712.504	30.5
713.684	30.5
714.864	29.5
716.043	31
717.223	29
718.403	28.5
719.582	28
720.761	26
721.94	29
723.118	26
724.296	29.5
725.474	28.5
726.652	26.5
727.831	26.5
729.009	27
730.186	27.5
731.363	22
732.54	28
733.717	28
734.893	26.5
736.07	26
737.246	24.5
738.422	28.5
739.598	30.5
740.773	25.5
741.949	28.5
743.124	28.5
744.299	26
745.474	28.5
746.649	25
747.823	28.5
748.997	25
750.172	26.5
751.346	29.5
752.519	30.5
753.693	27.5
754.867	24.5
756.038	27
757.211	26.5
758.384	27.5
759.557	26.5
760.73	25.5
761.902	23.5
763.074	26
764.246	23.5
765.417	29
766.588	21
767.76	27
768.931	27
770.102	25.5
771.271	29
772.442	29
773.613	24
774.783	29.5
775.952	28
777.122	24.5
778.291	27
779.461	26
780.629	25.5
781.798	29
782.967	28
784.135	33
785.304	27
786.472	31
787.639	25.5
788.807	33
789.975	23
791.142	31
792.309	27.5
793.477	25.5
794.642	26
795.81	28
796.975	25.5
798.142	24
799.308	26.5
800.473	27.5
801.639	25
802.804	24
803.97	31.5
805.134	28
806.299	29
807.463	29.5
808.628	24
809.792	29
810.957	26
812.12	34.5
813.284	28
814.447	26
815.611	28
816.773	25
817.937	28
819.099	26.5
820.261	28.5
821.424	22.5
822.585	28
823.748	26.5
824.909	28
826.07	28
827.232	28
828.393	25
829.554	23
830.715	25.5
831.875	26.5
833.035	22
834.196	27.5
835.356	26.5
836.515	27.5
837.676	29
838.835	30
839.994	25.5
841.152	30
842.312	29
843.47	28
844.629	28
845.786	25.5
846.946	25
848.103	29
849.261	27
850.418	29
851.575	26.5
852.733	25.5
853.89	26
855.046	24.5
856.203	20.5
857.359	27.5
858.515	30
859.67	25.5
860.827	29.5
861.983	29.5
863.138	27
864.293	24.5
865.448	25.5
866.603	29.5
867.757	25
868.912	25
870.066	25
871.22	26.5
872.374	26.5
873.527	27.5
874.681	28.5
875.834	24
876.987	27
878.14	24
879.293	25.5
880.445	26
881.598	26
882.75	25.5
883.902	26
885.054	25
886.206	23.5
887.357	31
888.507	28.5
889.658	23
890.809	25
891.96	24.5
893.111	29.5
894.261	26
895.411	30.5
896.561	26
897.71	28
898.86	26
900.009	25.5
901.159	26
902.308	26.5
903.455	28.5
904.604	23
905.753	23.5
906.901	26.5
908.048	27.5
909.197	25.5
910.344	26.5
911.492	23
912.639	26.5
913.786	23.5
914.933	26
916.079	26.5
917.226	27
918.373	27
919.518	28.5
920.664	26.5
921.81	28.5
922.955	25.5
924.101	28
925.245	25
926.391	29
927.536	23.5
928.68	25.5
929.825	25.5
930.968	25.5
932.113	27
933.256	26.5
934.4	23.5
935.543	26
936.687	26
937.83	25
938.973	28
940.115	26.5
941.258	25.5
942.399	23
943.542	23
944.684	28
945.826	29.5
946.967	23.5
948.109	28
949.25	26
950.392	25
951.532	24.5
952.672	26.5
953.813	24.5
954.953	25.5
956.093	22
957.233	24.5
958.373	25.5
959.512	25
960.652	24
961.791	28
962.929	26
964.069	30
965.207	27
966.345	23
967.484	26
968.622	24.5
969.759	27
970.896	26.25
972.035	25
973.172	22
974.309	25
975.445	26
976.582	25.5
977.719	27
978.855	23.5
979.991	24.5
981.127	25
982.263	28.5
983.398	28.5
984.535	26
985.67	22
986.804	22
987.939	22
989.074	20
990.208	26
991.342	26
992.476	28
993.61	24
994.744	26
995.877	26.5
997.01	25.5
998.143	26.5
999.276	26.5
1000.41	25.5
1001.54	25.5
1002.67	24.5
1003.81	28.5
1004.94	24
1006.07	25.5
1007.2	28
1008.33	27
1009.47	27
1010.6	25
1011.73	23.5
1012.86	21.5
1013.99	29
1015.12	25.5
1016.25	26.5
1017.38	25.5
1018.51	26
1019.64	23
1020.77	23
1021.9	25
1023.03	26.5
1024.15	26.5
1025.28	25
1026.41	27.5
1027.54	23
1028.67	20.5
1029.8	24
1030.92	23
1032.05	27
1033.18	28
1034.31	28
1035.43	22
1036.56	26
1037.69	25.5
1038.81	24.5
1039.94	23
1041.07	25
1042.19	24
1043.32	25
1044.44	25
1045.57	23
1046.69	23.5
1047.82	25.5
1048.94	25.5
1050.07	24.5
1051.19	26.5
1052.32	22.5
1053.44	25.5
1054.57	26.5
1055.69	22.5
1056.81	23.5
1057.94	30
1059.06	23.5
1060.18	27.5
1061.31	25
1062.43	27
1063.55	26
1064.67	21
1065.8	23
1066.92	28
1068.04	24
1069.16	27.5
1070.28	26
1071.4	25.5
1072.52	27
1073.64	26
1074.76	25.5
1075.89	27.5
1077.01	25
1078.13	23.5
1079.25	23.5
1080.37	25.5
1081.49	24
1082.6	23.5
1083.72	25.5
1084.84	21.5
1085.96	26
1087.08	27.5
1088.2	26
1089.32	25.5
1090.43	25
1091.55	25
1092.67	24
1093.79	26.5
1094.91	21.5
1096.02	26.5
1097.14	23.5
1098.26	25.5
1099.37	23
1100.49	25
1101.61	28
1102.72	22
1103.84	24
1104.95	26.5
1106.07	22
1107.18	24.5
1108.3	29
1109.41	24.5
1110.53	27
1111.64	19.5
1112.76	26
1113.87	23
1114.99	23
1116.1	26
1117.21	23
1118.33	25
1119.44	19
1120.55	23
1121.67	24
1122.78	26.5
1123.89	23
1125	26
1126.12	23
1127.23	26.5
1128.34	24
1129.45	25.5
1130.56	24.5
1131.68	22.5
1132.79	25.5
1133.9	25
1135.01	27.5
1136.12	25
1137.23	25
1138.34	21.5
1139.45	23.5
1140.56	24.5
1141.67	22
1142.78	26
1143.89	25
1145	27
1146.11	28
1147.22	22.5
1148.32	23.5
1149.43	23.5
1150.54	25
1151.65	24.5
1152.76	25.5
1153.86	25.5
1154.97	25
1156.08	24
1157.19	24.5
1158.29	28
1159.4	22
1160.51	26
1161.61	24
1162.72	26.5
1163.83	28.5
1164.93	23.5
1166.04	25
1167.14	27
1168.25	21
1169.35	25
1170.46	25.5
1171.56	27
1172.67	23.5
1173.77	24
1174.88	23.5
1175.98	26
1177.08	26.5
1178.19	26
1179.29	25
1180.4	28
1181.5	25
1182.6	27
1183.71	24.5
1184.81	22
1185.91	27
1187.01	25.5
1188.12	20
1189.22	22
1190.32	25.5
1191.42	27.5
1192.52	25
1193.62	23
1194.72	27.9563
1195.83	23.4406
1196.93	26.4013
1198.03	20.7041
1199.13	21.9387
1200.23	22.8932
1201.33	25.6845
1202.43	25.2182
1203.53	23.0586
1204.63	21.4562
1205.73	25.5256
1206.83	21.8259
1207.92	23.6082
1209.02	26.8648
1210.12	23.4089
1211.22	23.3815
1212.32	23.5525
1213.42	23.3472
1214.51	22.1546
1215.61	24.4884
1216.71	25.1546
1217.81	23.1869
1218.9	22.7696
1220	20.3542
1221.1	22.7151
1222.19	20.5395
1223.29	22.7999
1224.39	25.5971
1225.48	21.6551
1226.58	27.7112
1227.68	24.7787
1228.77	24.144
1229.87	24.7475
1230.96	21.4971
1232.06	23.6737
1233.15	25.0896
1234.25	22.1291
1235.34	22.825
1236.43	23.2726
1237.53	22.1658
1238.62	22.458
1239.72	22.9207
1240.81	26.5687
1241.9	23.664
1243	24.9962
1244.09	23.8969
1245.18	23.8714
1246.27	22.1475
1247.37	24.0621
1248.46	23.4214
1249.55	20.4929
1250.64	23.2347
1251.74	24.2347
1252.83	24.4057
1253.92	25.6634
1255.01	25.2967
1256.1	23.7275
1257.19	24.4258
1258.28	26.5377
1259.38	23.37
1260.46	24.4218
1261.56	24.5405
1262.65	22.6078
1263.74	22.6859
1264.82	21.3574
1265.91	22.9157
1267	26.0392
1268.09	24.4394
1269.18	26.0997
1270.27	24.309
1271.36	20.7824
1272.45	22.6947
1273.54	23.7857
1274.63	23.1577
1275.71	23.505
1276.8	24.4067
1277.89	24.8857
1278.98	23.3811
1280.06	24.5193
1281.15	23.9445
1282.24	25.5849
1283.32	23.8888
1284.41	25.6056
1285.5	19.9452
1286.58	22.0669
1287.67	21.1732
1288.76	24.819
1289.84	23.9403
1290.93	24.12
1292.01	23.4505
1293.1	24.2066
1294.18	23.9331
1295.27	22.0839
1296.35	22.4318
1297.44	23.7369
1298.52	25.6718
1299.6	25.3227
1300.69	22.7834
1301.77	25.6186
1302.86	25.1117
1303.94	25.5406
1305.02	24.9164
1306.11	23.7878
1306.41	23.5
1307.5	21
1308.59	22.5
1309.68	22.5
1310.77	22.5
1311.85	19.5
1312.94	25
1314.03	18.5
1315.11	22.5
1316.2	24
1317.29	24.5
1318.37	20
1319.46	24.5
1320.55	25
1321.63	24.5
1322.72	25
1323.8	22.5
1324.89	25
1325.98	24.5
1327.06	25.5
1328.15	27.5
1329.23	23
1330.31	20.5
1331.4	22
1332.48	23.5
1333.57	27.5
1334.65	23
1335.74	26.5
1336.82	24.5
1337.9	23.5
1338.99	25.5
1340.07	24.5
1341.15	23.5
1342.24	22.5
1343.32	26
1344.4	22.5
1345.48	23.5
1346.56	24
1347.65	23
1348.73	21.5
1349.81	25
1350.89	24.5
1351.97	18
1353.05	26
1354.13	22
1355.21	24
1356.29	24
1357.37	21.5
1358.46	27.5
1359.54	22.5
1360.62	23.5
1361.69	20
1362.77	24
1363.85	23.5
1364.93	24
1366.01	22
1367.09	25.5
1368.17	25
1369.25	24
1370.33	23.5
1371.41	23
1372.48	21
1373.56	21
1374.64	24
1375.72	23
1376.79	24
1377.87	24
1378.95	23
1380.02	27
1381.1	25
1382.18	24
1383.25	24.5
1384.33	25
1385.4	25.5
1386.48	23
1387.56	24
1388.63	27.5
1389.71	23
1390.78	25
1391.86	23.5
1392.93	22.5
1394.01	24
1395.08	28
1396.15	23.5
1397.23	21.5
1398.3	26
1399.38	24
1400.45	27
1401.52	24
1402.6	27.5
1403.67	24
1404.74	25
1405.81	20.5
1406.89	27
1407.96	24
1409.03	26
1410.1	24
1411.17	25.5
1412.25	26.5
1413.32	27.5
1414.39	26
1415.46	25
1416.53	26
1417.6	24.5
1418.67	29.5
1419.74	25
1420.81	22
1421.88	27.5
1422.95	25
1424.02	26
1425.09	22
1426.16	23
1427.23	21.5
1428.3	21.5
1429.37	22
1430.44	26
1431.51	20
1432.58	23.5
1433.64	21.5
1434.71	27
1435.78	25
1436.85	24.5
1437.92	23
1438.98	22.5
1440.05	23
1441.12	24.5
1442.18	24.5
1443.25	24
1444.32	26.5
1445.38	24.5
1446.45	22
1447.52	27
1448.58	27.5
1449.65	23.5
1450.71	26
1451.78	26
1452.84	26
1453.91	27.5
1454.97	27
1456.04	28
1457.1	24.5
1458.17	24.5
1459.23	27.5
1460.3	22
1461.36	24.5
1462.42	19.5
1463.49	23
1464.55	21
1465.61	22
1466.68	26
1467.74	25
1468.8	23
1469.86	26
1470.93	25
1471.99	24
1473.05	21.5
1474.11	21.5
1475.17	25
1476.24	22.5
1477.3	26.5
1478.36	23
1479.42	20
1480.48	24
1481.54	24
1482.6	24.5
1483.66	22
1484.72	25
1485.78	26
1486.84	24
1487.9	28
1488.96	25.5
1490.02	23
1491.08	26
1492.14	26.5
1493.2	29
1494.26	26
1495.31	23.5
1496.37	27
1497.43	27
1498.49	23
1499.55	21
1500.6	25.5
1501.66	21
1502.72	24
1503.78	23.5
1504.83	22.5
1505.89	23.5
1506.95	22.5
1508	26
1509.06	26
1510.12	25
1511.17	19
1512.23	24
1513.28	25.5
1514.34	25
1515.39	22.5
1516.45	22
1517.5	27
1518.56	19
1519.61	27.5
1520.67	24.5
1521.72	23
1522.78	24.5
1523.83	24
1524.88	22.5
1525.94	22
1526.99	25.5
1528.05	23
1529.1	27.5
1530.15	24.5
1531.2	29
1532.26	25.5
1533.31	24.5
1534.36	20.5
1535.41	23.5
1536.47	28.5
1537.52	29.5
1538.57	25
1539.62	23
1540.67	23.5
1541.72	24.5
1542.77	25.5
1543.83	26
1544.88	26.5
1545.93	22
1546.98	26.5
1548.03	18.5
1549.08	24
1550.13	27
1551.18	26.5
1552.23	25.5
1553.28	28
1554.32	25.5
1555.37	23
1556.42	25.5
1557.47	24
1558.52	24
1559.57	21
1560.62	22
1561.67	25.5
1562.71	26.5
1563.76	27
1564.81	25
1565.86	23
1566.9	25
1567.95	27
1569	27.5
1570.04	28.5
1571.09	24.5
1572.14	24.5
1573.18	22.5
1574.23	24
1575.27	23.5
1576.32	24
1577.37	21
1578.41	26
1579.46	24
1580.5	25
1581.55	23
1582.59	20
1583.64	27
1584.68	25
1585.72	24
1586.77	27
1587.81	23
1588.86	25
1589.9	25.5
1590.94	21.5
1591.99	25
1593.03	28.5
1594.07	26.5
1595.12	28.5
1596.16	21.5
1597.2	22.5
1598.24	17
1599.29	23
1600.33	22.5
1601.37	29.5
1602.41	22
1603.45	25
1604.49	25
1605.53	27.5
1606.58	25
1607.62	21.5
1608.66	25
1609.7	27
1610.74	22.5
1611.78	24
1612.82	23
1613.86	27.5
1614.9	25
1615.94	28
1616.98	24.5
1618.02	26
1619.06	23
1620.09	23.5
1621.13	25.5
1622.17	29
1623.21	24
1624.25	21.5
1625.29	25
1626.32	25.5
1627.36	27.5
1628.4	23
1629.44	27.5
1630.47	28
1631.51	27
1632.55	22.5
1633.58	23.5
1634.62	24.5
1635.66	26.5
1636.69	27
1637.73	26
1638.77	25
1639.8	22
1640.84	27.5
1641.87	27
1642.91	22
1643.94	24
1644.98	22.5
1646.01	27
1647.05	26
1648.08	26
1649.12	25.5
1650.15	26
1651.18	25.5
1652.22	26
1653.25	27.5
1654.29	27.5
1655.32	24.5
1656.35	23
1657.39	23.5
1658.42	30
1659.45	23
1660.48	28
1661.52	32
1662.55	27.5
1663.58	25
1664.61	19.5
1665.64	22
1666.68	26.5
1667.71	24
1668.74	26
1669.77	27
1670.8	22.5
1671.83	28
1672.86	22
1673.89	23.5
1674.92	24.5
1675.95	25
1676.98	26
1678.01	25
1679.04	23
1680.07	23.5
1681.1	23
1682.13	24
1683.16	25.5
1684.19	21
1685.22	23
1686.25	25.5
1687.27	22
1688.3	24.5
1689.33	22.5
1690.36	27.5
1691.38	21.5
1692.41	23
1693.44	26.5
1694.47	21.5
1695.49	22.5
1696.52	23
1697.55	24.5
1698.57	24.5
1699.6	25.5
1700.63	27
1701.65	26.5
1702.68	22
1703.7	27.5
1704.73	25
1705.76	26.5
1706.78	21
1707.81	22
1708.83	28.5
1709.86	27.5
1710.88	24
1711.91	26
1712.93	25.5
1713.95	24
1714.98	25.5
1716	24.5
1717.03	26
1718.05	29
1719.07	26
1720.1	27
1721.12	28.5
1722.14	28.5
1723.16	19
1724.19	27.5
1725.21	24.5
1726.23	24
1727.25	28
1728.28	24.5
1729.3	20
1730.32	26
1731.34	24
1732.36	20.5
1733.38	26.5
1734.41	24.5
1735.43	26
1736.45	24
1737.47	26
1738.49	26
1739.51	22
1740.53	22.5
1741.55	26.5
1742.57	24
1743.59	28
1744.61	26.5
1745.63	25
1746.64	20.5
1747.66	24
1748.68	21.5
1749.7	25
1750.72	26
1751.74	28.5
1752.76	23.5
1753.77	25.5
1754.79	28
1755.81	25.5
1756.83	24.5
1757.84	23.5
1758.86	22.5
1759.88	20
1760.9	26
1761.91	26
1762.93	22.5
1763.95	20.5
1764.96	23
1765.98	24
1766.99	24.5
1768.01	24
1769.02	21.5
1770.04	27.5
1771.06	24.5
1772.07	26
1773.09	29
1774.1	25.5
1775.12	28
1776.13	26.5
1777.14	20.5
1778.16	25
1779.17	23.5
1780.19	25
1781.2	26.5
1782.21	24
1783.23	25
1784.24	23.5
1785.25	24
1786.27	22.5
1787.28	25.5
1788.29	19
1789.3	26.5
1790.32	26
1791.33	29
1792.34	24
1793.35	24.5
1794.36	22
1795.38	22.5
1796.39	21.5
1797.4	23.5
1798.41	24
1799.42	27
1800.43	25
1801.44	21.5
1802.45	28.5
1803.46	25
1804.47	24.5
1805.48	26.5
1806.49	22.5
1807.5	26
1808.51	24
1809.52	25
1810.53	20
1811.54	27
1812.55	24.5
1813.56	25.5
1814.57	24.5
1815.57	25
1816.58	25
1817.59	24.5
1818.6	24.5
1819.61	19
1820.61	23
1821.62	26
1822.63	25.5
1823.64	22.5
1824.64	23.5
1825.65	28
1826.66	22
1827.66	20
1828.67	23.5
1829.68	24
1830.68	23
1831.69	25
1832.69	25.5
1833.7	22.5
1834.7	24
1835.71	25.5
1836.71	23
1837.72	28.5
1838.72	25.5
1839.73	25
1840.73	23.5
1841.74	26
1842.74	23
1843.75	25
1844.75	28
1845.75	24
1846.76	21.5
1847.76	23
1848.76	25.5
1849.77	28.5
1850.77	21
1851.77	27
1852.78	26
1853.78	24.5
1854.78	29
1855.78	30
1856.78	21
1857.79	24.5
1858.79	25.5
1859.79	24.5
1860.79	24.5
1861.79	20
1862.79	24
1863.79	23.5
1864.79	30.5
1865.79	23.5
1866.8	22
1867.8	25.5
1868.8	23
1869.8	25.5
1870.8	26.5
1871.8	24
1872.8	22.5
1873.79	24.5
1874.79	27.5
1875.79	25.5
1876.79	22
1877.79	24
1878.79	23.5
1879.79	26
1880.79	25.5
1881.78	25.5
1882.78	23.5
1883.78	22.5
1884.78	22.5
1885.77	24
1886.77	25.5
1887.77	26
1888.77	23
1889.76	25.5
1890.76	25.5
1891.76	27
1892.75	22
1893.75	24
1894.75	24
1895.74	21
1896.74	25.5
1897.73	24
1898.73	23.5
1899.73	23.5
1900.72	18
1901.72	26
1902.71	25.5
1903.7	22
1904.7	21
1905.69	25
1906.69	25
1907.68	28
1908.68	26
1909.67	20
1910.66	23.5
1911.66	24
1912.65	25
1913.64	24
1914.64	24
1915.63	25
1916.62	26
1917.62	23
1918.61	24.5
1919.6	25.5
1920.59	23.5
1921.58	24
1922.58	25.5
1923.57	28
1924.56	24
1925.55	27.5
1926.54	23.5
1927.53	27
1928.52	25
1929.51	26.5
1930.51	23
1931.5	25.5
1932.49	24
1933.48	21.5
1934.47	27
1935.46	23
1936.45	22
1937.44	25
1938.42	27.5
1939.41	25.5
1940.4	21.5
1941.39	22
1942.38	26
1943.37	26
1944.36	27
1945.35	24.5
1946.33	24
1947.32	22.5
1948.31	24
1949.3	24.5
1950.29	21.5
1951.27	21
1952.26	24.5
1953.25	22.5
1954.23	24
1955.22	21
1956.21	21
1957.19	21.5
1958.18	23.5
1959.17	25.5
1960.15	20.5
1961.14	22.5
1962.13	23
1963.11	22.5
1964.1	21
1965.08	25.5
1966.07	25.5
1967.05	22
1968.04	21
1969.02	24
1970.01	25.5
1970.99	23.5
1971.97	19
1972.96	24.5
1973.94	26
1974.93	24
1975.91	26
1976.89	25
1977.88	22
1978.86	26
1979.84	22
1980.83	25.5
1981.81	24.5
1982.79	24
1983.77	26.5
1984.76	27
1985.74	24
1986.72	23.5
1987.7	24
1988.68	22.5
1989.67	27.5
1990.65	23
1991.63	25.5
1992.61	24.5
1993.59	23.5
1994.57	20.5
1995.55	26
1996.53	24.5
1997.51	25.5
1998.49	25.5
1999.47	19.5
2000.45	17.5
2001.43	22
2002.41	23
2003.39	24
2004.37	22.5
2005.35	25
2006.33	20.5
2007.31	26.5
2008.29	24
2009.26	24
2010.24	24
2011.22	25
2012.2	23.5
2013.18	19.5
2014.15	27
2015.13	26.5
2016.11	24.5
2017.09	22.5
2018.06	21.5
2019.04	27
2020.02	28.5
2021	26
2021.97	23
2022.95	24.5
2023.92	24
2024.9	24.5
2025.88	22
2026.85	27
2027.83	23.5
2028.8	24
2029.78	28
2030.75	23
2031.73	24
2032.7	25
2033.68	20.5
2034.65	20
2035.63	20.5
2036.6	26
2037.58	23.5
2038.55	24
2039.52	25.5
2040.5	26.5
2041.47	22.5
2042.45	23.5
2043.42	23.5
2044.39	26
2045.36	23
2046.34	21.5
2047.31	21.5
2048.28	22
2049.26	22.5
2050.23	23
2051.2	20
2052.17	20.5
2053.14	25
2054.12	22.5
2055.09	20
2056.06	23
2057.03	25.5
2058	25
2058.97	24
2059.94	21.5
2060.91	24.5
2061.88	23
2062.85	25.5
2063.82	23.5
2064.79	20.5
2065.76	22.5
2066.73	19
2067.7	24
2068.67	25.5
2069.64	19
2070.61	25
2071.58	21
2072.55	24
2073.52	24
2074.49	25
2075.45	27.5
2076.42	21
2077.39	21
2078.36	22.5
2079.33	20.5
2080.29	24.5
2081.26	24
2082.23	24
2083.2	22
2084.16	22
2085.13	28.5
2086.1	22.5
2087.06	23
2088.03	21
2089	21.5
2089.96	21.5
2090.93	22.5
2091.89	22
2092.86	24
2093.83	24.5
2094.79	23.5
2095.76	24
2096.72	22
2097.69	23.5
2098.65	24
2099.62	27
2100.58	22.5
2101.55	22
2102.51	23.5
2103.47	20.5
2104.44	22
2105.4	20
2106.36	23
2107.33	20
2108.29	20.5
2109.25	25.5
2110.22	22
2111.18	26
2112.14	26
2113.11	19
2114.07	24
2115.03	23
2115.99	26
2116.96	25
2117.92	23
2118.88	21.5
2119.84	25.5
2120.8	26
2121.76	22.5
2122.72	25.5
2123.68	23.5
2124.65	25
2125.61	23
2126.57	23
2127.53	22
2128.49	20
2129.45	26
2130.41	23.5
2131.37	22.5
2132.33	23.5
2133.29	21
2134.25	26
2135.21	24
2136.17	24
2137.12	22.5
2138.08	21
2139.04	21
2140	18.5
2140.96	28
2141.92	20
2142.88	22.99
2143.83	25.93
2144.79	22.5762
2145.75	22.1313
2146.71	25.9433
2147.66	21.4839
2148.62	24.0987
2149.58	21.3816
2150.53	23.6591
2151.49	21.9411
2152.45	22.973
2153.4	22.5215
2154.36	24.5309
2155.32	23.2476
2156.27	24.8535
2157.23	20.7416
2158.19	21.6107
2159.14	22.7114
2160.1	21.6971
2161.05	23.8287
2162.01	23.192
2162.96	21.9304
2163.92	23.4099
2164.87	24.6578
2165.83	25.103
2166.78	21.5599
2167.73	19.5744
2168.69	24.9251
2169.64	23.4808
2170.6	21.7663
2171.55	22.6639
2172.5	24.7383
2173.46	21.6983
2174.41	21.6287
2175.36	23.4448
2176.32	20.9771
2177.27	20.8544
2178.22	22.5987
2179.18	23.5329
2180.13	22.7607
2181.08	21.9827
2182.03	24.5724
2182.98	23.4805
2183.94	21.733
2184.89	21.1911
2185.84	23.727
2186.79	22.3421
2187.74	21.0294
2188.69	19.9332
2189.64	20.7008
2190.6	22.6681
2191.55	23.1835
2192.5	17.7711
2193.45	22.2485
2194.4	23.3331
2195.35	22.526
2196.3	23.5762
2197.25	19.4457
2198.2	21.573
2199.15	25.5363
2200.1	20.5573
2201.04	19.4027
2201.99	21.3776
2202.94	21.3162
2203.89	23.917
2204.84	21.8721
2205.79	23.2286
2206.74	22.8627
2207.69	20.0048
2208.63	22.8949
2209.58	19.3863
2210.53	22.772
2211.48	24.324
2212.43	24.3568
2213.37	22.5958
2214.32	23.9005
2215.27	20.9788
2216.21	19.9506
2217.16	22.0259
2218.11	17.793
2219.05	21.9798
2220	24.4336
2220.95	21.7194
2221.89	22.079
2222.84	24.733
2223.78	21.8886
2224.73	22.6572
2225.68	21.9848
2226.62	23.3601
2227.57	20.87
2228.51	22.5605
2229.46	20.0022
2230.4	20.9764
2231.35	21.0461
2232.29	23.4245
2233.24	21.1816
2234.18	21.6821
2235.12	24.7259
2236.07	24.9064
2237.01	22.6522
2237.95	21.3772
2238.9	22.5015
2239.84	23.0049
2240.06	23
2241.01	23.5
2241.96	17
2242.91	22
2243.86	24.5
2244.8	24
2245.75	24.5
2246.7	22
2247.65	21
2248.59	25.5
2249.54	25
2250.49	22.5
2251.43	20
2252.38	24.5
2253.33	22
2254.27	22
2255.22	22.5
2256.16	21.5
2257.11	25
2258.06	22
2259	20
2259.95	21
2260.89	18
2261.84	22.5
2262.78	23.5
2263.73	21
2264.67	23.5
2265.62	21.5
2266.56	24.5
2267.5	20.5
2268.45	26
2269.39	24.5
2270.34	22.5
2271.28	21
2272.22	25
2273.17	23
2274.11	22.5
2275.05	26
2276	21
2276.94	20.5
2277.88	20.5
2278.82	24.5
2279.77	22
2280.71	21.5
2281.65	20.5
2282.59	22
2283.53	22.5
2284.48	20.5
2285.42	20
2286.36	23
2287.3	24
2288.24	23.5
2289.18	22.5
2290.12	22
2291.06	24
2292	24
2292.94	23.5
2293.89	20.5
2294.83	27
2295.77	22.5
2296.71	24
2297.65	21
2298.58	23
2299.52	24
2300.46	22.5
2301.4	21
2302.34	26
2303.28	22
2304.22	22
2305.16	21
2306.1	23
2307.03	27.5
2307.97	22
2308.91	23
2309.85	22
2310.79	26.5
2311.72	19.5
2312.66	24.5
2313.6	23
2314.54	23.5
2315.47	22.5
2316.41	25
2317.35	24
2318.28	21
2319.22	21.5
2320.16	24.5
2321.09	21
2322.03	23.5
2322.96	24
2323.9	24.5
2324.84	24
2325.77	20.5
2326.71	26
2327.64	23.5
2328.58	22
2329.51	20
2330.45	20.5
2331.38	21
2332.32	19
2333.25	24
2334.18	28.5
2335.12	18
2336.05	20.5
2336.99	22.5
2337.92	21.5
2338.85	23.5
2339.79	22
2340.72	22
2341.65	22.5
2342.59	21
2343.52	23.5
2344.45	26
2345.39	21
2346.32	23.5
2347.25	23.5
2348.18	26.5
2349.11	26
2350.05	21
2350.98	24.5
2351.91	25.5
2352.84	23
2353.77	25
2354.7	24
2355.64	24
2356.57	21.5
2357.5	22.5
2358.43	28.5
2359.36	25
2360.29	24.5
2361.22	22
2362.15	23
2363.08	22.5
2364.01	26.5
2364.94	25.5
2365.87	25
2366.8	24.5
2367.73	25.5
2368.66	19
2369.58	20
2370.51	18.5
2371.44	23
2372.37	25.5
2373.3	26.5
2374.23	22.5
2375.16	23
2376.08	25
2377.01	23
2377.94	22
2378.87	19.5
2379.8	26.5
2380.72	21.5
2381.65	21.5
2382.58	24
2383.5	24
2384.43	24
2385.36	26
2386.28	25
2387.21	23
2388.14	23
2389.06	20.5
2389.99	26
2390.91	26
2391.84	20
2392.77	24.5
2393.69	25.5
2394.62	27.5
2395.54	22
2396.47	24.5
2397.39	20
2398.32	24
2399.24	22.5
2400.16	26.5
2401.09	21
2402.01	22.5
2402.94	23
2403.86	22
2404.78	25.5
2405.71	26.5
2406.63	18.5
2407.56	25
2408.48	21.5
2409.4	22.5
2410.32	27
2411.25	18
2412.17	24.5
2413.09	27
2414.02	24
2414.94	20
2415.86	26
2416.78	25.5
2417.7	22
2418.63	23.5
2419.55	25.5
2420.47	24
2421.39	24
2422.31	20.5
2423.23	27
2424.15	24
2425.07	21
2425.99	23
2426.92	26.5
2427.84	23.5
2428.76	27
2429.68	25
2430.59	25
2431.51	27
2432.43	25
2433.35	19
2434.27	24.5
2435.19	22
2436.11	27
2437.03	25.5
2437.95	22.5
2438.87	25.5
2439.79	24
2440.71	24.5
2441.62	25.5
2442.54	19.5
2443.46	21.5
2444.38	25
2445.3	21.5
2446.21	24
2447.13	24.5
2448.05	26
2448.97	26
2449.88	26.5
2450.8	19
2451.72	22.5
2452.63	24
2453.55	23
2454.47	26
2455.38	24.5
2456.3	24.5
2457.21	19.5
2458.13	25.5
2459.05	27
2459.96	29
2460.88	24.5
2461.79	25
2462.71	22.5
2463.62	27
2464.54	20.5
2465.45	21.5
2466.37	26.5
2467.28	21
2468.2	25.5
2469.11	24.5
2470.02	24.5
2470.94	23.5
2471.85	24.5
2472.77	23.5
2473.68	26
2474.59	22
2475.51	25
2476.42	25.5
2477.33	24
2478.25	25
2479.16	26
2480.07	26
2480.98	26
2481.9	26
2482.81	22
2483.72	23.5
2484.63	25
2485.55	24.5
2486.46	22.5
2487.37	25
2488.28	25.5
2489.19	24
2490.1	24.5
2491.01	25.5
2491.92	23
2492.83	25
2493.74	22
2494.66	22.5
2495.57	21
2496.48	24.5
2497.39	26
2498.3	24
2499.21	25.5
2500.12	24.5
2501.03	25.5
2501.93	29
2502.84	23
2503.75	24.5
2504.66	23
2505.57	23
2506.48	27.5
2507.39	24.5
2508.3	23.5
2509.21	24.5
2510.11	25
2511.02	26.5
2511.93	24
2512.84	23.5
2513.75	24
2514.65	24.5
2515.56	25
2516.47	22
2517.37	23
2518.28	24.5
2519.19	27
2520.09	20.5
2521	21
2521.91	25.5
2522.81	25
2523.72	23
2524.63	26.5
2525.53	25
2526.44	25
2527.34	23.5
2528.25	24
2529.16	23
2530.06	20
2530.97	25
2531.87	24.5
2532.78	25
2533.68	25
2534.58	25
2535.49	24
2536.39	23.5
2537.3	22
2538.2	25
2539.11	25.5
2540.01	25.5
2540.91	24.5
2541.82	22.5
2542.72	23
2543.62	25.5
2544.53	23
2545.43	22.5
2546.33	25
2547.23	25
2548.14	23.5
2549.04	22
2549.94	23.5
2550.84	25
2551.75	26.5
2552.65	24.5
2553.55	21.5
2554.45	24.5
2555.35	22
2556.26	23.5
2557.16	21
2558.06	24
2558.96	22.5
2559.86	25
2560.76	25
2561.66	25
2562.56	25
2563.46	23.5
2564.36	26
2565.26	22.5
2566.16	23.5
2567.06	25
2567.96	22
2568.86	25
2569.76	29
2570.66	21
2571.56	25
2572.46	24.5
2573.36	22
2574.26	26
2575.16	23.5
2576.05	23
2576.95	25
2577.85	22.5
2578.75	24.5
2579.65	25
2580.54	22
2581.44	27
2582.34	24
2583.24	20.5
2584.13	26
2585.03	24.5
2585.93	26
2586.83	23
2587.72	24
2588.62	21.5
2589.52	24.5
2590.41	27.5
2591.31	25.5
2592.2	28
2593.1	23.5
2594	25
2594.89	22
2595.79	24.5
2596.68	26.5
2597.58	22.5
2598.47	24.5
2599.37	26.5
2600.26	24
2601.16	25
2602.05	21
2602.95	22.5
2603.84	26.5
2604.74	23.5
2605.63	25.5
2606.52	24.5
2607.42	26.5
2608.31	23
2609.21	24
2610.1	27.5
2610.99	26.5
2611.89	24
2612.78	24.5
2613.67	23.5
2614.56	21
2615.46	28
2616.35	26
2617.24	25
2618.13	26.5
2619.03	25.5
2619.92	22
2620.81	24
2621.7	20.5
2622.59	22
2623.49	22.5
2624.38	21
2625.27	23.5
2626.16	24.5
2627.05	25
2627.94	24
2628.83	21
2629.72	23
2630.61	23.5
2631.5	26.5
2632.39	20.5
2633.28	19.5
2634.17	24
2635.06	25
2635.95	23.5
2636.84	22.5
2637.73	17.5
2638.62	28
2639.51	25.5
2640.4	23.5
2641.29	24.5
2642.18	26
2643.07	21
2643.96	24
2644.84	22
2645.73	22.5
2646.62	26
2647.51	20.5
2648.4	23
2649.28	26
2650.17	26.5
2651.06	27.5
2651.95	21
2652.83	21
2653.72	24
2654.61	25
2655.49	23
2656.38	24.5
2657.27	22
2658.16	21
2659.04	23
2659.93	25.5
2660.81	21.5
2661.7	27.5
2662.59	25.5
2663.47	26
2664.36	26
2665.24	23
2666.13	26.5
2667.01	24
2667.9	23
2668.78	21.5
2669.67	23
2670.55	24
2671.44	26.5
2672.32	27
2673.21	25
2674.09	25.5
2674.97	22
2675.86	20
2676.74	23
2677.62	28
2678.51	25.5
2679.39	26.5
2680.27	24.5
2681.16	26.5
2682.04	24
2682.92	24
2683.81	23.5
2684.69	22
2685.57	26
2686.45	21
2687.34	23.5
2688.22	25
2689.1	26
2689.98	26.5
2690.86	23
2691.75	22
2692.63	27
2693.51	22.5
2694.39	28.5
2695.27	21
2696.15	26
2697.03	21
2697.91	22
2698.79	25
2699.67	24.5
2700.55	24.5
2701.43	23
2702.31	24.5
2703.19	23
2704.07	25
2704.95	21
2705.83	26
2706.71	24
2707.59	26
2708.47	24.5
2709.35	26
2710.23	23.5
2711.11	23.5
2711.99	26.5
2712.86	24
2713.74	21.5
2714.62	19
2715.5	25
2716.38	22
2717.26	21.5
2718.13	28
2719.01	23.5
2719.89	25
2720.77	24
2721.64	27
2722.52	26
2723.4	27.5
2724.27	24
2725.15	23
2726.03	23
2726.9	25
2727.78	26
2728.66	27.5
2729.53	23.5
2730.41	25
2731.28	26.5
2732.16	20.5
2733.03	27.5
2733.91	24
2734.79	22
2735.66	27
2736.54	24
2737.41	22.5
2738.29	28.5
2739.16	21
2740.03	24
2740.91	20
2741.78	26
2742.66	24.5
2743.53	23.5
2744.41	23.5
2745.28	28
2746.15	26
2747.03	26.5
2747.9	25
2748.77	24.5
2749.65	27
2750.52	27.5
2751.39	25
2752.27	22
2753.14	24
2754.01	24
2754.88	22.5
2755.75	23.5
2756.63	25
2757.5	24
2758.37	25.5
2759.24	24
2760.11	24
2760.99	24.5
2761.86	26
2762.73	27.5
2763.6	24
2764.47	26
2765.34	28
2766.21	23
2767.08	23
2767.95	23.5
2768.82	22.5
2769.69	25.5
2770.56	26
2771.43	20.5
2772.3	23.5
2773.17	23.5
2774.04	24
2774.91	23.5
2775.78	25.5
2776.65	23
2777.52	24
2778.39	22.5
2779.26	17.5
2780.13	23.5
2780.99	26
2781.86	24.5
2782.73	25
2783.6	16
2784.47	25.5
2785.34	24
2786.2	24
2787.07	24
2787.94	21.5
2788.81	24
2789.67	22
2790.54	26
2791.41	28
2792.27	21.5
2793.14	23
2794.01	26.5
2794.87	22.5
2795.74	26.5
2796.61	21
2797.47	26
2798.34	22
2799.21	25
2800.07	24.5
2800.94	25.25
2801.8	24
2802.67	23.5
2803.53	25
2804.4	26.5
2805.26	22.5
2806.13	24.5
2806.99	19.5
2807.86	23
2808.72	25.5
2809.59	27
2810.45	28.5
2811.32	23.5
2812.18	21
2813.04	25
2813.91	21.5
2814.77	29.5
2815.64	26.5
2816.5	23.5
2817.36	18.5
2818.22	24.5
2819.09	27
2819.95	26.5
2820.81	23.5
2821.68	23.5
2822.54	26.5
2823.4	27
2824.26	24.5
2825.13	21
2825.99	22
2826.85	21
2827.71	27.5
2828.57	22.5
2829.44	25
2830.3	25.5
2831.16	24
2832.02	23
2832.88	23
2833.74	25
2834.6	25
2835.46	25.5
2836.32	25.5
2837.18	26
2838.04	24
2838.9	26
2839.76	21.5
2840.62	22
2841.48	26
2842.34	25.5
2843.2	25.5
2844.06	23.5
2844.92	24
2845.78	26
2846.64	21.5
2847.5	21
2848.36	22
2849.22	23
2850.08	25.5
2850.93	22.5
2851.79	23
2852.65	24
2853.51	23
2854.37	22
2855.22	26
2856.08	24.5
2856.94	26
2857.8	23
2858.65	21.5
2859.51	24
2860.37	23.5
2861.23	27
2862.08	24.5
2862.94	25
2863.79	23
2864.65	26
2865.51	30
2866.36	25.5
2867.22	25
2868.08	22
2868.93	24
2869.79	23.5
2870.64	23
2871.5	26.5
2872.35	22
2873.21	28
2874.06	25
2874.92	27.5
2875.77	24
2876.63	22.5
2877.48	26.5
2878.34	25.5
2879.19	27
2880.05	27.5
2880.9	25
2881.76	24
2882.61	25.5
2883.46	28.5
2884.32	30
2885.17	26.5
2886.02	21
2886.88	30.5
2887.73	25
2888.58	29.5
2889.44	27
2890.29	31.5
2891.14	25.5
2891.99	28
2892.85	28.5
2893.7	24.5
2894.55	27.5
2895.4	24.5
2896.25	29.5
2897.11	27
2897.96	29
2898.81	30.5
2899.66	28.5
2900.51	36.5
2901.36	31.5
2902.21	33
2903.07	35.5
2903.92	37
2904.77	38.5
2905.62	38
2906.47	36.5
2907.32	39
2908.17	35.5
2909.02	38
2909.87	35
2910.72	31.5
2911.57	35.5
2912.42	29
2913.27	30
2914.12	32
2914.97	28.5
2915.81	30
2916.66	29
2917.51	25
2918.36	30.5
2919.21	25
2920.06	26.5
2920.91	24.5
2921.75	27
2922.6	27.5
2923.45	24.5
2924.3	19.5
2925.15	27
2925.99	25
2926.84	24
2927.69	26.5
2928.54	22
2929.38	20.5
2930.23	22
2931.08	22.5
2931.92	25.5
2932.77	22.5
2933.62	24.5
2934.46	29.5
2935.31	24.5
2936.16	27
2937	23.5
2937.85	28
2938.69	25.5
2939.54	26.5
2940.38	18
2941.23	27.5
2942.08	22
2942.92	27.5
2943.77	26
2944.61	20.5
2945.46	24
2946.3	23
2947.15	21
2947.99	27
2948.83	23.5
2949.68	24
2950.52	25
2951.37	25.5
2952.21	26
2953.05	24.5
2953.9	25.5
2954.74	28
2955.58	25.5
2956.43	25.5
2957.27	23.5
2958.11	30
2958.96	28
2959.8	28
2960.64	26
2961.48	25
2962.33	27
2963.17	32.5
2964.01	32
2964.85	34
2965.69	28.5
2966.54	27.5
2967.38	26.5
2968.22	26
2969.06	29.5
2969.9	25
2970.74	26
2971.58	28.0024
2972.43	26.9544
2973.27	27.0045
2974.11	27.8585
2974.95	23.1609
2975.79	31.308
2976.63	25.1893
2977.47	25.389
2978.31	23.9954
2979.15	24
2979.99	23.1915
2980.83	25.2978
2981.67	26.4172
2982.51	24.8504
2983.35	23.4094
2984.19	25.1016
2985.03	27.7797
2985.86	22.3919
2986.7	21.3927
2987.54	24.1201
2988.38	23
2989.22	22.6575
2990.06	21.0542
2990.9	27.2668
2991.73	23.3811
2992.57	20.9017
2993.41	20.7054
2994.25	22.9251
2995.09	22.4167
2995.92	23.6542
2996.76	23.1724
2997.6	22.5911
2998.44	21.4769
2999.27	21.3212
3000.11	22.4182
3000.95	23.4564
3001.78	23.5603
3002.62	22.416
3003.46	21.6262
3004.29	19.5075
3005.13	24.9654
3005.96	22.6406
3006.8	25.3563
3007.64	25.1789
3008.47	22.5926
3009.31	22.4227
3010.14	23.0251
3010.98	20.2481
3011.81	20.9099
3012.65	23.5025
3013.48	23.2859
3014.32	23.025
3015.15	19.4024
3015.99	20.9223
3016.82	21.8659
3017.66	22.3996
3018.49	21.7043
3019.33	20.5383
3020.16	22.8336
3020.99	20.9349
3021.83	23.5711
3022.66	21.8502
3023.5	21.9855
3024.33	23.1261
3025.16	22.1938
3026	22.438
3026.83	21.729
3027.66	21.796
3028.49	22.7608
3029.33	21.7522
3030.16	23.4529
3030.99	21.6358
3031.83	21.0136
3032.66	20.8161
3033.49	23.1321
3034.32	22.9538
3035.15	22.7807
3035.99	20.7531
3036.82	21.2718
3037.65	21.8602
3038.48	21.9019
3039.31	22.1333
3040.14	20.5809
3040.97	21.5026
3041.81	21.923
3042.64	25.4518
3043.47	23.1496
3044.3	20.7989
3045.13	21.8135
3045.96	22.8145
3046.79	22.1848
3047.62	23.2408
3048.45	21.362
3049.28	20.8439
3050.11	22.665
3050.94	21.5216
3051.77	20.3845
3052.6	21.33
3053.43	23.4677
3054.26	25.25
3055.08	23.7761
3055.91	21.133
3056.74	22.3815
3057.26	23
3058.09	24.5
3058.92	24
3059.76	23.5
3060.59	19.5
3061.42	21.5
3062.25	24
3063.09	21.5
3063.92	28
3064.75	24.5
3065.58	24
3066.42	20.5
3067.25	19
3068.08	23
3068.91	23
3069.74	22.5
3070.57	22.5
3071.41	23
3072.24	24
3073.07	23.5
3073.9	26
3074.73	23.5
3075.56	21
3076.39	23.5
3077.22	23
3078.05	18.5
3078.88	23
3079.71	22
3080.54	24
3081.37	24.5
3082.2	26.5
3083.03	21
3083.86	23
3084.69	18
3085.52	21
3086.35	24.5
3087.18	20
3088.01	22.5
3088.84	18
3089.67	21.5
3090.5	25
3091.32	23
3092.15	22
3092.98	24.5
3093.81	20.5
3094.64	25
3095.47	15
3096.29	20.5
3097.12	23
3097.95	21.5
3098.78	27
3099.6	20.5
3100.43	19.5
3101.26	25
3102.09	24
3102.91	19
3103.74	21.5
3104.57	22
3105.39	24.5
3106.22	20.5
3107.05	27
3107.87	23
3108.7	21.5
3109.52	21
3110.35	26
3111.18	20.5
3112	22
3112.83	25
3113.65	22
3114.48	23
3115.3	23
3116.13	20.5
3116.95	24
3117.78	24
3118.6	22
3119.43	25.5
3120.25	25.5
3121.08	20
3121.9	24
3122.72	24
3123.55	23.5
3124.37	25
3125.2	23.5
3126.02	18
3126.84	24.5
3127.67	25
3128.49	21
3129.31	24.5
3130.14	24.5
3130.96	20.5
3131.78	25.5
3132.61	26
3133.43	24
3134.25	24.5
3135.07	22.5
3135.89	24.5
3136.72	23.5
3137.54	21
3138.36	24
3139.18	24
3140	25
3140.83	24.5
3141.65	22
3142.47	21.5
3143.29	26.5
3144.11	22
3144.93	22
3145.75	29
3146.57	23
3147.4	25
3148.22	21
3149.04	20.5
3149.86	19.5
3150.68	23.5
3151.5	19.5
3152.32	22.5
3153.14	20
3153.96	23
3154.78	22.5
3155.59	21
3156.42	30
3157.23	25
3158.05	25
3158.87	25.5
3159.69	23
3160.51	26
3161.33	23
3162.15	24
3162.97	24.5
3163.78	23
3164.6	21.5
3165.42	21.5
3166.24	25
3167.06	22
3167.87	24.5
3168.69	21.5
3169.51	24
3170.33	22.5
3171.14	26
3171.96	20
3172.78	23.5
3173.6	26
3174.41	18.5
3175.23	24
3176.05	23.5
3176.86	21
3177.68	22
3178.5	24.5
3179.31	23.5
3180.13	21
3180.94	23
3181.76	23.5
3182.58	23.5
3183.39	19
3184.21	25
3185.02	25
3185.84	25.5
3186.65	24.5
3187.47	25
3188.28	21
3189.1	26
3189.91	25.5
3190.73	22
3191.54	22.5
3192.36	23
3193.17	22
3193.98	25
3194.8	23.5
3195.61	21
3196.43	26
3197.24	24.5
3198.05	26.5
3198.87	23.5
3199.68	19
3200.49	25.5
3201.31	19
3202.12	27
3202.93	24
3203.75	23
3204.56	22
3205.37	28
3206.18	22.5
3207	26.5
3207.81	20.5
3208.62	24
3209.43	25.5
3210.24	24
3211.06	23.5
3211.87	25
3212.68	24.5
3213.49	21
3214.3	25
3215.11	20
3215.92	24.5
3216.73	23
3217.55	27
3218.36	25
3219.17	25
3219.98	24
3220.79	26
3221.6	22
3222.41	24
3223.22	24.5
3224.03	21.5
3224.84	23
3225.65	23.5
3226.46	23
3227.27	24
3228.08	21.5
3228.89	21
3229.7	28.5
3230.5	23.5
3231.31	27.5
3232.12	24
3232.93	22
3233.74	25
3234.55	23
3235.36	23
3236.16	22
3236.97	22.5
3237.78	24
3238.59	25
3239.4	24
3240.2	24
3241.01	22.5
3241.82	26
3242.63	25
3243.43	20.5
3244.24	21.5
3245.05	23.5
3245.85	20
3246.66	24
3247.47	20.5
3248.27	27
3249.08	25.5
3249.89	24
3250.69	25
3251.5	21
3252.31	20.5
3253.11	23.5
3253.92	24.5
3254.72	23.5
3255.53	21
3256.33	25
3257.14	24
3257.94	23
3258.75	24
3259.55	25
3260.36	24
3261.16	22
3261.97	28.5
3262.77	25
3263.58	27.5
3264.38	23
3265.19	25
3265.99	21
3266.79	24.5
3267.6	22.5
3268.4	26
3269.21	25
3270.01	23
3270.81	22.5
3271.62	20
3272.42	24
3273.22	22.5
3274.03	22
3274.83	23.5
3275.63	23.5
3276.43	23
3277.24	21.5
3278.04	24
3278.84	20
3279.64	24
3280.45	24
3281.25	23
3282.05	25
3282.85	23.5
3283.65	23
3284.45	22.5
3285.26	21
3286.06	26.5
3286.86	24
3287.66	21.5
3288.46	26
3289.26	26
3290.06	25
3290.86	20.5
3291.66	24
3292.46	23
3293.26	21
3294.06	23.5
3294.86	18
3295.66	21.5
3296.46	24
3297.26	23.5
3298.06	21.5
3298.86	26
3299.66	23.5
3300.46	21
3301.26	22
3302.06	25.5
3302.86	23
3303.66	21
3304.46	24
3305.25	24
3306.05	21
3306.85	22
3307.65	21
3308.45	25.5
3309.25	25
3310.04	23
3310.84	26
3311.64	24
3312.44	22
3313.23	24
3314.03	24.5
3314.83	25
3315.63	21
3316.42	22.5
3317.22	20.5
3318.02	21.5
3318.81	22
3319.61	23
3320.41	23.5
3321.2	24
3322	28
3322.8	23.5
3323.59	22.5
3324.39	23
3325.18	22
3325.98	22.5
3326.78	23.5
3327.57	25.5
3328.37	27.5
3329.16	21.5
3329.96	25
3330.75	17
3331.55	23
3332.34	22.5
3333.14	23
3333.93	24.5
3334.73	24
3335.52	22
3336.31	25.5
3337.11	19
3337.9	27
3338.7	22
3339.49	26.5
3340.28	23.5
3341.08	31
3341.87	24
3342.66	26.5
3343.46	24
3344.25	25.5
3345.04	23
3345.84	21.5
3346.63	25.5
3347.42	24
3348.22	23
3349.01	26
3349.8	20
3350.59	26
3351.39	26.5
3352.18	25
3352.97	21
3353.76	25.5
3354.55	23
3355.35	25.5
3356.14	21
3356.93	22.5
3357.72	28.5
3358.51	21
3359.3	26
3360.09	25
3360.88	26
3361.67	21.5
3362.46	23.5
3363.26	20
3364.05	26.5
3364.84	24
3365.63	23
3366.42	24
3367.21	23.5
3368	26
3368.79	21
3369.58	24
3370.37	24
3371.15	20.5
3371.94	25.5
3372.73	19
3373.52	27.5
3374.31	22
3375.1	24
3375.89	24
3376.68	27
3377.47	22
3378.26	20.5
3379.04	23
3379.83	24.5
3380.62	25.5
3381.41	23
3382.2	24
3382.98	21.5
3383.77	25
3384.56	24.5
3385.35	25
3386.13	21
3386.92	25.5
3387.71	23
3388.5	26.5
3389.28	24.5
3390.07	24.5
3390.86	24
3391.64	25
3392.43	23
3393.22	27.5
3394	24
3394.79	21
3395.57	24
3396.36	25
3397.15	20
3397.93	23
3398.72	23.5
3399.5	25.5
3400.29	20.5
3401.07	24
3401.86	25
3402.65	25
3403.43	26.5
3404.21	25
3405	22
3405.78	26
3406.57	24
3407.35	27.5
3408.14	24.5
3408.92	25.5
3409.71	25
3410.49	23.5
3411.27	27.5
3412.06	24
3412.84	24.5
3413.62	25
3414.41	24
3415.19	25
3415.97	21
3416.76	22.5
3417.54	25.5
3418.32	27
3419.11	23
3419.89	20
3420.67	27
3421.46	22.5
3422.24	24
3423.02	20.5
3423.8	24
3424.58	26.5
3425.37	23.5
3426.15	23
3426.93	22
3427.71	24.5
3428.49	23.5
3429.27	24
3430.05	25.5
3430.84	21
3431.62	23
3432.4	22
3433.18	29.5
3433.96	23
3434.74	24.5
3435.52	21.5
3436.3	23.5
3437.08	20
3437.86	25.5
3438.64	26.5
3439.42	22.5
3440.2	27
3440.98	22.5
3441.76	24.5
3442.54	21
3443.32	25.5
3444.1	24.5
3444.88	28
3445.66	25.5
3446.44	25
3447.22	26
3448	24
3448.77	20.5
3449.55	23
3450.33	21.5
3451.11	22
3451.89	23.5
3452.67	25.5
3453.45	23
3454.22	24.5
3455	23
3455.78	25
3456.56	23.5
3457.33	25
3458.11	22.5
3458.89	26
3459.67	24
3460.44	28.5
3461.22	25
3462	21
3462.77	22.5
3463.55	25.5
3464.33	26
3465.1	21
3465.88	20.5
3466.66	25
3467.43	23
3468.21	22.5
3468.98	26.5
3469.76	23
3470.54	23
3471.31	20
3472.09	25.5
3472.86	25
3473.64	27
3474.41	24
3475.19	25
3475.96	19
3476.74	24.5
3477.51	21.5
3478.29	21.5
3479.06	29
3479.84	24
3480.61	22
3481.39	23
3482.16	24
3482.93	26.5
3483.71	26.5
3484.48	25.5
3485.25	25
3486.03	19.5
3486.8	27
3487.57	23.5
3488.35	24.5
3489.12	24.5
3489.89	21.5
3490.67	24.5
3491.44	29
3492.21	25
3492.99	24.5
3493.76	25.5
3494.53	22.5
3495.3	26.5
3496.08	24
3496.85	26.5
3497.62	24.5
3498.39	22.5
3499.16	24
3499.93	22.5
