#Acq. time (s)=	5
#Accumulations=	5
#Range (cm-¹)=	100...2000
#Windows=	2
#Autofocus=	Off
#AutoExposure=	Off
#Spike filter=	Multiple accum.
#Delay time (s)=	0
#Binning=	1
#Readout mode=	Signal
#DeNoise=	Off
#ICS correction=	Off
#Dark correction=	Off
#Inst. Process=	Off
#Instrument=	LabRAM HR Evol
#Detector=	Syncerity OE
#Objective=	x100_VIS_LWD
#Grating=	600 (500nm)
#ND Filter=	25%
#Laser=	633nm_Edge
#Hole=	100.021
#Range=	Visible
#Project=	bolus
#Sample=	B4
#Site=	r
#Title=	bolusb
#Remark=	
#Date=	18.06.2025 14:44
#Acquired=	18.06.2025 14:44:06
101.021	40
102.305	38
103.588	39
104.871	46.5
106.154	39.5
107.436	39.5
108.72	38.5
110.002	42.5
111.284	38
112.566	37.5
113.848	35.5
115.129	35
116.41	41
117.691	36
118.972	42
120.252	41
121.533	43
122.813	38.5
124.093	36.5
125.372	38.5
126.652	42
127.931	45.5
129.21	42
130.489	42
131.768	42.5
133.046	39
134.324	46
135.602	39
136.879	45
138.156	45.5
139.433	46
140.711	44.5
141.988	45
143.264	43.5
144.541	48
145.817	46
147.093	48.5
148.368	49
149.644	44
150.919	46
152.194	48.5
153.469	46.5
154.744	49.5
156.017	50.5
157.292	49
158.566	51
159.84	49.5
161.114	47
162.386	49
163.66	50
164.933	48.5
166.206	46
167.477	49
168.75	50.5
170.022	48.5
171.294	50.5
172.565	47
173.837	43
175.108	51
176.378	45.5
177.649	48.5
178.92	48
180.189	47
181.46	48.5
182.73	51
183.999	53
185.269	50.5
186.539	47.5
187.807	51
189.076	46.5
190.344	51.5
191.612	46
192.881	46
194.148	48
195.416	48.5
196.683	43
197.951	43.5
199.218	46
200.484	48
201.752	46.5
203.017	47
204.284	42.5
205.549	39.5
206.815	45.5
208.08	39
209.346	45.5
210.611	40.5
211.876	47
213.14	45
214.405	43.5
215.669	43.5
216.933	40
218.197	36.5
219.461	41
220.724	46.5
221.986	40
223.25	42
224.512	41
225.775	41.5
227.037	44
228.298	42
229.561	39
230.822	45
232.084	44
233.345	39.5
234.605	45
235.867	37.5
237.127	35.5
238.387	43
239.648	37.5
240.907	40
242.167	45
243.426	41.5
244.686	43
245.944	41.5
247.203	46
248.462	40.5
249.72	40
250.978	39.5
252.236	37
253.495	41
254.752	38
256.009	39
257.266	42.5
258.524	36
259.78	36
261.036	39.5
262.292	42.5
263.548	42
264.803	36
266.06	38
267.315	41
268.57	40
269.825	40
271.079	39
272.334	41.5
273.588	36.5
274.843	36.5
276.097	38.5
277.35	35.5
278.604	38
279.857	39
281.11	38
282.362	35
283.615	36.5
284.867	40
286.119	36
287.371	39
288.623	38
289.874	37
291.126	36.5
292.377	37
293.628	38
294.878	40.5
296.129	37.5
297.379	30.5
298.629	37.5
299.879	40
301.129	41
302.378	33.5
303.627	37
304.877	37
306.125	38.5
307.374	41.5
308.623	39
309.871	34.5
311.119	36
312.365	39.5
313.613	38.5
314.86	33.5
316.108	40
317.355	36.5
318.602	44
319.848	39.5
321.093	39.5
322.339	38
323.586	37.5
324.831	34
326.077	40
327.321	41
328.566	38
329.811	37
331.056	41
332.301	40.5
333.544	36.5
334.788	33
336.032	37
337.276	38
338.518	40
339.762	35
341.005	40
342.246	36.5
343.489	37.5
344.732	37
345.973	38
347.215	38.5
348.457	36.5
349.698	37.5
350.939	39.5
352.181	35
353.421	34
354.662	40
355.903	43.5
357.142	41
358.382	39.5
359.621	38
360.861	37
362.101	39.5
363.339	38
364.579	39.5
365.816	38
367.055	38
368.293	38.5
369.532	39.5
370.769	35.5
372.007	41
373.243	38.5
374.481	41.5
375.718	38.5
376.955	39
378.191	39.5
379.428	36.5
380.663	39.5
381.9	40
383.135	39.5
384.371	43
385.606	40.5
386.84	36
388.076	35.5
389.31	39
390.546	34
391.779	34.5
393.013	36.5
394.247	37
395.48	39
396.715	34.5
397.947	38.5
399.18	40
400.414	42
401.646	40.5
402.877	40.5
404.111	42
405.342	37
406.573	37
407.804	33
409.037	37
410.267	40.5
411.498	38.5
412.728	42
413.96	37
415.19	34
416.419	36
417.649	38.5
418.88	35.5
420.109	38.5
421.338	32.5
422.566	34
423.795	35.5
425.025	37
426.253	36
427.481	37.5
428.709	40
429.936	39
431.163	36.5
432.392	36.5
433.619	38.5
434.846	34
436.072	35.5
437.299	38.5
438.525	42
439.751	33.5
440.977	38.5
442.202	34.5
443.428	35
444.653	35
445.878	39.5
447.104	37
448.329	38.5
449.553	38.5
450.777	38.5
452.001	38
453.225	37
454.449	41
455.672	38
456.896	39.5
458.117	38
459.34	41
460.563	40.5
461.785	43
463.007	40.5
464.23	38.5
465.451	40
466.673	38
467.895	38.5
469.116	45.5
470.337	45
471.558	43
472.777	48
473.998	44
475.218	47.5
476.438	47
477.658	55.5
478.878	49
480.096	52
481.315	56
482.534	60
483.753	65
484.972	62
486.189	64
487.408	65
488.626	64.5
489.844	69
491.062	63
492.278	64.5
493.495	63
494.713	59.5
495.928	59.5
497.145	56.5
498.362	56.5
499.578	55.5
500.793	47
502.009	53.5
503.225	47
504.439	48
505.655	50
506.87	46
508.084	48
509.298	45
510.512	43.5
511.726	43
512.941	42
514.153	41
515.367	42
516.58	40
517.793	43.5
519.007	43.5
520.218	44
521.431	45
522.643	37
523.855	36.5
525.066	41.5
526.278	40
527.489	34.5
528.701	37.5
529.911	45
531.122	43
532.332	40.5
533.543	45
534.753	41
535.963	34.5
537.172	38.5
538.381	35.5
539.591	36.5
540.8	38
542.01	38
543.218	40
544.426	37.5
545.635	40
546.842	42
548.051	33
549.258	35.5
550.465	38.5
551.673	40
552.88	35.5
554.086	37
555.294	40
556.5	37.5
557.706	35
558.913	41
560.118	36.5
561.323	38.5
562.529	40
563.735	36.5
564.939	40
566.144	35
567.348	34.5
568.554	38
569.758	39.5
570.961	36.5
572.165	38.5
573.368	39.5
574.573	33
575.776	37.5
576.978	37
578.181	35
579.383	42
580.586	36.5
581.789	33
582.991	41
584.192	37
585.394	38
586.595	38.5
587.796	37
588.997	41.5
590.198	36
591.398	36
592.6	41.5
593.8	37
595	36.5
596.2	41.5
597.399	42.5
598.599	34.5
599.798	35.5
600.997	37
602.195	34.5
603.394	36
604.592	37
605.791	36
606.989	34.5
608.186	37.5
609.384	39.5
610.582	35.5
611.777	39.5
612.975	36
614.171	40.5
615.368	37.5
616.565	36.5
617.761	33.5
618.957	38.5
620.153	35
621.349	34.5
622.543	37
623.738	38.5
624.934	37.5
626.129	40.5
627.323	40.5
628.518	43
629.711	37
630.905	41
632.099	34
633.293	30
634.487	40
635.679	39.5
636.872	38.5
638.065	38.5
639.258	39
640.45	40
641.642	39.5
642.835	38.5
644.026	41.5
645.218	38
646.409	36
647.601	36.5
648.791	39
649.982	35.5
651.173	39
652.363	33.5
653.554	36.5
654.743	36
655.933	31
657.123	36
658.312	43
659.501	36.5
660.691	38
661.879	42
663.068	37
664.256	42
665.445	39
666.632	45
667.82	38
669.007	39.5
670.195	40.5
671.382	39.5
672.569	41.5
673.755	35
674.943	38
676.129	41.5
677.316	36.5
678.501	39.5
679.688	43.5
680.873	42.5
682.059	41.5
683.243	46.5
684.429	43.5
685.614	43
686.798	43.5
687.983	39.5
689.167	39.5
690.352	44
691.535	41
692.718	43
693.902	43.5
695.085	43.5
696.268	42
697.451	44
698.634	39
699.816	47.5
700.999	40.5
702.181	45.5
703.362	50.5
704.543	50.5
705.726	53
706.907	57
708.088	59
709.268	56
710.45	53
711.63	60
712.81	51.5
713.99	43.5
715.171	49
716.35	41
717.53	42.5
718.709	37
719.888	36.5
721.066	42.5
722.246	39
723.425	34
724.603	38.5
725.781	35.5
726.959	36
728.136	37
729.314	38.5
730.491	37.5
731.668	39
732.846	32
734.023	40.5
735.199	37
736.376	37.5
737.552	37
738.728	37.5
739.904	37.5
741.079	38.5
742.255	36.5
743.43	36
744.605	38.5
745.78	38
746.954	36
748.129	31.5
749.303	34.5
750.477	40
751.651	39
752.824	36
753.997	33
755.171	41.5
756.344	35
757.517	38
758.69	36.5
759.862	39.5
761.035	36.5
762.207	32
763.378	33
764.55	35
765.721	36.5
766.893	35
768.064	34.5
769.236	35.5
770.405	33
771.576	37.5
772.747	39
773.917	36
775.086	34
776.256	37
777.426	37
778.596	35
779.764	36
780.933	34
782.103	35
783.27	37
784.439	36
785.608	30
786.776	37
787.943	39
789.111	41.5
790.279	38.5
791.445	39.5
792.613	40
793.779	42.5
794.946	39.5
796.113	35.5
797.279	33.5
798.445	35
799.61	39
800.777	32
801.943	38.5
803.107	32.5
804.273	38.5
805.437	33
806.603	39
807.767	39.5
808.932	36
810.095	31
811.26	38.5
812.423	34
813.587	40
814.75	34
815.914	37.5
817.076	36
818.238	36
819.402	33
820.564	37.5
821.727	41
822.888	34
824.051	38
825.212	30.5
826.373	37
827.535	39.5
828.696	36
829.856	33
831.018	35
832.178	36
833.337	34
834.499	34
835.658	38
836.817	33
837.978	33.5
839.137	36.5
840.296	34
841.454	32
842.614	36
843.772	34.5
844.93	35
846.088	35
847.247	34.5
848.405	35
849.562	35.5
850.719	38.5
851.876	34.5
853.034	39
854.191	36.5
855.348	35.5
856.504	36
857.66	39.5
858.816	40.5
859.972	35.5
861.129	37
862.284	38
863.439	37.5
864.594	38
865.749	34.5
866.904	35.5
868.058	37.5
869.212	34
870.367	36.5
871.521	33.5
872.674	39.5
873.828	37
874.981	38.5
876.135	39
877.288	32
878.44	34
879.593	35
880.746	34
881.898	35.5
883.05	37.5
884.202	35
885.354	41
886.506	38.5
887.657	31
888.808	40.5
889.958	34
891.109	32.5
892.26	33.5
893.41	36
894.561	33
895.711	39.5
896.861	32
898.01	33
899.159	34.5
900.309	33.5
901.458	31
902.607	34
903.755	33
904.904	34.5
906.052	34
907.201	35.5
908.348	36
909.496	34.5
910.644	37
911.791	38
912.938	32.5
914.085	34
915.232	34
916.378	37
917.525	30
918.671	33
919.817	33
920.963	31.5
922.109	32
923.254	34.5
924.399	33
925.545	37.5
926.689	33.5
927.834	34.5
928.978	32
930.123	32
931.268	35
932.411	33
933.555	34.5
934.698	33.5
935.842	36
936.985	36
938.128	32.5
939.271	30
940.414	31.5
941.556	32
942.699	35
943.84	32.5
944.983	34
946.124	35.5
947.266	36
948.407	37
949.547	33
950.689	37
951.829	36
952.971	31
954.111	38
955.25	36.5
956.391	35
957.531	35.5
958.67	37
959.81	34.5
960.949	31.5
962.088	38
963.227	33.5
964.366	30
965.504	34
966.643	34
967.781	35
968.919	36
970.056	37.5
971.195	33
972.332	33
973.469	32.5
974.605	36.5
975.743	35
976.88	33.5
978.016	30.5
979.152	32
980.288	32.5
981.423	35.5
982.56	32
983.696	35.5
984.831	31
985.966	36
987.101	35
988.235	32.5
989.37	32.5
990.504	34.5
991.639	35
992.773	32.5
993.907	32.5
995.041	35
996.174	35.5
997.307	33.5
998.44	33
999.573	30
1000.71	36.5
1001.84	32.5
1002.97	38
1004.1	32.5
1005.24	36
1006.37	27
1007.5	36.5
1008.63	32
1009.76	39
1010.89	28.5
1012.02	33
1013.15	34
1014.28	36
1015.41	34
1016.54	34
1017.67	30
1018.8	34
1019.93	32
1021.06	34.5
1022.19	35
1023.32	34
1024.45	33
1025.58	36.5
1026.71	30
1027.84	36
1028.96	31.5
1030.09	30
1031.22	28
1032.35	35.5
1033.47	35.5
1034.6	36.5
1035.73	32.5
1036.86	32
1037.98	29
1039.11	30.5
1040.23	31
1041.36	32.5
1042.49	33
1043.61	33
1044.74	35
1045.86	34
1046.99	32.5
1048.11	33
1049.24	33.5
1050.36	29.5
1051.49	32.5
1052.61	29.5
1053.74	31.5
1054.86	32
1055.98	28
1057.11	30.5
1058.23	35.5
1059.35	33.5
1060.48	30.5
1061.6	33
1062.72	37.5
1063.85	31
1064.97	28
1066.09	33.5
1067.21	34.5
1068.33	31
1069.45	29.5
1070.57	30.5
1071.7	33.5
1072.82	34
1073.94	31
1075.06	33
1076.18	32
1077.3	35
1078.42	32
1079.54	30.5
1080.66	35
1081.78	32.5
1082.9	30
1084.02	33
1085.14	33.5
1086.26	32
1087.37	35
1088.49	32.5
1089.61	29
1090.73	33
1091.85	33.5
1092.96	34
1094.08	28
1095.2	35
1096.32	33.5
1097.43	28
1098.55	31
1099.67	28
1100.78	33.5
1101.9	30
1103.01	33
1104.13	31
1105.25	31
1106.36	34.5
1107.48	30
1108.59	31
1109.71	32.5
1110.82	31
1111.94	32.5
1113.05	34.5
1114.16	29
1115.28	31
1116.39	30
1117.51	32
1118.62	32
1119.73	31.5
1120.85	30.5
1121.96	34.5
1123.07	31.5
1124.18	30.5
1125.3	31
1126.41	30.5
1127.52	32.5
1128.63	32.5
1129.74	28
1130.86	34
1131.97	31.5
1133.08	30.5
1134.19	32
1135.3	35.5
1136.41	29
1137.52	32.5
1138.63	32.5
1139.74	31.5
1140.85	32
1141.96	34
1143.07	28.5
1144.18	33
1145.29	33.5
1146.4	36.5
1147.51	32
1148.62	31
1149.72	30.5
1150.83	36.5
1151.94	37
1153.05	34.5
1154.15	29.5
1155.26	34.5
1156.37	29
1157.48	33
1158.58	31
1159.69	31.5
1160.8	30.5
1161.9	29
1163.01	32.5
1164.12	34
1165.22	31
1166.33	35.5
1167.43	28
1168.54	32.5
1169.64	32
1170.75	33.5
1171.85	31
1172.96	28
1174.06	34.5
1175.17	35
1176.27	31
1177.37	35.5
1178.48	32
1179.58	31
1180.69	29
1181.79	35
1182.89	29.5
1183.99	28.5
1185.1	32
1186.2	31
1187.3	32.5
1188.4	32
1189.51	33
1190.61	27
1191.71	32
1192.81	33
1193.91	34
1195.01	27
1196.11	32.5
1197.22	30.5
1198.32	32.5
1199.42	33.4625
1200.52	30.8991
1201.62	30.441
1202.72	31.0251
1203.82	32.9199
1204.91	29.9324
1206.02	31.3692
1207.11	33.6893
1208.21	32.5483
1209.31	29.9963
1210.41	30.8497
1211.51	31.1345
1212.61	29.9047
1213.7	31.3376
1214.8	31.147
1215.9	32.4482
1217	29.5893
1218.09	31.7124
1219.19	30.7648
1220.29	34.0328
1221.39	31.6272
1222.48	29.6258
1223.58	31.9822
1224.68	32.1204
1225.77	31.4104
1226.87	29.9013
1227.96	28.5269
1229.06	28.6006
1230.15	29.5272
1231.25	30.8236
1232.34	26.8614
1233.44	32.4209
1234.53	28.8265
1235.63	30.8941
1236.72	31.6725
1237.82	30.7679
1238.91	29.5684
1240	29.9901
1241.1	32.3075
1242.19	30.4626
1243.28	29.2111
1244.38	30.664
1245.47	31.0125
1246.56	31.6292
1247.66	27.7161
1248.75	28.6605
1249.84	32.1524
1250.93	32.571
1252.02	32.2755
1253.12	30.3342
1254.21	30.6465
1255.3	31.2876
1256.39	32.1275
1257.48	33.0811
1258.57	31.0475
1259.66	31.8925
1260.75	29.5604
1261.84	28.55
1262.93	28.7787
1264.02	31.0384
1265.11	32.2276
1266.2	30.7083
1267.29	29.5649
1268.38	31.4727
1269.47	31.479
1270.56	32.4303
1271.65	31.4195
1272.74	31.9419
1273.82	28.1935
1274.91	31.3974
1276	29.3954
1277.09	27.9975
1278.18	28.5744
1279.26	29.6233
1280.35	31.9058
1281.44	30.3813
1282.52	30.6756
1283.61	29.1767
1284.7	27.8701
1285.78	27.5487
1286.87	30.683
1287.96	28.437
1289.04	30.5891
1290.13	31.1403
1291.21	31.8112
1292.3	31.1393
1293.38	29.242
1294.47	25.8352
1295.55	30.7035
1296.64	31.112
1297.72	26.9676
1298.81	29.6119
1299.89	32.0903
1300.97	30.8074
1302.06	28.0981
1303.14	30.104
1304.22	24.8562
1305.31	26.5185
1306.39	30.0796
1307.47	30.2009
1308.45	23
1309.54	29
1310.63	30
1311.72	25
1312.81	28.5
1313.89	29
1314.98	28.5
1316.07	30.5
1317.15	29.5
1318.24	31
1319.33	30
1320.41	28.5
1321.5	32
1322.59	29
1323.67	26
1324.76	29
1325.84	30
1326.93	29
1328.01	27.5
1329.1	29
1330.18	28.5
1331.27	30.5
1332.35	28
1333.44	27
1334.52	28
1335.6	31.5
1336.69	32.5
1337.77	34
1338.85	31
1339.94	27
1341.02	27
1342.1	28
1343.18	30
1344.27	32.5
1345.35	29.5
1346.43	31
1347.51	30
1348.6	31.5
1349.68	29
1350.76	28
1351.84	30
1352.92	28
1354	26.5
1355.08	29
1356.16	27
1357.24	30.5
1358.32	32
1359.4	27
1360.48	31
1361.56	27
1362.64	28.5
1363.72	29.5
1364.8	30.5
1365.88	31.5
1366.96	26.5
1368.04	29.5
1369.12	31.5
1370.19	23.5
1371.27	27.5
1372.35	28.5
1373.43	29.5
1374.51	28.5
1375.58	24.5
1376.66	30.5
1377.74	30
1378.82	30.5
1379.89	27.5
1380.97	30
1382.05	29
1383.12	29
1384.2	26
1385.27	29
1386.35	25.5
1387.43	28.5
1388.5	28.5
1389.58	32.5
1390.65	31
1391.73	31
1392.8	29
1393.87	28.5
1394.95	32
1396.02	28
1397.1	32
1398.17	34
1399.25	31.5
1400.32	33.5
1401.39	33
1402.47	31
1403.54	33.5
1404.61	34
1405.69	35
1406.76	33.5
1407.83	35
1408.9	28.5
1409.97	33
1411.05	38.5
1412.12	31.5
1413.19	35
1414.26	35.5
1415.33	29
1416.4	32
1417.47	33
1418.54	35
1419.61	34
1420.68	33
1421.76	33
1422.83	36.5
1423.89	30.5
1424.96	27
1426.03	32
1427.1	32.5
1428.17	31.5
1429.24	30
1430.31	32
1431.38	25.5
1432.45	31
1433.52	29
1434.58	28.5
1435.65	28.5
1436.72	31
1437.79	32
1438.85	29
1439.92	29
1440.99	29.5
1442.06	28
1443.12	29.5
1444.19	29
1445.26	26.5
1446.32	34
1447.39	32
1448.45	30.5
1449.52	26
1450.58	30
1451.65	33
1452.72	30
1453.78	28
1454.85	31.5
1455.91	30
1456.97	30.5
1458.04	32
1459.1	31
1460.17	26
1461.23	31.5
1462.3	31.5
1463.36	30.5
1464.42	27
1465.49	31.5
1466.55	26.5
1467.61	32.5
1468.67	27
1469.74	30
1470.8	30
1471.86	31.5
1472.92	31
1473.99	27
1475.05	29.5
1476.11	29
1477.17	27.5
1478.23	32.5
1479.29	27
1480.35	27
1481.41	32
1482.47	30
1483.54	24.5
1484.6	32.5
1485.66	29
1486.72	30
1487.78	32.5
1488.83	29
1489.89	30.5
1490.95	28.5
1492.01	23.5
1493.07	27.5
1494.13	30
1495.19	30.5
1496.25	28
1497.31	29.5
1498.36	31
1499.42	26
1500.48	29
1501.54	30
1502.59	31
1503.65	32
1504.71	30
1505.77	29
1506.82	32
1507.88	27.5
1508.93	28.5
1509.99	35.5
1511.05	26
1512.1	27
1513.16	32
1514.21	28.5
1515.27	30.5
1516.32	31.5
1517.38	26.5
1518.43	31
1519.49	33
1520.54	31
1521.6	31
1522.65	31
1523.71	31.5
1524.76	30.5
1525.81	29.5
1526.87	27
1527.92	32
1528.97	30
1530.03	29
1531.08	33.5
1532.13	33.5
1533.18	32.5
1534.24	28
1535.29	27.5
1536.34	30
1537.39	29.5
1538.45	28
1539.5	32
1540.55	28
1541.6	29
1542.65	27.5
1543.7	28
1544.75	29.5
1545.8	30
1546.85	29.5
1547.9	29
1548.95	30
1550	33.5
1551.05	26
1552.1	27
1553.15	28
1554.2	34
1555.25	31.5
1556.3	31.5
1557.35	26
1558.4	32.5
1559.45	30
1560.49	31.5
1561.54	24
1562.59	33
1563.64	31.5
1564.68	33
1565.73	30
1566.78	30.5
1567.83	34.5
1568.87	30
1569.92	28.5
1570.97	31.5
1572.01	32
1573.06	30.5
1574.11	33.5
1575.15	28
1576.2	27.5
1577.24	26.5
1578.29	31.5
1579.33	28
1580.38	26
1581.42	29
1582.47	30
1583.51	28
1584.56	31.5
1585.6	28
1586.65	34
1587.69	24
1588.73	29
1589.78	30
1590.82	34
1591.87	29.5
1592.91	30
1593.95	27
1594.99	32
1596.04	29
1597.08	26
1598.12	27.5
1599.16	29.5
1600.21	31
1601.25	27
1602.29	31
1603.33	29
1604.37	25.5
1605.41	28
1606.45	29
1607.5	29
1608.54	31.5
1609.58	33
1610.62	29.5
1611.66	30.5
1612.7	32.5
1613.74	29
1614.78	28.5
1615.82	28
1616.86	30
1617.89	30.5
1618.93	29.5
1619.97	30
1621.01	28
1622.05	31
1623.09	26
1624.13	29
1625.16	34
1626.2	28
1627.24	29
1628.28	23
1629.32	28.5
1630.35	30.5
1631.39	33.5
1632.43	30
1633.46	32
1634.5	28
1635.54	32
1636.57	28.5
1637.61	31.5
1638.65	32
1639.68	31
1640.72	31.5
1641.75	30
1642.79	27.5
1643.82	30
1644.86	30.5
1645.89	27.5
1646.93	28.5
1647.96	29.5
1649	29
1650.03	27
1651.07	26.5
1652.1	31.5
1653.13	33
1654.17	30
1655.2	28
1656.23	31
1657.27	31
1658.3	29
1659.33	29.5
1660.36	28
1661.4	26.5
1662.43	28.5
1663.46	30.5
1664.49	32
1665.53	32.5
1666.56	31
1667.59	28.5
1668.62	30
1669.65	32
1670.68	29.5
1671.71	29
1672.74	29
1673.77	28.5
1674.8	29
1675.83	30
1676.86	31
1677.89	25.5
1678.92	26.5
1679.95	31
1680.98	32
1682.01	30.5
1683.04	29
1684.07	28.5
1685.1	29
1686.13	26
1687.15	28.5
1688.18	31
1689.21	33
1690.24	27.5
1691.27	29.5
1692.29	27.5
1693.32	31.5
1694.35	29
1695.38	28.5
1696.4	30.5
1697.43	25
1698.46	27
1699.48	32
1700.51	29
1701.54	30.5
1702.56	26.5
1703.59	29.5
1704.61	26.5
1705.64	33
1706.66	30.5
1707.69	26.5
1708.71	29
1709.74	29.5
1710.76	28
1711.79	28.5
1712.81	28
1713.84	28
1714.86	28.5
1715.89	30
1716.91	26
1717.93	30.5
1718.96	31.5
1719.98	30.5
1721	30.5
1722.03	29
1723.05	33.5
1724.07	27.5
1725.09	33.5
1726.12	29
1727.14	25.5
1728.16	31
1729.18	24
1730.2	29
1731.23	32.5
1732.25	29.5
1733.27	28
1734.29	26
1735.31	33
1736.33	28.5
1737.35	28
1738.37	29.5
1739.39	33
1740.41	32
1741.43	29
1742.45	31.5
1743.47	34.5
1744.49	31.5
1745.51	26
1746.53	30
1747.55	31
1748.57	26
1749.59	29
1750.6	29
1751.62	30.5
1752.64	28.5
1753.66	30
1754.68	33.5
1755.69	30.5
1756.71	32.5
1757.73	28
1758.75	33
1759.76	30
1760.78	27
1761.8	29.5
1762.81	30
1763.83	26
1764.85	32.5
1765.86	30.5
1766.88	30.5
1767.89	25.5
1768.91	30
1769.93	30.5
1770.94	30
1771.96	28
1772.97	28.5
1773.99	27
1775	32
1776.02	30
1777.03	31.5
1778.04	27
1779.06	28.5
1780.07	28.5
1781.09	28
1782.1	34
1783.11	27.5
1784.13	32
1785.14	28
1786.15	31
1787.17	24.5
1788.18	30
1789.19	32
1790.2	30.5
1791.22	29
1792.23	30
1793.24	24
1794.25	30.5
1795.26	27
1796.27	31.5
1797.29	28
1798.3	30
1799.31	28.5
1800.32	33
1801.33	31
1802.34	30
1803.35	28.5
1804.36	29
1805.37	30
1806.38	28.5
1807.39	26.5
1808.4	27
1809.41	27
1810.42	30
1811.43	26.5
1812.44	30.5
1813.44	28
1814.45	25
1815.46	29
1816.47	31
1817.48	30
1818.49	33.5
1819.49	29
1820.5	27
1821.51	30
1822.52	24.5
1823.52	28.5
1824.53	29
1825.54	30
1826.54	28.5
1827.55	29
1828.56	30.5
1829.56	31
1830.57	30
1831.58	29.5
1832.58	30
1833.59	27.5
1834.59	29
1835.6	30
1836.6	26.5
1837.61	29.5
1838.61	28
1839.62	27
1840.62	31.5
1841.63	28
1842.63	28
1843.63	28
1844.64	33
1845.64	34
1846.65	30.5
1847.65	30.5
1848.65	26
1849.66	29
1850.66	29
1851.66	31.5
1852.66	25
1853.67	28.5
1854.67	32
1855.67	30
1856.67	28.5
1857.68	31
1858.68	28
1859.68	28
1860.68	30.5
1861.68	28
1862.68	29
1863.68	29.5
1864.68	29
1865.69	31.5
1866.69	29.5
1867.69	29
1868.69	28.5
1869.69	32
1870.69	31
1871.69	27
1872.69	26
1873.69	29
1874.69	26
1875.68	30.5
1876.68	28
1877.68	25
1878.68	28
1879.68	27
1880.68	32
1881.68	27.5
1882.67	23
1883.67	28
1884.67	25.5
1885.67	28
1886.66	23.5
1887.66	33
1888.66	31
1889.65	24
1890.65	33
1891.65	25
1892.65	30
1893.64	24.5
1894.64	31
1895.63	28.5
1896.63	27.5
1897.62	28.5
1898.62	30
1899.62	30
1900.61	28.5
1901.61	28
1902.6	28.5
1903.6	25
1904.59	30
1905.59	33
1906.58	27.5
1907.57	29
1908.57	29
1909.56	28.5
1910.56	26
1911.55	28
1912.54	31.5
1913.54	29
1914.53	30
1915.52	25
1916.51	25
1917.51	29
1918.5	30
1919.49	28.5
1920.48	28.5
1921.48	23.5
1922.47	28
1923.46	24.5
1924.45	27.5
1925.44	27
1926.43	28.5
1927.43	27
1928.42	30.5
1929.41	31
1930.4	27
1931.39	29.5
1932.38	31.5
1933.37	32
1934.36	29.5
1935.35	30
1936.34	31
1937.33	29.5
1938.32	28.5
1939.31	28.5
1940.3	30
1941.29	27
1942.28	27
1943.26	30.5
1944.25	27.5
1945.24	29.5
1946.23	27.5
1947.22	28
1948.2	28.5
1949.19	29.5
1950.18	27
1951.17	29.5
1952.15	27
1953.14	27.75
1954.13	27
1955.12	28.5
1956.1	28.5
1957.09	32
1958.08	26.5
1959.06	26.5
1960.05	30.5
1961.03	31
1962.02	30
1963.01	30
1963.99	27.5
1964.98	29
1965.96	29
1966.95	27
1967.93	30.5
1968.92	30
1969.9	29
1970.89	29
1971.87	26.5
1972.85	31
1973.84	23
1974.82	32
1975.81	27
1976.79	27
1977.77	30
1978.76	30.5
1979.74	26.5
1980.72	26.5
1981.7	29
1982.69	27
1983.67	28
1984.65	27
1985.63	30
1986.62	26.5
1987.6	27
1988.58	26
1989.56	30.5
1990.54	26
1991.52	29.5
1992.51	32
1993.49	29.5
1994.47	28
1995.45	24
1996.43	31
1997.41	29
1998.39	27
1999.37	27
