#Acq. time (s)=	5
#Accumulations=	5
#Range (cm-¹)=	100...2000
#Windows=	2
#Autofocus=	Off
#AutoExposure=	Off
#Spike filter=	Multiple accum.
#Delay time (s)=	0
#Binning=	1
#Readout mode=	Signal
#DeNoise=	Off
#ICS correction=	Off
#Dark correction=	Off
#Inst. Process=	Off
#Instrument=	LabRAM HR Evol
#Detector=	Syncerity OE
#Objective=	x100_VIS_LWD
#Grating=	600 (500nm)
#ND Filter=	25%
#Laser=	633nm_Edge
#Hole=	100.021
#Range=	Visible
#Project=	bolus
#Sample=	B4
#Site=	nr
#Title=	bolusb
#Remark=	
#Date=	18.06.2025 14:33
#Acquired=	18.06.2025 14:33:19
101.021	48
102.305	48
103.588	54
104.871	58.5
106.154	51
107.436	56
108.72	50.5
110.002	55
111.284	52.5
112.566	49
113.848	49.5
115.129	50
116.41	50.5
117.691	59
118.972	52.5
120.252	55.5
121.533	54
122.813	53
124.093	56
125.372	54
126.652	57
127.931	54
129.21	59
130.489	56
131.768	62.5
133.046	65
134.324	60
135.602	63.5
136.879	68.5
138.156	62
139.433	61
140.711	62
141.988	61
143.264	72.5
144.541	67.5
145.817	70.5
147.093	65.5
148.368	68
149.644	66
150.919	68
152.194	74.5
153.469	75
154.744	77.5
156.017	68
157.292	75.5
158.566	74
159.84	79.5
161.114	77
162.386	77.5
163.66	72
164.933	73
166.206	73.5
167.477	75
168.75	73
170.022	75
171.294	70.5
172.565	70
173.837	69.5
175.108	71
176.378	67
177.649	67
178.92	75
180.189	78
181.46	70.5
182.73	77.5
183.999	77.5
185.269	72.5
186.539	75
187.807	76.5
189.076	77.5
190.344	74
191.612	75
192.881	76
194.148	72
195.416	74
196.683	73
197.951	75.5
199.218	71.5
200.484	65
201.752	66
203.017	74.5
204.284	64.5
205.549	65
206.815	68.5
208.08	68.5
209.346	70.5
210.611	69
211.876	63
213.14	64.5
214.405	69
215.669	64.5
216.933	64
218.197	62
219.461	59.5
220.724	67.5
221.986	67.5
223.25	56
224.512	60
225.775	58.5
227.037	60.5
228.298	57.5
229.561	60.5
230.822	63
232.084	57.5
233.345	62.5
234.605	59.5
235.867	56
237.127	55
238.387	53
239.648	57
240.907	57
242.167	57.5
243.426	55.5
244.686	57.5
245.944	62
247.203	58.5
248.462	59.5
249.72	59.5
250.978	53
252.236	62.5
253.495	56.5
254.752	56.5
256.009	55.5
257.266	58
258.524	62.5
259.78	61
261.036	59.5
262.292	60.5
263.548	59.5
264.803	57
266.06	62
267.315	56
268.57	61
269.825	61.5
271.079	52
272.334	58.5
273.588	54
274.843	59.5
276.097	53.5
277.35	55.5
278.604	57
279.857	54.5
281.11	53.5
282.362	57.5
283.615	61.5
284.867	54
286.119	57.5
287.371	60
288.623	58
289.874	54.5
291.126	52.5
292.377	60.5
293.628	57
294.878	57
296.129	58.5
297.379	58.5
298.629	56
299.879	59
301.129	59.5
302.378	57.5
303.627	52.5
304.877	59
306.125	56.5
307.374	62.5
308.623	59.5
309.871	53
311.119	56.5
312.365	56.5
313.613	57
314.86	55.5
316.108	58.5
317.355	56
318.602	60.5
319.848	51.5
321.093	61.5
322.339	63.5
323.586	58.5
324.831	58.5
326.077	58
327.321	58.5
328.566	53
329.811	56
331.056	62.5
332.301	58.5
333.544	54
334.788	57.5
336.032	59
337.276	59.5
338.518	59
339.762	59.5
341.005	58
342.246	61
343.489	55
344.732	53
345.973	59
347.215	55
348.457	58.5
349.698	63.5
350.939	56.5
352.181	56.5
353.421	59
354.662	60.5
355.903	62.5
357.142	62
358.382	56
359.621	60.5
360.861	59
362.101	63.5
363.339	60.5
364.579	63
365.816	58.5
367.055	58
368.293	65.5
369.532	64.5
370.769	63
372.007	60.5
373.243	58
374.481	56.5
375.718	59
376.955	63
378.191	56.5
379.428	56
380.663	58
381.9	63
383.135	59
384.371	57
385.606	63
386.84	56
388.076	57
389.31	59
390.546	63
391.779	58
393.013	55.5
394.247	57
395.48	61
396.715	57
397.947	59
399.18	55.5
400.414	52
401.646	62.5
402.877	55.5
404.111	57.5
405.342	60.5
406.573	60.5
407.804	60
409.037	60.5
410.267	56
411.498	58.5
412.728	57
413.96	60
415.19	62.5
416.419	62.5
417.649	59.5
418.88	58.5
420.109	59
421.338	59.5
422.566	63.5
423.795	58.5
425.025	60.5
426.253	64.5
427.481	63
428.709	57.5
429.936	63
431.163	63
432.392	60
433.619	64
434.846	66
436.072	63
437.299	63
438.525	59.5
439.751	58.5
440.977	65.5
442.202	59.5
443.428	63
444.653	61.5
445.878	60.5
447.104	63
448.329	60
449.553	62
450.777	65
452.001	67
453.225	66
454.449	66.5
455.672	68.5
456.896	58
458.117	71
459.34	66
460.563	63.5
461.785	68.5
463.007	73
464.23	67.5
465.451	67
466.673	70
467.895	63.5
469.116	71.5
470.337	71.5
471.558	75
472.777	72
473.998	79
475.218	78.5
476.438	77
477.658	89
478.878	96
480.096	94
481.315	100.5
482.534	104
483.753	105.5
484.972	116
486.189	119.5
487.408	110
488.626	116
489.844	124.5
491.062	122
492.278	117
493.495	113.5
494.713	110
495.928	109
497.145	99
498.362	96.5
499.578	97
500.793	90
502.009	87.5
503.225	83
504.439	81.5
505.655	83
506.87	77
508.084	81
509.298	75.5
510.512	81
511.726	74
512.941	78
514.153	74
515.367	69.5
516.58	79
517.793	67
519.007	75
520.218	70
521.431	73
522.643	64.5
523.855	67
525.066	73.5
526.278	70
527.489	69.5
528.701	65.5
529.911	58
531.122	64
532.332	69
533.543	70.5
534.753	64.5
535.963	72
537.172	62
538.381	67
539.591	65.5
540.8	64.5
542.01	63
543.218	60
544.426	62
545.635	69
546.842	63
548.051	65
549.258	62
550.465	60
551.673	65.5
552.88	66
554.086	63.5
555.294	65
556.5	66
557.706	61
558.913	67
560.118	64
561.323	64.5
562.529	59
563.735	64.5
564.939	63
566.144	61
567.348	65
568.554	68
569.758	67.5
570.961	63.5
572.165	67
573.368	64
574.573	67
575.776	62.5
576.978	62
578.181	64
579.383	61.5
580.586	62.5
581.789	59.5
582.991	58
584.192	64.5
585.394	60
586.595	61
587.796	63.5
588.997	60.5
590.198	63.5
591.398	59
592.6	63
593.8	63
595	64
596.2	61.5
597.399	66
598.599	61.5
599.798	61
600.997	63
602.195	61.5
603.394	60
604.592	63
605.791	61.5
606.989	55
608.186	63.5
609.384	63.5
610.582	64
611.777	63
612.975	59.5
614.171	65
615.368	61.5
616.565	60.5
617.761	55.5
618.957	58
620.153	59
621.349	62.5
622.543	62
623.738	64.5
624.934	65.5
626.129	69.5
627.323	65
628.518	64.5
629.711	66.5
630.905	59.5
632.099	65
633.293	65.5
634.487	64
635.679	58
636.872	67
638.065	64.5
639.258	59.5
640.45	61
641.642	60
642.835	62.5
644.026	62.5
645.218	63
646.409	67
647.601	65.5
648.791	67
649.982	63.5
651.173	66.5
652.363	59.5
653.554	61
654.743	60.5
655.933	64
657.123	64
658.312	59
659.501	64.5
660.691	66.5
661.879	67
663.068	63.5
664.256	62
665.445	63
666.632	66
667.82	66
669.007	60.5
670.195	63.5
671.382	69
672.569	69.5
673.755	65
674.943	64.5
676.129	66.5
677.316	69
678.501	67.5
679.688	75
680.873	79
682.059	72
683.243	75.5
684.429	74
685.614	76.5
686.798	77
687.983	70
689.167	68
690.352	69
691.535	71
692.718	67.5
693.902	73
695.085	71
696.268	71.5
697.451	71.5
698.634	75
699.816	78
700.999	79
702.181	76
703.362	87
704.543	89
705.726	92
706.907	98
708.088	99
709.268	106
710.45	102
711.63	95.5
712.81	90.5
713.99	82
715.171	87
716.35	72.5
717.53	72
718.709	68
719.888	71
721.066	71
722.246	60.5
723.425	62
724.603	66.5
725.781	62
726.959	61
728.136	61.5
729.314	60
730.491	61
731.668	62
732.846	59
734.023	57
735.199	59
736.376	65
737.552	60.5
738.728	59.5
739.904	61
741.079	63.5
742.255	63
743.43	60
744.605	60
745.78	64.5
746.954	64.5
748.129	61
749.303	63
750.477	60
751.651	64.5
752.824	60
753.997	62.5
755.171	64.5
756.344	64.5
757.517	57
758.69	61.5
759.862	63
761.035	65.5
762.207	65
763.378	62.5
764.55	61.5
765.721	63
766.893	63
768.064	56
769.236	60.5
770.405	62.5
771.576	57.5
772.747	61
773.917	59.5
775.086	58
776.256	60.5
777.426	60
778.596	68
779.764	59.5
780.933	60
782.103	68
783.27	63
784.439	68.5
785.608	67
786.776	68.5
787.943	65
789.111	65.5
790.279	66.5
791.445	67
792.613	64.5
793.779	71
794.946	60
796.113	65
797.279	69.5
798.445	64
799.61	62
800.777	61
801.943	59.5
803.107	59
804.273	65.5
805.437	62.5
806.603	62.5
807.767	55
808.932	63
810.095	59.5
811.26	61
812.423	57
813.587	58
814.75	61.5
815.914	62.5
817.076	56.5
818.238	64
819.402	58.5
820.564	58
821.727	62.5
822.888	50
824.051	56
825.212	52
826.373	60
827.535	55.5
828.696	62
829.856	53
831.018	58
832.178	54
833.337	55.5
834.499	50.5
835.658	62
836.817	58
837.978	60.5
839.137	54
840.296	54.5
841.454	56.5
842.614	60
843.772	60
844.93	62.5
846.088	56
847.247	58.5
848.405	53.5
849.562	60.5
850.719	53.5
851.876	60
853.034	58
854.191	58
855.348	58.5
856.504	57.5
857.66	62.5
858.816	59
859.972	62
861.129	58
862.284	61
863.439	56
864.594	59
865.749	61
866.904	61.5
868.058	56
869.212	56.5
870.367	60
871.521	63.5
872.674	57
873.828	57.5
874.981	54
876.135	60
877.288	57
878.44	61.5
879.593	62
880.746	62.5
881.898	60
883.05	62.5
884.202	52
885.354	58
886.506	55
887.657	57
888.808	55
889.958	57.5
891.109	56
892.26	52
893.41	54
894.561	54
895.711	57.5
896.861	62.5
898.01	58
899.159	54.5
900.309	50.5
901.458	54
902.607	54.5
903.755	50
904.904	50
906.052	55
907.201	53.5
908.348	51
909.496	59
910.644	54.5
911.791	53.5
912.938	52
914.085	58
915.232	53.5
916.378	53
917.525	49
918.671	51
919.817	58.5
920.963	53.5
922.109	52
923.254	56.5
924.399	51
925.545	57
926.689	57.5
927.834	52
928.978	51.5
930.123	57.5
931.268	52
932.411	55.5
933.555	52.5
934.698	53
935.842	52.5
936.985	48
938.128	49
939.271	54.5
940.414	54
941.556	55
942.699	51
943.84	52.5
944.983	52
946.124	54
947.266	54
948.407	51
949.547	53
950.689	57
951.829	54.5
952.971	51
954.111	51.5
955.25	54.5
956.391	47
957.531	53
958.67	55
959.81	57
960.949	55
962.088	54
963.227	52
964.366	57
965.504	54
966.643	48
967.781	53
968.919	50
970.056	50
971.195	50.5
972.332	52
973.469	51
974.605	57.5
975.743	51
976.88	53
978.016	51
979.152	56.5
980.288	54.5
981.423	56.5
982.56	51.5
983.696	56.5
984.831	54
985.966	52
987.101	53.5
988.235	50
989.37	51
990.504	50.5
991.639	48.5
992.773	51.5
993.907	52.5
995.041	58
996.174	56.5
997.307	54
998.44	53
999.573	51
1000.71	51.5
1001.84	48
1002.97	55
1004.1	51
1005.24	50.5
1006.37	56
1007.5	49.5
1008.63	54.5
1009.76	56
1010.89	49.5
1012.02	54.5
1013.15	50
1014.28	54
1015.41	47
1016.54	53
1017.67	52
1018.8	54
1019.93	54.5
1021.06	45.5
1022.19	52
1023.32	50.5
1024.45	48.5
1025.58	44
1026.71	47
1027.84	54
1028.96	49
1030.09	47
1031.22	56
1032.35	45.5
1033.47	50.5
1034.6	54
1035.73	53
1036.86	49.5
1037.98	52
1039.11	50
1040.23	53.5
1041.36	49.5
1042.49	49
1043.61	46.5
1044.74	51
1045.86	46.5
1046.99	55
1048.11	48
1049.24	48.5
1050.36	46
1051.49	47.5
1052.61	48
1053.74	52
1054.86	51
1055.98	54
1057.11	54
1058.23	53
1059.35	49.5
1060.48	48
1061.6	43.5
1062.72	54
1063.85	45.5
1064.97	50
1066.09	49
1067.21	50
1068.33	48.5
1069.45	52.5
1070.57	50.5
1071.7	44.5
1072.82	50.5
1073.94	48
1075.06	49.5
1076.18	49.5
1077.3	48
1078.42	48.5
1079.54	51
1080.66	50
1081.78	52
1082.9	44.5
1084.02	49.5
1085.14	47.5
1086.26	46.5
1087.37	47.5
1088.49	49.5
1089.61	52.5
1090.73	48.5
1091.85	46
1092.96	48
1094.08	46
1095.2	47
1096.32	44
1097.43	50
1098.55	54
1099.67	50
1100.78	45.5
1101.9	49.5
1103.01	48.5
1104.13	40.5
1105.25	46
1106.36	45.5
1107.48	45.5
1108.59	46
1109.71	48
1110.82	47.5
1111.94	47
1113.05	49
1114.16	45
1115.28	42.5
1116.39	47
1117.51	51
1118.62	48.5
1119.73	44.5
1120.85	46
1121.96	49.5
1123.07	46
1124.18	47
1125.3	44
1126.41	45
1127.52	47
1128.63	46
1129.74	47
1130.86	44.5
1131.97	47
1133.08	43.5
1134.19	44.5
1135.3	43.5
1136.41	48.5
1137.52	47
1138.63	52
1139.74	46
1140.85	45
1141.96	51
1143.07	45.5
1144.18	48
1145.29	45.5
1146.4	49.5
1147.51	45
1148.62	48.5
1149.72	47.5
1150.83	47
1151.94	47
1153.05	49.5
1154.15	46
1155.26	45
1156.37	46
1157.48	50
1158.58	46
1159.69	46.5
1160.8	50.5
1161.9	47.5
1163.01	47
1164.12	44.5
1165.22	48.5
1166.33	47
1167.43	50
1168.54	42
1169.64	46.5
1170.75	46.5
1171.85	44.5
1172.96	45
1174.06	40.5
1175.17	47
1176.27	40.5
1177.37	46.5
1178.48	47.5
1179.58	42
1180.69	43
1181.79	45
1182.89	43.5
1183.99	43.5
1185.1	41.5
1186.2	47
1187.3	41
1188.4	45.5
1189.51	45.5
1190.61	44
1191.71	44
1192.81	42.5
1193.91	42
1195.01	48
1196.11	46
1197.22	45
1198.32	48.5
1199.42	41.52
1200.52	47.9063
1201.62	47.3303
1202.72	49.1978
1203.82	42.0617
1204.91	46.3346
1206.02	44.9702
1207.11	43.8553
1208.21	41.364
1209.31	44.6931
1210.41	40.5456
1211.51	46.6983
1212.61	42.6517
1213.7	41.23
1214.8	45.4478
1215.9	44.2281
1217	41.2918
1218.09	44.4307
1219.19	44.0733
1220.29	48.4839
1221.39	44.9403
1222.48	44.6725
1223.58	40.861
1224.68	45.0232
1225.77	42.1472
1226.87	42.8432
1227.96	47.9819
1229.06	44.639
1230.15	44.4723
1231.25	41.6435
1232.34	43.0649
1233.44	40.8721
1234.53	44.2561
1235.63	45.74
1236.72	45.6639
1237.82	40.3057
1238.91	45.5783
1240	42.5888
1241.1	43.9965
1242.19	44.1175
1243.28	42.9098
1244.38	44.3732
1245.47	39.2418
1246.56	41.8797
1247.66	43.8656
1248.75	45.5286
1249.84	46.4041
1250.93	45.9054
1252.02	43.2417
1253.12	42.5804
1254.21	45.683
1255.3	44.4813
1256.39	46.6938
1257.48	43.812
1258.57	46.4574
1259.66	45.9968
1260.75	46.221
1261.84	46.0859
1262.93	44.7352
1264.02	47.5451
1265.11	47.1423
1266.2	44.1599
1267.29	43.0509
1268.38	42.1758
1269.47	42.8225
1270.56	42.4695
1271.65	40.6016
1272.74	46.7174
1273.82	43.3738
1274.91	42.4482
1276	44.2361
1277.09	41.0018
1278.18	39.2566
1279.26	38.1031
1280.35	37.7801
1281.44	39.7365
1282.52	43.1092
1283.61	39.9245
1284.7	39.29
1285.78	40.5529
1286.87	41.5855
1287.96	39.5617
1289.04	40.6359
1290.13	39.9735
1291.21	40.8996
1292.3	42.7832
1293.38	38.8485
1294.47	37.3816
1295.55	38.6604
1296.64	43.9437
1297.72	41.7877
1298.81	43.3188
1299.89	38.2366
1300.97	38.71
1302.06	38.9577
1303.14	41.261
1304.22	39.4849
1305.31	42.1343
1306.39	43.5091
1307.47	40.4582
1308.45	44.5
1309.54	46.5
1310.63	44.5
1311.72	43
1312.81	39
1313.89	40
1314.98	43
1316.07	37.5
1317.15	40.5
1318.24	43.5
1319.33	38.5
1320.41	37.5
1321.5	42.5
1322.59	37.5
1323.67	39
1324.76	41
1325.84	41.5
1326.93	43.5
1328.01	42
1329.1	40
1330.18	38
1331.27	41
1332.35	40
1333.44	33
1334.52	41.5
1335.6	41
1336.69	37.5
1337.77	36.5
1338.85	38.5
1339.94	46
1341.02	36.5
1342.1	41.5
1343.18	44.5
1344.27	43
1345.35	42
1346.43	41.5
1347.51	42.5
1348.6	39
1349.68	43
1350.76	38.5
1351.84	45.5
1352.92	41
1354	36.5
1355.08	41
1356.16	39
1357.24	38.5
1358.32	42.5
1359.4	38
1360.48	42
1361.56	37
1362.64	38
1363.72	39
1364.8	36
1365.88	41
1366.96	38
1368.04	43.5
1369.12	39.5
1370.19	39
1371.27	38.5
1372.35	41
1373.43	40.5
1374.51	39.5
1375.58	41
1376.66	36.5
1377.74	39
1378.82	43
1379.89	41.5
1380.97	43.5
1382.05	40
1383.12	39.5
1384.2	39
1385.27	35
1386.35	43
1387.43	44
1388.5	36.5
1389.58	43.5
1390.65	41
1391.73	44.5
1392.8	43.5
1393.87	47.5
1394.95	43
1396.02	46.5
1397.1	41
1398.17	41
1399.25	43
1400.32	44.5
1401.39	45.5
1402.47	41
1403.54	50
1404.61	48.5
1405.69	48
1406.76	48
1407.83	43
1408.9	50
1409.97	51
1411.05	48.5
1412.12	51
1413.19	47
1414.26	48
1415.33	51.5
1416.4	41
1417.47	47.5
1418.54	44.5
1419.61	46
1420.68	46
1421.76	44
1422.83	44
1423.89	41
1424.96	40.5
1426.03	40.5
1427.1	46
1428.17	40
1429.24	47
1430.31	40
1431.38	43.5
1432.45	41.5
1433.52	45
1434.58	44.5
1435.65	41
1436.72	40.5
1437.79	40
1438.85	39
1439.92	41.5
1440.99	42.5
1442.06	39.5
1443.12	43.5
1444.19	44
1445.26	41.5
1446.32	40.5
1447.39	42.5
1448.45	39
1449.52	39.5
1450.58	41
1451.65	38
1452.72	38.5
1453.78	44
1454.85	38.5
1455.91	41
1456.97	39.5
1458.04	41
1459.1	39
1460.17	39
1461.23	39.5
1462.3	43
1463.36	41
1464.42	37.5
1465.49	40
1466.55	41.5
1467.61	41
1468.67	41.5
1469.74	42
1470.8	38
1471.86	43.5
1472.92	42.5
1473.99	38.5
1475.05	39.5
1476.11	43.5
1477.17	43.5
1478.23	39.5
1479.29	39
1480.35	35.5
1481.41	40
1482.47	43
1483.54	46
1484.6	36.5
1485.66	41.5
1486.72	41.5
1487.78	40
1488.83	38
1489.89	39.5
1490.95	40
1492.01	36
1493.07	41.5
1494.13	38.5
1495.19	38.5
1496.25	41
1497.31	40
1498.36	38
1499.42	42
1500.48	37
1501.54	36
1502.59	38.5
1503.65	40.5
1504.71	36
1505.77	38.5
1506.82	38
1507.88	32
1508.93	41
1509.99	37
1511.05	37
1512.1	38.5
1513.16	41
1514.21	35.5
1515.27	41.5
1516.32	35
1517.38	38
1518.43	41.5
1519.49	39
1520.54	36
1521.6	43
1522.65	40
1523.71	42
1524.76	37
1525.81	41
1526.87	40.5
1527.92	39
1528.97	40.5
1530.03	38
1531.08	39.5
1532.13	33
1533.18	40
1534.24	41.5
1535.29	36.5
1536.34	43.5
1537.39	38.5
1538.45	37
1539.5	37
1540.55	34.5
1541.6	38.5
1542.65	36.5
1543.7	37.5
1544.75	37
1545.8	37
1546.85	39.5
1547.9	36.5
1548.95	43.5
1550	41
1551.05	38.5
1552.1	37
1553.15	40
1554.2	37.5
1555.25	40
1556.3	35
1557.35	36
1558.4	39
1559.45	42.5
1560.49	34
1561.54	36
1562.59	39
1563.64	40.5
1564.68	39
1565.73	42
1566.78	39
1567.83	41
1568.87	31.5
1569.92	37.5
1570.97	41.5
1572.01	34.5
1573.06	45.5
1574.11	38.5
1575.15	35.5
1576.2	36.5
1577.24	39.5
1578.29	35
1579.33	37
1580.38	32
1581.42	39
1582.47	39.5
1583.51	37.5
1584.56	38.5
1585.6	40
1586.65	36
1587.69	34.5
1588.73	37.5
1589.78	35
1590.82	39.5
1591.87	38
1592.91	41.5
1593.95	35.5
1594.99	40
1596.04	38
1597.08	37.5
1598.12	36.5
1599.16	36.5
1600.21	38
1601.25	36
1602.29	36
1603.33	35
1604.37	42
1605.41	35
1606.45	36
1607.5	40.5
1608.54	37.5
1609.58	35.5
1610.62	40
1611.66	41.5
1612.7	40
1613.74	41
1614.78	39
1615.82	36.5
1616.86	36.5
1617.89	39.5
1618.93	37
1619.97	35.5
1621.01	36.5
1622.05	37
1623.09	37
1624.13	38
1625.16	39
1626.2	37.5
1627.24	37.5
1628.28	36
1629.32	34
1630.35	38
1631.39	39.5
1632.43	40.5
1633.46	36
1634.5	38.5
1635.54	37
1636.57	29.5
1637.61	36.5
1638.65	32
1639.68	40
1640.72	37.5
1641.75	35.5
1642.79	40.5
1643.82	37
1644.86	34
1645.89	37.5
1646.93	41
1647.96	39
1649	36.5
1650.03	40
1651.07	34
1652.1	41
1653.13	36
1654.17	36.5
1655.2	36.5
1656.23	36
1657.27	41
1658.3	36.5
1659.33	35.5
1660.36	35
1661.4	34
1662.43	42
1663.46	36.5
1664.49	39
1665.53	36
1666.56	38
1667.59	33
1668.62	33.5
1669.65	32
1670.68	39
1671.71	37
1672.74	32
1673.77	36.5
1674.8	30.5
1675.83	35
1676.86	34.5
1677.89	43
1678.92	37.5
1679.95	33
1680.98	32.5
1682.01	34
1683.04	33
1684.07	35
1685.1	37
1686.13	36
1687.15	36
1688.18	38
1689.21	36.5
1690.24	37.5
1691.27	34.5
1692.29	37
1693.32	33.5
1694.35	38.5
1695.38	35
1696.4	36
1697.43	36
1698.46	38
1699.48	39.5
1700.51	34
1701.54	35
1702.56	36
1703.59	33.5
1704.61	34.5
1705.64	36.5
1706.66	37.5
1707.69	33
1708.71	34.5
1709.74	35.5
1710.76	35.5
1711.79	34
1712.81	38
1713.84	33
1714.86	35
1715.89	39
1716.91	41
1717.93	35
1718.96	35.5
1719.98	37.5
1721	39
1722.03	36
1723.05	36
1724.07	37
1725.09	38
1726.12	35.5
1727.14	40.5
1728.16	35
1729.18	35.5
1730.2	34.5
1731.23	33.5
1732.25	41
1733.27	35
1734.29	37.5
1735.31	33
1736.33	36
1737.35	36.5
1738.37	39
1739.39	33
1740.41	33
1741.43	32.5
1742.45	37
1743.47	35
1744.49	37.5
1745.51	35.5
1746.53	34
1747.55	39.5
1748.57	35.5
1749.59	33.5
1750.6	38
1751.62	32
1752.64	39
1753.66	34.5
1754.68	34.5
1755.69	39
1756.71	31.5
1757.73	33
1758.75	36
1759.76	35
1760.78	38
1761.8	34.5
1762.81	37.5
1763.83	35.5
1764.85	36.5
1765.86	32
1766.88	30
1767.89	31.5
1768.91	31.5
1769.93	36.5
1770.94	30.5
1771.96	32
1772.97	40
1773.99	33.5
1775	37
1776.02	35
1777.03	34
1778.04	37
1779.06	33
1780.07	34
1781.09	39.5
1782.1	37
1783.11	36.5
1784.13	38.5
1785.14	33
1786.15	35.5
1787.17	33.5
1788.18	35
1789.19	35
1790.2	32
1791.22	38.5
1792.23	32.5
1793.24	37
1794.25	32
1795.26	34
1796.27	35
1797.29	34.5
1798.3	36.5
1799.31	33
1800.32	36
1801.33	36.5
1802.34	35.5
1803.35	33
1804.36	37.5
1805.37	34
1806.38	33.5
1807.39	36.5
1808.4	34
1809.41	36
1810.42	37
1811.43	33
1812.44	32.5
1813.44	36.5
1814.45	35
1815.46	37
1816.47	34.5
1817.48	37
1818.49	38.5
1819.49	33.5
1820.5	32
1821.51	36.5
1822.52	33.5
1823.52	31
1824.53	33
1825.54	33
1826.54	38
1827.55	33
1828.56	29
1829.56	38
1830.57	33.5
1831.58	38
1832.58	36
1833.59	33
1834.59	36
1835.6	35
1836.6	30.5
1837.61	34
1838.61	37.5
1839.62	34.5
1840.62	36
1841.63	35
1842.63	33
1843.63	35
1844.64	37
1845.64	37
1846.65	36.5
1847.65	33
1848.65	33
1849.66	35
1850.66	34
1851.66	36.5
1852.66	36.5
1853.67	39.5
1854.67	30.5
1855.67	33
1856.67	31
1857.68	35
1858.68	36.5
1859.68	35.5
1860.68	34
1861.68	35
1862.68	35
1863.68	38.5
1864.68	36.5
1865.69	31.5
1866.69	39
1867.69	34
1868.69	36
1869.69	35.5
1870.69	31
1871.69	33
1872.69	31.5
1873.69	38
1874.69	33
1875.68	35.5
1876.68	33.5
1877.68	33
1878.68	35.5
1879.68	35
1880.68	37.5
1881.68	32
1882.67	32.5
1883.67	31
1884.67	35
1885.67	33
1886.66	34
1887.66	34
1888.66	31
1889.65	34.5
1890.65	30.5
1891.65	33
1892.65	34
1893.64	33
1894.64	37.5
1895.63	35
1896.63	31
1897.62	37
1898.62	31
1899.62	33.5
1900.61	34.5
1901.61	30.5
1902.6	33.5
1903.6	30.5
1904.59	33
1905.59	35
1906.58	33
1907.57	32.5
1908.57	35
1909.56	31.5
1910.56	35.5
1911.55	32
1912.54	33.5
1913.54	32
1914.53	35.5
1915.52	34.5
1916.51	32.5
1917.51	36
1918.5	35
1919.49	34
1920.48	31
1921.48	32
1922.47	35.5
1923.46	29
1924.45	31.5
1925.44	31
1926.43	35.5
1927.43	32.5
1928.42	30
1929.41	30.5
1930.4	32
1931.39	37
1932.38	31.5
1933.37	33
1934.36	34.5
1935.35	35
1936.34	34.5
1937.33	32
1938.32	34
1939.31	32.5
1940.3	29.5
1941.29	38.5
1942.28	32
1943.26	32.5
1944.25	32
1945.24	29.5
1946.23	30.5
1947.22	34.5
1948.2	35
1949.19	32.5
1950.18	30
1951.17	30.5
1952.15	34
1953.14	34
1954.13	33
1955.12	32.5
1956.1	32
1957.09	29.5
1958.08	27.5
1959.06	32
1960.05	28.5
1961.03	34
1962.02	33
1963.01	36.5
1963.99	34.5
1964.98	34.5
1965.96	30
1966.95	33
1967.93	32
1968.92	36.5
1969.9	32.5
1970.89	34
1971.87	30.5
1972.85	32
1973.84	34
1974.82	33
1975.81	33.5
1976.79	36.5
1977.77	35.5
1978.76	27
1979.74	31
1980.72	32
1981.7	31
1982.69	31
1983.67	35.5
1984.65	33.5
1985.63	33
1986.62	31.5
1987.6	34.5
1988.58	32
1989.56	36.5
1990.54	35
1991.52	29
1992.51	30.5
1993.49	29
1994.47	31.5
1995.45	29.5
1996.43	30
1997.41	29
1998.39	30.5
1999.37	32
