#Acq. time (s)=	3
#Accumulations=	3
#Range (cm-¹)=	100...3000
#Windows=	3
#Autofocus=	Off
#AutoExposure=	Off
#Spike filter=	Multiple accum.
#Delay time (s)=	0
#Binning=	1
#Readout mode=	Signal
#DeNoise=	Off
#ICS correction=	Off
#Dark correction=	Off
#Inst. Process=	Off
#Instrument=	LabRAM HR Evol
#Detector=	Syncerity OE
#Objective=	x100_VIS_LWD
#Grating=	600 (500nm)
#ND Filter=	25%
#Laser=	633nm_Edge
#Hole=	100.021
#Range=	Visible
#Project=	Bolus
#Sample=	B4
#Site=	stripside
#Title=	m14
#Remark=	
#Date=	03.11.2025 20:02
#Acquired=	03.11.2025 20:02:04
100.969	29
102.252	36
103.535	34
104.818	32
106.101	32
107.384	34
108.666	34
109.948	33
111.232	31
112.514	32
113.795	34
115.077	34
116.358	34
117.639	37
118.919	30
120.2	33
121.48	33
122.76	32
124.04	28
125.32	28
126.599	35
127.879	30
129.158	34
130.436	32
131.715	36
132.992	36
134.27	41
135.548	32
136.826	40
138.104	36
139.381	38
140.658	35
141.935	32
143.212	38
144.489	34
145.763	38
147.04	40
148.315	36
149.591	41
150.867	39
152.142	42
153.416	41
154.691	40
155.965	45
157.24	38
158.514	45
159.786	38
161.06	37
162.334	41
163.607	38
164.881	32
166.152	38
167.425	39
168.698	42
169.969	41
171.241	39
172.513	36
173.785	44
175.055	41
176.326	48
177.597	40
178.867	46
180.137	43
181.408	41
182.677	42
183.947	36
185.217	40
186.485	40
187.755	44
189.022	44
190.291	38
191.56	47
192.828	42
194.096	43
195.363	38
196.631	42
197.899	41
199.165	35
200.432	28
201.698	37
202.965	40
204.23	38
205.497	36
206.762	35
208.028	40
209.293	36
210.559	35
211.823	40
213.088	35
214.352	35
215.617	30
216.88	38
218.145	38
219.408	30
220.672	36
221.934	36
223.196	34
224.46	30
225.722	36
226.985	28
228.246	36
229.508	30
230.77	31
232.031	41
233.292	34
234.554	36
235.814	35
237.074	36
238.335	30
239.595	34
240.854	35
242.115	37
243.374	30
244.633	35
245.893	36
247.151	31
248.409	32
249.667	32
250.927	36
252.184	33
253.442	36
254.699	30
255.957	36
257.214	32
258.47	31
259.727	32
260.983	33
262.24	30
263.496	32
264.752	36
266.007	37
267.262	36
268.517	33
269.773	36
271.028	30
272.282	33
273.536	33
274.79	36
276.044	32
277.297	30
278.551	34
279.804	33
281.057	25
282.31	36
283.564	30
284.816	32
286.068	32
287.32	33
288.572	28
289.823	31
291.074	32
292.325	28
293.576	30
294.827	32
296.077	36
297.328	33
298.578	32
299.828	32
301.077	29
302.325	28
303.575	31
304.824	32
306.073	26
307.321	32
308.57	30
309.818	29
311.066	34
312.314	35
313.562	34
314.808	42
316.055	34
317.302	34
318.549	30
319.796	29
321.042	26
322.288	37
323.533	27
324.779	30
326.024	26
327.27	32
328.515	29
329.759	34
331.004	33
332.248	32
333.493	31
334.736	33
335.98	33
337.223	35
338.466	22
339.709	33
340.952	32
342.195	29
343.437	33
344.68	29
345.922	31
347.163	34
348.405	37
349.647	31
350.887	34
352.128	27
353.37	32
354.609	35
355.85	30
357.089	34
358.33	32
359.57	30
360.809	32
362.049	30
363.287	32
364.526	28
365.764	35
367.003	26
368.241	28
369.479	32
370.718	32
371.955	28
373.193	28
374.429	31
375.667	30
376.903	33
378.139	35
379.376	36
380.611	34
381.848	29
383.083	30
384.319	36
385.554	37
386.79	35
388.024	27
389.258	28
390.493	33
391.727	32
392.962	35
394.195	34
395.428	28
396.663	30
397.895	30
399.128	32
400.361	30
401.593	28
402.825	29
404.058	33
405.29	32
406.521	30
407.752	33
408.985	36
410.215	32
411.446	29
412.678	31
413.908	23
415.138	38
416.367	29
417.597	28
418.828	26
420.057	27
421.286	31
422.514	35
423.743	32
424.973	31
426.201	34
427.429	30
428.657	32
429.884	34
431.112	28
432.34	28
433.567	33
434.794	30
436.02	32
437.247	34
438.473	34
439.699	36
440.925	36
442.15	34
443.376	34
444.601	30
445.826	34
447.051	33
448.275	29
449.5	32
450.724	29
451.948	34
453.172	31
454.396	30
455.619	33
456.842	31
458.065	33
459.288	35
460.511	32
461.733	31
462.956	38
464.178	37
465.4	32
466.621	37
467.843	36
469.064	39
470.285	40
471.505	32
472.726	36
473.946	42
475.166	41
476.387	38
477.606	36
478.825	41
480.044	48
481.264	42
482.483	46
483.702	48
484.921	53
486.138	52
487.356	55
488.574	50
489.792	60
491.009	60
492.226	61
493.444	56
494.661	48
495.877	51
497.094	54
498.31	48
499.525	52
500.741	46
501.958	39
503.172	40
504.388	42
505.603	41
506.817	42
508.032	42
509.247	36
510.46	38
511.675	41
512.888	38
514.102	34
515.316	38
516.528	34
517.742	35
518.954	32
520.167	36
521.378	41
522.591	36
523.802	30
525.015	39
526.226	37
527.438	32
528.648	33
529.86	32
531.07	35
532.281	30
533.491	34
534.702	35
535.911	34
537.121	32
538.33	32
539.54	36
540.749	32
541.957	32
543.167	35
544.375	30
545.584	33
546.791	36
547.999	27
549.207	36
550.414	33
551.621	32
552.829	33
554.035	34
555.241	31
556.449	34
557.655	35
558.86	26
560.066	30
561.272	34
562.477	34
563.682	30
564.888	28
566.093	27
567.297	35
568.501	26
569.705	31
570.91	30
572.114	33
573.317	30
574.52	33
575.723	32
576.927	35
578.13	30
579.332	33
580.535	35
581.737	28
582.938	30
584.14	33
585.343	31
586.544	34
587.745	35
588.946	29
590.147	34
591.347	34
592.548	31
593.748	30
594.948	30
596.147	34
597.347	34
598.546	30
599.745	33
600.944	38
602.143	34
603.342	29
604.54	35
605.738	29
606.937	34
608.134	28
609.332	32
610.529	29
611.727	36
612.924	37
614.121	35
615.317	32
616.513	36
617.709	32
618.905	27
620.101	28
621.297	30
622.492	32
623.688	34
624.883	31
626.077	28
627.271	34
628.466	32
629.66	32
630.855	35
632.047	39
633.241	30
634.435	32
635.629	30
636.82	34
638.014	32
639.207	30
640.399	34
641.59	32
642.783	32
643.975	34
645.166	34
646.357	32
647.549	28
648.741	34
649.93	29
651.122	34
652.311	37
653.502	31
654.692	32
655.881	29
657.071	32
658.261	34
659.45	32
660.639	30
661.827	34
663.016	28
664.204	30
665.393	30
666.581	34
667.769	32
668.957	33
670.143	31
671.331	31
672.518	35
673.705	40
674.891	35
676.078	38
677.264	28
678.451	35
679.636	38
680.821	36
682.007	33
683.192	36
684.378	34
685.562	40
686.747	38
687.931	38
689.115	34
690.3	40
691.483	37
692.666	37
693.851	34
695.034	39
696.216	38
697.4	38
698.582	42
699.764	41
700.948	44
702.129	36
703.311	43
704.493	36
705.674	46
706.855	46
708.036	44
709.218	53
710.399	48
711.579	47
712.759	43
713.939	48
715.12	42
716.299	32
717.478	36
718.657	35
719.836	35
721.015	31
722.195	33
723.373	37
724.552	33
725.729	30
726.907	35
728.085	33
729.262	36
730.44	31
731.617	36
732.795	32
733.972	32
735.148	36
736.324	36
737.501	33
738.677	34
739.852	38
741.028	31
742.203	34
743.379	31
744.554	30
745.729	28
746.903	29
748.078	30
749.252	36
750.426	31
751.599	33
752.772	28
753.946	33
755.119	24
756.293	31
757.466	35
758.639	32
759.811	28
760.984	30
762.155	31
763.327	37
764.499	32
765.67	36
766.842	28
768.013	32
769.183	32
770.354	34
771.525	29
772.696	32
773.865	37
775.035	28
776.205	31
777.375	33
778.544	28
779.713	33
780.882	30
782.052	38
783.219	34
784.388	36
785.557	35
786.724	34
787.892	31
789.06	38
790.227	32
791.395	28
792.562	32
793.728	31
794.895	32
796.061	37
797.228	32
798.395	28
799.56	33
800.726	34
801.891	38
803.057	33
804.221	37
805.387	36
806.551	29
807.716	26
808.879	31
810.044	28
811.208	29
812.372	38
813.535	32
814.699	31
815.862	37
817.025	32
818.188	31
819.351	35
820.513	26
821.675	28
822.837	32
823.999	35
825.161	30
826.322	27
827.483	26
828.645	30
829.805	31
830.966	34
832.127	28
833.287	31
834.447	26
835.607	34
836.767	31
837.926	34
839.085	30
840.245	36
841.404	28
842.562	30
843.72	32
844.88	32
846.038	28
847.195	35
848.353	28
849.512	34
850.669	31
851.826	32
852.983	36
854.139	32
855.296	36
856.453	35
857.609	28
858.765	33
859.921	32
861.077	33
862.232	35
863.387	34
864.542	30
865.697	25
866.852	28
868.008	30
869.162	30
870.316	27
871.47	34
872.624	25
873.778	34
874.931	36
876.084	31
877.237	33
878.39	33
879.543	29
880.695	33
881.846	32
882.999	36
884.151	30
885.302	36
886.454	32
887.606	30
888.757	31
889.908	34
891.059	28
892.21	29
893.359	27
894.509	30
895.659	27
896.81	28
897.959	36
899.109	33
900.257	33
901.407	33
902.556	30
903.705	34
904.854	32
906.001	32
907.149	33
908.298	32
909.446	32
910.592	28
911.74	34
912.888	32
914.034	34
915.181	30
916.328	30
917.473	28
918.62	26
919.766	26
920.911	28
922.058	26
923.204	28
924.348	29
925.494	31
926.638	30
927.783	31
928.928	27
930.072	33
931.216	33
932.36	32
933.504	28
934.647	31
935.791	32
936.933	26
938.077	26
939.219	31
940.363	30
941.504	34
942.647	33
943.789	28
944.932	31
946.073	33
947.215	37
948.356	28
949.498	30
950.638	28
951.778	22
952.92	28
954.06	36
955.199	29
956.34	34
957.479	26
958.62	28
959.759	34
960.898	22
962.038	28
963.176	30
964.315	32
965.453	30
966.592	30
967.73	31
968.867	28
970.006	28
971.144	28
972.281	28
973.418	34
974.554	27
975.692	31
976.829	32
977.965	30
979.101	30
980.237	35
981.374	34
982.509	33
983.645	32
984.78	34
985.915	32
987.05	29
988.184	28
989.319	30
990.453	34
991.589	35
992.722	27
993.856	34
994.99	31
996.123	33
997.257	32
998.39	32
999.523	28
1000.66	30
1001.79	27
1002.92	36
1004.05	30
1005.18	30
1006.32	30
1007.45	28
1008.58	36
1009.71	32
1010.84	32
1011.97	24
1013.1	31
1014.23	28
1015.36	28
1016.49	26
1017.62	30
1018.75	32
1019.88	30
1021.01	22
1022.14	30
1023.27	30
1024.4	30
1025.53	31
1026.66	26
1027.79	28
1028.91	30
1030.04	29
1031.17	30
1032.3	26
1033.42	32
1034.55	28
1035.68	32
1036.81	27
1037.93	28
1039.06	32
1040.18	25
1041.31	31
1042.44	28
1043.56	34
1044.69	26
1045.81	30
1046.94	28
1048.06	30
1049.19	32
1050.31	32
1051.44	22
1052.56	28
1053.69	30
1054.81	33
1055.93	28
1057.06	30
1058.18	32
1059.3	31
1060.43	27
1061.55	32
1062.67	24
1063.79	28
1064.92	33
1066.04	26
1067.16	28
1068.28	26
1069.4	32
1070.52	30
1071.65	26
1072.77	28
1073.89	31
1075.01	25
1076.13	24
1077.25	30
1078.37	33
1079.49	26
1080.61	29
1081.73	26
1082.85	30
1083.97	26
1085.09	29
1086.2	30
1087.32	32
1088.44	32
1089.56	31
1090.68	30
1091.8	30
1092.91	26
1094.03	30
1095.15	28
1096.26	31
1097.38	26
1098.5	28
1099.61	28
1100.73	30
1101.85	34
1102.96	26
1104.08	28
1105.19	28
1106.31	32
1107.43	32
1108.54	30
1109.66	33
1110.77	30
1111.88	28
1113	30
1114.11	30
1115.23	27
1116.34	30
1117.46	29
1118.57	24
1119.68	28
1120.8	28
1121.91	30
1123.02	30
1124.13	26
1125.25	24
1126.36	28
1127.47	33
1128.58	28
1129.69	28
1130.8	30
1131.92	26
1133.03	32
1134.14	30
1135.25	30
1136.36	29
1137.47	26
1138.58	29
1139.69	29
1140.8	29
1141.91	31
1143.02	31
1144.13	27
1145.24	32
1146.35	30
1147.46	30
1148.56	26
1149.67	28
1150.78	25
1151.89	26
1153	27
1154.1	28
1155.21	33
1156.32	31
1157.43	33
1158.53	28
1159.64	26
1160.75	27
1161.85	24
1162.96	30
1164.07	28
1165.17	31
1166.28	31
1167.38	30
1168.49	32
1169.59	30
1170.7	30
1171.8	30
1172.91	29
1174.01	28
1175.12	27
1176.22	28
1177.32	24
1178.43	30
1179.53	28
1180.64	27
1181.74	28
1182.84	25
1183.94	30
1185.05	31
1186.15	34
1187.25	27
1188.35	26
1189.46	26
1190.56	29
1191.66	26
1192.76	24
1193.86	28
1194.96	30
1196.06	31
1197.16	28.9216
1198.26	25.9548
1199.37	29.9847
1200.47	28.0397
1201.57	25.9314
1202.67	30.7024
1203.77	24.2441
1204.86	26.0937
1205.96	30.0541
1207.06	24.6087
1208.16	28.0583
1209.26	28.0598
1210.36	29.8697
1211.46	26.4256
1212.56	27.9243
1213.65	32.8268
1214.75	27.7954
1215.85	28.6315
1216.95	28.3666
1218.04	28.2322
1219.14	28.9592
1220.24	29.7002
1221.33	30.4212
1222.43	25.1531
1223.53	27.2253
1224.62	30.8433
1225.72	29.4049
1226.82	29.2335
1227.91	23.6157
1229.01	30.235
1230.1	28.9768
1231.2	29.2833
1232.29	29.0913
1233.39	28.5877
1234.48	28.1427
1235.58	27.2948
1236.67	26.7766
1237.77	29.4902
1238.86	26.5355
1239.95	28.4504
1241.05	31.7451
1242.14	28.3464
1243.23	29.3878
1244.33	28.815
1245.42	25.7613
1246.51	27.6148
1247.61	28.7335
1248.7	26.741
1249.79	29.8382
1250.88	29.303
1251.97	31.1778
1253.07	29.5147
1254.16	27.7681
1255.25	28.331
1256.34	31.0773
1257.43	30.8867
1258.52	31.1912
1259.61	29.3326
1260.7	26.3339
1261.79	28.6651
1262.88	29.9779
1263.97	26.6127
1265.06	29.5501
1266.15	30.4293
1267.24	31.1498
1268.33	28.5292
1269.42	27.0317
1270.51	26.3161
1271.6	30.7175
1272.68	28.1493
1273.77	27.1225
1274.86	26.0501
1275.95	27.6765
1277.04	26.5392
1278.12	28.0784
1279.21	25.5989
1280.3	26.2325
1281.39	22.4608
1282.47	24.0501
1283.56	28.6472
1284.65	25.9451
1285.73	26.4178
1286.82	28.8666
1287.91	31.9023
1288.99	30.455
1290.08	29.2428
1291.16	28.6632
1292.25	30.0735
1293.33	30.88
1294.42	29.4042
1295.5	24.8235
1296.59	24.652
1297.67	24.1174
1298.76	22.3566
1299.84	24.7205
1300.92	28.3126
1302.01	28.5821
1303.09	25.4926
1304.17	28.8158
1305.26	27.8079
1306.34	26.2419
1307.34	29
1308.43	28
1309.52	31
1310.61	27
1311.7	28
1312.78	31
1313.87	26
1314.96	30
1316.04	30
1317.13	27
1318.22	28
1319.3	25
1320.39	30
1321.48	30
1322.56	30
1323.65	29
1324.73	32
1325.82	27
1326.9	29
1327.99	26
1329.07	26
1330.16	24
1331.24	27
1332.33	27
1333.41	27
1334.5	24
1335.58	20
1336.66	31
1337.75	29
1338.83	32
1339.91	32
1341	32
1342.08	27
1343.16	31
1344.24	29
1345.33	28
1346.41	33
1347.49	28
1348.57	23
1349.65	26
1350.74	31
1351.82	30
1352.9	28
1353.98	25
1355.06	29
1356.14	29
1357.22	28
1358.3	27
1359.38	27
1360.46	33
1361.54	32
1362.62	29
1363.7	24
1364.78	30
1365.86	28
1366.94	30
1368.02	28
1369.09	28
1370.17	30
1371.25	28
1372.33	26
1373.41	28
1374.48	27
1375.56	26
1376.64	26
1377.72	28
1378.79	26
1379.87	29
1380.95	28
1382.02	32
1383.1	28
1384.17	33
1385.25	34
1386.33	31
1387.4	30
1388.48	27
1389.55	34
1390.63	31
1391.7	32
1392.78	28
1393.85	33
1394.93	28
1396	26
1397.07	29
1398.15	28
1399.22	29
1400.3	34
1401.37	30
1402.44	35
1403.52	32
1404.59	34
1405.66	34
1406.73	30
1407.81	26
1408.88	34
1409.95	31
1411.02	24
1412.09	35
1413.17	33
1414.24	32
1415.31	27
1416.38	35
1417.45	38
1418.52	22
1419.59	33
1420.66	28
1421.73	29
1422.8	33
1423.87	30
1424.94	26
1426.01	30
1427.08	32
1428.15	32
1429.22	32
1430.29	28
1431.35	32
1432.42	25
1433.49	32
1434.56	30
1435.63	27
1436.69	28
1437.76	30
1438.83	29
1439.9	27
1440.96	31
1442.03	28
1443.1	29
1444.17	28
1445.23	29
1446.3	28
1447.36	31
1448.43	26
1449.49	26
1450.56	33
1451.63	34
1452.69	31
1453.76	24
1454.82	26
1455.89	28
1456.95	28
1458.01	26
1459.08	32
1460.14	29
1461.21	27
1462.27	24
1463.34	31
1464.4	30
1465.46	24
1466.52	28
1467.59	28
1468.65	26
1469.71	30
1470.77	28
1471.84	28
1472.9	31
1473.96	26
1475.02	23
1476.08	30
1477.15	29
1478.21	34
1479.27	29
1480.33	31
1481.39	30
1482.45	30
1483.51	24
1484.57	28
1485.63	29
1486.69	31
1487.75	30
1488.81	32
1489.87	33
1490.93	35
1491.99	30
1493.05	29
1494.1	28
1495.16	24
1496.22	29
1497.28	28
1498.34	26
1499.4	28
1500.45	30
1501.51	32
1502.57	32
1503.63	26
1504.68	31
1505.74	24
1506.8	30
1507.85	31
1508.91	28
1509.97	24
1511.02	31
1512.08	33
1513.13	24
1514.19	31
1515.24	31
1516.3	33
1517.35	31
1518.41	28
1519.46	25
1520.52	30
1521.57	31
1522.63	26
1523.68	28
1524.73	22
1525.79	28
1526.84	26
1527.9	30
1528.95	29
1530	25
1531.05	27
1532.11	24
1533.16	33
1534.21	29
1535.26	29
1536.32	29
1537.37	34
1538.42	30
1539.47	25
1540.52	24
1541.57	31
1542.63	28
1543.68	32
1544.73	30
1545.78	22
1546.83	28
1547.88	31
1548.93	25
1549.98	30
1551.03	31
1552.08	32
1553.13	26
1554.18	29
1555.23	30
1556.27	29
1557.32	30
1558.37	30
1559.42	30
1560.47	30
1561.52	29
1562.56	31
1563.61	30
1564.66	26
1565.71	28
1566.75	25
1567.8	21
1568.85	27
1569.9	34
1570.94	28
1571.99	28
1573.03	30
1574.08	30
1575.13	29
1576.17	31
1577.22	24
1578.26	32
1579.31	30
1580.35	33
1581.4	26
1582.44	31
1583.49	31
1584.53	32
1585.58	30
1586.62	33
1587.66	28
1588.71	30
1589.75	31
1590.8	27
1591.84	32
1592.88	32
1593.92	26
1594.97	30
1596.01	30
1597.05	28
1598.1	29
1599.14	35
1600.18	30
1601.22	28
1602.26	26
1603.3	34
1604.35	30
1605.39	28
1606.43	32
1607.47	26
1608.51	30
1609.55	28
1610.59	30
1611.63	28
1612.67	28
1613.71	30
1614.75	26
1615.79	28
1616.83	32
1617.87	32
1618.91	27
1619.95	29
1620.99	29
1622.02	27
1623.06	28
1624.1	24
1625.14	33
1626.18	30
1627.21	26
1628.25	32
1629.29	30
1630.33	28
1631.36	30
1632.4	32
1633.44	28
1634.48	27
1635.51	27
1636.55	27
1637.58	29
1638.62	35
1639.66	27
1640.69	29
1641.73	24
1642.76	33
1643.8	28
1644.83	29
1645.87	28
1646.9	31
1647.94	33
1648.97	36
1650	26
1651.04	31
1652.07	25
1653.11	28
1654.14	30
1655.17	22
1656.21	26
1657.24	28
1658.27	30
1659.31	24
1660.34	32
1661.37	30
1662.4	28
1663.43	27
1664.47	30
1665.5	30
1666.53	32
1667.56	30
1668.59	30
1669.62	28
1670.66	31
1671.69	28
1672.72	31
1673.75	31
1674.78	30
1675.81	28
1676.84	26
1677.87	24
1678.9	35
1679.93	28
1680.96	25
1681.98	31
1683.01	28
1684.04	31
1685.07	32
1686.1	30
1687.13	27
1688.16	28
1689.18	29
1690.21	29
1691.24	33
1692.27	25
1693.3	33
1694.32	31
1695.35	26
1696.38	28
1697.4	24
1698.43	32
1699.46	29
1700.48	32
1701.51	28
1702.54	27
1703.56	22
1704.59	26
1705.61	29
1706.64	30
1707.66	29
1708.69	24
1709.71	30
1710.74	26
1711.76	28
1712.79	30
1713.81	32
1714.83	28
1715.86	28
1716.88	28
1717.91	26
1718.93	24
1719.95	33
1720.98	29
1722	24
1723.02	32
1724.04	29
1725.07	30
1726.09	21
1727.11	31
1728.13	35
1729.15	26
1730.18	31
1731.2	32
1732.22	28
1733.24	24
1734.26	31
1735.28	27
1736.3	33
1737.32	20
1738.34	30
1739.36	28
1740.38	32
1741.4	28
1742.42	31
1743.44	31
1744.46	28
1745.48	27
1746.5	27
1747.52	31
1748.54	27
1749.56	34
1750.58	26
1751.6	26
1752.61	20
1753.63	27
1754.65	29
1755.67	26
1756.68	31
1757.7	26
1758.72	30
1759.74	33
1760.75	26
1761.77	29
1762.79	30
1763.8	22
1764.82	28
1765.83	31
1766.85	24
1767.87	28
1768.88	29
1769.9	28
1770.91	28
1771.93	31
1772.94	28
1773.96	30
1774.97	30
1775.99	29
1777	28
1778.02	28
1779.03	26
1780.04	27
1781.06	30
1782.07	30
1783.09	26
1784.1	25
1785.11	30
1786.13	29
1787.14	32
1788.15	26
1789.16	32
1790.18	32
1791.19	28
1792.2	27
1793.21	20
1794.22	26
1795.23	30
1796.25	24
1797.26	31
1798.27	28
1799.28	32
1800.29	24
1801.3	26
1802.31	26
1803.32	28
1804.33	28
1805.34	28
1806.35	24
1807.36	30
1808.37	27
1809.38	28
1810.39	26
1811.4	35
1812.41	30
1813.42	32
1814.42	24
1815.43	31
1816.44	29
1817.45	28
1818.46	28
1819.47	29
1820.47	26
1821.48	27
1822.49	30
1823.49	29
1824.5	26
1825.51	30
1826.52	28
1827.52	31
1828.53	27
1829.53	30
1830.54	24
1831.55	24
1832.55	30
1833.56	30
1834.56	26
1835.57	28
1836.57	30
1837.58	24
1838.58	28
1839.59	29
1840.59	30
1841.6	30
1842.6	26
1843.61	28
1844.61	25
1845.61	24
1846.62	33
1847.62	24
1848.62	23
1849.63	26
1850.63	28
1851.63	30
1852.64	32
1853.64	31
1854.64	21
1855.64	20
1856.64	31
1857.65	28
1858.65	32
1859.65	27
1860.65	32
1861.65	28
1862.65	28
1863.65	25
1864.66	28
1865.66	26
1866.66	29
1867.66	24
1868.66	30
1869.66	30
1870.66	26
1871.66	28
1872.66	29
1873.66	31
1874.66	24
1875.65	28
1876.65	30
1877.65	23
1878.65	28
1879.65	28
1880.65	30
1881.65	30
1882.64	30
1883.64	27
1884.64	24
1885.64	29
1886.63	28
1887.63	25
1888.63	28
1889.63	31
1890.62	30
1891.62	30
1892.62	27
1893.61	29
1894.61	30
1895.6	30
1896.6	29
1897.6	26
1898.59	30
1899.59	28
1900.58	28
1901.58	31
1902.57	26
1903.57	30
1904.56	24
1905.56	26
1906.55	30
1907.54	30
1908.54	30
1909.53	28
1910.53	25
1911.52	30
1912.51	27
1913.51	26
1914.5	22
1915.49	28
1916.49	26
1917.48	26
1918.47	28
1919.46	27
1920.46	30
1921.45	28
1922.44	32
1923.43	22
1924.42	22
1925.41	23
1926.41	24
1927.4	27
1928.39	26
1929.38	27
1930.37	28
1931.36	29
1932.35	31
1933.34	32
1934.33	30
1935.32	25
1936.31	28
1937.3	24
1938.29	33
1939.28	23
1940.27	24
1941.26	30
1942.24	26
1943.23	20
1944.22	30
1945.21	28
1946.2	28
1947.19	22
1948.17	30
1949.16	30
1950.15	27
1951.14	24
1952.12	24
1953.11	26
1954.1	26
1955.09	26
1956.07	32
1957.06	28
1958.05	26
1959.03	28
1960.02	28
1961	30
1961.99	27
1962.98	30
1963.96	30
1964.95	30
1965.93	30
1966.92	26
1967.9	28
1968.89	29
1969.87	27
1970.85	31
1971.84	31
1972.82	24
1973.81	24
1974.79	28
1975.78	26
1976.76	30
1977.74	30
1978.73	29
1979.71	30
1980.69	28
1981.67	27
1982.66	29
1983.64	26
1984.62	32
1985.6	23
1986.59	28
1987.57	29
1988.55	32
1989.53	30
1990.51	27
1991.49	25
1992.47	26
1993.45	25
1994.44	24
1995.42	32
1996.4	29
1997.38	27
1998.36	28
1999.34	30
2000.32	32
2001.3	32
2002.28	26
2003.26	25
2004.24	28
2005.22	26
2006.19	26
2007.17	29
2008.15	27
2009.13	31
2010.11	24
2011.09	33
2012.06	28
2013.04	24
2014.02	28
2015	28
2015.98	21
2016.95	30
2017.93	24
2018.91	30
2019.88	27
2020.86	27
2021.84	30
2022.81	29
2023.79	28
2024.77	22
2025.74	25
2026.72	23
2027.69	22
2028.67	27
2029.65	33
2030.62	26
2031.6	29
2032.57	26
2033.55	27
2034.52	30
2035.5	30
2036.47	26
2037.44	28
2038.42	28
2039.39	28
2040.36	25
2041.34	26
2042.31	32
2043.29	26
2044.26	26
2045.23	26
2046.2	28
2047.18	20
2048.15	25
2049.12	28
2050.09	28
2051.07	24
2052.04	28
2053.01	33
2053.98	31
2054.95	25
2055.93	28
2056.9	22
2057.87	28
2058.84	29
2059.81	27
2060.78	28
2061.75	26
2062.72	29
2063.69	28
2064.66	24
2065.63	29
2066.6	24
2067.57	26
2068.54	31
2069.51	28
2070.48	26
2071.45	28
2072.42	26
2073.38	27
2074.35	30
2075.32	29
2076.29	26
2077.26	24
2078.23	26
2079.19	28
2080.16	25
2081.13	25
2082.1	25
2083.06	30
2084.03	27
2085	24
2085.96	25
2086.93	26
2087.9	33
2088.86	26
2089.83	29
2090.8	22
2091.76	26
2092.73	22
2093.69	27
2094.66	27
2095.62	24
2096.59	26
2097.55	26
2098.52	22
2099.48	31
2100.45	28
2101.41	27
2102.38	25
2103.34	27
2104.31	26
2105.27	30
2106.23	30
2107.2	27
2108.16	26
2109.12	28
2110.09	33
2111.05	29
2112.01	26
2112.98	31
2113.94	26
2114.9	28
2115.86	23
2116.82	34
2117.79	24
2118.75	30
2119.71	25
2120.67	30
2121.63	26
2122.59	27
2123.55	26
2124.52	32
2125.48	27
2126.44	24
2127.4	27
2128.36	21
2129.32	22
2130.28	18
2131.24	20
2132.2	28
2133.16	27
2134.12	28
2135.08	22
2136.04	31
2136.99	32
2137.95	28
2138.91	28
2139.87	29
2140.83	31
2141.79	29
2142.75	24
2143.7	28
2144.66	24
2145.62	22.0231
2146.58	24.0067
2147.53	28.0224
2148.49	26.049
2149.45	26.7556
2150.41	27.9269
2151.36	27.6303
2152.32	25.9353
2153.27	24.25
2154.23	26.9855
2155.19	24.019
2156.14	26.2115
2157.1	27.6503
2158.06	28.1038
2159.01	27.1582
2159.97	24.1552
2160.92	24.321
2161.88	25.8284
2162.83	25.8218
2163.79	24.7647
2164.74	29.198
2165.7	24.7932
2166.65	29.5463
2167.61	27.097
2168.56	23.7087
2169.51	25.2722
2170.47	24.4929
2171.42	26.4716
2172.38	26.0944
2173.33	27.3497
2174.28	24.1681
2175.24	24.7647
2176.19	26.2149
2177.14	23.3367
2178.09	27.9496
2179.05	28.663
2180	24.0601
2180.95	20.7302
2181.9	27.2969
2182.86	29.451
2183.81	27.7431
2184.76	23.7379
2185.71	20.7367
2186.66	26.7426
2187.61	24.3464
2188.57	23.9415
2189.52	27.7518
2190.47	24.1345
2191.42	23.9095
2192.37	26.603
2193.32	27.0773
2194.27	26.649
2195.22	25.5418
2196.17	26.648
2197.12	24.1659
2198.07	27.942
2199.02	24.2071
2199.97	23.1649
2200.92	26
2201.87	26
2202.82	26.8765
2203.76	25.3343
2204.71	22.3539
2205.66	25.7537
2206.61	22.9937
2207.56	25.8566
2208.51	25.1244
2209.45	25.3529
2210.4	26.3471
2211.35	28.0601
2212.3	26.9277
2213.24	26.6083
2214.19	25.7488
2215.14	25.7507
2216.09	24.835
2217.03	30.6847
2217.98	26.2722
2218.93	25.8298
2219.87	25.4627
2220.82	22.7167
2221.77	24.5985
2222.71	25.1079
2223.66	21.9722
2224.6	23.3792
2225.55	27.2412
2226.49	26.1727
2227.44	26.116
2228.38	27.9766
2229.33	28.3382
2230.27	23.8061
2231.22	23.1616
2232.16	25.2346
2233.11	25.2357
2234.05	25.3891
2235	26.0735
2235.94	26.5087
2236.88	28.0926
2237.83	28.4706
2238.77	27.357
2239.71	27.5994
2240.66	26.7303
2241.6	24.842
2242	24
2242.95	18
2243.9	26
2244.84	26
2245.79	27
2246.74	25
2247.69	28
2248.63	26
2249.58	23
2250.53	26
2251.47	27
2252.42	27
2253.37	28
2254.31	28
2255.26	24
2256.2	26
2257.15	23
2258.1	22
2259.04	24
2259.99	27
2260.93	27
2261.88	24
2262.82	24
2263.77	26
2264.71	30
2265.65	28
2266.6	24
2267.54	30
2268.49	22
2269.43	26
2270.38	29
2271.32	26
2272.26	22
2273.21	30
2274.15	29
2275.09	27
2276.04	25
2276.98	30
2277.92	24
2278.86	29
2279.81	27
2280.75	24
2281.69	25
2282.63	18
2283.57	25
2284.52	27
2285.46	25
2286.4	26
2287.34	24
2288.28	24
2289.22	29
2290.16	30
2291.1	27
2292.04	24
2292.98	27
2293.93	24
2294.86	25
2295.8	22
2296.74	28
2297.69	30
2298.62	26
2299.56	22
2300.5	29
2301.44	26
2302.38	18
2303.32	29
2304.26	27
2305.2	24
2306.14	26
2307.07	23
2308.01	29
2308.95	26
2309.89	29
2310.83	24
2311.76	27
2312.7	20
2313.64	28
2314.58	27
2315.51	28
2316.45	22
2317.39	30
2318.32	26
2319.26	29
2320.2	29
2321.13	29
2322.07	26
2323	25
2323.94	33
2324.88	28
2325.81	26
2326.75	28
2327.68	30
2328.62	24
2329.55	28
2330.49	24
2331.42	27
2332.36	21
2333.29	27
2334.22	26
2335.16	16
2336.09	31
2337.03	34
2337.96	29
2338.89	28
2339.83	24
2340.76	24
2341.69	23
2342.63	22
2343.56	18
2344.49	27
2345.43	31
2346.36	27
2347.29	28
2348.22	20
2349.15	24
2350.09	32
2351.02	25
2351.95	27
2352.88	22
2353.81	25
2354.74	26
2355.67	24
2356.61	30
2357.54	28
2358.47	28
2359.4	25
2360.33	20
2361.26	30
2362.19	28
2363.12	29
2364.05	26
2364.98	28
2365.91	30
2366.84	30
2367.77	29
2368.7	26
2369.62	30
2370.55	28
2371.48	25
2372.41	26
2373.34	28
2374.27	29
2375.2	29
2376.12	27
2377.05	28
2377.98	28
2378.91	27
2379.83	30
2380.76	30
2381.69	24
2382.62	29
2383.54	22
2384.47	29
2385.4	22
2386.32	25
2387.25	27
2388.18	23
2389.1	26
2390.03	28
2390.95	32
2391.88	32
2392.81	27
2393.73	28
2394.66	30
2395.58	29
2396.51	24
2397.43	26
2398.36	31
2399.28	31
2400.2	28
2401.13	26
2402.05	27
2402.98	25
2403.9	26
2404.83	30
2405.75	26
2406.67	31
2407.6	22
2408.52	28
2409.44	24
2410.37	28
2411.29	28
2412.21	26
2413.13	18
2414.06	29
2414.98	26
2415.9	22
2416.82	26
2417.74	26
2418.67	27
2419.59	30
2420.51	29
2421.43	27
2422.35	32
2423.27	30
2424.19	27
2425.11	26
2426.03	26
2426.96	27
2427.88	32
2428.8	27
2429.72	25
2430.64	24
2431.56	27
2432.48	32
2433.39	27
2434.31	30
2435.23	27
2436.15	31
2437.07	26
2437.99	26
2438.91	33
2439.83	24
2440.75	28
2441.67	29
2442.58	25
2443.5	30
2444.42	30
2445.34	29
2446.26	26
2447.17	24
2448.09	23
2449.01	22
2449.92	29
2450.84	30
2451.76	24
2452.68	29
2453.59	25
2454.51	26
2455.42	24
2456.34	29
2457.26	29
2458.17	30
2459.09	29
2460	29
2460.92	28
2461.83	24
2462.75	28
2463.66	28
2464.58	31
2465.49	32
2466.41	26
2467.32	26
2468.24	25
2469.15	26
2470.07	24
2470.98	24
2471.89	28
2472.81	28
2473.72	29
2474.64	23
2475.55	28
2476.46	26
2477.37	28
2478.29	27
2479.2	24
2480.11	22
2481.03	25
2481.94	31
2482.85	25
2483.76	29
2484.67	29
2485.59	28
2486.5	28
2487.41	27
2488.32	29
2489.23	31
2490.14	28
2491.05	24
2491.97	30
2492.88	31
2493.79	28
2494.7	32
2495.61	27
2496.52	20
2497.43	26
2498.34	29
2499.25	30
2500.16	31
2501.07	30
2501.98	26
2502.89	28
2503.79	26
2504.7	29
2505.61	28
2506.52	26
2507.43	25
2508.34	28
2509.25	28
2510.16	30
2511.06	28
2511.97	24
2512.88	31
2513.79	30
2514.69	30
2515.6	26
2516.51	24
2517.42	33
2518.32	24
2519.23	27
2520.14	28
2521.04	26
2521.95	26
2522.86	28
2523.76	30
2524.67	24
2525.57	26
2526.48	28
2527.39	27
2528.29	33
2529.2	24
2530.1	30
2531.01	29
2531.91	33
2532.82	27
2533.72	30
2534.63	29
2535.53	30
2536.44	30
2537.34	28
2538.24	26
2539.15	29
2540.05	33
2540.96	25
2541.86	29
2542.76	29
2543.67	26
2544.57	28
2545.47	28
2546.37	27
2547.28	26
2548.18	28
2549.08	32
2549.99	25
2550.89	26
2551.79	28
2552.69	29
2553.59	26
2554.49	28
2555.4	28
2556.3	29
2557.2	20
2558.1	28
2559	26
2559.9	30
2560.8	26
2561.7	27
2562.6	26
2563.5	31
2564.4	32
2565.3	28
2566.2	29
2567.1	26
2568	30
2568.9	22
2569.8	26
2570.7	33
2571.6	24
2572.5	34
2573.4	29
2574.3	32
2575.2	26
2576.1	30
2576.99	30
2577.89	24
2578.79	32
2579.69	30
2580.59	28
2581.48	23
2582.38	24
2583.28	28
2584.18	32
2585.07	28
2585.97	29
2586.87	26
2587.76	28
2588.66	28
2589.56	24
2590.45	26
2591.35	29
2592.25	30
2593.14	34
2594.04	24
2594.93	30
2595.83	25
2596.73	28
2597.62	20
2598.52	29
2599.41	30
2600.31	31
2601.2	29
2602.1	27
2602.99	28
2603.88	28
2604.78	27
2605.67	24
2606.57	29
2607.46	28
2608.35	32
2609.25	26
2610.14	27
2611.03	28
2611.93	26
2612.82	26
2613.71	28
2614.61	33
2615.5	30
2616.39	24
2617.29	26
2618.18	28
2619.07	23
2619.96	32
2620.85	28
2621.75	26
2622.64	27
2623.53	25
2624.42	31
2625.31	32
2626.2	28
2627.09	28
2627.98	26
2628.88	30
2629.77	22
2630.66	29
2631.55	27
2632.44	28
2633.33	29
2634.22	28
2635.11	27
2636	28
2636.89	30
2637.78	33
2638.66	26
2639.55	29
2640.44	30
2641.33	27
2642.22	26
2643.11	23
2644	23
2644.89	32
2645.78	27
2646.66	26
2647.55	32
2648.44	29
2649.33	31
2650.21	26
2651.1	24
2651.99	24
2652.88	31
2653.76	30
2654.65	26
2655.54	27
2656.42	32
2657.31	26
2658.2	25
2659.08	26
2659.97	26
2660.86	28
2661.74	28
2662.63	30
2663.51	22
2664.4	27
2665.29	27
2666.17	26
2667.06	29
2667.94	30
2668.83	31
2669.71	31
2670.6	31
2671.48	26
2672.36	27
2673.25	25
2674.13	31
2675.02	26
2675.9	27
2676.78	22
2677.67	25
2678.55	36
2679.43	24
2680.32	26
2681.2	25
2682.08	27
2682.97	32
2683.85	30
2684.73	28
2685.61	24
2686.5	27
2687.38	28
2688.26	30
2689.14	33
2690.03	26
2690.91	24
2691.79	30
2692.67	32
2693.55	26
2694.43	25
2695.31	22
2696.19	24
2697.08	26
2697.96	25
2698.84	28
2699.72	26
2700.6	24
2701.48	35
2702.36	34
2703.24	22
2704.12	26
2705	28
2705.88	27
2706.76	29
2707.64	26
2708.51	21
2709.39	27
2710.27	25
2711.15	24
2712.03	33
2712.91	26
2713.79	25
2714.67	28
2715.54	30
2716.42	24
2717.3	27
2718.18	31
2719.05	30
2719.93	25
2720.81	28
2721.69	26
2722.56	26
2723.44	28
2724.32	28
2725.19	24
2726.07	28
2726.95	27
2727.82	29
2728.7	28
2729.58	31
2730.45	28
2731.33	29
2732.2	30
2733.08	28
2733.95	25
2734.83	26
2735.7	30
2736.58	26
2737.45	28
2738.33	24
2739.2	28
2740.08	25
2740.95	26
2741.83	26
2742.7	31
2743.58	27
2744.45	27
2745.32	26
2746.2	28
2747.07	28
2747.94	22
2748.82	22
2749.69	31
2750.56	26
2751.44	25
2752.31	27
2753.18	26
2754.05	30
2754.93	24
2755.8	26
2756.67	31
2757.54	24
2758.42	29
2759.29	23
2760.16	24
2761.03	29
2761.9	23
2762.77	26
2763.64	28
2764.51	27
2765.38	26
2766.26	24
2767.13	34
2768	32
2768.87	31
2769.74	27
2770.61	27
2771.48	24
2772.35	30
2773.22	29
2774.09	28
2774.96	32
2775.83	24
2776.7	23
2777.56	26
2778.43	26
2779.3	24
2780.17	30
2781.04	31
2781.91	26
2782.78	28
2783.64	28
2784.51	32
2785.38	22
2786.25	25
2787.12	26
2787.98	28
2788.85	29
2789.72	22
2790.59	26
2791.45	28
2792.32	32
2793.19	27
2794.05	30
2794.92	29
2795.79	26
2796.65	28
2797.52	26
2798.38	30
2799.25	27
2800.12	31
2800.98	27
2801.85	31
2802.71	28
2803.58	28.5
2804.44	29
2805.31	26
2806.17	31
2807.04	30
2807.9	29
2808.77	33
2809.63	30
2810.5	32
2811.36	28
2812.22	29
2813.09	25
2813.95	32
2814.82	26
2815.68	32
2816.54	23
2817.41	28
2818.27	26
2819.13	31
2820	28
2820.86	29
2821.72	30
2822.58	24
2823.45	27
2824.31	26
2825.17	29
2826.03	31
2826.9	34
2827.76	28
2828.62	30
2829.48	30
2830.34	30
2831.2	25
2832.06	28
2832.92	32
2833.79	24
2834.65	30
2835.51	22
2836.37	28
2837.23	30
2838.09	30
2838.95	29
2839.81	29
2840.67	25
2841.53	24
2842.39	31
2843.25	30
2844.11	28
2844.97	26
2845.83	32
2846.68	28
2847.54	26
2848.4	30
2849.26	30
2850.12	24
2850.98	26
2851.84	27
2852.69	27
2853.55	25
2854.41	32
2855.27	26
2856.13	29
2856.98	27
2857.84	27
2858.7	27
2859.56	27
2860.41	28
2861.27	26
2862.13	30
2862.98	28
2863.84	30
2864.7	29
2865.55	30
2866.41	28
2867.27	29
2868.12	32
2868.98	33
2869.83	32
2870.69	32
2871.54	33
2872.4	28
2873.25	28
2874.11	28
2874.96	29
2875.82	30
2876.68	26
2877.53	29
2878.38	30
2879.24	28
2880.09	31
2880.95	34
2881.8	32
2882.65	30
2883.51	28
2884.36	31
2885.22	32
2886.07	31
2886.92	34
2887.77	36
2888.63	29
2889.48	34
2890.33	34
2891.19	40
2892.04	30
2892.89	37
2893.74	41
2894.6	47
2895.45	40
2896.3	44
2897.15	41
2898	46
2898.85	49
2899.71	56
2900.56	54
2901.41	51
2902.26	58
2903.11	61
2903.96	66
2904.81	64
2905.66	60
2906.51	65
2907.36	63
2908.21	55
2909.06	64
2909.91	61
2910.76	58
2911.61	56
2912.46	51
2913.31	57
2914.16	54
2915.01	48
2915.86	46
2916.71	37
2917.56	43
2918.41	44
2919.26	42
2920.1	40
2920.95	38
2921.8	35
2922.65	31
2923.5	37
2924.34	39
2925.19	30
2926.04	34
2926.89	30
2927.74	35
2928.58	30
2929.43	35
2930.28	34
2931.12	30
2931.97	34
2932.82	28
2933.66	29
2934.51	28
2935.36	30
2936.2	30
2937.05	38
2937.89	28
2938.74	33
2939.59	30
2940.43	33
2941.28	32
2942.12	28
2942.97	33
2943.81	31
2944.66	28
2945.5	31
2946.35	32
2947.19	31
2948.04	33
2948.88	26
2949.72	33
2950.57	34
2951.41	37
2952.26	29
2953.1	26
2953.94	37
2954.79	31
2955.63	34
2956.47	38
2957.32	40
2958.16	37
2959	38
2959.85	40
2960.69	34
2961.53	36
2962.37	37
2963.22	41
2964.06	40
2964.9	42
2965.74	47
2966.58	40
2967.42	40
2968.27	46
2969.11	36
2969.95	40
2970.79	41
2971.63	40
2972.47	40
2973.31	34
2974.15	34
2974.99	36
2975.83	36
2976.68	35
2977.52	32
2978.36	36
2979.2	30
2980.04	31
2980.88	28
2981.71	28
2982.55	30
2983.39	33
2984.23	32
2985.07	29
2985.91	32
2986.75	30
2987.59	29
2988.43	27
2989.27	31
2990.1	32
2990.94	31
2991.78	30
2992.62	30
2993.46	27
2994.3	26
2995.13	26
2995.97	29
2996.81	32
2997.64	26
2998.48	30
2999.32	30
