#Acq. time (s)=	3
#Accumulations=	3
#Range (cm-¹)=	100...3000
#Windows=	3
#Autofocus=	Off
#AutoExposure=	Off
#Spike filter=	Multiple accum.
#Delay time (s)=	0
#Binning=	1
#Readout mode=	Signal
#DeNoise=	Off
#ICS correction=	Off
#Dark correction=	Off
#Inst. Process=	Off
#Instrument=	LabRAM HR Evol
#Detector=	Syncerity OE
#Objective=	x100_VIS_LWD
#Grating=	600 (500nm)
#ND Filter=	25%
#Laser=	633nm_Edge
#Hole=	100.021
#Range=	Visible
#Project=	Bolus
#Sample=	B4
#Site=	stripside
#Title=	m12
#Remark=	
#Date=	03.11.2025 19:59
#Acquired=	03.11.2025 19:59:27
100.969	28
102.252	28
103.535	31
104.818	32
106.101	34
107.384	34
108.666	31
109.948	27
111.232	30
112.514	28
113.795	30
115.077	25
116.358	33
117.639	30
118.919	34
120.2	32
121.48	34
122.76	32
124.04	30
125.32	32
126.599	26
127.879	33
129.158	28
130.436	32
131.715	32
132.992	37
134.27	37
135.548	35
136.826	36
138.104	36
139.381	39
140.658	40
141.935	35
143.212	30
144.489	36
145.763	36
147.04	38
148.315	40
149.591	43
150.867	32
152.142	41
153.416	38
154.691	39
155.965	42
157.24	36
158.514	32
159.786	37
161.06	35
162.334	39
163.607	38
164.881	38
166.152	44
167.425	38
168.698	36
169.969	39
171.241	40
172.513	34
173.785	38
175.055	30
176.326	36
177.597	42
178.867	36
180.137	36
181.408	38
182.677	38
183.947	40
185.217	38
186.485	37
187.755	37
189.022	38
190.291	36
191.56	40
192.828	37
194.096	35
195.363	41
196.631	36
197.899	36
199.165	43
200.432	43
201.698	36
202.965	30
204.23	38
205.497	38
206.762	34
208.028	44
209.293	36
210.559	29
211.823	33
213.088	32
214.352	30
215.617	37
216.88	33
218.145	28
219.408	32
220.672	41
221.934	30
223.196	36
224.46	30
225.722	33
226.985	30
228.246	32
229.508	31
230.77	29
232.031	35
233.292	33
234.554	32
235.814	32
237.074	34
238.335	39
239.595	27
240.854	33
242.115	32
243.374	33
244.633	26
245.893	32
247.151	28
248.409	36
249.667	24
250.927	36
252.184	31
253.442	29
254.699	28
255.957	24
257.214	32
258.47	29
259.727	26
260.983	34
262.24	33
263.496	31
264.752	33
266.007	32
267.262	32
268.517	31
269.773	28
271.028	35
272.282	27
273.536	30
274.79	30
276.044	30
277.297	36
278.551	32
279.804	33
281.057	24
282.31	30
283.564	32
284.816	34
286.068	34
287.32	33
288.572	32
289.823	33
291.074	26
292.325	34
293.576	28
294.827	29
296.077	32
297.328	32
298.578	29
299.828	28
301.077	24
302.325	31
303.575	28
304.824	28
306.073	34
307.321	31
308.57	28
309.818	24
311.066	33
312.314	33
313.562	32
314.808	34
316.055	33
317.302	31
318.549	33
319.796	37
321.042	28
322.288	24
323.533	29
324.779	27
326.024	30
327.27	29
328.515	30
329.759	27
331.004	34
332.248	30
333.493	33
334.736	28
335.98	31
337.223	33
338.466	30
339.709	31
340.952	35
342.195	28
343.437	33
344.68	28
345.922	32
347.163	33
348.405	28
349.647	31
350.887	30
352.128	35
353.37	32
354.609	34
355.85	28
357.089	31
358.33	32
359.57	29
360.809	28
362.049	31
363.287	28
364.526	27
365.764	35
367.003	32
368.241	30
369.479	34
370.718	34
371.955	29
373.193	32
374.429	24
375.667	33
376.903	33
378.139	26
379.376	32
380.611	34
381.848	38
383.083	29
384.319	30
385.554	26
386.79	28
388.024	32
389.258	29
390.493	32
391.727	32
392.962	30
394.195	32
395.428	32
396.663	30
397.895	26
399.128	32
400.361	28
401.593	28
402.825	31
404.058	32
405.29	28
406.521	26
407.752	27
408.985	24
410.215	33
411.446	29
412.678	32
413.908	30
415.138	35
416.367	26
417.597	32
418.828	34
420.057	34
421.286	31
422.514	26
423.743	29
424.973	33
426.201	26
427.429	31
428.657	30
429.884	26
431.112	33
432.34	30
433.567	31
434.794	28
436.02	33
437.247	32
438.473	36
439.699	33
440.925	30
442.15	33
443.376	28
444.601	36
445.826	30
447.051	30
448.275	33
449.5	32
450.724	30
451.948	32
453.172	32
454.396	32
455.619	33
456.842	34
458.065	30
459.288	34
460.511	27
461.733	38
462.956	33
464.178	26
465.4	28
466.621	35
467.843	30
469.064	37
470.285	34
471.505	34
472.726	38
473.946	36
475.166	34
476.387	39
477.606	38
478.825	38
480.044	40
481.264	42
482.483	54
483.702	49
484.921	52
486.138	53
487.356	48
488.574	47
489.792	48
491.009	56
492.226	52
493.444	52
494.661	48
495.877	50
497.094	46
498.31	44
499.525	44
500.741	36
501.958	37
503.172	40
504.388	43
505.603	32
506.817	42
508.032	39
509.247	39
510.46	38
511.675	31
512.888	34
514.102	38
515.316	35
516.528	32
517.742	33
518.954	37
520.167	36
521.378	28
522.591	34
523.802	28
525.015	36
526.226	29
527.438	34
528.648	28
529.86	34
531.07	32
532.281	34
533.491	32
534.702	28
535.911	30
537.121	28
538.33	38
539.54	29
540.749	35
541.957	34
543.167	32
544.375	28
545.584	34
546.791	30
547.999	35
549.207	31
550.414	36
551.621	30
552.829	32
554.035	29
555.241	37
556.449	31
557.655	34
558.86	34
560.066	30
561.272	33
562.477	34
563.682	30
564.888	30
566.093	26
567.297	37
568.501	33
569.705	33
570.91	34
572.114	32
573.317	29
574.52	28
575.723	32
576.927	34
578.13	28
579.332	33
580.535	33
581.737	28
582.938	34
584.14	28
585.343	28
586.544	32
587.745	36
588.946	32
590.147	34
591.347	34
592.548	34
593.748	30
594.948	29
596.147	28
597.347	32
598.546	30
599.745	28
600.944	30
602.143	32
603.342	32
604.54	30
605.738	32
606.937	30
608.134	32
609.332	31
610.529	29
611.727	28
612.924	26
614.121	34
615.317	30
616.513	34
617.709	33
618.905	27
620.101	28
621.297	33
622.492	28
623.688	34
624.883	37
626.077	33
627.271	29
628.466	24
629.66	33
630.855	27
632.047	33
633.241	31
634.435	30
635.629	32
636.82	35
638.014	32
639.207	36
640.399	33
641.59	32
642.783	32
643.975	30
645.166	30
646.357	26
647.549	26
648.741	38
649.93	32
651.122	30
652.311	28
653.502	33
654.692	28
655.881	33
657.071	31
658.261	31
659.45	32
660.639	38
661.827	28
663.016	28
664.204	32
665.393	29
666.581	33
667.769	33
668.957	32
670.143	37
671.331	31
672.518	32
673.705	33
674.891	36
676.078	33
677.264	29
678.451	34
679.636	39
680.821	36
682.007	36
683.192	34
684.378	30
685.562	30
686.747	36
687.931	36
689.115	33
690.3	38
691.483	30
692.666	36
693.851	34
695.034	36
696.216	33
697.4	34
698.582	41
699.764	35
700.948	35
702.129	35
703.311	41
704.493	40
705.674	38
706.855	43
708.036	44
709.218	49
710.399	50
711.579	46
712.759	40
713.939	36
715.12	39
716.299	32
717.478	38
718.657	30
719.836	32
721.015	34
722.195	30
723.373	37
724.552	38
725.729	34
726.907	32
728.085	30
729.262	26
730.44	35
731.617	34
732.795	34
733.972	34
735.148	29
736.324	30
737.501	32
738.677	28
739.852	30
741.028	32
742.203	33
743.379	29
744.554	30
745.729	30
746.903	30
748.078	27
749.252	31
750.426	28
751.599	29
752.772	28
753.946	36
755.119	35
756.293	34
757.466	32
758.639	32
759.811	32
760.984	31
762.155	30
763.327	33
764.499	28
765.67	31
766.842	34
768.013	28
769.183	28
770.354	24
771.525	27
772.696	32
773.865	33
775.035	30
776.205	32
777.375	29
778.544	34
779.713	37
780.882	32
782.052	31
783.219	29
784.388	30
785.557	28
786.724	34
787.892	33
789.06	31
790.227	32
791.395	35
792.562	34
793.728	26
794.895	35
796.061	34
797.228	35
798.395	31
799.56	30
800.726	28
801.891	34
803.057	32
804.221	29
805.387	33
806.551	32
807.716	32
808.879	28
810.044	31
811.208	35
812.372	30
813.535	31
814.699	35
815.862	30
817.025	29
818.188	30
819.351	28
820.513	30
821.675	30
822.837	31
823.999	32
825.161	28
826.322	31
827.483	31
828.645	28
829.805	34
830.966	33
832.127	30
833.287	31
834.447	29
835.607	31
836.767	30
837.926	34
839.085	28
840.245	34
841.404	30
842.562	24
843.72	28
844.88	28
846.038	30
847.195	33
848.353	32
849.512	34
850.669	30
851.826	31
852.983	34
854.139	28
855.296	34
856.453	27
857.609	32
858.765	36
859.921	34
861.077	28
862.232	31
863.387	30
864.542	36
865.697	26
866.852	35
868.008	30
869.162	26
870.316	31
871.47	31
872.624	28
873.778	30
874.931	27
876.084	27
877.237	32
878.39	33
879.543	32
880.695	33
881.846	26
882.999	30
884.151	28
885.302	30
886.454	32
887.606	32
888.757	23
889.908	32
891.059	29
892.21	26
893.359	33
894.509	30
895.659	32
896.81	31
897.959	24
899.109	31
900.257	31
901.407	34
902.556	30
903.705	27
904.854	28
906.001	32
907.149	28
908.298	26
909.446	29
910.592	27
911.74	26
912.888	26
914.034	22
915.181	28
916.328	32
917.473	30
918.62	29
919.766	28
920.911	31
922.058	28
923.204	29
924.348	32
925.494	30
926.638	32
927.783	30
928.928	28
930.072	32
931.216	34
932.36	30
933.504	30
934.647	26
935.791	26
936.933	30
938.077	28
939.219	27
940.363	32
941.504	30
942.647	32
943.789	30
944.932	26
946.073	33
947.215	32
948.356	33
949.498	24
950.638	31
951.778	32
952.92	35
954.06	32
955.199	30
956.34	33
957.479	34
958.62	32
959.759	36
960.898	29
962.038	29
963.176	32
964.315	28
965.453	26
966.592	31
967.73	35
968.867	29
970.006	32
971.144	34.5
972.281	34
973.418	28
974.554	29
975.692	29
976.829	30
977.965	30
979.101	30
980.237	28
981.374	30
982.509	33
983.645	28
984.78	23
985.915	28
987.05	28
988.184	33
989.319	24
990.453	33
991.589	27
992.722	30
993.856	28
994.99	27
996.123	26
997.257	27
998.39	26
999.523	28
1000.66	28
1001.79	28
1002.92	31
1004.05	26
1005.18	30
1006.32	28
1007.45	26
1008.58	36
1009.71	29
1010.84	30
1011.97	31
1013.1	28
1014.23	30
1015.36	28
1016.49	26
1017.62	32
1018.75	30
1019.88	30
1021.01	31
1022.14	32
1023.27	29
1024.4	31
1025.53	30
1026.66	28
1027.79	30
1028.91	29
1030.04	30
1031.17	34
1032.3	26
1033.42	30
1034.55	27
1035.68	29
1036.81	25
1037.93	26
1039.06	25
1040.18	28
1041.31	32
1042.44	26
1043.56	28
1044.69	30
1045.81	30
1046.94	31
1048.06	29
1049.19	28
1050.31	28
1051.44	26
1052.56	32
1053.69	28
1054.81	20
1055.93	31
1057.06	32
1058.18	29
1059.3	30
1060.43	24
1061.55	28
1062.67	24
1063.79	27
1064.92	29
1066.04	33
1067.16	26
1068.28	26
1069.4	25
1070.52	34
1071.65	25
1072.77	31
1073.89	30
1075.01	29
1076.13	26
1077.25	30
1078.37	30
1079.49	26
1080.61	26
1081.73	32
1082.85	30
1083.97	26
1085.09	31
1086.2	25
1087.32	26
1088.44	32
1089.56	27
1090.68	30
1091.8	31
1092.91	29
1094.03	30
1095.15	29
1096.26	24
1097.38	30
1098.5	31
1099.61	29
1100.73	30
1101.85	30
1102.96	32
1104.08	28
1105.19	34
1106.31	30
1107.43	26
1108.54	30
1109.66	30
1110.77	33
1111.88	32
1113	28
1114.11	28
1115.23	30
1116.34	34
1117.46	28
1118.57	28
1119.68	24
1120.8	26
1121.91	30
1123.02	32
1124.13	32
1125.25	24
1126.36	30
1127.47	27
1128.58	26
1129.69	26
1130.8	29
1131.92	24
1133.03	31
1134.14	28
1135.25	30
1136.36	30
1137.47	31
1138.58	31
1139.69	26
1140.8	22
1141.91	26
1143.02	28
1144.13	26
1145.24	30
1146.35	26
1147.46	26
1148.56	25
1149.67	27
1150.78	26
1151.89	26
1153	33
1154.1	33
1155.21	30
1156.32	32
1157.43	26
1158.53	27
1159.64	24
1160.75	29
1161.85	26
1162.96	28
1164.07	33
1165.17	31
1166.28	28
1167.38	22
1168.49	37
1169.59	30
1170.7	30
1171.8	29
1172.91	29
1174.01	28
1175.12	27
1176.22	28
1177.32	28
1178.43	29
1179.53	30
1180.64	24
1181.74	28
1182.84	27
1183.94	27
1185.05	29
1186.15	34
1187.25	30
1188.35	24
1189.46	31
1190.56	26
1191.66	35
1192.76	30
1193.86	28
1194.96	24
1196.06	26.0049
1197.16	24.0026
1198.26	25.9705
1199.37	27.0762
1200.47	27.1279
1201.57	27.9951
1202.67	28.8036
1203.77	24.0341
1204.86	22.2995
1205.96	24.2794
1207.06	25.9955
1208.16	25.9456
1209.26	21.6127
1210.36	25.9328
1211.46	27.7165
1212.56	29.7713
1213.65	22.8157
1214.75	26.8199
1215.85	28.9064
1216.95	27.9162
1218.04	25.201
1219.14	29.5521
1220.24	27.6222
1221.33	22
1222.43	27.5417
1223.53	29.7994
1224.62	25.3578
1225.72	31.5427
1226.82	23.1976
1227.91	27.3945
1229.01	29.147
1230.1	26.1302
1231.2	25.6551
1232.29	26.8395
1233.39	26.7885
1234.48	25.5835
1235.58	28.6367
1236.67	27.7496
1237.77	29.2215
1238.86	24.8923
1239.95	24.4381
1241.05	25.1176
1242.14	27.1094
1243.23	29.7512
1244.33	26.8725
1245.42	26.5003
1246.51	25.0385
1247.61	26.9381
1248.7	26.7835
1249.79	25.6765
1250.88	26.993
1251.97	27.0241
1253.07	27.9488
1254.16	29.165
1255.25	30.2693
1256.34	27.6172
1257.43	27.459
1258.52	27.1275
1259.61	23.9208
1260.7	26.8339
1261.79	27.2949
1262.88	21.95
1263.97	27.1065
1265.06	28.4972
1266.15	28.7448
1267.24	27.7884
1268.33	31.093
1269.42	26.6448
1270.51	26.339
1271.6	27.5682
1272.68	27.6684
1273.77	26.5605
1274.86	26.8431
1275.95	27.4096
1277.04	26.5392
1278.12	26.8265
1279.21	26.7447
1280.3	24.9491
1281.39	27.7871
1282.47	24.6334
1283.56	23.8666
1284.65	25.8588
1285.73	25.3469
1286.82	22.2294
1287.91	25.5755
1288.99	27.1506
1290.08	25.561
1291.16	28.0049
1292.25	27.6852
1293.33	28.2451
1294.42	28.0967
1295.5	25.32
1296.59	26.0931
1297.67	26.1667
1298.76	26.4926
1299.84	29.3432
1300.92	26.4526
1302.01	29.1869
1303.09	30.5074
1304.17	26.9755
1305.26	27.4361
1306.34	31.5064
1307.34	26
1308.43	28
1309.52	29
1310.61	32
1311.7	25
1312.78	24
1313.87	26
1314.96	25
1316.04	24
1317.13	27
1318.22	33
1319.3	26
1320.39	30
1321.48	22
1322.56	26
1323.65	26
1324.73	26
1325.82	29
1326.9	29
1327.99	22
1329.07	27
1330.16	30
1331.24	26
1332.33	29
1333.41	28
1334.5	23
1335.58	31
1336.66	28
1337.75	25
1338.83	22
1339.91	28
1341	30
1342.08	27
1343.16	28
1344.24	28
1345.33	30
1346.41	24
1347.49	28
1348.57	30
1349.65	26
1350.74	24
1351.82	24
1352.9	27
1353.98	34
1355.06	28
1356.14	29
1357.22	24
1358.3	27
1359.38	24
1360.46	28
1361.54	24
1362.62	24
1363.7	28
1364.78	29
1365.86	26
1366.94	25
1368.02	32
1369.09	26
1370.17	28
1371.25	27
1372.33	28
1373.41	32
1374.48	26
1375.56	29
1376.64	27
1377.72	31
1378.79	27
1379.87	28
1380.95	26
1382.02	26
1383.1	28
1384.17	26
1385.25	26
1386.33	27
1387.4	29
1388.48	29
1389.55	30
1390.63	24
1391.7	33
1392.78	26
1393.85	28
1394.93	24
1396	31
1397.07	34
1398.15	28
1399.22	30
1400.3	28
1401.37	25
1402.44	28
1403.52	25
1404.59	28
1405.66	30
1406.73	30
1407.81	31
1408.88	28
1409.95	27
1411.02	32
1412.09	30
1413.17	32
1414.24	34
1415.31	24
1416.38	34
1417.45	28
1418.52	30
1419.59	28
1420.66	32
1421.73	26
1422.8	28
1423.87	26
1424.94	27
1426.01	27
1427.08	28
1428.15	28
1429.22	28
1430.29	31
1431.35	28
1432.42	28
1433.49	30
1434.56	29
1435.63	26
1436.69	31
1437.76	31
1438.83	31
1439.9	31
1440.96	30
1442.03	30
1443.1	30
1444.17	27
1445.23	28
1446.3	28
1447.36	27
1448.43	30
1449.49	30
1450.56	29
1451.63	30
1452.69	26
1453.76	30
1454.82	29
1455.89	32
1456.95	30
1458.01	31
1459.08	25
1460.14	32
1461.21	32
1462.27	31
1463.34	26
1464.4	28
1465.46	30
1466.52	24
1467.59	28
1468.65	26
1469.71	29
1470.77	28
1471.84	28
1472.9	30
1473.96	29
1475.02	28
1476.08	26
1477.15	28
1478.21	26
1479.27	26
1480.33	28
1481.39	22
1482.45	31
1483.51	30
1484.57	28
1485.63	29
1486.69	24
1487.75	27
1488.81	31
1489.87	28
1490.93	31
1491.99	26
1493.05	29
1494.1	27
1495.16	31
1496.22	30
1497.28	24
1498.34	32
1499.4	33
1500.45	26
1501.51	30
1502.57	25
1503.63	32
1504.68	28
1505.74	29
1506.8	24
1507.85	35
1508.91	27
1509.97	24
1511.02	28
1512.08	32
1513.13	29
1514.19	30
1515.24	27
1516.3	32
1517.35	26
1518.41	28
1519.46	28
1520.52	32
1521.57	30
1522.63	32
1523.68	28
1524.73	28
1525.79	31
1526.84	28
1527.9	26
1528.95	30
1530	28
1531.05	30
1532.11	29
1533.16	32
1534.21	26
1535.26	29
1536.32	30
1537.37	31
1538.42	27
1539.47	30
1540.52	26
1541.57	28
1542.63	24
1543.68	30
1544.73	30
1545.78	26
1546.83	30
1547.88	28
1548.93	31
1549.98	28
1551.03	26
1552.08	28
1553.13	23
1554.18	24
1555.23	32
1556.27	27
1557.32	28
1558.37	22
1559.42	29
1560.47	26
1561.52	30
1562.56	25
1563.61	32
1564.66	26
1565.71	20
1566.75	26
1567.8	28
1568.85	26
1569.9	28
1570.94	22
1571.99	24
1573.03	24
1574.08	30
1575.13	28
1576.17	26
1577.22	31
1578.26	29
1579.31	27
1580.35	26
1581.4	24
1582.44	32
1583.49	29
1584.53	24
1585.58	28
1586.62	29
1587.66	24
1588.71	34
1589.75	26
1590.8	28
1591.84	27
1592.88	29
1593.92	22
1594.97	25
1596.01	25
1597.05	32
1598.1	31
1599.14	24
1600.18	28
1601.22	27
1602.26	29
1603.3	26
1604.35	27
1605.39	30
1606.43	26
1607.47	30
1608.51	28
1609.55	32
1610.59	29
1611.63	32
1612.67	29
1613.71	24
1614.75	24
1615.79	24
1616.83	28
1617.87	24
1618.91	28
1619.95	29
1620.99	26
1622.02	27
1623.06	24
1624.1	26
1625.14	28
1626.18	26
1627.21	26
1628.25	30
1629.29	29
1630.33	28
1631.36	28
1632.4	22
1633.44	29
1634.48	24
1635.51	29
1636.55	24
1637.58	30
1638.62	28
1639.66	29
1640.69	27
1641.73	30
1642.76	28
1643.8	26
1644.83	28
1645.87	27
1646.9	32
1647.94	28
1648.97	30
1650	32
1651.04	24
1652.07	30
1653.11	20
1654.14	33
1655.17	26
1656.21	28
1657.24	32
1658.27	32
1659.31	27
1660.34	26
1661.37	28
1662.4	26
1663.43	27
1664.47	28
1665.5	26
1666.53	28
1667.56	29
1668.59	26
1669.62	24
1670.66	30
1671.69	28
1672.72	32
1673.75	31
1674.78	29
1675.81	28
1676.84	28
1677.87	33
1678.9	24
1679.93	30
1680.96	27
1681.98	30
1683.01	29
1684.04	28
1685.07	30
1686.1	25
1687.13	26
1688.16	30
1689.18	27
1690.21	28
1691.24	28
1692.27	29
1693.3	29
1694.32	28
1695.35	28
1696.38	28
1697.4	26
1698.43	28
1699.46	29
1700.48	25
1701.51	29
1702.54	22
1703.56	26
1704.59	26
1705.61	29
1706.64	28
1707.66	30
1708.69	28
1709.71	28
1710.74	30
1711.76	31
1712.79	16
1713.81	24
1714.83	26
1715.86	30
1716.88	26
1717.91	28
1718.93	26
1719.95	24
1720.98	32
1722	28
1723.02	26
1724.04	29
1725.07	26
1726.09	30
1727.11	30
1728.13	26
1729.15	32
1730.18	24
1731.2	30
1732.22	26
1733.24	27
1734.26	23
1735.28	32
1736.3	28
1737.32	29
1738.34	30
1739.36	24
1740.38	30
1741.4	29
1742.42	28
1743.44	27
1744.46	26
1745.48	29
1746.5	29
1747.52	26
1748.54	28
1749.56	28
1750.58	31
1751.6	31
1752.61	28
1753.63	26
1754.65	26
1755.67	26
1756.68	30
1757.7	26
1758.72	26
1759.74	25
1760.75	28
1761.77	28
1762.79	30
1763.8	27
1764.82	26
1765.83	33
1766.85	31
1767.87	20
1768.88	27
1769.9	28
1770.91	27
1771.93	28
1772.94	27
1773.96	26
1774.97	25
1775.99	28
1777	30
1778.02	32
1779.03	24
1780.04	26
1781.06	28
1782.07	28
1783.09	22
1784.1	30
1785.11	25
1786.13	26
1787.14	31
1788.15	28
1789.16	30
1790.18	24
1791.19	26
1792.2	29
1793.21	30
1794.22	28
1795.23	30
1796.25	28
1797.26	24
1798.27	31
1799.28	25
1800.29	26
1801.3	31
1802.31	27
1803.32	29
1804.33	30
1805.34	26
1806.35	32
1807.36	28
1808.37	27
1809.38	28
1810.39	30
1811.4	30
1812.41	26
1813.42	33
1814.42	22
1815.43	29
1816.44	18
1817.45	28
1818.46	24
1819.47	25
1820.47	25
1821.48	28
1822.49	26
1823.49	28
1824.5	27
1825.51	29
1826.52	32
1827.52	26
1828.53	26
1829.53	29
1830.54	24
1831.55	28
1832.55	29
1833.56	29
1834.56	22
1835.57	30
1836.57	27
1837.58	28
1838.58	26
1839.59	28
1840.59	31
1841.6	29
1842.6	27
1843.61	28
1844.61	30
1845.61	27
1846.62	28
1847.62	29
1848.62	28
1849.63	29
1850.63	30
1851.63	29
1852.64	29
1853.64	30
1854.64	26
1855.64	30
1856.64	31
1857.65	26
1858.65	24
1859.65	24
1860.65	27
1861.65	22
1862.65	23
1863.65	24
1864.66	29
1865.66	22
1866.66	28
1867.66	29
1868.66	26
1869.66	29
1870.66	31
1871.66	32
1872.66	29
1873.66	27
1874.66	27
1875.65	21
1876.65	25
1877.65	22
1878.65	30
1879.65	30
1880.65	32
1881.65	29
1882.64	26
1883.64	30
1884.64	29
1885.64	26
1886.63	29
1887.63	31
1888.63	22
1889.63	24
1890.62	28
1891.62	28
1892.62	24
1893.61	28
1894.61	26
1895.6	33
1896.6	24
1897.6	27
1898.59	34
1899.59	27
1900.58	28
1901.58	24
1902.57	28
1903.57	26
1904.56	27
1905.56	30
1906.55	28
1907.54	26
1908.54	28
1909.53	31
1910.53	24
1911.52	26
1912.51	29
1913.51	30
1914.5	25
1915.49	28
1916.49	28
1917.48	27
1918.47	25
1919.46	28
1920.46	28
1921.45	22
1922.44	28
1923.43	26
1924.42	26
1925.41	32
1926.41	26
1927.4	27
1928.39	28
1929.38	26
1930.37	28
1931.36	26
1932.35	20
1933.34	33
1934.33	28
1935.32	33
1936.31	26
1937.3	27
1938.29	31
1939.28	24
1940.27	28
1941.26	27
1942.24	27
1943.23	27
1944.22	26
1945.21	28
1946.2	26
1947.19	29
1948.17	28
1949.16	31
1950.15	30
1951.14	27
1952.12	28
1953.11	28
1954.1	28
1955.09	26
1956.07	27
1957.06	28
1958.05	30
1959.03	30
1960.02	34
1961	26
1961.99	26
1962.98	27
1963.96	25
1964.95	26
1965.93	26
1966.92	30
1967.9	26
1968.89	28
1969.87	27
1970.85	28
1971.84	28
1972.82	32
1973.81	25
1974.79	26
1975.78	30
1976.76	25
1977.74	24
1978.73	24
1979.71	22
1980.69	24
1981.67	29
1982.66	26
1983.64	24
1984.62	25
1985.6	29
1986.59	26
1987.57	30
1988.55	26
1989.53	26
1990.51	28
1991.49	30
1992.47	32
1993.45	29
1994.44	22
1995.42	29
1996.4	29
1997.38	25
1998.36	25
1999.34	28
2000.32	24
2001.3	29
2002.28	25
2003.26	29
2004.24	27
2005.22	30
2006.19	30
2007.17	24
2008.15	18
2009.13	28
2010.11	27
2011.09	28
2012.06	26
2013.04	23
2014.02	26
2015	25
2015.98	22
2016.95	26
2017.93	24
2018.91	26
2019.88	29
2020.86	28
2021.84	29
2022.81	29
2023.79	21
2024.77	24
2025.74	29
2026.72	26
2027.69	26
2028.67	28
2029.65	29
2030.62	29
2031.6	24
2032.57	26
2033.55	33
2034.52	24
2035.5	30
2036.47	26
2037.44	27
2038.42	30
2039.39	27
2040.36	28
2041.34	24
2042.31	25
2043.29	22
2044.26	25
2045.23	31
2046.2	27
2047.18	29
2048.15	25
2049.12	30
2050.09	27
2051.07	30
2052.04	27
2053.01	26
2053.98	24
2054.95	26
2055.93	30
2056.9	28
2057.87	32
2058.84	24
2059.81	30
2060.78	27
2061.75	27
2062.72	25
2063.69	30
2064.66	26
2065.63	29
2066.6	24
2067.57	28
2068.54	20
2069.51	22
2070.48	24
2071.45	22
2072.42	26
2073.38	24
2074.35	30
2075.32	27
2076.29	28
2077.26	26
2078.23	28
2079.19	26
2080.16	30
2081.13	26
2082.1	30
2083.06	20
2084.03	25
2085	26
2085.96	28
2086.93	24
2087.9	24
2088.86	27
2089.83	26
2090.8	30
2091.76	30
2092.73	25
2093.69	22
2094.66	25
2095.62	24
2096.59	23
2097.55	24
2098.52	26
2099.48	24
2100.45	20
2101.41	24
2102.38	28
2103.34	28
2104.31	20
2105.27	25
2106.23	26
2107.2	26
2108.16	26
2109.12	24
2110.09	27
2111.05	22
2112.01	27
2112.98	26
2113.94	24
2114.9	22
2115.86	26
2116.82	22
2117.79	28
2118.75	26
2119.71	29
2120.67	27
2121.63	31
2122.59	26
2123.55	26
2124.52	25
2125.48	29
2126.44	28
2127.4	29
2128.36	26
2129.32	26
2130.28	25
2131.24	30
2132.2	28
2133.16	26
2134.12	26
2135.08	28
2136.04	24
2136.99	28
2137.95	24
2138.91	28
2139.87	23
2140.83	24
2141.79	30
2142.75	25
2143.7	25
2144.66	25
2145.62	24.0133
2146.58	22.0294
2147.53	27.9082
2148.49	22.1744
2149.45	27.0373
2150.41	29.7767
2151.36	27.7367
2152.32	18.303
2153.27	25.8241
2154.23	25.6323
2155.19	27.5043
2156.14	25.2021
2157.1	23.7459
2158.06	22.6192
2159.01	28.2966
2159.97	20.9053
2160.92	26.5147
2161.88	27.3137
2162.83	26.4537
2163.79	23.6176
2164.74	26.1962
2165.7	28.5784
2166.65	26.438
2167.61	28.3181
2168.56	24.3033
2169.51	25.463
2170.47	21.041
2171.42	27.587
2172.38	28.1366
2173.33	26
2174.28	27.1075
2175.24	27.9618
2176.19	24.6373
2177.14	26.6716
2178.09	26.9391
2179.05	25.0882
2180	24.1771
2180.95	22.8691
2181.9	20.0434
2182.86	25.5101
2183.81	21.4003
2184.76	25.4036
2185.71	25.36
2186.66	24.3971
2187.61	25.183
2188.57	22.9908
2189.52	25.301
2190.47	29.3996
2191.42	26.8529
2192.37	25.4705
2193.32	24.1743
2194.27	23.9083
2195.22	25.7423
2196.17	25.049
2197.12	27.4495
2198.07	24.4777
2199.02	24.685
2199.97	26.1627
2200.92	22.1133
2201.87	26.4098
2202.82	25.5912
2203.76	24.949
2204.71	28.119
2205.66	23.3188
2206.61	25.1991
2207.56	25.0166
2208.51	27.9736
2209.45	25.6427
2210.4	24.6515
2211.35	24.6373
2212.3	25.6417
2213.24	24.6707
2214.19	24.5784
2215.14	27.7271
2216.09	25.0212
2217.03	25.0487
2217.98	24.4675
2218.93	26.14
2219.87	23.8488
2220.82	23.8421
2221.77	25.5442
2222.71	25.9436
2223.66	24.7811
2224.6	25.1025
2225.55	28.002
2226.49	26.941
2227.44	24.594
2228.38	25.1187
2229.33	25.8676
2230.27	25.1181
2231.22	26.2596
2232.16	24.2962
2233.11	23.6956
2234.05	21.6386
2235	25.9955
2235.94	26.6918
2236.88	23.1185
2237.83	24.4706
2238.77	23.7025
2239.71	23.8718
2240.66	27.26
2241.6	22.6531
2242	18
2242.95	23
2243.9	25
2244.84	25
2245.79	24
2246.74	26
2247.69	26
2248.63	25
2249.58	27
2250.53	28
2251.47	27
2252.42	27
2253.37	25
2254.31	23
2255.26	24
2256.2	26
2257.15	25
2258.1	23
2259.04	30
2259.99	27
2260.93	26
2261.88	22
2262.82	25
2263.77	28
2264.71	22
2265.65	26
2266.6	27
2267.54	23
2268.49	32
2269.43	27
2270.38	26
2271.32	30
2272.26	29
2273.21	24
2274.15	23
2275.09	22
2276.04	25
2276.98	24
2277.92	24
2278.86	22
2279.81	32
2280.75	26
2281.69	26
2282.63	28
2283.57	28
2284.52	25
2285.46	23
2286.4	24
2287.34	27
2288.28	24
2289.22	27
2290.16	24
2291.1	26
2292.04	26
2292.98	27
2293.93	28
2294.86	24
2295.8	25
2296.74	25
2297.69	27
2298.62	24
2299.56	30
2300.5	27
2301.44	23
2302.38	28
2303.32	20
2304.26	26
2305.2	24
2306.14	26
2307.07	27
2308.01	24
2308.95	25
2309.89	30
2310.83	26
2311.76	26
2312.7	30
2313.64	25
2314.58	26
2315.51	29
2316.45	27
2317.39	18
2318.32	16
2319.26	24
2320.2	26
2321.13	22
2322.07	22
2323	24
2323.94	26
2324.88	26
2325.81	25
2326.75	27
2327.68	27
2328.62	28
2329.55	24
2330.49	25
2331.42	25
2332.36	24
2333.29	27
2334.22	27
2335.16	29
2336.09	26
2337.03	26
2337.96	31
2338.89	30
2339.83	24
2340.76	24
2341.69	23
2342.63	30
2343.56	26
2344.49	28
2345.43	30
2346.36	24
2347.29	27
2348.22	25
2349.15	28
2350.09	26
2351.02	24
2351.95	27
2352.88	24
2353.81	21
2354.74	26
2355.67	28
2356.61	20
2357.54	26
2358.47	29
2359.4	22
2360.33	28
2361.26	30
2362.19	20
2363.12	27
2364.05	25
2364.98	25
2365.91	26
2366.84	27
2367.77	28
2368.7	29
2369.62	26
2370.55	29
2371.48	22
2372.41	29
2373.34	25
2374.27	28
2375.2	24
2376.12	24
2377.05	28
2377.98	22
2378.91	26
2379.83	22
2380.76	22
2381.69	23
2382.62	26
2383.54	26
2384.47	24
2385.4	29
2386.32	29
2387.25	30
2388.18	29
2389.1	29
2390.03	28
2390.95	26
2391.88	29
2392.81	26
2393.73	25
2394.66	26
2395.58	24
2396.51	20
2397.43	25
2398.36	27
2399.28	26
2400.2	26
2401.13	28
2402.05	25
2402.98	25
2403.9	27
2404.83	26
2405.75	24
2406.67	30
2407.6	29
2408.52	30
2409.44	28
2410.37	26
2411.29	30
2412.21	30
2413.13	29
2414.06	25
2414.98	22
2415.9	27
2416.82	26
2417.74	28
2418.67	26
2419.59	30
2420.51	27
2421.43	27
2422.35	25
2423.27	26
2424.19	26
2425.11	33
2426.03	35
2426.96	30
2427.88	28
2428.8	30
2429.72	26
2430.64	31
2431.56	26
2432.48	24
2433.39	32
2434.31	27
2435.23	28
2436.15	26
2437.07	28
2437.99	31
2438.91	30
2439.83	30
2440.75	22
2441.67	24
2442.58	28
2443.5	29
2444.42	31
2445.34	27
2446.26	20
2447.17	24
2448.09	32
2449.01	22
2449.92	24
2450.84	28
2451.76	24
2452.68	28
2453.59	30
2454.51	24
2455.42	28
2456.34	29
2457.26	26
2458.17	24
2459.09	32
2460	24
2460.92	30
2461.83	25
2462.75	24
2463.66	26
2464.58	25
2465.49	29
2466.41	28
2467.32	28
2468.24	27
2469.15	26
2470.07	29
2470.98	30
2471.89	28
2472.81	27
2473.72	30
2474.64	22
2475.55	28
2476.46	22
2477.37	33
2478.29	27
2479.2	26
2480.11	29
2481.03	26
2481.94	25
2482.85	27
2483.76	27
2484.67	26
2485.59	25
2486.5	24
2487.41	26
2488.32	29
2489.23	25
2490.14	28
2491.05	22
2491.97	34
2492.88	26
2493.79	29
2494.7	24
2495.61	28
2496.52	24
2497.43	29
2498.34	30
2499.25	28
2500.16	26
2501.07	28
2501.98	32
2502.89	27
2503.79	31
2504.7	27
2505.61	32
2506.52	29
2507.43	27
2508.34	25
2509.25	30
2510.16	29
2511.06	29
2511.97	26
2512.88	27
2513.79	23
2514.69	24
2515.6	28
2516.51	28
2517.42	30
2518.32	26
2519.23	25
2520.14	26
2521.04	22
2521.95	26
2522.86	32
2523.76	28
2524.67	22
2525.57	30
2526.48	26
2527.39	29
2528.29	28
2529.2	29
2530.1	29
2531.01	32
2531.91	29
2532.82	28
2533.72	26
2534.63	26
2535.53	27
2536.44	29
2537.34	24
2538.24	26
2539.15	26
2540.05	30
2540.96	26
2541.86	28
2542.76	31
2543.67	27
2544.57	28
2545.47	31
2546.37	28
2547.28	30
2548.18	27
2549.08	28
2549.99	29
2550.89	29
2551.79	28
2552.69	24
2553.59	29
2554.49	20
2555.4	33
2556.3	28
2557.2	28
2558.1	26
2559	29
2559.9	25
2560.8	26
2561.7	28
2562.6	26
2563.5	29
2564.4	29
2565.3	30
2566.2	27
2567.1	28
2568	29
2568.9	31
2569.8	26
2570.7	26
2571.6	24
2572.5	29
2573.4	28
2574.3	28
2575.2	24
2576.1	28
2576.99	28
2577.89	25
2578.79	30
2579.69	31
2580.59	26
2581.48	30
2582.38	30
2583.28	30
2584.18	28
2585.07	27
2585.97	26
2586.87	26
2587.76	26
2588.66	26
2589.56	25
2590.45	28
2591.35	24
2592.25	28
2593.14	31
2594.04	28
2594.93	27
2595.83	25
2596.73	28
2597.62	25
2598.52	30
2599.41	28
2600.31	26
2601.2	32
2602.1	28
2602.99	25
2603.88	25
2604.78	28
2605.67	26
2606.57	28
2607.46	28
2608.35	26
2609.25	31
2610.14	26
2611.03	27
2611.93	29
2612.82	25
2613.71	30
2614.61	28
2615.5	28
2616.39	26
2617.29	24
2618.18	29
2619.07	29
2619.96	30
2620.85	29
2621.75	26
2622.64	28
2623.53	25
2624.42	24
2625.31	26
2626.2	28
2627.09	25
2627.98	28
2628.88	28
2629.77	25
2630.66	28
2631.55	26
2632.44	26
2633.33	20
2634.22	25
2635.11	29
2636	26
2636.89	29
2637.78	29
2638.66	29
2639.55	26
2640.44	25
2641.33	29
2642.22	29
2643.11	25
2644	18
2644.89	23
2645.78	24
2646.66	24
2647.55	31
2648.44	23
2649.33	29
2650.21	26
2651.1	29
2651.99	26
2652.88	29
2653.76	28
2654.65	28
2655.54	30
2656.42	31
2657.31	20
2658.2	29
2659.08	28
2659.97	29
2660.86	28
2661.74	32
2662.63	26
2663.51	26
2664.4	22
2665.29	27
2666.17	30
2667.06	29
2667.94	29
2668.83	32
2669.71	26
2670.6	28
2671.48	30
2672.36	26
2673.25	23
2674.13	28
2675.02	24
2675.9	32
2676.78	22
2677.67	28
2678.55	27
2679.43	26
2680.32	25
2681.2	32
2682.08	22
2682.97	30
2683.85	25
2684.73	28
2685.61	27
2686.5	31
2687.38	24
2688.26	28
2689.14	24
2690.03	22
2690.91	26
2691.79	31
2692.67	30
2693.55	32
2694.43	25
2695.31	25
2696.19	25
2697.08	24
2697.96	33
2698.84	27
2699.72	29
2700.6	28
2701.48	27
2702.36	23
2703.24	28
2704.12	28
2705	26
2705.88	26
2706.76	28
2707.64	28
2708.51	27
2709.39	26
2710.27	28
2711.15	28
2712.03	30
2712.91	27
2713.79	30
2714.67	28
2715.54	28
2716.42	26
2717.3	22
2718.18	26
2719.05	28
2719.93	32
2720.81	27
2721.69	22
2722.56	23
2723.44	28
2724.32	24
2725.19	26
2726.07	28
2726.95	26
2727.82	27
2728.7	16
2729.58	31
2730.45	26
2731.33	24
2732.2	24
2733.08	28
2733.95	28
2734.83	26
2735.7	28
2736.58	24
2737.45	27
2738.33	24
2739.2	30
2740.08	27
2740.95	27
2741.83	25
2742.7	25
2743.58	18
2744.45	25
2745.32	28
2746.2	28
2747.07	28
2747.94	28
2748.82	22
2749.69	31
2750.56	26
2751.44	25
2752.31	28
2753.18	25
2754.05	24
2754.93	26
2755.8	25
2756.67	30
2757.54	22
2758.42	25
2759.29	28
2760.16	26
2761.03	27
2761.9	26
2762.77	28
2763.64	24
2764.51	20
2765.38	20
2766.26	24
2767.13	28
2768	26
2768.87	28
2769.74	28
2770.61	31
2771.48	28
2772.35	23
2773.22	28
2774.09	30
2774.96	28
2775.83	24
2776.7	30
2777.56	24
2778.43	24
2779.3	27
2780.17	26
2781.04	29
2781.91	27
2782.78	28
2783.64	24
2784.51	20
2785.38	28
2786.25	30
2787.12	28
2787.98	28
2788.85	24
2789.72	32
2790.59	27
2791.45	31
2792.32	24
2793.19	27
2794.05	29
2794.92	26
2795.79	30
2796.65	30
2797.52	24
2798.38	31
2799.25	23
2800.12	30
2800.98	31
2801.85	26
2802.71	29
2803.58	30.5
2804.44	32
2805.31	27
2806.17	27
2807.04	26
2807.9	26
2808.77	28
2809.63	31
2810.5	28
2811.36	26
2812.22	33
2813.09	32
2813.95	31
2814.82	26
2815.68	27
2816.54	22
2817.41	26
2818.27	28
2819.13	24
2820	25
2820.86	27
2821.72	28
2822.58	28
2823.45	28
2824.31	24
2825.17	28
2826.03	28
2826.9	26
2827.76	29
2828.62	26
2829.48	30
2830.34	23
2831.2	25
2832.06	34
2832.92	31
2833.79	34
2834.65	26
2835.51	24
2836.37	30
2837.23	29
2838.09	26
2838.95	25
2839.81	28
2840.67	28
2841.53	24
2842.39	28
2843.25	30
2844.11	30
2844.97	26
2845.83	24
2846.68	33
2847.54	29
2848.4	26
2849.26	31
2850.12	28
2850.98	30
2851.84	25
2852.69	24
2853.55	26
2854.41	24
2855.27	28
2856.13	26
2856.98	29
2857.84	34
2858.7	26
2859.56	26
2860.41	30
2861.27	28
2862.13	30
2862.98	22
2863.84	26
2864.7	31
2865.55	29
2866.41	26
2867.27	24
2868.12	26
2868.98	30
2869.83	28
2870.69	28
2871.54	30
2872.4	28
2873.25	30
2874.11	30
2874.96	27
2875.82	30
2876.68	34
2877.53	30
2878.38	29
2879.24	32
2880.09	30
2880.95	36
2881.8	30
2882.65	28
2883.51	32
2884.36	32
2885.22	30
2886.07	30
2886.92	36
2887.77	32
2888.63	37
2889.48	34
2890.33	40
2891.19	30
2892.04	39
2892.89	40
2893.74	40
2894.6	41
2895.45	44
2896.3	40
2897.15	43
2898	40
2898.85	44
2899.71	49
2900.56	53
2901.41	44
2902.26	56
2903.11	56
2903.96	53
2904.81	59
2905.66	64
2906.51	63
2907.36	58
2908.21	58
2909.06	54
2909.91	56
2910.76	50
2911.61	52
2912.46	52
2913.31	45
2914.16	44
2915.01	43
2915.86	42
2916.71	36
2917.56	34
2918.41	38
2919.26	38
2920.1	33
2920.95	30
2921.8	35
2922.65	33
2923.5	36
2924.34	30
2925.19	30
2926.04	30
2926.89	33
2927.74	32
2928.58	26
2929.43	29
2930.28	35
2931.12	26
2931.97	32
2932.82	29
2933.66	28
2934.51	26
2935.36	26
2936.2	28
2937.05	26
2937.89	22
2938.74	30
2939.59	31
2940.43	28
2941.28	30
2942.12	33
2942.97	28
2943.81	31
2944.66	30
2945.5	31
2946.35	33
2947.19	29
2948.04	30
2948.88	32
2949.72	29
2950.57	37
2951.41	29
2952.26	30
2953.1	30
2953.94	27
2954.79	28
2955.63	34
2956.47	27
2957.32	38
2958.16	34
2959	34
2959.85	38
2960.69	42
2961.53	39
2962.37	35
2963.22	38
2964.06	41
2964.9	40
2965.74	38
2966.58	42
2967.42	38
2968.27	42
2969.11	36
2969.95	36
2970.79	38
2971.63	35
2972.47	38
2973.31	39
2974.15	33
2974.99	33
2975.83	30
2976.68	34
2977.52	33
2978.36	32
2979.2	33
2980.04	32
2980.88	34
2981.71	30
2982.55	32
2983.39	26
2984.23	28
2985.07	24
2985.91	27
2986.75	27
2987.59	24
2988.43	24
2989.27	28
2990.1	25
2990.94	28
2991.78	24
2992.62	26
2993.46	28
2994.3	31
2995.13	26
2995.97	27
2996.81	22
2997.64	28
2998.48	24
2999.32	25
