#Acq. time (s)=	3
#Accumulations=	3
#Range (cm-¹)=	100...3000
#Windows=	3
#Autofocus=	Off
#AutoExposure=	Off
#Spike filter=	Multiple accum.
#Delay time (s)=	0
#Binning=	1
#Readout mode=	Signal
#DeNoise=	Off
#ICS correction=	Off
#Dark correction=	Off
#Inst. Process=	Off
#Instrument=	LabRAM HR Evol
#Detector=	Syncerity OE
#Objective=	x100_VIS_LWD
#Grating=	600 (500nm)
#ND Filter=	25%
#Laser=	633nm_Edge
#Hole=	100.021
#Range=	Visible
#Project=	Bolus
#Sample=	B4
#Site=	stripside
#Title=	m13
#Remark=	
#Date=	03.11.2025 20:00
#Acquired=	03.11.2025 20:00:47
100.969	34
102.252	34
103.535	37
104.818	32
106.101	36
107.384	30
108.666	32
109.948	34
111.232	31
112.514	36
113.795	30
115.077	34
116.358	32
117.639	34
118.919	33
120.2	30
121.48	30
122.76	33
124.04	36
125.32	36
126.599	34
127.879	38
129.158	32
130.436	34
131.715	40
132.992	37
134.27	40
135.548	42
136.826	36
138.104	44
139.381	41
140.658	36
141.935	32
143.212	38
144.489	41
145.763	43
147.04	43
148.315	42
149.591	41
150.867	42
152.142	38
153.416	42
154.691	37
155.965	43
157.24	44
158.514	37
159.786	44
161.06	39
162.334	43
163.607	42
164.881	41
166.152	38
167.425	40
168.698	40
169.969	38
171.241	38
172.513	43
173.785	38
175.055	40
176.326	40
177.597	38
178.867	40
180.137	41
181.408	42
182.677	42
183.947	37
185.217	36
186.485	39
187.755	41
189.022	47
190.291	38
191.56	43
192.828	44
194.096	39
195.363	44
196.631	38
197.899	36
199.165	37
200.432	43
201.698	38
202.965	38
204.23	36
205.497	38
206.762	42
208.028	38
209.293	39
210.559	38
211.823	44
213.088	35
214.352	37
215.617	33
216.88	36
218.145	30
219.408	36
220.672	34
221.934	35
223.196	32
224.46	37
225.722	36
226.985	36
228.246	34
229.508	34
230.77	37
232.031	34
233.292	38
234.554	30
235.814	37
237.074	32
238.335	37
239.595	40
240.854	35
242.115	33
243.374	36
244.633	37
245.893	32
247.151	33
248.409	38
249.667	40
250.927	34
252.184	42
253.442	35
254.699	40
255.957	34
257.214	30
258.47	33
259.727	35
260.983	36
262.24	36
263.496	35
264.752	36
266.007	36
267.262	36
268.517	36
269.773	34
271.028	34
272.282	34
273.536	30
274.79	32
276.044	34
277.297	28
278.551	38
279.804	34
281.057	36
282.31	35
283.564	35
284.816	34
286.068	35
287.32	22
288.572	37
289.823	32
291.074	35
292.325	34
293.576	37
294.827	32
296.077	29
297.328	40
298.578	36
299.828	40
301.077	31
302.325	36
303.575	34
304.824	34
306.073	32
307.321	39
308.57	37
309.818	34
311.066	41
312.314	37
313.562	34
314.808	34
316.055	35
317.302	38
318.549	32
319.796	32
321.042	32
322.288	34
323.533	32
324.779	31
326.024	31
327.27	36
328.515	29
329.759	28
331.004	30
332.248	26
333.493	33
334.736	35
335.98	36
337.223	35
338.466	32
339.709	37
340.952	38
342.195	32
343.437	34
344.68	34
345.922	29
347.163	35
348.405	31
349.647	30
350.887	32
352.128	34
353.37	35
354.609	38
355.85	36
357.089	34
358.33	30
359.57	38
360.809	28
362.049	34
363.287	33
364.526	29
365.764	36
367.003	37
368.241	30
369.479	28
370.718	30
371.955	31
373.193	38
374.429	40
375.667	38
376.903	30
378.139	31
379.376	32
380.611	34
381.848	35
383.083	34
384.319	35
385.554	32
386.79	32
388.024	34
389.258	39
390.493	36
391.727	37
392.962	33
394.195	34
395.428	30
396.663	35
397.895	35
399.128	32
400.361	37
401.593	36
402.825	38
404.058	38
405.29	33
406.521	33
407.752	30
408.985	33
410.215	37
411.446	38
412.678	35
413.908	36
415.138	32
416.367	30
417.597	37
418.828	34
420.057	32
421.286	38
422.514	32
423.743	34
424.973	36
426.201	42
427.429	36
428.657	35
429.884	31
431.112	42
432.34	30
433.567	36
434.794	37
436.02	32
437.247	34
438.473	31
439.699	36
440.925	32
442.15	32
443.376	32
444.601	36
445.826	32
447.051	33
448.275	30
449.5	35
450.724	38
451.948	40
453.172	34
454.396	40
455.619	43
456.842	38
458.065	34
459.288	38
460.511	34
461.733	36
462.956	38
464.178	38
465.4	39
466.621	38
467.843	36
469.064	38
470.285	43
471.505	41
472.726	34
473.946	41
475.166	42
476.387	36
477.606	47
478.825	45
480.044	41
481.264	48
482.483	45
483.702	47
484.921	46
486.138	58
487.356	56
488.574	46
489.792	58
491.009	55
492.226	51
493.444	56
494.661	46
495.877	51
497.094	51
498.31	50
499.525	36
500.741	48
501.958	48
503.172	42
504.388	42
505.603	40
506.817	41
508.032	40
509.247	38
510.46	40
511.675	42
512.888	34
514.102	42
515.316	43
516.528	42
517.742	34
518.954	39
520.167	38
521.378	39
522.591	38
523.802	38
525.015	38
526.226	33
527.438	36
528.648	37
529.86	32
531.07	30
532.281	40
533.491	31
534.702	40
535.911	40
537.121	34
538.33	40
539.54	35
540.749	36
541.957	37
543.167	34
544.375	30
545.584	39
546.791	38
547.999	39
549.207	37
550.414	32
551.621	34
552.829	34
554.035	32
555.241	32
556.449	38
557.655	38
558.86	34
560.066	34
561.272	35
562.477	34
563.682	38
564.888	34
566.093	39
567.297	32
568.501	35
569.705	36
570.91	34
572.114	31
573.317	30
574.52	34
575.723	36
576.927	35
578.13	37
579.332	32
580.535	34
581.737	33
582.938	37
584.14	36
585.343	36
586.544	40
587.745	36
588.946	34
590.147	32
591.347	36
592.548	34
593.748	35
594.948	32
596.147	34
597.347	35
598.546	37
599.745	39
600.944	28
602.143	37
603.342	31
604.54	32
605.738	34
606.937	33
608.134	35
609.332	36
610.529	38
611.727	40
612.924	38
614.121	34
615.317	32
616.513	38
617.709	32
618.905	32
620.101	34
621.297	32
622.492	30
623.688	36
624.883	38
626.077	34
627.271	36
628.466	38
629.66	35
630.855	35
632.047	36
633.241	28
634.435	30
635.629	36
636.82	26
638.014	32
639.207	38
640.399	36
641.59	34
642.783	32
643.975	32
645.166	32
646.357	36
647.549	36
648.741	41
649.93	36
651.122	32
652.311	40
653.502	36
654.692	32
655.881	33
657.071	39
658.261	34
659.45	38
660.639	32
661.827	40
663.016	30
664.204	40
665.393	38
666.581	33
667.769	37
668.957	38
670.143	39
671.331	33
672.518	37
673.705	38
674.891	35
676.078	40
677.264	38
678.451	39
679.636	37
680.821	38
682.007	44
683.192	40
684.378	40
685.562	41
686.747	42
687.931	39
689.115	42
690.3	42
691.483	44
692.666	38
693.851	38
695.034	42
696.216	35
697.4	39
698.582	38
699.764	44
700.948	46
702.129	42
703.311	44
704.493	50
705.674	50
706.855	48
708.036	44
709.218	54
710.399	52
711.579	48
712.759	44
713.939	43
715.12	42
716.299	40
717.478	40
718.657	45
719.836	40
721.015	39
722.195	37
723.373	38
724.552	35
725.729	32
726.907	34
728.085	38
729.262	35
730.44	30
731.617	34
732.795	33
733.972	34
735.148	36
736.324	36
737.501	28
738.677	36
739.852	35
741.028	35
742.203	34
743.379	28
744.554	34
745.729	38
746.903	33
748.078	35
749.252	29
750.426	32
751.599	34
752.772	35
753.946	32
755.119	40
756.293	33
757.466	34
758.639	30
759.811	35
760.984	30
762.155	34
763.327	34
764.499	36
765.67	35
766.842	34
768.013	36
769.183	38
770.354	35
771.525	40
772.696	33
773.865	32
775.035	32
776.205	34
777.375	31
778.544	38
779.713	36
780.882	34
782.052	37
783.219	37
784.388	37
785.557	41
786.724	36
787.892	36
789.06	36
790.227	36
791.395	39
792.562	35
793.728	36
794.895	40
796.061	31
797.228	36
798.395	34
799.56	39
800.726	32
801.891	36
803.057	36
804.221	37
805.387	35
806.551	34
807.716	34
808.879	36
810.044	36
811.208	30
812.372	37
813.535	38
814.699	31
815.862	39
817.025	34
818.188	30
819.351	38
820.513	30
821.675	36
822.837	32
823.999	36
825.161	34
826.322	34
827.483	36
828.645	32
829.805	34
830.966	34
832.127	32
833.287	38
834.447	34
835.607	32
836.767	26
837.926	36
839.085	32
840.245	38
841.404	32
842.562	30
843.72	34
844.88	30
846.038	28
847.195	34
848.353	31
849.512	32
850.669	37
851.826	32
852.983	40
854.139	34
855.296	30
856.453	36
857.609	38
858.765	35
859.921	37
861.077	32
862.232	37
863.387	39
864.542	32
865.697	34
866.852	36
868.008	36
869.162	38
870.316	28
871.47	32
872.624	41
873.778	35
874.931	34
876.084	35
877.237	37
878.39	36
879.543	37
880.695	32
881.846	32
882.999	35
884.151	32
885.302	37
886.454	32
887.606	35
888.757	34
889.908	34
891.059	28
892.21	34
893.359	37
894.509	35
895.659	37
896.81	32
897.959	34
899.109	32
900.257	28
901.407	33
902.556	26
903.705	36
904.854	32
906.001	31
907.149	29
908.298	32
909.446	36
910.592	35
911.74	36
912.888	38
914.034	34
915.181	33
916.328	37
917.473	32
918.62	36
919.766	29
920.911	32
922.058	30
923.204	30
924.348	30
925.494	30
926.638	28
927.783	30
928.928	23
930.072	24
931.216	24
932.36	31
933.504	36
934.647	35
935.791	34
936.933	32
938.077	29
939.219	32
940.363	31
941.504	31
942.647	34
943.789	32
944.932	30
946.073	36
947.215	26
948.356	36
949.498	37
950.638	31
951.778	28
952.92	27
954.06	36
955.199	34
956.34	30
957.479	33
958.62	35
959.759	30
960.898	24
962.038	28
963.176	33
964.315	31
965.453	36
966.592	33
967.73	37
968.867	28
970.006	34
971.144	32
972.281	29
973.418	34
974.554	37
975.692	32
976.829	35
977.965	37
979.101	28
980.237	37
981.374	28
982.509	39
983.645	32
984.78	30
985.915	26
987.05	31
988.184	30
989.319	30
990.453	35
991.589	28
992.722	32
993.856	33
994.99	32
996.123	34
997.257	33
998.39	34
999.523	31
1000.66	26
1001.79	30
1002.92	35
1004.05	32
1005.18	33
1006.32	36
1007.45	30
1008.58	34
1009.71	26
1010.84	27
1011.97	33
1013.1	33
1014.23	33
1015.36	37
1016.49	36
1017.62	28
1018.75	36
1019.88	26
1021.01	26
1022.14	33
1023.27	31
1024.4	28
1025.53	34
1026.66	31
1027.79	35
1028.91	31
1030.04	28
1031.17	28
1032.3	33
1033.42	35
1034.55	33
1035.68	28
1036.81	33
1037.93	33
1039.06	30
1040.18	39
1041.31	33
1042.44	29
1043.56	32
1044.69	34
1045.81	31
1046.94	26
1048.06	32
1049.19	30
1050.31	27
1051.44	30
1052.56	29
1053.69	30
1054.81	30
1055.93	32
1057.06	31
1058.18	34
1059.3	35
1060.43	32
1061.55	26
1062.67	30
1063.79	30
1064.92	30
1066.04	30
1067.16	30
1068.28	31
1069.4	28
1070.52	29
1071.65	36
1072.77	37
1073.89	32
1075.01	34
1076.13	32
1077.25	31
1078.37	31
1079.49	35
1080.61	32
1081.73	28
1082.85	36
1083.97	32
1085.09	30
1086.2	31
1087.32	36
1088.44	31
1089.56	36
1090.68	32
1091.8	30
1092.91	37
1094.03	35
1095.15	27
1096.26	33
1097.38	33
1098.5	29
1099.61	32
1100.73	26
1101.85	28
1102.96	28
1104.08	28
1105.19	36
1106.31	33
1107.43	33
1108.54	35
1109.66	30
1110.77	30
1111.88	38
1113	33
1114.11	26
1115.23	32
1116.34	36
1117.46	33
1118.57	30
1119.68	28
1120.8	31
1121.91	33
1123.02	28
1124.13	33
1125.25	30
1126.36	30
1127.47	32
1128.58	26
1129.69	30
1130.8	29
1131.92	30
1133.03	31
1134.14	29
1135.25	27
1136.36	34
1137.47	34
1138.58	32
1139.69	33
1140.8	30
1141.91	33
1143.02	30
1144.13	30
1145.24	29
1146.35	29
1147.46	32
1148.56	28
1149.67	34
1150.78	30
1151.89	35
1153	30
1154.1	32
1155.21	34
1156.32	28
1157.43	28
1158.53	32
1159.64	30
1160.75	30
1161.85	29
1162.96	32
1164.07	32
1165.17	30
1166.28	32
1167.38	30
1168.49	24
1169.59	33
1170.7	30
1171.8	33
1172.91	33
1174.01	26
1175.12	32
1176.22	31
1177.32	26
1178.43	32
1179.53	28
1180.64	27
1181.74	32
1182.84	35
1183.94	28
1185.05	34
1186.15	35
1187.25	29
1188.35	35
1189.46	28
1190.56	30
1191.66	30
1192.76	32
1193.86	28
1194.96	38
1196.06	31.9706
1197.16	29.9661
1198.26	25.1666
1199.37	29.9848
1200.47	28.9404
1201.57	29.9755
1202.67	29.7931
1203.77	29.8741
1204.86	28.2448
1205.96	31.8137
1207.06	31.633
1208.16	32.2652
1209.26	30.2618
1210.36	27.342
1211.46	31.1396
1212.56	27.622
1213.65	30.182
1214.75	29.0042
1215.85	31.1583
1216.95	25.286
1218.04	31.678
1219.14	28.4928
1220.24	30.3535
1221.33	27.6076
1222.43	29.5414
1223.53	27.2253
1224.62	30.8274
1225.72	27.2613
1226.82	32.4812
1227.91	25.4936
1229.01	30.6718
1230.1	30.439
1231.2	32.832
1232.29	28.4016
1233.39	25.3637
1234.48	28.6247
1235.58	31.1368
1236.67	28.6054
1237.77	30.9804
1238.86	28.1347
1239.95	30.1115
1241.05	27.613
1242.14	24.4397
1243.23	30.2328
1244.33	27.5925
1245.42	29.3197
1246.51	28.5362
1247.61	29.9704
1248.7	28.0134
1249.79	30.8088
1250.88	33.3618
1251.97	29.1778
1253.07	26.3722
1254.16	27.2216
1255.25	32
1256.34	32.7055
1257.43	31.342
1258.52	30.6275
1259.61	29.9644
1260.7	29.1705
1261.79	32.4669
1262.88	30.2456
1263.97	31.7192
1265.06	32.8343
1266.15	32.8999
1267.24	33.2233
1268.33	31.0441
1269.42	31.3281
1270.51	32.6822
1271.6	32.1605
1272.68	28.6383
1273.77	31.3659
1274.86	28.4722
1275.95	30.8129
1277.04	29.8071
1278.12	26.7864
1279.21	30.5989
1280.3	31.3308
1281.39	30.1001
1282.47	27.1029
1283.56	28.5508
1284.65	31.9186
1285.73	29.6342
1286.82	26.6366
1287.91	28.1347
1288.99	28.7674
1290.08	27.4091
1291.16	30.7633
1292.25	28.8917
1293.33	31.6298
1294.42	31.8458
1295.5	28.3088
1296.59	28.2975
1297.67	29.2746
1298.76	30.3566
1299.84	31.5711
1300.92	29.1618
1302.01	29.4127
1303.09	31.788
1304.17	29.8522
1305.26	28.1921
1306.34	29.7679
1307.34	27
1308.43	29
1309.52	26
1310.61	30
1311.7	32
1312.78	26
1313.87	23
1314.96	25
1316.04	28
1317.13	28
1318.22	30
1319.3	30
1320.39	30
1321.48	28
1322.56	30
1323.65	25
1324.73	36
1325.82	30
1326.9	32
1327.99	23
1329.07	27
1330.16	29
1331.24	24
1332.33	29
1333.41	28
1334.5	29
1335.58	30
1336.66	28
1337.75	27
1338.83	28
1339.91	28
1341	29
1342.08	26
1343.16	27
1344.24	32
1345.33	28
1346.41	26
1347.49	31
1348.57	32
1349.65	28
1350.74	28
1351.82	30
1352.9	30
1353.98	26
1355.06	20
1356.14	26
1357.22	27
1358.3	30
1359.38	32
1360.46	25
1361.54	28
1362.62	29
1363.7	18
1364.78	32
1365.86	28
1366.94	30
1368.02	28
1369.09	28
1370.17	24
1371.25	28
1372.33	30
1373.41	30
1374.48	32
1375.56	28
1376.64	26
1377.72	25
1378.79	31
1379.87	32
1380.95	32
1382.02	32
1383.1	31
1384.17	28
1385.25	31
1386.33	26
1387.4	33
1388.48	33
1389.55	28
1390.63	28
1391.7	30
1392.78	31
1393.85	26
1394.93	26
1396	28
1397.07	28
1398.15	31
1399.22	28
1400.3	32
1401.37	31
1402.44	31
1403.52	31
1404.59	29
1405.66	32
1406.73	30
1407.81	33
1408.88	30
1409.95	32
1411.02	31
1412.09	32
1413.17	35
1414.24	33
1415.31	36
1416.38	30
1417.45	30
1418.52	36
1419.59	33
1420.66	31
1421.73	32
1422.8	37
1423.87	27
1424.94	31
1426.01	29
1427.08	26
1428.15	33
1429.22	26
1430.29	25
1431.35	32
1432.42	28
1433.49	30
1434.56	26
1435.63	28
1436.69	28
1437.76	29
1438.83	30
1439.9	30
1440.96	30
1442.03	31
1443.1	32
1444.17	32
1445.23	31
1446.3	29
1447.36	31
1448.43	30
1449.49	29
1450.56	33
1451.63	29
1452.69	35
1453.76	28
1454.82	30
1455.89	26
1456.95	30
1458.01	32
1459.08	32
1460.14	31
1461.21	29
1462.27	30
1463.34	28
1464.4	30
1465.46	26
1466.52	28
1467.59	30
1468.65	29
1469.71	35
1470.77	30
1471.84	32
1472.9	29
1473.96	32
1475.02	30
1476.08	24
1477.15	29
1478.21	29
1479.27	34
1480.33	33
1481.39	30
1482.45	33
1483.51	28
1484.57	36
1485.63	31
1486.69	27
1487.75	27
1488.81	28
1489.87	24
1490.93	36
1491.99	26
1493.05	24
1494.1	24
1495.16	28
1496.22	32
1497.28	28
1498.34	28
1499.4	32
1500.45	28
1501.51	28
1502.57	27
1503.63	32
1504.68	29
1505.74	31
1506.8	31
1507.85	26
1508.91	28
1509.97	28
1511.02	29
1512.08	28
1513.13	30
1514.19	30
1515.24	27
1516.3	30
1517.35	31
1518.41	26
1519.46	34
1520.52	31
1521.57	28
1522.63	29
1523.68	30
1524.73	28
1525.79	30
1526.84	28
1527.9	34
1528.95	31
1530	30
1531.05	27
1532.11	30
1533.16	33
1534.21	30
1535.26	30
1536.32	29
1537.37	34
1538.42	35
1539.47	29
1540.52	35
1541.57	33
1542.63	30
1543.68	28
1544.73	26
1545.78	30
1546.83	29
1547.88	32
1548.93	30
1549.98	30
1551.03	26
1552.08	28
1553.13	30
1554.18	34
1555.23	29
1556.27	30
1557.32	26
1558.37	24
1559.42	34
1560.47	30
1561.52	30
1562.56	27
1563.61	32
1564.66	28
1565.71	30
1566.75	27
1567.8	32
1568.85	32
1569.9	26
1570.94	32
1571.99	30
1573.03	28
1574.08	26
1575.13	27
1576.17	25
1577.22	28
1578.26	29
1579.31	28
1580.35	22
1581.4	31
1582.44	26
1583.49	30
1584.53	24
1585.58	29
1586.62	26
1587.66	26
1588.71	32
1589.75	31
1590.8	32
1591.84	29
1592.88	32
1593.92	26
1594.97	33
1596.01	36
1597.05	29
1598.1	28
1599.14	31
1600.18	26
1601.22	33
1602.26	30
1603.3	28
1604.35	28
1605.39	31
1606.43	28
1607.47	35
1608.51	30
1609.55	29
1610.59	28
1611.63	29
1612.67	22
1613.71	31
1614.75	24
1615.79	28
1616.83	24
1617.87	28
1618.91	24
1619.95	24
1620.99	28
1622.02	32
1623.06	29
1624.1	31
1625.14	24
1626.18	26
1627.21	31
1628.25	28
1629.29	24
1630.33	28
1631.36	32
1632.4	30
1633.44	29
1634.48	29
1635.51	30
1636.55	30
1637.58	33
1638.62	24
1639.66	29
1640.69	28
1641.73	30
1642.76	29
1643.8	30
1644.83	28
1645.87	26
1646.9	29
1647.94	29
1648.97	28
1650	28
1651.04	22
1652.07	28
1653.11	34
1654.14	28
1655.17	31
1656.21	32
1657.24	30
1658.27	30
1659.31	24
1660.34	26
1661.37	28
1662.4	32
1663.43	30
1664.47	31
1665.5	28
1666.53	27
1667.56	31
1668.59	30
1669.62	28
1670.66	30
1671.69	30
1672.72	28
1673.75	32
1674.78	29
1675.81	30
1676.84	26
1677.87	33
1678.9	27
1679.93	28
1680.96	27
1681.98	31
1683.01	31
1684.04	31
1685.07	34
1686.1	29
1687.13	29
1688.16	33
1689.18	30
1690.21	29
1691.24	33
1692.27	30
1693.3	32
1694.32	32
1695.35	32
1696.38	29
1697.4	27
1698.43	28
1699.46	31
1700.48	24
1701.51	24
1702.54	29
1703.56	33
1704.59	31
1705.61	31
1706.64	30
1707.66	28
1708.69	30
1709.71	26
1710.74	28
1711.76	29
1712.79	27
1713.81	30
1714.83	28
1715.86	30
1716.88	26
1717.91	28
1718.93	30
1719.95	29
1720.98	28
1722	26
1723.02	33
1724.04	31
1725.07	26
1726.09	29
1727.11	32
1728.13	29
1729.15	32
1730.18	29
1731.2	31
1732.22	27
1733.24	30
1734.26	26
1735.28	26
1736.3	30
1737.32	26
1738.34	32
1739.36	31
1740.38	28
1741.4	30
1742.42	22
1743.44	26
1744.46	27
1745.48	32
1746.5	31
1747.52	32
1748.54	28
1749.56	32
1750.58	28
1751.6	33
1752.61	32
1753.63	34
1754.65	31
1755.67	31
1756.68	32
1757.7	28
1758.72	24
1759.74	29
1760.75	29
1761.77	30
1762.79	28
1763.8	28
1764.82	30
1765.83	24
1766.85	31
1767.87	32
1768.88	22
1769.9	29
1770.91	34
1771.93	29
1772.94	28
1773.96	30
1774.97	26
1775.99	28
1777	27
1778.02	29
1779.03	28
1780.04	30
1781.06	34
1782.07	24
1783.09	31
1784.1	28
1785.11	28
1786.13	38
1787.14	24
1788.15	30
1789.16	24
1790.18	24
1791.19	28
1792.2	18
1793.21	29
1794.22	31
1795.23	28
1796.25	32
1797.26	32
1798.27	32
1799.28	31
1800.29	34
1801.3	33
1802.31	25
1803.32	28
1804.33	30
1805.34	27
1806.35	28
1807.36	30
1808.37	29
1809.38	29
1810.39	28
1811.4	26
1812.41	29
1813.42	36
1814.42	25
1815.43	37
1816.44	30
1817.45	36
1818.46	28
1819.47	29
1820.47	32
1821.48	24
1822.49	27
1823.49	34
1824.5	30
1825.51	24
1826.52	28
1827.52	29
1828.53	31
1829.53	29
1830.54	27
1831.55	30
1832.55	32
1833.56	29
1834.56	28
1835.57	29
1836.57	23
1837.58	25
1838.58	31
1839.59	25
1840.59	30
1841.6	30
1842.6	32
1843.61	27
1844.61	32
1845.61	26
1846.62	30
1847.62	28
1848.62	25
1849.63	29
1850.63	27
1851.63	28
1852.64	26
1853.64	31
1854.64	29
1855.64	24
1856.64	34
1857.65	30
1858.65	26
1859.65	28
1860.65	30
1861.65	28
1862.65	28
1863.65	33
1864.66	34
1865.66	28
1866.66	32
1867.66	28
1868.66	28
1869.66	28
1870.66	26
1871.66	26
1872.66	31
1873.66	30
1874.66	30
1875.65	31
1876.65	25
1877.65	29
1878.65	30
1879.65	30
1880.65	30
1881.65	32
1882.64	28
1883.64	28
1884.64	27
1885.64	30
1886.63	30
1887.63	30
1888.63	24
1889.63	28
1890.62	29
1891.62	30
1892.62	30
1893.61	28
1894.61	26
1895.6	27
1896.6	29
1897.6	25
1898.59	26
1899.59	30
1900.58	27
1901.58	32
1902.57	32
1903.57	24
1904.56	31
1905.56	28
1906.55	26
1907.54	29
1908.54	23
1909.53	32
1910.53	30
1911.52	33
1912.51	31
1913.51	28
1914.5	29
1915.49	24
1916.49	31
1917.48	28
1918.47	32
1919.46	27
1920.46	31
1921.45	32
1922.44	30
1923.43	31
1924.42	24
1925.41	32
1926.41	28
1927.4	27
1928.39	27
1929.38	30
1930.37	28
1931.36	28
1932.35	25
1933.34	30
1934.33	31
1935.32	27
1936.31	30
1937.3	27
1938.29	28
1939.28	29
1940.27	28
1941.26	28
1942.24	26
1943.23	24
1944.22	32
1945.21	27
1946.2	26
1947.19	31
1948.17	29
1949.16	31
1950.15	29
1951.14	22
1952.12	26
1953.11	25
1954.1	29
1955.09	22
1956.07	31
1957.06	20
1958.05	29
1959.03	27
1960.02	31
1961	24
1961.99	28
1962.98	27
1963.96	28
1964.95	33
1965.93	28
1966.92	28
1967.9	32
1968.89	27
1969.87	28
1970.85	28
1971.84	26
1972.82	24
1973.81	30
1974.79	31
1975.78	28
1976.76	29
1977.74	26
1978.73	30
1979.71	29
1980.69	28
1981.67	26
1982.66	27
1983.64	31
1984.62	30
1985.6	28
1986.59	30
1987.57	26
1988.55	31
1989.53	26
1990.51	30
1991.49	28
1992.47	30
1993.45	29
1994.44	33
1995.42	27
1996.4	28
1997.38	30
1998.36	28
1999.34	24
2000.32	26
2001.3	26
2002.28	29
2003.26	24
2004.24	31
2005.22	23
2006.19	30
2007.17	32
2008.15	30
2009.13	27
2010.11	24
2011.09	26
2012.06	28
2013.04	29
2014.02	29
2015	27
2015.98	30
2016.95	26
2017.93	28
2018.91	32
2019.88	25
2020.86	28
2021.84	30
2022.81	26
2023.79	35
2024.77	27
2025.74	24
2026.72	29
2027.69	28
2028.67	26
2029.65	30
2030.62	27
2031.6	26
2032.57	28
2033.55	30
2034.52	31
2035.5	28
2036.47	24
2037.44	27
2038.42	28
2039.39	22
2040.36	26
2041.34	25
2042.31	26
2043.29	26
2044.26	30
2045.23	28
2046.2	24
2047.18	28
2048.15	24
2049.12	28
2050.09	28
2051.07	22
2052.04	30
2053.01	26
2053.98	27
2054.95	24
2055.93	26
2056.9	25
2057.87	30
2058.84	26
2059.81	29
2060.78	26
2061.75	26
2062.72	29
2063.69	30
2064.66	24
2065.63	27
2066.6	24
2067.57	27
2068.54	27
2069.51	24
2070.48	26
2071.45	30
2072.42	27
2073.38	27
2074.35	24
2075.32	30
2076.29	26
2077.26	26
2078.23	31
2079.19	28
2080.16	28
2081.13	24
2082.1	24
2083.06	24
2084.03	27
2085	28
2085.96	20
2086.93	29
2087.9	26
2088.86	26
2089.83	26
2090.8	31
2091.76	30
2092.73	22
2093.69	24
2094.66	22
2095.62	26
2096.59	29
2097.55	27
2098.52	30
2099.48	20
2100.45	27
2101.41	24
2102.38	27
2103.34	27
2104.31	26
2105.27	29
2106.23	26
2107.2	27
2108.16	28
2109.12	24
2110.09	31
2111.05	30
2112.01	28
2112.98	25
2113.94	25
2114.9	29
2115.86	27
2116.82	27
2117.79	33
2118.75	34
2119.71	26
2120.67	33
2121.63	26
2122.59	28
2123.55	24
2124.52	30
2125.48	27
2126.44	31
2127.4	20
2128.36	28
2129.32	28
2130.28	28
2131.24	28
2132.2	25
2133.16	27
2134.12	25
2135.08	32
2136.04	23
2136.99	26
2137.95	23
2138.91	24
2139.87	28
2140.83	24
2141.79	23
2142.75	20
2143.7	28
2144.66	24
2145.62	22.0222
2146.58	29.8931
2147.53	29.012
2148.49	27.874
2149.45	27.9932
2150.41	32.6072
2151.36	27.643
2152.32	24.2764
2153.27	25.8333
2154.23	27.6081
2155.19	25.4156
2156.14	29.6431
2157.1	22.1315
2158.06	23.2729
2159.01	24.4154
2159.97	25.7025
2160.92	31.0394
2161.88	26.6808
2162.83	26.1803
2163.79	27.6176
2164.74	23.4029
2165.7	23.0499
2166.65	28.251
2167.61	27.3873
2168.56	25.6848
2169.51	27.0074
2170.47	26.9875
2171.42	28.1236
2172.38	26.3361
2173.33	25.3928
2174.28	26.3857
2175.24	24.1294
2176.19	26.2149
2177.14	26.0229
2178.09	28.9601
2179.05	26.0276
2180	29.8931
2180.95	24.9
2181.9	24.6825
2182.86	25.6517
2183.81	24.5372
2184.76	27.2692
2185.71	26.2549
2186.66	24.3235
2187.61	27.0899
2188.57	24.2926
2189.52	26.8709
2190.47	23.2695
2191.42	29.372
2192.37	28.4559
2193.32	27.7369
2194.27	27.9902
2195.22	26.3118
2196.17	23.82
2197.12	23.5081
2198.07	24.566
2199.02	24.7971
2199.97	27.2901
2200.92	26.3131
2201.87	19.7777
2202.82	25.8881
2203.76	23.5912
2204.71	26.119
2205.66	25.7284
2206.61	27.6082
2207.56	25.2877
2208.51	27.554
2209.45	25.1622
2210.4	22.1629
2211.35	25.073
2212.3	25.4385
2213.24	30.0183
2214.19	25.7855
2215.14	25.9258
2216.09	27.5392
2217.03	27.2503
2217.98	23.4349
2218.93	20.5497
2219.87	22.9953
2220.82	25.5813
2221.77	28.1223
2222.71	25.9069
2223.66	28.3159
2224.6	25.2416
2225.55	23.5804
2226.49	24.3126
2227.44	25.0498
2228.38	26.1046
2229.33	24.921
2230.27	21.6235
2231.22	25.1957
2232.16	23.7303
2233.11	23.0778
2234.05	24.25
2235	24.2206
2235.94	26.0359
2236.88	25.1185
2237.83	27.1324
2238.77	29.6087
2239.71	25.3027
2240.66	24.3041
2241.6	26.5814
2242	27
2242.95	24
2243.9	22
2244.84	28
2245.79	30
2246.74	27
2247.69	30
2248.63	30
2249.58	27
2250.53	18
2251.47	30
2252.42	26
2253.37	27
2254.31	24
2255.26	24
2256.2	24
2257.15	28
2258.1	28
2259.04	28
2259.99	27
2260.93	29
2261.88	27
2262.82	27
2263.77	26
2264.71	23
2265.65	31
2266.6	26
2267.54	29
2268.49	25
2269.43	25
2270.38	28
2271.32	32
2272.26	28
2273.21	25
2274.15	29
2275.09	27
2276.04	22
2276.98	23
2277.92	26
2278.86	28
2279.81	24
2280.75	27
2281.69	26
2282.63	28
2283.57	30
2284.52	24
2285.46	24
2286.4	26
2287.34	26
2288.28	24
2289.22	20
2290.16	28
2291.1	26
2292.04	29
2292.98	23
2293.93	28
2294.86	26
2295.8	27
2296.74	33
2297.69	29
2298.62	26
2299.56	26
2300.5	22
2301.44	23
2302.38	28
2303.32	29
2304.26	27
2305.2	30
2306.14	26
2307.07	29
2308.01	30
2308.95	26
2309.89	26
2310.83	20
2311.76	22
2312.7	23
2313.64	24
2314.58	25
2315.51	26
2316.45	24
2317.39	28
2318.32	23
2319.26	30
2320.2	28
2321.13	27
2322.07	24
2323	24
2323.94	22
2324.88	25
2325.81	32
2326.75	26
2327.68	30
2328.62	26
2329.55	30
2330.49	24
2331.42	27
2332.36	24
2333.29	23
2334.22	26
2335.16	29
2336.09	30
2337.03	28
2337.96	24
2338.89	30
2339.83	24
2340.76	29
2341.69	28
2342.63	30
2343.56	24
2344.49	27
2345.43	26
2346.36	29
2347.29	26
2348.22	24
2349.15	28
2350.09	26
2351.02	25
2351.95	26
2352.88	30
2353.81	24
2354.74	26
2355.67	30
2356.61	26
2357.54	28
2358.47	20
2359.4	24
2360.33	24
2361.26	27
2362.19	28
2363.12	30
2364.05	25
2364.98	24
2365.91	27
2366.84	27
2367.77	31
2368.7	27
2369.62	22
2370.55	33
2371.48	28
2372.41	27
2373.34	25
2374.27	28
2375.2	28
2376.12	27
2377.05	30
2377.98	25
2378.91	28
2379.83	29
2380.76	27
2381.69	27
2382.62	30
2383.54	24
2384.47	28
2385.4	27
2386.32	25
2387.25	28
2388.18	28
2389.1	25
2390.03	30
2390.95	22
2391.88	22
2392.81	24
2393.73	27
2394.66	30
2395.58	26
2396.51	28
2397.43	28
2398.36	28
2399.28	28
2400.2	27
2401.13	28
2402.05	28
2402.98	25
2403.9	25
2404.83	29
2405.75	28
2406.67	28
2407.6	31
2408.52	24
2409.44	26
2410.37	28
2411.29	24
2412.21	24
2413.13	24
2414.06	26
2414.98	27
2415.9	23
2416.82	28
2417.74	27
2418.67	29
2419.59	26
2420.51	28
2421.43	28
2422.35	31
2423.27	29
2424.19	27
2425.11	24
2426.03	28
2426.96	26
2427.88	28
2428.8	27
2429.72	26
2430.64	26
2431.56	30
2432.48	30
2433.39	24
2434.31	24
2435.23	29
2436.15	30
2437.07	26
2437.99	27
2438.91	30
2439.83	28
2440.75	24
2441.67	24
2442.58	28
2443.5	27
2444.42	28
2445.34	27
2446.26	27
2447.17	24
2448.09	28
2449.01	26
2449.92	26
2450.84	28
2451.76	26
2452.68	25
2453.59	28
2454.51	28
2455.42	24
2456.34	26
2457.26	28
2458.17	27
2459.09	31
2460	26
2460.92	28
2461.83	27
2462.75	26
2463.66	25
2464.58	20
2465.49	33
2466.41	28
2467.32	26
2468.24	24
2469.15	22
2470.07	33
2470.98	26
2471.89	30
2472.81	27
2473.72	24
2474.64	28
2475.55	31
2476.46	24
2477.37	27
2478.29	29
2479.2	29
2480.11	28
2481.03	34
2481.94	34
2482.85	26
2483.76	34
2484.67	26
2485.59	28
2486.5	31
2487.41	24
2488.32	26
2489.23	30
2490.14	30
2491.05	24
2491.97	24
2492.88	26
2493.79	30
2494.7	32
2495.61	29
2496.52	27
2497.43	30
2498.34	27
2499.25	31
2500.16	26
2501.07	24
2501.98	28
2502.89	32
2503.79	28
2504.7	27
2505.61	29
2506.52	24
2507.43	26
2508.34	29
2509.25	26
2510.16	29
2511.06	30
2511.97	24
2512.88	25
2513.79	29
2514.69	25
2515.6	26
2516.51	33
2517.42	24
2518.32	25
2519.23	32
2520.14	29
2521.04	22
2521.95	30
2522.86	26
2523.76	27
2524.67	28
2525.57	30
2526.48	26
2527.39	27
2528.29	27
2529.2	24
2530.1	31
2531.01	28
2531.91	27
2532.82	32
2533.72	27
2534.63	24
2535.53	27
2536.44	28
2537.34	24
2538.24	26
2539.15	24
2540.05	28
2540.96	29
2541.86	25
2542.76	28
2543.67	26
2544.57	30
2545.47	29
2546.37	31
2547.28	24
2548.18	28
2549.08	26
2549.99	25
2550.89	24
2551.79	24
2552.69	26
2553.59	30
2554.49	28
2555.4	29
2556.3	26
2557.2	34
2558.1	26
2559	28
2559.9	25
2560.8	26
2561.7	29
2562.6	34
2563.5	28
2564.4	24
2565.3	30
2566.2	27
2567.1	29
2568	28
2568.9	26
2569.8	31
2570.7	25
2571.6	30
2572.5	27
2573.4	25
2574.3	26
2575.2	22
2576.1	29
2576.99	24
2577.89	29
2578.79	28
2579.69	30
2580.59	31
2581.48	26
2582.38	31
2583.28	27
2584.18	30
2585.07	26
2585.97	26
2586.87	26
2587.76	26
2588.66	24
2589.56	27
2590.45	30
2591.35	30
2592.25	24
2593.14	27
2594.04	26
2594.93	30
2595.83	27
2596.73	26
2597.62	30
2598.52	27
2599.41	21
2600.31	24
2601.2	30
2602.1	33
2602.99	27
2603.88	28
2604.78	28
2605.67	27
2606.57	25
2607.46	30
2608.35	31
2609.25	25
2610.14	26
2611.03	29
2611.93	28
2612.82	28
2613.71	26
2614.61	27
2615.5	28
2616.39	24
2617.29	30
2618.18	27
2619.07	28
2619.96	23
2620.85	25
2621.75	28
2622.64	30
2623.53	29
2624.42	22
2625.31	26
2626.2	24
2627.09	29
2627.98	25
2628.88	30
2629.77	26
2630.66	26
2631.55	24
2632.44	28
2633.33	27
2634.22	29
2635.11	28
2636	26
2636.89	26
2637.78	24
2638.66	27
2639.55	30
2640.44	22
2641.33	30
2642.22	25
2643.11	30
2644	31
2644.89	27
2645.78	32
2646.66	28
2647.55	27
2648.44	27
2649.33	30
2650.21	28
2651.1	27
2651.99	26
2652.88	29
2653.76	26
2654.65	22
2655.54	24
2656.42	24
2657.31	25
2658.2	28
2659.08	30
2659.97	32
2660.86	22
2661.74	24
2662.63	26
2663.51	31
2664.4	22
2665.29	30
2666.17	24
2667.06	31
2667.94	30
2668.83	34
2669.71	24
2670.6	28
2671.48	23
2672.36	25
2673.25	25
2674.13	26
2675.02	30
2675.9	31
2676.78	28
2677.67	28
2678.55	27
2679.43	27
2680.32	26
2681.2	26
2682.08	26
2682.97	29
2683.85	31
2684.73	27
2685.61	31
2686.5	23
2687.38	24
2688.26	18
2689.14	27
2690.03	18
2690.91	28
2691.79	27
2692.67	27
2693.55	22
2694.43	26
2695.31	24
2696.19	28
2697.08	25
2697.96	27
2698.84	24
2699.72	22
2700.6	30
2701.48	24
2702.36	29
2703.24	26
2704.12	23
2705	25
2705.88	28
2706.76	23
2707.64	27
2708.51	30
2709.39	26
2710.27	26
2711.15	27
2712.03	26
2712.91	27
2713.79	26
2714.67	30
2715.54	26
2716.42	28
2717.3	28
2718.18	30
2719.05	31
2719.93	32
2720.81	24
2721.69	30
2722.56	25
2723.44	26
2724.32	27
2725.19	25
2726.07	28
2726.95	26
2727.82	26
2728.7	27
2729.58	24
2730.45	28
2731.33	28
2732.2	28
2733.08	25
2733.95	24
2734.83	26
2735.7	27
2736.58	29
2737.45	28
2738.33	27
2739.2	25
2740.08	29
2740.95	26
2741.83	28
2742.7	20
2743.58	24
2744.45	32
2745.32	28
2746.2	24
2747.07	30
2747.94	31
2748.82	31
2749.69	28
2750.56	29
2751.44	29
2752.31	26
2753.18	30
2754.05	28
2754.93	23
2755.8	24
2756.67	29
2757.54	22
2758.42	35
2759.29	25
2760.16	28
2761.03	27
2761.9	26
2762.77	29
2763.64	25
2764.51	30
2765.38	25
2766.26	30
2767.13	23
2768	28
2768.87	30
2769.74	25
2770.61	24
2771.48	27
2772.35	26
2773.22	25
2774.09	31
2774.96	28
2775.83	27
2776.7	27
2777.56	27
2778.43	26
2779.3	24
2780.17	28
2781.04	27
2781.91	32
2782.78	36
2783.64	27
2784.51	29
2785.38	27
2786.25	30
2787.12	33
2787.98	22
2788.85	29
2789.72	29
2790.59	27
2791.45	33
2792.32	26
2793.19	24
2794.05	30
2794.92	30
2795.79	24
2796.65	28
2797.52	32
2798.38	26
2799.25	27
2800.12	26
2800.98	28
2801.85	26
2802.71	25
2803.58	28.5
2804.44	27
2805.31	28
2806.17	34
2807.04	33
2807.9	28
2808.77	33
2809.63	24
2810.5	31
2811.36	26
2812.22	32
2813.09	31
2813.95	26
2814.82	26
2815.68	30
2816.54	25
2817.41	29
2818.27	26
2819.13	26
2820	29
2820.86	26
2821.72	30
2822.58	30
2823.45	32
2824.31	30
2825.17	29
2826.03	31
2826.9	23
2827.76	26
2828.62	30
2829.48	27
2830.34	27
2831.2	29
2832.06	33
2832.92	22
2833.79	26
2834.65	25
2835.51	29
2836.37	28
2837.23	32
2838.09	31
2838.95	26
2839.81	22
2840.67	29
2841.53	28
2842.39	27
2843.25	28
2844.11	30
2844.97	30
2845.83	28
2846.68	28
2847.54	30
2848.4	32
2849.26	28
2850.12	28
2850.98	32
2851.84	27
2852.69	28
2853.55	30
2854.41	28
2855.27	28
2856.13	31
2856.98	28
2857.84	28
2858.7	29
2859.56	30
2860.41	28
2861.27	30
2862.13	30
2862.98	22
2863.84	34
2864.7	29
2865.55	30
2866.41	31
2867.27	26
2868.12	27
2868.98	31
2869.83	30
2870.69	26
2871.54	28
2872.4	32
2873.25	31
2874.11	30
2874.96	30
2875.82	31
2876.68	34
2877.53	30
2878.38	31
2879.24	30
2880.09	35
2880.95	34
2881.8	34
2882.65	34
2883.51	34
2884.36	30
2885.22	35
2886.07	34
2886.92	34
2887.77	34
2888.63	28
2889.48	33
2890.33	36
2891.19	36
2892.04	34
2892.89	40
2893.74	40
2894.6	42
2895.45	44
2896.3	46
2897.15	44
2898	42
2898.85	50
2899.71	46
2900.56	52
2901.41	53
2902.26	57
2903.11	56
2903.96	55
2904.81	57
2905.66	56
2906.51	59
2907.36	54
2908.21	48
2909.06	54
2909.91	54
2910.76	48
2911.61	52
2912.46	45
2913.31	42
2914.16	44
2915.01	44
2915.86	44
2916.71	36
2917.56	42
2918.41	40
2919.26	38
2920.1	35
2920.95	32
2921.8	39
2922.65	34
2923.5	34
2924.34	32
2925.19	26
2926.04	31
2926.89	30
2927.74	37
2928.58	32
2929.43	32
2930.28	26
2931.12	28
2931.97	32
2932.82	26
2933.66	26
2934.51	31
2935.36	35
2936.2	26
2937.05	31
2937.89	31
2938.74	29
2939.59	28
2940.43	29
2941.28	31
2942.12	28
2942.97	26
2943.81	26
2944.66	26
2945.5	30
2946.35	33
2947.19	30
2948.04	29
2948.88	29
2949.72	29
2950.57	29
2951.41	32
2952.26	28
2953.1	32
2953.94	30
2954.79	34
2955.63	30
2956.47	32
2957.32	32
2958.16	35
2959	36
2959.85	34
2960.69	38
2961.53	35
2962.37	40
2963.22	39
2964.06	35
2964.9	33
2965.74	44
2966.58	42
2967.42	45
2968.27	38
2969.11	38
2969.95	41
2970.79	38
2971.63	38
2972.47	34
2973.31	32
2974.15	35
2974.99	36
2975.83	34
2976.68	39
2977.52	33
2978.36	36
2979.2	33
2980.04	36
2980.88	29
2981.71	37
2982.55	28
2983.39	30
2984.23	28
2985.07	30
2985.91	28
2986.75	31
2987.59	30
2988.43	28
2989.27	32
2990.1	26
2990.94	26
2991.78	28
2992.62	30
2993.46	28
2994.3	26
2995.13	29
2995.97	22
2996.81	25
2997.64	25
2998.48	29
2999.32	23
