#Acq. time (s)=	3
#Accumulations=	3
#Range (cm-¹)=	100...3000
#Windows=	3
#Autofocus=	Off
#AutoExposure=	Off
#Spike filter=	Multiple accum.
#Delay time (s)=	0
#Binning=	1
#Readout mode=	Signal
#DeNoise=	Off
#ICS correction=	Off
#Dark correction=	Off
#Inst. Process=	Off
#Instrument=	LabRAM HR Evol
#Detector=	Syncerity OE
#Objective=	x100_VIS_LWD
#Grating=	600 (500nm)
#ND Filter=	25%
#Laser=	633nm_Edge
#Hole=	100.021
#Range=	Visible
#Project=	Bolus
#Sample=	B4
#Site=	stripside
#Title=	m16
#Remark=	
#Date=	03.11.2025 20:04
#Acquired=	03.11.2025 20:04:41
100.969	28
102.252	34
103.535	34
104.818	32
106.101	30
107.384	31
108.666	33
109.948	31
111.232	38
112.514	32
113.795	32
115.077	30
116.358	31
117.639	39
118.919	35
120.2	33
121.48	34
122.76	32
124.04	34
125.32	32
126.599	29
127.879	38
129.158	33
130.436	34
131.715	36
132.992	34
134.27	41
135.548	32
136.826	32
138.104	38
139.381	43
140.658	37
141.935	36
143.212	36
144.489	38
145.763	44
147.04	37
148.315	38
149.591	36
150.867	37
152.142	40
153.416	44
154.691	42
155.965	41
157.24	38
158.514	44
159.786	41
161.06	46
162.334	39
163.607	47
164.881	41
166.152	40
167.425	38
168.698	40
169.969	44
171.241	39
172.513	36
173.785	40
175.055	38
176.326	37
177.597	41
178.867	40
180.137	39
181.408	39
182.677	41
183.947	45
185.217	40
186.485	43
187.755	36
189.022	39
190.291	40
191.56	40
192.828	42
194.096	43
195.363	43
196.631	39
197.899	38
199.165	40
200.432	36
201.698	30
202.965	38
204.23	42
205.497	42
206.762	40
208.028	42
209.293	42
210.559	38
211.823	38
213.088	26
214.352	34
215.617	34
216.88	33
218.145	36
219.408	40
220.672	34
221.934	35
223.196	34
224.46	34
225.722	31
226.985	30
228.246	34
229.508	37
230.77	30
232.031	36
233.292	33
234.554	24
235.814	28
237.074	33
238.335	32
239.595	34
240.854	30
242.115	31
243.374	35
244.633	30
245.893	31
247.151	34
248.409	30
249.667	35
250.927	34
252.184	26
253.442	33
254.699	33
255.957	34
257.214	34
258.47	32
259.727	28
260.983	35
262.24	33
263.496	34
264.752	30
266.007	29
267.262	34
268.517	35
269.773	32
271.028	32
272.282	30
273.536	34
274.79	29
276.044	32
277.297	27
278.551	33
279.804	32
281.057	33
282.31	31
283.564	30
284.816	38
286.068	31
287.32	32
288.572	34
289.823	22
291.074	31
292.325	34
293.576	35
294.827	30
296.077	29
297.328	28
298.578	29
299.828	31
301.077	32
302.325	33
303.575	36
304.824	30
306.073	32
307.321	32
308.57	30
309.818	34
311.066	30
312.314	34
313.562	34
314.808	34
316.055	33
317.302	30
318.549	30
319.796	29
321.042	33
322.288	34
323.533	34
324.779	33
326.024	35
327.27	32
328.515	32
329.759	35
331.004	30
332.248	33
333.493	30
334.736	30
335.98	24
337.223	34
338.466	35
339.709	32
340.952	34
342.195	30
343.437	32
344.68	30
345.922	35
347.163	33
348.405	30
349.647	27
350.887	29
352.128	32
353.37	32
354.609	36
355.85	39
357.089	28
358.33	32
359.57	34
360.809	28
362.049	33
363.287	34
364.526	27
365.764	33
367.003	28
368.241	33
369.479	26
370.718	34
371.955	30
373.193	34
374.429	28
375.667	30
376.903	28
378.139	30
379.376	28
380.611	31
381.848	33
383.083	30
384.319	34
385.554	28
386.79	28
388.024	28
389.258	37
390.493	33
391.727	32
392.962	32
394.195	30
395.428	36
396.663	33
397.895	28
399.128	34
400.361	30
401.593	35
402.825	35
404.058	34
405.29	30
406.521	29
407.752	29
408.985	32
410.215	27
411.446	25
412.678	30
413.908	32
415.138	33
416.367	28
417.597	35
418.828	33
420.057	36
421.286	32
422.514	31
423.743	32
424.973	33
426.201	31
427.429	24
428.657	32
429.884	33
431.112	32
432.34	32
433.567	32
434.794	31
436.02	36
437.247	33
438.473	28
439.699	38
440.925	29
442.15	30
443.376	33
444.601	28
445.826	24
447.051	30
448.275	32
449.5	34
450.724	28
451.948	33
453.172	36
454.396	35
455.619	37
456.842	33
458.065	30
459.288	36
460.511	32
461.733	34
462.956	33
464.178	36
465.4	38
466.621	38
467.843	31
469.064	33
470.285	38
471.505	42
472.726	35
473.946	37
475.166	36
476.387	39
477.606	46
478.825	46
480.044	46
481.264	44
482.483	52
483.702	48
484.921	56
486.138	53
487.356	62
488.574	62
489.792	50
491.009	60
492.226	60
493.444	60
494.661	52
495.877	56
497.094	52
498.31	46
499.525	56
500.741	43
501.958	48
503.172	44
504.388	46
505.603	36
506.817	44
508.032	43
509.247	35
510.46	40
511.675	41
512.888	38
514.102	36
515.316	41
516.528	35
517.742	37
518.954	38
520.167	30
521.378	32
522.591	30
523.802	34
525.015	42
526.226	37
527.438	35
528.648	31
529.86	32
531.07	35
532.281	35
533.491	33
534.702	27
535.911	33
537.121	32
538.33	36
539.54	30
540.749	30
541.957	31
543.167	31
544.375	32
545.584	31
546.791	28
547.999	35
549.207	33
550.414	38
551.621	31
552.829	34
554.035	35
555.241	30
556.449	32
557.655	33
558.86	30
560.066	32
561.272	27
562.477	34
563.682	32
564.888	35
566.093	30
567.297	39
568.501	35
569.705	34
570.91	30
572.114	33
573.317	35
574.52	32
575.723	37
576.927	32
578.13	38
579.332	34
580.535	30
581.737	32
582.938	32
584.14	32
585.343	30
586.544	32
587.745	31
588.946	35
590.147	26
591.347	26
592.548	31
593.748	27
594.948	32
596.147	31
597.347	36
598.546	30
599.745	34
600.944	32
602.143	32
603.342	34
604.54	31
605.738	34
606.937	31
608.134	34
609.332	30
610.529	33
611.727	30
612.924	32
614.121	32
615.317	34
616.513	33
617.709	30
618.905	31
620.101	31
621.297	36
622.492	32
623.688	39
624.883	33
626.077	36
627.271	30
628.466	37
629.66	33
630.855	32
632.047	32
633.241	35
634.435	32
635.629	32
636.82	32
638.014	34
639.207	30
640.399	30
641.59	33
642.783	33
643.975	30
645.166	39
646.357	31
647.549	28
648.741	34
649.93	28
651.122	28
652.311	32
653.502	35
654.692	28
655.881	33
657.071	37
658.261	30
659.45	34
660.639	31
661.827	32
663.016	35
664.204	38
665.393	32
666.581	35
667.769	36
668.957	34
670.143	39
671.331	38
672.518	32
673.705	33
674.891	33
676.078	37
677.264	34
678.451	35
679.636	37
680.821	34
682.007	40
683.192	38
684.378	34
685.562	36
686.747	42
687.931	36
689.115	38
690.3	36
691.483	35
692.666	38
693.851	40
695.034	40
696.216	36
697.4	38
698.582	41
699.764	37
700.948	44
702.129	43
703.311	43
704.493	44
705.674	46
706.855	47
708.036	50
709.218	44
710.399	52
711.579	48
712.759	42
713.939	52
715.12	40
716.299	42
717.478	36
718.657	36
719.836	28
721.015	38
722.195	32
723.373	34
724.552	35
725.729	30
726.907	36
728.085	26
729.262	32
730.44	35
731.617	32
732.795	37
733.972	30
735.148	32
736.324	35
737.501	30
738.677	33
739.852	30
741.028	30
742.203	29
743.379	35
744.554	32
745.729	31
746.903	33
748.078	38
749.252	30
750.426	34
751.599	33
752.772	30
753.946	33
755.119	35
756.293	34
757.466	29
758.639	30
759.811	34
760.984	37
762.155	30
763.327	32
764.499	34
765.67	37
766.842	31
768.013	32
769.183	26
770.354	30
771.525	32
772.696	34
773.865	32
775.035	35
776.205	32
777.375	33
778.544	30
779.713	36
780.882	33
782.052	35
783.219	32
784.388	36
785.557	36
786.724	33
787.892	34
789.06	34
790.227	30
791.395	39
792.562	36
793.728	33
794.895	32
796.061	30
797.228	35
798.395	35
799.56	37
800.726	35
801.891	35
803.057	33
804.221	34
805.387	40
806.551	40
807.716	32
808.879	31
810.044	36
811.208	34
812.372	32
813.535	32
814.699	26
815.862	35
817.025	31
818.188	28
819.351	33
820.513	34
821.675	26
822.837	30
823.999	34
825.161	30
826.322	29
827.483	34
828.645	32
829.805	35
830.966	35
832.127	32
833.287	33
834.447	27
835.607	34
836.767	34
837.926	35
839.085	32
840.245	34
841.404	28
842.562	31
843.72	29
844.88	30
846.038	32
847.195	36
848.353	32
849.512	31
850.669	36
851.826	20
852.983	33
854.139	26
855.296	37
856.453	30
857.609	38
858.765	30
859.921	33
861.077	33
862.232	33
863.387	40
864.542	33
865.697	32
866.852	35
868.008	31
869.162	29
870.316	29
871.47	28
872.624	30
873.778	30
874.931	29
876.084	36
877.237	34
878.39	33
879.543	32
880.695	35
881.846	35
882.999	36
884.151	35
885.302	33
886.454	31
887.606	35
888.757	31
889.908	24
891.059	35
892.21	34
893.359	31
894.509	30
895.659	31
896.81	31
897.959	30
899.109	32
900.257	29
901.407	31
902.556	35
903.705	32
904.854	29
906.001	28
907.149	35
908.298	24
909.446	32
910.592	26
911.74	31
912.888	36
914.034	24
915.181	27
916.328	30
917.473	29
918.62	33
919.766	26
920.911	32
922.058	22
923.204	36
924.348	35
925.494	36
926.638	29
927.783	24
928.928	34
930.072	29
931.216	29
932.36	36
933.504	32
934.647	24
935.791	31
936.933	32
938.077	28
939.219	32
940.363	33
941.504	32
942.647	30
943.789	30
944.932	32
946.073	31
947.215	24
948.356	31
949.498	31
950.638	34
951.778	28
952.92	31
954.06	31
955.199	28
956.34	24
957.479	30
958.62	32
959.759	33
960.898	31
962.038	33
963.176	32
964.315	28
965.453	31
966.592	29
967.73	34
968.867	34
970.006	28
971.144	28
972.281	28
973.418	30
974.554	27
975.692	34
976.829	30
977.965	31
979.101	30
980.237	34
981.374	34
982.509	36
983.645	24
984.78	24
985.915	33
987.05	34
988.184	27
989.319	32
990.453	27
991.589	28
992.722	34
993.856	28
994.99	31
996.123	28
997.257	25
998.39	28
999.523	30
1000.66	28
1001.79	29
1002.92	29
1004.05	28
1005.18	34
1006.32	28
1007.45	33
1008.58	35
1009.71	31
1010.84	29
1011.97	29
1013.1	29
1014.23	29
1015.36	31
1016.49	34
1017.62	25
1018.75	32
1019.88	30
1021.01	34
1022.14	26
1023.27	33
1024.4	29
1025.53	26
1026.66	27
1027.79	30
1028.91	27
1030.04	32
1031.17	28
1032.3	32
1033.42	30
1034.55	34
1035.68	29
1036.81	27
1037.93	34
1039.06	33
1040.18	30
1041.31	30
1042.44	30
1043.56	32
1044.69	29
1045.81	34
1046.94	28
1048.06	33
1049.19	26
1050.31	29
1051.44	32
1052.56	26
1053.69	32
1054.81	29
1055.93	31
1057.06	28
1058.18	32
1059.3	33
1060.43	32
1061.55	32
1062.67	30
1063.79	30
1064.92	29
1066.04	34
1067.16	30
1068.28	33
1069.4	31
1070.52	31
1071.65	29
1072.77	33
1073.89	26
1075.01	24
1076.13	27
1077.25	30
1078.37	28
1079.49	26
1080.61	26
1081.73	31
1082.85	28
1083.97	26
1085.09	30
1086.2	32
1087.32	30
1088.44	35
1089.56	32
1090.68	30
1091.8	28
1092.91	30
1094.03	28
1095.15	28
1096.26	30
1097.38	34
1098.5	29
1099.61	34
1100.73	30
1101.85	32
1102.96	30
1104.08	26
1105.19	32
1106.31	30
1107.43	30
1108.54	24
1109.66	30
1110.77	30
1111.88	31
1113	33
1114.11	32
1115.23	29
1116.34	32
1117.46	33
1118.57	30
1119.68	30
1120.8	31
1121.91	28
1123.02	35
1124.13	32
1125.25	28
1126.36	28
1127.47	31
1128.58	22
1129.69	25
1130.8	26
1131.92	26
1133.03	26
1134.14	28
1135.25	24
1136.36	22
1137.47	26
1138.58	28
1139.69	30
1140.8	27
1141.91	28
1143.02	24
1144.13	25
1145.24	28
1146.35	31
1147.46	31
1148.56	28
1149.67	28
1150.78	29
1151.89	33
1153	27
1154.1	28
1155.21	28
1156.32	29
1157.43	31
1158.53	27
1159.64	28
1160.75	25
1161.85	30
1162.96	31
1164.07	30
1165.17	28
1166.28	30
1167.38	30
1168.49	32
1169.59	32
1170.7	32
1171.8	27
1172.91	31
1174.01	26
1175.12	28
1176.22	28
1177.32	30
1178.43	29
1179.53	28
1180.64	29
1181.74	27
1182.84	28
1183.94	29
1185.05	28
1186.15	34
1187.25	33
1188.35	29
1189.46	28
1190.56	28
1191.66	18
1192.76	30
1193.86	26
1194.96	26
1196.06	24.0294
1197.16	24.0467
1198.26	30.8667
1199.37	25.9619
1200.47	32.7
1201.57	23.3872
1202.67	23.5735
1203.77	29.1418
1204.86	28.2552
1205.96	31.8036
1207.06	28.9508
1208.16	27.9961
1209.26	30.4471
1210.36	25.8656
1211.46	32.0066
1212.56	22.8361
1213.65	26.2415
1214.75	28
1215.85	32.7362
1216.95	27.6176
1218.04	30.281
1219.14	32.1569
1220.24	30.047
1221.33	28.5889
1222.43	29.9126
1223.53	32.0494
1224.62	22.751
1225.72	28.9216
1226.82	29.2577
1227.91	31.4962
1229.01	27.8874
1230.1	29.8949
1231.2	25.0091
1232.29	26.135
1233.39	26.4757
1234.48	29.1641
1235.58	28.2103
1236.67	28.3819
1237.77	29.0753
1238.86	28.7943
1239.95	28.1115
1241.05	27.284
1242.14	27.2058
1243.23	30.0227
1244.33	28.3124
1245.42	27.7843
1246.51	27.8235
1247.61	29.1992
1248.7	25.6852
1249.79	24.75
1250.88	27.4993
1251.97	26.1493
1253.07	27.5517
1254.16	29.6032
1255.25	31.3284
1256.34	28.5441
1257.43	27.276
1258.52	30.7352
1259.61	30.7008
1260.7	31.5006
1261.79	31.5588
1262.88	32.8735
1263.97	31.0042
1265.06	31.3705
1266.15	30.4445
1267.24	28.0879
1268.33	29.0174
1269.42	26.6935
1270.51	27.9706
1271.6	26.9599
1272.68	27.2022
1273.77	25.5687
1274.86	26.2892
1275.95	26.4956
1277.04	24.5468
1278.12	29.3461
1279.21	29.1979
1280.3	26.6809
1281.39	25.9559
1282.47	28.7293
1283.56	23.9098
1284.65	24.1725
1285.73	26.3304
1286.82	28.0473
1287.91	30.9098
1288.99	29.3235
1290.08	27.8949
1291.16	24.7108
1292.25	25.4037
1293.33	30
1294.42	29.3021
1295.5	26.2059
1296.59	26.2044
1297.67	27.0094
1298.76	25.3216
1299.84	30.9633
1300.92	29.6443
1302.01	27.7638
1303.09	25.7247
1304.17	31.0647
1305.26	22.4499
1306.34	24.9373
1307.34	24
1308.43	32
1309.52	28
1310.61	28
1311.7	29
1312.78	26
1313.87	29
1314.96	27
1316.04	34
1317.13	28
1318.22	27
1319.3	33
1320.39	27
1321.48	26
1322.56	24
1323.65	24
1324.73	29
1325.82	30
1326.9	32
1327.99	29
1329.07	28
1330.16	26
1331.24	26
1332.33	28
1333.41	30
1334.5	31
1335.58	33
1336.66	26
1337.75	26
1338.83	28
1339.91	31
1341	32
1342.08	26
1343.16	30
1344.24	33
1345.33	30
1346.41	29
1347.49	24
1348.57	26
1349.65	27
1350.74	26
1351.82	28
1352.9	27
1353.98	28
1355.06	34
1356.14	29
1357.22	28
1358.3	25
1359.38	26
1360.46	24
1361.54	28
1362.62	25
1363.7	29
1364.78	26
1365.86	30
1366.94	29
1368.02	27
1369.09	31
1370.17	28
1371.25	29
1372.33	26
1373.41	30
1374.48	30
1375.56	26
1376.64	33
1377.72	26
1378.79	30
1379.87	25
1380.95	31
1382.02	28
1383.1	30
1384.17	31
1385.25	31
1386.33	29
1387.4	30
1388.48	28
1389.55	30
1390.63	28
1391.7	32
1392.78	29
1393.85	32
1394.93	32
1396	28
1397.07	35
1398.15	26
1399.22	32
1400.3	27
1401.37	32
1402.44	29
1403.52	35
1404.59	30
1405.66	32
1406.73	34
1407.81	36
1408.88	36
1409.95	35
1411.02	37
1412.09	37
1413.17	34
1414.24	32
1415.31	34
1416.38	37
1417.45	34
1418.52	32
1419.59	30
1420.66	29
1421.73	34
1422.8	35
1423.87	32
1424.94	24
1426.01	26
1427.08	28
1428.15	30
1429.22	30
1430.29	29
1431.35	26
1432.42	27
1433.49	26
1434.56	35
1435.63	24
1436.69	30
1437.76	32
1438.83	32
1439.9	32
1440.96	28
1442.03	26
1443.1	31
1444.17	28
1445.23	28
1446.3	29
1447.36	32
1448.43	29
1449.49	29
1450.56	28
1451.63	29
1452.69	25
1453.76	27
1454.82	24
1455.89	28
1456.95	28
1458.01	26
1459.08	20
1460.14	29
1461.21	26
1462.27	27
1463.34	35
1464.4	29
1465.46	26
1466.52	24
1467.59	28
1468.65	33
1469.71	30
1470.77	31
1471.84	26
1472.9	28
1473.96	30
1475.02	26
1476.08	29
1477.15	28
1478.21	30
1479.27	26
1480.33	29
1481.39	28
1482.45	30
1483.51	29
1484.57	22
1485.63	30
1486.69	26
1487.75	16
1488.81	30
1489.87	28
1490.93	31
1491.99	29
1493.05	31
1494.1	34
1495.16	31
1496.22	32
1497.28	30
1498.34	30
1499.4	29
1500.45	25
1501.51	31
1502.57	30
1503.63	30
1504.68	28
1505.74	37
1506.8	26
1507.85	29
1508.91	26
1509.97	27
1511.02	28
1512.08	24
1513.13	31
1514.19	33
1515.24	28
1516.3	33
1517.35	29
1518.41	27
1519.46	30
1520.52	26
1521.57	30
1522.63	23
1523.68	30
1524.73	32
1525.79	32
1526.84	27
1527.9	30
1528.95	27
1530	29
1531.05	24
1532.11	26
1533.16	30
1534.21	32
1535.26	32
1536.32	32
1537.37	31
1538.42	30
1539.47	26
1540.52	29
1541.57	26
1542.63	32
1543.68	22
1544.73	28
1545.78	28
1546.83	30
1547.88	29
1548.93	28
1549.98	28
1551.03	26
1552.08	27
1553.13	29
1554.18	31
1555.23	28
1556.27	29
1557.32	30
1558.37	35
1559.42	30
1560.47	34
1561.52	32
1562.56	22
1563.61	33
1564.66	29
1565.71	24
1566.75	29
1567.8	29
1568.85	28
1569.9	28
1570.94	33
1571.99	32
1573.03	30
1574.08	28
1575.13	30
1576.17	27
1577.22	28
1578.26	30
1579.31	28
1580.35	32
1581.4	27
1582.44	26
1583.49	30
1584.53	32
1585.58	27
1586.62	28
1587.66	24
1588.71	30
1589.75	32
1590.8	32
1591.84	35
1592.88	28
1593.92	28
1594.97	28
1596.01	29
1597.05	30
1598.1	30
1599.14	33
1600.18	25
1601.22	33
1602.26	25
1603.3	28
1604.35	24
1605.39	29
1606.43	28
1607.47	32
1608.51	30
1609.55	26
1610.59	31
1611.63	28
1612.67	30
1613.71	26
1614.75	32
1615.79	31
1616.83	29
1617.87	28
1618.91	33
1619.95	29
1620.99	29
1622.02	24
1623.06	28
1624.1	29
1625.14	27
1626.18	29
1627.21	28
1628.25	26
1629.29	29
1630.33	26
1631.36	29
1632.4	22
1633.44	28
1634.48	31
1635.51	33
1636.55	29
1637.58	24
1638.62	28
1639.66	33
1640.69	31
1641.73	28
1642.76	30
1643.8	29
1644.83	24
1645.87	32
1646.9	28
1647.94	32
1648.97	28
1650	23
1651.04	28
1652.07	28
1653.11	26
1654.14	34
1655.17	28
1656.21	28
1657.24	26
1658.27	30
1659.31	28
1660.34	30
1661.37	30
1662.4	32
1663.43	24
1664.47	30
1665.5	28
1666.53	30
1667.56	30
1668.59	22
1669.62	31
1670.66	31
1671.69	30
1672.72	29
1673.75	29
1674.78	32
1675.81	29
1676.84	33
1677.87	32
1678.9	24
1679.93	32
1680.96	28
1681.98	28
1683.01	30
1684.04	29
1685.07	28
1686.1	31
1687.13	27
1688.16	32
1689.18	24
1690.21	28
1691.24	31
1692.27	26
1693.3	27
1694.32	32
1695.35	25
1696.38	30
1697.4	30
1698.43	30
1699.46	28
1700.48	28
1701.51	32
1702.54	28
1703.56	32
1704.59	29
1705.61	28
1706.64	30
1707.66	28
1708.69	26
1709.71	29
1710.74	30
1711.76	27
1712.79	28
1713.81	25
1714.83	29
1715.86	28
1716.88	31
1717.91	25
1718.93	30
1719.95	28
1720.98	24
1722	26
1723.02	28
1724.04	31
1725.07	28
1726.09	26
1727.11	28
1728.13	28
1729.15	26
1730.18	31
1731.2	30
1732.22	30
1733.24	26
1734.26	31
1735.28	29
1736.3	28
1737.32	26
1738.34	33
1739.36	29
1740.38	26
1741.4	29
1742.42	34
1743.44	32
1744.46	30
1745.48	26
1746.5	26
1747.52	28
1748.54	36
1749.56	29
1750.58	26
1751.6	24
1752.61	24
1753.63	30
1754.65	34
1755.67	28
1756.68	30
1757.7	30
1758.72	30
1759.74	28
1760.75	27
1761.77	30
1762.79	28
1763.8	30
1764.82	24
1765.83	28
1766.85	30
1767.87	31
1768.88	30
1769.9	26
1770.91	31
1771.93	29
1772.94	26
1773.96	26
1774.97	30
1775.99	29
1777	28
1778.02	28
1779.03	27
1780.04	29
1781.06	26
1782.07	32
1783.09	30
1784.1	30
1785.11	29
1786.13	26
1787.14	26
1788.15	24
1789.16	30
1790.18	24
1791.19	28
1792.2	24
1793.21	24
1794.22	26
1795.23	29
1796.25	26
1797.26	26
1798.27	28
1799.28	22
1800.29	28
1801.3	28
1802.31	29
1803.32	31
1804.33	28
1805.34	24
1806.35	28
1807.36	31
1808.37	26
1809.38	26
1810.39	32
1811.4	27
1812.41	30
1813.42	33
1814.42	28
1815.43	27
1816.44	28
1817.45	28
1818.46	28
1819.47	29
1820.47	31
1821.48	24
1822.49	28
1823.49	24
1824.5	26
1825.51	28
1826.52	30
1827.52	29
1828.53	28
1829.53	26
1830.54	24
1831.55	30
1832.55	29
1833.56	29
1834.56	26
1835.57	29
1836.57	30
1837.58	27
1838.58	28
1839.59	35
1840.59	28
1841.6	30
1842.6	28
1843.61	31
1844.61	24
1845.61	32
1846.62	30
1847.62	25
1848.62	27
1849.63	30
1850.63	26
1851.63	26
1852.64	32
1853.64	31
1854.64	29
1855.64	34
1856.64	29
1857.65	30
1858.65	27
1859.65	24
1860.65	34
1861.65	26
1862.65	28
1863.65	30
1864.66	28
1865.66	26
1866.66	33
1867.66	32
1868.66	29
1869.66	30
1870.66	22
1871.66	24
1872.66	30
1873.66	28
1874.66	26
1875.65	28
1876.65	26
1877.65	26
1878.65	26
1879.65	24
1880.65	30
1881.65	25
1882.64	31
1883.64	26
1884.64	29
1885.64	25
1886.63	25
1887.63	24
1888.63	26
1889.63	28
1890.62	29
1891.62	33
1892.62	31
1893.61	27
1894.61	32
1895.6	26
1896.6	26
1897.6	32
1898.59	27
1899.59	32
1900.58	25
1901.58	29
1902.57	33
1903.57	29
1904.56	22
1905.56	28
1906.55	31
1907.54	28
1908.54	26
1909.53	24
1910.53	31
1911.52	33
1912.51	28
1913.51	26
1914.5	26
1915.49	31
1916.49	28
1917.48	30
1918.47	26
1919.46	25
1920.46	24
1921.45	27
1922.44	26
1923.43	27
1924.42	26
1925.41	27
1926.41	33
1927.4	27
1928.39	26
1929.38	30
1930.37	30
1931.36	31
1932.35	31
1933.34	29
1934.33	26
1935.32	26
1936.31	28
1937.3	29
1938.29	25
1939.28	30
1940.27	33
1941.26	32
1942.24	32
1943.23	30
1944.22	27
1945.21	24
1946.2	24
1947.19	32
1948.17	28
1949.16	28
1950.15	29
1951.14	30
1952.12	30
1953.11	29
1954.1	24
1955.09	24
1956.07	27
1957.06	28
1958.05	28
1959.03	26
1960.02	31
1961	27
1961.99	34
1962.98	30
1963.96	24
1964.95	27
1965.93	29
1966.92	28
1967.9	29
1968.89	25
1969.87	29
1970.85	32
1971.84	29
1972.82	24
1973.81	24
1974.79	29
1975.78	27
1976.76	24
1977.74	26
1978.73	30
1979.71	26
1980.69	30
1981.67	26
1982.66	27
1983.64	28
1984.62	28
1985.6	27
1986.59	29
1987.57	24
1988.55	25
1989.53	28
1990.51	25
1991.49	28
1992.47	22
1993.45	24
1994.44	26
1995.42	28
1996.4	25
1997.38	32
1998.36	25
1999.34	31
2000.32	22
2001.3	31
2002.28	25
2003.26	26
2004.24	27
2005.22	26
2006.19	30
2007.17	26
2008.15	28
2009.13	28
2010.11	23
2011.09	32
2012.06	26
2013.04	29
2014.02	26
2015	26
2015.98	29
2016.95	27
2017.93	28
2018.91	33
2019.88	29
2020.86	25
2021.84	28
2022.81	28
2023.79	34
2024.77	29
2025.74	26
2026.72	28
2027.69	24
2028.67	24
2029.65	26
2030.62	29
2031.6	29
2032.57	28
2033.55	28
2034.52	30
2035.5	28
2036.47	32
2037.44	26
2038.42	30
2039.39	26
2040.36	27
2041.34	29
2042.31	26
2043.29	32
2044.26	26
2045.23	26
2046.2	28
2047.18	26
2048.15	23
2049.12	25
2050.09	26
2051.07	28
2052.04	26
2053.01	30
2053.98	26
2054.95	24
2055.93	29
2056.9	26
2057.87	27
2058.84	26
2059.81	29
2060.78	22
2061.75	22
2062.72	22
2063.69	30
2064.66	22
2065.63	24
2066.6	26
2067.57	28
2068.54	26
2069.51	26
2070.48	27
2071.45	29
2072.42	25
2073.38	28
2074.35	24
2075.32	28
2076.29	28
2077.26	27
2078.23	29
2079.19	26
2080.16	30
2081.13	24
2082.1	26
2083.06	24
2084.03	29
2085	24
2085.96	22
2086.93	29
2087.9	28
2088.86	27
2089.83	30
2090.8	30
2091.76	29
2092.73	24
2093.69	25
2094.66	20
2095.62	25
2096.59	26
2097.55	29
2098.52	22
2099.48	27
2100.45	30
2101.41	28
2102.38	24
2103.34	27
2104.31	26
2105.27	29
2106.23	26
2107.2	24
2108.16	30
2109.12	26
2110.09	27
2111.05	28
2112.01	27
2112.98	32
2113.94	23
2114.9	28
2115.86	26
2116.82	25
2117.79	26
2118.75	29
2119.71	28
2120.67	31
2121.63	26
2122.59	26
2123.55	27
2124.52	26
2125.48	25
2126.44	23
2127.4	28
2128.36	18
2129.32	25
2130.28	26
2131.24	22
2132.2	24
2133.16	26
2134.12	24
2135.08	26
2136.04	26
2136.99	34
2137.95	26
2138.91	24
2139.87	24
2140.83	24
2141.79	26
2142.75	23
2143.7	24
2144.66	30
2145.62	28.9676
2146.58	22.0588
2147.53	26.0125
2148.49	27.1576
2149.45	28.905
2150.41	27.8497
2151.36	25.1743
2152.32	22.1781
2153.27	26.3796
2154.23	26.6129
2155.19	23.6262
2156.14	27.972
2157.1	27.2961
2158.06	28.9959
2159.01	26.2658
2159.97	20.472
2160.92	24.6421
2161.88	27.6532
2162.83	27.2756
2163.79	26.6176
2164.74	24.7989
2165.7	26.7772
2166.65	21.2331
2167.61	23.765
2168.56	25.3365
2169.51	25.9556
2170.47	27.7313
2171.42	28.4608
2172.38	25.4789
2173.33	26.4072
2174.28	27.6567
2175.24	26.2157
2176.19	23.4664
2177.14	26.8853
2178.09	24.979
2179.05	28.0276
2180	23.4647
2180.95	23.3367
2181.9	25.94
2182.86	22.0779
2183.81	28.4596
2184.76	24.2687
2185.71	26.5483
2186.66	26.5955
2187.61	24.2361
2188.57	28.1627
2189.52	27.2431
2190.47	23
2191.42	23.1188
2192.37	28.5883
2193.32	27.1645
2194.27	25.0098
2195.22	25.9435
2196.17	26.4016
2197.12	26.327
2198.07	25.7206
2199.02	25.744
2199.97	26.8551
2200.92	25.4265
2201.87	23.7014
2202.82	27.0362
2203.76	27.7941
2204.71	24.2198
2205.66	20.2785
2206.61	26.604
2207.56	27.9231
2208.51	26.3546
2209.45	25.5004
2210.4	28.0187
2211.35	29.1734
2212.3	25.5133
2213.24	22.5374
2214.19	26.0576
2215.14	26.7578
2216.09	25.3954
2217.03	24.9229
2217.98	24.0976
2218.93	24.3558
2219.87	25.305
2220.82	24.8196
2221.77	24.3874
2222.71	24.402
2223.66	24.3573
2224.6	26.4724
2225.55	27.6186
2226.49	27.9486
2227.44	27.3783
2228.38	26.5969
2229.33	28.5385
2230.27	27.1289
2231.22	25
2232.16	25.6688
2233.11	25.6275
2234.05	24.5276
2235	26.1335
2235.94	27.6814
2236.88	25.3835
2237.83	25.6324
2238.77	25.3455
2239.71	21.6514
2240.66	21.8751
2241.6	24.759
2242	26
2242.95	32
2243.9	20
2244.84	28
2245.79	24
2246.74	31
2247.69	26
2248.63	26
2249.58	28
2250.53	24
2251.47	29
2252.42	28
2253.37	27
2254.31	28
2255.26	24
2256.2	25
2257.15	31
2258.1	24
2259.04	26
2259.99	29
2260.93	28
2261.88	25
2262.82	27
2263.77	30
2264.71	24
2265.65	28
2266.6	24
2267.54	30
2268.49	28
2269.43	28
2270.38	29
2271.32	30
2272.26	22
2273.21	30
2274.15	33
2275.09	30
2276.04	27
2276.98	20
2277.92	20
2278.86	22
2279.81	25
2280.75	24
2281.69	28
2282.63	32
2283.57	26
2284.52	26
2285.46	24
2286.4	28
2287.34	30
2288.28	26
2289.22	31
2290.16	29
2291.1	24
2292.04	27
2292.98	24
2293.93	26
2294.86	26
2295.8	30
2296.74	26
2297.69	26
2298.62	28
2299.56	20
2300.5	24
2301.44	23
2302.38	28
2303.32	20
2304.26	26
2305.2	31
2306.14	28
2307.07	28
2308.01	28
2308.95	26
2309.89	26
2310.83	29
2311.76	18
2312.7	28
2313.64	24
2314.58	26
2315.51	22
2316.45	22
2317.39	23
2318.32	24
2319.26	26
2320.2	32
2321.13	29
2322.07	29
2323	24
2323.94	25
2324.88	23
2325.81	25
2326.75	25
2327.68	24
2328.62	26
2329.55	22
2330.49	23
2331.42	26
2332.36	22
2333.29	26
2334.22	28
2335.16	22
2336.09	24
2337.03	28
2337.96	28
2338.89	28
2339.83	28
2340.76	24
2341.69	28
2342.63	25
2343.56	26
2344.49	29
2345.43	20
2346.36	28
2347.29	28
2348.22	28
2349.15	30
2350.09	26
2351.02	26
2351.95	28
2352.88	27
2353.81	26
2354.74	29
2355.67	25
2356.61	24
2357.54	26
2358.47	27
2359.4	27
2360.33	26
2361.26	25
2362.19	30
2363.12	30
2364.05	24
2364.98	26
2365.91	23
2366.84	30
2367.77	26
2368.7	25
2369.62	26
2370.55	26
2371.48	28
2372.41	26
2373.34	24
2374.27	20
2375.2	27
2376.12	31
2377.05	28
2377.98	29
2378.91	27
2379.83	28
2380.76	28
2381.69	22
2382.62	27
2383.54	29
2384.47	26
2385.4	28
2386.32	30
2387.25	30
2388.18	22
2389.1	27
2390.03	26
2390.95	26
2391.88	20
2392.81	21
2393.73	26
2394.66	35
2395.58	28
2396.51	28
2397.43	28
2398.36	24
2399.28	22
2400.2	26
2401.13	30
2402.05	27
2402.98	30
2403.9	26
2404.83	26
2405.75	28
2406.67	23
2407.6	30
2408.52	30
2409.44	32
2410.37	25
2411.29	24
2412.21	24
2413.13	26
2414.06	23
2414.98	24
2415.9	26
2416.82	25
2417.74	30
2418.67	30
2419.59	33
2420.51	25
2421.43	33
2422.35	27
2423.27	31
2424.19	28
2425.11	28
2426.03	24
2426.96	30
2427.88	26
2428.8	28
2429.72	28
2430.64	32
2431.56	25
2432.48	24
2433.39	29
2434.31	22
2435.23	22
2436.15	29
2437.07	22
2437.99	27
2438.91	28
2439.83	29
2440.75	27
2441.67	28
2442.58	20
2443.5	27
2444.42	27
2445.34	23
2446.26	26
2447.17	30
2448.09	26
2449.01	27
2449.92	26
2450.84	25
2451.76	24
2452.68	24
2453.59	24
2454.51	27
2455.42	27
2456.34	26
2457.26	27
2458.17	25
2459.09	29
2460	26
2460.92	27
2461.83	25
2462.75	22
2463.66	25
2464.58	28
2465.49	31
2466.41	24
2467.32	26
2468.24	30
2469.15	28
2470.07	30
2470.98	26
2471.89	26
2472.81	29
2473.72	24
2474.64	26
2475.55	24
2476.46	28
2477.37	24
2478.29	28
2479.2	28
2480.11	26
2481.03	28
2481.94	34
2482.85	29
2483.76	28
2484.67	28
2485.59	24
2486.5	25
2487.41	25
2488.32	26
2489.23	25
2490.14	24
2491.05	22
2491.97	27
2492.88	29
2493.79	28
2494.7	24
2495.61	32
2496.52	24
2497.43	30
2498.34	28
2499.25	26
2500.16	30
2501.07	28
2501.98	27
2502.89	23
2503.79	27
2504.7	32
2505.61	30
2506.52	28
2507.43	30
2508.34	22
2509.25	28
2510.16	25
2511.06	28
2511.97	26
2512.88	26
2513.79	22
2514.69	29
2515.6	30
2516.51	28
2517.42	30
2518.32	28
2519.23	29
2520.14	24
2521.04	25
2521.95	30
2522.86	25
2523.76	27
2524.67	27
2525.57	27
2526.48	26
2527.39	24
2528.29	30
2529.2	26
2530.1	29
2531.01	28
2531.91	25
2532.82	28
2533.72	30
2534.63	22
2535.53	28
2536.44	24
2537.34	28
2538.24	22
2539.15	27
2540.05	31
2540.96	28
2541.86	29
2542.76	24
2543.67	26
2544.57	29
2545.47	18
2546.37	30
2547.28	24
2548.18	28
2549.08	24
2549.99	27
2550.89	25
2551.79	24
2552.69	29
2553.59	27
2554.49	22
2555.4	28
2556.3	26
2557.2	26
2558.1	26
2559	29
2559.9	34
2560.8	30
2561.7	24
2562.6	24
2563.5	29
2564.4	28
2565.3	26
2566.2	28
2567.1	26
2568	29
2568.9	26
2569.8	26
2570.7	28
2571.6	25
2572.5	26
2573.4	26
2574.3	31
2575.2	27
2576.1	28
2576.99	30
2577.89	30
2578.79	24
2579.69	32
2580.59	26
2581.48	27
2582.38	23
2583.28	26
2584.18	32
2585.07	26
2585.97	27
2586.87	26
2587.76	27
2588.66	26
2589.56	28
2590.45	27
2591.35	28
2592.25	26
2593.14	23
2594.04	28
2594.93	26
2595.83	30
2596.73	29
2597.62	24
2598.52	30
2599.41	25
2600.31	28
2601.2	28
2602.1	23
2602.99	25
2603.88	26
2604.78	24
2605.67	20
2606.57	30
2607.46	26
2608.35	24
2609.25	29
2610.14	30
2611.03	26
2611.93	32
2612.82	26
2613.71	29
2614.61	29
2615.5	22
2616.39	24
2617.29	26
2618.18	24
2619.07	26
2619.96	26
2620.85	33
2621.75	30
2622.64	26
2623.53	28
2624.42	26
2625.31	18
2626.2	29
2627.09	32
2627.98	26
2628.88	33
2629.77	27
2630.66	28
2631.55	28
2632.44	30
2633.33	29
2634.22	32
2635.11	26
2636	31
2636.89	25
2637.78	26
2638.66	24
2639.55	28
2640.44	29
2641.33	22
2642.22	27
2643.11	28
2644	28
2644.89	28
2645.78	32
2646.66	27
2647.55	27
2648.44	28
2649.33	28
2650.21	27
2651.1	30
2651.99	26
2652.88	22
2653.76	27
2654.65	22
2655.54	29
2656.42	24
2657.31	22
2658.2	20
2659.08	26
2659.97	31
2660.86	18
2661.74	26
2662.63	25
2663.51	29
2664.4	29
2665.29	29
2666.17	26
2667.06	32
2667.94	26
2668.83	29
2669.71	24
2670.6	26
2671.48	26
2672.36	30
2673.25	28
2674.13	24
2675.02	29
2675.9	24
2676.78	34
2677.67	24
2678.55	24
2679.43	24
2680.32	29
2681.2	28
2682.08	28
2682.97	26
2683.85	30
2684.73	28
2685.61	27
2686.5	29
2687.38	29
2688.26	21
2689.14	29
2690.03	22
2690.91	32
2691.79	24
2692.67	30
2693.55	23
2694.43	27
2695.31	24
2696.19	32
2697.08	25
2697.96	27
2698.84	29
2699.72	22
2700.6	30
2701.48	30
2702.36	26
2703.24	30
2704.12	25
2705	27
2705.88	27
2706.76	22
2707.64	30
2708.51	28
2709.39	30
2710.27	27
2711.15	30
2712.03	27
2712.91	28
2713.79	30
2714.67	26
2715.54	24
2716.42	27
2717.3	27
2718.18	32
2719.05	28
2719.93	28
2720.81	25
2721.69	30
2722.56	29
2723.44	30
2724.32	28
2725.19	29
2726.07	28
2726.95	27
2727.82	26
2728.7	35
2729.58	30
2730.45	30
2731.33	27
2732.2	20
2733.08	27
2733.95	24
2734.83	28
2735.7	29
2736.58	24
2737.45	28
2738.33	26
2739.2	26
2740.08	20
2740.95	27
2741.83	28
2742.7	24
2743.58	26
2744.45	27
2745.32	24
2746.2	26
2747.07	28
2747.94	26
2748.82	28
2749.69	31
2750.56	32
2751.44	30
2752.31	22
2753.18	27
2754.05	34
2754.93	25
2755.8	28
2756.67	29
2757.54	26
2758.42	24
2759.29	29
2760.16	29
2761.03	33
2761.9	28
2762.77	30
2763.64	28
2764.51	28
2765.38	27
2766.26	28
2767.13	28
2768	29
2768.87	30
2769.74	24
2770.61	24
2771.48	26
2772.35	26
2773.22	29
2774.09	30
2774.96	27
2775.83	24
2776.7	31
2777.56	26
2778.43	26
2779.3	27
2780.17	30
2781.04	30
2781.91	28
2782.78	28
2783.64	20
2784.51	26
2785.38	25
2786.25	26
2787.12	27
2787.98	31
2788.85	26
2789.72	30
2790.59	26
2791.45	30
2792.32	26
2793.19	31
2794.05	29
2794.92	28
2795.79	29
2796.65	32
2797.52	25
2798.38	30
2799.25	29
2800.12	25
2800.98	29
2801.85	28
2802.71	34
2803.58	33
2804.44	32
2805.31	31
2806.17	30
2807.04	28
2807.9	28
2808.77	28
2809.63	28
2810.5	29
2811.36	34
2812.22	28
2813.09	31
2813.95	28
2814.82	28
2815.68	28
2816.54	25
2817.41	30
2818.27	18
2819.13	24
2820	28
2820.86	25
2821.72	33
2822.58	26
2823.45	25
2824.31	25
2825.17	26
2826.03	24
2826.9	30
2827.76	29
2828.62	22
2829.48	31
2830.34	28
2831.2	24
2832.06	32
2832.92	26
2833.79	26
2834.65	24
2835.51	32
2836.37	31
2837.23	24
2838.09	28
2838.95	27
2839.81	32
2840.67	26
2841.53	26
2842.39	25
2843.25	26
2844.11	23
2844.97	32
2845.83	27
2846.68	30
2847.54	32
2848.4	32
2849.26	30
2850.12	28
2850.98	27
2851.84	29
2852.69	26
2853.55	25
2854.41	31
2855.27	29
2856.13	24
2856.98	30
2857.84	31
2858.7	30
2859.56	28
2860.41	28
2861.27	26
2862.13	30
2862.98	28
2863.84	33
2864.7	30
2865.55	30
2866.41	30
2867.27	34
2868.12	26
2868.98	33
2869.83	24
2870.69	38
2871.54	32
2872.4	31
2873.25	32
2874.11	30
2874.96	31
2875.82	33
2876.68	30
2877.53	30
2878.38	30
2879.24	31
2880.09	26
2880.95	34
2881.8	36
2882.65	31
2883.51	32
2884.36	28
2885.22	35
2886.07	39
2886.92	35
2887.77	31
2888.63	34
2889.48	38
2890.33	38
2891.19	37
2892.04	36
2892.89	45
2893.74	36
2894.6	43
2895.45	44
2896.3	43
2897.15	46
2898	44
2898.85	52
2899.71	50
2900.56	53
2901.41	50
2902.26	50
2903.11	63
2903.96	58
2904.81	64
2905.66	62
2906.51	62
2907.36	56
2908.21	54
2909.06	64
2909.91	64
2910.76	58
2911.61	54
2912.46	58
2913.31	54
2914.16	48
2915.01	45
2915.86	47
2916.71	42
2917.56	44
2918.41	38
2919.26	38
2920.1	41
2920.95	32
2921.8	39
2922.65	34
2923.5	30
2924.34	28
2925.19	36
2926.04	37
2926.89	34
2927.74	32
2928.58	36
2929.43	28
2930.28	32
2931.12	20
2931.97	32
2932.82	32
2933.66	30
2934.51	32
2935.36	29
2936.2	32
2937.05	18
2937.89	32
2938.74	30
2939.59	24
2940.43	29
2941.28	25
2942.12	33
2942.97	31
2943.81	26
2944.66	36
2945.5	30
2946.35	31
2947.19	29
2948.04	32
2948.88	31
2949.72	33
2950.57	32
2951.41	35
2952.26	28
2953.1	35
2953.94	30
2954.79	33
2955.63	33
2956.47	26
2957.32	38
2958.16	40
2959	42
2959.85	39
2960.69	39
2961.53	41
2962.37	40
2963.22	46
2964.06	40
2964.9	42
2965.74	44
2966.58	45
2967.42	44
2968.27	42
2969.11	38
2969.95	38
2970.79	42
2971.63	44
2972.47	29
2973.31	33
2974.15	31
2974.99	30
2975.83	36
2976.68	30
2977.52	32
2978.36	28
2979.2	37
2980.04	30
2980.88	33
2981.71	28
2982.55	31
2983.39	26
2984.23	33
2985.07	33
2985.91	34
2986.75	28
2987.59	34
2988.43	29
2989.27	26
2990.1	30
2990.94	26
2991.78	28
2992.62	30
2993.46	31
2994.3	26
2995.13	28
2995.97	22
2996.81	28
2997.64	30
2998.48	31
2999.32	24
