#Acq. time (s)=	3
#Accumulations=	3
#Range (cm-¹)=	100...3000
#Windows=	3
#Autofocus=	Off
#AutoExposure=	Off
#Spike filter=	Multiple accum.
#Delay time (s)=	0
#Binning=	1
#Readout mode=	Signal
#DeNoise=	Off
#ICS correction=	Off
#Dark correction=	Off
#Inst. Process=	Off
#Instrument=	LabRAM HR Evol
#Detector=	Syncerity OE
#Objective=	x100_VIS_LWD
#Grating=	600 (500nm)
#ND Filter=	25%
#Laser=	633nm_Edge
#Hole=	100.021
#Range=	Visible
#Project=	Bolus
#Sample=	B4
#Site=	stripside
#Title=	m11
#Remark=	
#Date=	03.11.2025 19:58
#Acquired=	03.11.2025 19:58:16
100.969	37
102.252	24
103.535	40
104.818	34
106.101	36
107.384	34
108.666	37
109.948	35
111.232	32
112.514	34
113.795	35
115.077	36
116.358	38
117.639	42
118.919	39
120.2	34
121.48	34
122.76	40
124.04	34
125.32	37
126.599	39
127.879	38
129.158	40
130.436	39
131.715	43
132.992	34
134.27	40
135.548	38
136.826	37
138.104	41
139.381	40
140.658	40
141.935	42
143.212	41
144.489	40
145.763	40
147.04	43
148.315	43
149.591	41
150.867	40
152.142	42
153.416	45
154.691	48
155.965	40
157.24	44
158.514	46
159.786	48
161.06	44
162.334	47
163.607	45
164.881	40
166.152	47
167.425	44
168.698	38
169.969	40
171.241	41
172.513	42
173.785	42
175.055	44
176.326	44
177.597	46
178.867	41
180.137	38
181.408	45
182.677	42
183.947	48
185.217	42
186.485	44
187.755	36
189.022	45
190.291	45
191.56	41
192.828	47
194.096	45
195.363	44
196.631	40
197.899	42
199.165	40
200.432	47
201.698	46
202.965	45
204.23	47
205.497	43
206.762	39
208.028	46
209.293	44
210.559	42
211.823	34
213.088	34
214.352	39
215.617	41
216.88	41
218.145	36
219.408	36
220.672	37
221.934	36
223.196	34
224.46	40
225.722	37
226.985	37
228.246	42
229.508	40
230.77	37
232.031	32
233.292	35
234.554	39
235.814	36
237.074	32
238.335	31
239.595	38
240.854	36
242.115	36
243.374	38
244.633	36
245.893	36
247.151	36
248.409	39
249.667	37
250.927	36
252.184	34
253.442	36
254.699	38
255.957	37
257.214	42
258.47	39
259.727	38
260.983	37
262.24	30
263.496	38
264.752	34
266.007	34
267.262	38
268.517	35
269.773	32
271.028	40
272.282	32
273.536	38
274.79	35
276.044	38
277.297	34
278.551	32
279.804	40
281.057	33
282.31	32
283.564	28
284.816	37
286.068	36
287.32	37
288.572	39
289.823	32
291.074	37
292.325	36
293.576	38
294.827	32
296.077	35
297.328	32
298.578	38
299.828	41
301.077	36
302.325	34
303.575	40
304.824	35
306.073	34
307.321	31
308.57	34
309.818	34
311.066	37
312.314	42
313.562	39
314.808	36
316.055	37
317.302	34
318.549	36
319.796	38
321.042	31
322.288	32
323.533	40
324.779	37
326.024	32
327.27	38
328.515	30
329.759	39
331.004	37
332.248	30
333.493	35
334.736	36
335.98	45
337.223	40
338.466	33
339.709	35
340.952	36
342.195	35
343.437	32
344.68	38
345.922	36
347.163	37
348.405	35
349.647	38
350.887	33
352.128	33
353.37	32
354.609	36
355.85	33
357.089	35
358.33	30
359.57	40
360.809	34
362.049	34
363.287	38
364.526	32
365.764	40
367.003	39
368.241	38
369.479	34
370.718	35
371.955	33
373.193	34
374.429	35
375.667	34
376.903	37
378.139	38
379.376	36
380.611	36
381.848	37
383.083	30
384.319	38
385.554	37
386.79	26
388.024	36
389.258	36
390.493	39
391.727	34
392.962	37
394.195	39
395.428	32
396.663	33
397.895	33
399.128	35
400.361	34
401.593	30
402.825	37
404.058	30
405.29	34
406.521	34
407.752	34
408.985	35
410.215	37
411.446	39
412.678	34
413.908	35
415.138	34
416.367	32
417.597	32
418.828	35
420.057	36
421.286	38
422.514	43
423.743	33
424.973	33
426.201	40
427.429	42
428.657	35
429.884	36
431.112	37
432.34	39
433.567	38
434.794	34
436.02	40
437.247	34
438.473	40
439.699	41
440.925	33
442.15	36
443.376	37
444.601	36
445.826	34
447.051	37
448.275	35
449.5	36
450.724	36
451.948	32
453.172	33
454.396	36
455.619	37
456.842	32
458.065	35
459.288	34
460.511	40
461.733	36
462.956	36
464.178	38
465.4	39
466.621	38
467.843	42
469.064	39
470.285	41
471.505	38
472.726	38
473.946	41
475.166	41
476.387	46
477.606	34
478.825	40
480.044	49
481.264	52
482.483	56
483.702	57
484.921	56
486.138	60
487.356	62
488.574	62
489.792	65
491.009	61
492.226	60
493.444	56
494.661	52
495.877	52
497.094	51
498.31	52
499.525	47
500.741	47
501.958	46
503.172	43
504.388	40
505.603	50
506.817	36
508.032	43
509.247	47
510.46	38
511.675	42
512.888	38
514.102	37
515.316	45
516.528	38
517.742	41
518.954	42
520.167	41
521.378	38
522.591	41
523.802	40
525.015	39
526.226	38
527.438	36
528.648	38
529.86	44
531.07	32
532.281	42
533.491	35
534.702	35
535.911	39
537.121	33
538.33	36
539.54	34
540.749	35
541.957	38
543.167	32
544.375	38
545.584	37
546.791	34
547.999	38
549.207	30
550.414	36
551.621	32
552.829	41
554.035	32
555.241	32
556.449	38
557.655	33
558.86	39
560.066	36
561.272	40
562.477	33
563.682	39
564.888	34
566.093	34
567.297	44
568.501	34
569.705	37
570.91	36
572.114	41
573.317	35
574.52	40
575.723	36
576.927	30
578.13	39
579.332	34
580.535	33
581.737	33
582.938	34
584.14	37
585.343	38
586.544	40
587.745	37
588.946	33
590.147	40
591.347	38
592.548	37
593.748	30
594.948	35
596.147	34
597.347	37
598.546	40
599.745	34
600.944	35
602.143	34
603.342	35
604.54	40
605.738	34
606.937	36
608.134	36
609.332	35
610.529	34
611.727	35
612.924	38
614.121	38
615.317	38
616.513	34
617.709	34
618.905	36
620.101	43
621.297	34
622.492	37
623.688	36
624.883	42
626.077	38
627.271	40
628.466	33
629.66	40
630.855	33
632.047	30
633.241	32
634.435	37
635.629	41
636.82	37
638.014	38
639.207	34
640.399	33
641.59	36
642.783	32
643.975	41
645.166	34
646.357	38
647.549	36
648.741	30
649.93	38
651.122	36
652.311	28
653.502	35
654.692	34
655.881	32
657.071	37
658.261	40
659.45	39
660.639	40
661.827	38
663.016	36
664.204	33
665.393	38
666.581	34
667.769	36
668.957	43
670.143	40
671.331	37
672.518	35
673.705	36
674.891	43
676.078	38
677.264	41
678.451	38
679.636	37
680.821	38
682.007	40
683.192	41
684.378	42
685.562	40
686.747	39
687.931	39
689.115	40
690.3	42
691.483	42
692.666	39
693.851	40
695.034	40
696.216	42
697.4	40
698.582	39
699.764	41
700.948	44
702.129	39
703.311	48
704.493	48
705.674	53
706.855	48
708.036	51
709.218	51
710.399	54
711.579	52
712.759	46
713.939	46
715.12	45
716.299	44
717.478	43
718.657	40
719.836	39
721.015	37
722.195	39
723.373	38
724.552	36
725.729	34
726.907	35
728.085	34
729.262	36
730.44	34
731.617	37
732.795	36
733.972	36
735.148	38
736.324	36
737.501	34
738.677	39
739.852	38
741.028	36
742.203	39
743.379	35
744.554	36
745.729	38
746.903	34
748.078	32
749.252	36
750.426	39
751.599	32
752.772	34
753.946	35
755.119	38
756.293	38
757.466	38
758.639	39
759.811	29
760.984	31
762.155	36
763.327	36
764.499	38
765.67	36
766.842	35
768.013	41
769.183	39
770.354	39
771.525	30
772.696	30
773.865	38
775.035	30
776.205	33
777.375	39
778.544	38
779.713	45
780.882	36
782.052	44
783.219	38
784.388	36
785.557	32
786.724	36
787.892	43
789.06	42
790.227	37
791.395	42
792.562	42
793.728	36
794.895	36
796.061	44
797.228	36
798.395	34
799.56	36
800.726	36
801.891	46
803.057	39
804.221	34
805.387	38
806.551	38
807.716	36
808.879	40
810.044	39
811.208	41
812.372	38
813.535	42
814.699	34
815.862	37
817.025	37
818.188	38
819.351	34
820.513	37
821.675	41
822.837	40
823.999	36
825.161	40
826.322	44
827.483	39
828.645	38
829.805	39
830.966	30
832.127	32
833.287	34
834.447	37
835.607	35
836.767	37
837.926	37
839.085	34
840.245	35
841.404	34
842.562	45
843.72	36
844.88	35
846.038	30
847.195	37
848.353	38
849.512	32
850.669	39
851.826	34
852.983	32
854.139	35
855.296	32
856.453	36
857.609	35
858.765	37
859.921	30
861.077	40
862.232	38
863.387	40
864.542	35
865.697	32
866.852	38
868.008	39
869.162	36
870.316	32
871.47	38
872.624	40
873.778	41
874.931	34
876.084	35
877.237	37
878.39	37
879.543	38
880.695	37
881.846	39
882.999	36
884.151	35
885.302	38
886.454	34
887.606	37
888.757	38
889.908	33
891.059	31
892.21	38
893.359	38
894.509	35
895.659	35
896.81	38
897.959	35
899.109	35
900.257	38
901.407	36
902.556	39
903.705	38
904.854	34
906.001	36
907.149	33
908.298	30
909.446	29
910.592	38
911.74	34
912.888	39
914.034	38
915.181	33
916.328	36
917.473	34
918.62	32
919.766	36
920.911	36
922.058	35
923.204	40
924.348	36
925.494	39
926.638	31
927.783	32
928.928	30
930.072	33
931.216	32
932.36	34
933.504	40
934.647	33
935.791	33
936.933	34
938.077	33
939.219	38
940.363	38
941.504	35
942.647	35
943.789	26
944.932	36
946.073	35
947.215	36
948.356	33
949.498	36
950.638	37
951.778	34
952.92	35
954.06	36
955.199	39
956.34	34
957.479	36
958.62	32
959.759	37
960.898	35
962.038	37
963.176	32
964.315	33
965.453	35
966.592	35
967.73	31
968.867	38
970.006	33
971.144	34.5
972.281	35
973.418	36
974.554	28
975.692	32
976.829	33
977.965	34
979.101	34
980.237	33
981.374	31
982.509	42
983.645	35
984.78	30
985.915	39
987.05	34
988.184	30
989.319	33
990.453	34
991.589	30
992.722	26
993.856	34
994.99	33
996.123	35
997.257	36
998.39	34
999.523	36
1000.66	36
1001.79	38
1002.92	37
1004.05	35
1005.18	37
1006.32	35
1007.45	41
1008.58	32
1009.71	35
1010.84	37
1011.97	32
1013.1	32
1014.23	26
1015.36	33
1016.49	34
1017.62	30
1018.75	30
1019.88	34
1021.01	32
1022.14	36
1023.27	35
1024.4	38
1025.53	36
1026.66	38
1027.79	32
1028.91	31
1030.04	34
1031.17	31
1032.3	35
1033.42	38
1034.55	40
1035.68	37
1036.81	36
1037.93	34
1039.06	38
1040.18	33
1041.31	39
1042.44	35
1043.56	36
1044.69	37
1045.81	34
1046.94	29
1048.06	35
1049.19	32
1050.31	39
1051.44	34
1052.56	32
1053.69	34
1054.81	30
1055.93	34
1057.06	37
1058.18	30
1059.3	31
1060.43	30
1061.55	30
1062.67	30
1063.79	34
1064.92	38
1066.04	33
1067.16	32
1068.28	37
1069.4	36
1070.52	39
1071.65	38
1072.77	32
1073.89	31
1075.01	36
1076.13	34
1077.25	36
1078.37	32
1079.49	35
1080.61	34
1081.73	28
1082.85	29
1083.97	35
1085.09	39
1086.2	37
1087.32	33
1088.44	33
1089.56	37
1090.68	34
1091.8	32
1092.91	34
1094.03	30
1095.15	34
1096.26	30
1097.38	33
1098.5	30
1099.61	31
1100.73	34
1101.85	34
1102.96	29
1104.08	34
1105.19	34
1106.31	32
1107.43	37
1108.54	33
1109.66	28
1110.77	34
1111.88	35
1113	32
1114.11	34
1115.23	36
1116.34	35
1117.46	32
1118.57	37
1119.68	26
1120.8	37
1121.91	32
1123.02	33
1124.13	35
1125.25	36
1126.36	34
1127.47	32
1128.58	34
1129.69	38
1130.8	36
1131.92	31
1133.03	34
1134.14	35
1135.25	32
1136.36	36
1137.47	34
1138.58	28
1139.69	35
1140.8	31
1141.91	38
1143.02	32
1144.13	34
1145.24	33
1146.35	39
1147.46	36
1148.56	37
1149.67	33
1150.78	31
1151.89	32
1153	33
1154.1	35
1155.21	34
1156.32	30
1157.43	33
1158.53	36
1159.64	34
1160.75	32
1161.85	32
1162.96	34
1164.07	35
1165.17	33
1166.28	33
1167.38	36
1168.49	35
1169.59	33
1170.7	34
1171.8	30
1172.91	32
1174.01	30
1175.12	35
1176.22	33
1177.32	30
1178.43	30
1179.53	31
1180.64	35
1181.74	36
1182.84	35
1183.94	32
1185.05	32
1186.15	34
1187.25	37
1188.35	28
1189.46	34
1190.56	35
1191.66	31
1192.76	22
1193.86	31
1194.96	34
1196.06	31.9902
1197.16	34.9016
1198.26	37.7578
1199.37	32.0304
1200.47	31.9338
1201.57	34.6323
1202.67	29.1672
1203.77	24.583
1204.86	31.9167
1205.96	30.7546
1207.06	33.069
1208.16	30.444
1209.26	30.1312
1210.36	35.3993
1211.46	31.7165
1212.56	29.9248
1213.65	36.5418
1214.75	30
1215.85	35.0874
1216.95	33.8009
1218.04	36.2065
1219.14	36.34
1220.24	25.0871
1221.33	33.1843
1222.43	27.6378
1223.53	33.7994
1224.62	29.5658
1225.72	29.994
1226.82	33.6212
1227.91	33.5462
1229.01	32.8725
1230.1	33.9433
1231.2	32.23
1232.29	32.6863
1233.39	31.8733
1234.48	33.0685
1235.58	30.4316
1236.67	30.9763
1237.77	32.0278
1238.86	32.7475
1239.95	29.7384
1241.05	35.2061
1242.14	30.7942
1243.23	32.4571
1244.33	35.8186
1245.42	31.9732
1246.51	30.862
1247.61	27.7255
1248.7	28.3707
1249.79	32.6324
1250.88	30.8191
1251.97	34.697
1253.07	32.3286
1254.16	32.8647
1255.25	33.5908
1256.34	34.9008
1257.43	31.8281
1258.52	32.9608
1259.61	30.0334
1260.7	32.7532
1261.79	38.6675
1262.88	36.5015
1263.97	28.025
1265.06	30.0599
1266.15	31.0645
1267.24	31.6717
1268.33	31.6786
1269.42	34.9853
1270.51	33.3849
1271.6	32.565
1272.68	35.3183
1273.77	28.9707
1274.86	30.1574
1275.95	31
1277.04	31.3443
1278.12	29.6059
1279.21	30.6042
1280.3	34.4804
1281.39	33.0959
1282.47	30.9221
1283.56	34.2236
1284.65	33.0334
1285.73	30.2077
1286.82	28.8202
1287.91	35.1182
1288.99	31.9394
1290.08	32.4611
1291.16	28.6162
1292.25	27.7359
1293.33	30.7202
1294.42	35.4149
1295.5	32.3423
1296.59	34.6483
1297.67	30.9167
1298.76	31.5973
1299.84	35.1423
1300.92	30.5174
1302.01	31.8131
1303.09	29.9455
1304.17	29.7503
1305.26	35.66
1306.34	31.8306
1307.34	30
1308.43	34
1309.52	28
1310.61	32
1311.7	34
1312.78	29
1313.87	28
1314.96	26
1316.04	32
1317.13	36
1318.22	31
1319.3	34
1320.39	29
1321.48	27
1322.56	34
1323.65	28
1324.73	33
1325.82	28
1326.9	32
1327.99	35
1329.07	36
1330.16	33
1331.24	30
1332.33	34
1333.41	34
1334.5	32
1335.58	31
1336.66	27
1337.75	32
1338.83	28
1339.91	32
1341	37
1342.08	31
1343.16	32
1344.24	32
1345.33	32
1346.41	32
1347.49	27
1348.57	30
1349.65	32
1350.74	36
1351.82	32
1352.9	28
1353.98	34
1355.06	30
1356.14	30
1357.22	34
1358.3	29
1359.38	33
1360.46	29
1361.54	34
1362.62	28
1363.7	30
1364.78	32
1365.86	29
1366.94	20
1368.02	31
1369.09	28
1370.17	36
1371.25	32
1372.33	29
1373.41	28
1374.48	34
1375.56	32
1376.64	26
1377.72	28
1378.79	36
1379.87	26
1380.95	31
1382.02	32
1383.1	36
1384.17	36
1385.25	26
1386.33	24
1387.4	32
1388.48	31
1389.55	30
1390.63	36
1391.7	32
1392.78	27
1393.85	34
1394.93	36
1396	31
1397.07	31
1398.15	32
1399.22	35
1400.3	30
1401.37	33
1402.44	34
1403.52	34
1404.59	32
1405.66	34
1406.73	36
1407.81	32
1408.88	33
1409.95	40
1411.02	32
1412.09	34
1413.17	32
1414.24	36
1415.31	32
1416.38	36
1417.45	36
1418.52	35
1419.59	35
1420.66	33
1421.73	33
1422.8	34
1423.87	37
1424.94	34
1426.01	30
1427.08	34
1428.15	36
1429.22	36
1430.29	33
1431.35	32
1432.42	33
1433.49	32
1434.56	34
1435.63	30
1436.69	29
1437.76	39
1438.83	32
1439.9	30
1440.96	33
1442.03	33
1443.1	31
1444.17	33
1445.23	28
1446.3	30
1447.36	30
1448.43	26
1449.49	31
1450.56	34
1451.63	34
1452.69	34
1453.76	34
1454.82	31
1455.89	32
1456.95	28
1458.01	28
1459.08	28
1460.14	31
1461.21	33
1462.27	34
1463.34	31
1464.4	30
1465.46	28
1466.52	32
1467.59	35
1468.65	30
1469.71	32
1470.77	36
1471.84	31
1472.9	32
1473.96	31
1475.02	36
1476.08	36
1477.15	26
1478.21	32
1479.27	26
1480.33	34
1481.39	32
1482.45	31
1483.51	24
1484.57	32
1485.63	30
1486.69	31
1487.75	33
1488.81	30
1489.87	33
1490.93	33
1491.99	33
1493.05	34
1494.1	34
1495.16	28
1496.22	32
1497.28	33
1498.34	35
1499.4	34
1500.45	32
1501.51	32
1502.57	29
1503.63	33
1504.68	31
1505.74	32
1506.8	36
1507.85	32
1508.91	33
1509.97	31
1511.02	30
1512.08	32
1513.13	34
1514.19	30
1515.24	36
1516.3	28
1517.35	28
1518.41	37
1519.46	34
1520.52	32
1521.57	32
1522.63	32
1523.68	36
1524.73	32
1525.79	34
1526.84	37
1527.9	33
1528.95	30
1530	38
1531.05	30
1532.11	34
1533.16	31
1534.21	34
1535.26	34
1536.32	32
1537.37	38
1538.42	31
1539.47	34
1540.52	28
1541.57	30
1542.63	30
1543.68	29
1544.73	36
1545.78	30
1546.83	30
1547.88	36
1548.93	33
1549.98	30
1551.03	32
1552.08	35
1553.13	31
1554.18	30
1555.23	30
1556.27	32
1557.32	26
1558.37	34
1559.42	37
1560.47	38
1561.52	28
1562.56	28
1563.61	30
1564.66	32
1565.71	31
1566.75	26
1567.8	26
1568.85	30
1569.9	36
1570.94	32
1571.99	32
1573.03	30
1574.08	34
1575.13	35
1576.17	26
1577.22	32
1578.26	32
1579.31	29
1580.35	28
1581.4	36
1582.44	34
1583.49	28
1584.53	29
1585.58	41
1586.62	32
1587.66	32
1588.71	32
1589.75	34
1590.8	28
1591.84	28
1592.88	32
1593.92	33
1594.97	29
1596.01	34
1597.05	30
1598.1	34
1599.14	32
1600.18	27
1601.22	32
1602.26	33
1603.3	37
1604.35	30
1605.39	34
1606.43	29
1607.47	32
1608.51	34
1609.55	36
1610.59	27
1611.63	26
1612.67	28
1613.71	34
1614.75	39
1615.79	30
1616.83	32
1617.87	32
1618.91	32
1619.95	28
1620.99	36
1622.02	33
1623.06	34
1624.1	32
1625.14	33
1626.18	32
1627.21	31
1628.25	32
1629.29	32
1630.33	37
1631.36	28
1632.4	33
1633.44	31
1634.48	28
1635.51	37
1636.55	35
1637.58	30
1638.62	33
1639.66	36
1640.69	33
1641.73	35
1642.76	35
1643.8	30
1644.83	30
1645.87	32
1646.9	40
1647.94	30
1648.97	37
1650	28
1651.04	34
1652.07	32
1653.11	32
1654.14	32
1655.17	38
1656.21	27
1657.24	33
1658.27	28
1659.31	31
1660.34	36
1661.37	31
1662.4	26
1663.43	35
1664.47	31
1665.5	31
1666.53	28
1667.56	34
1668.59	28
1669.62	36
1670.66	33
1671.69	32
1672.72	24
1673.75	30
1674.78	39
1675.81	34
1676.84	35
1677.87	32
1678.9	38
1679.93	32
1680.96	33
1681.98	31
1683.01	34
1684.04	32
1685.07	32
1686.1	33
1687.13	30
1688.16	36
1689.18	34
1690.21	36
1691.24	32
1692.27	30
1693.3	37
1694.32	35
1695.35	28
1696.38	29
1697.4	33
1698.43	27
1699.46	36
1700.48	30
1701.51	34
1702.54	33
1703.56	30
1704.59	29
1705.61	32
1706.64	28
1707.66	34
1708.69	28
1709.71	30
1710.74	24
1711.76	30
1712.79	32
1713.81	30
1714.83	34
1715.86	26
1716.88	27
1717.91	26
1718.93	32
1719.95	30
1720.98	33
1722	35
1723.02	35
1724.04	32
1725.07	32
1726.09	34
1727.11	33
1728.13	26
1729.15	34
1730.18	29
1731.2	24
1732.22	34
1733.24	31
1734.26	28
1735.28	28
1736.3	32
1737.32	30
1738.34	31
1739.36	31
1740.38	32
1741.4	26
1742.42	29
1743.44	31
1744.46	29
1745.48	29
1746.5	36
1747.52	38
1748.54	28
1749.56	24
1750.58	30
1751.6	20
1752.61	31
1753.63	28
1754.65	38
1755.67	34
1756.68	31
1757.7	35
1758.72	34
1759.74	32
1760.75	25
1761.77	32
1762.79	30
1763.8	32
1764.82	33
1765.83	36
1766.85	32
1767.87	32
1768.88	30
1769.9	26
1770.91	32
1771.93	35
1772.94	33
1773.96	28
1774.97	30
1775.99	36
1777	33
1778.02	32
1779.03	31
1780.04	26
1781.06	29
1782.07	31
1783.09	34
1784.1	33
1785.11	34
1786.13	32
1787.14	36
1788.15	29
1789.16	29
1790.18	26
1791.19	30
1792.2	32
1793.21	28
1794.22	34
1795.23	28
1796.25	34
1797.26	36
1798.27	32
1799.28	33
1800.29	32
1801.3	25
1802.31	28
1803.32	32
1804.33	30
1805.34	34
1806.35	30
1807.36	31
1808.37	28
1809.38	31
1810.39	32
1811.4	34
1812.41	26
1813.42	36
1814.42	30
1815.43	34
1816.44	27
1817.45	34
1818.46	34
1819.47	28
1820.47	28
1821.48	34
1822.49	30
1823.49	31
1824.5	32
1825.51	31
1826.52	29
1827.52	28
1828.53	30
1829.53	32
1830.54	33
1831.55	32
1832.55	33
1833.56	32
1834.56	32
1835.57	29
1836.57	32
1837.58	31
1838.58	34
1839.59	27
1840.59	32
1841.6	28
1842.6	28
1843.61	26
1844.61	34
1845.61	24
1846.62	24
1847.62	33
1848.62	28
1849.63	30
1850.63	32
1851.63	26
1852.64	32
1853.64	28
1854.64	28
1855.64	33
1856.64	32
1857.65	27
1858.65	31
1859.65	28
1860.65	30
1861.65	31
1862.65	34
1863.65	35
1864.66	32
1865.66	32
1866.66	30
1867.66	32
1868.66	32
1869.66	32
1870.66	28
1871.66	32
1872.66	34
1873.66	32
1874.66	30
1875.65	30
1876.65	30
1877.65	33
1878.65	27
1879.65	26
1880.65	34
1881.65	31
1882.64	34
1883.64	33
1884.64	28
1885.64	34
1886.63	30
1887.63	32
1888.63	32
1889.63	24
1890.62	36
1891.62	30
1892.62	27
1893.61	22
1894.61	26
1895.6	26
1896.6	25
1897.6	28
1898.59	32
1899.59	32
1900.58	32
1901.58	28
1902.57	29
1903.57	30
1904.56	34
1905.56	32
1906.55	35
1907.54	29
1908.54	32
1909.53	31
1910.53	28
1911.52	32
1912.51	33
1913.51	32
1914.5	28
1915.49	30
1916.49	32
1917.48	34
1918.47	28
1919.46	24
1920.46	30
1921.45	28
1922.44	34
1923.43	31
1924.42	30
1925.41	32
1926.41	33
1927.4	27
1928.39	26
1929.38	32
1930.37	31
1931.36	28
1932.35	28
1933.34	25
1934.33	32
1935.32	28
1936.31	26
1937.3	27
1938.29	36
1939.28	24
1940.27	32
1941.26	32
1942.24	31
1943.23	31
1944.22	29
1945.21	33
1946.2	32
1947.19	32
1948.17	32
1949.16	28
1950.15	26
1951.14	24
1952.12	31
1953.11	31
1954.1	27
1955.09	36
1956.07	30
1957.06	28
1958.05	33
1959.03	29
1960.02	36
1961	29
1961.99	31
1962.98	26
1963.96	32
1964.95	30
1965.93	33
1966.92	26
1967.9	26
1968.89	28
1969.87	34
1970.85	32
1971.84	34
1972.82	28
1973.81	28
1974.79	28
1975.78	32
1976.76	29
1977.74	28
1978.73	32
1979.71	32
1980.69	24
1981.67	29
1982.66	30
1983.64	28
1984.62	31
1985.6	31
1986.59	30
1987.57	32
1988.55	24
1989.53	25
1990.51	27
1991.49	26
1992.47	32
1993.45	30
1994.44	29
1995.42	30
1996.4	32
1997.38	26
1998.36	32
1999.34	30
2000.32	33
2001.3	22
2002.28	30
2003.26	25
2004.24	26
2005.22	28
2006.19	27
2007.17	26
2008.15	30
2009.13	28
2010.11	33
2011.09	31
2012.06	28
2013.04	27
2014.02	32
2015	26
2015.98	34
2016.95	30
2017.93	29
2018.91	28
2019.88	34
2020.86	30
2021.84	34
2022.81	27
2023.79	32
2024.77	32
2025.74	30
2026.72	26
2027.69	27
2028.67	30
2029.65	22
2030.62	29
2031.6	30
2032.57	31
2033.55	32
2034.52	35
2035.5	28
2036.47	28
2037.44	26
2038.42	27
2039.39	28
2040.36	27
2041.34	28
2042.31	30
2043.29	30
2044.26	26
2045.23	24
2046.2	30
2047.18	37
2048.15	29
2049.12	30
2050.09	27
2051.07	30
2052.04	28
2053.01	32
2053.98	30
2054.95	34
2055.93	28
2056.9	24
2057.87	30
2058.84	30
2059.81	30
2060.78	28
2061.75	31
2062.72	36
2063.69	24
2064.66	29
2065.63	28
2066.6	31
2067.57	27
2068.54	26
2069.51	29
2070.48	34
2071.45	32
2072.42	26
2073.38	28
2074.35	29
2075.32	26
2076.29	28
2077.26	32
2078.23	30
2079.19	31
2080.16	28
2081.13	30
2082.1	26
2083.06	29
2084.03	27
2085	31
2085.96	30
2086.93	34
2087.9	29
2088.86	28
2089.83	23
2090.8	28
2091.76	29
2092.73	28
2093.69	26
2094.66	28
2095.62	29
2096.59	25
2097.55	28
2098.52	31
2099.48	30
2100.45	26
2101.41	29
2102.38	28
2103.34	31
2104.31	26
2105.27	26
2106.23	29
2107.2	28
2108.16	24
2109.12	26
2110.09	30
2111.05	23
2112.01	31
2112.98	29
2113.94	16
2114.9	32
2115.86	28
2116.82	28
2117.79	32
2118.75	26
2119.71	30
2120.67	28
2121.63	30
2122.59	30
2123.55	27
2124.52	34
2125.48	30
2126.44	25
2127.4	29
2128.36	28
2129.32	25
2130.28	31
2131.24	30
2132.2	27
2133.16	35
2134.12	26
2135.08	25
2136.04	27
2136.99	30
2137.95	24
2138.91	27
2139.87	24
2140.83	28
2141.79	26
2142.75	28
2143.7	26
2144.66	27
2145.62	29.9678
2146.58	25.8904
2147.53	27.902
2148.49	31.7395
2149.45	29.0068
2150.41	30.0348
2151.36	27.8641
2152.32	29.5766
2153.27	28.8889
2154.23	25.6517
2155.19	27.0048
2156.14	27.1174
2157.1	26.3272
2158.06	30.4647
2159.01	26.9692
2159.97	26.8351
2160.92	28.7133
2161.88	30.8008
2162.83	26.8176
2163.79	27.4265
2164.74	29.3952
2165.7	28.6244
2166.65	24.8013
2167.61	25.5392
2168.56	29.2615
2169.51	24.9926
2170.47	26.7705
2171.42	29.4716
2172.38	27.3594
2173.33	25.2474
2174.28	26.3812
2175.24	28.8392
2176.19	26.5958
2177.14	28.7927
2178.09	25.9496
2179.05	27.6354
2180	24.6588
2180.95	25.8662
2181.9	27.6464
2182.86	27.9551
2183.81	32.6324
2184.76	26.7242
2185.71	28.5833
2186.66	27.6029
2187.61	28.2744
2188.57	24
2189.52	29.2909
2190.47	29.9389
2191.42	23.4677
2192.37	32.6031
2193.32	29.2996
2194.27	27.4617
2195.22	25.5688
2196.17	27.0255
2197.12	29.8203
2198.07	30.0592
2199.02	23.2789
2199.97	25.6364
2200.92	24.8529
2201.87	29.1945
2202.82	25.4334
2203.76	28.7794
2204.71	26.4786
2205.66	23.6628
2206.61	28.2778
2207.56	27.4348
2208.51	27.9493
2209.45	28.3227
2210.4	28.8571
2211.35	31.1894
2212.3	29.4318
2213.24	26.4443
2214.19	27.8462
2215.14	26.633
2216.09	30.0312
2217.03	28.5846
2217.98	28.5
2218.93	26.8207
2219.87	25.7677
2220.82	27.7428
2221.77	25.5242
2222.71	25.3456
2223.66	24.3295
2224.6	24.3627
2225.55	27.9657
2226.49	25.599
2227.44	27.6298
2228.38	27.7767
2229.33	30.4851
2230.27	31.0841
2231.22	26.9341
2232.16	28.2921
2233.11	27.506
2234.05	25.6667
2235	27.6369
2235.94	27.219
2236.88	30.532
2237.83	28.0882
2238.77	26.5377
2239.71	28.0245
2240.66	28.5466
2241.6	27.2459
2242	26
2242.95	28
2243.9	28
2244.84	25
2245.79	24
2246.74	26
2247.69	32
2248.63	25
2249.58	30
2250.53	27
2251.47	26
2252.42	26
2253.37	28
2254.31	27
2255.26	28
2256.2	29
2257.15	28
2258.1	30
2259.04	26
2259.99	30
2260.93	28
2261.88	29
2262.82	29
2263.77	28
2264.71	30
2265.65	27
2266.6	28
2267.54	22
2268.49	24
2269.43	29
2270.38	28
2271.32	30
2272.26	26
2273.21	26
2274.15	26
2275.09	29
2276.04	29
2276.98	30
2277.92	30
2278.86	30
2279.81	32
2280.75	31
2281.69	30
2282.63	26
2283.57	28
2284.52	25
2285.46	31
2286.4	28
2287.34	26
2288.28	28
2289.22	28
2290.16	28
2291.1	30
2292.04	24
2292.98	23
2293.93	28
2294.86	26
2295.8	28
2296.74	28
2297.69	34
2298.62	26
2299.56	26
2300.5	24
2301.44	24
2302.38	22
2303.32	28
2304.26	30
2305.2	28
2306.14	28
2307.07	33
2308.01	34
2308.95	27
2309.89	27
2310.83	28
2311.76	28
2312.7	29
2313.64	26
2314.58	27
2315.51	28
2316.45	28
2317.39	28
2318.32	30
2319.26	30
2320.2	26
2321.13	24
2322.07	26
2323	27
2323.94	31
2324.88	28
2325.81	29
2326.75	30
2327.68	29
2328.62	26
2329.55	26
2330.49	27
2331.42	27
2332.36	29
2333.29	30
2334.22	27
2335.16	28
2336.09	28
2337.03	37
2337.96	28
2338.89	31
2339.83	24
2340.76	29
2341.69	30
2342.63	28
2343.56	26
2344.49	31
2345.43	28
2346.36	32
2347.29	28
2348.22	29
2349.15	26
2350.09	28
2351.02	26
2351.95	26
2352.88	32
2353.81	31
2354.74	26
2355.67	31
2356.61	24
2357.54	28
2358.47	27
2359.4	21
2360.33	30
2361.26	26
2362.19	27
2363.12	28
2364.05	30
2364.98	28
2365.91	29
2366.84	32
2367.77	22
2368.7	26
2369.62	29
2370.55	34
2371.48	29
2372.41	30
2373.34	30
2374.27	30
2375.2	28
2376.12	26
2377.05	30
2377.98	31
2378.91	22
2379.83	31
2380.76	22
2381.69	26
2382.62	32
2383.54	24
2384.47	31
2385.4	31
2386.32	24
2387.25	28
2388.18	27
2389.1	25
2390.03	26
2390.95	26
2391.88	26
2392.81	27
2393.73	24
2394.66	22
2395.58	30
2396.51	28
2397.43	28
2398.36	31
2399.28	22
2400.2	28
2401.13	28
2402.05	28
2402.98	28
2403.9	28
2404.83	26
2405.75	27
2406.67	29
2407.6	29
2408.52	29
2409.44	24
2410.37	32
2411.29	28
2412.21	27
2413.13	26
2414.06	26
2414.98	31
2415.9	27
2416.82	28
2417.74	25
2418.67	24
2419.59	24
2420.51	30
2421.43	28
2422.35	26
2423.27	32
2424.19	29
2425.11	32
2426.03	30
2426.96	26
2427.88	31
2428.8	30
2429.72	26
2430.64	31
2431.56	27
2432.48	26
2433.39	30
2434.31	31
2435.23	32
2436.15	29
2437.07	26
2437.99	29
2438.91	30
2439.83	30
2440.75	29
2441.67	31
2442.58	24
2443.5	30
2444.42	26
2445.34	27
2446.26	28
2447.17	29
2448.09	28
2449.01	26
2449.92	24
2450.84	29
2451.76	28
2452.68	24
2453.59	28
2454.51	33
2455.42	24
2456.34	29
2457.26	32
2458.17	26
2459.09	20
2460	22
2460.92	30
2461.83	26
2462.75	28
2463.66	33
2464.58	31
2465.49	30
2466.41	32
2467.32	29
2468.24	26
2469.15	24
2470.07	26
2470.98	28
2471.89	31
2472.81	30
2473.72	29
2474.64	29
2475.55	27
2476.46	28
2477.37	27
2478.29	27
2479.2	24
2480.11	26
2481.03	27
2481.94	29
2482.85	24
2483.76	26
2484.67	31
2485.59	26
2486.5	22
2487.41	33
2488.32	28
2489.23	26
2490.14	29
2491.05	30
2491.97	26
2492.88	32
2493.79	26
2494.7	28
2495.61	27
2496.52	30
2497.43	26
2498.34	35
2499.25	27
2500.16	28
2501.07	34
2501.98	33
2502.89	26
2503.79	29
2504.7	29
2505.61	26
2506.52	32
2507.43	32
2508.34	30
2509.25	30
2510.16	34
2511.06	26
2511.97	24
2512.88	28
2513.79	31
2514.69	27
2515.6	30
2516.51	27
2517.42	20
2518.32	24
2519.23	30
2520.14	24
2521.04	27
2521.95	27
2522.86	24
2523.76	27
2524.67	28
2525.57	29
2526.48	26
2527.39	30
2528.29	25
2529.2	26
2530.1	33
2531.01	28
2531.91	30
2532.82	30
2533.72	28
2534.63	30
2535.53	28
2536.44	30
2537.34	31
2538.24	30
2539.15	27
2540.05	31
2540.96	31
2541.86	27
2542.76	28
2543.67	27
2544.57	27
2545.47	31
2546.37	28
2547.28	26
2548.18	24
2549.08	28
2549.99	26
2550.89	26
2551.79	26
2552.69	32
2553.59	31
2554.49	31
2555.4	26
2556.3	22
2557.2	28
2558.1	30
2559	28
2559.9	28
2560.8	27
2561.7	28
2562.6	28
2563.5	27
2564.4	31
2565.3	32
2566.2	28
2567.1	31
2568	30
2568.9	30
2569.8	27
2570.7	29
2571.6	32
2572.5	28
2573.4	31
2574.3	31
2575.2	28
2576.1	29
2576.99	28
2577.89	29
2578.79	31
2579.69	32
2580.59	33
2581.48	26
2582.38	30
2583.28	30
2584.18	31
2585.07	29
2585.97	29
2586.87	33
2587.76	31
2588.66	29
2589.56	30
2590.45	28
2591.35	33
2592.25	25
2593.14	27
2594.04	31
2594.93	28
2595.83	26
2596.73	31
2597.62	24
2598.52	30
2599.41	29
2600.31	26
2601.2	28
2602.1	29
2602.99	24
2603.88	28
2604.78	28
2605.67	30
2606.57	28
2607.46	29
2608.35	28
2609.25	27
2610.14	26
2611.03	32
2611.93	29
2612.82	24
2613.71	30
2614.61	29
2615.5	29
2616.39	26
2617.29	26
2618.18	24
2619.07	27
2619.96	29
2620.85	31
2621.75	24
2622.64	31
2623.53	27
2624.42	30
2625.31	31
2626.2	30
2627.09	26
2627.98	29
2628.88	25
2629.77	28
2630.66	30
2631.55	27
2632.44	30
2633.33	26
2634.22	34
2635.11	26
2636	32
2636.89	26
2637.78	26
2638.66	27
2639.55	28
2640.44	29
2641.33	30
2642.22	30
2643.11	31
2644	27
2644.89	33
2645.78	29
2646.66	24
2647.55	24
2648.44	24
2649.33	25
2650.21	30
2651.1	31
2651.99	32
2652.88	26
2653.76	27
2654.65	28
2655.54	26
2656.42	30
2657.31	29
2658.2	24
2659.08	34
2659.97	28
2660.86	28
2661.74	27
2662.63	29
2663.51	30
2664.4	31
2665.29	24
2666.17	23
2667.06	27
2667.94	24
2668.83	33
2669.71	28
2670.6	32
2671.48	31
2672.36	29
2673.25	28
2674.13	29
2675.02	28
2675.9	26
2676.78	28
2677.67	27
2678.55	18
2679.43	28
2680.32	26
2681.2	30
2682.08	30
2682.97	30
2683.85	32
2684.73	28
2685.61	28
2686.5	29
2687.38	28
2688.26	32
2689.14	26
2690.03	30
2690.91	29
2691.79	29
2692.67	30
2693.55	32
2694.43	31
2695.31	24
2696.19	29
2697.08	27
2697.96	25
2698.84	28
2699.72	23
2700.6	22
2701.48	24
2702.36	22
2703.24	27
2704.12	28
2705	26
2705.88	29
2706.76	31
2707.64	26
2708.51	30
2709.39	29
2710.27	27
2711.15	26
2712.03	22
2712.91	29
2713.79	22
2714.67	27
2715.54	28
2716.42	29
2717.3	26
2718.18	20
2719.05	31
2719.93	27
2720.81	29
2721.69	28
2722.56	20
2723.44	28
2724.32	28
2725.19	27
2726.07	32
2726.95	29
2727.82	32
2728.7	27
2729.58	26
2730.45	34
2731.33	26
2732.2	28
2733.08	28
2733.95	27
2734.83	28
2735.7	32
2736.58	28
2737.45	27
2738.33	25
2739.2	32
2740.08	28
2740.95	29
2741.83	28
2742.7	31
2743.58	33
2744.45	26
2745.32	26
2746.2	32
2747.07	30
2747.94	24
2748.82	31
2749.69	34
2750.56	26
2751.44	28
2752.31	29
2753.18	22
2754.05	28
2754.93	24
2755.8	29
2756.67	28
2757.54	30
2758.42	24
2759.29	32
2760.16	27
2761.03	24
2761.9	24
2762.77	26
2763.64	28
2764.51	30
2765.38	28
2766.26	30
2767.13	32
2768	29
2768.87	30
2769.74	24
2770.61	33
2771.48	27
2772.35	29
2773.22	25
2774.09	31
2774.96	29
2775.83	29
2776.7	28
2777.56	24
2778.43	29
2779.3	26
2780.17	32
2781.04	26
2781.91	28
2782.78	26
2783.64	28
2784.51	28
2785.38	28
2786.25	24
2787.12	30
2787.98	30
2788.85	29
2789.72	28
2790.59	30
2791.45	28
2792.32	32
2793.19	30
2794.05	29
2794.92	28
2795.79	32
2796.65	30
2797.52	29
2798.38	28
2799.25	28
2800.12	30
2800.98	28
2801.85	26
2802.71	24
2803.58	28
2804.44	27
2805.31	28
2806.17	31
2807.04	30
2807.9	28
2808.77	26
2809.63	31
2810.5	28
2811.36	28
2812.22	30
2813.09	33
2813.95	30
2814.82	26
2815.68	24
2816.54	24
2817.41	31
2818.27	30
2819.13	29
2820	28
2820.86	29
2821.72	33
2822.58	24
2823.45	27
2824.31	30
2825.17	30
2826.03	25
2826.9	29
2827.76	32
2828.62	28
2829.48	26
2830.34	33
2831.2	30
2832.06	30
2832.92	31
2833.79	28
2834.65	31
2835.51	27
2836.37	26
2837.23	31
2838.09	33
2838.95	22
2839.81	33
2840.67	26
2841.53	33
2842.39	27
2843.25	26
2844.11	22
2844.97	25
2845.83	24
2846.68	26
2847.54	30
2848.4	26
2849.26	26
2850.12	29
2850.98	30
2851.84	28
2852.69	26
2853.55	29
2854.41	28
2855.27	25
2856.13	31
2856.98	28
2857.84	26
2858.7	30
2859.56	28
2860.41	26
2861.27	27
2862.13	30
2862.98	32
2863.84	31
2864.7	27
2865.55	31
2866.41	30
2867.27	32
2868.12	30
2868.98	34
2869.83	32
2870.69	26
2871.54	32
2872.4	24
2873.25	28
2874.11	34
2874.96	28
2875.82	30
2876.68	31
2877.53	28
2878.38	35
2879.24	34
2880.09	30
2880.95	36
2881.8	32
2882.65	37
2883.51	24
2884.36	34
2885.22	32
2886.07	34
2886.92	36
2887.77	32
2888.63	37
2889.48	34
2890.33	34
2891.19	40
2892.04	42
2892.89	36
2893.74	42
2894.6	46
2895.45	45
2896.3	43
2897.15	42
2898	44
2898.85	44
2899.71	54
2900.56	54
2901.41	48
2902.26	58
2903.11	58
2903.96	65
2904.81	68
2905.66	68
2906.51	56
2907.36	66
2908.21	66
2909.06	67
2909.91	63
2910.76	58
2911.61	54
2912.46	56
2913.31	50
2914.16	48
2915.01	46
2915.86	42
2916.71	49
2917.56	43
2918.41	40
2919.26	35
2920.1	43
2920.95	37
2921.8	39
2922.65	33
2923.5	34
2924.34	39
2925.19	33
2926.04	33
2926.89	34
2927.74	38
2928.58	34
2929.43	32
2930.28	32
2931.12	31
2931.97	30
2932.82	32
2933.66	34
2934.51	28
2935.36	32
2936.2	33
2937.05	38
2937.89	32
2938.74	28
2939.59	31
2940.43	30
2941.28	24
2942.12	32
2942.97	26
2943.81	31
2944.66	32
2945.5	32
2946.35	36
2947.19	24
2948.04	35
2948.88	32
2949.72	34
2950.57	33
2951.41	30
2952.26	37
2953.1	38
2953.94	32
2954.79	39
2955.63	32
2956.47	30
2957.32	32
2958.16	37
2959	41
2959.85	32
2960.69	36
2961.53	39
2962.37	46
2963.22	34
2964.06	42
2964.9	42
2965.74	42
2966.58	46
2967.42	43
2968.27	42
2969.11	36
2969.95	34
2970.79	38
2971.63	38
2972.47	41
2973.31	38
2974.15	39
2974.99	34
2975.83	35
2976.68	36
2977.52	39
2978.36	32
2979.2	34
2980.04	38
2980.88	32
2981.71	30
2982.55	31
2983.39	30
2984.23	32
2985.07	32
2985.91	28
2986.75	26
2987.59	28
2988.43	28
2989.27	26
2990.1	33
2990.94	28
2991.78	30
2992.62	31
2993.46	25
2994.3	28
2995.13	26
2995.97	30
2996.81	30
2997.64	31
2998.48	32
2999.32	25
