#Acq. time (s)=	3
#Accumulations=	3
#Range (cm-¹)=	100...3000
#Windows=	3
#Autofocus=	Off
#AutoExposure=	Off
#Spike filter=	Multiple accum.
#Delay time (s)=	0
#Binning=	1
#Readout mode=	Signal
#DeNoise=	Off
#ICS correction=	Off
#Dark correction=	Off
#Inst. Process=	Off
#Instrument=	LabRAM HR Evol
#Detector=	Syncerity OE
#Objective=	x100_VIS_LWD
#Grating=	600 (500nm)
#ND Filter=	25%
#Laser=	633nm_Edge
#Hole=	100.021
#Range=	Visible
#Project=	Bolus
#Sample=	B4
#Site=	stripside
#Title=	m03
#Remark=	
#Date=	03.11.2025 19:47
#Acquired=	03.11.2025 19:47:18
100.969	28
102.252	36
103.535	31
104.818	30
106.101	35
107.384	30
108.666	37
109.948	30
111.232	35
112.514	31
113.795	32
115.077	31
116.358	39
117.639	37
118.919	31
120.2	27
121.48	37
122.76	35
124.04	32
125.32	36
126.599	36
127.879	37
129.158	33
130.436	33
131.715	38
132.992	31
134.27	37
135.548	41
136.826	38
138.104	32
139.381	38
140.658	39
141.935	38
143.212	40
144.489	36
145.763	34
147.04	39
148.315	42
149.591	39
150.867	30
152.142	38
153.416	42
154.691	43
155.965	28
157.24	47
158.514	45
159.786	32
161.06	40
162.334	34
163.607	42
164.881	43
166.152	39
167.425	34
168.698	38
169.969	44
171.241	44
172.513	39
173.785	40
175.055	44
176.326	42
177.597	42
178.867	38
180.137	44
181.408	41
182.677	46
183.947	41
185.217	44
186.485	46
187.755	45
189.022	44
190.291	37
191.56	40
192.828	37
194.096	38
195.363	39
196.631	46
197.899	42
199.165	47
200.432	38
201.698	41
202.965	39
204.23	42
205.497	40
206.762	35
208.028	40
209.293	40
210.559	39
211.823	39
213.088	38
214.352	34
215.617	33
216.88	36
218.145	34
219.408	37
220.672	41
221.934	36
223.196	38
224.46	36
225.722	33
226.985	36
228.246	35
229.508	38
230.77	31
232.031	35
233.292	30
234.554	35
235.814	31
237.074	34
238.335	33
239.595	34
240.854	33
242.115	28
243.374	30
244.633	28
245.893	32
247.151	28
248.409	31
249.667	33
250.927	33
252.184	32
253.442	34
254.699	35
255.957	33
257.214	33
258.47	32
259.727	30
260.983	28
262.24	32
263.496	32
264.752	29
266.007	36
267.262	30
268.517	33
269.773	32
271.028	38
272.282	31
273.536	36
274.79	28
276.044	31
277.297	29
278.551	33
279.804	30
281.057	32
282.31	30
283.564	32
284.816	37
286.068	33
287.32	32
288.572	29
289.823	34
291.074	34
292.325	32
293.576	28
294.827	31
296.077	34
297.328	26
298.578	33
299.828	39
301.077	36
302.325	33
303.575	36
304.824	32
306.073	26
307.321	29
308.57	30
309.818	28
311.066	29
312.314	30
313.562	33
314.808	34
316.055	30
317.302	26
318.549	34
319.796	34
321.042	30
322.288	32
323.533	34
324.779	27
326.024	33
327.27	30
328.515	26
329.759	29
331.004	28
332.248	32
333.493	34
334.736	40
335.98	32
337.223	34
338.466	34
339.709	34
340.952	34
342.195	26
343.437	34
344.68	30
345.922	31
347.163	32
348.405	32
349.647	31
350.887	38
352.128	34
353.37	32
354.609	34
355.85	36
357.089	39
358.33	36
359.57	34
360.809	38
362.049	35
363.287	38
364.526	31
365.764	32
367.003	34
368.241	35
369.479	34
370.718	31
371.955	35
373.193	32
374.429	32
375.667	28
376.903	32
378.139	32
379.376	24
380.611	34
381.848	33
383.083	38
384.319	33
385.554	32
386.79	33
388.024	33
389.258	36
390.493	29
391.727	32
392.962	27
394.195	31
395.428	36
396.663	29
397.895	30
399.128	34
400.361	31
401.593	34
402.825	36
404.058	30
405.29	36
406.521	30
407.752	32
408.985	35
410.215	32
411.446	32
412.678	26
413.908	32
415.138	32
416.367	31
417.597	34
418.828	30
420.057	38
421.286	33
422.514	33
423.743	36
424.973	36
426.201	32
427.429	35
428.657	34
429.884	34
431.112	34
432.34	32
433.567	28
434.794	35
436.02	37
437.247	34
438.473	29
439.699	33
440.925	31
442.15	28
443.376	38
444.601	37
445.826	31
447.051	34
448.275	33
449.5	34
450.724	39
451.948	34
453.172	35
454.396	30
455.619	33
456.842	29
458.065	32
459.288	35
460.511	30
461.733	30
462.956	34
464.178	32
465.4	32
466.621	38
467.843	35
469.064	35
470.285	36
471.505	34
472.726	41
473.946	37
475.166	38
476.387	42
477.606	42
478.825	46
480.044	40
481.264	46
482.483	50
483.702	55
484.921	54
486.138	54
487.356	59
488.574	52
489.792	48
491.009	64
492.226	55
493.444	58
494.661	60
495.877	52
497.094	52
498.31	44
499.525	47
500.741	48
501.958	42
503.172	46
504.388	47
505.603	34
506.817	39
508.032	46
509.247	44
510.46	38
511.675	36
512.888	42
514.102	37
515.316	42
516.528	42
517.742	33
518.954	35
520.167	34
521.378	35
522.591	38
523.802	37
525.015	33
526.226	36
527.438	35
528.648	32
529.86	42
531.07	34
532.281	32
533.491	29
534.702	34
535.911	36
537.121	34
538.33	36
539.54	33
540.749	36
541.957	33
543.167	35
544.375	30
545.584	32
546.791	40
547.999	40
549.207	35
550.414	35
551.621	29
552.829	38
554.035	40
555.241	30
556.449	34
557.655	36
558.86	33
560.066	32
561.272	32
562.477	33
563.682	32
564.888	38
566.093	34
567.297	34
568.501	34
569.705	33
570.91	32
572.114	34
573.317	31
574.52	34
575.723	32
576.927	35
578.13	32
579.332	30
580.535	30
581.737	32
582.938	36
584.14	32
585.343	38
586.544	32
587.745	35
588.946	36
590.147	36
591.347	36
592.548	34
593.748	26
594.948	35
596.147	34
597.347	32
598.546	30
599.745	28
600.944	28
602.143	30
603.342	33
604.54	36
605.738	36
606.937	40
608.134	30
609.332	37
610.529	33
611.727	28
612.924	32
614.121	32
615.317	32
616.513	39
617.709	37
618.905	32
620.101	36
621.297	36
622.492	28
623.688	42
624.883	35
626.077	33
627.271	35
628.466	34
629.66	35
630.855	35
632.047	34
633.241	34
634.435	36
635.629	32
636.82	40
638.014	36
639.207	32
640.399	38
641.59	32
642.783	36
643.975	28
645.166	36
646.357	38
647.549	35
648.741	29
649.93	36
651.122	36
652.311	33
653.502	30
654.692	32
655.881	35
657.071	32
658.261	32
659.45	33
660.639	34
661.827	30
663.016	32
664.204	30
665.393	33
666.581	34
667.769	33
668.957	32
670.143	34
671.331	34
672.518	30
673.705	37
674.891	31
676.078	33
677.264	41
678.451	38
679.636	33
680.821	36
682.007	38
683.192	39
684.378	36
685.562	40
686.747	37
687.931	41
689.115	40
690.3	39
691.483	40
692.666	38
693.851	30
695.034	42
696.216	38
697.4	44
698.582	38
699.764	37
700.948	39
702.129	34
703.311	38
704.493	51
705.674	42
706.855	48
708.036	48
709.218	49
710.399	49
711.579	52
712.759	44
713.939	48
715.12	43
716.299	42
717.478	39
718.657	34
719.836	36
721.015	37
722.195	34
723.373	32
724.552	32
725.729	35
726.907	33
728.085	33
729.262	31
730.44	30
731.617	26
732.795	38
733.972	36
735.148	32
736.324	29
737.501	33
738.677	32
739.852	28
741.028	32
742.203	36
743.379	30
744.554	30
745.729	30
746.903	33
748.078	34
749.252	32
750.426	36
751.599	33
752.772	29
753.946	30
755.119	35
756.293	32
757.466	32
758.639	37
759.811	31
760.984	28
762.155	33
763.327	30
764.499	29
765.67	35
766.842	39
768.013	34
769.183	29
770.354	33
771.525	33
772.696	28
773.865	35
775.035	33
776.205	32
777.375	30
778.544	32
779.713	28
780.882	32
782.052	34
783.219	32
784.388	37
785.557	35
786.724	36
787.892	36
789.06	42
790.227	30
791.395	35
792.562	32
793.728	36
794.895	36
796.061	35
797.228	36
798.395	32
799.56	34
800.726	39
801.891	32
803.057	34
804.221	32
805.387	32
806.551	32
807.716	35
808.879	28
810.044	39
811.208	29
812.372	38
813.535	34
814.699	33
815.862	30
817.025	30
818.188	35
819.351	39
820.513	30
821.675	38
822.837	30
823.999	32
825.161	34
826.322	35
827.483	26
828.645	33
829.805	30
830.966	33
832.127	35
833.287	32
834.447	30
835.607	34
836.767	34
837.926	34
839.085	37
840.245	33
841.404	28
842.562	32
843.72	35
844.88	28
846.038	30
847.195	32
848.353	36
849.512	34
850.669	36
851.826	35
852.983	36
854.139	35
855.296	37
856.453	31
857.609	31
858.765	32
859.921	33
861.077	38
862.232	39
863.387	38
864.542	34
865.697	28
866.852	28
868.008	33
869.162	36
870.316	36
871.47	33
872.624	34
873.778	32
874.931	38
876.084	37
877.237	36
878.39	35
879.543	30
880.695	34
881.846	38
882.999	34
884.151	29
885.302	31
886.454	34
887.606	33
888.757	29
889.908	32
891.059	38
892.21	34
893.359	33
894.509	31
895.659	28
896.81	36
897.959	32
899.109	26
900.257	32
901.407	33
902.556	31
903.705	33
904.854	30
906.001	32
907.149	34
908.298	31
909.446	36
910.592	28
911.74	31
912.888	33
914.034	26
915.181	26
916.328	30
917.473	30
918.62	28
919.766	32
920.911	34
922.058	32
923.204	33
924.348	32
925.494	30
926.638	32
927.783	34
928.928	36
930.072	33
931.216	26
932.36	33
933.504	26
934.647	35
935.791	34
936.933	31
938.077	28
939.219	34
940.363	30
941.504	34
942.647	35
943.789	38
944.932	33
946.073	30
947.215	34
948.356	32
949.498	32
950.638	32
951.778	32
952.92	33
954.06	32
955.199	32
956.34	28
957.479	30
958.62	32
959.759	28
960.898	28
962.038	29
963.176	32
964.315	35
965.453	28
966.592	27
967.73	28
968.867	30
970.006	36
971.144	33
972.281	28
973.418	30
974.554	33
975.692	31
976.829	30
977.965	33
979.101	26
980.237	32
981.374	28
982.509	35
983.645	34
984.78	26
985.915	32
987.05	36
988.184	34
989.319	30
990.453	36
991.589	28
992.722	27
993.856	27
994.99	34
996.123	34
997.257	30
998.39	28
999.523	32
1000.66	32
1001.79	35
1002.92	29
1004.05	34
1005.18	34
1006.32	29
1007.45	24
1008.58	36
1009.71	30
1010.84	32
1011.97	33
1013.1	26
1014.23	30
1015.36	29
1016.49	32
1017.62	32
1018.75	24
1019.88	35
1021.01	34
1022.14	31
1023.27	31
1024.4	31
1025.53	35
1026.66	31
1027.79	32
1028.91	29
1030.04	32
1031.17	32
1032.3	26
1033.42	35
1034.55	29
1035.68	28
1036.81	32
1037.93	32
1039.06	30
1040.18	31
1041.31	32
1042.44	28
1043.56	33
1044.69	32
1045.81	28
1046.94	28
1048.06	36
1049.19	32
1050.31	30
1051.44	31
1052.56	34
1053.69	31
1054.81	28
1055.93	28
1057.06	33
1058.18	31
1059.3	34
1060.43	30
1061.55	35
1062.67	26
1063.79	32
1064.92	30
1066.04	34
1067.16	38
1068.28	35
1069.4	32
1070.52	30
1071.65	32
1072.77	33
1073.89	32
1075.01	33
1076.13	28
1077.25	33
1078.37	34
1079.49	28
1080.61	34
1081.73	28
1082.85	29
1083.97	29
1085.09	30
1086.2	26
1087.32	32
1088.44	26
1089.56	33
1090.68	29
1091.8	32
1092.91	29
1094.03	31
1095.15	30
1096.26	28
1097.38	30
1098.5	26
1099.61	30
1100.73	30
1101.85	26
1102.96	28
1104.08	31
1105.19	27
1106.31	32
1107.43	33
1108.54	30
1109.66	31
1110.77	30
1111.88	26
1113	28
1114.11	26
1115.23	29
1116.34	31
1117.46	28
1118.57	26
1119.68	32
1120.8	36
1121.91	31
1123.02	28
1124.13	29
1125.25	33
1126.36	26
1127.47	27
1128.58	25
1129.69	30
1130.8	30
1131.92	31
1133.03	30
1134.14	36
1135.25	33
1136.36	28
1137.47	28
1138.58	28
1139.69	31
1140.8	28
1141.91	35
1143.02	31
1144.13	26
1145.24	23
1146.35	30
1147.46	31
1148.56	26
1149.67	27
1150.78	34
1151.89	29
1153	30
1154.1	30
1155.21	28
1156.32	28
1157.43	31
1158.53	32
1159.64	24
1160.75	26
1161.85	30
1162.96	32
1164.07	35
1165.17	30
1166.28	30
1167.38	31
1168.49	32
1169.59	32
1170.7	35
1171.8	33
1172.91	31
1174.01	29
1175.12	26
1176.22	30
1177.32	33
1178.43	24
1179.53	27
1180.64	24
1181.74	30
1182.84	29
1183.94	26
1185.05	26
1186.15	32
1187.25	31
1188.35	30
1189.46	26
1190.56	30
1191.66	28
1192.76	34
1193.86	28
1194.96	26
1196.06	29.0147
1197.16	28.0173
1198.26	31.946
1199.37	28.0801
1200.47	30.9118
1201.57	28.0833
1202.67	30.9018
1203.77	31.05
1204.86	26.5339
1205.96	31.8578
1207.06	30.7896
1208.16	30.0077
1209.26	30.6835
1210.36	28.4034
1211.46	29.433
1212.56	27.8486
1213.65	31.1889
1214.75	27.0879
1215.85	27.9064
1216.95	30.6098
1218.04	28.4972
1219.14	31.888
1220.24	28.5752
1221.33	23.0836
1222.43	32.7947
1223.53	32.2747
1224.62	25.8843
1225.72	30.3325
1226.82	35.7606
1227.91	26.0644
1229.01	30.5735
1230.1	29.9516
1231.2	28.7084
1232.29	29.9126
1233.39	30.6471
1234.48	29.1641
1235.58	27.7842
1236.67	26.8795
1237.77	31.1977
1238.86	30.973
1239.95	26.288
1241.05	27.5931
1242.14	28.1667
1243.23	31.7899
1244.33	31.1238
1245.42	30.9457
1246.51	35.5905
1247.61	25.8331
1248.7	26.741
1249.79	29.0882
1250.88	26.1851
1251.97	26.8267
1253.07	29.2185
1254.16	30.3299
1255.25	31.5034
1256.34	27.4668
1257.43	29.4443
1258.52	31.4216
1259.61	30.2794
1260.7	30.7509
1261.79	31.112
1262.88	30.8146
1263.97	26.094
1265.06	27.7883
1266.15	29.3676
1267.24	29.3578
1268.33	30.3511
1269.42	31.1583
1270.51	29.3514
1271.6	27.2745
1272.68	27.5544
1273.77	28.562
1274.86	25.7864
1275.95	29.2732
1277.04	29.2696
1278.12	29.626
1279.21	29.1979
1280.3	25.37
1281.39	26.43
1282.47	29.7794
1283.56	29.0021
1284.65	26.9235
1285.73	25.2344
1286.82	27.2732
1287.91	29.583
1288.99	31.6159
1290.08	33.3922
1291.16	32.3892
1292.25	28.1324
1293.33	28.6127
1294.42	28.2308
1295.5	29.1253
1296.59	30.1283
1297.67	25.0985
1298.76	28.136
1299.84	29.4804
1300.92	27.9891
1302.01	29.1817
1303.09	29.8425
1304.17	28.8522
1305.26	27.0666
1306.34	28.3339
1307.34	32
1308.43	31
1309.52	32
1310.61	26
1311.7	28
1312.78	26
1313.87	31
1314.96	34
1316.04	30
1317.13	31
1318.22	24
1319.3	24
1320.39	30
1321.48	26
1322.56	35
1323.65	26
1324.73	33
1325.82	28
1326.9	30
1327.99	32
1329.07	31
1330.16	28
1331.24	30
1332.33	26
1333.41	28
1334.5	28
1335.58	30
1336.66	24
1337.75	26
1338.83	29
1339.91	28
1341	31
1342.08	28
1343.16	30
1344.24	28
1345.33	33
1346.41	28
1347.49	28
1348.57	29
1349.65	27
1350.74	28
1351.82	26
1352.9	24
1353.98	32
1355.06	30
1356.14	30
1357.22	26
1358.3	25
1359.38	28
1360.46	24
1361.54	30
1362.62	28
1363.7	29
1364.78	26
1365.86	26
1366.94	30
1368.02	28
1369.09	32
1370.17	22
1371.25	32
1372.33	32
1373.41	26
1374.48	32
1375.56	28
1376.64	26
1377.72	25
1378.79	28
1379.87	26
1380.95	31
1382.02	32
1383.1	30
1384.17	32
1385.25	30
1386.33	30
1387.4	32
1388.48	31
1389.55	30
1390.63	27
1391.7	36
1392.78	30
1393.85	36
1394.93	30
1396	32
1397.07	30
1398.15	33
1399.22	32
1400.3	32
1401.37	29
1402.44	31
1403.52	36
1404.59	34
1405.66	30
1406.73	37
1407.81	24
1408.88	34
1409.95	36
1411.02	31
1412.09	34
1413.17	31
1414.24	37
1415.31	38
1416.38	36
1417.45	32
1418.52	30
1419.59	32
1420.66	32
1421.73	29
1422.8	28
1423.87	31
1424.94	35
1426.01	29
1427.08	30
1428.15	32
1429.22	29
1430.29	34
1431.35	22
1432.42	22
1433.49	32
1434.56	28
1435.63	28
1436.69	32
1437.76	30
1438.83	29
1439.9	26
1440.96	26
1442.03	29
1443.1	32
1444.17	29
1445.23	32
1446.3	32
1447.36	32
1448.43	28
1449.49	32
1450.56	28
1451.63	30
1452.69	26
1453.76	31
1454.82	29
1455.89	32
1456.95	34
1458.01	26
1459.08	27
1460.14	30
1461.21	26
1462.27	29
1463.34	28
1464.4	26
1465.46	30
1466.52	31
1467.59	28
1468.65	32
1469.71	34
1470.77	28
1471.84	27
1472.9	28
1473.96	31
1475.02	30
1476.08	28
1477.15	29
1478.21	28
1479.27	29
1480.33	30
1481.39	31
1482.45	32
1483.51	26
1484.57	28
1485.63	26
1486.69	31
1487.75	29
1488.81	27
1489.87	30
1490.93	28
1491.99	32
1493.05	27
1494.1	30
1495.16	28
1496.22	30
1497.28	31
1498.34	28
1499.4	30
1500.45	26
1501.51	30
1502.57	32
1503.63	27
1504.68	31
1505.74	29
1506.8	30
1507.85	32
1508.91	28
1509.97	30
1511.02	34
1512.08	30
1513.13	30
1514.19	34
1515.24	26
1516.3	27
1517.35	32
1518.41	28
1519.46	31
1520.52	32
1521.57	29
1522.63	30
1523.68	30
1524.73	30
1525.79	33
1526.84	31
1527.9	28
1528.95	28
1530	32
1531.05	32
1532.11	30
1533.16	28
1534.21	26
1535.26	30
1536.32	32
1537.37	32
1538.42	30
1539.47	31
1540.52	30
1541.57	33
1542.63	28
1543.68	33
1544.73	34
1545.78	26
1546.83	33
1547.88	31
1548.93	30
1549.98	26
1551.03	32
1552.08	29
1553.13	26
1554.18	30
1555.23	30
1556.27	29
1557.32	28
1558.37	30
1559.42	30
1560.47	32
1561.52	30
1562.56	26
1563.61	37
1564.66	29
1565.71	28
1566.75	27
1567.8	30
1568.85	34
1569.9	30
1570.94	26
1571.99	27
1573.03	30
1574.08	28
1575.13	31
1576.17	28
1577.22	32
1578.26	27
1579.31	34
1580.35	26
1581.4	33
1582.44	30
1583.49	35
1584.53	26
1585.58	24
1586.62	30
1587.66	28
1588.71	27
1589.75	24
1590.8	30
1591.84	30
1592.88	29
1593.92	28
1594.97	32
1596.01	31
1597.05	32
1598.1	33
1599.14	31
1600.18	34
1601.22	27
1602.26	29
1603.3	34
1604.35	24
1605.39	30
1606.43	29
1607.47	32
1608.51	32
1609.55	32
1610.59	29
1611.63	30
1612.67	28
1613.71	30
1614.75	25
1615.79	26
1616.83	29
1617.87	32
1618.91	29
1619.95	33
1620.99	31
1622.02	32
1623.06	30
1624.1	26
1625.14	24
1626.18	30
1627.21	24
1628.25	34
1629.29	33
1630.33	33
1631.36	30
1632.4	31
1633.44	32
1634.48	30
1635.51	28
1636.55	32
1637.58	34
1638.62	26
1639.66	32
1640.69	26
1641.73	31
1642.76	31
1643.8	30
1644.83	28
1645.87	32
1646.9	28
1647.94	30
1648.97	30
1650	32
1651.04	26
1652.07	34
1653.11	30
1654.14	32
1655.17	31
1656.21	34
1657.24	31
1658.27	27
1659.31	32
1660.34	34
1661.37	28
1662.4	26
1663.43	32
1664.47	31
1665.5	29
1666.53	26
1667.56	31
1668.59	28
1669.62	32
1670.66	28
1671.69	32
1672.72	27
1673.75	31
1674.78	32
1675.81	22
1676.84	29
1677.87	28
1678.9	28
1679.93	24
1680.96	26
1681.98	30
1683.01	31
1684.04	33
1685.07	26
1686.1	31
1687.13	26
1688.16	35
1689.18	27
1690.21	32
1691.24	27
1692.27	24
1693.3	30
1694.32	26
1695.35	32
1696.38	28
1697.4	30
1698.43	30
1699.46	30
1700.48	32
1701.51	28
1702.54	27
1703.56	28
1704.59	24
1705.61	30
1706.64	31
1707.66	28
1708.69	28
1709.71	34
1710.74	36
1711.76	28
1712.79	28
1713.81	33
1714.83	32
1715.86	28
1716.88	23
1717.91	33
1718.93	30
1719.95	28
1720.98	30
1722	27
1723.02	29
1724.04	30
1725.07	28
1726.09	30
1727.11	33
1728.13	33
1729.15	29
1730.18	35
1731.2	30
1732.22	26
1733.24	27
1734.26	29
1735.28	33
1736.3	30
1737.32	30
1738.34	30
1739.36	27
1740.38	26
1741.4	29
1742.42	25
1743.44	26
1744.46	32
1745.48	27
1746.5	28
1747.52	28
1748.54	33
1749.56	28
1750.58	31
1751.6	28
1752.61	26
1753.63	29
1754.65	28
1755.67	31
1756.68	26
1757.7	31
1758.72	29
1759.74	31
1760.75	29
1761.77	30
1762.79	27
1763.8	30
1764.82	22
1765.83	26
1766.85	28
1767.87	32
1768.88	28
1769.9	30
1770.91	30
1771.93	29
1772.94	26
1773.96	22
1774.97	24
1775.99	33
1777	28
1778.02	28
1779.03	31
1780.04	25
1781.06	32
1782.07	27
1783.09	32
1784.1	28
1785.11	34
1786.13	28
1787.14	25
1788.15	28
1789.16	32
1790.18	30
1791.19	30
1792.2	25
1793.21	32
1794.22	33
1795.23	34
1796.25	26
1797.26	30
1798.27	25
1799.28	26
1800.29	27
1801.3	28
1802.31	28
1803.32	31
1804.33	30
1805.34	26
1806.35	27
1807.36	24
1808.37	30
1809.38	20
1810.39	26
1811.4	30
1812.41	27
1813.42	30
1814.42	25
1815.43	31
1816.44	26
1817.45	29
1818.46	34
1819.47	31
1820.47	30
1821.48	27
1822.49	32
1823.49	23
1824.5	30
1825.51	26
1826.52	27
1827.52	30
1828.53	29
1829.53	23
1830.54	30
1831.55	29
1832.55	32
1833.56	26
1834.56	28
1835.57	30
1836.57	32
1837.58	28
1838.58	29
1839.59	31
1840.59	30
1841.6	26
1842.6	22
1843.61	24
1844.61	28
1845.61	28
1846.62	29
1847.62	27
1848.62	30
1849.63	29
1850.63	29
1851.63	28
1852.64	27
1853.64	27
1854.64	30
1855.64	31
1856.64	32
1857.65	27
1858.65	29
1859.65	29
1860.65	24
1861.65	24
1862.65	24
1863.65	28
1864.66	27
1865.66	26
1866.66	28
1867.66	29
1868.66	23
1869.66	32
1870.66	27
1871.66	30
1872.66	32
1873.66	32
1874.66	32
1875.65	29
1876.65	28
1877.65	32
1878.65	28
1879.65	32
1880.65	34
1881.65	31
1882.64	26
1883.64	30
1884.64	22
1885.64	28
1886.63	29
1887.63	28
1888.63	27
1889.63	32
1890.62	29
1891.62	28
1892.62	28
1893.61	32
1894.61	27
1895.6	30
1896.6	18
1897.6	27
1898.59	28
1899.59	32
1900.58	27
1901.58	29
1902.57	28
1903.57	28
1904.56	28
1905.56	26
1906.55	30
1907.54	34
1908.54	29
1909.53	30
1910.53	30
1911.52	33
1912.51	31
1913.51	30
1914.5	27
1915.49	25
1916.49	26
1917.48	24
1918.47	26
1919.46	30
1920.46	29
1921.45	25
1922.44	30
1923.43	33
1924.42	30
1925.41	26
1926.41	24
1927.4	30
1928.39	30
1929.38	30
1930.37	28
1931.36	29
1932.35	26
1933.34	27
1934.33	28
1935.32	26
1936.31	31
1937.3	26
1938.29	30
1939.28	28
1940.27	28
1941.26	26
1942.24	32
1943.23	25
1944.22	18
1945.21	32
1946.2	25
1947.19	29
1948.17	28
1949.16	27
1950.15	29.5
1951.14	32
1952.12	27
1953.11	24
1954.1	30
1955.09	24
1956.07	28
1957.06	31
1958.05	27
1959.03	30
1960.02	34
1961	25
1961.99	28
1962.98	28
1963.96	28
1964.95	27
1965.93	30
1966.92	31
1967.9	30
1968.89	26
1969.87	30
1970.85	26
1971.84	28
1972.82	28
1973.81	22
1974.79	26
1975.78	34
1976.76	28
1977.74	24
1978.73	27
1979.71	32
1980.69	30
1981.67	29
1982.66	30
1983.64	24
1984.62	27
1985.6	26
1986.59	20
1987.57	30
1988.55	28
1989.53	26
1990.51	28
1991.49	29
1992.47	28
1993.45	28
1994.44	26
1995.42	29
1996.4	28
1997.38	29
1998.36	31
1999.34	22
2000.32	25
2001.3	23
2002.28	30
2003.26	29
2004.24	34
2005.22	29
2006.19	24
2007.17	24
2008.15	30
2009.13	27
2010.11	30
2011.09	27
2012.06	30
2013.04	28
2014.02	30
2015	31
2015.98	30
2016.95	32
2017.93	22
2018.91	20
2019.88	27
2020.86	22
2021.84	26
2022.81	28
2023.79	28
2024.77	24
2025.74	22
2026.72	28
2027.69	26
2028.67	33
2029.65	24
2030.62	30
2031.6	24
2032.57	29
2033.55	25
2034.52	30
2035.5	30
2036.47	20
2037.44	28
2038.42	25
2039.39	24
2040.36	24
2041.34	31
2042.31	31
2043.29	27
2044.26	30
2045.23	28
2046.2	33
2047.18	23
2048.15	26
2049.12	26
2050.09	25
2051.07	23
2052.04	26
2053.01	31
2053.98	31
2054.95	26
2055.93	30
2056.9	26
2057.87	24
2058.84	28
2059.81	24
2060.78	23
2061.75	30
2062.72	31
2063.69	28
2064.66	22
2065.63	28
2066.6	29
2067.57	27
2068.54	24
2069.51	24
2070.48	22
2071.45	30
2072.42	28
2073.38	30
2074.35	30
2075.32	24
2076.29	31
2077.26	30
2078.23	28
2079.19	28
2080.16	24
2081.13	32
2082.1	30
2083.06	27
2084.03	26
2085	24
2085.96	32
2086.93	24
2087.9	28
2088.86	23
2089.83	24
2090.8	29
2091.76	30
2092.73	28
2093.69	27
2094.66	30
2095.62	26
2096.59	21
2097.55	30
2098.52	20
2099.48	28
2100.45	25
2101.41	26
2102.38	30
2103.34	28
2104.31	24
2105.27	30
2106.23	26
2107.2	28
2108.16	28
2109.12	25
2110.09	31
2111.05	17
2112.01	27
2112.98	24
2113.94	25
2114.9	24
2115.86	22
2116.82	24
2117.79	29
2118.75	31
2119.71	28
2120.67	30
2121.63	33
2122.59	28
2123.55	26
2124.52	30
2125.48	27
2126.44	28
2127.4	29
2128.36	22
2129.32	26
2130.28	26
2131.24	28
2132.2	20
2133.16	27
2134.12	26
2135.08	27
2136.04	22
2136.99	30
2137.95	28
2138.91	28
2139.87	30
2140.83	27
2141.79	24
2142.75	29
2143.7	31
2144.66	23
2145.62	27.9981
2146.58	28.9251
2147.53	29.8347
2148.49	27.9398
2149.45	29.9457
2150.41	25.0539
2151.36	27.8641
2152.32	26.7883
2153.27	26.9167
2154.23	27.8089
2155.19	28.6025
2156.14	22.6671
2157.1	27.7639
2158.06	28.8758
2159.01	27.4265
2159.97	21.5131
2160.92	26.3235
2161.88	24.6717
2162.83	25.7347
2163.79	28.8529
2164.74	30.5922
2165.7	27.5764
2166.65	25.7825
2167.61	27.7192
2168.56	29.9974
2169.51	28.5222
2170.47	27.1992
2171.42	26.687
2172.38	32.939
2173.33	26.5353
2174.28	25.6026
2175.24	28.801
2176.19	24.5958
2177.14	25.6945
2178.09	21.4496
2179.05	26.1659
2180	24.3846
2180.95	26.8048
2181.9	25.4622
2182.86	26.7864
2183.81	24.4747
2184.76	22.9414
2185.71	24.1317
2186.66	24.1544
2187.61	26.2721
2188.57	27.3327
2189.52	24.2123
2190.47	23.6643
2191.42	24.4265
2192.37	26.5147
2193.32	23.9804
2194.27	23.8848
2195.22	26.1688
2196.17	28.9845
2197.12	25.061
2198.07	25.2466
2199.02	25.9957
2199.97	23.1614
2200.92	26.2066
2201.87	26.5347
2202.82	25.8118
2203.76	24.7431
2204.71	23.177
2205.66	22.3775
2206.61	24.9412
2207.56	25.4883
2208.51	27.1796
2209.45	26.9844
2210.4	27.8331
2211.35	26.6654
2212.3	26.4064
2213.24	25.1252
2214.19	25.9436
2215.14	26.1987
2216.09	25.4608
2217.03	24.6725
2217.98	26.0976
2218.93	28.8606
2219.87	27.3861
2220.82	26.5405
2221.77	28.6327
2222.71	28.8505
2223.66	24.5371
2224.6	24.7397
2225.55	26.9343
2226.49	24.2535
2227.44	27.6658
2228.38	26.0751
2229.33	30.1357
2230.27	27.0664
2231.22	25.7106
2232.16	25.1995
2233.11	24.1863
2234.05	24.7362
2235	28.9174
2235.94	31.6176
2236.88	28.237
2237.83	26.5735
2238.77	26.2541
2239.71	25.951
2240.66	28.8213
2241.6	28.0879
2242	26
2242.95	24
2243.9	27
2244.84	26
2245.79	22
2246.74	25
2247.69	30
2248.63	30
2249.58	20
2250.53	20
2251.47	27
2252.42	29
2253.37	30
2254.31	26
2255.26	27
2256.2	26
2257.15	26
2258.1	26
2259.04	28
2259.99	28
2260.93	25
2261.88	26
2262.82	24
2263.77	20
2264.71	28
2265.65	22
2266.6	27
2267.54	26
2268.49	23
2269.43	27
2270.38	27
2271.32	29
2272.26	24
2273.21	23
2274.15	26
2275.09	26
2276.04	31
2276.98	22
2277.92	25
2278.86	30
2279.81	28
2280.75	29
2281.69	25
2282.63	26
2283.57	28
2284.52	25
2285.46	24
2286.4	33
2287.34	26
2288.28	26
2289.22	26
2290.16	27
2291.1	26
2292.04	31
2292.98	31
2293.93	27
2294.86	28
2295.8	28
2296.74	26
2297.69	25
2298.62	28
2299.56	26
2300.5	27
2301.44	30
2302.38	26
2303.32	30
2304.26	26
2305.2	26
2306.14	22
2307.07	18
2308.01	27
2308.95	29
2309.89	24
2310.83	25
2311.76	28
2312.7	26
2313.64	29
2314.58	27
2315.51	30
2316.45	28
2317.39	33
2318.32	24
2319.26	24
2320.2	31
2321.13	27
2322.07	28
2323	24
2323.94	26
2324.88	22
2325.81	26
2326.75	31
2327.68	21
2328.62	24
2329.55	27
2330.49	23
2331.42	28
2332.36	28
2333.29	24
2334.22	29
2335.16	30
2336.09	28
2337.03	30
2337.96	24
2338.89	27
2339.83	28
2340.76	20
2341.69	20
2342.63	26
2343.56	24
2344.49	25
2345.43	34
2346.36	28
2347.29	26
2348.22	28
2349.15	22
2350.09	30
2351.02	22
2351.95	26
2352.88	25
2353.81	31
2354.74	22
2355.67	23
2356.61	27
2357.54	30
2358.47	26
2359.4	30
2360.33	28
2361.26	28
2362.19	24
2363.12	24
2364.05	30
2364.98	29
2365.91	28
2366.84	29
2367.77	26
2368.7	25
2369.62	28
2370.55	26
2371.48	32
2372.41	28
2373.34	26
2374.27	26
2375.2	22
2376.12	22
2377.05	24
2377.98	26
2378.91	26
2379.83	26
2380.76	31
2381.69	23
2382.62	28
2383.54	28
2384.47	23
2385.4	27
2386.32	30
2387.25	26
2388.18	26
2389.1	25
2390.03	24
2390.95	22
2391.88	29
2392.81	25
2393.73	28
2394.66	30
2395.58	31
2396.51	24
2397.43	32
2398.36	24
2399.28	27
2400.2	24
2401.13	27
2402.05	24
2402.98	26
2403.9	24
2404.83	34
2405.75	28
2406.67	31
2407.6	27
2408.52	29
2409.44	26
2410.37	25
2411.29	24
2412.21	22
2413.13	27
2414.06	25
2414.98	25
2415.9	29
2416.82	29
2417.74	30
2418.67	27
2419.59	28
2420.51	24
2421.43	27
2422.35	33
2423.27	24
2424.19	22
2425.11	26
2426.03	28
2426.96	28
2427.88	26
2428.8	24
2429.72	30
2430.64	30
2431.56	29
2432.48	26
2433.39	27
2434.31	30
2435.23	32
2436.15	26
2437.07	26
2437.99	31
2438.91	32
2439.83	26
2440.75	26
2441.67	29
2442.58	29
2443.5	28
2444.42	30
2445.34	30
2446.26	27
2447.17	26
2448.09	27
2449.01	26
2449.92	25
2450.84	26
2451.76	26
2452.68	32
2453.59	24
2454.51	29
2455.42	28
2456.34	23
2457.26	28
2458.17	24
2459.09	22
2460	30
2460.92	27
2461.83	24
2462.75	28
2463.66	30
2464.58	27
2465.49	32
2466.41	27
2467.32	27
2468.24	28
2469.15	28
2470.07	27
2470.98	30
2471.89	28
2472.81	30
2473.72	32
2474.64	32
2475.55	22
2476.46	29
2477.37	27
2478.29	24
2479.2	29
2480.11	28
2481.03	28
2481.94	26
2482.85	30
2483.76	33
2484.67	24
2485.59	28
2486.5	30
2487.41	27
2488.32	28
2489.23	24
2490.14	29
2491.05	26
2491.97	32
2492.88	25
2493.79	28
2494.7	29
2495.61	26
2496.52	24
2497.43	25
2498.34	28
2499.25	24
2500.16	25
2501.07	33
2501.98	27
2502.89	27
2503.79	28
2504.7	32
2505.61	28
2506.52	28
2507.43	30
2508.34	24
2509.25	30
2510.16	31
2511.06	28
2511.97	22
2512.88	30
2513.79	24
2514.69	30
2515.6	28
2516.51	22
2517.42	30
2518.32	30
2519.23	26
2520.14	28
2521.04	28
2521.95	25
2522.86	26
2523.76	32
2524.67	28
2525.57	33
2526.48	22
2527.39	32
2528.29	18
2529.2	30
2530.1	26
2531.01	26
2531.91	22
2532.82	28
2533.72	27
2534.63	26
2535.53	29
2536.44	24
2537.34	28
2538.24	28
2539.15	28
2540.05	24
2540.96	29
2541.86	26
2542.76	29
2543.67	28
2544.57	26
2545.47	26
2546.37	29
2547.28	25
2548.18	29
2549.08	24
2549.99	28
2550.89	26
2551.79	28
2552.69	28
2553.59	28
2554.49	28
2555.4	30
2556.3	28
2557.2	24
2558.1	28
2559	22
2559.9	28
2560.8	22
2561.7	28
2562.6	29
2563.5	30
2564.4	26
2565.3	25
2566.2	28
2567.1	31
2568	31
2568.9	26
2569.8	29
2570.7	25
2571.6	28
2572.5	28
2573.4	24
2574.3	26
2575.2	30
2576.1	24
2576.99	26
2577.89	25
2578.79	29
2579.69	32
2580.59	26
2581.48	29
2582.38	25
2583.28	29
2584.18	31
2585.07	28
2585.97	26
2586.87	23
2587.76	26
2588.66	25
2589.56	30
2590.45	26
2591.35	29
2592.25	30
2593.14	26
2594.04	26
2594.93	33
2595.83	23
2596.73	26
2597.62	28
2598.52	30
2599.41	32
2600.31	34
2601.2	26
2602.1	27
2602.99	26
2603.88	24
2604.78	30
2605.67	28
2606.57	30
2607.46	26
2608.35	32
2609.25	28
2610.14	28
2611.03	28
2611.93	29
2612.82	34
2613.71	33
2614.61	30
2615.5	24
2616.39	30
2617.29	31
2618.18	26
2619.07	22
2619.96	26
2620.85	28
2621.75	28
2622.64	30
2623.53	26
2624.42	28
2625.31	33
2626.2	26
2627.09	28
2627.98	31
2628.88	32
2629.77	30
2630.66	28
2631.55	31
2632.44	30
2633.33	27
2634.22	28
2635.11	28
2636	29
2636.89	31
2637.78	26
2638.66	26
2639.55	22
2640.44	30
2641.33	30
2642.22	32
2643.11	27
2644	27
2644.89	23
2645.78	25
2646.66	25
2647.55	34
2648.44	33
2649.33	18
2650.21	26
2651.1	31
2651.99	30
2652.88	31
2653.76	26
2654.65	26
2655.54	25
2656.42	30
2657.31	32
2658.2	27
2659.08	24
2659.97	27
2660.86	28
2661.74	24
2662.63	27
2663.51	28
2664.4	22
2665.29	27
2666.17	28
2667.06	31
2667.94	30
2668.83	26
2669.71	27
2670.6	28
2671.48	28
2672.36	27
2673.25	31
2674.13	26
2675.02	27
2675.9	28
2676.78	25
2677.67	27
2678.55	29
2679.43	32
2680.32	26
2681.2	32
2682.08	31
2682.97	32
2683.85	28
2684.73	24
2685.61	29
2686.5	29
2687.38	22
2688.26	24
2689.14	29
2690.03	26
2690.91	27
2691.79	24
2692.67	31
2693.55	28
2694.43	24
2695.31	29
2696.19	25
2697.08	26
2697.96	22
2698.84	28
2699.72	25
2700.6	26
2701.48	26
2702.36	30
2703.24	28
2704.12	26
2705	30
2705.88	20
2706.76	27
2707.64	31
2708.51	24
2709.39	25
2710.27	28
2711.15	25
2712.03	26
2712.91	25
2713.79	27
2714.67	26
2715.54	28
2716.42	26
2717.3	27
2718.18	23
2719.05	30
2719.93	28
2720.81	30
2721.69	31
2722.56	26
2723.44	22
2724.32	25
2725.19	30
2726.07	26
2726.95	24
2727.82	25
2728.7	27
2729.58	28
2730.45	30
2731.33	30
2732.2	33
2733.08	20
2733.95	27
2734.83	28
2735.7	32
2736.58	24
2737.45	29
2738.33	28
2739.2	24
2740.08	28
2740.95	27
2741.83	28
2742.7	29
2743.58	24
2744.45	28
2745.32	24
2746.2	29
2747.07	26
2747.94	28
2748.82	26
2749.69	29
2750.56	24
2751.44	32
2752.31	24
2753.18	28
2754.05	24
2754.93	23
2755.8	29
2756.67	22
2757.54	26
2758.42	24
2759.29	26
2760.16	26
2761.03	24
2761.9	26
2762.77	25
2763.64	32
2764.51	27
2765.38	30
2766.26	29
2767.13	22
2768	26
2768.87	24
2769.74	26
2770.61	25
2771.48	29
2772.35	27
2773.22	30
2774.09	28
2774.96	30
2775.83	27
2776.7	23
2777.56	30
2778.43	22
2779.3	28
2780.17	27
2781.04	26
2781.91	25
2782.78	25
2783.64	28
2784.51	27
2785.38	28
2786.25	24
2787.12	28
2787.98	29
2788.85	30
2789.72	26
2790.59	30
2791.45	29
2792.32	28
2793.19	25
2794.05	30
2794.92	32
2795.79	28
2796.65	30
2797.52	24
2798.38	28
2799.25	30
2800.12	29
2800.98	29
2801.85	29
2802.71	30
2803.58	30
2804.44	26
2805.31	28
2806.17	26
2807.04	24
2807.9	25
2808.77	32
2809.63	26
2810.5	24
2811.36	34
2812.22	30
2813.09	28
2813.95	28
2814.82	28
2815.68	28
2816.54	22
2817.41	29
2818.27	28
2819.13	28
2820	26
2820.86	29
2821.72	26
2822.58	30
2823.45	28
2824.31	31
2825.17	26
2826.03	27
2826.9	24
2827.76	30
2828.62	28
2829.48	28
2830.34	31
2831.2	31
2832.06	31
2832.92	30
2833.79	27
2834.65	30
2835.51	28
2836.37	29
2837.23	20
2838.09	28
2838.95	31
2839.81	22
2840.67	30
2841.53	27
2842.39	26
2843.25	34
2844.11	28
2844.97	30
2845.83	28
2846.68	29
2847.54	30
2848.4	24
2849.26	28
2850.12	20
2850.98	30
2851.84	26
2852.69	26
2853.55	27
2854.41	30
2855.27	28
2856.13	32
2856.98	26
2857.84	28
2858.7	28
2859.56	27
2860.41	26
2861.27	29
2862.13	26
2862.98	28
2863.84	32
2864.7	22
2865.55	28
2866.41	31
2867.27	30
2868.12	26
2868.98	29
2869.83	24
2870.69	31
2871.54	28
2872.4	24
2873.25	33
2874.11	28
2874.96	28
2875.82	35
2876.68	33
2877.53	31
2878.38	28
2879.24	28
2880.09	38
2880.95	36
2881.8	30
2882.65	30
2883.51	33
2884.36	39
2885.22	29
2886.07	27
2886.92	36
2887.77	34
2888.63	26
2889.48	35
2890.33	33
2891.19	46
2892.04	40
2892.89	38
2893.74	36
2894.6	36
2895.45	42
2896.3	44
2897.15	49
2898	45
2898.85	46
2899.71	46
2900.56	54
2901.41	52
2902.26	64
2903.11	60
2903.96	59
2904.81	59
2905.66	62
2906.51	61
2907.36	61
2908.21	58
2909.06	64
2909.91	59
2910.76	54
2911.61	50
2912.46	52
2913.31	54
2914.16	46
2915.01	42
2915.86	48
2916.71	42
2917.56	41
2918.41	42
2919.26	40
2920.1	40
2920.95	39
2921.8	34
2922.65	41
2923.5	34
2924.34	36
2925.19	39
2926.04	35
2926.89	30
2927.74	34
2928.58	36
2929.43	29
2930.28	30
2931.12	34
2931.97	30
2932.82	30
2933.66	32
2934.51	30
2935.36	32
2936.2	30
2937.05	33
2937.89	30
2938.74	30
2939.59	28
2940.43	30
2941.28	30
2942.12	32
2942.97	33
2943.81	26
2944.66	28
2945.5	30
2946.35	32
2947.19	29
2948.04	32
2948.88	28
2949.72	27
2950.57	34
2951.41	33
2952.26	30
2953.1	35
2953.94	32
2954.79	33
2955.63	30
2956.47	36
2957.32	34
2958.16	35
2959	36
2959.85	36
2960.69	36
2961.53	42
2962.37	35
2963.22	42
2964.06	38
2964.9	44
2965.74	45
2966.58	38
2967.42	39
2968.27	43
2969.11	35
2969.95	40
2970.79	36
2971.63	40
2972.47	38
2973.31	36
2974.15	39
2974.99	34
2975.83	30
2976.68	34
2977.52	35
2978.36	35
2979.2	29
2980.04	34
2980.88	34
2981.71	28
2982.55	32
2983.39	30
2984.23	28
2985.07	26
2985.91	30
2986.75	35
2987.59	30
2988.43	29
2989.27	22
2990.1	26
2990.94	25
2991.78	25
2992.62	35
2993.46	29
2994.3	30
2995.13	33
2995.97	27
2996.81	28
2997.64	31
2998.48	28
2999.32	29
