#Acq. time (s)=	3
#Accumulations=	3
#Range (cm-¹)=	100...3000
#Windows=	3
#Autofocus=	Off
#AutoExposure=	Off
#Spike filter=	Multiple accum.
#Delay time (s)=	0
#Binning=	1
#Readout mode=	Signal
#DeNoise=	Off
#ICS correction=	Off
#Dark correction=	Off
#Inst. Process=	Off
#Instrument=	LabRAM HR Evol
#Detector=	Syncerity OE
#Objective=	x100_VIS_LWD
#Grating=	600 (500nm)
#ND Filter=	25%
#Laser=	633nm_Edge
#Hole=	100.021
#Range=	Visible
#Project=	Bolus
#Sample=	B4
#Site=	stripside
#Title=	m07
#Remark=	
#Date=	03.11.2025 19:52
#Acquired=	03.11.2025 19:52:42
100.969	30
102.252	35
103.535	37
104.818	38
106.101	36
107.384	37
108.666	27
109.948	30
111.232	36
112.514	31
113.795	37
115.077	34
116.358	36
117.639	41
118.919	34
120.2	32
121.48	33
122.76	30
124.04	34
125.32	32
126.599	38
127.879	40
129.158	39
130.436	32
131.715	38
132.992	34
134.27	37
135.548	34
136.826	40
138.104	36
139.381	42
140.658	40
141.935	41
143.212	42
144.489	45
145.763	40
147.04	38
148.315	41
149.591	40
150.867	41
152.142	44
153.416	39
154.691	42
155.965	46
157.24	50
158.514	46
159.786	44
161.06	42
162.334	42
163.607	41
164.881	44
166.152	44
167.425	48
168.698	43
169.969	42
171.241	49
172.513	44
173.785	32
175.055	38
176.326	46
177.597	44
178.867	45
180.137	48
181.408	44
182.677	43
183.947	44
185.217	42
186.485	41
187.755	45
189.022	36
190.291	42
191.56	44
192.828	46
194.096	43
195.363	42
196.631	47
197.899	43
199.165	42
200.432	44
201.698	44
202.965	39
204.23	42
205.497	43
206.762	39
208.028	42
209.293	35
210.559	42
211.823	40
213.088	38
214.352	40
215.617	37
216.88	37
218.145	34
219.408	40
220.672	33
221.934	36
223.196	35
224.46	38
225.722	34
226.985	40
228.246	39
229.508	35
230.77	34
232.031	36
233.292	37
234.554	37
235.814	32
237.074	38
238.335	36
239.595	36
240.854	38
242.115	40
243.374	30
244.633	41
245.893	34
247.151	32
248.409	40
249.667	34
250.927	37
252.184	34
253.442	36
254.699	34
255.957	30
257.214	30
258.47	34
259.727	26
260.983	35
262.24	35
263.496	34
264.752	35
266.007	35
267.262	36
268.517	35
269.773	31
271.028	36
272.282	29
273.536	36
274.79	32
276.044	34
277.297	31
278.551	36
279.804	34
281.057	30
282.31	30
283.564	32
284.816	36
286.068	38
287.32	33
288.572	32
289.823	35
291.074	31
292.325	38
293.576	38
294.827	34
296.077	36
297.328	34
298.578	22
299.828	30
301.077	34
302.325	33
303.575	38
304.824	35
306.073	38
307.321	34
308.57	32
309.818	30
311.066	30
312.314	35
313.562	34
314.808	35
316.055	30
317.302	33
318.549	28
319.796	35
321.042	32
322.288	28
323.533	30
324.779	27
326.024	32
327.27	34
328.515	32
329.759	34
331.004	32
332.248	33
333.493	28
334.736	32
335.98	30
337.223	34
338.466	36
339.709	30
340.952	31
342.195	28
343.437	34
344.68	36
345.922	34
347.163	28
348.405	28
349.647	22
350.887	34
352.128	32
353.37	35
354.609	28
355.85	34
357.089	36
358.33	33
359.57	29
360.809	30
362.049	26
363.287	26
364.526	32
365.764	35
367.003	30
368.241	34
369.479	36
370.718	30
371.955	36
373.193	28
374.429	30
375.667	24
376.903	32
378.139	32
379.376	33
380.611	32
381.848	28
383.083	34
384.319	38
385.554	36
386.79	32
388.024	33
389.258	34
390.493	34
391.727	28
392.962	37
394.195	33
395.428	31
396.663	35
397.895	31
399.128	35
400.361	31
401.593	32
402.825	31
404.058	32
405.29	35
406.521	30
407.752	34
408.985	32
410.215	36
411.446	29
412.678	32
413.908	36
415.138	32
416.367	30
417.597	35
418.828	34
420.057	34
421.286	37
422.514	32
423.743	37
424.973	36
426.201	28
427.429	32
428.657	32
429.884	39
431.112	30
432.34	33
433.567	34
434.794	39
436.02	30
437.247	34
438.473	33
439.699	32
440.925	36
442.15	36
443.376	29
444.601	34
445.826	34
447.051	30
448.275	36
449.5	35
450.724	30
451.948	36
453.172	34
454.396	38
455.619	37
456.842	34
458.065	30
459.288	36
460.511	38
461.733	36
462.956	38
464.178	34
465.4	36
466.621	35
467.843	40
469.064	34
470.285	42
471.505	34
472.726	34
473.946	36
475.166	45
476.387	44
477.606	43
478.825	43
480.044	50
481.264	54
482.483	53
483.702	54
484.921	58
486.138	61
487.356	64
488.574	60
489.792	60
491.009	60
492.226	59
493.444	56
494.661	55
495.877	59
497.094	53
498.31	56
499.525	52
500.741	49
501.958	56
503.172	44
504.388	44
505.603	44
506.817	42
508.032	43
509.247	42
510.46	38
511.675	40
512.888	40
514.102	34
515.316	40
516.528	41
517.742	38
518.954	36
520.167	37
521.378	38
522.591	37
523.802	35
525.015	34
526.226	36
527.438	34
528.648	32
529.86	35
531.07	37
532.281	36
533.491	33
534.702	36
535.911	37
537.121	31
538.33	38
539.54	35
540.749	33
541.957	32
543.167	35
544.375	30
545.584	32
546.791	38
547.999	35
549.207	35
550.414	34
551.621	28
552.829	38
554.035	37
555.241	30
556.449	30
557.655	34
558.86	30
560.066	32
561.272	35
562.477	36
563.682	26
564.888	34
566.093	37
567.297	32
568.501	30
569.705	36
570.91	32
572.114	33
573.317	38
574.52	30
575.723	37
576.927	34
578.13	34
579.332	33
580.535	32
581.737	28
582.938	31
584.14	35
585.343	37
586.544	30
587.745	36
588.946	32
590.147	28
591.347	28
592.548	30
593.748	34
594.948	36
596.147	30
597.347	34
598.546	32
599.745	36
600.944	28
602.143	33
603.342	32
604.54	32
605.738	32
606.937	32
608.134	32
609.332	29
610.529	32
611.727	34
612.924	36
614.121	34
615.317	32
616.513	34
617.709	34
618.905	32
620.101	36
621.297	32
622.492	37
623.688	30
624.883	32
626.077	32
627.271	43
628.466	36
629.66	34
630.855	30
632.047	30
633.241	28
634.435	33
635.629	32
636.82	33
638.014	31
639.207	30
640.399	34
641.59	35
642.783	24
643.975	28
645.166	30
646.357	38
647.549	36
648.741	33
649.93	34
651.122	35
652.311	30
653.502	34
654.692	24
655.881	44
657.071	26
658.261	35
659.45	36
660.639	30
661.827	33
663.016	38
664.204	32
665.393	35
666.581	32
667.769	34
668.957	36
670.143	32
671.331	38
672.518	32
673.705	34
674.891	32
676.078	30
677.264	34
678.451	36
679.636	38
680.821	41
682.007	34
683.192	38
684.378	39
685.562	40
686.747	41
687.931	32
689.115	34
690.3	32
691.483	39
692.666	39
693.851	35
695.034	40
696.216	33
697.4	40
698.582	43
699.764	41
700.948	45
702.129	38
703.311	40
704.493	46
705.674	46
706.855	45
708.036	48
709.218	51
710.399	52
711.579	46
712.759	51
713.939	38
715.12	48
716.299	42
717.478	40
718.657	30
719.836	34
721.015	36
722.195	34
723.373	35
724.552	36
725.729	37
726.907	26
728.085	30
729.262	31
730.44	30
731.617	28
732.795	33
733.972	32
735.148	28
736.324	35
737.501	35
738.677	34
739.852	32
741.028	34
742.203	31
743.379	32
744.554	32
745.729	32
746.903	37
748.078	34
749.252	30
750.426	33
751.599	34
752.772	29
753.946	33
755.119	34
756.293	34
757.466	37
758.639	35
759.811	38
760.984	33
762.155	34
763.327	33
764.499	30
765.67	36
766.842	36
768.013	38
769.183	31
770.354	34
771.525	28
772.696	32
773.865	37
775.035	38
776.205	40
777.375	35
778.544	37
779.713	39
780.882	30
782.052	35
783.219	40
784.388	42
785.557	34
786.724	38
787.892	28
789.06	36
790.227	42
791.395	34
792.562	36
793.728	30
794.895	26
796.061	34
797.228	36
798.395	34
799.56	36
800.726	34
801.891	32
803.057	32
804.221	32
805.387	34
806.551	36
807.716	28
808.879	32
810.044	34
811.208	30
812.372	37
813.535	32
814.699	35
815.862	31
817.025	32
818.188	33
819.351	31
820.513	31
821.675	32
822.837	32
823.999	31
825.161	28
826.322	32
827.483	30
828.645	32
829.805	34
830.966	26
832.127	28
833.287	30
834.447	34
835.607	31
836.767	34
837.926	31
839.085	37
840.245	33
841.404	32
842.562	34
843.72	28
844.88	34
846.038	30
847.195	37
848.353	34
849.512	32
850.669	32
851.826	34
852.983	28
854.139	34
855.296	28
856.453	36
857.609	30
858.765	30
859.921	34
861.077	34
862.232	30
863.387	32
864.542	34
865.697	33
866.852	32
868.008	33
869.162	26
870.316	37
871.47	32
872.624	32
873.778	32
874.931	32
876.084	26
877.237	30
878.39	32
879.543	32
880.695	33
881.846	33
882.999	30
884.151	28
885.302	32
886.454	33
887.606	30
888.757	28
889.908	33
891.059	28
892.21	33
893.359	30
894.509	37
895.659	32
896.81	40
897.959	30
899.109	33
900.257	30
901.407	35
902.556	26
903.705	36
904.854	31
906.001	32
907.149	30
908.298	26
909.446	34
910.592	28
911.74	30
912.888	32
914.034	32
915.181	31
916.328	27
917.473	30
918.62	30
919.766	37
920.911	28
922.058	25
923.204	34
924.348	34
925.494	34
926.638	28
927.783	33
928.928	34
930.072	26
931.216	32
932.36	30
933.504	34
934.647	28
935.791	31
936.933	32
938.077	29
939.219	30
940.363	32
941.504	31
942.647	36
943.789	32
944.932	32
946.073	30
947.215	28
948.356	33
949.498	36
950.638	33
951.778	33
952.92	32
954.06	28
955.199	36
956.34	30
957.479	28
958.62	35
959.759	34
960.898	32
962.038	32
963.176	35
964.315	30
965.453	30
966.592	30
967.73	29
968.867	34
970.006	26
971.144	31
972.281	34
973.418	28
974.554	33
975.692	29
976.829	36
977.965	28
979.101	30
980.237	33
981.374	34
982.509	30
983.645	31
984.78	32
985.915	28
987.05	33
988.184	37
989.319	33
990.453	28
991.589	31
992.722	29
993.856	34
994.99	26
996.123	35
997.257	34
998.39	24
999.523	32
1000.66	34
1001.79	24
1002.92	32
1004.05	25
1005.18	32
1006.32	29
1007.45	32
1008.58	36
1009.71	32
1010.84	28
1011.97	22
1013.1	28
1014.23	30
1015.36	27
1016.49	26
1017.62	28
1018.75	30
1019.88	26
1021.01	28
1022.14	36
1023.27	36
1024.4	36
1025.53	33
1026.66	32
1027.79	34
1028.91	26
1030.04	31
1031.17	29
1032.3	29
1033.42	28
1034.55	33
1035.68	37
1036.81	32
1037.93	36
1039.06	28
1040.18	30
1041.31	30
1042.44	26
1043.56	32
1044.69	33
1045.81	36
1046.94	26
1048.06	34
1049.19	30
1050.31	28
1051.44	26
1052.56	31
1053.69	30
1054.81	34
1055.93	30
1057.06	33
1058.18	30
1059.3	30
1060.43	34
1061.55	34
1062.67	31
1063.79	35
1064.92	28
1066.04	28
1067.16	28
1068.28	34
1069.4	27
1070.52	26
1071.65	32
1072.77	36
1073.89	30
1075.01	30
1076.13	28
1077.25	34
1078.37	28
1079.49	28
1080.61	30
1081.73	29
1082.85	28
1083.97	32
1085.09	30
1086.2	30
1087.32	33
1088.44	28
1089.56	32
1090.68	30
1091.8	26
1092.91	33
1094.03	22
1095.15	32
1096.26	24
1097.38	26
1098.5	32
1099.61	32
1100.73	32
1101.85	31
1102.96	31
1104.08	32
1105.19	27
1106.31	26
1107.43	29
1108.54	32
1109.66	28
1110.77	29
1111.88	30
1113	28
1114.11	26
1115.23	28
1116.34	32
1117.46	31
1118.57	30
1119.68	28
1120.8	28
1121.91	25
1123.02	30
1124.13	32
1125.25	32
1126.36	30
1127.47	30
1128.58	30
1129.69	29
1130.8	28
1131.92	33
1133.03	24
1134.14	32
1135.25	28
1136.36	32
1137.47	30
1138.58	30
1139.69	27
1140.8	24
1141.91	29
1143.02	31
1144.13	29
1145.24	31
1146.35	32
1147.46	25
1148.56	28
1149.67	27
1150.78	32
1151.89	29
1153	26
1154.1	31
1155.21	30
1156.32	26
1157.43	30
1158.53	30
1159.64	30
1160.75	32
1161.85	34
1162.96	27
1164.07	33
1165.17	32
1166.28	32
1167.38	33
1168.49	31
1169.59	27
1170.7	28
1171.8	29
1172.91	28
1174.01	28
1175.12	29
1176.22	32
1177.32	24
1178.43	33
1179.53	30
1180.64	27
1181.74	30
1182.84	33
1183.94	24
1185.05	29
1186.15	34
1187.25	28
1188.35	33
1189.46	26
1190.56	30
1191.66	29
1192.76	27
1193.86	30
1194.96	28
1196.06	27.9706
1197.16	31.8363
1198.26	26.8833
1199.37	26.1219
1200.47	33.8544
1201.57	32.7304
1202.67	24.3239
1203.77	29.803
1204.86	30.7213
1205.96	30
1207.06	30.6822
1208.16	31.3235
1209.26	33.145
1210.36	30.1998
1211.46	26.6467
1212.56	30.0893
1213.65	27.7494
1214.75	29.5817
1215.85	26.8413
1216.95	22.1518
1218.04	31.1008
1219.14	29.2675
1220.24	26.1012
1221.33	24.9539
1222.43	26.2358
1223.53	30.9506
1224.62	30.9715
1225.72	30.8123
1226.82	28.13
1227.91	29.9755
1229.01	28.0589
1230.1	26.7796
1231.2	27.1939
1232.29	25.9818
1233.39	25.2602
1234.48	27.6548
1235.58	28.2896
1236.67	29.0413
1237.77	24.8873
1238.86	29.522
1239.95	27.8909
1241.05	26.6473
1242.14	28.1586
1243.23	29.3799
1244.33	28.0036
1245.42	30.2967
1246.51	28.5826
1247.61	27.6945
1248.7	28.5245
1249.79	28.7059
1250.88	27.1389
1251.97	29.7068
1253.07	28.8063
1254.16	26.5245
1255.25	28.2315
1256.34	26.4559
1257.43	28.5028
1258.52	33.6422
1259.61	27.3869
1260.7	30.2506
1261.79	30.3125
1262.88	30.1441
1263.97	29.4383
1265.06	29.3454
1266.15	32.1385
1267.24	30.0296
1268.33	30.9686
1269.42	26.8247
1270.51	29.638
1271.6	28.4029
1272.68	28.3191
1273.77	26.6928
1274.86	29.3949
1275.95	25.9875
1277.04	26.6941
1278.12	27.3662
1279.21	26
1280.3	28.339
1281.39	30.9307
1282.47	30.4161
1283.56	26.7892
1284.65	26.6579
1285.73	28.051
1286.82	27.4552
1287.91	28.8653
1288.99	27.8788
1290.08	30.3533
1291.16	24.0634
1292.25	22.1804
1293.33	27.7599
1294.42	25.8819
1295.5	25.7429
1296.59	27.5019
1297.67	28.7594
1298.76	26.6507
1299.84	27.5711
1300.92	24.9352
1302.01	26.0934
1303.09	27.1433
1304.17	28.7905
1305.26	26.2734
1306.34	29.0774
1307.34	30
1308.43	24
1309.52	29
1310.61	29
1311.7	28
1312.78	29
1313.87	22
1314.96	28
1316.04	30
1317.13	24
1318.22	30
1319.3	25
1320.39	24
1321.48	28
1322.56	35
1323.65	33
1324.73	31
1325.82	24
1326.9	30
1327.99	26
1329.07	30
1330.16	20
1331.24	29
1332.33	30
1333.41	26
1334.5	30
1335.58	28
1336.66	26
1337.75	31
1338.83	27
1339.91	30
1341	29
1342.08	26
1343.16	28
1344.24	30
1345.33	31
1346.41	24
1347.49	26
1348.57	27
1349.65	30
1350.74	22
1351.82	27
1352.9	26
1353.98	24
1355.06	26
1356.14	29
1357.22	29
1358.3	23
1359.38	28
1360.46	30
1361.54	30
1362.62	29
1363.7	24
1364.78	27
1365.86	26
1366.94	28
1368.02	31
1369.09	26
1370.17	26
1371.25	30
1372.33	30
1373.41	27
1374.48	30
1375.56	27
1376.64	28
1377.72	34
1378.79	27
1379.87	28
1380.95	30
1382.02	27
1383.1	22
1384.17	26
1385.25	27
1386.33	25
1387.4	32
1388.48	28
1389.55	27
1390.63	32
1391.7	32
1392.78	26
1393.85	32
1394.93	27
1396	27
1397.07	34
1398.15	32
1399.22	28
1400.3	36
1401.37	32
1402.44	37
1403.52	28
1404.59	29
1405.66	34
1406.73	32
1407.81	34
1408.88	30
1409.95	33
1411.02	33
1412.09	28
1413.17	30
1414.24	31
1415.31	30
1416.38	36
1417.45	37
1418.52	33
1419.59	32
1420.66	36
1421.73	34
1422.8	32
1423.87	29
1424.94	33
1426.01	28
1427.08	36
1428.15	32
1429.22	29
1430.29	28
1431.35	31
1432.42	31
1433.49	24
1434.56	31
1435.63	28
1436.69	27
1437.76	28
1438.83	31
1439.9	28
1440.96	27
1442.03	28
1443.1	30
1444.17	28
1445.23	29
1446.3	32
1447.36	28
1448.43	29
1449.49	25
1450.56	31
1451.63	30
1452.69	29
1453.76	30
1454.82	31
1455.89	34
1456.95	26
1458.01	28
1459.08	27
1460.14	30
1461.21	35
1462.27	36
1463.34	27
1464.4	28
1465.46	29
1466.52	29
1467.59	30
1468.65	20
1469.71	28
1470.77	23
1471.84	25
1472.9	30
1473.96	27
1475.02	30
1476.08	30
1477.15	29
1478.21	30
1479.27	27
1480.33	28
1481.39	31
1482.45	28
1483.51	26
1484.57	30
1485.63	34
1486.69	30
1487.75	28
1488.81	29
1489.87	30
1490.93	30
1491.99	34
1493.05	32
1494.1	32
1495.16	28
1496.22	29
1497.28	24
1498.34	29
1499.4	24
1500.45	29
1501.51	24
1502.57	22
1503.63	32
1504.68	31
1505.74	30
1506.8	24
1507.85	26
1508.91	26
1509.97	29
1511.02	32
1512.08	20
1513.13	30
1514.19	30
1515.24	31
1516.3	28
1517.35	30
1518.41	26
1519.46	20
1520.52	24
1521.57	32
1522.63	27
1523.68	26
1524.73	27
1525.79	30
1526.84	24
1527.9	26
1528.95	28
1530	28
1531.05	28
1532.11	29
1533.16	31
1534.21	31
1535.26	31
1536.32	27
1537.37	30
1538.42	27
1539.47	26
1540.52	27
1541.57	26
1542.63	32
1543.68	30
1544.73	31
1545.78	30
1546.83	29
1547.88	30
1548.93	22
1549.98	30
1551.03	31
1552.08	28
1553.13	28
1554.18	26
1555.23	26
1556.27	30
1557.32	26
1558.37	31
1559.42	29
1560.47	33
1561.52	28
1562.56	22
1563.61	30
1564.66	27
1565.71	32
1566.75	26
1567.8	26
1568.85	28
1569.9	32
1570.94	26
1571.99	30
1573.03	31
1574.08	31
1575.13	29
1576.17	28
1577.22	31
1578.26	28
1579.31	28
1580.35	26
1581.4	29
1582.44	30
1583.49	33
1584.53	30
1585.58	27
1586.62	26
1587.66	32
1588.71	30
1589.75	30
1590.8	28
1591.84	26
1592.88	32
1593.92	29
1594.97	26
1596.01	28
1597.05	32
1598.1	27
1599.14	30
1600.18	25
1601.22	30
1602.26	30
1603.3	29
1604.35	34
1605.39	26
1606.43	30
1607.47	29
1608.51	29
1609.55	30
1610.59	32
1611.63	31
1612.67	26
1613.71	29
1614.75	26
1615.79	32
1616.83	30
1617.87	31
1618.91	32
1619.95	29
1620.99	32
1622.02	29
1623.06	30
1624.1	28
1625.14	26
1626.18	28
1627.21	29
1628.25	27
1629.29	30
1630.33	30
1631.36	30
1632.4	31
1633.44	24
1634.48	32
1635.51	26
1636.55	30
1637.58	30
1638.62	28
1639.66	32
1640.69	28
1641.73	32
1642.76	28
1643.8	33
1644.83	22
1645.87	26
1646.9	31
1647.94	31
1648.97	28
1650	30
1651.04	24
1652.07	27
1653.11	28
1654.14	27
1655.17	24
1656.21	29
1657.24	26
1658.27	24
1659.31	33
1660.34	28
1661.37	34
1662.4	29
1663.43	33
1664.47	31
1665.5	27
1666.53	26
1667.56	30
1668.59	33
1669.62	31
1670.66	25
1671.69	31
1672.72	22
1673.75	26
1674.78	27
1675.81	30
1676.84	28
1677.87	28
1678.9	30
1679.93	28
1680.96	32
1681.98	29
1683.01	30
1684.04	28
1685.07	28
1686.1	31
1687.13	29
1688.16	29
1689.18	30
1690.21	26
1691.24	26
1692.27	34
1693.3	26
1694.32	35
1695.35	27
1696.38	26
1697.4	27
1698.43	26
1699.46	30
1700.48	27
1701.51	27
1702.54	27
1703.56	26
1704.59	26
1705.61	32
1706.64	28
1707.66	30
1708.69	26
1709.71	22
1710.74	29
1711.76	31
1712.79	31
1713.81	37
1714.83	31
1715.86	32
1716.88	31
1717.91	28
1718.93	32
1719.95	28
1720.98	30
1722	30
1723.02	28
1724.04	25
1725.07	30
1726.09	28
1727.11	30
1728.13	32
1729.15	29
1730.18	28
1731.2	28
1732.22	28
1733.24	30
1734.26	29
1735.28	30
1736.3	31
1737.32	26
1738.34	30
1739.36	26
1740.38	31
1741.4	29
1742.42	32
1743.44	27
1744.46	26
1745.48	39
1746.5	30
1747.52	28
1748.54	26
1749.56	32
1750.58	28
1751.6	26
1752.61	26
1753.63	27
1754.65	26
1755.67	33
1756.68	32
1757.7	27
1758.72	30
1759.74	24
1760.75	30
1761.77	28
1762.79	24
1763.8	26
1764.82	31
1765.83	29
1766.85	32
1767.87	29
1768.88	28
1769.9	28
1770.91	26
1771.93	31
1772.94	31
1773.96	30
1774.97	27
1775.99	28
1777	29
1778.02	28
1779.03	28
1780.04	22
1781.06	26
1782.07	36
1783.09	29
1784.1	32
1785.11	26
1786.13	28
1787.14	26
1788.15	36
1789.16	29
1790.18	31
1791.19	28
1792.2	26
1793.21	30
1794.22	30
1795.23	24
1796.25	26
1797.26	30
1798.27	35
1799.28	28
1800.29	26
1801.3	32
1802.31	29
1803.32	28
1804.33	28
1805.34	26
1806.35	26
1807.36	28
1808.37	31
1809.38	29
1810.39	32
1811.4	30
1812.41	32
1813.42	27
1814.42	26
1815.43	27
1816.44	28
1817.45	29
1818.46	29
1819.47	25
1820.47	26
1821.48	25
1822.49	23
1823.49	28
1824.5	31
1825.51	26
1826.52	26
1827.52	28
1828.53	30
1829.53	24
1830.54	26
1831.55	28
1832.55	27
1833.56	29
1834.56	26
1835.57	32
1836.57	27
1837.58	30
1838.58	30
1839.59	28
1840.59	26
1841.6	27
1842.6	28
1843.61	26
1844.61	29
1845.61	26
1846.62	31
1847.62	30
1848.62	29
1849.63	24
1850.63	26
1851.63	30
1852.64	22
1853.64	29
1854.64	32
1855.64	29
1856.64	34
1857.65	26
1858.65	28
1859.65	28
1860.65	28
1861.65	28
1862.65	22
1863.65	26
1864.66	28
1865.66	33
1866.66	29
1867.66	24
1868.66	30
1869.66	30
1870.66	28
1871.66	30
1872.66	26
1873.66	28
1874.66	27
1875.65	30
1876.65	32
1877.65	25
1878.65	29
1879.65	24
1880.65	24
1881.65	29
1882.64	24
1883.64	33
1884.64	24
1885.64	28
1886.63	28
1887.63	28
1888.63	28
1889.63	27
1890.62	28
1891.62	29
1892.62	28
1893.61	23
1894.61	22
1895.6	29
1896.6	27
1897.6	24
1898.59	23
1899.59	32
1900.58	28
1901.58	20
1902.57	30
1903.57	24
1904.56	29
1905.56	26
1906.55	25
1907.54	22
1908.54	27
1909.53	22
1910.53	26
1911.52	26
1912.51	32
1913.51	26
1914.5	30
1915.49	28
1916.49	32
1917.48	26
1918.47	26
1919.46	28
1920.46	27
1921.45	22
1922.44	30
1923.43	23
1924.42	27
1925.41	31
1926.41	33
1927.4	30
1928.39	30
1929.38	28
1930.37	29
1931.36	25
1932.35	26
1933.34	28
1934.33	28
1935.32	22
1936.31	30
1937.3	26
1938.29	24
1939.28	30
1940.27	32
1941.26	27
1942.24	28
1943.23	31
1944.22	28
1945.21	28
1946.2	29
1947.19	29
1948.17	26
1949.16	27
1950.15	29.5
1951.14	32
1952.12	28
1953.11	28
1954.1	25
1955.09	31
1956.07	24
1957.06	31
1958.05	28
1959.03	25
1960.02	28
1961	30
1961.99	24
1962.98	26
1963.96	25
1964.95	26
1965.93	30
1966.92	26
1967.9	29
1968.89	28
1969.87	28
1970.85	26
1971.84	24
1972.82	31
1973.81	28
1974.79	25
1975.78	32
1976.76	26
1977.74	31
1978.73	24
1979.71	30
1980.69	30
1981.67	29
1982.66	28
1983.64	28
1984.62	29
1985.6	28
1986.59	26
1987.57	28
1988.55	28
1989.53	24
1990.51	20
1991.49	31
1992.47	25
1993.45	27
1994.44	27
1995.42	24
1996.4	23
1997.38	26
1998.36	25
1999.34	26
2000.32	26
2001.3	22
2002.28	23
2003.26	26
2004.24	30
2005.22	24
2006.19	28
2007.17	23
2008.15	30
2009.13	26
2010.11	24
2011.09	24
2012.06	27
2013.04	30
2014.02	22
2015	24
2015.98	28
2016.95	26
2017.93	26
2018.91	29
2019.88	29
2020.86	27
2021.84	30
2022.81	27
2023.79	26
2024.77	29
2025.74	28
2026.72	28
2027.69	26
2028.67	26
2029.65	28
2030.62	24
2031.6	28
2032.57	25
2033.55	30
2034.52	25
2035.5	20
2036.47	30
2037.44	26
2038.42	28
2039.39	26
2040.36	27
2041.34	28
2042.31	31
2043.29	26
2044.26	26
2045.23	26
2046.2	27
2047.18	24
2048.15	26
2049.12	27
2050.09	28
2051.07	24
2052.04	30
2053.01	30
2053.98	29
2054.95	28
2055.93	29
2056.9	22
2057.87	20
2058.84	25
2059.81	30
2060.78	28
2061.75	29
2062.72	24
2063.69	26
2064.66	30
2065.63	29
2066.6	26
2067.57	27
2068.54	27
2069.51	28
2070.48	29
2071.45	25
2072.42	31
2073.38	29
2074.35	26
2075.32	28
2076.29	23
2077.26	24
2078.23	29
2079.19	26
2080.16	25
2081.13	26
2082.1	26
2083.06	29
2084.03	27
2085	25
2085.96	26
2086.93	23
2087.9	22
2088.86	25
2089.83	27
2090.8	27
2091.76	28
2092.73	30
2093.69	23
2094.66	18
2095.62	25
2096.59	27
2097.55	24
2098.52	24
2099.48	24
2100.45	28
2101.41	26
2102.38	28
2103.34	20
2104.31	27
2105.27	25
2106.23	25
2107.2	26
2108.16	20
2109.12	28
2110.09	29
2111.05	30
2112.01	28
2112.98	35
2113.94	28
2114.9	25
2115.86	20
2116.82	25
2117.79	30
2118.75	29
2119.71	26
2120.67	28
2121.63	28
2122.59	25
2123.55	23
2124.52	29
2125.48	30
2126.44	23
2127.4	28
2128.36	27
2129.32	26
2130.28	24
2131.24	31
2132.2	26
2133.16	26
2134.12	29
2135.08	24
2136.04	22
2136.99	27
2137.95	28
2138.91	24
2139.87	26
2140.83	24
2141.79	30
2142.75	28
2143.7	30
2144.66	23
2145.62	26.9804
2146.58	20.0535
2147.53	25.1142
2148.49	26.0028
2149.45	22.2138
2150.41	24.0654
2151.36	22.3739
2152.32	22.2808
2153.27	23.9398
2154.23	27.0834
2155.19	24.1916
2156.14	26.5443
2157.1	27.2737
2158.06	26.6192
2159.01	23.7034
2159.97	25.9903
2160.92	23.8507
2161.88	24.6753
2162.83	22.824
2163.79	23.7647
2164.74	26.001
2165.7	28.5305
2166.65	27.9843
2167.61	25.1062
2168.56	27.4957
2169.51	25.0296
2170.47	27.6831
2171.42	23.9081
2172.38	23.9246
2173.33	23.0144
2174.28	26.7994
2175.24	23.6234
2176.19	26.7692
2177.14	25.7633
2178.09	25.4202
2179.05	29.0832
2180	26.0869
2180.95	23.2342
2181.9	26.574
2182.86	24.072
2183.81	27.1461
2184.76	25.3654
2185.71	28.1134
2186.66	27.6545
2187.61	23.3088
2188.57	20.735
2189.52	25.3318
2190.47	27.0686
2191.42	26.5738
2192.37	26.7058
2193.32	27.1743
2194.27	24.649
2195.22	25.3135
2196.17	23.6145
2197.12	25.8103
2198.07	25.555
2199.02	25.4418
2199.97	27.5837
2200.92	27.193
2201.87	21.4444
2202.82	24.4793
2203.76	25.898
2204.71	29.0485
2205.66	25.458
2206.61	25.3676
2207.56	25.224
2208.51	30.0618
2209.45	27.2924
2210.4	27.3431
2211.35	27.492
2212.3	24.131
2213.24	24.6587
2214.19	26.9271
2215.14	24.7575
2216.09	26.6569
2217.03	28.8565
2217.98	28.1524
2218.93	23.8838
2219.87	27.6895
2220.82	26.9556
2221.77	25.7892
2222.71	24.2158
2223.66	24.4352
2224.6	21.4323
2225.55	24.6902
2226.49	27.7574
2227.44	25.1602
2228.38	26.0953
2229.33	27.0111
2230.27	24.7505
2231.22	24.2255
2232.16	21.7367
2233.11	24.9198
2234.05	26.5276
2235	25.4299
2235.94	25.0637
2236.88	25.6811
2237.83	27.7206
2238.77	23.5904
2239.71	21.3459
2240.66	23.7575
2241.6	25.6109
2242	26
2242.95	30
2243.9	27
2244.84	34
2245.79	28
2246.74	22
2247.69	24
2248.63	27
2249.58	29
2250.53	23
2251.47	29
2252.42	26
2253.37	27
2254.31	26
2255.26	22
2256.2	28
2257.15	25
2258.1	23
2259.04	27
2259.99	24
2260.93	25
2261.88	23
2262.82	26
2263.77	28
2264.71	26
2265.65	24
2266.6	26
2267.54	28
2268.49	24
2269.43	30
2270.38	26
2271.32	31
2272.26	24
2273.21	28
2274.15	26
2275.09	28
2276.04	26
2276.98	29
2277.92	22
2278.86	29
2279.81	28
2280.75	24
2281.69	26
2282.63	26
2283.57	28
2284.52	24
2285.46	29
2286.4	27
2287.34	25
2288.28	22
2289.22	24
2290.16	26
2291.1	30
2292.04	26
2292.98	28
2293.93	27
2294.86	24
2295.8	27
2296.74	28
2297.69	28
2298.62	29
2299.56	23
2300.5	28
2301.44	24
2302.38	25
2303.32	28
2304.26	26
2305.2	20
2306.14	25
2307.07	24
2308.01	26
2308.95	26
2309.89	24
2310.83	25
2311.76	26
2312.7	25
2313.64	21
2314.58	23
2315.51	24
2316.45	28
2317.39	23
2318.32	27
2319.26	20
2320.2	24
2321.13	27
2322.07	30
2323	22
2323.94	27
2324.88	20
2325.81	30
2326.75	26
2327.68	25
2328.62	26
2329.55	27
2330.49	31
2331.42	26
2332.36	24
2333.29	30
2334.22	26
2335.16	28
2336.09	25
2337.03	28
2337.96	28
2338.89	23
2339.83	28
2340.76	28
2341.69	26
2342.63	26
2343.56	23
2344.49	26
2345.43	23
2346.36	28
2347.29	26
2348.22	26
2349.15	28
2350.09	29
2351.02	24
2351.95	30
2352.88	24
2353.81	23
2354.74	30
2355.67	22
2356.61	28
2357.54	22
2358.47	25
2359.4	28
2360.33	24
2361.26	26
2362.19	30
2363.12	32
2364.05	34
2364.98	22
2365.91	26
2366.84	34
2367.77	25
2368.7	25
2369.62	29
2370.55	28
2371.48	27
2372.41	30
2373.34	26
2374.27	26
2375.2	27
2376.12	26
2377.05	24
2377.98	26
2378.91	29
2379.83	29
2380.76	31
2381.69	27
2382.62	23
2383.54	26
2384.47	26
2385.4	30
2386.32	28
2387.25	24
2388.18	27
2389.1	22
2390.03	26
2390.95	26
2391.88	24
2392.81	26
2393.73	24
2394.66	26
2395.58	23
2396.51	25
2397.43	25
2398.36	30
2399.28	24
2400.2	23
2401.13	24
2402.05	30
2402.98	29
2403.9	25
2404.83	24
2405.75	29
2406.67	28
2407.6	26
2408.52	27
2409.44	24
2410.37	24
2411.29	24
2412.21	24
2413.13	26
2414.06	23
2414.98	24
2415.9	26
2416.82	29
2417.74	26
2418.67	26
2419.59	27
2420.51	26
2421.43	26
2422.35	24
2423.27	20
2424.19	30
2425.11	26
2426.03	20
2426.96	27
2427.88	22
2428.8	23
2429.72	27
2430.64	24
2431.56	28
2432.48	26
2433.39	22
2434.31	26
2435.23	29
2436.15	30
2437.07	27
2437.99	30
2438.91	26
2439.83	33
2440.75	29
2441.67	24
2442.58	27
2443.5	30
2444.42	28
2445.34	22
2446.26	24
2447.17	26
2448.09	28
2449.01	30
2449.92	31
2450.84	29
2451.76	30
2452.68	27
2453.59	24
2454.51	28
2455.42	27
2456.34	29
2457.26	32
2458.17	28
2459.09	27
2460	29
2460.92	26
2461.83	26
2462.75	25
2463.66	29
2464.58	29
2465.49	22
2466.41	27
2467.32	30
2468.24	24
2469.15	24
2470.07	25
2470.98	26
2471.89	24
2472.81	24
2473.72	30
2474.64	31
2475.55	30
2476.46	26
2477.37	25
2478.29	25
2479.2	25
2480.11	27
2481.03	25
2481.94	25
2482.85	30
2483.76	31
2484.67	22
2485.59	28
2486.5	24
2487.41	28
2488.32	28
2489.23	26
2490.14	25
2491.05	27
2491.97	30
2492.88	28
2493.79	24
2494.7	29
2495.61	27
2496.52	28
2497.43	25
2498.34	24
2499.25	28
2500.16	30
2501.07	29
2501.98	26
2502.89	22
2503.79	27
2504.7	27
2505.61	30
2506.52	27
2507.43	26
2508.34	24
2509.25	24
2510.16	29
2511.06	24
2511.97	30
2512.88	28
2513.79	26
2514.69	32
2515.6	28
2516.51	26
2517.42	25
2518.32	26
2519.23	28
2520.14	24
2521.04	26
2521.95	18
2522.86	24
2523.76	23
2524.67	30
2525.57	26
2526.48	28
2527.39	28
2528.29	28
2529.2	30
2530.1	26
2531.01	26
2531.91	21
2532.82	24
2533.72	26
2534.63	28
2535.53	27
2536.44	26
2537.34	28
2538.24	32
2539.15	31
2540.05	26
2540.96	24
2541.86	30
2542.76	27
2543.67	27
2544.57	24
2545.47	27
2546.37	26
2547.28	29
2548.18	29
2549.08	29
2549.99	28
2550.89	24
2551.79	27
2552.69	24
2553.59	32
2554.49	33
2555.4	28
2556.3	29
2557.2	25
2558.1	28
2559	27
2559.9	22
2560.8	30
2561.7	28
2562.6	28
2563.5	27
2564.4	24
2565.3	31
2566.2	27
2567.1	25
2568	33
2568.9	26
2569.8	25
2570.7	26
2571.6	28
2572.5	24
2573.4	32
2574.3	28
2575.2	18
2576.1	23
2576.99	29
2577.89	30
2578.79	24
2579.69	24
2580.59	27
2581.48	26
2582.38	25
2583.28	28
2584.18	30
2585.07	24
2585.97	26
2586.87	28
2587.76	29
2588.66	22
2589.56	25
2590.45	22
2591.35	30
2592.25	27
2593.14	24
2594.04	28
2594.93	24
2595.83	26
2596.73	26
2597.62	28
2598.52	28
2599.41	25
2600.31	24
2601.2	26
2602.1	26
2602.99	28
2603.88	26
2604.78	26
2605.67	26
2606.57	28
2607.46	32
2608.35	32
2609.25	25
2610.14	32
2611.03	31
2611.93	29
2612.82	28
2613.71	27
2614.61	25
2615.5	26
2616.39	30
2617.29	32
2618.18	26
2619.07	26
2619.96	30
2620.85	26
2621.75	28
2622.64	31
2623.53	28
2624.42	23
2625.31	25
2626.2	29
2627.09	24
2627.98	27
2628.88	28
2629.77	27
2630.66	28
2631.55	28
2632.44	28
2633.33	25
2634.22	32
2635.11	25
2636	27
2636.89	24
2637.78	28
2638.66	28
2639.55	28
2640.44	28
2641.33	28
2642.22	22
2643.11	26
2644	25
2644.89	26
2645.78	28
2646.66	27
2647.55	26
2648.44	30
2649.33	30
2650.21	26
2651.1	28
2651.99	30
2652.88	24
2653.76	24
2654.65	24
2655.54	26
2656.42	30
2657.31	29
2658.2	27
2659.08	28
2659.97	28
2660.86	22
2661.74	22
2662.63	21
2663.51	29
2664.4	28
2665.29	24
2666.17	31
2667.06	22
2667.94	23
2668.83	31
2669.71	25
2670.6	35
2671.48	22
2672.36	24
2673.25	22
2674.13	33
2675.02	28
2675.9	30
2676.78	26
2677.67	28
2678.55	28
2679.43	24
2680.32	30
2681.2	32
2682.08	28
2682.97	27
2683.85	32
2684.73	26
2685.61	29
2686.5	29
2687.38	29
2688.26	28
2689.14	27
2690.03	33
2690.91	29
2691.79	25
2692.67	28
2693.55	28
2694.43	32
2695.31	28
2696.19	26
2697.08	28
2697.96	24
2698.84	29
2699.72	29
2700.6	26
2701.48	24
2702.36	26
2703.24	27
2704.12	26
2705	27
2705.88	27
2706.76	28
2707.64	27
2708.51	16
2709.39	26
2710.27	29
2711.15	28
2712.03	24
2712.91	29
2713.79	24
2714.67	28
2715.54	24
2716.42	28
2717.3	26
2718.18	23
2719.05	34
2719.93	29
2720.81	26
2721.69	36
2722.56	27
2723.44	27
2724.32	20
2725.19	28
2726.07	29
2726.95	28
2727.82	28
2728.7	28
2729.58	27
2730.45	31
2731.33	27
2732.2	26
2733.08	32
2733.95	29
2734.83	27
2735.7	35
2736.58	26
2737.45	22
2738.33	26
2739.2	31
2740.08	20
2740.95	26
2741.83	28
2742.7	28
2743.58	23
2744.45	26
2745.32	26
2746.2	28
2747.07	28
2747.94	30
2748.82	27
2749.69	34
2750.56	26
2751.44	24
2752.31	29
2753.18	26
2754.05	26
2754.93	29
2755.8	26
2756.67	30
2757.54	22
2758.42	24
2759.29	27
2760.16	24
2761.03	25
2761.9	24
2762.77	27
2763.64	30
2764.51	27
2765.38	24
2766.26	26
2767.13	24
2768	28
2768.87	28
2769.74	26
2770.61	24
2771.48	26
2772.35	23
2773.22	26
2774.09	28
2774.96	29
2775.83	27
2776.7	34
2777.56	31
2778.43	30
2779.3	31
2780.17	28
2781.04	26
2781.91	27
2782.78	28
2783.64	30
2784.51	27
2785.38	25
2786.25	33
2787.12	28
2787.98	32
2788.85	26
2789.72	34
2790.59	28
2791.45	30
2792.32	26
2793.19	25
2794.05	32
2794.92	30
2795.79	27
2796.65	30
2797.52	31
2798.38	25
2799.25	25
2800.12	30
2800.98	29
2801.85	28
2802.71	27
2803.58	30
2804.44	30
2805.31	28
2806.17	26
2807.04	30
2807.9	29
2808.77	32
2809.63	31
2810.5	28
2811.36	26
2812.22	32
2813.09	28
2813.95	30
2814.82	28
2815.68	26
2816.54	20
2817.41	23
2818.27	28
2819.13	26
2820	30
2820.86	27
2821.72	28
2822.58	29
2823.45	27
2824.31	26
2825.17	32
2826.03	24
2826.9	26
2827.76	26
2828.62	27
2829.48	31
2830.34	29
2831.2	28
2832.06	32
2832.92	28
2833.79	29
2834.65	29
2835.51	30
2836.37	28
2837.23	31
2838.09	27
2838.95	36
2839.81	30
2840.67	26
2841.53	28
2842.39	32
2843.25	30
2844.11	26
2844.97	29
2845.83	26
2846.68	28
2847.54	26
2848.4	26
2849.26	32
2850.12	28
2850.98	31
2851.84	30
2852.69	30
2853.55	28
2854.41	28
2855.27	30
2856.13	26
2856.98	30
2857.84	27
2858.7	28
2859.56	30
2860.41	29
2861.27	33
2862.13	30
2862.98	30
2863.84	22
2864.7	26
2865.55	27
2866.41	26
2867.27	30
2868.12	27
2868.98	28
2869.83	28
2870.69	28
2871.54	26
2872.4	30
2873.25	33
2874.11	30
2874.96	26
2875.82	30
2876.68	32
2877.53	35
2878.38	32
2879.24	30
2880.09	36
2880.95	34
2881.8	35
2882.65	33
2883.51	33
2884.36	30
2885.22	37
2886.07	32
2886.92	30
2887.77	33
2888.63	35
2889.48	43
2890.33	37
2891.19	30
2892.04	44
2892.89	38
2893.74	44
2894.6	38
2895.45	40
2896.3	42
2897.15	44
2898	49
2898.85	54
2899.71	56
2900.56	48
2901.41	56
2902.26	59
2903.11	58
2903.96	62
2904.81	68
2905.66	61
2906.51	68
2907.36	58
2908.21	68
2909.06	62
2909.91	60
2910.76	60
2911.61	58
2912.46	62
2913.31	52
2914.16	44
2915.01	47
2915.86	50
2916.71	42
2917.56	42
2918.41	40
2919.26	40
2920.1	40
2920.95	34
2921.8	36
2922.65	37
2923.5	35
2924.34	38
2925.19	35
2926.04	39
2926.89	33
2927.74	36
2928.58	30
2929.43	35
2930.28	35
2931.12	30
2931.97	32
2932.82	31
2933.66	32
2934.51	32
2935.36	30
2936.2	30
2937.05	32
2937.89	31
2938.74	28
2939.59	27
2940.43	29
2941.28	32
2942.12	32
2942.97	30
2943.81	32
2944.66	30
2945.5	29
2946.35	29
2947.19	24
2948.04	32
2948.88	29
2949.72	33
2950.57	30
2951.41	32
2952.26	28
2953.1	32
2953.94	30
2954.79	38
2955.63	35
2956.47	37
2957.32	28
2958.16	36
2959	40
2959.85	38
2960.69	39
2961.53	35
2962.37	41
2963.22	42
2964.06	40
2964.9	46
2965.74	44
2966.58	45
2967.42	46
2968.27	34
2969.11	44
2969.95	40
2970.79	36
2971.63	36
2972.47	40
2973.31	36
2974.15	38
2974.99	36
2975.83	32
2976.68	36
2977.52	31
2978.36	37
2979.2	30
2980.04	34
2980.88	34
2981.71	32
2982.55	28
2983.39	32
2984.23	28
2985.07	31
2985.91	32
2986.75	24
2987.59	32
2988.43	22
2989.27	30
2990.1	26
2990.94	28
2991.78	26
2992.62	27
2993.46	18
2994.3	22
2995.13	31
2995.97	28
2996.81	25
2997.64	28
2998.48	35
2999.32	31
