#Acq. time (s)=	3
#Accumulations=	3
#Range (cm-¹)=	100...3000
#Windows=	3
#Autofocus=	Off
#AutoExposure=	Off
#Spike filter=	Multiple accum.
#Delay time (s)=	0
#Binning=	1
#Readout mode=	Signal
#DeNoise=	Off
#ICS correction=	Off
#Dark correction=	Off
#Inst. Process=	Off
#Instrument=	LabRAM HR Evol
#Detector=	Syncerity OE
#Objective=	x100_VIS_LWD
#Grating=	600 (500nm)
#ND Filter=	25%
#Laser=	633nm_Edge
#Hole=	100.021
#Range=	Visible
#Project=	Bolus
#Sample=	B4
#Site=	stripside
#Title=	m09
#Remark=	
#Date=	03.11.2025 19:55
#Acquired=	03.11.2025 19:55:45
100.969	31
102.252	31
103.535	35
104.818	31
106.101	28
107.384	32
108.666	30
109.948	36
111.232	33
112.514	29
113.795	30
115.077	22
116.358	28
117.639	30
118.919	34
120.2	30
121.48	28
122.76	30
124.04	32
125.32	34
126.599	27
127.879	32
129.158	31
130.436	30
131.715	39
132.992	33
134.27	30
135.548	32
136.826	37
138.104	35
139.381	33
140.658	32
141.935	33
143.212	34
144.489	35
145.763	32
147.04	32
148.315	36
149.591	37
150.867	37
152.142	40
153.416	39
154.691	40
155.965	39
157.24	30
158.514	36
159.786	38
161.06	32
162.334	34
163.607	41
164.881	38
166.152	34
167.425	37
168.698	36
169.969	30
171.241	37
172.513	38
173.785	38
175.055	33
176.326	40
177.597	36
178.867	35
180.137	34
181.408	36
182.677	36
183.947	36
185.217	41
186.485	41
187.755	39
189.022	36
190.291	40
191.56	39
192.828	38
194.096	37
195.363	32
196.631	32
197.899	32
199.165	32
200.432	38
201.698	36
202.965	33
204.23	34
205.497	34
206.762	31
208.028	36
209.293	34
210.559	40
211.823	36
213.088	33
214.352	33
215.617	32
216.88	35
218.145	32
219.408	32
220.672	35
221.934	37
223.196	32
224.46	32
225.722	37
226.985	32
228.246	30
229.508	31
230.77	33
232.031	33
233.292	30
234.554	32
235.814	32
237.074	29
238.335	34
239.595	33
240.854	24
242.115	29
243.374	28
244.633	33
245.893	26
247.151	31
248.409	34
249.667	33
250.927	29
252.184	28
253.442	32
254.699	32
255.957	26
257.214	24
258.47	32
259.727	29
260.983	27
262.24	27
263.496	32
264.752	30
266.007	28
267.262	32
268.517	36
269.773	30
271.028	30
272.282	31
273.536	28
274.79	34
276.044	28
277.297	32
278.551	28
279.804	28
281.057	29
282.31	29
283.564	30
284.816	26
286.068	22
287.32	30
288.572	26
289.823	28
291.074	28
292.325	28
293.576	26
294.827	29
296.077	26
297.328	34
298.578	32
299.828	24
301.077	26
302.325	27
303.575	30
304.824	29
306.073	35
307.321	31
308.57	30
309.818	26
311.066	32
312.314	32
313.562	33
314.808	28
316.055	32
317.302	32
318.549	28
319.796	33
321.042	32
322.288	28
323.533	34
324.779	30
326.024	25
327.27	31
328.515	36
329.759	26
331.004	36
332.248	34
333.493	29
334.736	30
335.98	28
337.223	34
338.466	37
339.709	34
340.952	29
342.195	34
343.437	30
344.68	33
345.922	22
347.163	37
348.405	28
349.647	26
350.887	28
352.128	28
353.37	29
354.609	29
355.85	25
357.089	30
358.33	28
359.57	30
360.809	28
362.049	29
363.287	30
364.526	27
365.764	31
367.003	34
368.241	28
369.479	33
370.718	28
371.955	30
373.193	28
374.429	34
375.667	32
376.903	24
378.139	33
379.376	26
380.611	35
381.848	32
383.083	30
384.319	30
385.554	31
386.79	32
388.024	30
389.258	28
390.493	28
391.727	33
392.962	28
394.195	34
395.428	24
396.663	26
397.895	35
399.128	34
400.361	27
401.593	30
402.825	28
404.058	29
405.29	29
406.521	26
407.752	29
408.985	30
410.215	29
411.446	30
412.678	33
413.908	30
415.138	31
416.367	28
417.597	33
418.828	33
420.057	22
421.286	31
422.514	30
423.743	32
424.973	30
426.201	28
427.429	32
428.657	28
429.884	30
431.112	32
432.34	29
433.567	27
434.794	32
436.02	31
437.247	26
438.473	35
439.699	31
440.925	32
442.15	35
443.376	29
444.601	32
445.826	28
447.051	30
448.275	29
449.5	29
450.724	30
451.948	29
453.172	31
454.396	29
455.619	24
456.842	24
458.065	31
459.288	28
460.511	30
461.733	32
462.956	27
464.178	37
465.4	31
466.621	31
467.843	30
469.064	31
470.285	33
471.505	34
472.726	30
473.946	34
475.166	32
476.387	36
477.606	39
478.825	40
480.044	42
481.264	39
482.483	44
483.702	38
484.921	43
486.138	46
487.356	43
488.574	48
489.792	53
491.009	54
492.226	44
493.444	44
494.661	44
495.877	50
497.094	49
498.31	42
499.525	32
500.741	43
501.958	40
503.172	35
504.388	39
505.603	38
506.817	36
508.032	38
509.247	38
510.46	30
511.675	34
512.888	37
514.102	32
515.316	38
516.528	32
517.742	27
518.954	36
520.167	32
521.378	30
522.591	28
523.802	34
525.015	32
526.226	33
527.438	33
528.648	34
529.86	30
531.07	34
532.281	37
533.491	32
534.702	31
535.911	24
537.121	27
538.33	30
539.54	28
540.749	32
541.957	30
543.167	30
544.375	33
545.584	28
546.791	25
547.999	35
549.207	32
550.414	34
551.621	30
552.829	31
554.035	30
555.241	30
556.449	30
557.655	26
558.86	31
560.066	31
561.272	32
562.477	29
563.682	33
564.888	31
566.093	24
567.297	26
568.501	30
569.705	32
570.91	31
572.114	28
573.317	28
574.52	29
575.723	32
576.927	31
578.13	32
579.332	31
580.535	34
581.737	31
582.938	30
584.14	30
585.343	31
586.544	33
587.745	28
588.946	31
590.147	34
591.347	32
592.548	28
593.748	28
594.948	28
596.147	27
597.347	30
598.546	32
599.745	30
600.944	29
602.143	28
603.342	29
604.54	30
605.738	24
606.937	34
608.134	28
609.332	33
610.529	33
611.727	26
612.924	30
614.121	33
615.317	22
616.513	28
617.709	26
618.905	30
620.101	30
621.297	34
622.492	29
623.688	34
624.883	30
626.077	29
627.271	31
628.466	34
629.66	32
630.855	34
632.047	29
633.241	29
634.435	32
635.629	34
636.82	32
638.014	30
639.207	34
640.399	26
641.59	27
642.783	32
643.975	34
645.166	26
646.357	33
647.549	32
648.741	26
649.93	33
651.122	30
652.311	29
653.502	29
654.692	31
655.881	32
657.071	30
658.261	31
659.45	24
660.639	28
661.827	36
663.016	36
664.204	33
665.393	30
666.581	30
667.769	34
668.957	32
670.143	30
671.331	33
672.518	30
673.705	33
674.891	28
676.078	33
677.264	33
678.451	33
679.636	33
680.821	33
682.007	33
683.192	35
684.378	34
685.562	36
686.747	38
687.931	34
689.115	35
690.3	31
691.483	38
692.666	36
693.851	36
695.034	28
696.216	32
697.4	32
698.582	34
699.764	37
700.948	32
702.129	41
703.311	35
704.493	34
705.674	39
706.855	40
708.036	45
709.218	45
710.399	44
711.579	47
712.759	44
713.939	40
715.12	39
716.299	37
717.478	36
718.657	33
719.836	33
721.015	28
722.195	34
723.373	34
724.552	28
725.729	28
726.907	30
728.085	30
729.262	33
730.44	32
731.617	28
732.795	28
733.972	28
735.148	28
736.324	30
737.501	34
738.677	30
739.852	31
741.028	32
742.203	30
743.379	31
744.554	26
745.729	31
746.903	30
748.078	30
749.252	36
750.426	34
751.599	30
752.772	24
753.946	32
755.119	28
756.293	33
757.466	26
758.639	33
759.811	24
760.984	32
762.155	27
763.327	32
764.499	30
765.67	32
766.842	31
768.013	26
769.183	26
770.354	26
771.525	28
772.696	32
773.865	27
775.035	30
776.205	28
777.375	34
778.544	34
779.713	31
780.882	31
782.052	31
783.219	30
784.388	37
785.557	28
786.724	29
787.892	30
789.06	33
790.227	30
791.395	29
792.562	30
793.728	24
794.895	22
796.061	30
797.228	36
798.395	31
799.56	30
800.726	32
801.891	32
803.057	34
804.221	33
805.387	33
806.551	28
807.716	29
808.879	32
810.044	33
811.208	32
812.372	30
813.535	35
814.699	30
815.862	31
817.025	28
818.188	34
819.351	24
820.513	28
821.675	29
822.837	34
823.999	31
825.161	33
826.322	31
827.483	29
828.645	30
829.805	32
830.966	26
832.127	32
833.287	26
834.447	32
835.607	31
836.767	30
837.926	30
839.085	30
840.245	32
841.404	30
842.562	32
843.72	28
844.88	29
846.038	30
847.195	28
848.353	26
849.512	29
850.669	26
851.826	28
852.983	26
854.139	29
855.296	27
856.453	32
857.609	30
858.765	30
859.921	35
861.077	30
862.232	26
863.387	33
864.542	26
865.697	28
866.852	33
868.008	32
869.162	33
870.316	30
871.47	31
872.624	35
873.778	28
874.931	33
876.084	33
877.237	24
878.39	31
879.543	26
880.695	30
881.846	37
882.999	33
884.151	28
885.302	33
886.454	30
887.606	36
888.757	24
889.908	34
891.059	28
892.21	32
893.359	26
894.509	30
895.659	26
896.81	27
897.959	30
899.109	32
900.257	27
901.407	26
902.556	26
903.705	30
904.854	25
906.001	30
907.149	28
908.298	27
909.446	24
910.592	29
911.74	30
912.888	24
914.034	30
915.181	28
916.328	34
917.473	28
918.62	31
919.766	28
920.911	29
922.058	29
923.204	29
924.348	33
925.494	31
926.638	30
927.783	30
928.928	32
930.072	22
931.216	26
932.36	30
933.504	30
934.647	26
935.791	31
936.933	30
938.077	28
939.219	28
940.363	28
941.504	23
942.647	28
943.789	30
944.932	26
946.073	28
947.215	29
948.356	32
949.498	28
950.638	30
951.778	31
952.92	26
954.06	28
955.199	30
956.34	25
957.479	26
958.62	30
959.759	32
960.898	30
962.038	28
963.176	28
964.315	27
965.453	33
966.592	28
967.73	28
968.867	34
970.006	29
971.144	31
972.281	30
973.418	28
974.554	30
975.692	32
976.829	31
977.965	32
979.101	25
980.237	37
981.374	29
982.509	32
983.645	28
984.78	26
985.915	20
987.05	26
988.184	29
989.319	31
990.453	33
991.589	34
992.722	33
993.856	27
994.99	25
996.123	30
997.257	30
998.39	30
999.523	30
1000.66	29
1001.79	30
1002.92	26
1004.05	33
1005.18	32
1006.32	28
1007.45	28
1008.58	26
1009.71	26
1010.84	30
1011.97	28
1013.1	28
1014.23	31
1015.36	31
1016.49	29
1017.62	29
1018.75	26
1019.88	27
1021.01	31
1022.14	30
1023.27	30
1024.4	28
1025.53	31
1026.66	25
1027.79	31
1028.91	29
1030.04	24
1031.17	26
1032.3	26
1033.42	32
1034.55	30
1035.68	26
1036.81	27
1037.93	28
1039.06	30
1040.18	25
1041.31	26
1042.44	28
1043.56	24
1044.69	27
1045.81	32
1046.94	31
1048.06	29
1049.19	29
1050.31	24
1051.44	29
1052.56	27
1053.69	27
1054.81	30
1055.93	27
1057.06	34
1058.18	26
1059.3	27
1060.43	28
1061.55	32
1062.67	27
1063.79	28
1064.92	24
1066.04	28
1067.16	28
1068.28	30
1069.4	24
1070.52	25
1071.65	28
1072.77	28
1073.89	26
1075.01	26
1076.13	24
1077.25	24
1078.37	26
1079.49	31
1080.61	29
1081.73	29
1082.85	24
1083.97	27
1085.09	28
1086.2	28
1087.32	20
1088.44	32
1089.56	28
1090.68	28
1091.8	29
1092.91	28
1094.03	34
1095.15	31
1096.26	26
1097.38	31
1098.5	31
1099.61	28
1100.73	25
1101.85	28
1102.96	31
1104.08	26
1105.19	31
1106.31	29
1107.43	32
1108.54	20
1109.66	31
1110.77	27
1111.88	30
1113	30
1114.11	25
1115.23	31
1116.34	28
1117.46	26
1118.57	28
1119.68	30
1120.8	28
1121.91	26
1123.02	26
1124.13	26
1125.25	26
1126.36	25
1127.47	28
1128.58	30
1129.69	30
1130.8	24
1131.92	27
1133.03	28
1134.14	22
1135.25	26
1136.36	26
1137.47	25
1138.58	25
1139.69	22
1140.8	30
1141.91	26
1143.02	29
1144.13	30
1145.24	28
1146.35	30
1147.46	24
1148.56	22
1149.67	29
1150.78	31
1151.89	33
1153	27
1154.1	27
1155.21	32
1156.32	31
1157.43	26
1158.53	24
1159.64	22
1160.75	28
1161.85	22
1162.96	27
1164.07	31
1165.17	28
1166.28	30
1167.38	32
1168.49	24
1169.59	30
1170.7	27
1171.8	25
1172.91	29
1174.01	28
1175.12	29
1176.22	26
1177.32	30
1178.43	26
1179.53	26
1180.64	28
1181.74	27
1182.84	30
1183.94	29
1185.05	29
1186.15	27
1187.25	34
1188.35	28
1189.46	27
1190.56	27
1191.66	29
1192.76	26
1193.86	27
1194.96	30
1196.06	22.0196
1197.16	25.9585
1198.26	29.8754
1199.37	29.9314
1200.47	23.2691
1201.57	23.3186
1202.67	29.7346
1203.77	30.7217
1204.86	27.9896
1205.96	23.9899
1207.06	28.4406
1208.16	24.5208
1209.26	29.8061
1210.36	27.6701
1211.46	29.9319
1212.56	27.927
1213.65	23.9954
1214.75	22.5189
1215.85	30.9002
1216.95	22.7805
1218.04	28.9847
1219.14	26.1976
1220.24	27.8976
1221.33	28.9913
1222.43	23.2402
1223.53	25.9506
1224.62	25.3862
1225.72	28.8266
1226.82	27.1618
1227.91	29.1027
1229.01	25.3288
1230.1	27.3824
1231.2	30.3536
1232.29	24.7737
1233.39	23.8626
1234.48	26.4936
1235.58	31.1473
1236.67	27.8288
1237.77	27.0139
1238.86	29.0439
1239.95	29.3971
1241.05	30.4557
1242.14	26.9508
1243.23	27.9063
1244.33	24.1814
1245.42	28.5041
1246.51	27.9502
1247.61	27.8398
1248.7	27.1607
1249.79	28.5147
1250.88	26.6648
1251.97	26.4906
1253.07	29.3286
1254.16	28.4382
1255.25	27.6312
1256.34	26.5916
1257.43	27.0037
1258.52	26.8579
1259.61	26.8184
1260.7	27.4178
1261.79	27.98
1262.88	28.3324
1263.97	27.8423
1265.06	24.0737
1266.15	28.8738
1267.24	26.8502
1268.33	28.1812
1269.42	25.491
1270.51	28.8337
1271.6	25.8458
1272.68	26.3419
1273.77	28.8415
1274.86	26.1585
1275.95	27.4284
1277.04	25.4608
1278.12	26.5196
1279.21	26.5
1280.3	25.2203
1281.39	24.9041
1282.47	27.6618
1283.56	27.2108
1284.65	26.8804
1285.73	29.852
1286.82	30.0007
1287.91	27.6404
1288.99	24.3235
1290.08	23.6519
1291.16	26.2843
1292.25	26.7506
1293.33	30.0347
1294.42	25.2415
1295.5	27.5659
1296.59	25.5551
1297.67	22.4906
1298.76	25.6709
1299.84	29.0516
1300.92	25.0752
1302.01	28.0441
1303.09	27.9455
1304.17	26.8522
1305.26	25.2734
1306.34	27.9902
1307.34	28
1308.43	28
1309.52	28
1310.61	28
1311.7	28
1312.78	20
1313.87	22
1314.96	30
1316.04	27
1317.13	30
1318.22	32
1319.3	25
1320.39	27
1321.48	25
1322.56	28
1323.65	30
1324.73	28
1325.82	27
1326.9	27
1327.99	30
1329.07	29
1330.16	22
1331.24	28
1332.33	29
1333.41	24
1334.5	26
1335.58	20
1336.66	27
1337.75	28
1338.83	30
1339.91	22
1341	33
1342.08	26
1343.16	24
1344.24	28
1345.33	30
1346.41	28
1347.49	24
1348.57	30
1349.65	26
1350.74	23
1351.82	29
1352.9	20
1353.98	31
1355.06	27
1356.14	24
1357.22	32
1358.3	30
1359.38	26
1360.46	25
1361.54	29
1362.62	29
1363.7	24
1364.78	31
1365.86	26
1366.94	28
1368.02	32
1369.09	25
1370.17	30
1371.25	26
1372.33	26
1373.41	28
1374.48	31
1375.56	26
1376.64	25
1377.72	34
1378.79	28
1379.87	28
1380.95	27
1382.02	22
1383.1	28
1384.17	26
1385.25	28
1386.33	31
1387.4	30
1388.48	29
1389.55	28
1390.63	28
1391.7	30
1392.78	26
1393.85	26
1394.93	23
1396	28
1397.07	28
1398.15	26
1399.22	29
1400.3	30
1401.37	31
1402.44	22
1403.52	30
1404.59	34
1405.66	32
1406.73	28
1407.81	29
1408.88	33
1409.95	34
1411.02	27
1412.09	36
1413.17	30
1414.24	27
1415.31	31
1416.38	38
1417.45	26
1418.52	28
1419.59	34
1420.66	29
1421.73	29
1422.8	28
1423.87	29
1424.94	37
1426.01	20
1427.08	31
1428.15	28
1429.22	30
1430.29	34
1431.35	31
1432.42	31
1433.49	28
1434.56	30
1435.63	26
1436.69	29
1437.76	30
1438.83	26
1439.9	26
1440.96	32
1442.03	29
1443.1	31
1444.17	24
1445.23	26
1446.3	32
1447.36	28
1448.43	26
1449.49	25
1450.56	26
1451.63	31
1452.69	28
1453.76	31
1454.82	25
1455.89	30
1456.95	29
1458.01	31
1459.08	26
1460.14	22
1461.21	26
1462.27	28
1463.34	27
1464.4	29
1465.46	28
1466.52	28
1467.59	26
1468.65	27
1469.71	31
1470.77	24
1471.84	25
1472.9	26
1473.96	28
1475.02	30
1476.08	32
1477.15	31
1478.21	31
1479.27	24
1480.33	27
1481.39	26
1482.45	26
1483.51	27
1484.57	28
1485.63	30
1486.69	29
1487.75	28
1488.81	27
1489.87	26
1490.93	30
1491.99	28
1493.05	28
1494.1	26
1495.16	28
1496.22	26
1497.28	30
1498.34	32
1499.4	29
1500.45	30
1501.51	30
1502.57	28
1503.63	25
1504.68	32
1505.74	29
1506.8	28
1507.85	26
1508.91	30
1509.97	30
1511.02	30
1512.08	26
1513.13	26
1514.19	24
1515.24	30
1516.3	27
1517.35	24
1518.41	26
1519.46	30
1520.52	27
1521.57	26
1522.63	27
1523.68	28
1524.73	24
1525.79	29
1526.84	24
1527.9	31
1528.95	28
1530	30
1531.05	28
1532.11	25
1533.16	28
1534.21	30
1535.26	20
1536.32	22
1537.37	26
1538.42	30
1539.47	26
1540.52	31
1541.57	27
1542.63	25
1543.68	28
1544.73	28
1545.78	27
1546.83	33
1547.88	22
1548.93	30
1549.98	28
1551.03	32
1552.08	28
1553.13	26
1554.18	22
1555.23	21
1556.27	26
1557.32	27
1558.37	30
1559.42	29
1560.47	29
1561.52	26
1562.56	24
1563.61	24
1564.66	28
1565.71	30
1566.75	30
1567.8	27
1568.85	28
1569.9	27
1570.94	31
1571.99	27
1573.03	26
1574.08	22
1575.13	27
1576.17	29
1577.22	26
1578.26	27
1579.31	32
1580.35	28
1581.4	29
1582.44	32
1583.49	27
1584.53	34
1585.58	30
1586.62	20
1587.66	28
1588.71	33
1589.75	28
1590.8	24
1591.84	28
1592.88	31
1593.92	28
1594.97	28
1596.01	25
1597.05	26
1598.1	27
1599.14	22
1600.18	30
1601.22	26
1602.26	28
1603.3	28
1604.35	30
1605.39	29
1606.43	31
1607.47	30
1608.51	32
1609.55	24
1610.59	28
1611.63	30
1612.67	25
1613.71	24
1614.75	24
1615.79	30
1616.83	18
1617.87	34
1618.91	28
1619.95	28
1620.99	24
1622.02	28
1623.06	35
1624.1	25
1625.14	28
1626.18	28
1627.21	29
1628.25	28
1629.29	30
1630.33	27
1631.36	32
1632.4	27
1633.44	25
1634.48	28
1635.51	30
1636.55	25
1637.58	29
1638.62	27
1639.66	29
1640.69	29
1641.73	28
1642.76	35
1643.8	30
1644.83	27
1645.87	30
1646.9	28
1647.94	30
1648.97	26
1650	28
1651.04	31
1652.07	26
1653.11	32
1654.14	28
1655.17	27
1656.21	28
1657.24	27
1658.27	24
1659.31	22
1660.34	27
1661.37	29
1662.4	26
1663.43	26
1664.47	28
1665.5	31
1666.53	24
1667.56	30
1668.59	25
1669.62	29
1670.66	26
1671.69	26
1672.72	26
1673.75	25
1674.78	27
1675.81	26
1676.84	26
1677.87	32
1678.9	27
1679.93	25
1680.96	30
1681.98	26
1683.01	33
1684.04	28
1685.07	27
1686.1	26
1687.13	26
1688.16	28
1689.18	30
1690.21	27
1691.24	27
1692.27	28
1693.3	26
1694.32	29
1695.35	29
1696.38	34
1697.4	27
1698.43	28
1699.46	29
1700.48	26
1701.51	26
1702.54	32
1703.56	30
1704.59	30
1705.61	30
1706.64	34
1707.66	28
1708.69	24
1709.71	28
1710.74	27
1711.76	24
1712.79	29
1713.81	30
1714.83	30
1715.86	26
1716.88	26
1717.91	26
1718.93	32
1719.95	28
1720.98	27
1722	28
1723.02	27
1724.04	25
1725.07	24
1726.09	20
1727.11	30
1728.13	26
1729.15	32
1730.18	29
1731.2	23
1732.22	28
1733.24	28
1734.26	32
1735.28	29
1736.3	29
1737.32	28
1738.34	29
1739.36	28
1740.38	24
1741.4	24
1742.42	26
1743.44	31
1744.46	32
1745.48	31
1746.5	29
1747.52	28
1748.54	20
1749.56	31
1750.58	36
1751.6	24
1752.61	26
1753.63	28
1754.65	30
1755.67	27
1756.68	28
1757.7	28
1758.72	25
1759.74	32
1760.75	27
1761.77	28
1762.79	32
1763.8	26
1764.82	25
1765.83	32
1766.85	32
1767.87	31
1768.88	28
1769.9	28
1770.91	29
1771.93	28
1772.94	26
1773.96	28
1774.97	32
1775.99	20
1777	32
1778.02	29
1779.03	31
1780.04	30
1781.06	26
1782.07	28
1783.09	29
1784.1	25
1785.11	32
1786.13	32
1787.14	27
1788.15	30
1789.16	27
1790.18	28
1791.19	27
1792.2	24
1793.21	29
1794.22	25
1795.23	33
1796.25	28
1797.26	24
1798.27	26
1799.28	29
1800.29	31
1801.3	26
1802.31	30
1803.32	28
1804.33	28
1805.34	32
1806.35	28
1807.36	22
1808.37	28
1809.38	28
1810.39	28
1811.4	30
1812.41	30
1813.42	30
1814.42	31
1815.43	33
1816.44	29
1817.45	26
1818.46	23
1819.47	27
1820.47	24
1821.48	26
1822.49	28
1823.49	28
1824.5	24
1825.51	27
1826.52	30
1827.52	26
1828.53	28
1829.53	31
1830.54	30
1831.55	32
1832.55	24
1833.56	27
1834.56	26
1835.57	30
1836.57	27
1837.58	27
1838.58	30
1839.59	31
1840.59	33
1841.6	29
1842.6	29
1843.61	23
1844.61	28
1845.61	27
1846.62	24
1847.62	26
1848.62	28
1849.63	26
1850.63	25
1851.63	33
1852.64	27
1853.64	31
1854.64	25
1855.64	31
1856.64	32
1857.65	31
1858.65	30
1859.65	29
1860.65	28
1861.65	25
1862.65	28
1863.65	25
1864.66	24
1865.66	22
1866.66	28
1867.66	28
1868.66	24
1869.66	26
1870.66	30
1871.66	29
1872.66	29
1873.66	29
1874.66	30
1875.65	26
1876.65	28
1877.65	26
1878.65	27
1879.65	30
1880.65	25
1881.65	24
1882.64	24
1883.64	24
1884.64	20
1885.64	29
1886.63	26
1887.63	22
1888.63	31
1889.63	22
1890.62	25
1891.62	30
1892.62	29
1893.61	27
1894.61	29
1895.6	28
1896.6	28
1897.6	29
1898.59	29
1899.59	29
1900.58	29
1901.58	28
1902.57	31
1903.57	22
1904.56	28
1905.56	24
1906.55	27
1907.54	26
1908.54	24
1909.53	31
1910.53	27
1911.52	30
1912.51	26
1913.51	30
1914.5	30
1915.49	25
1916.49	31
1917.48	30
1918.47	28
1919.46	27
1920.46	28
1921.45	21
1922.44	27
1923.43	28
1924.42	30
1925.41	22
1926.41	30
1927.4	29
1928.39	26
1929.38	28
1930.37	29
1931.36	31
1932.35	26
1933.34	26
1934.33	24
1935.32	32
1936.31	31
1937.3	30
1938.29	28
1939.28	30
1940.27	29
1941.26	30
1942.24	25
1943.23	29
1944.22	32
1945.21	32
1946.2	26
1947.19	26
1948.17	26
1949.16	29
1950.15	27
1951.14	24
1952.12	26
1953.11	28
1954.1	26
1955.09	30
1956.07	24
1957.06	28
1958.05	27
1959.03	29
1960.02	29
1961	25
1961.99	30
1962.98	28
1963.96	30
1964.95	29
1965.93	24
1966.92	24
1967.9	32
1968.89	22
1969.87	28
1970.85	26
1971.84	26
1972.82	24
1973.81	24
1974.79	26
1975.78	26
1976.76	24
1977.74	28
1978.73	24
1979.71	31
1980.69	24
1981.67	30
1982.66	29
1983.64	28
1984.62	24
1985.6	28
1986.59	24
1987.57	26
1988.55	28
1989.53	32
1990.51	24
1991.49	28
1992.47	26
1993.45	29
1994.44	28
1995.42	28
1996.4	29
1997.38	26
1998.36	24
1999.34	24
2000.32	29
2001.3	24
2002.28	31
2003.26	27
2004.24	30
2005.22	29
2006.19	26
2007.17	26
2008.15	24
2009.13	26
2010.11	24
2011.09	24
2012.06	28
2013.04	25
2014.02	29
2015	25
2015.98	28
2016.95	23
2017.93	28
2018.91	30
2019.88	27
2020.86	28
2021.84	30
2022.81	26
2023.79	27
2024.77	24
2025.74	26
2026.72	26
2027.69	26
2028.67	28
2029.65	28
2030.62	26
2031.6	28
2032.57	22
2033.55	26
2034.52	29
2035.5	32
2036.47	29
2037.44	27
2038.42	27
2039.39	30
2040.36	28
2041.34	22
2042.31	29
2043.29	28
2044.26	24
2045.23	25
2046.2	26
2047.18	25
2048.15	27
2049.12	29
2050.09	31
2051.07	29
2052.04	26
2053.01	29
2053.98	25
2054.95	27
2055.93	26
2056.9	26
2057.87	26
2058.84	25
2059.81	28
2060.78	29
2061.75	24
2062.72	24
2063.69	23
2064.66	27
2065.63	32
2066.6	22
2067.57	26
2068.54	20
2069.51	22
2070.48	26
2071.45	26
2072.42	29
2073.38	26
2074.35	29
2075.32	24
2076.29	28
2077.26	29
2078.23	27
2079.19	27
2080.16	27
2081.13	27
2082.1	26
2083.06	20
2084.03	26
2085	26
2085.96	28
2086.93	24
2087.9	30
2088.86	25
2089.83	24
2090.8	25
2091.76	26
2092.73	24
2093.69	30
2094.66	27
2095.62	26
2096.59	28
2097.55	26
2098.52	24
2099.48	27
2100.45	25
2101.41	24
2102.38	28
2103.34	25
2104.31	26
2105.27	31
2106.23	28
2107.2	27
2108.16	30
2109.12	27
2110.09	26
2111.05	29
2112.01	28
2112.98	25
2113.94	26
2114.9	22
2115.86	24
2116.82	31
2117.79	26
2118.75	26
2119.71	22
2120.67	27
2121.63	34
2122.59	29
2123.55	26
2124.52	26
2125.48	22
2126.44	30
2127.4	22
2128.36	25
2129.32	27
2130.28	28
2131.24	27
2132.2	27
2133.16	22
2134.12	27
2135.08	26
2136.04	31
2136.99	25
2137.95	26
2138.91	22
2139.87	25
2140.83	26
2141.79	26
2142.75	26
2143.7	28
2144.66	26
2145.62	21.993
2146.58	25.0134
2147.53	28.9041
2148.49	25.0343
2149.45	25.0373
2150.41	24.0077
2151.36	25.9916
2152.32	25.8529
2153.27	25.8519
2154.23	25.2746
2155.19	27.8828
2156.14	22.2302
2157.1	24.1315
2158.06	22.6618
2159.01	27.8504
2159.97	25.8383
2160.92	20.3335
2161.88	24.345
2162.83	25.3638
2163.79	26.3824
2164.74	24.0038
2165.7	25.9041
2166.65	27.9687
2167.61	27.097
2168.56	23.5315
2169.51	23.9852
2170.47	25.9822
2171.42	24.798
2172.38	26.5463
2173.33	27.2892
2174.28	23.9296
2175.24	26.9814
2176.19	22.4016
2177.14	24.2826
2178.09	26.6723
2179.05	24.3204
2180	28.552
2180.95	24.0978
2181.9	27.1004
2182.86	29.1476
2183.81	24.8778
2184.76	20.9928
2185.71	28.9384
2186.66	26.7427
2187.61	24.0727
2188.57	21.6162
2189.52	24.2651
2190.47	25.5365
2191.42	25.1471
2192.37	23.853
2193.32	25.4276
2194.27	22.9476
2195.22	24.0588
2196.17	25.918
2197.12	27.5605
2198.07	28.3786
2199.02	27.3425
2199.97	26.1462
2200.92	25.4412
2201.87	27.1667
2202.82	26.498
2203.76	25.9618
2204.71	25.9144
2205.66	23.862
2206.61	23.1991
2207.56	24.448
2208.51	23.6895
2209.45	26.0294
2210.4	23.4953
2211.35	25.8587
2212.3	25.9518
2213.24	26.4425
2214.19	26.7702
2215.14	27.5657
2216.09	24.2385
2217.03	24.617
2217.98	24.2175
2218.93	25.4895
2219.87	22.6203
2220.82	24.8055
2221.77	26.3334
2222.71	26.1961
2223.66	26.0942
2224.6	24.4559
2225.55	26.1059
2226.49	25.8896
2227.44	25.3538
2228.38	27.6406
2229.33	27.7887
2230.27	25.873
2231.22	23.1925
2232.16	23.5434
2233.11	24
2234.05	25.5419
2235	26.2828
2235.94	27.5261
2236.88	25.3988
2237.83	22.3824
2238.77	24.3318
2239.71	24.8012
2240.66	25.1814
2241.6	26.0098
2242	26
2242.95	26
2243.9	23
2244.84	28
2245.79	24
2246.74	24
2247.69	24
2248.63	25
2249.58	27
2250.53	28
2251.47	28
2252.42	25
2253.37	24
2254.31	28
2255.26	28
2256.2	26
2257.15	23
2258.1	29
2259.04	24
2259.99	30
2260.93	24
2261.88	24
2262.82	24
2263.77	22
2264.71	26
2265.65	26
2266.6	29
2267.54	26
2268.49	24
2269.43	24
2270.38	24
2271.32	27
2272.26	24
2273.21	33
2274.15	31
2275.09	29
2276.04	26
2276.98	24
2277.92	27
2278.86	25
2279.81	26
2280.75	26
2281.69	26
2282.63	27
2283.57	28
2284.52	24
2285.46	26
2286.4	25
2287.34	26
2288.28	28
2289.22	28
2290.16	24
2291.1	24
2292.04	24
2292.98	27
2293.93	20
2294.86	25
2295.8	28
2296.74	28
2297.69	30
2298.62	25
2299.56	26
2300.5	20
2301.44	26
2302.38	27
2303.32	24
2304.26	26
2305.2	25
2306.14	27
2307.07	28
2308.01	27
2308.95	26
2309.89	28
2310.83	28
2311.76	28
2312.7	25
2313.64	32
2314.58	26
2315.51	26
2316.45	25
2317.39	27
2318.32	28
2319.26	18
2320.2	28
2321.13	33
2322.07	24
2323	29
2323.94	28
2324.88	24
2325.81	31
2326.75	29
2327.68	27
2328.62	25
2329.55	22
2330.49	24
2331.42	24
2332.36	29
2333.29	32
2334.22	25
2335.16	23
2336.09	25
2337.03	31
2337.96	26
2338.89	23
2339.83	25
2340.76	22
2341.69	24
2342.63	23
2343.56	24
2344.49	28
2345.43	29
2346.36	26
2347.29	24
2348.22	22
2349.15	29
2350.09	26
2351.02	28
2351.95	28
2352.88	28
2353.81	28
2354.74	27
2355.67	29
2356.61	22
2357.54	26
2358.47	25
2359.4	27
2360.33	27
2361.26	29
2362.19	24
2363.12	25
2364.05	27
2364.98	24
2365.91	30
2366.84	31
2367.77	28
2368.7	28
2369.62	28
2370.55	27
2371.48	25
2372.41	27
2373.34	26
2374.27	24
2375.2	26
2376.12	26
2377.05	27
2377.98	24
2378.91	26
2379.83	28
2380.76	26
2381.69	28
2382.62	22
2383.54	25
2384.47	25
2385.4	28
2386.32	25
2387.25	23
2388.18	28
2389.1	23
2390.03	24
2390.95	22
2391.88	24
2392.81	25
2393.73	25
2394.66	28
2395.58	27
2396.51	28
2397.43	30
2398.36	29
2399.28	28
2400.2	24
2401.13	30
2402.05	26
2402.98	27
2403.9	28
2404.83	24
2405.75	26
2406.67	28
2407.6	27
2408.52	24
2409.44	31
2410.37	32
2411.29	26
2412.21	26
2413.13	30
2414.06	28
2414.98	26
2415.9	23
2416.82	26
2417.74	25
2418.67	24
2419.59	28
2420.51	28
2421.43	26
2422.35	32
2423.27	29
2424.19	27
2425.11	27
2426.03	30
2426.96	26
2427.88	26
2428.8	28
2429.72	29
2430.64	26
2431.56	24
2432.48	25
2433.39	24
2434.31	30
2435.23	26
2436.15	27
2437.07	29
2437.99	23
2438.91	31
2439.83	28
2440.75	28
2441.67	22
2442.58	31
2443.5	32
2444.42	32
2445.34	27
2446.26	29
2447.17	25
2448.09	26
2449.01	31
2449.92	24
2450.84	27
2451.76	29
2452.68	27
2453.59	25
2454.51	23
2455.42	26
2456.34	30
2457.26	26
2458.17	28
2459.09	28
2460	30
2460.92	24
2461.83	28
2462.75	30
2463.66	30
2464.58	30
2465.49	28
2466.41	25
2467.32	31
2468.24	26
2469.15	20
2470.07	25
2470.98	26
2471.89	26
2472.81	22
2473.72	30
2474.64	28
2475.55	26
2476.46	28
2477.37	24
2478.29	26
2479.2	29
2480.11	28
2481.03	26
2481.94	25
2482.85	26
2483.76	26
2484.67	22
2485.59	25
2486.5	28
2487.41	26
2488.32	28
2489.23	23
2490.14	26
2491.05	26
2491.97	22
2492.88	28
2493.79	28
2494.7	26
2495.61	31
2496.52	29
2497.43	26
2498.34	33
2499.25	29
2500.16	27
2501.07	29
2501.98	26
2502.89	28
2503.79	24
2504.7	26
2505.61	26
2506.52	27
2507.43	24
2508.34	27
2509.25	22
2510.16	30
2511.06	26
2511.97	24
2512.88	27
2513.79	26
2514.69	31
2515.6	28
2516.51	30
2517.42	30
2518.32	24
2519.23	32
2520.14	26
2521.04	24
2521.95	26
2522.86	27
2523.76	30
2524.67	24
2525.57	33
2526.48	22
2527.39	22
2528.29	26
2529.2	26
2530.1	26
2531.01	30
2531.91	21
2532.82	24
2533.72	24
2534.63	27
2535.53	26
2536.44	32
2537.34	22
2538.24	30
2539.15	24
2540.05	30
2540.96	31
2541.86	32
2542.76	28
2543.67	29
2544.57	27
2545.47	23
2546.37	26
2547.28	28
2548.18	25
2549.08	27
2549.99	24
2550.89	27
2551.79	26
2552.69	29
2553.59	27
2554.49	24
2555.4	30
2556.3	32
2557.2	27
2558.1	27
2559	30
2559.9	25
2560.8	30
2561.7	26
2562.6	26
2563.5	23
2564.4	30
2565.3	26
2566.2	25
2567.1	28
2568	28
2568.9	22
2569.8	25
2570.7	29
2571.6	28
2572.5	30
2573.4	29
2574.3	28
2575.2	27
2576.1	27
2576.99	33
2577.89	25
2578.79	27
2579.69	32
2580.59	26
2581.48	28
2582.38	30
2583.28	28
2584.18	24
2585.07	21
2585.97	31
2586.87	22
2587.76	26
2588.66	28
2589.56	26
2590.45	28
2591.35	26
2592.25	28
2593.14	26
2594.04	29
2594.93	26
2595.83	28
2596.73	21
2597.62	29
2598.52	31
2599.41	25
2600.31	30
2601.2	24
2602.1	26
2602.99	30
2603.88	24
2604.78	27
2605.67	20
2606.57	26
2607.46	26
2608.35	25
2609.25	26
2610.14	28
2611.03	26
2611.93	30
2612.82	25
2613.71	26
2614.61	28
2615.5	28
2616.39	29
2617.29	28
2618.18	30
2619.07	28
2619.96	27
2620.85	27
2621.75	25
2622.64	31
2623.53	32
2624.42	25
2625.31	28
2626.2	30
2627.09	23
2627.98	28
2628.88	25
2629.77	26
2630.66	27
2631.55	28
2632.44	20
2633.33	28
2634.22	26
2635.11	29
2636	25
2636.89	33
2637.78	24
2638.66	27
2639.55	26
2640.44	32
2641.33	28
2642.22	26
2643.11	33
2644	20
2644.89	26
2645.78	26
2646.66	28
2647.55	24
2648.44	28
2649.33	29
2650.21	25
2651.1	29
2651.99	27
2652.88	28
2653.76	28
2654.65	28
2655.54	24
2656.42	26
2657.31	26
2658.2	28
2659.08	26
2659.97	26
2660.86	29
2661.74	27
2662.63	27
2663.51	29
2664.4	24
2665.29	26
2666.17	25
2667.06	21
2667.94	26
2668.83	29
2669.71	26
2670.6	32
2671.48	27
2672.36	25
2673.25	30
2674.13	30
2675.02	31
2675.9	25
2676.78	28
2677.67	27
2678.55	35
2679.43	33
2680.32	26
2681.2	28
2682.08	24
2682.97	26
2683.85	26
2684.73	30
2685.61	32
2686.5	27
2687.38	26
2688.26	23
2689.14	27
2690.03	29
2690.91	28
2691.79	22
2692.67	25
2693.55	24
2694.43	28
2695.31	28
2696.19	30
2697.08	22
2697.96	30
2698.84	29
2699.72	24
2700.6	27
2701.48	27
2702.36	22
2703.24	30
2704.12	30
2705	28
2705.88	24
2706.76	29
2707.64	30
2708.51	26
2709.39	28
2710.27	24
2711.15	18
2712.03	28
2712.91	28
2713.79	26
2714.67	26
2715.54	28
2716.42	26
2717.3	29
2718.18	24
2719.05	31
2719.93	26
2720.81	25
2721.69	34
2722.56	31
2723.44	25
2724.32	30
2725.19	27
2726.07	31
2726.95	29
2727.82	26
2728.7	24
2729.58	28
2730.45	26
2731.33	29
2732.2	30
2733.08	28
2733.95	30
2734.83	26
2735.7	34
2736.58	29
2737.45	26
2738.33	28
2739.2	22
2740.08	30
2740.95	27
2741.83	27
2742.7	26
2743.58	24
2744.45	28
2745.32	26
2746.2	27
2747.07	29
2747.94	28
2748.82	28
2749.69	28
2750.56	28
2751.44	30
2752.31	29
2753.18	31
2754.05	25
2754.93	28
2755.8	22
2756.67	27
2757.54	25
2758.42	29
2759.29	25
2760.16	22
2761.03	27
2761.9	23
2762.77	22
2763.64	25
2764.51	31
2765.38	32
2766.26	30
2767.13	28
2768	32
2768.87	26
2769.74	28
2770.61	26
2771.48	26
2772.35	25
2773.22	28
2774.09	28
2774.96	34
2775.83	28
2776.7	27
2777.56	22
2778.43	26
2779.3	28
2780.17	27
2781.04	33
2781.91	31
2782.78	29
2783.64	32
2784.51	26
2785.38	28
2786.25	31
2787.12	18
2787.98	30
2788.85	26
2789.72	27
2790.59	30
2791.45	28
2792.32	28
2793.19	26
2794.05	32
2794.92	28
2795.79	30
2796.65	28
2797.52	24
2798.38	29
2799.25	30
2800.12	28
2800.98	29
2801.85	28
2802.71	29
2803.58	29.5
2804.44	30
2805.31	24
2806.17	30
2807.04	25
2807.9	28
2808.77	24
2809.63	32
2810.5	28
2811.36	33
2812.22	32
2813.09	31
2813.95	27
2814.82	27
2815.68	26
2816.54	25
2817.41	28
2818.27	26
2819.13	30
2820	30
2820.86	26
2821.72	25
2822.58	23
2823.45	25
2824.31	32
2825.17	30
2826.03	26
2826.9	27
2827.76	28
2828.62	18
2829.48	28
2830.34	30
2831.2	30
2832.06	30
2832.92	28
2833.79	30
2834.65	29
2835.51	28
2836.37	30
2837.23	29
2838.09	31
2838.95	26
2839.81	30
2840.67	31
2841.53	28
2842.39	28
2843.25	30
2844.11	28
2844.97	27
2845.83	28
2846.68	28
2847.54	27
2848.4	29
2849.26	26
2850.12	28
2850.98	26
2851.84	34
2852.69	30
2853.55	28
2854.41	29
2855.27	24
2856.13	27
2856.98	22
2857.84	30
2858.7	28
2859.56	24
2860.41	29
2861.27	33
2862.13	26
2862.98	32
2863.84	20
2864.7	24
2865.55	30
2866.41	28
2867.27	32
2868.12	33
2868.98	30
2869.83	24
2870.69	25
2871.54	28
2872.4	29
2873.25	30
2874.11	28
2874.96	34
2875.82	30
2876.68	24
2877.53	26
2878.38	30
2879.24	30
2880.09	32
2880.95	32
2881.8	29
2882.65	34
2883.51	35
2884.36	26
2885.22	34
2886.07	34
2886.92	32
2887.77	28
2888.63	30
2889.48	36
2890.33	38
2891.19	35
2892.04	35
2892.89	43
2893.74	36
2894.6	40
2895.45	41
2896.3	38
2897.15	41
2898	41
2898.85	46
2899.71	52
2900.56	42
2901.41	50
2902.26	50
2903.11	58
2903.96	55
2904.81	61
2905.66	54
2906.51	54
2907.36	58
2908.21	59
2909.06	56
2909.91	47
2910.76	54
2911.61	48
2912.46	47
2913.31	48
2914.16	48
2915.01	42
2915.86	36
2916.71	47
2917.56	41
2918.41	34
2919.26	36
2920.1	32
2920.95	30
2921.8	30
2922.65	34
2923.5	35
2924.34	42
2925.19	28
2926.04	33
2926.89	34
2927.74	26
2928.58	34
2929.43	29
2930.28	29
2931.12	29
2931.97	30
2932.82	28
2933.66	28
2934.51	32
2935.36	30
2936.2	34
2937.05	30
2937.89	30
2938.74	26
2939.59	34
2940.43	26
2941.28	28
2942.12	34
2942.97	29
2943.81	26
2944.66	30
2945.5	32
2946.35	28
2947.19	28
2948.04	26
2948.88	34
2949.72	29
2950.57	29
2951.41	28
2952.26	37
2953.1	26
2953.94	35
2954.79	32
2955.63	38
2956.47	31
2957.32	39
2958.16	34
2959	28
2959.85	31
2960.69	34
2961.53	32
2962.37	40
2963.22	38
2964.06	40
2964.9	36
2965.74	40
2966.58	34
2967.42	42
2968.27	34
2969.11	44
2969.95	42
2970.79	32
2971.63	36
2972.47	34
2973.31	36
2974.15	36
2974.99	33
2975.83	30
2976.68	30
2977.52	33
2978.36	27
2979.2	30
2980.04	32
2980.88	37
2981.71	33
2982.55	30
2983.39	31
2984.23	24
2985.07	29
2985.91	27
2986.75	30
2987.59	31
2988.43	26
2989.27	22
2990.1	27
2990.94	31
2991.78	26
2992.62	33
2993.46	30
2994.3	26
2995.13	29
2995.97	22
2996.81	28
2997.64	30
2998.48	31
2999.32	26
