#Acq. time (s)=	3
#Accumulations=	3
#Range (cm-¹)=	100...3000
#Windows=	3
#Autofocus=	Off
#AutoExposure=	Off
#Spike filter=	Multiple accum.
#Delay time (s)=	0
#Binning=	1
#Readout mode=	Signal
#DeNoise=	Off
#ICS correction=	Off
#Dark correction=	Off
#Inst. Process=	Off
#Instrument=	LabRAM HR Evol
#Detector=	Syncerity OE
#Objective=	x100_VIS_LWD
#Grating=	600 (500nm)
#ND Filter=	25%
#Laser=	633nm_Edge
#Hole=	100.021
#Range=	Visible
#Project=	Bolus
#Sample=	B1
#Site=	stripside
#Title=	m01
#Remark=	
#Date=	03.11.2025 16:47
#Acquired=	03.11.2025 16:47:52
100.969	29
102.252	32
103.535	27
104.818	33
106.101	30
107.384	30
108.666	26
109.948	24
111.232	32
112.514	30
113.795	20
115.077	32
116.358	32
117.639	31
118.919	28
120.2	32
121.48	34
122.76	26
124.04	26
125.32	26
126.599	29
127.879	32
129.158	30
130.436	31
131.715	33
132.992	32
134.27	29
135.548	28
136.826	30
138.104	28
139.381	32
140.658	28
141.935	36
143.212	32
144.489	32
145.763	37
147.04	28
148.315	34
149.591	34
150.867	26
152.142	34
153.416	37
154.691	31
155.965	30
157.24	38
158.514	36
159.786	36
161.06	36
162.334	36
163.607	30
164.881	37
166.152	34
167.425	34
168.698	37
169.969	37
171.241	40
172.513	30
173.785	32
175.055	40
176.326	33
177.597	33
178.867	32
180.137	37
181.408	34
182.677	31
183.947	34
185.217	36
186.485	34
187.755	30
189.022	30
190.291	30
191.56	34
192.828	31
194.096	32
195.363	37
196.631	35
197.899	30
199.165	32
200.432	32
201.698	30
202.965	32
204.23	30
205.497	32
206.762	33
208.028	31
209.293	36
210.559	31
211.823	30
213.088	36
214.352	32
215.617	27
216.88	32
218.145	35
219.408	29
220.672	36
221.934	30
223.196	31
224.46	31
225.722	30
226.985	31
228.246	30
229.508	32
230.77	31
232.031	32
233.292	30
234.554	30
235.814	33
237.074	30
238.335	30
239.595	30
240.854	28
242.115	31
243.374	34
244.633	32
245.893	30
247.151	31
248.409	33
249.667	32
250.927	32
252.184	29
253.442	32
254.699	22
255.957	32
257.214	28
258.47	31
259.727	28
260.983	32
262.24	28
263.496	28
264.752	35
266.007	30
267.262	34
268.517	28
269.773	28
271.028	33
272.282	30
273.536	29
274.79	30
276.044	26
277.297	28
278.551	33
279.804	28
281.057	26
282.31	30
283.564	31
284.816	35
286.068	31
287.32	28
288.572	27
289.823	31
291.074	29
292.325	31
293.576	28
294.827	29
296.077	28
297.328	24
298.578	29
299.828	30
301.077	31
302.325	22
303.575	30
304.824	29
306.073	30
307.321	30
308.57	27
309.818	26
311.066	31
312.314	29
313.562	33
314.808	30
316.055	30
317.302	31
318.549	32
319.796	24
321.042	26
322.288	25
323.533	31
324.779	27
326.024	26
327.27	26
328.515	30
329.759	29
331.004	28
332.248	28
333.493	28
334.736	27
335.98	34
337.223	32
338.466	24
339.709	27
340.952	31
342.195	34
343.437	29
344.68	30
345.922	28
347.163	28
348.405	32
349.647	32
350.887	22
352.128	30
353.37	30
354.609	30
355.85	28
357.089	30
358.33	29
359.57	30
360.809	31
362.049	31
363.287	31
364.526	36
365.764	32
367.003	30
368.241	36
369.479	27
370.718	30
371.955	34
373.193	28
374.429	32
375.667	30
376.903	30
378.139	28
379.376	30
380.611	36
381.848	35
383.083	25
384.319	31
385.554	34
386.79	23
388.024	32
389.258	26
390.493	26
391.727	36
392.962	34
394.195	27
395.428	32
396.663	33
397.895	32
399.128	32
400.361	34
401.593	24
402.825	32
404.058	31
405.29	34
406.521	28
407.752	28
408.985	32
410.215	32
411.446	28
412.678	31
413.908	28
415.138	30
416.367	24
417.597	30
418.828	26
420.057	28
421.286	30
422.514	32
423.743	28
424.973	28
426.201	32
427.429	33
428.657	32
429.884	28
431.112	31
432.34	29
433.567	30
434.794	34
436.02	30
437.247	32
438.473	33
439.699	29
440.925	28
442.15	33
443.376	32
444.601	27
445.826	30
447.051	32
448.275	30
449.5	32
450.724	33
451.948	32
453.172	32
454.396	31
455.619	31
456.842	33
458.065	30
459.288	27
460.511	28
461.733	34
462.956	35
464.178	28
465.4	28
466.621	34
467.843	34
469.064	26
470.285	32
471.505	28
472.726	30
473.946	37
475.166	35
476.387	36
477.606	36
478.825	38
480.044	37
481.264	37
482.483	36
483.702	38
484.921	40
486.138	47
487.356	42
488.574	47
489.792	41
491.009	35
492.226	43
493.444	41
494.661	45
495.877	39
497.094	41
498.31	36
499.525	40
500.741	39
501.958	30
503.172	36
504.388	38
505.603	32
506.817	36
508.032	35
509.247	37
510.46	35
511.675	34
512.888	30
514.102	34
515.316	31
516.528	28
517.742	32
518.954	31
520.167	34
521.378	36
522.591	28
523.802	36
525.015	32
526.226	33
527.438	30
528.648	26
529.86	32
531.07	29
532.281	33
533.491	28
534.702	31
535.911	30
537.121	34
538.33	29
539.54	35
540.749	29
541.957	30
543.167	32
544.375	31
545.584	28
546.791	37
547.999	30
549.207	29
550.414	26
551.621	32
552.829	29
554.035	32
555.241	34
556.449	32
557.655	32
558.86	27
560.066	31
561.272	28
562.477	28
563.682	32
564.888	28
566.093	34
567.297	30
568.501	24
569.705	32
570.91	26
572.114	33
573.317	31
574.52	34
575.723	34
576.927	32
578.13	30
579.332	30
580.535	28
581.737	32
582.938	30
584.14	26
585.343	26
586.544	29
587.745	34
588.946	24
590.147	32
591.347	32
592.548	32
593.748	26
594.948	30
596.147	27
597.347	38
598.546	34
599.745	30
600.944	32
602.143	29
603.342	32
604.54	30
605.738	31
606.937	32
608.134	29
609.332	30
610.529	33
611.727	31
612.924	34
614.121	31
615.317	28
616.513	33
617.709	29
618.905	28
620.101	30
621.297	28
622.492	35
623.688	28
624.883	30
626.077	33
627.271	34
628.466	32
629.66	32
630.855	29
632.047	33
633.241	26
634.435	30
635.629	22
636.82	29
638.014	32
639.207	30
640.399	32
641.59	30
642.783	26
643.975	30
645.166	33
646.357	32
647.549	22
648.741	24
649.93	34
651.122	29
652.311	30
653.502	30
654.692	30
655.881	32
657.071	33
658.261	28
659.45	32
660.639	29
661.827	33
663.016	33
664.204	28
665.393	29
666.581	32
667.769	29
668.957	28
670.143	36
671.331	30
672.518	20
673.705	28
674.891	30
676.078	30
677.264	34
678.451	35
679.636	31
680.821	30
682.007	34
683.192	31
684.378	32
685.562	34
686.747	32
687.931	35
689.115	30
690.3	38
691.483	36
692.666	28
693.851	32
695.034	36
696.216	34
697.4	32
698.582	36
699.764	34
700.948	32
702.129	32
703.311	34
704.493	32
705.674	38
706.855	39
708.036	37
709.218	40
710.399	42
711.579	39
712.759	42
713.939	38
715.12	33
716.299	30
717.478	34
718.657	33
719.836	30
721.015	32
722.195	27
723.373	26
724.552	30
725.729	30
726.907	32
728.085	30
729.262	37
730.44	37
731.617	30
732.795	26
733.972	32
735.148	31
736.324	22
737.501	29
738.677	32
739.852	29
741.028	38
742.203	33
743.379	29
744.554	31
745.729	28
746.903	28
748.078	31
749.252	32
750.426	29
751.599	35
752.772	28
753.946	30
755.119	34
756.293	31
757.466	28
758.639	30
759.811	33
760.984	28
762.155	27
763.327	27
764.499	33
765.67	36
766.842	32
768.013	28
769.183	28
770.354	30
771.525	24
772.696	36
773.865	30
775.035	29
776.205	32
777.375	32
778.544	28
779.713	27
780.882	32
782.052	30
783.219	28
784.388	31
785.557	34
786.724	30
787.892	28
789.06	35
790.227	28
791.395	32
792.562	29
793.728	30
794.895	29
796.061	26
797.228	29
798.395	27
799.56	33
800.726	30
801.891	30
803.057	32
804.221	30
805.387	30
806.551	30
807.716	35
808.879	24
810.044	32
811.208	30
812.372	32
813.535	29
814.699	34
815.862	30
817.025	32
818.188	29
819.351	28
820.513	30
821.675	30
822.837	28
823.999	30
825.161	27
826.322	26
827.483	32
828.645	34
829.805	30
830.966	24
832.127	36
833.287	27
834.447	29
835.607	27
836.767	30
837.926	30
839.085	28
840.245	28
841.404	30
842.562	37
843.72	30
844.88	26
846.038	30
847.195	26
848.353	33
849.512	28
850.669	28
851.826	31
852.983	31
854.139	26
855.296	32
856.453	26
857.609	26
858.765	31
859.921	24
861.077	31
862.232	32
863.387	36
864.542	34
865.697	34
866.852	28
868.008	27
869.162	29
870.316	34
871.47	36
872.624	28
873.778	30
874.931	36
876.084	32
877.237	34
878.39	32
879.543	29
880.695	32
881.846	35
882.999	30
884.151	24
885.302	30
886.454	31
887.606	23
888.757	32
889.908	30
891.059	22
892.21	25
893.359	35
894.509	31
895.659	30
896.81	29
897.959	34
899.109	24
900.257	28
901.407	28
902.556	29
903.705	26
904.854	20
906.001	31
907.149	32
908.298	32
909.446	30
910.592	22
911.74	31
912.888	30
914.034	30
915.181	28
916.328	29
917.473	28
918.62	29
919.766	30
920.911	26
922.058	30
923.204	32
924.348	33
925.494	30
926.638	32
927.783	24
928.928	26
930.072	30
931.216	31
932.36	24
933.504	29
934.647	28
935.791	28
936.933	26
938.077	30
939.219	29
940.363	27
941.504	31
942.647	32
943.789	30
944.932	29
946.073	26
947.215	29
948.356	28
949.498	18
950.638	27
951.778	32
952.92	30
954.06	32
955.199	28
956.34	29
957.479	28
958.62	24
959.759	26
960.898	31
962.038	28
963.176	29
964.315	30
965.453	29
966.592	28
967.73	32
968.867	30
970.006	26
971.144	26
972.281	26
973.418	30
974.554	28
975.692	28
976.829	26
977.965	30
979.101	29
980.237	27
981.374	32
982.509	32
983.645	30
984.78	31
985.915	31
987.05	32
988.184	30
989.319	30
990.453	31
991.589	24
992.722	29
993.856	31
994.99	31
996.123	31
997.257	28
998.39	24
999.523	24
1000.66	29
1001.79	26
1002.92	24
1004.05	27
1005.18	28
1006.32	24
1007.45	29
1008.58	27
1009.71	31
1010.84	28
1011.97	33
1013.1	26
1014.23	29
1015.36	30
1016.49	20
1017.62	26
1018.75	29
1019.88	30
1021.01	24
1022.14	33
1023.27	36
1024.4	28
1025.53	28
1026.66	31
1027.79	23
1028.91	26
1030.04	26
1031.17	30
1032.3	26
1033.42	24
1034.55	30
1035.68	29
1036.81	28
1037.93	34
1039.06	28
1040.18	24
1041.31	26
1042.44	28
1043.56	31
1044.69	29
1045.81	28
1046.94	30
1048.06	31
1049.19	26
1050.31	29
1051.44	26
1052.56	27
1053.69	28
1054.81	27
1055.93	23
1057.06	29
1058.18	28
1059.3	25
1060.43	33
1061.55	27
1062.67	28
1063.79	22
1064.92	26
1066.04	24
1067.16	28
1068.28	28
1069.4	28
1070.52	31
1071.65	31
1072.77	29
1073.89	29
1075.01	36
1076.13	32
1077.25	26
1078.37	28
1079.49	32
1080.61	30
1081.73	30
1082.85	29
1083.97	28
1085.09	25
1086.2	32
1087.32	26
1088.44	29
1089.56	28
1090.68	30
1091.8	28
1092.91	20
1094.03	29
1095.15	26
1096.26	32
1097.38	28
1098.5	31
1099.61	28
1100.73	24
1101.85	30
1102.96	31
1104.08	34
1105.19	28
1106.31	28
1107.43	29
1108.54	24
1109.66	31
1110.77	27
1111.88	27
1113	18
1114.11	28
1115.23	24
1116.34	31
1117.46	25
1118.57	24
1119.68	29
1120.8	24
1121.91	28
1123.02	30
1124.13	27
1125.25	27
1126.36	28
1127.47	28
1128.58	28
1129.69	30
1130.8	26
1131.92	25
1133.03	30
1134.14	30
1135.25	24
1136.36	25
1137.47	29
1138.58	26
1139.69	23
1140.8	34
1141.91	24
1143.02	22
1144.13	28
1145.24	26
1146.35	28
1147.46	28
1148.56	28
1149.67	30
1150.78	28
1151.89	32
1153	26
1154.1	26
1155.21	32
1156.32	31
1157.43	26
1158.53	34
1159.64	33
1160.75	28
1161.85	22
1162.96	26
1164.07	30
1165.17	32
1166.28	30
1167.38	30
1168.49	27
1169.59	24
1170.7	32
1171.8	26
1172.91	28
1174.01	28
1175.12	24
1176.22	30
1177.32	26
1178.43	29
1179.53	26
1180.64	29
1181.74	32
1182.84	26
1183.94	29
1185.05	28
1186.15	30
1187.25	30
1188.35	20
1189.46	26
1190.56	35
1191.66	27
1192.76	25
1193.86	31
1194.96	31
1196.06	28
1197.16	29.9374
1198.26	27.9431
1199.37	29.9542
1200.47	27.9426
1201.57	29.6765
1202.67	31.5592
1203.77	27.0053
1204.86	27.8672
1205.96	25.1964
1207.06	29.7359
1208.16	29.4324
1209.26	30.393
1210.36	29.0692
1211.46	23.3509
1212.56	28.1536
1213.65	25.3212
1214.75	26.8369
1215.85	27.2745
1216.95	25.7093
1218.04	27.6829
1219.14	27.6047
1220.24	27.1176
1221.33	28.0597
1222.43	25.5632
1223.53	29.8379
1224.62	28.8167
1225.72	29.652
1226.82	31.6429
1227.91	24.6633
1229.01	31.5049
1230.1	26.6176
1231.2	25.5399
1232.29	26.2371
1233.39	30.4463
1234.48	27.4878
1235.58	27.3576
1236.67	28.6703
1237.77	29.5376
1238.86	27.4008
1239.95	28.2494
1241.05	25.3382
1242.14	27.5181
1243.23	27.9693
1244.33	27.0627
1245.42	27.85
1246.51	25.8524
1247.61	23.8627
1248.7	27.7766
1249.79	26.6471
1250.88	31.8681
1251.97	25.3262
1253.07	26.0106
1254.16	27.4382
1255.25	23.9409
1256.34	25.7286
1257.43	27.6673
1258.52	27.0392
1259.61	27.2596
1260.7	24.8327
1261.79	26.4412
1262.88	25.7912
1263.97	27.787
1265.06	27.6295
1266.15	27.7325
1267.24	27.6126
1268.33	27.4615
1269.42	25.1799
1270.51	25.6798
1271.6	23.4438
1272.68	29.1824
1273.77	29.8903
1274.86	25.1824
1275.95	25.1302
1277.04	26.5067
1278.12	28.5196
1279.21	26.2447
1280.3	23.5395
1281.39	25.9867
1282.47	27.2919
1283.56	28.6451
1284.65	28.201
1285.73	26.4706
1286.82	27.0896
1287.91	24.1347
1288.99	26.2032
1290.08	26.3312
1291.16	22.7371
1292.25	27.1083
1293.33	24.8478
1294.42	27.8659
1295.5	25.0518
1296.59	26
1297.67	26.1667
1298.76	26.3989
1299.84	27.2916
1300.92	28.0861
1302.01	29.1642
1303.09	22.759
1304.17	28.5699
1305.26	26.148
1306.34	27.8355
1307.34	26
1308.43	29
1309.52	27
1310.61	22
1311.7	26
1312.78	25
1313.87	28
1314.96	30
1316.04	31
1317.13	29
1318.22	24
1319.3	27
1320.39	28
1321.48	30
1322.56	22
1323.65	34
1324.73	26
1325.82	25
1326.9	24
1327.99	22
1329.07	31
1330.16	30
1331.24	26
1332.33	26
1333.41	27
1334.5	27
1335.58	20
1336.66	27
1337.75	30
1338.83	32
1339.91	28
1341	26
1342.08	26
1343.16	27
1344.24	28
1345.33	28
1346.41	29
1347.49	27
1348.57	28
1349.65	27
1350.74	30
1351.82	24
1352.9	25
1353.98	24
1355.06	28
1356.14	26
1357.22	27
1358.3	28
1359.38	26
1360.46	26
1361.54	29
1362.62	23
1363.7	26
1364.78	27
1365.86	28
1366.94	27
1368.02	25
1369.09	25
1370.17	26
1371.25	27
1372.33	28
1373.41	28
1374.48	28
1375.56	30
1376.64	29
1377.72	30
1378.79	27
1379.87	28
1380.95	22
1382.02	25
1383.1	32
1384.17	32
1385.25	26
1386.33	29
1387.4	26
1388.48	26
1389.55	30
1390.63	29
1391.7	28
1392.78	24
1393.85	30
1394.93	28
1396	26
1397.07	28
1398.15	26
1399.22	27
1400.3	29
1401.37	27
1402.44	29
1403.52	34
1404.59	30
1405.66	25
1406.73	29
1407.81	27
1408.88	30
1409.95	20
1411.02	28
1412.09	22
1413.17	29
1414.24	23
1415.31	29
1416.38	26
1417.45	28
1418.52	34
1419.59	31
1420.66	26
1421.73	22
1422.8	26
1423.87	22
1424.94	30
1426.01	30
1427.08	24
1428.15	28
1429.22	33
1430.29	26
1431.35	27
1432.42	28
1433.49	29
1434.56	24
1435.63	30
1436.69	27
1437.76	30
1438.83	28
1439.9	28
1440.96	23
1442.03	31
1443.1	25
1444.17	27
1445.23	26
1446.3	27
1447.36	28
1448.43	31
1449.49	29
1450.56	32
1451.63	28
1452.69	29
1453.76	31
1454.82	29
1455.89	26
1456.95	22
1458.01	30
1459.08	29
1460.14	28
1461.21	27
1462.27	32
1463.34	30
1464.4	27
1465.46	28
1466.52	28
1467.59	27
1468.65	29
1469.71	24
1470.77	24
1471.84	26
1472.9	30
1473.96	28
1475.02	29
1476.08	32
1477.15	30
1478.21	31
1479.27	31
1480.33	23
1481.39	28
1482.45	33
1483.51	24
1484.57	27
1485.63	24
1486.69	29
1487.75	32
1488.81	29
1489.87	28
1490.93	30
1491.99	29
1493.05	30
1494.1	28
1495.16	31
1496.22	24
1497.28	27
1498.34	28
1499.4	26
1500.45	26
1501.51	28
1502.57	28
1503.63	28
1504.68	26
1505.74	22
1506.8	25
1507.85	27
1508.91	29
1509.97	27
1511.02	26
1512.08	29
1513.13	22
1514.19	30
1515.24	24
1516.3	30
1517.35	30
1518.41	31
1519.46	26
1520.52	32
1521.57	28
1522.63	31
1523.68	29
1524.73	24
1525.79	30
1526.84	28
1527.9	30
1528.95	25
1530	28
1531.05	24
1532.11	24
1533.16	27
1534.21	29
1535.26	29
1536.32	30
1537.37	28
1538.42	24
1539.47	28
1540.52	30
1541.57	32
1542.63	26
1543.68	28
1544.73	34
1545.78	27
1546.83	29
1547.88	26
1548.93	27
1549.98	27
1551.03	25
1552.08	28
1553.13	26
1554.18	32
1555.23	29
1556.27	27
1557.32	26
1558.37	20
1559.42	23
1560.47	29
1561.52	26
1562.56	30
1563.61	33
1564.66	30
1565.71	26
1566.75	26
1567.8	26
1568.85	30
1569.9	34
1570.94	34
1571.99	29
1573.03	30
1574.08	30
1575.13	30
1576.17	30
1577.22	29
1578.26	32
1579.31	26
1580.35	34
1581.4	28
1582.44	31
1583.49	30
1584.53	23
1585.58	27
1586.62	29
1587.66	24
1588.71	29
1589.75	26
1590.8	29
1591.84	26
1592.88	28
1593.92	27
1594.97	33
1596.01	30
1597.05	29
1598.1	26
1599.14	31
1600.18	22
1601.22	31
1602.26	26
1603.3	27
1604.35	24
1605.39	28
1606.43	29
1607.47	25
1608.51	31
1609.55	28
1610.59	28
1611.63	28
1612.67	27
1613.71	28
1614.75	28
1615.79	30
1616.83	28
1617.87	29
1618.91	27
1619.95	30
1620.99	24
1622.02	30
1623.06	29
1624.1	26
1625.14	32
1626.18	25
1627.21	31
1628.25	28
1629.29	25
1630.33	26
1631.36	26
1632.4	32
1633.44	25
1634.48	27
1635.51	30
1636.55	28
1637.58	31
1638.62	28
1639.66	28
1640.69	26
1641.73	29
1642.76	28
1643.8	28
1644.83	26
1645.87	22
1646.9	22
1647.94	32
1648.97	29
1650	28
1651.04	25
1652.07	28
1653.11	33
1654.14	26
1655.17	29
1656.21	29
1657.24	26
1658.27	30
1659.31	26
1660.34	30
1661.37	31
1662.4	31
1663.43	26
1664.47	26
1665.5	23
1666.53	23
1667.56	29
1668.59	26
1669.62	30
1670.66	28
1671.69	31
1672.72	29
1673.75	24
1674.78	27
1675.81	29
1676.84	24
1677.87	24
1678.9	26
1679.93	25
1680.96	26
1681.98	25
1683.01	28
1684.04	31
1685.07	20
1686.1	22
1687.13	28
1688.16	26
1689.18	30
1690.21	24
1691.24	24
1692.27	25
1693.3	26
1694.32	35
1695.35	30
1696.38	24
1697.4	29
1698.43	28
1699.46	28
1700.48	24
1701.51	30
1702.54	31
1703.56	26
1704.59	28
1705.61	28
1706.64	24
1707.66	26
1708.69	26
1709.71	27
1710.74	28
1711.76	31
1712.79	27
1713.81	26
1714.83	32
1715.86	29
1716.88	32
1717.91	29
1718.93	28
1719.95	25
1720.98	28
1722	29
1723.02	28
1724.04	29
1725.07	29
1726.09	29
1727.11	26
1728.13	27
1729.15	33
1730.18	30
1731.2	30
1732.22	27
1733.24	30
1734.26	29
1735.28	28
1736.3	30
1737.32	32
1738.34	30
1739.36	26
1740.38	29
1741.4	26
1742.42	30
1743.44	22
1744.46	26
1745.48	26
1746.5	32
1747.52	30
1748.54	32
1749.56	28
1750.58	31
1751.6	28
1752.61	29
1753.63	25
1754.65	26
1755.67	26
1756.68	31
1757.7	27
1758.72	28
1759.74	24
1760.75	26
1761.77	28
1762.79	28
1763.8	24
1764.82	30
1765.83	27
1766.85	32
1767.87	27
1768.88	30
1769.9	25
1770.91	27
1771.93	32
1772.94	32
1773.96	25
1774.97	28
1775.99	26
1777	27
1778.02	31
1779.03	30
1780.04	30
1781.06	25
1782.07	27
1783.09	29
1784.1	33
1785.11	26
1786.13	28
1787.14	27
1788.15	28
1789.16	24
1790.18	24
1791.19	26
1792.2	28
1793.21	34
1794.22	28
1795.23	26
1796.25	29
1797.26	29
1798.27	23
1799.28	25
1800.29	28
1801.3	29
1802.31	33
1803.32	26
1804.33	28
1805.34	29
1806.35	30
1807.36	27
1808.37	27
1809.38	29
1810.39	26
1811.4	28
1812.41	30
1813.42	30
1814.42	30
1815.43	28
1816.44	26
1817.45	29
1818.46	26
1819.47	28
1820.47	30
1821.48	30
1822.49	26
1823.49	30
1824.5	29
1825.51	24
1826.52	28
1827.52	22
1828.53	22
1829.53	26
1830.54	27
1831.55	24
1832.55	30
1833.56	34
1834.56	26
1835.57	27
1836.57	26
1837.58	28
1838.58	30
1839.59	28
1840.59	29
1841.6	29
1842.6	24
1843.61	28
1844.61	28
1845.61	28
1846.62	26
1847.62	27
1848.62	31
1849.63	26
1850.63	32
1851.63	31
1852.64	30
1853.64	25
1854.64	28
1855.64	28
1856.64	26
1857.65	27
1858.65	26
1859.65	29
1860.65	22
1861.65	26
1862.65	27
1863.65	25
1864.66	22
1865.66	26
1866.66	30
1867.66	27
1868.66	31
1869.66	27
1870.66	30
1871.66	29
1872.66	29
1873.66	31
1874.66	27
1875.65	28
1876.65	30
1877.65	32
1878.65	24
1879.65	20
1880.65	27
1881.65	29
1882.64	31
1883.64	30
1884.64	26
1885.64	26
1886.63	30
1887.63	31
1888.63	33
1889.63	29
1890.62	25
1891.62	24
1892.62	28
1893.61	29
1894.61	32
1895.6	26
1896.6	30
1897.6	28
1898.59	28
1899.59	28
1900.58	26
1901.58	28
1902.57	29
1903.57	24
1904.56	26
1905.56	22
1906.55	34
1907.54	32
1908.54	31
1909.53	26
1910.53	29
1911.52	26
1912.51	23
1913.51	25
1914.5	26
1915.49	26
1916.49	24
1917.48	30
1918.47	27
1919.46	32
1920.46	26
1921.45	28
1922.44	22
1923.43	26
1924.42	27
1925.41	25
1926.41	23
1927.4	26
1928.39	22
1929.38	29
1930.37	25
1931.36	30
1932.35	26
1933.34	30
1934.33	28
1935.32	28
1936.31	22
1937.3	32
1938.29	26
1939.28	28
1940.27	24
1941.26	27
1942.24	26
1943.23	26
1944.22	30
1945.21	25
1946.2	27
1947.19	31
1948.17	24
1949.16	27
1950.15	28.5
1951.14	29
1952.12	28
1953.11	24
1954.1	24
1955.09	24
1956.07	29
1957.06	28
1958.05	27
1959.03	35
1960.02	29
1961	28
1961.99	26
1962.98	29
1963.96	28
1964.95	22
1965.93	23
1966.92	22
1967.9	28
1968.89	30
1969.87	27
1970.85	26
1971.84	27
1972.82	28
1973.81	24
1974.79	26
1975.78	20
1976.76	28
1977.74	20
1978.73	29
1979.71	31
1980.69	30
1981.67	27
1982.66	31
1983.64	26
1984.62	27
1985.6	27
1986.59	22
1987.57	22
1988.55	29
1989.53	21
1990.51	29
1991.49	24
1992.47	23
1993.45	30
1994.44	26
1995.42	27
1996.4	29
1997.38	32
1998.36	28
1999.34	24
2000.32	28
2001.3	27
2002.28	28
2003.26	24
2004.24	18
2005.22	29
2006.19	23
2007.17	27
2008.15	28
2009.13	24
2010.11	30
2011.09	26
2012.06	23
2013.04	27
2014.02	25
2015	28
2015.98	30
2016.95	31
2017.93	24
2018.91	27
2019.88	29
2020.86	22
2021.84	31
2022.81	24
2023.79	28
2024.77	26
2025.74	27
2026.72	25
2027.69	26
2028.67	30
2029.65	25
2030.62	27
2031.6	24
2032.57	26
2033.55	26
2034.52	22
2035.5	27
2036.47	24
2037.44	30
2038.42	24
2039.39	29
2040.36	32
2041.34	29
2042.31	24
2043.29	26
2044.26	28
2045.23	26
2046.2	28
2047.18	31
2048.15	27
2049.12	26
2050.09	26
2051.07	30
2052.04	32
2053.01	26
2053.98	27
2054.95	29
2055.93	27
2056.9	26
2057.87	26
2058.84	20
2059.81	22
2060.78	23
2061.75	27
2062.72	27
2063.69	20
2064.66	22
2065.63	27
2066.6	28
2067.57	28
2068.54	26
2069.51	30
2070.48	26
2071.45	22
2072.42	21
2073.38	28
2074.35	29
2075.32	26
2076.29	30
2077.26	22
2078.23	27
2079.19	24
2080.16	27
2081.13	26
2082.1	24
2083.06	32
2084.03	26
2085	27
2085.96	26
2086.93	29
2087.9	24
2088.86	27
2089.83	29
2090.8	24
2091.76	24
2092.73	22
2093.69	27
2094.66	28
2095.62	30
2096.59	26
2097.55	25
2098.52	26
2099.48	22
2100.45	25
2101.41	29
2102.38	25
2103.34	22
2104.31	27
2105.27	29
2106.23	28
2107.2	27
2108.16	24
2109.12	22
2110.09	22
2111.05	30
2112.01	23
2112.98	24
2113.94	22
2114.9	30
2115.86	24
2116.82	27
2117.79	21
2118.75	28
2119.71	28
2120.67	26
2121.63	28
2122.59	22
2123.55	26
2124.52	30
2125.48	23
2126.44	20
2127.4	20
2128.36	26
2129.32	26
2130.28	24
2131.24	26
2132.2	26
2133.16	28
2134.12	29
2135.08	31
2136.04	28
2136.99	29
2137.95	28
2138.91	27
2139.87	26
2140.83	24
2141.79	25
2142.75	26
2143.7	22
2144.66	30
2145.62	31.9678
2146.58	25.9185
2147.53	24.0391
2148.49	26.1919
2149.45	26.0306
2150.41	22.0654
2151.36	23.1574
2152.32	25.4428
2153.27	24.0972
2154.23	24.3435
2155.19	25.6262
2156.14	24.6485
2157.1	24.8864
2158.06	25.9919
2159.01	24
2159.97	23.9935
2160.92	26.2011
2161.88	24.3377
2162.83	25.4548
2163.79	28.4706
2164.74	29.9924
2165.7	26.2168
2166.65	26.5651
2167.61	25.7696
2168.56	21.9037
2169.51	27.5148
2170.47	26
2171.42	26.4257
2172.38	23.708
2173.33	24.2605
2174.28	25.4182
2175.24	21.8157
2176.19	22.2952
2177.14	24.1441
2178.09	26.126
2179.05	26.0939
2180	24.3278
2180.95	24.0335
2181.9	27.454
2182.86	25.961
2183.81	25.5046
2184.76	24.3101
2185.71	25.57
2186.66	24.9559
2187.61	25.6356
2188.57	24.0129
2189.52	24.6636
2190.47	25.4657
2191.42	27.3359
2192.37	23.8823
2193.32	25.768
2194.27	25.4328
2195.22	29.2006
2196.17	28.352
2197.12	26.9314
2198.07	23.3084
2199.02	26.0318
2199.97	26.4737
2200.92	25.4075
2201.87	25.0902
2202.82	25.6313
2203.76	26.7314
2204.71	25.3596
2205.66	24.4442
2206.61	25.1817
2207.56	24.7157
2208.51	24.5474
2209.45	23.6626
2210.4	25.8091
2211.35	26.6693
2212.3	28.0976
2213.24	27.7736
2214.19	24.3076
2215.14	24.7203
2216.09	22.4085
2217.03	25.9445
2217.98	23.8698
2218.93	25.675
2219.87	25.6165
2220.82	24.3199
2221.77	25.0881
2222.71	24.5465
2223.66	24.8088
2224.6	26.291
2225.55	26.7225
2226.49	24.658
2227.44	22.6438
2228.38	22.8203
2229.33	22.8787
2230.27	23.6904
2231.22	23.9829
2232.16	22.1253
2233.11	24.4599
2234.05	25.6667
2235	26.276
2235.94	22.2921
2236.88	22.4547
2237.83	25.9853
2238.77	25.8169
2239.71	26.2233
2240.66	29.2894
2241.6	28.0928
2242	26
2242.95	28
2243.9	23
2244.84	22
2245.79	25
2246.74	26
2247.69	25
2248.63	24
2249.58	23
2250.53	24
2251.47	28
2252.42	21
2253.37	26
2254.31	25
2255.26	24
2256.2	24
2257.15	24
2258.1	22
2259.04	26
2259.99	23
2260.93	27
2261.88	28
2262.82	30
2263.77	23
2264.71	25
2265.65	25
2266.6	29
2267.54	27
2268.49	25
2269.43	27
2270.38	28
2271.32	28
2272.26	30
2273.21	26
2274.15	28
2275.09	28
2276.04	26
2276.98	25
2277.92	29
2278.86	22
2279.81	25
2280.75	25
2281.69	23
2282.63	26
2283.57	32
2284.52	18
2285.46	26
2286.4	22
2287.34	30
2288.28	28
2289.22	26
2290.16	26
2291.1	28
2292.04	24
2292.98	27
2293.93	23
2294.86	31
2295.8	28
2296.74	27
2297.69	24
2298.62	26
2299.56	26
2300.5	26
2301.44	28
2302.38	24
2303.32	23
2304.26	20
2305.2	29
2306.14	28
2307.07	26
2308.01	24
2308.95	28
2309.89	26
2310.83	25
2311.76	25
2312.7	27
2313.64	30
2314.58	20
2315.51	25
2316.45	27
2317.39	23
2318.32	24
2319.26	23
2320.2	26
2321.13	27
2322.07	28
2323	26
2323.94	27
2324.88	26
2325.81	26
2326.75	22
2327.68	28
2328.62	25
2329.55	25
2330.49	30
2331.42	24
2332.36	24
2333.29	27
2334.22	29
2335.16	25
2336.09	28
2337.03	25
2337.96	34
2338.89	26
2339.83	24
2340.76	24
2341.69	24
2342.63	26
2343.56	24
2344.49	27
2345.43	24
2346.36	31
2347.29	24
2348.22	25
2349.15	22
2350.09	28
2351.02	22
2351.95	30
2352.88	23
2353.81	27
2354.74	28
2355.67	30
2356.61	24
2357.54	29
2358.47	30
2359.4	24
2360.33	28
2361.26	29
2362.19	26
2363.12	25
2364.05	30
2364.98	30
2365.91	27
2366.84	30
2367.77	26
2368.7	24
2369.62	28
2370.55	30
2371.48	27
2372.41	26
2373.34	28
2374.27	27
2375.2	28
2376.12	18
2377.05	29
2377.98	29
2378.91	25
2379.83	26
2380.76	26
2381.69	28
2382.62	26
2383.54	28
2384.47	29
2385.4	30
2386.32	26
2387.25	22
2388.18	22
2389.1	28
2390.03	25
2390.95	27
2391.88	28
2392.81	32
2393.73	24
2394.66	29
2395.58	24
2396.51	26
2397.43	22
2398.36	26
2399.28	28
2400.2	24
2401.13	29
2402.05	26
2402.98	31
2403.9	28
2404.83	29
2405.75	26
2406.67	25
2407.6	26
2408.52	24
2409.44	24
2410.37	26
2411.29	26
2412.21	24
2413.13	26
2414.06	25
2414.98	26
2415.9	28
2416.82	27
2417.74	22
2418.67	28
2419.59	27
2420.51	28
2421.43	26
2422.35	26
2423.27	26
2424.19	22
2425.11	26
2426.03	26
2426.96	29
2427.88	18
2428.8	27
2429.72	24
2430.64	25
2431.56	25
2432.48	24
2433.39	31
2434.31	22
2435.23	26
2436.15	27
2437.07	24
2437.99	28
2438.91	32
2439.83	24
2440.75	24
2441.67	30
2442.58	24
2443.5	28
2444.42	26
2445.34	22
2446.26	28
2447.17	25
2448.09	30
2449.01	28
2449.92	28
2450.84	29
2451.76	23
2452.68	28
2453.59	26
2454.51	28
2455.42	26
2456.34	29
2457.26	24
2458.17	26
2459.09	25
2460	27
2460.92	24
2461.83	29
2462.75	28
2463.66	26
2464.58	26
2465.49	30
2466.41	24
2467.32	24
2468.24	31
2469.15	27
2470.07	26
2470.98	22
2471.89	27
2472.81	28
2473.72	30
2474.64	24
2475.55	31
2476.46	24
2477.37	30
2478.29	25
2479.2	30
2480.11	26
2481.03	28
2481.94	33
2482.85	28
2483.76	30
2484.67	28
2485.59	25
2486.5	27
2487.41	30
2488.32	28
2489.23	27
2490.14	28
2491.05	26
2491.97	27
2492.88	28
2493.79	24
2494.7	28
2495.61	30
2496.52	30
2497.43	32
2498.34	25
2499.25	22
2500.16	28
2501.07	27
2501.98	25
2502.89	28
2503.79	28
2504.7	29
2505.61	28
2506.52	22
2507.43	27
2508.34	27
2509.25	29
2510.16	24
2511.06	27
2511.97	31
2512.88	27
2513.79	33
2514.69	25
2515.6	26
2516.51	27
2517.42	30
2518.32	22
2519.23	34
2520.14	24
2521.04	30
2521.95	24
2522.86	30
2523.76	26
2524.67	25
2525.57	28
2526.48	30
2527.39	28
2528.29	29
2529.2	22
2530.1	24
2531.01	25
2531.91	24
2532.82	27
2533.72	26
2534.63	30
2535.53	30
2536.44	25
2537.34	28
2538.24	29
2539.15	25
2540.05	26
2540.96	28
2541.86	21
2542.76	20
2543.67	31
2544.57	33
2545.47	31
2546.37	26
2547.28	27
2548.18	29
2549.08	26
2549.99	22
2550.89	33
2551.79	26
2552.69	30
2553.59	28
2554.49	30
2555.4	27
2556.3	24
2557.2	22
2558.1	25
2559	30
2559.9	30
2560.8	26
2561.7	30
2562.6	26
2563.5	30
2564.4	30
2565.3	30
2566.2	28
2567.1	30
2568	31
2568.9	27
2569.8	28
2570.7	30
2571.6	28
2572.5	25
2573.4	28
2574.3	26
2575.2	26
2576.1	26
2576.99	27
2577.89	28
2578.79	25
2579.69	30
2580.59	30
2581.48	18
2582.38	20
2583.28	27
2584.18	30
2585.07	24
2585.97	26
2586.87	28
2587.76	27
2588.66	31
2589.56	26
2590.45	28
2591.35	22
2592.25	26
2593.14	28
2594.04	29
2594.93	22
2595.83	25
2596.73	22
2597.62	24
2598.52	25
2599.41	28
2600.31	28
2601.2	23
2602.1	27
2602.99	25
2603.88	27
2604.78	26
2605.67	27
2606.57	28
2607.46	29
2608.35	28
2609.25	30
2610.14	24
2611.03	22
2611.93	28
2612.82	29
2613.71	24
2614.61	26
2615.5	24
2616.39	31
2617.29	24
2618.18	24
2619.07	30
2619.96	30
2620.85	27
2621.75	31
2622.64	26
2623.53	25
2624.42	23
2625.31	26
2626.2	24
2627.09	28
2627.98	26
2628.88	28
2629.77	28
2630.66	26
2631.55	24
2632.44	22
2633.33	30
2634.22	26
2635.11	30
2636	31
2636.89	30
2637.78	27
2638.66	24
2639.55	24
2640.44	28
2641.33	29
2642.22	29
2643.11	28
2644	24
2644.89	26
2645.78	28
2646.66	30
2647.55	30
2648.44	23
2649.33	34
2650.21	26
2651.1	30
2651.99	28
2652.88	26
2653.76	25
2654.65	26
2655.54	28
2656.42	30
2657.31	28
2658.2	27
2659.08	28
2659.97	28
2660.86	26
2661.74	29
2662.63	28
2663.51	28
2664.4	27
2665.29	28
2666.17	22
2667.06	29
2667.94	25
2668.83	23
2669.71	28
2670.6	24
2671.48	26
2672.36	22
2673.25	27
2674.13	28
2675.02	26
2675.9	26
2676.78	26
2677.67	24
2678.55	30
2679.43	29
2680.32	25
2681.2	28
2682.08	29
2682.97	29
2683.85	29
2684.73	28
2685.61	30
2686.5	25
2687.38	24
2688.26	28
2689.14	26
2690.03	26
2690.91	22
2691.79	26
2692.67	27
2693.55	29
2694.43	26
2695.31	30
2696.19	28
2697.08	25
2697.96	28
2698.84	24
2699.72	29
2700.6	28
2701.48	28
2702.36	24
2703.24	26
2704.12	31
2705	32
2705.88	31
2706.76	30
2707.64	28
2708.51	28
2709.39	29
2710.27	29
2711.15	20
2712.03	24
2712.91	30
2713.79	29
2714.67	32
2715.54	26
2716.42	26
2717.3	31
2718.18	28
2719.05	31
2719.93	27
2720.81	28
2721.69	28
2722.56	25
2723.44	22
2724.32	27
2725.19	34
2726.07	24
2726.95	27
2727.82	25
2728.7	26
2729.58	24
2730.45	30
2731.33	24
2732.2	28
2733.08	23
2733.95	28
2734.83	32
2735.7	29
2736.58	28
2737.45	24
2738.33	26
2739.2	26
2740.08	30
2740.95	26
2741.83	30
2742.7	23
2743.58	26
2744.45	30
2745.32	28
2746.2	30
2747.07	28
2747.94	27
2748.82	28
2749.69	23
2750.56	27
2751.44	27
2752.31	22
2753.18	24
2754.05	27
2754.93	29
2755.8	22
2756.67	27
2757.54	24
2758.42	28
2759.29	26
2760.16	27
2761.03	25
2761.9	26
2762.77	28
2763.64	27
2764.51	27
2765.38	24
2766.26	26
2767.13	28
2768	30
2768.87	28
2769.74	29
2770.61	22
2771.48	29
2772.35	29
2773.22	29
2774.09	27
2774.96	26
2775.83	24
2776.7	25
2777.56	30
2778.43	24
2779.3	24
2780.17	28
2781.04	27
2781.91	26
2782.78	28
2783.64	32
2784.51	28
2785.38	34
2786.25	24
2787.12	26
2787.98	24
2788.85	25
2789.72	34
2790.59	28
2791.45	32
2792.32	28
2793.19	28
2794.05	23
2794.92	30
2795.79	26
2796.65	27
2797.52	31
2798.38	24
2799.25	27
2800.12	27
2800.98	26
2801.85	28
2802.71	25
2803.58	28
2804.44	31
2805.31	30
2806.17	30
2807.04	26
2807.9	27
2808.77	29
2809.63	26
2810.5	26
2811.36	27
2812.22	30
2813.09	22
2813.95	24
2814.82	26
2815.68	24
2816.54	29
2817.41	29
2818.27	24
2819.13	26
2820	26
2820.86	26
2821.72	28
2822.58	26
2823.45	25
2824.31	26
2825.17	33
2826.03	28
2826.9	30
2827.76	31
2828.62	29
2829.48	22
2830.34	22
2831.2	24
2832.06	28
2832.92	30
2833.79	26
2834.65	30
2835.51	29
2836.37	32
2837.23	31
2838.09	26
2838.95	33
2839.81	29
2840.67	28
2841.53	31
2842.39	27
2843.25	25
2844.11	29
2844.97	24
2845.83	28
2846.68	31
2847.54	28
2848.4	21
2849.26	23
2850.12	35
2850.98	32
2851.84	27
2852.69	31
2853.55	23
2854.41	31
2855.27	27
2856.13	27
2856.98	22
2857.84	30
2858.7	26
2859.56	22
2860.41	31
2861.27	25
2862.13	22
2862.98	28
2863.84	32
2864.7	31
2865.55	20
2866.41	31
2867.27	24
2868.12	28
2868.98	27
2869.83	24
2870.69	26
2871.54	22
2872.4	26
2873.25	28
2874.11	31
2874.96	24
2875.82	28
2876.68	26
2877.53	31
2878.38	29
2879.24	29
2880.09	22
2880.95	28
2881.8	29
2882.65	27
2883.51	29
2884.36	25
2885.22	31
2886.07	32
2886.92	32
2887.77	30
2888.63	26
2889.48	29
2890.33	31
2891.19	32
2892.04	30
2892.89	35
2893.74	34
2894.6	28
2895.45	33
2896.3	36
2897.15	33
2898	40
2898.85	36
2899.71	38
2900.56	36
2901.41	44
2902.26	38
2903.11	38
2903.96	34
2904.81	41
2905.66	40
2906.51	38
2907.36	39
2908.21	42
2909.06	32
2909.91	36
2910.76	37
2911.61	34
2912.46	37
2913.31	38
2914.16	30
2915.01	37
2915.86	35
2916.71	33
2917.56	31
2918.41	34
2919.26	28
2920.1	29
2920.95	28
2921.8	27
2922.65	30
2923.5	27
2924.34	26
2925.19	24
2926.04	29
2926.89	26
2927.74	26
2928.58	32
2929.43	29
2930.28	30
2931.12	24
2931.97	28
2932.82	26
2933.66	30
2934.51	22
2935.36	30
2936.2	25
2937.05	24
2937.89	27
2938.74	25
2939.59	26
2940.43	23
2941.28	29
2942.12	28
2942.97	28
2943.81	29
2944.66	30
2945.5	30
2946.35	26
2947.19	25
2948.04	22
2948.88	24
2949.72	24
2950.57	28
2951.41	31
2952.26	28
2953.1	35
2953.94	26
2954.79	32
2955.63	24
2956.47	26
2957.32	26
2958.16	29
2959	31
2959.85	28
2960.69	26
2961.53	28
2962.37	29
2963.22	29
2964.06	30
2964.9	28
2965.74	31
2966.58	31
2967.42	35
2968.27	30
2969.11	33
2969.95	31
2970.79	26
2971.63	32
2972.47	30
2973.31	33
2974.15	30
2974.99	29
2975.83	29
2976.68	26
2977.52	28
2978.36	26
2979.2	26
2980.04	28
2980.88	31
2981.71	28
2982.55	26
2983.39	33
2984.23	29
2985.07	30
2985.91	26
2986.75	26
2987.59	24
2988.43	25
2989.27	26
2990.1	26
2990.94	24
2991.78	23
2992.62	30
2993.46	29
2994.3	27
2995.13	24
2995.97	29
2996.81	26
2997.64	24
2998.48	28
2999.32	27
