#Acq. time (s)=	3
#Accumulations=	3
#Range (cm-¹)=	100...3000
#Windows=	3
#Autofocus=	Off
#AutoExposure=	Off
#Spike filter=	Multiple accum.
#Delay time (s)=	0
#Binning=	1
#Readout mode=	Signal
#DeNoise=	Off
#ICS correction=	Off
#Dark correction=	Off
#Inst. Process=	Off
#Instrument=	LabRAM HR Evol
#Detector=	Syncerity OE
#Objective=	x100_VIS_LWD
#Grating=	600 (500nm)
#ND Filter=	25%
#Laser=	633nm_Edge
#Hole=	100.021
#Range=	Visible
#Project=	Bolus
#Sample=	B1
#Site=	stripside
#Title=	m11
#Remark=	
#Date=	03.11.2025 17:04
#Acquired=	03.11.2025 17:04:14
100.969	28
102.252	36
103.535	24
104.818	31
106.101	35
107.384	34
108.666	31
109.948	34
111.232	33
112.514	33
113.795	34
115.077	35
116.358	36
117.639	38
118.919	30
120.2	31
121.48	36
122.76	39
124.04	31
125.32	39
126.599	34
127.879	32
129.158	34
130.436	30
131.715	34
132.992	37
134.27	39
135.548	34
136.826	39
138.104	38
139.381	36
140.658	35
141.935	34
143.212	40
144.489	38
145.763	38
147.04	40
148.315	44
149.591	40
150.867	44
152.142	37
153.416	32
154.691	42
155.965	40
157.24	43
158.514	44
159.786	42
161.06	42
162.334	42
163.607	41
164.881	32
166.152	41
167.425	42
168.698	38
169.969	40
171.241	42
172.513	40
173.785	39
175.055	39
176.326	48
177.597	41
178.867	44
180.137	39
181.408	39
182.677	38
183.947	41
185.217	47
186.485	44
187.755	42
189.022	38
190.291	44
191.56	42
192.828	44
194.096	41
195.363	42
196.631	39
197.899	45
199.165	42
200.432	37
201.698	38
202.965	39
204.23	38
205.497	34
206.762	32
208.028	42
209.293	34
210.559	39
211.823	37
213.088	36
214.352	34
215.617	36
216.88	44
218.145	35
219.408	35
220.672	36
221.934	34
223.196	38
224.46	39
225.722	39
226.985	37
228.246	36
229.508	38
230.77	32
232.031	34
233.292	39
234.554	33
235.814	34
237.074	32
238.335	32
239.595	35
240.854	37
242.115	32
243.374	32
244.633	31
245.893	36
247.151	36
248.409	38
249.667	35
250.927	36
252.184	36
253.442	32
254.699	33
255.957	33
257.214	35
258.47	30
259.727	39
260.983	37
262.24	34
263.496	36
264.752	34
266.007	37
267.262	38
268.517	36
269.773	28
271.028	36
272.282	33
273.536	35
274.79	28
276.044	32
277.297	34
278.551	37
279.804	28
281.057	29
282.31	33
283.564	24
284.816	32
286.068	38
287.32	34
288.572	31
289.823	35
291.074	34
292.325	33
293.576	34
294.827	31
296.077	32
297.328	28
298.578	31
299.828	32
301.077	30
302.325	36
303.575	29
304.824	29
306.073	33
307.321	26
308.57	28
309.818	30
311.066	34
312.314	34
313.562	33
314.808	35
316.055	33
317.302	36
318.549	30
319.796	34
321.042	33
322.288	31
323.533	33
324.779	36
326.024	31
327.27	41
328.515	33
329.759	28
331.004	30
332.248	33
333.493	34
334.736	30
335.98	31
337.223	32
338.466	28
339.709	37
340.952	35
342.195	29
343.437	34
344.68	33
345.922	30
347.163	30
348.405	35
349.647	34
350.887	36
352.128	32
353.37	34
354.609	28
355.85	32
357.089	32
358.33	30
359.57	29
360.809	37
362.049	32
363.287	38
364.526	34
365.764	36
367.003	35
368.241	34
369.479	28
370.718	32
371.955	30
373.193	30
374.429	31
375.667	31
376.903	30
378.139	40
379.376	34
380.611	33
381.848	35
383.083	33
384.319	28
385.554	32
386.79	36
388.024	30
389.258	32
390.493	33
391.727	33
392.962	33
394.195	30
395.428	32
396.663	32
397.895	34
399.128	33
400.361	26
401.593	29
402.825	32
404.058	32
405.29	36
406.521	33
407.752	33
408.985	33
410.215	33
411.446	33
412.678	35
413.908	30
415.138	33
416.367	31
417.597	33
418.828	34
420.057	32
421.286	37
422.514	37
423.743	35
424.973	39
426.201	27
427.429	40
428.657	36
429.884	38
431.112	31
432.34	38
433.567	34
434.794	31
436.02	33
437.247	32
438.473	30
439.699	38
440.925	32
442.15	36
443.376	34
444.601	30
445.826	30
447.051	32
448.275	28
449.5	30
450.724	34
451.948	32
453.172	34
454.396	36
455.619	32
456.842	33
458.065	34
459.288	32
460.511	40
461.733	34
462.956	36
464.178	39
465.4	37
466.621	35
467.843	35
469.064	40
470.285	35
471.505	36
472.726	40
473.946	43
475.166	37
476.387	39
477.606	45
478.825	44
480.044	48
481.264	50
482.483	53
483.702	51
484.921	48
486.138	55
487.356	58
488.574	53
489.792	57
491.009	59
492.226	52
493.444	56
494.661	48
495.877	50
497.094	46
498.31	50
499.525	40
500.741	50
501.958	44
503.172	46
504.388	39
505.603	39
506.817	42
508.032	42
509.247	39
510.46	38
511.675	43
512.888	36
514.102	42
515.316	38
516.528	37
517.742	36
518.954	44
520.167	38
521.378	38
522.591	37
523.802	35
525.015	37
526.226	32
527.438	34
528.648	36
529.86	34
531.07	36
532.281	33
533.491	30
534.702	29
535.911	34
537.121	36
538.33	36
539.54	32
540.749	36
541.957	33
543.167	37
544.375	36
545.584	34
546.791	26
547.999	32
549.207	26
550.414	38
551.621	30
552.829	34
554.035	36
555.241	33
556.449	33
557.655	32
558.86	34
560.066	38
561.272	33
562.477	31
563.682	33
564.888	37
566.093	32
567.297	33
568.501	30
569.705	35
570.91	34
572.114	39
573.317	31
574.52	35
575.723	32
576.927	34
578.13	32
579.332	35
580.535	35
581.737	35
582.938	37
584.14	32
585.343	30
586.544	30
587.745	33
588.946	32
590.147	29
591.347	34
592.548	34
593.748	32
594.948	31
596.147	31
597.347	34
598.546	34
599.745	33
600.944	36
602.143	28
603.342	30
604.54	30
605.738	37
606.937	34
608.134	34
609.332	33
610.529	28
611.727	26
612.924	37
614.121	34
615.317	34
616.513	39
617.709	28
618.905	31
620.101	32
621.297	34
622.492	33
623.688	34
624.883	31
626.077	35
627.271	27
628.466	37
629.66	37
630.855	33
632.047	36
633.241	28
634.435	38
635.629	31
636.82	34
638.014	34
639.207	36
640.399	33
641.59	34
642.783	36
643.975	35
645.166	34
646.357	37
647.549	32
648.741	34
649.93	28
651.122	32
652.311	36
653.502	25
654.692	33
655.881	31
657.071	34
658.261	38
659.45	30
660.639	33
661.827	31
663.016	33
664.204	31
665.393	35
666.581	36
667.769	39
668.957	28
670.143	28
671.331	33
672.518	26
673.705	30
674.891	30
676.078	39
677.264	32
678.451	33
679.636	32
680.821	33
682.007	39
683.192	40
684.378	39
685.562	36
686.747	41
687.931	38
689.115	38
690.3	41
691.483	37
692.666	36
693.851	34
695.034	39
696.216	37
697.4	37
698.582	35
699.764	41
700.948	42
702.129	36
703.311	41
704.493	46
705.674	45
706.855	43
708.036	47
709.218	50
710.399	48
711.579	50
712.759	47
713.939	45
715.12	43
716.299	37
717.478	39
718.657	34
719.836	36
721.015	36
722.195	34
723.373	33
724.552	33
725.729	39
726.907	36
728.085	36
729.262	41
730.44	36
731.617	34
732.795	30
733.972	36
735.148	34
736.324	35
737.501	36
738.677	35
739.852	34
741.028	31
742.203	31
743.379	34
744.554	32
745.729	32
746.903	34
748.078	35
749.252	35
750.426	30
751.599	35
752.772	26
753.946	35
755.119	32
756.293	33
757.466	30
758.639	26
759.811	30
760.984	30
762.155	32
763.327	32
764.499	30
765.67	35
766.842	30
768.013	34
769.183	31
770.354	38
771.525	32
772.696	32
773.865	33
775.035	34
776.205	36
777.375	34
778.544	30
779.713	34
780.882	30
782.052	34
783.219	32
784.388	36
785.557	37
786.724	34
787.892	36
789.06	38
790.227	31
791.395	34
792.562	30
793.728	32
794.895	41
796.061	32
797.228	32
798.395	34
799.56	38
800.726	31
801.891	38
803.057	31
804.221	36
805.387	30
806.551	34
807.716	31
808.879	29
810.044	35
811.208	36
812.372	36
813.535	31
814.699	31
815.862	34
817.025	33
818.188	33
819.351	31
820.513	37
821.675	32
822.837	32
823.999	35
825.161	31
826.322	30
827.483	32
828.645	36
829.805	37
830.966	32
832.127	34
833.287	28
834.447	32
835.607	24
836.767	25
837.926	29
839.085	31
840.245	36
841.404	33
842.562	32
843.72	34
844.88	33
846.038	32
847.195	38
848.353	33
849.512	32
850.669	29
851.826	30
852.983	31
854.139	30
855.296	34
856.453	35
857.609	32
858.765	30
859.921	36
861.077	33
862.232	36
863.387	35
864.542	39
865.697	30
866.852	31
868.008	36
869.162	31
870.316	31
871.47	36
872.624	35
873.778	35
874.931	35
876.084	31
877.237	30
878.39	34
879.543	31
880.695	36
881.846	38
882.999	27
884.151	32
885.302	30
886.454	30
887.606	30
888.757	33
889.908	32
891.059	31
892.21	29
893.359	28
894.509	24
895.659	34
896.81	29
897.959	33
899.109	31
900.257	32
901.407	36
902.556	30
903.705	37
904.854	34
906.001	34
907.149	32
908.298	29
909.446	34
910.592	31
911.74	31
912.888	31
914.034	30
915.181	33
916.328	33
917.473	26
918.62	32
919.766	32
920.911	24
922.058	31
923.204	32
924.348	30
925.494	31
926.638	32
927.783	27
928.928	31
930.072	27
931.216	35
932.36	35
933.504	29
934.647	34
935.791	30
936.933	32
938.077	31
939.219	32
940.363	28
941.504	32
942.647	26
943.789	35
944.932	32
946.073	29
947.215	27
948.356	30
949.498	29
950.638	30
951.778	35
952.92	34
954.06	30
955.199	36
956.34	29
957.479	28
958.62	29
959.759	32
960.898	33
962.038	30
963.176	32
964.315	30
965.453	34
966.592	37
967.73	28
968.867	34
970.006	34
971.144	32
972.281	30
973.418	32
974.554	27
975.692	30
976.829	30
977.965	32
979.101	34
980.237	36
981.374	32
982.509	37
983.645	28
984.78	26
985.915	30
987.05	32
988.184	32
989.319	27
990.453	25
991.589	32
992.722	28
993.856	32
994.99	38
996.123	29
997.257	28
998.39	35
999.523	29
1000.66	33
1001.79	32
1002.92	30
1004.05	29
1005.18	26
1006.32	36
1007.45	28
1008.58	28
1009.71	29
1010.84	32
1011.97	37
1013.1	29
1014.23	31
1015.36	30
1016.49	26
1017.62	22
1018.75	24
1019.88	34
1021.01	30
1022.14	32
1023.27	35
1024.4	35
1025.53	32
1026.66	28
1027.79	33
1028.91	28
1030.04	31
1031.17	31
1032.3	30
1033.42	28
1034.55	32
1035.68	27
1036.81	30
1037.93	34
1039.06	29
1040.18	34
1041.31	22
1042.44	31
1043.56	30
1044.69	28
1045.81	34
1046.94	29
1048.06	31
1049.19	33
1050.31	32
1051.44	34
1052.56	30
1053.69	30
1054.81	30
1055.93	30
1057.06	28
1058.18	27
1059.3	32
1060.43	28
1061.55	33
1062.67	26
1063.79	29
1064.92	27
1066.04	32
1067.16	27
1068.28	26
1069.4	30
1070.52	35
1071.65	28
1072.77	32
1073.89	26
1075.01	33
1076.13	27
1077.25	34
1078.37	25
1079.49	35
1080.61	28
1081.73	33
1082.85	28
1083.97	31
1085.09	28
1086.2	26
1087.32	32
1088.44	28
1089.56	27
1090.68	34
1091.8	30
1092.91	24
1094.03	34
1095.15	30
1096.26	29
1097.38	28
1098.5	22
1099.61	32
1100.73	31
1101.85	32
1102.96	32
1104.08	26
1105.19	32
1106.31	30
1107.43	28
1108.54	29
1109.66	29
1110.77	34
1111.88	29
1113	29
1114.11	30
1115.23	27
1116.34	28
1117.46	27
1118.57	28
1119.68	30
1120.8	29
1121.91	28
1123.02	26
1124.13	30
1125.25	26
1126.36	27
1127.47	29
1128.58	26
1129.69	29
1130.8	32
1131.92	31
1133.03	28
1134.14	34
1135.25	32
1136.36	30
1137.47	29
1138.58	29
1139.69	32
1140.8	26
1141.91	30
1143.02	28
1144.13	23
1145.24	32
1146.35	28
1147.46	32
1148.56	27
1149.67	30
1150.78	31
1151.89	31
1153	29
1154.1	27
1155.21	32
1156.32	26
1157.43	33
1158.53	31
1159.64	29
1160.75	29
1161.85	28
1162.96	31
1164.07	35
1165.17	32
1166.28	28
1167.38	25
1168.49	33
1169.59	36
1170.7	27
1171.8	26
1172.91	30
1174.01	28
1175.12	33
1176.22	33
1177.32	34
1178.43	33
1179.53	34
1180.64	30
1181.74	29
1182.84	30
1183.94	28
1185.05	30
1186.15	30
1187.25	32
1188.35	30
1189.46	34
1190.56	28
1191.66	25
1192.76	28
1193.86	31
1194.96	30
1196.06	33.9755
1197.16	28.9502
1198.26	29.897
1199.37	30.9352
1200.47	30.9073
1201.57	26.049
1202.67	28.9468
1203.77	30
1204.86	25.1068
1205.96	23.1473
1207.06	29.7494
1208.16	28.8251
1209.26	26
1210.36	33.0084
1211.46	22.9968
1212.56	26.8355
1213.65	32.2003
1214.75	34.2758
1215.85	26.3627
1216.95	32.4864
1218.04	27.8045
1219.14	30.5838
1220.24	26.5594
1221.33	28.1058
1222.43	32.1484
1223.53	30.1126
1224.62	32.9892
1225.72	31.0724
1226.82	31.1159
1227.91	28.7634
1229.01	28
1230.1	27.3489
1231.2	25.973
1232.29	27.8503
1233.39	29.2494
1234.48	22.5076
1235.58	28.0738
1236.67	27.8877
1237.77	26.3718
1238.86	26.4752
1239.95	30.8113
1241.05	26.0489
1242.14	29.1667
1243.23	28.5735
1244.33	28.5026
1245.42	26.0536
1246.51	29.6821
1247.61	27.8937
1248.7	29.2028
1249.79	27.7059
1250.88	28.338
1251.97	28.1921
1253.07	25.9782
1254.16	29.2615
1255.25	26.9691
1256.34	25.5739
1257.43	28.6727
1258.52	27.1813
1259.61	29.6849
1260.7	27.9187
1261.79	30.0567
1262.88	26.278
1263.97	30.4813
1265.06	32.3775
1266.15	29.1741
1267.24	28.4457
1268.33	29.345
1269.42	27.491
1270.51	29.3578
1271.6	29.5642
1272.68	29.9794
1273.77	27.7941
1274.86	27.1313
1275.95	27.4161
1277.04	27.9599
1278.12	26.6138
1279.21	29.5989
1280.3	28.5511
1281.39	25.7045
1282.47	26.1993
1283.56	29.6344
1284.65	26.5647
1285.73	28.5744
1286.82	27.6373
1287.91	28.8449
1288.99	32.7068
1290.08	30.2235
1291.16	25.0214
1292.25	29.7701
1293.33	27.3329
1294.42	31.8766
1295.5	29.36
1296.59	28.7813
1297.67	29.3674
1298.76	27.8731
1299.84	30.9363
1300.92	30.5583
1302.01	27.0934
1303.09	28.2665
1304.17	30.9265
1305.26	30.8745
1306.34	29.7385
1307.34	27
1308.43	30
1309.52	27
1310.61	24
1311.7	25
1312.78	29
1313.87	28
1314.96	27
1316.04	26
1317.13	33
1318.22	24
1319.3	25
1320.39	26
1321.48	29
1322.56	28
1323.65	28
1324.73	27
1325.82	31
1326.9	30
1327.99	26
1329.07	28
1330.16	32
1331.24	28
1332.33	32
1333.41	28
1334.5	30
1335.58	28
1336.66	28
1337.75	20
1338.83	28
1339.91	26
1341	30
1342.08	30
1343.16	29
1344.24	34
1345.33	30
1346.41	28
1347.49	28
1348.57	29
1349.65	27
1350.74	27
1351.82	30
1352.9	26
1353.98	32
1355.06	28
1356.14	30
1357.22	26
1358.3	28
1359.38	24
1360.46	29
1361.54	26
1362.62	26
1363.7	29
1364.78	30
1365.86	34
1366.94	24
1368.02	31
1369.09	27
1370.17	26
1371.25	29
1372.33	28
1373.41	26
1374.48	31
1375.56	22
1376.64	26
1377.72	30
1378.79	28
1379.87	28
1380.95	28
1382.02	31
1383.1	26
1384.17	36
1385.25	32
1386.33	31
1387.4	31
1388.48	28
1389.55	28
1390.63	28
1391.7	22
1392.78	30
1393.85	34
1394.93	32
1396	32
1397.07	26
1398.15	28
1399.22	30
1400.3	29
1401.37	35
1402.44	30
1403.52	34
1404.59	29
1405.66	30
1406.73	34
1407.81	30
1408.88	32
1409.95	30
1411.02	34
1412.09	34
1413.17	30
1414.24	34
1415.31	32
1416.38	28
1417.45	27
1418.52	30
1419.59	32
1420.66	30
1421.73	31
1422.8	34
1423.87	31
1424.94	37
1426.01	26
1427.08	30
1428.15	31
1429.22	31
1430.29	26
1431.35	33
1432.42	31
1433.49	28
1434.56	28
1435.63	22
1436.69	30
1437.76	33
1438.83	33
1439.9	26
1440.96	30
1442.03	26
1443.1	27
1444.17	24
1445.23	28
1446.3	34
1447.36	28
1448.43	32
1449.49	28
1450.56	32
1451.63	26
1452.69	28
1453.76	30
1454.82	24
1455.89	28
1456.95	30
1458.01	28
1459.08	32
1460.14	28
1461.21	29
1462.27	30
1463.34	24
1464.4	30
1465.46	29
1466.52	28
1467.59	32
1468.65	30
1469.71	35
1470.77	28
1471.84	30
1472.9	30
1473.96	28
1475.02	30
1476.08	28
1477.15	28
1478.21	29
1479.27	28
1480.33	30
1481.39	30
1482.45	28
1483.51	31
1484.57	22
1485.63	31
1486.69	32
1487.75	24
1488.81	26
1489.87	27
1490.93	32
1491.99	30
1493.05	28
1494.1	30
1495.16	29
1496.22	31
1497.28	32
1498.34	33
1499.4	30
1500.45	28
1501.51	30
1502.57	36
1503.63	25
1504.68	24
1505.74	25
1506.8	28
1507.85	26
1508.91	35
1509.97	31
1511.02	30
1512.08	32
1513.13	29
1514.19	26
1515.24	26
1516.3	32
1517.35	32
1518.41	32
1519.46	26
1520.52	26
1521.57	28
1522.63	26
1523.68	27
1524.73	29
1525.79	28
1526.84	33
1527.9	24
1528.95	29
1530	31
1531.05	33
1532.11	20
1533.16	33
1534.21	31
1535.26	34
1536.32	32
1537.37	31
1538.42	30
1539.47	26
1540.52	26
1541.57	22
1542.63	33
1543.68	31
1544.73	24
1545.78	27
1546.83	26
1547.88	25
1548.93	27
1549.98	25
1551.03	27
1552.08	30
1553.13	30
1554.18	31
1555.23	24
1556.27	32
1557.32	22
1558.37	34
1559.42	32
1560.47	24
1561.52	30
1562.56	26
1563.61	30
1564.66	32
1565.71	28
1566.75	28
1567.8	28
1568.85	32
1569.9	30
1570.94	24
1571.99	31
1573.03	28
1574.08	30
1575.13	20
1576.17	28
1577.22	30
1578.26	31
1579.31	31
1580.35	30
1581.4	28
1582.44	25
1583.49	27
1584.53	26
1585.58	27
1586.62	27
1587.66	22
1588.71	32
1589.75	27
1590.8	30
1591.84	30
1592.88	30
1593.92	27
1594.97	26
1596.01	29
1597.05	33
1598.1	26
1599.14	32
1600.18	25
1601.22	28
1602.26	25
1603.3	26
1604.35	22
1605.39	27
1606.43	27
1607.47	32
1608.51	28
1609.55	29
1610.59	28
1611.63	29
1612.67	30
1613.71	32
1614.75	28
1615.79	24
1616.83	28
1617.87	28
1618.91	28
1619.95	35
1620.99	30
1622.02	33
1623.06	26
1624.1	28
1625.14	26
1626.18	37
1627.21	33
1628.25	28
1629.29	30
1630.33	31
1631.36	26
1632.4	28
1633.44	26
1634.48	28
1635.51	26
1636.55	34
1637.58	25
1638.62	26
1639.66	32
1640.69	32
1641.73	29
1642.76	26
1643.8	26
1644.83	26
1645.87	28
1646.9	29
1647.94	28
1648.97	32
1650	28
1651.04	28
1652.07	27
1653.11	28
1654.14	25
1655.17	25
1656.21	28
1657.24	28
1658.27	31
1659.31	28
1660.34	29
1661.37	26
1662.4	32
1663.43	33
1664.47	28
1665.5	24
1666.53	31
1667.56	27
1668.59	30
1669.62	28
1670.66	30
1671.69	30
1672.72	28
1673.75	33
1674.78	26
1675.81	29
1676.84	28
1677.87	28
1678.9	31
1679.93	29
1680.96	24
1681.98	30
1683.01	26
1684.04	32
1685.07	30
1686.1	28
1687.13	31
1688.16	27
1689.18	24
1690.21	30
1691.24	36
1692.27	30
1693.3	24
1694.32	28
1695.35	25
1696.38	30
1697.4	28
1698.43	26
1699.46	30
1700.48	30
1701.51	30
1702.54	28
1703.56	29
1704.59	31
1705.61	26
1706.64	31
1707.66	26
1708.69	30
1709.71	31
1710.74	29
1711.76	30
1712.79	29
1713.81	32
1714.83	32
1715.86	30
1716.88	29
1717.91	32
1718.93	26
1719.95	32
1720.98	26
1722	25
1723.02	28
1724.04	28
1725.07	29
1726.09	31
1727.11	29
1728.13	26
1729.15	30
1730.18	28
1731.2	31
1732.22	28
1733.24	30
1734.26	30
1735.28	27
1736.3	26
1737.32	28
1738.34	30
1739.36	26
1740.38	24
1741.4	28
1742.42	28
1743.44	30
1744.46	28
1745.48	26
1746.5	32
1747.52	27
1748.54	32
1749.56	24
1750.58	28
1751.6	27
1752.61	32
1753.63	28
1754.65	27
1755.67	28
1756.68	30
1757.7	27
1758.72	27
1759.74	27
1760.75	32
1761.77	30
1762.79	29
1763.8	28
1764.82	29
1765.83	30
1766.85	31
1767.87	28
1768.88	26
1769.9	25
1770.91	28
1771.93	28
1772.94	29
1773.96	27
1774.97	34
1775.99	28
1777	30
1778.02	28
1779.03	29
1780.04	24
1781.06	20
1782.07	30
1783.09	30
1784.1	28
1785.11	26
1786.13	28
1787.14	26
1788.15	28
1789.16	28
1790.18	35
1791.19	31
1792.2	26
1793.21	31
1794.22	31
1795.23	22
1796.25	27
1797.26	30
1798.27	27
1799.28	28
1800.29	28
1801.3	30
1802.31	28
1803.32	30
1804.33	29
1805.34	28
1806.35	24
1807.36	28
1808.37	30
1809.38	30
1810.39	20
1811.4	31
1812.41	26
1813.42	25
1814.42	30
1815.43	28
1816.44	28
1817.45	26
1818.46	28
1819.47	30
1820.47	29
1821.48	27
1822.49	27
1823.49	28
1824.5	35
1825.51	30
1826.52	28
1827.52	27
1828.53	26
1829.53	28
1830.54	26
1831.55	29
1832.55	34
1833.56	28
1834.56	30
1835.57	27
1836.57	32
1837.58	28
1838.58	29
1839.59	28
1840.59	30
1841.6	31
1842.6	24
1843.61	28
1844.61	26
1845.61	30
1846.62	25
1847.62	26
1848.62	31
1849.63	30
1850.63	26
1851.63	29
1852.64	30
1853.64	32
1854.64	26
1855.64	31
1856.64	32
1857.65	28
1858.65	28
1859.65	24
1860.65	28
1861.65	26
1862.65	29
1863.65	28
1864.66	28
1865.66	28
1866.66	29
1867.66	28
1868.66	27
1869.66	30
1870.66	26
1871.66	31
1872.66	32
1873.66	27
1874.66	31
1875.65	26
1876.65	30
1877.65	32
1878.65	32
1879.65	26
1880.65	28
1881.65	22
1882.64	26
1883.64	26
1884.64	30
1885.64	27
1886.63	30
1887.63	24
1888.63	29
1889.63	32
1890.62	27
1891.62	28
1892.62	30
1893.61	27
1894.61	20
1895.6	26
1896.6	30
1897.6	28
1898.59	28
1899.59	28
1900.58	26
1901.58	27
1902.57	26
1903.57	26
1904.56	29
1905.56	30
1906.55	24
1907.54	24
1908.54	24
1909.53	28
1910.53	24
1911.52	26
1912.51	28
1913.51	29
1914.5	28
1915.49	23
1916.49	26
1917.48	28
1918.47	30
1919.46	30
1920.46	23
1921.45	31
1922.44	27
1923.43	28
1924.42	26
1925.41	31
1926.41	28
1927.4	28
1928.39	26
1929.38	28
1930.37	24
1931.36	28
1932.35	28
1933.34	29
1934.33	26
1935.32	26
1936.31	32
1937.3	29
1938.29	28
1939.28	28
1940.27	27
1941.26	28
1942.24	22
1943.23	26
1944.22	27
1945.21	26
1946.2	27
1947.19	26
1948.17	28
1949.16	26
1950.15	25
1951.14	24
1952.12	22
1953.11	22
1954.1	20
1955.09	29
1956.07	30
1957.06	22
1958.05	26
1959.03	24
1960.02	30
1961	30
1961.99	28
1962.98	23
1963.96	28
1964.95	24
1965.93	30
1966.92	28
1967.9	29
1968.89	22
1969.87	26
1970.85	26
1971.84	26
1972.82	27
1973.81	30
1974.79	24
1975.78	29
1976.76	28
1977.74	27
1978.73	30
1979.71	27
1980.69	26
1981.67	22
1982.66	30
1983.64	24
1984.62	26
1985.6	30
1986.59	28
1987.57	26
1988.55	29
1989.53	28
1990.51	31
1991.49	24
1992.47	28
1993.45	27
1994.44	27
1995.42	24
1996.4	24
1997.38	29
1998.36	28
1999.34	26
2000.32	26
2001.3	20
2002.28	30
2003.26	28
2004.24	26
2005.22	26
2006.19	26
2007.17	28
2008.15	30
2009.13	24
2010.11	26
2011.09	33
2012.06	27
2013.04	24
2014.02	30
2015	32
2015.98	24
2016.95	30
2017.93	26
2018.91	26
2019.88	24
2020.86	25
2021.84	28
2022.81	33
2023.79	30
2024.77	26
2025.74	29
2026.72	26
2027.69	32
2028.67	28
2029.65	30
2030.62	28
2031.6	25
2032.57	24
2033.55	28
2034.52	24
2035.5	27
2036.47	30
2037.44	26
2038.42	26
2039.39	33
2040.36	28
2041.34	24
2042.31	24
2043.29	25
2044.26	30
2045.23	24
2046.2	25
2047.18	28
2048.15	22
2049.12	26
2050.09	24
2051.07	30
2052.04	27
2053.01	25
2053.98	28
2054.95	20
2055.93	28
2056.9	26
2057.87	25
2058.84	30
2059.81	26
2060.78	29
2061.75	24
2062.72	28
2063.69	26
2064.66	29
2065.63	26
2066.6	25
2067.57	27
2068.54	30
2069.51	31
2070.48	30
2071.45	24
2072.42	27
2073.38	29
2074.35	24
2075.32	31
2076.29	30
2077.26	18
2078.23	33
2079.19	28
2080.16	24
2081.13	28
2082.1	29
2083.06	28
2084.03	22
2085	28
2085.96	30
2086.93	22
2087.9	29
2088.86	24
2089.83	24
2090.8	30
2091.76	26
2092.73	23
2093.69	31
2094.66	26
2095.62	28
2096.59	23
2097.55	24
2098.52	27
2099.48	28
2100.45	24
2101.41	25
2102.38	29
2103.34	24
2104.31	23
2105.27	28
2106.23	29
2107.2	34
2108.16	26
2109.12	29
2110.09	24
2111.05	28
2112.01	28
2112.98	28
2113.94	26
2114.9	24
2115.86	24
2116.82	26
2117.79	31
2118.75	24
2119.71	25
2120.67	28
2121.63	30
2122.59	27
2123.55	28
2124.52	27
2125.48	26
2126.44	25
2127.4	28
2128.36	26
2129.32	25
2130.28	24
2131.24	28
2132.2	28
2133.16	25
2134.12	27
2135.08	29
2136.04	27
2136.99	32
2137.95	25
2138.91	25
2139.87	20
2140.83	28
2141.79	26
2142.75	23
2143.7	25
2144.66	29
2145.62	22.028
2146.58	25.9786
2147.53	29.7674
2148.49	30.8228
2149.45	25.9185
2150.41	20.3082
2151.36	22.0169
2152.32	23.2028
2153.27	26.6065
2154.23	26.0592
2155.19	25.3919
2156.14	23.7652
2157.1	26.1646
2158.06	27.6111
2159.01	25.2991
2159.97	30.9806
2160.92	26.6864
2161.88	24.8487
2162.83	25.6351
2163.79	24.4265
2164.74	25.9962
2165.7	24.3756
2166.65	30.229
2167.61	28.6176
2168.56	25.811
2169.51	24.7352
2170.47	28.1903
2171.42	26.6979
2172.38	29.6829
2173.33	26.5928
2174.28	32.6359
2175.24	25.4205
2176.19	25.3186
2177.14	25.389
2178.09	25.0105
2179.05	26.9007
2180	25.3412
2180.95	26.4011
2181.9	27.3413
2182.86	26.8584
2183.81	23.045
2184.76	26.3725
2185.71	26.3333
2186.66	27.9705
2187.61	27.3464
2188.57	27.2742
2189.52	25.5441
2190.47	24.3357
2191.42	22.3362
2192.37	23.7793
2193.32	27.6906
2194.27	27.3701
2195.22	28.97
2196.17	24.2861
2197.12	25.3632
2198.07	26.0264
2199.02	25.4271
2199.97	27.5263
2200.92	25.9326
2201.87	26.6945
2202.82	21.6766
2203.76	21.9706
2204.71	25.4967
2205.66	29.1783
2206.61	24.6675
2207.56	26.308
2208.51	22.2929
2209.45	24.7223
2210.4	26.3324
2211.35	28.4639
2212.3	25.7406
2213.24	28.3093
2214.19	23.5374
2215.14	22.5588
2216.09	26.2615
2217.03	25.7307
2217.98	26.3151
2218.93	23.2332
2219.87	25.9981
2220.82	22.9556
2221.77	25.3535
2222.71	25.6495
2223.66	26.5485
2224.6	27.3627
2225.55	25.5127
2226.49	22.7059
2227.44	25.522
2228.38	26.1563
2229.33	26.2959
2230.27	24.9419
2231.22	24.3382
2232.16	26.4692
2233.11	26.6769
2234.05	25.75
2235	24.8597
2235.94	23.6825
2236.88	24.8815
2237.83	24.9412
2238.77	24.0686
2239.71	26.2996
2240.66	26.8038
2241.6	27.158
2242	28
2242.95	28
2243.9	28
2244.84	28
2245.79	23
2246.74	31
2247.69	22
2248.63	28
2249.58	29
2250.53	22
2251.47	26
2252.42	28
2253.37	29
2254.31	24
2255.26	26
2256.2	26
2257.15	22
2258.1	23
2259.04	25
2259.99	28
2260.93	24
2261.88	24
2262.82	22
2263.77	30
2264.71	24
2265.65	22
2266.6	24
2267.54	20
2268.49	29
2269.43	27
2270.38	26
2271.32	31
2272.26	20
2273.21	27
2274.15	26
2275.09	29
2276.04	22
2276.98	30
2277.92	26
2278.86	29
2279.81	26
2280.75	28
2281.69	26
2282.63	30
2283.57	27
2284.52	25
2285.46	26
2286.4	31
2287.34	24
2288.28	22
2289.22	20
2290.16	31
2291.1	26
2292.04	25
2292.98	26
2293.93	22
2294.86	29
2295.8	27
2296.74	26
2297.69	28
2298.62	26
2299.56	23
2300.5	26
2301.44	28
2302.38	20
2303.32	27
2304.26	23
2305.2	24
2306.14	26
2307.07	27
2308.01	26
2308.95	27
2309.89	24
2310.83	24
2311.76	26
2312.7	24
2313.64	25
2314.58	26
2315.51	29
2316.45	23
2317.39	27
2318.32	28
2319.26	27
2320.2	26
2321.13	26
2322.07	29
2323	28
2323.94	29
2324.88	26
2325.81	31
2326.75	25
2327.68	28
2328.62	21
2329.55	27
2330.49	20
2331.42	27
2332.36	32
2333.29	22
2334.22	31
2335.16	25
2336.09	28
2337.03	26
2337.96	26
2338.89	27
2339.83	28
2340.76	24
2341.69	21
2342.63	26
2343.56	26
2344.49	25
2345.43	16
2346.36	31
2347.29	26
2348.22	20
2349.15	24
2350.09	29
2351.02	28
2351.95	31
2352.88	26
2353.81	28
2354.74	22
2355.67	26
2356.61	26
2357.54	25
2358.47	24
2359.4	30
2360.33	20
2361.26	22
2362.19	26
2363.12	28
2364.05	30
2364.98	26
2365.91	22
2366.84	25
2367.77	26
2368.7	27
2369.62	26
2370.55	22
2371.48	25
2372.41	28
2373.34	27
2374.27	24
2375.2	26
2376.12	26
2377.05	28
2377.98	29
2378.91	24
2379.83	24
2380.76	28
2381.69	24
2382.62	30
2383.54	20
2384.47	24
2385.4	23
2386.32	25
2387.25	29
2388.18	26
2389.1	29
2390.03	28
2390.95	28
2391.88	25
2392.81	26
2393.73	24
2394.66	28
2395.58	25
2396.51	30
2397.43	28
2398.36	25
2399.28	20
2400.2	25
2401.13	26
2402.05	25
2402.98	33
2403.9	25
2404.83	28
2405.75	24
2406.67	22
2407.6	28
2408.52	30
2409.44	27
2410.37	26
2411.29	30
2412.21	28
2413.13	32
2414.06	30
2414.98	28
2415.9	30
2416.82	24
2417.74	30
2418.67	28
2419.59	30
2420.51	24
2421.43	23
2422.35	29
2423.27	26
2424.19	28
2425.11	29
2426.03	26
2426.96	24
2427.88	28
2428.8	28
2429.72	26
2430.64	26
2431.56	33
2432.48	29
2433.39	28
2434.31	32
2435.23	28
2436.15	29
2437.07	18
2437.99	28
2438.91	28
2439.83	28
2440.75	28
2441.67	28
2442.58	24
2443.5	31
2444.42	25
2445.34	28
2446.26	29
2447.17	25
2448.09	27
2449.01	28
2449.92	26
2450.84	22
2451.76	22
2452.68	26
2453.59	22
2454.51	24
2455.42	27
2456.34	26
2457.26	30
2458.17	26
2459.09	18
2460	24
2460.92	28
2461.83	26
2462.75	24
2463.66	31
2464.58	26
2465.49	27
2466.41	28
2467.32	30
2468.24	26
2469.15	34
2470.07	32
2470.98	26
2471.89	26
2472.81	26
2473.72	25
2474.64	28
2475.55	28
2476.46	30
2477.37	25
2478.29	30
2479.2	30
2480.11	29
2481.03	27
2481.94	26
2482.85	28
2483.76	22
2484.67	29
2485.59	28
2486.5	28
2487.41	27
2488.32	26
2489.23	29
2490.14	25
2491.05	30
2491.97	32
2492.88	31
2493.79	20
2494.7	30
2495.61	26
2496.52	33
2497.43	27
2498.34	30
2499.25	28
2500.16	30
2501.07	24
2501.98	25
2502.89	23
2503.79	29
2504.7	28
2505.61	22
2506.52	26
2507.43	25
2508.34	29
2509.25	24
2510.16	30
2511.06	25
2511.97	22
2512.88	27
2513.79	24
2514.69	30
2515.6	18
2516.51	26
2517.42	26
2518.32	25
2519.23	28
2520.14	24
2521.04	32
2521.95	28
2522.86	30
2523.76	29
2524.67	28
2525.57	28
2526.48	30
2527.39	26
2528.29	25
2529.2	26
2530.1	23
2531.01	24
2531.91	26
2532.82	28
2533.72	26
2534.63	27
2535.53	30
2536.44	26
2537.34	30
2538.24	27
2539.15	26
2540.05	26
2540.96	29
2541.86	20
2542.76	22
2543.67	28
2544.57	26
2545.47	30
2546.37	26
2547.28	24
2548.18	28
2549.08	34
2549.99	27
2550.89	31
2551.79	26
2552.69	31
2553.59	28
2554.49	29
2555.4	24
2556.3	26
2557.2	27
2558.1	30
2559	26
2559.9	30
2560.8	26
2561.7	23
2562.6	22
2563.5	27
2564.4	27
2565.3	26
2566.2	26
2567.1	24
2568	24
2568.9	26
2569.8	28
2570.7	24
2571.6	28
2572.5	30
2573.4	26
2574.3	29
2575.2	22
2576.1	28
2576.99	26
2577.89	26
2578.79	25
2579.69	29
2580.59	29
2581.48	22
2582.38	24
2583.28	24
2584.18	28
2585.07	30
2585.97	26
2586.87	24
2587.76	28
2588.66	26
2589.56	27
2590.45	27
2591.35	26
2592.25	28
2593.14	28
2594.04	26
2594.93	29
2595.83	30
2596.73	22
2597.62	26
2598.52	22
2599.41	30
2600.31	24
2601.2	28
2602.1	26
2602.99	28
2603.88	29
2604.78	30
2605.67	26
2606.57	26
2607.46	28
2608.35	32
2609.25	31
2610.14	26
2611.03	32
2611.93	28
2612.82	27
2613.71	25
2614.61	29
2615.5	28
2616.39	27
2617.29	27
2618.18	30
2619.07	30
2619.96	26
2620.85	24
2621.75	26
2622.64	29
2623.53	22
2624.42	23
2625.31	29
2626.2	28
2627.09	28
2627.98	26
2628.88	28
2629.77	28
2630.66	27
2631.55	28
2632.44	25
2633.33	29
2634.22	30
2635.11	27
2636	28
2636.89	32
2637.78	23
2638.66	26
2639.55	33
2640.44	25
2641.33	26
2642.22	28
2643.11	26
2644	24
2644.89	16
2645.78	31
2646.66	25
2647.55	28
2648.44	28
2649.33	26
2650.21	26
2651.1	28
2651.99	27
2652.88	27
2653.76	30
2654.65	27
2655.54	27
2656.42	22
2657.31	30
2658.2	27
2659.08	27
2659.97	24
2660.86	25
2661.74	29
2662.63	26
2663.51	24
2664.4	29
2665.29	28
2666.17	30
2667.06	24
2667.94	28
2668.83	20
2669.71	33
2670.6	20
2671.48	28
2672.36	23
2673.25	30
2674.13	24
2675.02	25
2675.9	28
2676.78	31
2677.67	26
2678.55	27
2679.43	29
2680.32	24
2681.2	24
2682.08	25
2682.97	31
2683.85	28
2684.73	30
2685.61	31
2686.5	24
2687.38	26
2688.26	30
2689.14	27
2690.03	28
2690.91	24
2691.79	29
2692.67	28
2693.55	24
2694.43	32
2695.31	27
2696.19	29
2697.08	28
2697.96	22
2698.84	25
2699.72	26
2700.6	29
2701.48	24
2702.36	26
2703.24	27
2704.12	26
2705	22
2705.88	23
2706.76	26
2707.64	26
2708.51	28
2709.39	27
2710.27	28
2711.15	27
2712.03	32
2712.91	28
2713.79	20
2714.67	27
2715.54	26
2716.42	30
2717.3	28
2718.18	31
2719.05	25
2719.93	25
2720.81	30
2721.69	30
2722.56	30
2723.44	26
2724.32	29
2725.19	30
2726.07	26
2726.95	32
2727.82	28
2728.7	24
2729.58	26
2730.45	24
2731.33	32
2732.2	30
2733.08	27
2733.95	22
2734.83	32
2735.7	22
2736.58	27
2737.45	29
2738.33	28
2739.2	27
2740.08	32
2740.95	28
2741.83	22
2742.7	26
2743.58	28
2744.45	24
2745.32	29
2746.2	30
2747.07	28
2747.94	29
2748.82	27
2749.69	24
2750.56	26
2751.44	26
2752.31	22
2753.18	28
2754.05	24
2754.93	29
2755.8	27
2756.67	33
2757.54	28
2758.42	24
2759.29	22
2760.16	28
2761.03	28
2761.9	26
2762.77	28
2763.64	28
2764.51	30
2765.38	24
2766.26	24
2767.13	27
2768	26
2768.87	28
2769.74	24
2770.61	30
2771.48	26
2772.35	23
2773.22	25
2774.09	29
2774.96	22
2775.83	25
2776.7	29
2777.56	28
2778.43	25
2779.3	27
2780.17	28
2781.04	26
2781.91	25
2782.78	22
2783.64	27
2784.51	25
2785.38	29
2786.25	32
2787.12	25
2787.98	27
2788.85	26
2789.72	22
2790.59	31
2791.45	26
2792.32	24
2793.19	21
2794.05	24
2794.92	26
2795.79	28
2796.65	24
2797.52	29
2798.38	29
2799.25	24
2800.12	28
2800.98	26
2801.85	32
2802.71	27
2803.58	28.5
2804.44	26
2805.31	28
2806.17	26
2807.04	31
2807.9	31
2808.77	28
2809.63	22
2810.5	28
2811.36	30
2812.22	34
2813.09	31
2813.95	22
2814.82	27
2815.68	30
2816.54	26
2817.41	25
2818.27	33
2819.13	28
2820	29
2820.86	32
2821.72	32
2822.58	30
2823.45	28
2824.31	30
2825.17	27
2826.03	27
2826.9	32
2827.76	27
2828.62	27
2829.48	26
2830.34	29
2831.2	28
2832.06	26
2832.92	29
2833.79	30
2834.65	27
2835.51	30
2836.37	25
2837.23	27
2838.09	26
2838.95	27
2839.81	27
2840.67	28
2841.53	28
2842.39	26
2843.25	30
2844.11	31
2844.97	24
2845.83	24
2846.68	26
2847.54	18
2848.4	28
2849.26	32
2850.12	27
2850.98	22
2851.84	28
2852.69	29
2853.55	25
2854.41	30
2855.27	30
2856.13	20
2856.98	26
2857.84	29
2858.7	28
2859.56	24
2860.41	31
2861.27	26
2862.13	29
2862.98	28
2863.84	30
2864.7	27
2865.55	27
2866.41	24
2867.27	26
2868.12	30
2868.98	30
2869.83	33
2870.69	36
2871.54	26
2872.4	27
2873.25	30
2874.11	27
2874.96	32
2875.82	31
2876.68	30
2877.53	27
2878.38	28
2879.24	30
2880.09	30
2880.95	32
2881.8	27
2882.65	34
2883.51	36
2884.36	35
2885.22	36
2886.07	32
2886.92	36
2887.77	36
2888.63	32
2889.48	29
2890.33	36
2891.19	36
2892.04	38
2892.89	35
2893.74	38
2894.6	44
2895.45	40
2896.3	50
2897.15	46
2898	43
2898.85	46
2899.71	52
2900.56	57
2901.41	55
2902.26	58
2903.11	54
2903.96	58
2904.81	62
2905.66	56
2906.51	66
2907.36	56
2908.21	60
2909.06	58
2909.91	58
2910.76	61
2911.61	56
2912.46	50
2913.31	52
2914.16	50
2915.01	49
2915.86	38
2916.71	41
2917.56	36
2918.41	38
2919.26	32
2920.1	42
2920.95	36
2921.8	39
2922.65	32
2923.5	32
2924.34	37
2925.19	34
2926.04	26
2926.89	29
2927.74	27
2928.58	31
2929.43	35
2930.28	30
2931.12	32
2931.97	27
2932.82	28
2933.66	32
2934.51	34
2935.36	26
2936.2	34
2937.05	22
2937.89	30
2938.74	32
2939.59	28
2940.43	26
2941.28	31
2942.12	32
2942.97	32
2943.81	29
2944.66	30
2945.5	29
2946.35	28
2947.19	24
2948.04	30
2948.88	28
2949.72	28
2950.57	31
2951.41	34
2952.26	30
2953.1	32
2953.94	32
2954.79	36
2955.63	32
2956.47	34
2957.32	40
2958.16	33
2959	38
2959.85	34
2960.69	39
2961.53	40
2962.37	42
2963.22	34
2964.06	41
2964.9	38
2965.74	42
2966.58	41
2967.42	40
2968.27	38
2969.11	38
2969.95	34
2970.79	39
2971.63	36
2972.47	33
2973.31	32
2974.15	35
2974.99	34
2975.83	28
2976.68	39
2977.52	33
2978.36	36
2979.2	30
2980.04	31
2980.88	38
2981.71	28
2982.55	28
2983.39	28
2984.23	26
2985.07	30
2985.91	24
2986.75	31
2987.59	24
2988.43	29
2989.27	28
2990.1	22
2990.94	26
2991.78	30
2992.62	31
2993.46	24
2994.3	24
2995.13	26
2995.97	22
2996.81	20
2997.64	28
2998.48	29
2999.32	28
