#Acq. time (s)=	3
#Accumulations=	3
#Range (cm-¹)=	100...3000
#Windows=	3
#Autofocus=	Off
#AutoExposure=	Off
#Spike filter=	Multiple accum.
#Delay time (s)=	0
#Binning=	1
#Readout mode=	Signal
#DeNoise=	Off
#ICS correction=	Off
#Dark correction=	Off
#Inst. Process=	Off
#Instrument=	LabRAM HR Evol
#Detector=	Syncerity OE
#Objective=	x100_VIS_LWD
#Grating=	600 (500nm)
#ND Filter=	25%
#Laser=	633nm_Edge
#Hole=	100.021
#Range=	Visible
#Project=	Bolus
#Sample=	B1
#Site=	stripside
#Title=	m15
#Remark=	
#Date=	03.11.2025 17:10
#Acquired=	03.11.2025 17:10:02
100.969	24
102.252	34
103.535	35
104.818	36
106.101	30
107.384	32
108.666	28
109.948	28
111.232	26
112.514	32
113.795	28
115.077	33
116.358	33
117.639	32
118.919	32
120.2	32
121.48	34
122.76	30
124.04	34
125.32	32
126.599	32
127.879	28
129.158	34
130.436	37
131.715	29
132.992	33
134.27	30
135.548	31
136.826	32
138.104	40
139.381	35
140.658	32
141.935	36
143.212	34
144.489	36
145.763	42
147.04	34
148.315	38
149.591	38
150.867	36
152.142	38
153.416	37
154.691	40
155.965	46
157.24	33
158.514	40
159.786	42
161.06	37
162.334	36
163.607	36
164.881	40
166.152	37
167.425	34
168.698	34
169.969	38
171.241	38
172.513	37
173.785	36
175.055	38
176.326	34
177.597	34
178.867	40
180.137	30
181.408	40
182.677	26
183.947	43
185.217	34
186.485	40
187.755	43
189.022	36
190.291	42
191.56	37
192.828	38
194.096	36
195.363	32
196.631	38
197.899	38
199.165	38
200.432	38
201.698	36
202.965	40
204.23	34
205.497	34
206.762	36
208.028	40
209.293	31
210.559	34
211.823	36
213.088	35
214.352	34
215.617	37
216.88	27
218.145	40
219.408	40
220.672	31
221.934	34
223.196	30
224.46	34
225.722	32
226.985	32
228.246	36
229.508	36
230.77	31
232.031	32
233.292	33
234.554	30
235.814	28
237.074	36
238.335	30
239.595	24
240.854	32
242.115	29
243.374	27
244.633	33
245.893	28
247.151	32
248.409	31
249.667	22
250.927	29
252.184	32
253.442	30
254.699	30
255.957	30
257.214	29
258.47	30
259.727	36
260.983	32
262.24	30
263.496	32
264.752	33
266.007	32
267.262	34
268.517	36
269.773	33
271.028	26
272.282	31
273.536	32
274.79	28
276.044	24
277.297	29
278.551	34
279.804	26
281.057	32
282.31	32
283.564	30
284.816	29
286.068	26
287.32	33
288.572	28
289.823	30
291.074	29
292.325	28
293.576	29
294.827	33
296.077	30
297.328	30
298.578	35
299.828	26
301.077	30
302.325	30
303.575	28
304.824	31
306.073	32
307.321	34
308.57	31
309.818	26
311.066	35
312.314	26
313.562	30
314.808	31
316.055	32
317.302	34
318.549	30
319.796	30
321.042	30
322.288	33
323.533	32
324.779	30
326.024	29
327.27	35
328.515	30
329.759	34
331.004	31
332.248	32
333.493	32
334.736	32
335.98	32
337.223	32
338.466	28
339.709	33
340.952	30
342.195	28
343.437	25
344.68	28
345.922	26
347.163	30
348.405	26
349.647	32
350.887	30
352.128	30
353.37	28
354.609	37
355.85	32
357.089	22
358.33	33
359.57	32
360.809	33
362.049	28
363.287	29
364.526	32
365.764	30
367.003	32
368.241	31
369.479	35
370.718	32
371.955	28
373.193	30
374.429	30
375.667	31
376.903	32
378.139	34
379.376	33
380.611	34
381.848	24
383.083	29
384.319	30
385.554	34
386.79	31
388.024	30
389.258	30
390.493	28
391.727	26
392.962	28
394.195	32
395.428	27
396.663	28
397.895	31
399.128	28
400.361	32
401.593	31
402.825	24
404.058	32
405.29	26
406.521	27
407.752	27
408.985	32
410.215	33
411.446	29
412.678	28
413.908	27
415.138	28
416.367	28
417.597	27
418.828	36
420.057	31
421.286	32
422.514	30
423.743	28
424.973	33
426.201	31
427.429	27
428.657	32
429.884	30
431.112	31
432.34	35
433.567	27
434.794	32
436.02	36
437.247	27
438.473	26
439.699	33
440.925	30
442.15	28
443.376	22
444.601	34
445.826	30
447.051	30
448.275	34
449.5	32
450.724	28
451.948	31
453.172	28
454.396	31
455.619	30
456.842	32
458.065	36
459.288	34
460.511	32
461.733	34
462.956	28
464.178	30
465.4	30
466.621	33
467.843	34
469.064	34
470.285	36
471.505	34
472.726	36
473.946	38
475.166	37
476.387	36
477.606	36
478.825	40
480.044	43
481.264	47
482.483	41
483.702	40
484.921	50
486.138	48
487.356	50
488.574	51
489.792	54
491.009	48
492.226	46
493.444	43
494.661	46
495.877	48
497.094	51
498.31	42
499.525	40
500.741	42
501.958	42
503.172	41
504.388	38
505.603	42
506.817	42
508.032	34
509.247	37
510.46	34
511.675	38
512.888	32
514.102	33
515.316	36
516.528	32
517.742	32
518.954	32
520.167	30
521.378	32
522.591	30
523.802	34
525.015	32
526.226	33
527.438	34
528.648	34
529.86	32
531.07	35
532.281	35
533.491	36
534.702	27
535.911	28
537.121	31
538.33	28
539.54	32
540.749	28
541.957	31
543.167	32
544.375	29
545.584	28
546.791	35
547.999	32
549.207	32
550.414	34
551.621	33
552.829	34
554.035	33
555.241	35
556.449	24
557.655	30
558.86	30
560.066	30
561.272	32
562.477	33
563.682	31
564.888	34
566.093	30
567.297	29
568.501	29
569.705	34
570.91	30
572.114	34
573.317	30
574.52	30
575.723	29
576.927	30
578.13	31
579.332	29
580.535	34
581.737	30
582.938	33
584.14	36
585.343	28
586.544	33
587.745	32
588.946	31
590.147	34
591.347	32
592.548	30
593.748	29
594.948	31
596.147	35
597.347	32
598.546	24
599.745	30
600.944	32
602.143	33
603.342	30
604.54	27
605.738	32
606.937	33
608.134	31
609.332	34
610.529	32
611.727	34
612.924	36
614.121	34
615.317	28
616.513	32
617.709	36
618.905	28
620.101	34
621.297	26
622.492	33
623.688	28
624.883	32
626.077	31
627.271	33
628.466	28
629.66	26
630.855	31
632.047	32
633.241	34
634.435	32
635.629	29
636.82	32
638.014	31
639.207	31
640.399	29
641.59	32
642.783	28
643.975	26
645.166	37
646.357	31
647.549	34
648.741	32
649.93	30
651.122	30
652.311	33
653.502	36
654.692	28
655.881	31
657.071	37
658.261	24
659.45	33
660.639	33
661.827	34
663.016	30
664.204	31
665.393	28
666.581	35
667.769	26
668.957	36
670.143	32
671.331	32
672.518	32
673.705	35
674.891	32
676.078	33
677.264	35
678.451	34
679.636	30
680.821	30
682.007	38
683.192	35
684.378	39
685.562	38
686.747	36
687.931	36
689.115	37
690.3	31
691.483	36
692.666	37
693.851	32
695.034	40
696.216	39
697.4	33
698.582	38
699.764	40
700.948	34
702.129	36
703.311	38
704.493	41
705.674	40
706.855	40
708.036	48
709.218	40
710.399	43
711.579	41
712.759	44
713.939	39
715.12	38
716.299	36
717.478	36
718.657	36
719.836	34
721.015	35
722.195	32
723.373	32
724.552	42
725.729	28
726.907	30
728.085	36
729.262	32
730.44	32
731.617	31
732.795	32
733.972	24
735.148	28
736.324	35
737.501	33
738.677	30
739.852	31
741.028	31
742.203	34
743.379	31
744.554	30
745.729	35
746.903	32
748.078	26
749.252	30
750.426	34
751.599	29
752.772	31
753.946	32
755.119	35
756.293	32
757.466	33
758.639	31
759.811	29
760.984	31
762.155	30
763.327	33
764.499	27
765.67	30
766.842	28
768.013	33
769.183	31
770.354	26
771.525	31
772.696	31
773.865	35
775.035	30
776.205	34
777.375	31
778.544	31
779.713	30
780.882	31
782.052	33
783.219	30
784.388	30
785.557	32
786.724	36
787.892	32
789.06	34
790.227	28
791.395	34
792.562	29
793.728	28
794.895	34
796.061	30
797.228	34
798.395	31
799.56	33
800.726	33
801.891	35
803.057	31
804.221	29
805.387	35
806.551	34
807.716	33
808.879	30
810.044	32
811.208	26
812.372	34
813.535	33
814.699	29
815.862	33
817.025	37
818.188	33
819.351	34
820.513	26
821.675	35
822.837	26
823.999	28
825.161	32
826.322	30
827.483	34
828.645	33
829.805	32
830.966	31
832.127	32
833.287	30
834.447	30
835.607	30
836.767	32
837.926	31
839.085	32
840.245	36
841.404	34
842.562	25
843.72	28
844.88	33
846.038	32
847.195	37
848.353	34
849.512	28
850.669	31
851.826	33
852.983	28
854.139	30
855.296	35
856.453	31
857.609	28
858.765	32
859.921	34
861.077	32
862.232	30
863.387	32
864.542	34
865.697	32
866.852	32
868.008	32
869.162	34
870.316	33
871.47	33
872.624	30
873.778	33
874.931	26
876.084	33
877.237	30
878.39	35
879.543	30
880.695	30
881.846	35
882.999	28
884.151	32
885.302	24
886.454	33
887.606	30
888.757	32
889.908	33
891.059	32
892.21	30
893.359	32
894.509	32
895.659	38
896.81	29
897.959	31
899.109	28
900.257	32
901.407	24
902.556	30
903.705	32
904.854	32
906.001	26
907.149	28
908.298	31
909.446	28
910.592	33
911.74	38
912.888	28
914.034	40
915.181	20
916.328	32
917.473	32
918.62	28
919.766	32
920.911	32
922.058	31
923.204	28
924.348	32
925.494	30
926.638	27
927.783	35
928.928	31
930.072	26
931.216	34
932.36	33
933.504	30
934.647	24
935.791	33
936.933	29
938.077	28
939.219	27
940.363	28
941.504	30
942.647	35
943.789	31
944.932	30
946.073	30
947.215	26
948.356	33
949.498	30
950.638	32
951.778	30
952.92	29
954.06	30
955.199	29
956.34	34
957.479	37
958.62	34
959.759	30
960.898	26
962.038	33
963.176	32
964.315	32
965.453	28
966.592	28
967.73	29
968.867	26
970.006	33
971.144	32.5
972.281	30
973.418	32
974.554	30
975.692	30
976.829	33
977.965	31
979.101	34
980.237	32
981.374	31
982.509	33
983.645	29
984.78	32
985.915	26
987.05	32
988.184	27
989.319	28
990.453	33
991.589	32
992.722	26
993.856	31
994.99	27
996.123	32
997.257	28
998.39	24
999.523	27
1000.66	31
1001.79	32
1002.92	30
1004.05	28
1005.18	28
1006.32	32
1007.45	32
1008.58	32
1009.71	28
1010.84	30
1011.97	22
1013.1	32
1014.23	30
1015.36	28
1016.49	28
1017.62	28
1018.75	32
1019.88	24
1021.01	29
1022.14	25
1023.27	32
1024.4	32
1025.53	30
1026.66	32
1027.79	32
1028.91	36
1030.04	32
1031.17	32
1032.3	29
1033.42	30
1034.55	34
1035.68	24
1036.81	32
1037.93	28
1039.06	35
1040.18	34
1041.31	26
1042.44	26
1043.56	28
1044.69	28
1045.81	23
1046.94	30
1048.06	31
1049.19	26
1050.31	26
1051.44	31
1052.56	30
1053.69	31
1054.81	31
1055.93	31
1057.06	30
1058.18	32
1059.3	28
1060.43	27
1061.55	31
1062.67	30
1063.79	30
1064.92	32
1066.04	30
1067.16	30
1068.28	28
1069.4	30
1070.52	24
1071.65	30
1072.77	30
1073.89	34
1075.01	30
1076.13	28
1077.25	28
1078.37	29
1079.49	31
1080.61	26
1081.73	28
1082.85	26
1083.97	28
1085.09	31
1086.2	26
1087.32	26
1088.44	28
1089.56	32
1090.68	28
1091.8	28
1092.91	28
1094.03	30
1095.15	29
1096.26	27
1097.38	24
1098.5	27
1099.61	30
1100.73	30
1101.85	20
1102.96	32
1104.08	27
1105.19	29
1106.31	28
1107.43	28
1108.54	28
1109.66	34
1110.77	30
1111.88	24
1113	28
1114.11	28
1115.23	30
1116.34	26
1117.46	26
1118.57	28
1119.68	34
1120.8	24
1121.91	30
1123.02	27
1124.13	30
1125.25	28
1126.36	32
1127.47	27
1128.58	31
1129.69	26
1130.8	30
1131.92	28
1133.03	30
1134.14	22
1135.25	32
1136.36	24
1137.47	26
1138.58	28
1139.69	25
1140.8	30
1141.91	29
1143.02	28
1144.13	27
1145.24	34
1146.35	22
1147.46	32
1148.56	28
1149.67	28
1150.78	30
1151.89	32
1153	29
1154.1	28
1155.21	30
1156.32	30
1157.43	30
1158.53	30
1159.64	26
1160.75	26
1161.85	20
1162.96	27
1164.07	35
1165.17	31
1166.28	24
1167.38	28
1168.49	22
1169.59	32
1170.7	28
1171.8	29
1172.91	30
1174.01	31
1175.12	28
1176.22	28
1177.32	25
1178.43	26
1179.53	24
1180.64	28
1181.74	32
1182.84	30
1183.94	26
1185.05	30
1186.15	28
1187.25	27
1188.35	30
1189.46	26
1190.56	30
1191.66	30
1192.76	28
1193.86	27
1194.96	30
1196.06	26.9951
1197.16	27.9706
1198.26	26.0823
1199.37	29.9162
1200.47	26.0088
1201.57	28.9167
1202.67	27.9018
1203.77	31.48
1204.86	31.5104
1205.96	28.956
1207.06	27.1522
1208.16	31.4907
1209.26	27.5639
1210.36	26.607
1211.46	27.8587
1212.56	29.7718
1213.65	28.1618
1214.75	31.6526
1215.85	31.847
1216.95	23.2671
1218.04	25.9151
1219.14	27.8486
1220.24	32.9288
1221.33	25.2203
1222.43	30.9079
1223.53	27.0632
1224.62	27.3932
1225.72	28.6199
1226.82	30.5671
1227.91	26.3291
1229.01	22.4316
1230.1	28.2754
1231.2	27.3627
1232.29	26.9416
1233.39	26.1267
1234.48	26.7946
1235.58	27.7894
1236.67	28
1237.77	30.0139
1238.86	25.788
1239.95	28.9056
1241.05	27.642
1242.14	28.3856
1243.23	26.5189
1244.33	21.4399
1245.42	25.8775
1246.51	22.9536
1247.61	28.4805
1248.7	29.4688
1249.79	26.1618
1250.88	25.1487
1251.97	26.2117
1253.07	25.6496
1254.16	27.6108
1255.25	28.7376
1256.34	28.4559
1257.43	26.3821
1258.52	30.5392
1259.61	31.5724
1260.7	26.0839
1261.79	28.5755
1262.88	26.65
1263.97	27.8895
1265.06	30.3428
1266.15	26.6641
1267.24	27.8063
1268.33	27.8126
1269.42	27.8292
1270.51	29.6986
1271.6	25.4839
1272.68	27.5316
1273.77	28.6897
1274.86	30.8431
1275.95	30.5713
1277.04	28.4916
1278.12	25.7314
1279.21	25.3958
1280.3	22.7797
1281.39	26.5644
1282.47	30.0926
1283.56	26.5805
1284.65	25.2872
1285.73	27.0432
1286.82	28.4552
1287.91	29.8284
1288.99	29.4844
1290.08	30.0247
1291.16	26.1946
1292.25	25.2801
1293.33	28.7625
1294.42	26.7999
1295.5	27.8412
1296.59	24.0218
1297.67	27.5341
1298.76	26.5147
1299.84	26.2009
1300.92	27.9352
1302.01	28.4991
1303.09	26.2867
1304.17	29.8893
1305.26	28.7932
1306.34	27.2468
1307.34	30
1308.43	28
1309.52	28
1310.61	31
1311.7	23
1312.78	27
1313.87	25
1314.96	27
1316.04	26
1317.13	28
1318.22	26
1319.3	30
1320.39	25
1321.48	26
1322.56	25
1323.65	28
1324.73	26
1325.82	34
1326.9	26
1327.99	26
1329.07	22
1330.16	26
1331.24	29
1332.33	26
1333.41	28
1334.5	27
1335.58	31
1336.66	30
1337.75	29
1338.83	32
1339.91	34
1341	34
1342.08	28
1343.16	29
1344.24	29
1345.33	28
1346.41	28
1347.49	27
1348.57	29
1349.65	31
1350.74	32
1351.82	18
1352.9	29
1353.98	26
1355.06	32
1356.14	28
1357.22	26
1358.3	28
1359.38	26
1360.46	30
1361.54	28
1362.62	28
1363.7	28
1364.78	24
1365.86	30
1366.94	31
1368.02	29
1369.09	30
1370.17	26
1371.25	29
1372.33	28
1373.41	31
1374.48	28
1375.56	29
1376.64	32
1377.72	26
1378.79	26
1379.87	30
1380.95	26
1382.02	28
1383.1	28
1384.17	34
1385.25	27
1386.33	30
1387.4	26
1388.48	26
1389.55	25
1390.63	34
1391.7	27
1392.78	30
1393.85	28
1394.93	32
1396	28
1397.07	30
1398.15	30
1399.22	27
1400.3	31
1401.37	29
1402.44	29
1403.52	31
1404.59	34
1405.66	27
1406.73	30
1407.81	33
1408.88	35
1409.95	32
1411.02	37
1412.09	30
1413.17	24
1414.24	28
1415.31	35
1416.38	32
1417.45	32
1418.52	28
1419.59	35
1420.66	29
1421.73	28
1422.8	31
1423.87	28
1424.94	27
1426.01	34
1427.08	26
1428.15	30
1429.22	33
1430.29	32
1431.35	31
1432.42	29
1433.49	30
1434.56	30
1435.63	27
1436.69	26
1437.76	31
1438.83	33
1439.9	28
1440.96	29
1442.03	31
1443.1	25
1444.17	30
1445.23	26
1446.3	29
1447.36	28
1448.43	28
1449.49	28
1450.56	28
1451.63	28
1452.69	32
1453.76	20
1454.82	29
1455.89	27
1456.95	33
1458.01	30
1459.08	30
1460.14	25
1461.21	30
1462.27	26
1463.34	27
1464.4	32
1465.46	30
1466.52	24
1467.59	29
1468.65	24
1469.71	27
1470.77	33
1471.84	30
1472.9	30
1473.96	29
1475.02	31
1476.08	32
1477.15	33
1478.21	24
1479.27	24
1480.33	16
1481.39	31
1482.45	24
1483.51	23
1484.57	31
1485.63	29
1486.69	27
1487.75	32
1488.81	31
1489.87	28
1490.93	30
1491.99	32
1493.05	26
1494.1	26
1495.16	27
1496.22	27
1497.28	20
1498.34	33
1499.4	24
1500.45	24
1501.51	31
1502.57	28
1503.63	30
1504.68	30
1505.74	29
1506.8	26
1507.85	28
1508.91	28
1509.97	32
1511.02	30
1512.08	30
1513.13	28
1514.19	24
1515.24	31
1516.3	28
1517.35	28
1518.41	28
1519.46	29
1520.52	29
1521.57	30
1522.63	28
1523.68	31
1524.73	30
1525.79	27
1526.84	31
1527.9	30
1528.95	24
1530	30
1531.05	30
1532.11	26
1533.16	28
1534.21	30
1535.26	28
1536.32	28
1537.37	29
1538.42	26
1539.47	32
1540.52	29
1541.57	30
1542.63	30
1543.68	27
1544.73	26
1545.78	27
1546.83	27
1547.88	30
1548.93	26
1549.98	29
1551.03	34
1552.08	26
1553.13	28
1554.18	30
1555.23	30
1556.27	28
1557.32	32
1558.37	34
1559.42	28
1560.47	30
1561.52	24
1562.56	29
1563.61	33
1564.66	24
1565.71	32
1566.75	26
1567.8	26
1568.85	29
1569.9	32
1570.94	26
1571.99	30
1573.03	30
1574.08	32
1575.13	30
1576.17	27
1577.22	28
1578.26	31
1579.31	27
1580.35	28
1581.4	28
1582.44	28
1583.49	32
1584.53	34
1585.58	26
1586.62	34
1587.66	29
1588.71	30
1589.75	30
1590.8	27
1591.84	33
1592.88	25
1593.92	33
1594.97	32
1596.01	27
1597.05	31
1598.1	30
1599.14	14
1600.18	33
1601.22	22
1602.26	28
1603.3	24
1604.35	24
1605.39	26
1606.43	24
1607.47	28
1608.51	31
1609.55	30
1610.59	31
1611.63	35
1612.67	28
1613.71	28
1614.75	29
1615.79	30
1616.83	24
1617.87	26
1618.91	26
1619.95	30
1620.99	29
1622.02	27
1623.06	34
1624.1	32
1625.14	24
1626.18	32
1627.21	30
1628.25	30
1629.29	28
1630.33	31
1631.36	29
1632.4	27
1633.44	32
1634.48	24
1635.51	26
1636.55	31
1637.58	27
1638.62	33
1639.66	26
1640.69	30
1641.73	27
1642.76	30
1643.8	30
1644.83	24
1645.87	36
1646.9	22
1647.94	31
1648.97	33
1650	29
1651.04	30
1652.07	25
1653.11	27
1654.14	26
1655.17	28
1656.21	26
1657.24	32
1658.27	30
1659.31	28
1660.34	30
1661.37	31
1662.4	28
1663.43	27
1664.47	31
1665.5	30
1666.53	31
1667.56	31
1668.59	24
1669.62	26
1670.66	24
1671.69	30
1672.72	24
1673.75	24
1674.78	31
1675.81	30
1676.84	26
1677.87	27
1678.9	26
1679.93	26
1680.96	35
1681.98	28
1683.01	31
1684.04	24
1685.07	30
1686.1	25
1687.13	33
1688.16	28
1689.18	29
1690.21	29
1691.24	27
1692.27	31
1693.3	28
1694.32	31
1695.35	28
1696.38	29
1697.4	29
1698.43	27
1699.46	26
1700.48	27
1701.51	29
1702.54	29
1703.56	24
1704.59	25
1705.61	30
1706.64	30
1707.66	29
1708.69	24
1709.71	30
1710.74	31
1711.76	30
1712.79	28
1713.81	30
1714.83	30
1715.86	27
1716.88	28
1717.91	26
1718.93	28
1719.95	24
1720.98	28
1722	31
1723.02	30
1724.04	33
1725.07	29
1726.09	31
1727.11	25
1728.13	26
1729.15	25
1730.18	29
1731.2	27
1732.22	28
1733.24	28
1734.26	20
1735.28	28
1736.3	30
1737.32	29
1738.34	25
1739.36	26
1740.38	26
1741.4	32
1742.42	27
1743.44	26
1744.46	28
1745.48	27
1746.5	30
1747.52	24
1748.54	22
1749.56	31
1750.58	30
1751.6	28
1752.61	26
1753.63	33
1754.65	32
1755.67	34
1756.68	32
1757.7	30
1758.72	30
1759.74	32
1760.75	28
1761.77	30
1762.79	29
1763.8	22
1764.82	26
1765.83	28
1766.85	29
1767.87	26
1768.88	26
1769.9	26
1770.91	32
1771.93	29
1772.94	34
1773.96	28
1774.97	26
1775.99	32
1777	33
1778.02	33
1779.03	30
1780.04	28
1781.06	31
1782.07	28
1783.09	27
1784.1	27
1785.11	33
1786.13	32
1787.14	29
1788.15	30
1789.16	27
1790.18	28
1791.19	30
1792.2	30
1793.21	27
1794.22	28
1795.23	34
1796.25	33
1797.26	30
1798.27	28
1799.28	27
1800.29	28
1801.3	27
1802.31	30
1803.32	25
1804.33	26
1805.34	23
1806.35	30
1807.36	26
1808.37	32
1809.38	30
1810.39	30
1811.4	29
1812.41	28
1813.42	30
1814.42	28
1815.43	32
1816.44	24
1817.45	27
1818.46	22
1819.47	24
1820.47	29
1821.48	26
1822.49	30
1823.49	34
1824.5	26
1825.51	31
1826.52	28
1827.52	30
1828.53	29
1829.53	28
1830.54	26
1831.55	29
1832.55	28
1833.56	28
1834.56	24
1835.57	26
1836.57	28
1837.58	24
1838.58	29
1839.59	25
1840.59	31
1841.6	24
1842.6	27
1843.61	25
1844.61	23
1845.61	28
1846.62	26
1847.62	23
1848.62	28
1849.63	31
1850.63	30
1851.63	29
1852.64	30
1853.64	22
1854.64	26
1855.64	24
1856.64	27
1857.65	26
1858.65	30
1859.65	28
1860.65	31
1861.65	24
1862.65	28
1863.65	29
1864.66	26
1865.66	26
1866.66	29
1867.66	28
1868.66	32
1869.66	26
1870.66	26
1871.66	27
1872.66	33
1873.66	19
1874.66	31
1875.65	28
1876.65	28
1877.65	28
1878.65	28
1879.65	30
1880.65	26
1881.65	26
1882.64	31
1883.64	30
1884.64	28
1885.64	25
1886.63	26
1887.63	26
1888.63	31
1889.63	30
1890.62	27
1891.62	27
1892.62	36
1893.61	28
1894.61	29
1895.6	24
1896.6	26
1897.6	31
1898.59	22
1899.59	30
1900.58	28
1901.58	27
1902.57	31
1903.57	26
1904.56	26
1905.56	18
1906.55	33
1907.54	28
1908.54	32
1909.53	31
1910.53	27
1911.52	28
1912.51	26
1913.51	26
1914.5	28
1915.49	28
1916.49	26
1917.48	25
1918.47	33
1919.46	28
1920.46	29
1921.45	27
1922.44	29
1923.43	32
1924.42	27
1925.41	26
1926.41	26
1927.4	28
1928.39	28
1929.38	28
1930.37	30
1931.36	24
1932.35	24
1933.34	26
1934.33	22
1935.32	22
1936.31	29
1937.3	31
1938.29	28
1939.28	30
1940.27	27
1941.26	26
1942.24	30
1943.23	29
1944.22	28
1945.21	28
1946.2	29
1947.19	26
1948.17	27
1949.16	26
1950.15	28.5
1951.14	26
1952.12	28
1953.11	24
1954.1	23
1955.09	30
1956.07	29
1957.06	30
1958.05	26
1959.03	31
1960.02	32
1961	31
1961.99	28
1962.98	26
1963.96	24
1964.95	28
1965.93	26
1966.92	28
1967.9	26
1968.89	30
1969.87	26
1970.85	27
1971.84	30
1972.82	25
1973.81	24
1974.79	33
1975.78	28
1976.76	30
1977.74	31
1978.73	32
1979.71	25
1980.69	28
1981.67	28
1982.66	28
1983.64	25
1984.62	26
1985.6	27
1986.59	21
1987.57	29
1988.55	30
1989.53	26
1990.51	24
1991.49	27
1992.47	27
1993.45	26
1994.44	25
1995.42	26
1996.4	27
1997.38	30
1998.36	28
1999.34	30
2000.32	30
2001.3	24
2002.28	21
2003.26	28
2004.24	24
2005.22	30
2006.19	29
2007.17	22
2008.15	27
2009.13	26
2010.11	32
2011.09	29
2012.06	24
2013.04	31
2014.02	26
2015	22
2015.98	32
2016.95	29
2017.93	27
2018.91	23
2019.88	22
2020.86	26
2021.84	28
2022.81	28
2023.79	26
2024.77	26
2025.74	30
2026.72	26
2027.69	30
2028.67	26
2029.65	31
2030.62	28
2031.6	28
2032.57	24
2033.55	28
2034.52	26
2035.5	22
2036.47	30
2037.44	28
2038.42	26
2039.39	26
2040.36	23
2041.34	24
2042.31	28
2043.29	28
2044.26	25
2045.23	28
2046.2	28
2047.18	26
2048.15	31
2049.12	31
2050.09	22
2051.07	24
2052.04	27
2053.01	28
2053.98	26
2054.95	31
2055.93	28
2056.9	26
2057.87	24
2058.84	22
2059.81	30
2060.78	24
2061.75	24
2062.72	28
2063.69	27
2064.66	29
2065.63	20
2066.6	25
2067.57	28
2068.54	24
2069.51	32
2070.48	27
2071.45	25
2072.42	26
2073.38	22
2074.35	32
2075.32	24
2076.29	28
2077.26	24
2078.23	21
2079.19	28
2080.16	30
2081.13	26
2082.1	30
2083.06	24
2084.03	26
2085	26
2085.96	28
2086.93	29
2087.9	26
2088.86	28
2089.83	24
2090.8	28
2091.76	26
2092.73	26
2093.69	32
2094.66	30
2095.62	24
2096.59	29
2097.55	28
2098.52	22
2099.48	24
2100.45	23
2101.41	28
2102.38	29
2103.34	28
2104.31	25
2105.27	27
2106.23	31
2107.2	32
2108.16	24
2109.12	25
2110.09	27
2111.05	28
2112.01	27
2112.98	28
2113.94	29
2114.9	24
2115.86	28
2116.82	23
2117.79	31
2118.75	26
2119.71	22
2120.67	24
2121.63	28
2122.59	24
2123.55	28
2124.52	28
2125.48	26
2126.44	24
2127.4	31
2128.36	26
2129.32	33
2130.28	24
2131.24	29
2132.2	28
2133.16	26
2134.12	29
2135.08	28
2136.04	26
2136.99	31
2137.95	30
2138.91	24
2139.87	28
2140.83	22
2141.79	27
2142.75	24
2143.7	23
2144.66	25
2145.62	26.9928
2146.58	27.9024
2147.53	29.8795
2148.49	25.0371
2149.45	29.8575
2150.41	22.1232
2151.36	26.119
2152.32	24.1293
2153.27	26.5926
2154.23	24.902
2155.19	29.2937
2156.14	26.8826
2157.1	20.6307
2158.06	26.4011
2159.01	27.4006
2159.97	25.5538
2160.92	26.8407
2161.88	26.1734
2162.83	23.085
2163.79	26.6176
2164.74	24.0009
2165.7	27.3657
2166.65	22.4443
2167.61	22.4608
2168.56	26.805
2169.51	28.4926
2170.47	25.242
2171.42	25.5284
2172.38	25.4789
2173.33	26.682
2174.28	24.8808
2175.24	24.6363
2176.19	25.9144
2177.14	25.0688
2178.09	23.0862
2179.05	23.9394
2180	23.8663
2180.95	23.5629
2181.9	28.3693
2182.86	24.6847
2183.81	25.8653
2184.76	26.8624
2185.71	25.1317
2186.66	28.1765
2187.61	24.129
2188.57	23.8829
2189.52	26.1765
2190.47	23.4704
2191.42	25.532
2192.37	24.0588
2193.32	24.8551
2194.27	27.3216
2195.22	20.5153
2196.17	26.329
2197.12	26.2421
2198.07	22.242
2199.02	23.37
2199.97	22
2200.92	23.6385
2201.87	24.875
2202.82	26.6255
2203.76	23.5618
2204.71	26.3569
2205.66	22.4511
2206.61	26.1334
2207.56	28.7892
2208.51	27.9462
2209.45	23.4996
2210.4	25.1949
2211.35	24.952
2212.3	27.234
2213.24	26.8039
2214.19	27.4216
2215.14	23.7879
2216.09	25.505
2217.03	24.1042
2217.98	25.3476
2218.93	25.4104
2219.87	25.9981
2220.82	24.6984
2221.77	22.2792
2222.71	24.9901
2223.66	27.4542
2224.6	27.1649
2225.55	26.3814
2226.49	27.8787
2227.44	24.652
2228.38	26.2092
2229.33	26.0846
2230.27	24.9956
2231.22	25.3553
2232.16	26.1541
2233.11	26.5343
2234.05	26.2638
2235	26.9378
2235.94	24.0742
2236.88	26.2284
2237.83	27.8529
2238.77	25.8512
2239.71	23.2508
2240.66	25.5443
2241.6	26.842
2242	26
2242.95	28
2243.9	24
2244.84	21
2245.79	27
2246.74	22
2247.69	24
2248.63	27
2249.58	28
2250.53	26
2251.47	29
2252.42	26
2253.37	30
2254.31	27
2255.26	25
2256.2	28
2257.15	23
2258.1	26
2259.04	25
2259.99	26
2260.93	27
2261.88	30
2262.82	30
2263.77	23
2264.71	28
2265.65	26
2266.6	26
2267.54	25
2268.49	22
2269.43	31
2270.38	28
2271.32	28
2272.26	24
2273.21	26
2274.15	30
2275.09	24
2276.04	28
2276.98	26
2277.92	24
2278.86	30
2279.81	18
2280.75	30
2281.69	28
2282.63	22
2283.57	29
2284.52	28
2285.46	30
2286.4	24
2287.34	20
2288.28	25
2289.22	24
2290.16	24
2291.1	26
2292.04	32
2292.98	28
2293.93	26
2294.86	25
2295.8	26
2296.74	26
2297.69	28
2298.62	24
2299.56	30
2300.5	22
2301.44	24
2302.38	24
2303.32	26
2304.26	24
2305.2	28
2306.14	29
2307.07	24
2308.01	28
2308.95	24
2309.89	24
2310.83	22
2311.76	26
2312.7	26
2313.64	27
2314.58	24
2315.51	26
2316.45	28
2317.39	26
2318.32	30
2319.26	22
2320.2	27
2321.13	26
2322.07	25
2323	27
2323.94	26
2324.88	24
2325.81	26
2326.75	30
2327.68	22
2328.62	28
2329.55	27
2330.49	24
2331.42	27
2332.36	23
2333.29	25
2334.22	27
2335.16	28
2336.09	19
2337.03	26
2337.96	25
2338.89	23
2339.83	28
2340.76	26
2341.69	30
2342.63	24
2343.56	25
2344.49	29
2345.43	23
2346.36	26
2347.29	30
2348.22	23
2349.15	26
2350.09	20
2351.02	23
2351.95	22
2352.88	29
2353.81	28
2354.74	26
2355.67	24
2356.61	26
2357.54	26
2358.47	28
2359.4	22
2360.33	28
2361.26	26
2362.19	29
2363.12	24
2364.05	26
2364.98	26
2365.91	24
2366.84	24
2367.77	27
2368.7	25
2369.62	26
2370.55	26
2371.48	23
2372.41	24
2373.34	26
2374.27	30
2375.2	24
2376.12	28
2377.05	23
2377.98	26
2378.91	18
2379.83	22
2380.76	24
2381.69	28
2382.62	20
2383.54	26
2384.47	26
2385.4	25
2386.32	12
2387.25	25
2388.18	26
2389.1	29
2390.03	18
2390.95	24
2391.88	28
2392.81	28
2393.73	20
2394.66	28
2395.58	28
2396.51	26
2397.43	30
2398.36	26
2399.28	26
2400.2	28
2401.13	29
2402.05	26
2402.98	28
2403.9	25
2404.83	28
2405.75	28
2406.67	30
2407.6	30
2408.52	29
2409.44	30
2410.37	27
2411.29	24
2412.21	24
2413.13	26
2414.06	28
2414.98	28
2415.9	25
2416.82	24
2417.74	30
2418.67	28
2419.59	24
2420.51	22
2421.43	22
2422.35	25
2423.27	27
2424.19	28
2425.11	31
2426.03	26
2426.96	26
2427.88	27
2428.8	28
2429.72	26
2430.64	22
2431.56	29
2432.48	25
2433.39	26
2434.31	27
2435.23	22
2436.15	28
2437.07	23
2437.99	26
2438.91	32
2439.83	31
2440.75	25
2441.67	23
2442.58	30
2443.5	29
2444.42	20
2445.34	28
2446.26	29
2447.17	18
2448.09	24
2449.01	26
2449.92	27
2450.84	25
2451.76	27
2452.68	28
2453.59	29
2454.51	32
2455.42	22
2456.34	28
2457.26	26
2458.17	30
2459.09	28
2460	26
2460.92	28
2461.83	26
2462.75	28
2463.66	29
2464.58	29
2465.49	29
2466.41	26
2467.32	29
2468.24	28
2469.15	30
2470.07	26
2470.98	27
2471.89	24
2472.81	28
2473.72	28
2474.64	27
2475.55	22
2476.46	24
2477.37	25
2478.29	26
2479.2	28
2480.11	28
2481.03	27
2481.94	26
2482.85	30
2483.76	26
2484.67	28
2485.59	30
2486.5	24
2487.41	25
2488.32	29
2489.23	27
2490.14	28
2491.05	31
2491.97	27
2492.88	29
2493.79	26
2494.7	29
2495.61	29
2496.52	25
2497.43	32
2498.34	28
2499.25	28
2500.16	22
2501.07	27
2501.98	24
2502.89	30
2503.79	31
2504.7	28
2505.61	28
2506.52	28
2507.43	26
2508.34	20
2509.25	27
2510.16	26
2511.06	28
2511.97	23
2512.88	24
2513.79	26
2514.69	29
2515.6	28
2516.51	24
2517.42	26
2518.32	22
2519.23	28
2520.14	28
2521.04	28
2521.95	24
2522.86	27
2523.76	26
2524.67	28
2525.57	27
2526.48	26
2527.39	25
2528.29	28
2529.2	32
2530.1	24
2531.01	34
2531.91	27
2532.82	31
2533.72	26
2534.63	30
2535.53	26
2536.44	31
2537.34	25
2538.24	30
2539.15	26
2540.05	29
2540.96	27
2541.86	26
2542.76	24
2543.67	28
2544.57	30
2545.47	27
2546.37	27
2547.28	34
2548.18	22
2549.08	29
2549.99	27
2550.89	28
2551.79	26
2552.69	25
2553.59	30
2554.49	25
2555.4	24
2556.3	24
2557.2	22
2558.1	25
2559	28
2559.9	28
2560.8	24
2561.7	28
2562.6	30
2563.5	24
2564.4	26
2565.3	28
2566.2	28
2567.1	24
2568	30
2568.9	23
2569.8	27
2570.7	24
2571.6	28
2572.5	30
2573.4	29
2574.3	33
2575.2	24
2576.1	26
2576.99	29
2577.89	28
2578.79	30
2579.69	31
2580.59	33
2581.48	25
2582.38	26
2583.28	30
2584.18	22
2585.07	27
2585.97	26
2586.87	32
2587.76	30
2588.66	25
2589.56	26
2590.45	26
2591.35	22
2592.25	25
2593.14	31
2594.04	28
2594.93	25
2595.83	28
2596.73	26
2597.62	28
2598.52	30
2599.41	26
2600.31	26
2601.2	30
2602.1	31
2602.99	22
2603.88	28
2604.78	27
2605.67	27
2606.57	25
2607.46	27
2608.35	29
2609.25	29
2610.14	24
2611.03	30
2611.93	22
2612.82	26
2613.71	26
2614.61	27
2615.5	25
2616.39	24
2617.29	24
2618.18	29
2619.07	26
2619.96	25
2620.85	25
2621.75	28
2622.64	30
2623.53	30
2624.42	30
2625.31	26
2626.2	28
2627.09	28
2627.98	29
2628.88	31
2629.77	26
2630.66	24
2631.55	22
2632.44	22
2633.33	26
2634.22	28
2635.11	28
2636	24
2636.89	25
2637.78	27
2638.66	28
2639.55	27
2640.44	26
2641.33	20
2642.22	26
2643.11	24
2644	25
2644.89	28
2645.78	24
2646.66	26
2647.55	26
2648.44	23
2649.33	28
2650.21	23
2651.1	26
2651.99	28
2652.88	26
2653.76	24
2654.65	29
2655.54	22
2656.42	34
2657.31	26
2658.2	24
2659.08	25
2659.97	31
2660.86	31
2661.74	28
2662.63	27
2663.51	29
2664.4	27
2665.29	24
2666.17	24
2667.06	26
2667.94	29
2668.83	28
2669.71	26
2670.6	24
2671.48	28
2672.36	30
2673.25	28
2674.13	25
2675.02	30
2675.9	25
2676.78	30
2677.67	24
2678.55	31
2679.43	23
2680.32	30
2681.2	26
2682.08	28
2682.97	26
2683.85	29
2684.73	28
2685.61	29
2686.5	28
2687.38	24
2688.26	31
2689.14	28
2690.03	24
2690.91	28
2691.79	27
2692.67	30
2693.55	28
2694.43	29
2695.31	25
2696.19	26
2697.08	32
2697.96	28
2698.84	27
2699.72	23
2700.6	22
2701.48	26
2702.36	28
2703.24	30
2704.12	27
2705	24
2705.88	24
2706.76	28
2707.64	28
2708.51	24
2709.39	26
2710.27	26
2711.15	31
2712.03	28
2712.91	28
2713.79	22
2714.67	28
2715.54	19
2716.42	28
2717.3	29
2718.18	26
2719.05	25
2719.93	24
2720.81	22
2721.69	33
2722.56	28
2723.44	25
2724.32	28
2725.19	24
2726.07	28
2726.95	27
2727.82	28
2728.7	27
2729.58	30
2730.45	29
2731.33	26
2732.2	24
2733.08	28
2733.95	22
2734.83	29
2735.7	30
2736.58	23
2737.45	22
2738.33	28
2739.2	26
2740.08	24
2740.95	34
2741.83	23
2742.7	28
2743.58	29
2744.45	28
2745.32	30
2746.2	28
2747.07	27
2747.94	28
2748.82	27
2749.69	26
2750.56	23
2751.44	23
2752.31	24
2753.18	28
2754.05	25
2754.93	24
2755.8	28
2756.67	28
2757.54	25
2758.42	23
2759.29	30
2760.16	26
2761.03	25
2761.9	23
2762.77	26
2763.64	23
2764.51	27
2765.38	29
2766.26	26
2767.13	27
2768	22
2768.87	30
2769.74	27
2770.61	32
2771.48	28
2772.35	22
2773.22	24
2774.09	24
2774.96	30
2775.83	28
2776.7	20
2777.56	28
2778.43	28
2779.3	26
2780.17	25
2781.04	22
2781.91	30
2782.78	34
2783.64	25
2784.51	30
2785.38	20
2786.25	30
2787.12	25
2787.98	32
2788.85	28
2789.72	29
2790.59	31
2791.45	28
2792.32	25
2793.19	29
2794.05	22
2794.92	28
2795.79	30
2796.65	30
2797.52	30
2798.38	33
2799.25	28
2800.12	26
2800.98	26
2801.85	29
2802.71	29
2803.58	29.5
2804.44	29
2805.31	30
2806.17	28
2807.04	27
2807.9	29
2808.77	26
2809.63	24
2810.5	29
2811.36	26
2812.22	32
2813.09	29
2813.95	28
2814.82	36
2815.68	26
2816.54	31
2817.41	24
2818.27	26
2819.13	31
2820	26
2820.86	27
2821.72	32
2822.58	26
2823.45	28
2824.31	26
2825.17	27
2826.03	29
2826.9	28
2827.76	30
2828.62	31
2829.48	28
2830.34	26
2831.2	28
2832.06	30
2832.92	27
2833.79	28
2834.65	26
2835.51	31
2836.37	29
2837.23	26
2838.09	27
2838.95	28
2839.81	24
2840.67	30
2841.53	29
2842.39	31
2843.25	28
2844.11	28
2844.97	28
2845.83	32
2846.68	24
2847.54	24
2848.4	26
2849.26	28
2850.12	25
2850.98	22
2851.84	22
2852.69	30
2853.55	31
2854.41	28
2855.27	30
2856.13	28
2856.98	23
2857.84	28
2858.7	30
2859.56	27
2860.41	29
2861.27	24
2862.13	29
2862.98	27
2863.84	26
2864.7	29
2865.55	27
2866.41	33
2867.27	34
2868.12	27
2868.98	28
2869.83	30
2870.69	29
2871.54	31
2872.4	31
2873.25	27
2874.11	33
2874.96	36
2875.82	33
2876.68	30
2877.53	28
2878.38	24
2879.24	30
2880.09	26
2880.95	30
2881.8	30
2882.65	24
2883.51	32
2884.36	31
2885.22	32
2886.07	34
2886.92	31
2887.77	29
2888.63	26
2889.48	32
2890.33	33
2891.19	36
2892.04	41
2892.89	35
2893.74	40
2894.6	30
2895.45	41
2896.3	35
2897.15	42
2898	36
2898.85	54
2899.71	48
2900.56	46
2901.41	50
2902.26	49
2903.11	48
2903.96	46
2904.81	54
2905.66	54
2906.51	57
2907.36	58
2908.21	60
2909.06	56
2909.91	51
2910.76	51
2911.61	46
2912.46	54
2913.31	46
2914.16	45
2915.01	44
2915.86	40
2916.71	36
2917.56	39
2918.41	34
2919.26	37
2920.1	35
2920.95	36
2921.8	35
2922.65	32
2923.5	35
2924.34	33
2925.19	30
2926.04	25
2926.89	29
2927.74	36
2928.58	31
2929.43	26
2930.28	28
2931.12	28
2931.97	33
2932.82	30
2933.66	28
2934.51	27
2935.36	29
2936.2	30
2937.05	27
2937.89	30
2938.74	22
2939.59	28
2940.43	26
2941.28	30
2942.12	24
2942.97	30
2943.81	27
2944.66	26
2945.5	30
2946.35	30
2947.19	25
2948.04	29
2948.88	28
2949.72	31
2950.57	31
2951.41	28
2952.26	34
2953.1	38
2953.94	31
2954.79	32
2955.63	32
2956.47	34
2957.32	32
2958.16	32
2959	35
2959.85	39
2960.69	40
2961.53	34
2962.37	34
2963.22	41
2964.06	34
2964.9	35
2965.74	40
2966.58	36
2967.42	42
2968.27	43
2969.11	30
2969.95	37
2970.79	36
2971.63	38
2972.47	32
2973.31	36
2974.15	36
2974.99	32
2975.83	34
2976.68	35
2977.52	35
2978.36	30
2979.2	30
2980.04	29
2980.88	30
2981.71	29
2982.55	25
2983.39	30
2984.23	28
2985.07	29
2985.91	26
2986.75	28
2987.59	23
2988.43	28
2989.27	27
2990.1	28
2990.94	30
2991.78	28
2992.62	29
2993.46	27
2994.3	28
2995.13	27
2995.97	27
2996.81	26
2997.64	30
2998.48	28
2999.32	27
