#Acq. time (s)=	3
#Accumulations=	3
#Range (cm-¹)=	100...3000
#Windows=	3
#Autofocus=	Off
#AutoExposure=	Off
#Spike filter=	Multiple accum.
#Delay time (s)=	0
#Binning=	1
#Readout mode=	Signal
#DeNoise=	Off
#ICS correction=	Off
#Dark correction=	Off
#Inst. Process=	Off
#Instrument=	LabRAM HR Evol
#Detector=	Syncerity OE
#Objective=	x100_VIS_LWD
#Grating=	600 (500nm)
#ND Filter=	25%
#Laser=	633nm_Edge
#Hole=	100.021
#Range=	Visible
#Project=	Bolus
#Sample=	B1
#Site=	stripside
#Title=	m02
#Remark=	
#Date=	03.11.2025 16:49
#Acquired=	03.11.2025 16:49:51
100.969	30
102.252	37
103.535	36
104.818	39
106.101	42
107.384	38
108.666	38
109.948	40
111.232	38
112.514	36
113.795	38
115.077	35
116.358	35
117.639	34
118.919	37
120.2	30
121.48	36
122.76	34
124.04	35
125.32	38
126.599	36
127.879	34
129.158	32
130.436	38
131.715	34
132.992	36
134.27	38
135.548	40
136.826	38
138.104	37
139.381	38
140.658	40
141.935	39
143.212	36
144.489	39
145.763	36
147.04	40
148.315	40
149.591	38
150.867	40
152.142	48
153.416	39
154.691	43
155.965	43
157.24	44
158.514	46
159.786	40
161.06	45
162.334	38
163.607	41
164.881	34
166.152	34
167.425	38
168.698	39
169.969	36
171.241	39
172.513	36
173.785	34
175.055	39
176.326	32
177.597	44
178.867	43
180.137	37
181.408	35
182.677	43
183.947	39
185.217	48
186.485	39
187.755	36
189.022	40
190.291	41
191.56	41
192.828	44
194.096	36
195.363	38
196.631	42
197.899	41
199.165	42
200.432	40
201.698	32
202.965	34
204.23	42
205.497	42
206.762	36
208.028	38
209.293	38
210.559	40
211.823	38
213.088	35
214.352	32
215.617	35
216.88	34
218.145	41
219.408	38
220.672	36
221.934	34
223.196	34
224.46	32
225.722	43
226.985	42
228.246	34
229.508	35
230.77	36
232.031	36
233.292	32
234.554	31
235.814	34
237.074	38
238.335	36
239.595	33
240.854	39
242.115	36
243.374	38
244.633	37
245.893	34
247.151	40
248.409	38
249.667	33
250.927	31
252.184	32
253.442	33
254.699	30
255.957	34
257.214	33
258.47	40
259.727	32
260.983	38
262.24	35
263.496	37
264.752	32
266.007	36
267.262	34
268.517	36
269.773	38
271.028	36
272.282	36
273.536	35
274.79	32
276.044	32
277.297	36
278.551	28
279.804	36
281.057	39
282.31	36
283.564	36
284.816	32
286.068	31
287.32	34
288.572	36
289.823	35
291.074	36
292.325	35
293.576	30
294.827	33
296.077	39
297.328	37
298.578	35
299.828	38
301.077	26
302.325	36
303.575	36
304.824	35
306.073	39
307.321	38
308.57	38
309.818	34
311.066	39
312.314	28
313.562	41
314.808	38
316.055	35
317.302	32
318.549	32
319.796	34
321.042	33
322.288	32
323.533	38
324.779	32
326.024	36
327.27	35
328.515	30
329.759	35
331.004	34
332.248	38
333.493	34
334.736	33
335.98	36
337.223	38
338.466	32
339.709	37
340.952	37
342.195	34
343.437	41
344.68	28
345.922	32
347.163	36
348.405	34
349.647	35
350.887	32
352.128	38
353.37	32
354.609	39
355.85	34
357.089	33
358.33	36
359.57	34
360.809	34
362.049	36
363.287	31
364.526	38
365.764	34
367.003	43
368.241	33
369.479	38
370.718	38
371.955	43
373.193	35
374.429	36
375.667	34
376.903	36
378.139	33
379.376	38
380.611	40
381.848	32
383.083	34
384.319	32
385.554	34
386.79	36
388.024	37
389.258	34
390.493	29
391.727	36
392.962	35
394.195	38
395.428	32
396.663	40
397.895	32
399.128	35
400.361	37
401.593	32
402.825	29
404.058	34
405.29	35
406.521	36
407.752	34
408.985	33
410.215	35
411.446	34
412.678	37
413.908	35
415.138	36
416.367	30
417.597	40
418.828	33
420.057	28
421.286	33
422.514	32
423.743	37
424.973	35
426.201	37
427.429	30
428.657	33
429.884	36
431.112	33
432.34	40
433.567	32
434.794	34
436.02	32
437.247	29
438.473	33
439.699	34
440.925	36
442.15	36
443.376	38
444.601	35
445.826	36
447.051	37
448.275	32
449.5	40
450.724	37
451.948	36
453.172	33
454.396	32
455.619	39
456.842	34
458.065	40
459.288	45
460.511	41
461.733	33
462.956	38
464.178	33
465.4	41
466.621	38
467.843	41
469.064	32
470.285	38
471.505	35
472.726	36
473.946	39
475.166	42
476.387	40
477.606	40
478.825	43
480.044	47
481.264	49
482.483	45
483.702	47
484.921	53
486.138	52
487.356	48
488.574	48
489.792	51
491.009	53
492.226	51
493.444	47
494.661	44
495.877	51
497.094	49
498.31	45
499.525	46
500.741	50
501.958	42
503.172	43
504.388	40
505.603	40
506.817	38
508.032	41
509.247	42
510.46	42
511.675	44
512.888	39
514.102	41
515.316	39
516.528	42
517.742	35
518.954	36
520.167	39
521.378	36
522.591	38
523.802	36
525.015	38
526.226	34
527.438	38
528.648	36
529.86	38
531.07	38
532.281	39
533.491	35
534.702	39
535.911	40
537.121	33
538.33	36
539.54	39
540.749	36
541.957	36
543.167	40
544.375	34
545.584	37
546.791	33
547.999	38
549.207	34
550.414	31
551.621	34
552.829	32
554.035	40
555.241	39
556.449	37
557.655	36
558.86	34
560.066	37
561.272	35
562.477	40
563.682	28
564.888	30
566.093	40
567.297	34
568.501	37
569.705	31
570.91	38
572.114	34
573.317	36
574.52	32
575.723	45
576.927	37
578.13	38
579.332	34
580.535	38
581.737	34
582.938	35
584.14	38
585.343	40
586.544	34
587.745	36
588.946	38
590.147	41
591.347	40
592.548	40
593.748	34
594.948	37
596.147	34
597.347	33
598.546	34
599.745	37
600.944	39
602.143	38
603.342	40
604.54	32
605.738	39
606.937	34
608.134	32
609.332	36
610.529	36
611.727	33
612.924	42
614.121	37
615.317	26
616.513	37
617.709	33
618.905	35
620.101	36
621.297	33
622.492	39
623.688	37
624.883	30
626.077	37
627.271	26
628.466	38
629.66	38
630.855	32
632.047	34
633.241	38
634.435	32
635.629	38
636.82	36
638.014	34
639.207	31
640.399	40
641.59	29
642.783	37
643.975	32
645.166	39
646.357	34
647.549	38
648.741	32
649.93	33
651.122	33
652.311	36
653.502	38
654.692	39
655.881	35
657.071	39
658.261	32
659.45	34
660.639	37
661.827	41
663.016	43
664.204	38
665.393	34
666.581	38
667.769	39
668.957	41
670.143	38
671.331	36
672.518	38
673.705	30
674.891	35
676.078	40
677.264	43
678.451	34
679.636	44
680.821	42
682.007	41
683.192	34
684.378	41
685.562	38
686.747	34
687.931	42
689.115	42
690.3	40
691.483	43
692.666	36
693.851	40
695.034	40
696.216	35
697.4	42
698.582	36
699.764	40
700.948	40
702.129	39
703.311	43
704.493	45
705.674	42
706.855	45
708.036	48
709.218	48
710.399	46
711.579	46
712.759	39
713.939	44
715.12	39
716.299	40
717.478	36
718.657	34
719.836	37
721.015	37
722.195	41
723.373	39
724.552	36
725.729	37
726.907	40
728.085	36
729.262	39
730.44	26
731.617	38
732.795	45
733.972	39
735.148	38
736.324	34
737.501	33
738.677	36
739.852	33
741.028	36
742.203	36
743.379	34
744.554	30
745.729	34
746.903	35
748.078	40
749.252	40
750.426	38
751.599	36
752.772	35
753.946	35
755.119	36
756.293	36
757.466	38
758.639	38
759.811	35
760.984	36
762.155	39
763.327	38
764.499	32
765.67	34
766.842	34
768.013	40
769.183	35
770.354	32
771.525	37
772.696	40
773.865	44
775.035	37
776.205	32
777.375	41
778.544	36
779.713	40
780.882	35
782.052	34
783.219	31
784.388	36
785.557	38
786.724	37
787.892	46
789.06	36
790.227	39
791.395	37
792.562	35
793.728	40
794.895	32
796.061	40
797.228	34
798.395	38
799.56	39
800.726	34
801.891	28
803.057	41
804.221	34
805.387	35
806.551	37
807.716	33
808.879	40
810.044	34
811.208	34
812.372	37
813.535	36
814.699	33
815.862	38
817.025	36
818.188	37
819.351	40
820.513	36
821.675	35
822.837	40
823.999	37
825.161	32
826.322	34
827.483	34
828.645	33
829.805	34
830.966	33
832.127	38
833.287	42
834.447	40
835.607	35
836.767	40
837.926	34
839.085	36
840.245	34
841.404	40
842.562	39
843.72	37
844.88	35
846.038	35
847.195	30
848.353	37
849.512	35
850.669	32
851.826	40
852.983	32
854.139	36
855.296	30
856.453	38
857.609	30
858.765	36
859.921	40
861.077	34
862.232	32
863.387	49
864.542	39
865.697	39
866.852	36
868.008	34
869.162	34
870.316	36
871.47	39
872.624	37
873.778	35
874.931	38
876.084	33
877.237	34
878.39	35
879.543	31
880.695	37
881.846	40
882.999	38
884.151	41
885.302	35
886.454	35
887.606	32
888.757	34
889.908	30
891.059	34
892.21	35
893.359	36
894.509	36
895.659	32
896.81	39
897.959	30
899.109	33
900.257	32
901.407	36
902.556	29
903.705	36
904.854	33
906.001	35
907.149	39
908.298	36
909.446	33
910.592	31
911.74	33
912.888	39
914.034	38
915.181	34
916.328	34
917.473	35
918.62	38
919.766	36
920.911	36
922.058	29
923.204	37
924.348	38
925.494	28
926.638	32
927.783	30
928.928	34
930.072	32
931.216	30
932.36	39
933.504	31
934.647	39
935.791	35
936.933	40
938.077	36
939.219	37
940.363	30
941.504	42
942.647	38
943.789	42
944.932	34
946.073	36
947.215	34
948.356	36
949.498	38
950.638	29
951.778	34
952.92	32
954.06	34
955.199	36
956.34	38
957.479	32
958.62	34
959.759	29
960.898	36
962.038	34
963.176	34
964.315	37
965.453	34
966.592	36
967.73	34
968.867	36
970.006	40
971.144	39
972.281	37
973.418	35
974.554	36
975.692	33
976.829	36
977.965	32
979.101	38
980.237	36
981.374	38
982.509	37
983.645	35
984.78	32
985.915	34
987.05	34
988.184	37
989.319	31
990.453	39
991.589	36
992.722	32
993.856	37
994.99	34
996.123	34
997.257	32
998.39	35
999.523	39
1000.66	35
1001.79	34
1002.92	30
1004.05	36
1005.18	32
1006.32	29
1007.45	36
1008.58	37
1009.71	34
1010.84	32
1011.97	36
1013.1	32
1014.23	29
1015.36	34
1016.49	33
1017.62	31
1018.75	24
1019.88	32
1021.01	28
1022.14	34
1023.27	34
1024.4	35
1025.53	35
1026.66	35
1027.79	33
1028.91	40
1030.04	34
1031.17	38
1032.3	32
1033.42	36
1034.55	38
1035.68	30
1036.81	30
1037.93	30
1039.06	36
1040.18	34
1041.31	31
1042.44	37
1043.56	33
1044.69	37
1045.81	35
1046.94	38
1048.06	37
1049.19	33
1050.31	36
1051.44	33
1052.56	33
1053.69	37
1054.81	36
1055.93	36
1057.06	35
1058.18	32
1059.3	34
1060.43	34
1061.55	33
1062.67	41
1063.79	34
1064.92	32
1066.04	36
1067.16	35
1068.28	31
1069.4	32
1070.52	31
1071.65	38
1072.77	38
1073.89	36
1075.01	36
1076.13	32
1077.25	34
1078.37	34
1079.49	31
1080.61	31
1081.73	34
1082.85	35
1083.97	33
1085.09	36
1086.2	34
1087.32	32
1088.44	29
1089.56	30
1090.68	34
1091.8	24
1092.91	34
1094.03	34
1095.15	32
1096.26	36
1097.38	34
1098.5	33
1099.61	37
1100.73	28
1101.85	33
1102.96	34
1104.08	32
1105.19	35
1106.31	28
1107.43	34
1108.54	36
1109.66	30
1110.77	38
1111.88	36
1113	29
1114.11	34
1115.23	23
1116.34	35
1117.46	31
1118.57	34
1119.68	28
1120.8	35
1121.91	32
1123.02	33
1124.13	33
1125.25	34
1126.36	31
1127.47	34
1128.58	33
1129.69	35
1130.8	32
1131.92	39
1133.03	36
1134.14	35
1135.25	34
1136.36	26
1137.47	33
1138.58	35
1139.69	31
1140.8	37
1141.91	34
1143.02	32
1144.13	32
1145.24	36
1146.35	35
1147.46	34
1148.56	31
1149.67	35
1150.78	38
1151.89	39
1153	32
1154.1	32
1155.21	38
1156.32	34
1157.43	32
1158.53	34
1159.64	32
1160.75	32
1161.85	28
1162.96	36
1164.07	30
1165.17	34
1166.28	33
1167.38	34
1168.49	37
1169.59	37
1170.7	30
1171.8	38
1172.91	34
1174.01	30
1175.12	37
1176.22	28
1177.32	33
1178.43	36
1179.53	37
1180.64	35
1181.74	32
1182.84	32
1183.94	28
1185.05	33
1186.15	34
1187.25	33
1188.35	30
1189.46	33
1190.56	36
1191.66	33
1192.76	35
1193.86	36
1194.96	35
1196.06	28.0049
1197.16	29.9853
1198.26	35.9244
1199.37	32.0991
1200.47	30.1522
1201.57	28.1814
1202.67	34.5434
1203.77	29.7847
1204.86	33.4557
1205.96	32.4903
1207.06	33.5972
1208.16	33.5413
1209.26	32.6381
1210.36	28.6638
1211.46	33.857
1212.56	32
1213.65	35.3529
1214.75	33.4895
1215.85	30
1216.95	31.6176
1218.04	30.8943
1219.14	31.1976
1220.24	30.3547
1221.33	28.3549
1222.43	33.1266
1223.53	28.6621
1224.62	33.048
1225.72	32.0178
1226.82	31.2877
1227.91	30.3817
1229.01	32.1029
1230.1	30.4307
1231.2	30.8582
1232.29	30.8797
1233.39	35.1674
1234.48	32.0928
1235.58	28.7102
1236.67	30.9587
1237.77	32.3675
1238.86	32.5722
1239.95	32.4675
1241.05	30.6764
1242.14	33.5
1243.23	27.179
1244.33	32.2477
1245.42	32.0536
1246.51	32.552
1247.61	29.389
1248.7	26.6922
1249.79	32.25
1250.88	31.0098
1251.97	29.6729
1253.07	29.9564
1254.16	32.8647
1255.25	29.3997
1256.34	33.6987
1257.43	32.3893
1258.52	30.7843
1259.61	33.7777
1260.7	28.4175
1261.79	29.5531
1262.88	32.4191
1263.97	33.2297
1265.06	33.8733
1266.15	30.7353
1267.24	30.0592
1268.33	28.211
1269.42	30.8619
1270.51	26.9812
1271.6	29.1212
1272.68	30.5316
1273.77	29.982
1274.86	28.9995
1275.95	29.3301
1277.04	31.1072
1278.12	29.3653
1279.21	30.7968
1280.3	30.3705
1281.39	30.6218
1282.47	31.3949
1283.56	30.8687
1284.65	28.5883
1285.73	23.9652
1286.82	30.9118
1287.91	32.5885
1288.99	31.7594
1290.08	35.2209
1291.16	30.1422
1292.25	30.0087
1293.33	29.0025
1294.42	28.934
1295.5	32.7559
1296.59	26.1186
1297.67	33.1913
1298.76	33.6545
1299.84	30.5293
1300.92	33.3535
1302.01	29.1713
1303.09	28.7731
1304.17	33.9138
1305.26	32.7266
1306.34	30.1645
1307.34	32
1308.43	30
1309.52	33
1310.61	28
1311.7	28
1312.78	29
1313.87	31
1314.96	26
1316.04	30
1317.13	34
1318.22	28
1319.3	30
1320.39	30
1321.48	22
1322.56	28
1323.65	32
1324.73	32
1325.82	26
1326.9	26
1327.99	27
1329.07	29
1330.16	28
1331.24	26
1332.33	25
1333.41	32
1334.5	28
1335.58	32
1336.66	31
1337.75	35
1338.83	33
1339.91	30
1341	32
1342.08	28
1343.16	33
1344.24	34
1345.33	30
1346.41	32
1347.49	36
1348.57	34
1349.65	28
1350.74	27
1351.82	33
1352.9	30
1353.98	34
1355.06	35
1356.14	30
1357.22	32
1358.3	31
1359.38	31
1360.46	34
1361.54	34
1362.62	32
1363.7	34
1364.78	31
1365.86	29
1366.94	30
1368.02	33
1369.09	30
1370.17	26
1371.25	32
1372.33	32
1373.41	32
1374.48	30
1375.56	32
1376.64	31
1377.72	28
1378.79	26
1379.87	24
1380.95	32
1382.02	33
1383.1	33
1384.17	33
1385.25	36
1386.33	35
1387.4	28
1388.48	28
1389.55	32
1390.63	36
1391.7	31
1392.78	24
1393.85	34
1394.93	31
1396	33
1397.07	34
1398.15	27
1399.22	35
1400.3	30
1401.37	30
1402.44	32
1403.52	29
1404.59	32
1405.66	37
1406.73	28
1407.81	36
1408.88	36
1409.95	30
1411.02	30
1412.09	34
1413.17	34
1414.24	34
1415.31	35
1416.38	42
1417.45	32
1418.52	28
1419.59	35
1420.66	30
1421.73	24
1422.8	32
1423.87	29
1424.94	39
1426.01	36
1427.08	38
1428.15	28
1429.22	34
1430.29	31
1431.35	30
1432.42	32
1433.49	35
1434.56	35
1435.63	28
1436.69	26
1437.76	31
1438.83	28
1439.9	35
1440.96	36
1442.03	32
1443.1	30
1444.17	30
1445.23	32
1446.3	30
1447.36	29
1448.43	34
1449.49	33
1450.56	31
1451.63	27
1452.69	28
1453.76	35
1454.82	28
1455.89	31
1456.95	30
1458.01	26
1459.08	33
1460.14	32
1461.21	34
1462.27	32
1463.34	37
1464.4	36
1465.46	32
1466.52	32
1467.59	26
1468.65	30
1469.71	33
1470.77	32
1471.84	33
1472.9	32
1473.96	32
1475.02	34
1476.08	33
1477.15	33
1478.21	28
1479.27	31
1480.33	32
1481.39	34
1482.45	32
1483.51	34
1484.57	30
1485.63	33
1486.69	29
1487.75	32
1488.81	31
1489.87	32
1490.93	30
1491.99	32
1493.05	27
1494.1	30
1495.16	24
1496.22	31
1497.28	30
1498.34	30
1499.4	26
1500.45	33
1501.51	32
1502.57	36
1503.63	30
1504.68	28
1505.74	28
1506.8	30
1507.85	33
1508.91	31
1509.97	33
1511.02	34
1512.08	30
1513.13	30
1514.19	31
1515.24	29
1516.3	28
1517.35	31
1518.41	28
1519.46	30
1520.52	37
1521.57	31
1522.63	34
1523.68	30
1524.73	30
1525.79	28
1526.84	28
1527.9	32
1528.95	26
1530	34
1531.05	29
1532.11	28
1533.16	33
1534.21	26
1535.26	32
1536.32	28
1537.37	32
1538.42	30
1539.47	32
1540.52	32
1541.57	31
1542.63	31
1543.68	38
1544.73	32
1545.78	26
1546.83	26
1547.88	35
1548.93	34
1549.98	32
1551.03	31
1552.08	31
1553.13	25
1554.18	33
1555.23	36
1556.27	29
1557.32	34
1558.37	33
1559.42	33
1560.47	34
1561.52	28
1562.56	34
1563.61	34
1564.66	32
1565.71	33
1566.75	32
1567.8	32
1568.85	30
1569.9	32
1570.94	30
1571.99	31
1573.03	31
1574.08	26
1575.13	26
1576.17	29
1577.22	30
1578.26	32
1579.31	24
1580.35	34
1581.4	24
1582.44	29
1583.49	30
1584.53	28
1585.58	31
1586.62	30
1587.66	31
1588.71	26
1589.75	33
1590.8	33
1591.84	33
1592.88	30
1593.92	32
1594.97	29
1596.01	29
1597.05	32
1598.1	32
1599.14	32
1600.18	30
1601.22	30
1602.26	28
1603.3	26
1604.35	27
1605.39	28
1606.43	28
1607.47	34
1608.51	29
1609.55	29
1610.59	30
1611.63	26
1612.67	28
1613.71	26
1614.75	32
1615.79	32
1616.83	35
1617.87	31
1618.91	34
1619.95	31
1620.99	24
1622.02	32
1623.06	30
1624.1	29
1625.14	30
1626.18	34
1627.21	33
1628.25	33
1629.29	29
1630.33	31
1631.36	28
1632.4	31
1633.44	31
1634.48	30
1635.51	26
1636.55	33
1637.58	33
1638.62	29
1639.66	30
1640.69	33
1641.73	34
1642.76	28
1643.8	31
1644.83	32
1645.87	31
1646.9	34
1647.94	24
1648.97	34
1650	28
1651.04	34
1652.07	30
1653.11	27
1654.14	28
1655.17	29
1656.21	30
1657.24	30
1658.27	32
1659.31	26
1660.34	34
1661.37	35
1662.4	28
1663.43	32
1664.47	30
1665.5	30
1666.53	37
1667.56	28
1668.59	28
1669.62	29
1670.66	30
1671.69	32
1672.72	31
1673.75	35
1674.78	35
1675.81	32
1676.84	26
1677.87	30
1678.9	31
1679.93	35
1680.96	29
1681.98	35
1683.01	30
1684.04	29
1685.07	32
1686.1	34
1687.13	31
1688.16	25
1689.18	36
1690.21	36
1691.24	30
1692.27	28
1693.3	32
1694.32	30
1695.35	32
1696.38	29
1697.4	28
1698.43	31
1699.46	35
1700.48	29
1701.51	29
1702.54	30
1703.56	33
1704.59	26
1705.61	33
1706.64	30
1707.66	24
1708.69	27
1709.71	32
1710.74	28
1711.76	28
1712.79	32
1713.81	34
1714.83	32
1715.86	30
1716.88	30
1717.91	34
1718.93	27
1719.95	33
1720.98	28
1722	36
1723.02	32
1724.04	28
1725.07	32
1726.09	28
1727.11	27
1728.13	32
1729.15	33
1730.18	35
1731.2	30
1732.22	30
1733.24	34
1734.26	33
1735.28	36
1736.3	29
1737.32	26
1738.34	28
1739.36	28
1740.38	36
1741.4	29
1742.42	32
1743.44	30
1744.46	29
1745.48	34
1746.5	29
1747.52	30
1748.54	29
1749.56	24
1750.58	32
1751.6	37
1752.61	29
1753.63	24
1754.65	30
1755.67	36
1756.68	30
1757.7	33
1758.72	29
1759.74	27
1760.75	32
1761.77	26
1762.79	31
1763.8	32
1764.82	26
1765.83	28
1766.85	32
1767.87	25
1768.88	24
1769.9	30
1770.91	29
1771.93	34
1772.94	32
1773.96	30
1774.97	32
1775.99	30
1777	30
1778.02	27
1779.03	29
1780.04	30
1781.06	26
1782.07	27
1783.09	32
1784.1	30
1785.11	34
1786.13	33
1787.14	34
1788.15	26
1789.16	31
1790.18	24
1791.19	33
1792.2	28
1793.21	26
1794.22	32
1795.23	33
1796.25	30
1797.26	26
1798.27	28
1799.28	32
1800.29	28
1801.3	31
1802.31	30
1803.32	31
1804.33	32
1805.34	30
1806.35	31
1807.36	26
1808.37	30
1809.38	33
1810.39	28
1811.4	33
1812.41	35
1813.42	36
1814.42	34
1815.43	32
1816.44	27
1817.45	28
1818.46	32
1819.47	24
1820.47	27
1821.48	36
1822.49	25
1823.49	29
1824.5	28
1825.51	28
1826.52	35
1827.52	30
1828.53	30
1829.53	30
1830.54	26
1831.55	28
1832.55	32
1833.56	30
1834.56	26
1835.57	33
1836.57	30
1837.58	33
1838.58	28
1839.59	32
1840.59	29
1841.6	30
1842.6	32
1843.61	30
1844.61	33
1845.61	32
1846.62	28
1847.62	24
1848.62	29
1849.63	34
1850.63	32
1851.63	29
1852.64	29
1853.64	32
1854.64	34
1855.64	30
1856.64	35
1857.65	26
1858.65	29
1859.65	31
1860.65	29
1861.65	26
1862.65	33
1863.65	29
1864.66	32
1865.66	26
1866.66	30
1867.66	28
1868.66	28
1869.66	26
1870.66	32
1871.66	28
1872.66	35
1873.66	32
1874.66	32
1875.65	26
1876.65	33
1877.65	28
1878.65	25
1879.65	34
1880.65	30
1881.65	26
1882.64	31
1883.64	30
1884.64	31
1885.64	27
1886.63	32
1887.63	29
1888.63	30
1889.63	30
1890.62	33
1891.62	27
1892.62	33
1893.61	26
1894.61	24
1895.6	33
1896.6	26
1897.6	36
1898.59	26
1899.59	29
1900.58	31
1901.58	26
1902.57	31
1903.57	34
1904.56	36
1905.56	26
1906.55	28
1907.54	28
1908.54	30
1909.53	34
1910.53	28
1911.52	28
1912.51	24
1913.51	30
1914.5	31
1915.49	28
1916.49	26
1917.48	31
1918.47	32
1919.46	31
1920.46	30
1921.45	28
1922.44	30
1923.43	27
1924.42	29
1925.41	29
1926.41	25
1927.4	32
1928.39	33
1929.38	32
1930.37	22
1931.36	31
1932.35	20
1933.34	26
1934.33	28
1935.32	27
1936.31	28
1937.3	26
1938.29	35
1939.28	33
1940.27	27
1941.26	31
1942.24	30
1943.23	26
1944.22	31
1945.21	26
1946.2	28
1947.19	26
1948.17	26
1949.16	27
1950.15	30.5
1951.14	32
1952.12	34
1953.11	29
1954.1	34
1955.09	32
1956.07	28
1957.06	28
1958.05	30
1959.03	32
1960.02	36
1961	30
1961.99	30
1962.98	26
1963.96	31
1964.95	26
1965.93	29
1966.92	24
1967.9	30
1968.89	28
1969.87	34
1970.85	34
1971.84	29
1972.82	31
1973.81	24
1974.79	26
1975.78	30
1976.76	26
1977.74	28
1978.73	28
1979.71	26
1980.69	29
1981.67	28
1982.66	28
1983.64	34
1984.62	28
1985.6	27
1986.59	28
1987.57	30
1988.55	31
1989.53	26
1990.51	32
1991.49	28
1992.47	32
1993.45	31
1994.44	32
1995.42	31
1996.4	24
1997.38	24
1998.36	33
1999.34	36
2000.32	28
2001.3	31
2002.28	26
2003.26	24
2004.24	26
2005.22	26
2006.19	30
2007.17	33
2008.15	32
2009.13	25
2010.11	28
2011.09	30
2012.06	32
2013.04	28
2014.02	28
2015	26
2015.98	28
2016.95	30
2017.93	33
2018.91	26
2019.88	30
2020.86	28
2021.84	27
2022.81	29
2023.79	26
2024.77	28
2025.74	31
2026.72	28
2027.69	28
2028.67	32
2029.65	34
2030.62	25
2031.6	24
2032.57	28
2033.55	29
2034.52	32
2035.5	32
2036.47	30
2037.44	28
2038.42	30
2039.39	28
2040.36	28
2041.34	30
2042.31	26
2043.29	28
2044.26	30
2045.23	30
2046.2	29
2047.18	32
2048.15	28
2049.12	28
2050.09	32
2051.07	32
2052.04	33
2053.01	28
2053.98	28
2054.95	27
2055.93	22
2056.9	30
2057.87	26
2058.84	28
2059.81	24
2060.78	30
2061.75	28
2062.72	27
2063.69	33
2064.66	24
2065.63	24
2066.6	28
2067.57	27
2068.54	28
2069.51	32
2070.48	28
2071.45	29
2072.42	31
2073.38	24
2074.35	29
2075.32	30
2076.29	31
2077.26	26
2078.23	32
2079.19	28
2080.16	32
2081.13	29
2082.1	28
2083.06	22
2084.03	26
2085	32
2085.96	32
2086.93	32
2087.9	31
2088.86	26
2089.83	26
2090.8	33
2091.76	28
2092.73	26
2093.69	30
2094.66	29
2095.62	30
2096.59	24
2097.55	26
2098.52	34
2099.48	28
2100.45	20
2101.41	30
2102.38	30
2103.34	26
2104.31	26
2105.27	27
2106.23	26
2107.2	31
2108.16	27
2109.12	28
2110.09	24
2111.05	24
2112.01	32
2112.98	29
2113.94	28
2114.9	30
2115.86	25
2116.82	26
2117.79	30
2118.75	30
2119.71	30
2120.67	27
2121.63	28
2122.59	30
2123.55	26
2124.52	26
2125.48	29
2126.44	26
2127.4	26
2128.36	24
2129.32	29
2130.28	20
2131.24	31
2132.2	27
2133.16	26
2134.12	26
2135.08	27
2136.04	29
2136.99	30
2137.95	24
2138.91	30
2139.87	27
2140.83	27
2141.79	30
2142.75	29
2143.7	30
2144.66	27
2145.62	30.9972
2146.58	29.9332
2147.53	30.0021
2148.49	30.986
2149.45	26.0034
2150.41	27.9422
2151.36	28.792
2152.32	25.7414
2153.27	29.9861
2154.23	29.6867
2155.19	26.2984
2156.14	27.577
2157.1	28.2271
2158.06	24.3014
2159.01	22.9791
2159.97	27.7436
2160.92	25.321
2161.88	21.0312
2162.83	28.6383
2163.79	26.3824
2164.74	29.398
2165.7	29.1589
2166.65	29.4255
2167.61	28.7835
2168.56	28.2342
2169.51	28.7796
2170.47	25.9911
2171.42	23.7629
2172.38	29.5652
2173.33	27.1941
2174.28	26.0496
2175.24	30.7833
2176.19	26.3394
2177.14	28.7092
2178.09	24.6765
2179.05	28.2653
2180	25.1337
2180.95	27.7044
2181.9	26.1809
2182.86	24.7745
2183.81	29.2624
2184.76	26.7794
2185.71	31.0784
2186.66	27.2795
2187.61	23.4363
2188.57	27.1572
2189.52	30.4775
2190.47	25.5977
2191.42	24
2192.37	25.0294
2193.32	30.3715
2194.27	25.0779
2195.22	27.257
2196.17	28.082
2197.12	29.5682
2198.07	23.9253
2199.02	27.18
2199.97	28.2175
2200.92	29.7733
2201.87	27.7222
2202.82	28.1598
2203.76	28.949
2204.71	28.9296
2205.66	27.2394
2206.61	28.6455
2207.56	26.6754
2208.51	27.6321
2209.45	25.4675
2210.4	30.6648
2211.35	24.2417
2212.3	29.3637
2213.24	27.9394
2214.19	27.038
2215.14	27.4412
2216.09	27.9869
2217.03	27.6631
2217.98	27.0976
2218.93	27.3558
2219.87	28.0767
2220.82	27.0915
2221.77	27.3334
2222.71	27.799
2223.66	29.4793
2224.6	29.6373
2225.55	26.3392
2226.49	26.5443
2227.44	27.9502
2228.38	27.8813
2229.33	26.8989
2230.27	26.4561
2231.22	28.3565
2232.16	27.3249
2233.11	23.7264
2234.05	26.8895
2235	27.6459
2235.94	26.6999
2236.88	26.4807
2237.83	27.3235
2238.77	26.714
2239.71	27.1008
2240.66	25.0905
2241.6	23.606
2242	24
2242.95	28
2243.9	27
2244.84	28
2245.79	30
2246.74	24
2247.69	28
2248.63	26
2249.58	26
2250.53	25
2251.47	29
2252.42	31
2253.37	22
2254.31	28
2255.26	25
2256.2	30
2257.15	30
2258.1	28
2259.04	24
2259.99	24
2260.93	26
2261.88	24
2262.82	22
2263.77	31
2264.71	20
2265.65	22
2266.6	24
2267.54	26
2268.49	27
2269.43	24
2270.38	27
2271.32	28
2272.26	29
2273.21	31
2274.15	33
2275.09	28
2276.04	24
2276.98	22
2277.92	30
2278.86	26
2279.81	28
2280.75	27
2281.69	26
2282.63	26
2283.57	30
2284.52	28
2285.46	33
2286.4	26
2287.34	26
2288.28	18
2289.22	28
2290.16	27
2291.1	27
2292.04	26
2292.98	31
2293.93	29
2294.86	22
2295.8	24
2296.74	22
2297.69	24
2298.62	24
2299.56	26
2300.5	28
2301.44	32
2302.38	27
2303.32	20
2304.26	30
2305.2	27
2306.14	25
2307.07	28
2308.01	28
2308.95	26
2309.89	27
2310.83	30
2311.76	22
2312.7	28
2313.64	24
2314.58	27
2315.51	30
2316.45	28
2317.39	25
2318.32	26
2319.26	26
2320.2	26
2321.13	24
2322.07	31
2323	26
2323.94	26
2324.88	22
2325.81	26
2326.75	28
2327.68	28
2328.62	27
2329.55	29
2330.49	27
2331.42	29
2332.36	24
2333.29	27
2334.22	32
2335.16	32
2336.09	26
2337.03	31
2337.96	29
2338.89	29
2339.83	27
2340.76	28
2341.69	31
2342.63	23
2343.56	31
2344.49	23
2345.43	32
2346.36	27
2347.29	30
2348.22	28
2349.15	24
2350.09	30
2351.02	25
2351.95	20
2352.88	32
2353.81	26
2354.74	28
2355.67	26
2356.61	34
2357.54	31
2358.47	31
2359.4	28
2360.33	27
2361.26	24
2362.19	28
2363.12	27
2364.05	27
2364.98	29
2365.91	30
2366.84	28
2367.77	27
2368.7	32
2369.62	27
2370.55	25
2371.48	24
2372.41	28
2373.34	31
2374.27	24
2375.2	30
2376.12	33
2377.05	22
2377.98	26
2378.91	31
2379.83	30
2380.76	26
2381.69	27
2382.62	32
2383.54	31
2384.47	28
2385.4	29
2386.32	27
2387.25	28
2388.18	30
2389.1	28
2390.03	26
2390.95	34
2391.88	30
2392.81	28
2393.73	32
2394.66	26
2395.58	28
2396.51	27
2397.43	24
2398.36	22
2399.28	32
2400.2	30
2401.13	29
2402.05	30
2402.98	30
2403.9	24
2404.83	27
2405.75	20
2406.67	29
2407.6	27
2408.52	28
2409.44	23
2410.37	29
2411.29	28
2412.21	22
2413.13	24
2414.06	25
2414.98	28
2415.9	32
2416.82	28
2417.74	28
2418.67	22
2419.59	34
2420.51	28
2421.43	26
2422.35	31
2423.27	28
2424.19	31
2425.11	30
2426.03	26
2426.96	18
2427.88	24
2428.8	28
2429.72	26
2430.64	27
2431.56	30
2432.48	28
2433.39	27
2434.31	27
2435.23	30
2436.15	26
2437.07	27
2437.99	28
2438.91	28
2439.83	34
2440.75	32
2441.67	28
2442.58	23
2443.5	27
2444.42	25
2445.34	28
2446.26	30
2447.17	32
2448.09	31
2449.01	26
2449.92	30
2450.84	27
2451.76	32
2452.68	27
2453.59	27
2454.51	30
2455.42	27
2456.34	30
2457.26	30
2458.17	24
2459.09	32
2460	26
2460.92	26
2461.83	31
2462.75	30
2463.66	28
2464.58	28
2465.49	31
2466.41	24
2467.32	30
2468.24	30
2469.15	26
2470.07	22
2470.98	32
2471.89	28
2472.81	33
2473.72	30
2474.64	26
2475.55	28
2476.46	31
2477.37	26
2478.29	30
2479.2	30
2480.11	22
2481.03	32
2481.94	26
2482.85	26
2483.76	26
2484.67	26
2485.59	32
2486.5	29
2487.41	28
2488.32	29
2489.23	29
2490.14	32
2491.05	30
2491.97	26
2492.88	28
2493.79	25
2494.7	31
2495.61	25
2496.52	33
2497.43	30
2498.34	29
2499.25	29
2500.16	30
2501.07	24
2501.98	31
2502.89	26
2503.79	32
2504.7	26
2505.61	32
2506.52	32
2507.43	25
2508.34	26
2509.25	26
2510.16	26
2511.06	28
2511.97	24
2512.88	29
2513.79	28
2514.69	31
2515.6	27
2516.51	25
2517.42	26
2518.32	27
2519.23	26
2520.14	29
2521.04	23
2521.95	27
2522.86	30
2523.76	26
2524.67	30
2525.57	28
2526.48	33
2527.39	34
2528.29	26
2529.2	27
2530.1	27
2531.01	24
2531.91	28
2532.82	32
2533.72	24
2534.63	26
2535.53	20
2536.44	25
2537.34	27
2538.24	26
2539.15	28
2540.05	28
2540.96	26
2541.86	24
2542.76	34
2543.67	25
2544.57	30
2545.47	22
2546.37	26
2547.28	32
2548.18	32
2549.08	26
2549.99	21
2550.89	28
2551.79	28
2552.69	28
2553.59	28
2554.49	26
2555.4	21
2556.3	31
2557.2	27
2558.1	24
2559	26
2559.9	26
2560.8	28
2561.7	30
2562.6	28
2563.5	26
2564.4	29
2565.3	30
2566.2	30
2567.1	25
2568	28
2568.9	28
2569.8	33
2570.7	28
2571.6	30
2572.5	27
2573.4	33
2574.3	33
2575.2	27
2576.1	30
2576.99	28
2577.89	26
2578.79	24
2579.69	25
2580.59	28
2581.48	30
2582.38	28
2583.28	29
2584.18	29
2585.07	32
2585.97	27
2586.87	26
2587.76	29
2588.66	30
2589.56	25
2590.45	26
2591.35	26
2592.25	32
2593.14	29
2594.04	28
2594.93	30
2595.83	25
2596.73	28
2597.62	26
2598.52	26
2599.41	26
2600.31	28
2601.2	31
2602.1	31
2602.99	26
2603.88	26
2604.78	24
2605.67	27
2606.57	27
2607.46	22
2608.35	27
2609.25	30
2610.14	30
2611.03	36
2611.93	31
2612.82	28
2613.71	28
2614.61	25
2615.5	22
2616.39	31
2617.29	26
2618.18	31
2619.07	28
2619.96	26
2620.85	28
2621.75	26
2622.64	26
2623.53	26
2624.42	25
2625.31	30
2626.2	31
2627.09	28
2627.98	25
2628.88	24
2629.77	32
2630.66	28
2631.55	22
2632.44	28
2633.33	26
2634.22	30
2635.11	30
2636	28
2636.89	32
2637.78	26
2638.66	27
2639.55	26
2640.44	24
2641.33	34
2642.22	31
2643.11	24
2644	33
2644.89	30
2645.78	31
2646.66	26
2647.55	27
2648.44	27
2649.33	26
2650.21	28
2651.1	24
2651.99	24
2652.88	30
2653.76	30
2654.65	26
2655.54	32
2656.42	25
2657.31	26
2658.2	28
2659.08	28
2659.97	27
2660.86	25
2661.74	28
2662.63	28
2663.51	24
2664.4	30
2665.29	28
2666.17	22
2667.06	29
2667.94	30
2668.83	24
2669.71	31
2670.6	31
2671.48	28
2672.36	29
2673.25	24
2674.13	27
2675.02	31
2675.9	28
2676.78	28
2677.67	26
2678.55	27
2679.43	24
2680.32	29
2681.2	33
2682.08	26
2682.97	27
2683.85	31
2684.73	28
2685.61	31
2686.5	28
2687.38	26
2688.26	26
2689.14	24
2690.03	29
2690.91	26
2691.79	28
2692.67	26
2693.55	25
2694.43	32
2695.31	33
2696.19	24
2697.08	34
2697.96	24
2698.84	26
2699.72	26
2700.6	22
2701.48	24
2702.36	32
2703.24	30
2704.12	24
2705	24
2705.88	31
2706.76	30
2707.64	24
2708.51	28
2709.39	28
2710.27	26
2711.15	26
2712.03	31
2712.91	26
2713.79	27
2714.67	31
2715.54	24
2716.42	25
2717.3	27
2718.18	24
2719.05	26
2719.93	25
2720.81	32
2721.69	29
2722.56	32
2723.44	28
2724.32	24
2725.19	31
2726.07	25
2726.95	30
2727.82	25
2728.7	22
2729.58	32
2730.45	27
2731.33	28
2732.2	22
2733.08	33
2733.95	33
2734.83	22
2735.7	27
2736.58	31
2737.45	31
2738.33	26
2739.2	20
2740.08	25
2740.95	24
2741.83	26
2742.7	28
2743.58	32
2744.45	24
2745.32	26
2746.2	24
2747.07	24
2747.94	27
2748.82	31
2749.69	28
2750.56	24
2751.44	30
2752.31	28
2753.18	28
2754.05	28
2754.93	26
2755.8	28
2756.67	26
2757.54	24
2758.42	29
2759.29	22
2760.16	28
2761.03	30
2761.9	32
2762.77	30
2763.64	30
2764.51	30
2765.38	28
2766.26	30
2767.13	28
2768	26
2768.87	24
2769.74	26
2770.61	28
2771.48	27
2772.35	27
2773.22	28
2774.09	27
2774.96	26
2775.83	28
2776.7	29
2777.56	29
2778.43	27
2779.3	35
2780.17	28
2781.04	26
2781.91	24
2782.78	26
2783.64	27
2784.51	27
2785.38	28
2786.25	33
2787.12	28
2787.98	30
2788.85	26
2789.72	26
2790.59	31
2791.45	28
2792.32	30
2793.19	29
2794.05	26
2794.92	28
2795.79	24
2796.65	31
2797.52	27
2798.38	28
2799.25	24
2800.12	27
2800.98	32
2801.85	29
2802.71	24
2803.58	30
2804.44	31
2805.31	30
2806.17	27
2807.04	31
2807.9	26
2808.77	25
2809.63	26
2810.5	30
2811.36	26
2812.22	26
2813.09	27
2813.95	24
2814.82	28
2815.68	28
2816.54	34
2817.41	31
2818.27	29
2819.13	29
2820	27
2820.86	28
2821.72	30
2822.58	29
2823.45	23
2824.31	29
2825.17	28
2826.03	29
2826.9	26
2827.76	28
2828.62	27
2829.48	28
2830.34	30
2831.2	29
2832.06	30
2832.92	25
2833.79	30
2834.65	30
2835.51	26
2836.37	32
2837.23	26
2838.09	29
2838.95	27
2839.81	28
2840.67	26
2841.53	34
2842.39	32
2843.25	27
2844.11	28
2844.97	32
2845.83	24
2846.68	26
2847.54	30
2848.4	28
2849.26	24
2850.12	29
2850.98	27
2851.84	31
2852.69	18
2853.55	28
2854.41	26
2855.27	31
2856.13	24
2856.98	29
2857.84	30
2858.7	26
2859.56	31
2860.41	25
2861.27	30
2862.13	27
2862.98	30
2863.84	22
2864.7	27
2865.55	27
2866.41	27
2867.27	30
2868.12	32
2868.98	26
2869.83	29
2870.69	29
2871.54	32
2872.4	28
2873.25	20
2874.11	28
2874.96	28
2875.82	28
2876.68	31
2877.53	30
2878.38	32
2879.24	35
2880.09	33
2880.95	32
2881.8	34
2882.65	33
2883.51	32
2884.36	36
2885.22	32
2886.07	33
2886.92	29
2887.77	30
2888.63	31
2889.48	33
2890.33	28
2891.19	37
2892.04	36
2892.89	32
2893.74	31
2894.6	32
2895.45	41
2896.3	39
2897.15	46
2898	44
2898.85	50
2899.71	44
2900.56	48
2901.41	50
2902.26	52
2903.11	56
2903.96	50
2904.81	56
2905.66	50
2906.51	42
2907.36	51
2908.21	53
2909.06	50
2909.91	56
2910.76	49
2911.61	48
2912.46	44
2913.31	48
2914.16	41
2915.01	44
2915.86	44
2916.71	37
2917.56	40
2918.41	36
2919.26	37
2920.1	34
2920.95	36
2921.8	32
2922.65	30
2923.5	32
2924.34	32
2925.19	38
2926.04	30
2926.89	26
2927.74	33
2928.58	25
2929.43	31
2930.28	30
2931.12	28
2931.97	29
2932.82	33
2933.66	25
2934.51	30
2935.36	30
2936.2	30
2937.05	34
2937.89	26
2938.74	28
2939.59	25
2940.43	27
2941.28	31
2942.12	27
2942.97	30
2943.81	29
2944.66	31
2945.5	30
2946.35	30
2947.19	30
2948.04	23
2948.88	24
2949.72	34
2950.57	33
2951.41	29
2952.26	32
2953.1	26
2953.94	36
2954.79	31
2955.63	32
2956.47	32
2957.32	34
2958.16	30
2959	36
2959.85	32
2960.69	34
2961.53	30
2962.37	38
2963.22	40
2964.06	41
2964.9	34
2965.74	42
2966.58	38
2967.42	38
2968.27	34
2969.11	28
2969.95	37
2970.79	35
2971.63	34
2972.47	34
2973.31	34
2974.15	36
2974.99	32
2975.83	35
2976.68	35
2977.52	34
2978.36	31
2979.2	32
2980.04	28
2980.88	32
2981.71	26
2982.55	27
2983.39	29
2984.23	26
2985.07	30
2985.91	30
2986.75	26
2987.59	30
2988.43	29
2989.27	25
2990.1	26
2990.94	28
2991.78	26
2992.62	34
2993.46	22
2994.3	29
2995.13	28
2995.97	30
2996.81	29
2997.64	20
2998.48	32
2999.32	27
