#Acq. time (s)=	3
#Accumulations=	3
#Range (cm-¹)=	100...3000
#Windows=	3
#Autofocus=	Off
#AutoExposure=	Off
#Spike filter=	Multiple accum.
#Delay time (s)=	0
#Binning=	1
#Readout mode=	Signal
#DeNoise=	Off
#ICS correction=	Off
#Dark correction=	Off
#Inst. Process=	Off
#Instrument=	LabRAM HR Evol
#Detector=	Syncerity OE
#Objective=	x100_VIS_LWD
#Grating=	600 (500nm)
#ND Filter=	25%
#Laser=	633nm_Edge
#Hole=	100.021
#Range=	Visible
#Project=	Bolus
#Sample=	B1
#Site=	stripside
#Title=	m04
#Remark=	
#Date=	03.11.2025 16:52
#Acquired=	03.11.2025 16:52:50
100.969	31
102.252	39
103.535	36
104.818	33
106.101	31
107.384	28
108.666	35
109.948	39
111.232	39
112.514	40
113.795	35
115.077	40
116.358	44
117.639	36
118.919	32
120.2	33
121.48	35
122.76	39
124.04	30
125.32	28
126.599	37
127.879	39
129.158	32
130.436	38
131.715	36
132.992	36
134.27	32
135.548	38
136.826	36
138.104	32
139.381	37
140.658	38
141.935	36
143.212	36
144.489	36
145.763	34
147.04	46
148.315	40
149.591	46
150.867	34
152.142	39
153.416	36
154.691	40
155.965	43
157.24	44
158.514	48
159.786	39
161.06	42
162.334	38
163.607	39
164.881	39
166.152	37
167.425	44
168.698	39
169.969	38
171.241	42
172.513	39
173.785	38
175.055	41
176.326	39
177.597	39
178.867	40
180.137	43
181.408	42
182.677	38
183.947	46
185.217	43
186.485	46
187.755	38
189.022	44
190.291	36
191.56	34
192.828	41
194.096	42
195.363	43
196.631	40
197.899	38
199.165	37
200.432	38
201.698	37
202.965	39
204.23	42
205.497	38
206.762	36
208.028	35
209.293	35
210.559	39
211.823	38
213.088	34
214.352	30
215.617	34
216.88	38
218.145	46
219.408	34
220.672	35
221.934	37
223.196	38
224.46	34
225.722	34
226.985	38
228.246	34
229.508	36
230.77	42
232.031	41
233.292	36
234.554	34
235.814	38
237.074	33
238.335	39
239.595	35
240.854	37
242.115	32
243.374	34
244.633	32
245.893	38
247.151	36
248.409	37
249.667	32
250.927	32
252.184	38
253.442	36
254.699	32
255.957	34
257.214	36
258.47	35
259.727	40
260.983	32
262.24	32
263.496	34
264.752	39
266.007	35
267.262	40
268.517	34
269.773	32
271.028	35
272.282	35
273.536	34
274.79	33
276.044	34
277.297	34
278.551	29
279.804	37
281.057	34
282.31	36
283.564	36
284.816	34
286.068	32
287.32	36
288.572	34
289.823	34
291.074	31
292.325	26
293.576	38
294.827	34
296.077	29
297.328	35
298.578	34
299.828	38
301.077	33
302.325	37
303.575	30
304.824	36
306.073	28
307.321	37
308.57	37
309.818	32
311.066	34
312.314	32
313.562	35
314.808	33
316.055	38
317.302	33
318.549	42
319.796	36
321.042	32
322.288	39
323.533	36
324.779	39
326.024	36
327.27	38
328.515	34
329.759	35
331.004	32
332.248	39
333.493	34
334.736	30
335.98	29
337.223	34
338.466	38
339.709	33
340.952	33
342.195	39
343.437	28
344.68	34
345.922	36
347.163	28
348.405	37
349.647	34
350.887	30
352.128	35
353.37	36
354.609	39
355.85	32
357.089	36
358.33	31
359.57	34
360.809	28
362.049	35
363.287	30
364.526	30
365.764	36
367.003	32
368.241	39
369.479	38
370.718	34
371.955	30
373.193	37
374.429	28
375.667	38
376.903	35
378.139	37
379.376	30
380.611	35
381.848	35
383.083	40
384.319	32
385.554	36
386.79	32
388.024	36
389.258	30
390.493	33
391.727	40
392.962	37
394.195	30
395.428	33
396.663	36
397.895	37
399.128	36
400.361	37
401.593	35
402.825	34
404.058	31
405.29	37
406.521	37
407.752	31
408.985	37
410.215	38
411.446	28
412.678	35
413.908	34
415.138	35
416.367	37
417.597	34
418.828	38
420.057	34
421.286	37
422.514	32
423.743	35
424.973	38
426.201	36
427.429	33
428.657	35
429.884	35
431.112	38
432.34	34
433.567	39
434.794	35
436.02	36
437.247	36
438.473	36
439.699	35
440.925	32
442.15	28
443.376	36
444.601	34
445.826	38
447.051	36
448.275	40
449.5	36
450.724	31
451.948	36
453.172	36
454.396	33
455.619	34
456.842	36
458.065	36
459.288	39
460.511	40
461.733	32
462.956	36
464.178	35
465.4	33
466.621	39
467.843	38
469.064	37
470.285	39
471.505	37
472.726	33
473.946	38
475.166	42
476.387	38
477.606	40
478.825	38
480.044	46
481.264	44
482.483	49
483.702	52
484.921	52
486.138	49
487.356	46
488.574	53
489.792	54
491.009	52
492.226	50
493.444	48
494.661	48
495.877	60
497.094	45
498.31	42
499.525	47
500.741	44
501.958	44
503.172	39
504.388	44
505.603	37
506.817	36
508.032	41
509.247	45
510.46	34
511.675	39
512.888	34
514.102	42
515.316	34
516.528	36
517.742	37
518.954	35
520.167	38
521.378	38
522.591	36
523.802	33
525.015	42
526.226	41
527.438	36
528.648	36
529.86	36
531.07	32
532.281	40
533.491	36
534.702	39
535.911	36
537.121	34
538.33	41
539.54	41
540.749	35
541.957	36
543.167	36
544.375	37
545.584	38
546.791	30
547.999	35
549.207	37
550.414	30
551.621	37
552.829	35
554.035	30
555.241	32
556.449	34
557.655	34
558.86	28
560.066	39
561.272	34
562.477	34
563.682	32
564.888	36
566.093	38
567.297	30
568.501	33
569.705	30
570.91	35
572.114	32
573.317	32
574.52	38
575.723	37
576.927	34
578.13	34
579.332	37
580.535	39
581.737	37
582.938	38
584.14	34
585.343	36
586.544	36
587.745	40
588.946	33
590.147	40
591.347	32
592.548	34
593.748	33
594.948	31
596.147	30
597.347	32
598.546	38
599.745	34
600.944	30
602.143	36
603.342	36
604.54	36
605.738	34
606.937	34
608.134	36
609.332	34
610.529	35
611.727	36
612.924	35
614.121	34
615.317	36
616.513	35
617.709	34
618.905	39
620.101	35
621.297	34
622.492	43
623.688	41
624.883	30
626.077	34
627.271	36
628.466	30
629.66	34
630.855	32
632.047	37
633.241	34
634.435	38
635.629	30
636.82	36
638.014	35
639.207	31
640.399	30
641.59	36
642.783	38
643.975	35
645.166	38
646.357	33
647.549	33
648.741	33
649.93	36
651.122	34
652.311	28
653.502	34
654.692	35
655.881	37
657.071	35
658.261	38
659.45	37
660.639	39
661.827	32
663.016	34
664.204	30
665.393	36
666.581	38
667.769	40
668.957	38
670.143	35
671.331	34
672.518	32
673.705	31
674.891	32
676.078	40
677.264	34
678.451	35
679.636	36
680.821	36
682.007	38
683.192	32
684.378	37
685.562	38
686.747	39
687.931	36
689.115	42
690.3	42
691.483	42
692.666	35
693.851	40
695.034	36
696.216	41
697.4	37
698.582	37
699.764	38
700.948	36
702.129	44
703.311	43
704.493	43
705.674	40
706.855	51
708.036	40
709.218	46
710.399	38
711.579	46
712.759	41
713.939	45
715.12	42
716.299	42
717.478	36
718.657	37
719.836	33
721.015	34
722.195	34
723.373	39
724.552	30
725.729	38
726.907	26
728.085	34
729.262	39
730.44	36
731.617	37
732.795	40
733.972	34
735.148	34
736.324	34
737.501	28
738.677	32
739.852	30
741.028	32
742.203	33
743.379	37
744.554	33
745.729	38
746.903	36
748.078	33
749.252	35
750.426	36
751.599	38
752.772	38
753.946	34
755.119	38
756.293	35
757.466	35
758.639	34
759.811	35
760.984	32
762.155	39
763.327	31
764.499	35
765.67	34
766.842	28
768.013	34
769.183	40
770.354	32
771.525	34
772.696	34
773.865	38
775.035	36
776.205	34
777.375	36
778.544	28
779.713	32
780.882	42
782.052	40
783.219	36
784.388	36
785.557	36
786.724	36
787.892	36
789.06	34
790.227	40
791.395	34
792.562	35
793.728	33
794.895	38
796.061	36
797.228	32
798.395	30
799.56	26
800.726	32
801.891	36
803.057	40
804.221	30
805.387	28
806.551	37
807.716	30
808.879	36
810.044	38
811.208	35
812.372	35
813.535	34
814.699	34
815.862	34
817.025	30
818.188	31
819.351	30
820.513	32
821.675	33
822.837	38
823.999	35
825.161	31
826.322	35
827.483	30
828.645	36
829.805	38
830.966	34
832.127	39
833.287	28
834.447	38
835.607	37
836.767	32
837.926	35
839.085	31
840.245	32
841.404	32
842.562	33
843.72	38
844.88	40
846.038	33
847.195	30
848.353	37
849.512	40
850.669	31
851.826	34
852.983	30
854.139	38
855.296	35
856.453	32
857.609	38
858.765	36
859.921	26
861.077	32
862.232	30
863.387	34
864.542	37
865.697	38
866.852	35
868.008	34
869.162	35
870.316	32
871.47	33
872.624	34
873.778	36
874.931	34
876.084	41
877.237	37
878.39	31
879.543	32
880.695	37
881.846	38
882.999	34
884.151	35
885.302	34
886.454	32
887.606	38
888.757	30
889.908	39
891.059	34
892.21	35
893.359	35
894.509	38
895.659	31
896.81	30
897.959	31
899.109	37
900.257	30
901.407	36
902.556	35
903.705	35
904.854	34
906.001	32
907.149	32
908.298	28
909.446	33
910.592	34
911.74	36
912.888	37
914.034	36
915.181	32
916.328	32
917.473	34
918.62	30
919.766	30
920.911	31
922.058	32
923.204	37
924.348	26
925.494	34
926.638	32
927.783	33
928.928	34
930.072	34
931.216	28
932.36	40
933.504	32
934.647	33
935.791	32
936.933	32
938.077	32
939.219	36
940.363	32
941.504	36
942.647	28
943.789	33
944.932	28
946.073	34
947.215	35
948.356	33
949.498	33
950.638	29
951.778	33
952.92	35
954.06	28
955.199	33
956.34	32
957.479	34
958.62	32
959.759	32
960.898	30
962.038	32
963.176	32
964.315	28
965.453	41
966.592	39
967.73	30
968.867	30
970.006	32
971.144	33
972.281	34
973.418	30
974.554	32
975.692	28
976.829	34
977.965	33
979.101	39
980.237	35
981.374	33
982.509	34
983.645	33
984.78	31
985.915	34
987.05	32
988.184	29
989.319	26
990.453	38
991.589	30
992.722	29
993.856	35
994.99	30
996.123	33
997.257	32
998.39	32
999.523	29
1000.66	28
1001.79	33
1002.92	32
1004.05	32
1005.18	35
1006.32	30
1007.45	40
1008.58	33
1009.71	36
1010.84	38
1011.97	30
1013.1	33
1014.23	32
1015.36	32
1016.49	29
1017.62	36
1018.75	30
1019.88	36
1021.01	32
1022.14	36
1023.27	31
1024.4	26
1025.53	32
1026.66	35
1027.79	28
1028.91	30
1030.04	34
1031.17	28
1032.3	33
1033.42	28
1034.55	33
1035.68	37
1036.81	35
1037.93	28
1039.06	32
1040.18	29
1041.31	33
1042.44	32
1043.56	35
1044.69	26
1045.81	32
1046.94	32
1048.06	33
1049.19	40
1050.31	36
1051.44	36
1052.56	34
1053.69	32
1054.81	30
1055.93	36
1057.06	26
1058.18	34
1059.3	30
1060.43	31
1061.55	30
1062.67	34
1063.79	30
1064.92	28
1066.04	29
1067.16	33
1068.28	35
1069.4	31
1070.52	29
1071.65	26
1072.77	30
1073.89	32
1075.01	30
1076.13	33
1077.25	30
1078.37	37
1079.49	32
1080.61	30
1081.73	29
1082.85	31
1083.97	38
1085.09	32
1086.2	28
1087.32	33
1088.44	32
1089.56	34
1090.68	32
1091.8	32
1092.91	32
1094.03	34
1095.15	30
1096.26	33
1097.38	35
1098.5	24
1099.61	31
1100.73	28
1101.85	30
1102.96	32
1104.08	36
1105.19	36
1106.31	30
1107.43	32
1108.54	30
1109.66	27
1110.77	33
1111.88	29
1113	31
1114.11	31
1115.23	29
1116.34	31
1117.46	28
1118.57	31
1119.68	31
1120.8	30
1121.91	31
1123.02	30
1124.13	28
1125.25	28
1126.36	28
1127.47	35
1128.58	35
1129.69	27
1130.8	28
1131.92	32
1133.03	31
1134.14	30
1135.25	37
1136.36	31
1137.47	31
1138.58	36
1139.69	31
1140.8	31
1141.91	34
1143.02	32
1144.13	32
1145.24	30
1146.35	34
1147.46	28
1148.56	30
1149.67	29
1150.78	26
1151.89	31
1153	30
1154.1	34
1155.21	30
1156.32	33
1157.43	30
1158.53	28
1159.64	34
1160.75	31
1161.85	30
1162.96	31
1164.07	34
1165.17	28
1166.28	29
1167.38	31
1168.49	30
1169.59	37
1170.7	31
1171.8	32
1172.91	30
1174.01	32
1175.12	28
1176.22	29
1177.32	30
1178.43	34
1179.53	32
1180.64	33
1181.74	31
1182.84	34
1183.94	31
1185.05	26
1186.15	32
1187.25	24
1188.35	29
1189.46	32
1190.56	31
1191.66	34
1192.76	28
1193.86	30
1194.96	29
1196.06	30.9755
1197.16	29.9412
1198.26	34.8754
1199.37	34.0038
1200.47	29.0706
1201.57	28.1225
1202.67	28.2497
1203.77	31.6506
1204.86	34.4375
1205.96	32.7105
1207.06	29.6867
1208.16	30.4946
1209.26	28.0656
1210.36	28.1975
1211.46	30.7157
1212.56	35.012
1213.65	32.3552
1214.75	34.1337
1215.85	31.561
1216.95	30.068
1218.04	32.402
1219.14	32.8155
1220.24	28.4412
1221.33	32.0972
1222.43	27.8908
1223.53	32.8132
1224.62	27.4432
1225.72	25.4122
1226.82	32.6429
1227.91	30.9755
1229.01	24.598
1230.1	28.6745
1231.2	30.1848
1232.29	28.7884
1233.39	27.8733
1234.48	28.9287
1235.58	30.4209
1236.67	30.3819
1237.77	29.8676
1238.86	30.283
1239.95	30.3971
1241.05	32.3382
1242.14	28.6536
1243.23	28.5202
1244.33	32.2549
1245.42	32.612
1246.51	28.6148
1247.61	30.0538
1248.7	30.1048
1249.79	30.5147
1250.88	32.0028
1251.97	30.697
1253.07	28.8063
1254.16	29.8723
1255.25	31.2007
1256.34	28.5265
1257.43	31.1626
1258.52	30.9755
1259.61	28.8529
1260.7	29.0845
1261.79	30.6875
1262.88	29.1015
1263.97	33.2725
1265.06	32.8733
1266.15	29.8615
1267.24	34.4457
1268.33	33.1135
1269.42	30.5283
1270.51	28.3161
1271.6	33.6854
1272.68	35.0426
1273.77	31.2321
1274.86	33.3449
1275.95	29.3363
1277.04	33.3844
1278.12	32.4254
1279.21	29.2032
1280.3	29.6533
1281.39	24.1036
1282.47	30.2206
1283.56	30.4883
1284.65	30.0647
1285.73	29.4091
1286.82	32.0013
1287.91	29.6569
1288.99	29.9594
1290.08	25.3922
1291.16	27.3582
1292.25	30.0087
1293.33	29.0076
1294.42	26.2255
1295.5	27.3941
1296.59	30.6094
1297.67	30.108
1298.76	30.8529
1299.84	30.7623
1300.92	28.6895
1302.01	33.9507
1303.09	32.6306
1304.17	29.8522
1305.26	27.8667
1306.34	26.2419
1307.34	29
1308.43	32
1309.52	28
1310.61	34
1311.7	22
1312.78	33
1313.87	28
1314.96	31
1316.04	30
1317.13	30
1318.22	29
1319.3	28
1320.39	28
1321.48	28
1322.56	31
1323.65	34
1324.73	34
1325.82	31
1326.9	31
1327.99	30
1329.07	35
1330.16	32
1331.24	27
1332.33	28
1333.41	30
1334.5	26
1335.58	33
1336.66	26
1337.75	32
1338.83	28
1339.91	31
1341	30
1342.08	34
1343.16	30
1344.24	29
1345.33	26
1346.41	32
1347.49	29
1348.57	28
1349.65	31
1350.74	31
1351.82	30
1352.9	26
1353.98	28
1355.06	32
1356.14	30
1357.22	29
1358.3	26
1359.38	30
1360.46	31
1361.54	28
1362.62	30
1363.7	26
1364.78	32
1365.86	30
1366.94	29
1368.02	30
1369.09	32
1370.17	24
1371.25	25
1372.33	28
1373.41	27
1374.48	33
1375.56	30
1376.64	31
1377.72	29
1378.79	30
1379.87	29
1380.95	32
1382.02	30
1383.1	31
1384.17	29
1385.25	31
1386.33	29
1387.4	24
1388.48	26
1389.55	34
1390.63	37
1391.7	32
1392.78	30
1393.85	34
1394.93	30
1396	28
1397.07	29
1398.15	29
1399.22	34
1400.3	32
1401.37	30
1402.44	28
1403.52	36
1404.59	28
1405.66	32
1406.73	30
1407.81	36
1408.88	34
1409.95	38
1411.02	32
1412.09	24
1413.17	34
1414.24	34
1415.31	33
1416.38	38
1417.45	34
1418.52	35
1419.59	32
1420.66	32
1421.73	28
1422.8	24
1423.87	36
1424.94	31
1426.01	33
1427.08	32
1428.15	29
1429.22	34
1430.29	27
1431.35	34
1432.42	32
1433.49	30
1434.56	31
1435.63	28
1436.69	28
1437.76	34
1438.83	28
1439.9	32
1440.96	32
1442.03	27
1443.1	30
1444.17	29
1445.23	28
1446.3	28
1447.36	29
1448.43	34
1449.49	28
1450.56	28
1451.63	34
1452.69	32
1453.76	28
1454.82	28
1455.89	33
1456.95	33
1458.01	32
1459.08	32
1460.14	30
1461.21	28
1462.27	31
1463.34	29
1464.4	31
1465.46	30
1466.52	26
1467.59	28
1468.65	26
1469.71	34
1470.77	29
1471.84	28
1472.9	32
1473.96	32
1475.02	27
1476.08	35
1477.15	26
1478.21	30
1479.27	29
1480.33	31
1481.39	33
1482.45	30
1483.51	30
1484.57	29
1485.63	28
1486.69	22
1487.75	30
1488.81	22
1489.87	34
1490.93	32
1491.99	31
1493.05	30
1494.1	30
1495.16	30
1496.22	34
1497.28	28
1498.34	30
1499.4	30
1500.45	29
1501.51	33
1502.57	30
1503.63	27
1504.68	33
1505.74	29
1506.8	26
1507.85	30
1508.91	26
1509.97	28
1511.02	30
1512.08	26
1513.13	29
1514.19	30
1515.24	30
1516.3	30
1517.35	30
1518.41	26
1519.46	31
1520.52	35
1521.57	24
1522.63	28
1523.68	28
1524.73	32
1525.79	31
1526.84	31
1527.9	30
1528.95	32
1530	30
1531.05	32
1532.11	31
1533.16	36
1534.21	30
1535.26	33
1536.32	29
1537.37	29
1538.42	29
1539.47	24
1540.52	32
1541.57	29
1542.63	29
1543.68	35
1544.73	31
1545.78	30
1546.83	34
1547.88	28
1548.93	29
1549.98	28
1551.03	33
1552.08	27
1553.13	28
1554.18	22
1555.23	30
1556.27	29
1557.32	26
1558.37	27
1559.42	29
1560.47	32
1561.52	32
1562.56	29
1563.61	30
1564.66	30
1565.71	28
1566.75	33
1567.8	30
1568.85	31
1569.9	34
1570.94	27
1571.99	30
1573.03	30
1574.08	27
1575.13	30
1576.17	30
1577.22	31
1578.26	29
1579.31	34
1580.35	30
1581.4	30
1582.44	31
1583.49	26
1584.53	32
1585.58	33
1586.62	30
1587.66	32
1588.71	30
1589.75	31
1590.8	27
1591.84	32
1592.88	28
1593.92	33
1594.97	28
1596.01	30
1597.05	30
1598.1	34
1599.14	34
1600.18	31
1601.22	32
1602.26	30
1603.3	34
1604.35	27
1605.39	30
1606.43	28
1607.47	34
1608.51	31
1609.55	28
1610.59	30
1611.63	31
1612.67	29
1613.71	32
1614.75	30
1615.79	32
1616.83	27
1617.87	32
1618.91	26
1619.95	30
1620.99	29
1622.02	32
1623.06	31
1624.1	22
1625.14	36
1626.18	26
1627.21	24
1628.25	32
1629.29	30
1630.33	22
1631.36	31
1632.4	30
1633.44	32
1634.48	30
1635.51	33
1636.55	32
1637.58	31
1638.62	30
1639.66	32
1640.69	30
1641.73	32
1642.76	24
1643.8	38
1644.83	27
1645.87	31
1646.9	28
1647.94	31
1648.97	30
1650	31
1651.04	24
1652.07	34
1653.11	31
1654.14	28
1655.17	28
1656.21	34
1657.24	30
1658.27	31
1659.31	27
1660.34	24
1661.37	29
1662.4	31
1663.43	31
1664.47	27
1665.5	24
1666.53	31
1667.56	30
1668.59	33
1669.62	26
1670.66	26
1671.69	30
1672.72	32
1673.75	32
1674.78	25
1675.81	31
1676.84	30
1677.87	28
1678.9	30
1679.93	28
1680.96	32
1681.98	30
1683.01	30
1684.04	28
1685.07	30
1686.1	29
1687.13	29
1688.16	31
1689.18	32
1690.21	28
1691.24	33
1692.27	28
1693.3	28
1694.32	32
1695.35	28
1696.38	26
1697.4	27
1698.43	29
1699.46	32
1700.48	30
1701.51	31
1702.54	26
1703.56	27
1704.59	29
1705.61	26
1706.64	29
1707.66	33
1708.69	26
1709.71	32
1710.74	29
1711.76	32
1712.79	32
1713.81	32
1714.83	24
1715.86	29
1716.88	29
1717.91	32
1718.93	30
1719.95	29
1720.98	27
1722	30
1723.02	34
1724.04	22
1725.07	34
1726.09	33
1727.11	32
1728.13	32
1729.15	28
1730.18	30
1731.2	31
1732.22	30
1733.24	31
1734.26	31
1735.28	31
1736.3	31
1737.32	26
1738.34	28
1739.36	28
1740.38	26
1741.4	30
1742.42	33
1743.44	30
1744.46	32
1745.48	29
1746.5	28
1747.52	32
1748.54	26
1749.56	22
1750.58	28
1751.6	29
1752.61	33
1753.63	30
1754.65	32
1755.67	30
1756.68	28
1757.7	33
1758.72	31
1759.74	24
1760.75	28
1761.77	29
1762.79	30
1763.8	31
1764.82	32
1765.83	28
1766.85	27
1767.87	29
1768.88	29
1769.9	28
1770.91	32
1771.93	28
1772.94	31
1773.96	34
1774.97	27
1775.99	34
1777	26
1778.02	26
1779.03	24
1780.04	25
1781.06	27
1782.07	31
1783.09	34
1784.1	28
1785.11	26
1786.13	29
1787.14	28
1788.15	31
1789.16	28
1790.18	33
1791.19	28
1792.2	29
1793.21	26
1794.22	31
1795.23	31
1796.25	24
1797.26	28
1798.27	32
1799.28	26
1800.29	29
1801.3	32
1802.31	34
1803.32	35
1804.33	33
1805.34	29
1806.35	24
1807.36	30
1808.37	32
1809.38	31
1810.39	29
1811.4	35
1812.41	24
1813.42	30
1814.42	30
1815.43	28
1816.44	30
1817.45	28
1818.46	30
1819.47	33
1820.47	26
1821.48	26
1822.49	34
1823.49	32
1824.5	28
1825.51	30
1826.52	32
1827.52	30
1828.53	29
1829.53	29
1830.54	32
1831.55	32
1832.55	34
1833.56	30
1834.56	27
1835.57	28
1836.57	34
1837.58	28
1838.58	32
1839.59	30
1840.59	26
1841.6	28
1842.6	32
1843.61	28
1844.61	28
1845.61	25
1846.62	30
1847.62	33
1848.62	27
1849.63	29
1850.63	26
1851.63	31
1852.64	31
1853.64	30
1854.64	31
1855.64	28
1856.64	30
1857.65	32
1858.65	28
1859.65	28
1860.65	33
1861.65	26
1862.65	28
1863.65	28
1864.66	28
1865.66	30
1866.66	33
1867.66	28
1868.66	24
1869.66	26
1870.66	28
1871.66	33
1872.66	24
1873.66	30
1874.66	30
1875.65	30
1876.65	31
1877.65	33
1878.65	28
1879.65	30
1880.65	25
1881.65	30
1882.64	25
1883.64	28
1884.64	32
1885.64	28
1886.63	32
1887.63	32
1888.63	22
1889.63	27
1890.62	32
1891.62	27
1892.62	33
1893.61	26
1894.61	22
1895.6	26
1896.6	29
1897.6	27
1898.59	30
1899.59	24
1900.58	28
1901.58	29
1902.57	26
1903.57	29
1904.56	28
1905.56	27
1906.55	28
1907.54	26
1908.54	37
1909.53	28
1910.53	26
1911.52	26
1912.51	26
1913.51	32
1914.5	27
1915.49	26
1916.49	28
1917.48	20
1918.47	27
1919.46	28
1920.46	24
1921.45	31
1922.44	31
1923.43	28
1924.42	28
1925.41	21
1926.41	31
1927.4	32
1928.39	30
1929.38	24
1930.37	31
1931.36	26
1932.35	24
1933.34	30
1934.33	33
1935.32	29
1936.31	27
1937.3	24
1938.29	22
1939.28	26
1940.27	29
1941.26	24
1942.24	25
1943.23	29
1944.22	30
1945.21	28
1946.2	28
1947.19	26
1948.17	28
1949.16	24
1950.15	26.5
1951.14	28
1952.12	26
1953.11	31
1954.1	29
1955.09	28
1956.07	32
1957.06	32
1958.05	28
1959.03	29
1960.02	30
1961	30
1961.99	26
1962.98	27
1963.96	24
1964.95	32
1965.93	28
1966.92	32
1967.9	26
1968.89	27
1969.87	18
1970.85	31
1971.84	26
1972.82	29
1973.81	24
1974.79	26
1975.78	28
1976.76	31
1977.74	30
1978.73	28
1979.71	30
1980.69	33
1981.67	28
1982.66	29
1983.64	31
1984.62	30
1985.6	32
1986.59	29
1987.57	27
1988.55	28
1989.53	30
1990.51	24
1991.49	30
1992.47	26
1993.45	26
1994.44	29
1995.42	31
1996.4	30
1997.38	26
1998.36	30
1999.34	24
2000.32	27
2001.3	29
2002.28	28
2003.26	30
2004.24	24
2005.22	30
2006.19	28
2007.17	20
2008.15	29
2009.13	26
2010.11	31
2011.09	26
2012.06	28
2013.04	34
2014.02	32
2015	33
2015.98	28
2016.95	31
2017.93	22
2018.91	31
2019.88	24
2020.86	24
2021.84	30
2022.81	26
2023.79	26
2024.77	28
2025.74	27
2026.72	26
2027.69	30
2028.67	28
2029.65	31
2030.62	26
2031.6	30
2032.57	32
2033.55	27
2034.52	30
2035.5	23
2036.47	28
2037.44	24
2038.42	24
2039.39	29
2040.36	28
2041.34	26
2042.31	28
2043.29	23
2044.26	25
2045.23	28
2046.2	32
2047.18	26
2048.15	29
2049.12	30
2050.09	29
2051.07	30
2052.04	30
2053.01	26
2053.98	27
2054.95	28
2055.93	28
2056.9	26
2057.87	27
2058.84	29
2059.81	28
2060.78	29
2061.75	27
2062.72	23
2063.69	31
2064.66	32
2065.63	28
2066.6	28
2067.57	28
2068.54	28
2069.51	28
2070.48	24
2071.45	24
2072.42	28
2073.38	30
2074.35	31
2075.32	30
2076.29	33
2077.26	26
2078.23	26
2079.19	28
2080.16	26
2081.13	26
2082.1	27
2083.06	33
2084.03	30
2085	26
2085.96	30
2086.93	28
2087.9	30
2088.86	26
2089.83	26
2090.8	26
2091.76	31
2092.73	27
2093.69	30
2094.66	29
2095.62	28
2096.59	26
2097.55	26
2098.52	27
2099.48	24
2100.45	27
2101.41	26
2102.38	33
2103.34	27
2104.31	24
2105.27	32
2106.23	23
2107.2	25
2108.16	27
2109.12	24
2110.09	24
2111.05	32
2112.01	26
2112.98	24
2113.94	27
2114.9	30
2115.86	23
2116.82	31
2117.79	27
2118.75	32
2119.71	22
2120.67	27
2121.63	34
2122.59	28
2123.55	26
2124.52	29
2125.48	26
2126.44	26
2127.4	24
2128.36	30
2129.32	23
2130.28	29
2131.24	32
2132.2	29
2133.16	28
2134.12	29
2135.08	29
2136.04	29
2136.99	24
2137.95	27
2138.91	30
2139.87	26
2140.83	26
2141.79	28
2142.75	28
2143.7	24
2144.66	28
2145.62	22.0084
2146.58	25.9332
2147.53	26.9776
2148.49	23.1401
2149.45	25.1391
2150.41	30.9461
2151.36	28.1021
2152.32	26.7927
2153.27	24.2268
2154.23	22.9166
2155.19	31.167
2156.14	25.563
2157.1	25.8775
2158.06	28.491
2159.01	25.7034
2159.97	30.5409
2160.92	27.8407
2161.88	27.9927
2162.83	24.0043
2163.79	24.7647
2164.74	29.7981
2165.7	26.6324
2166.65	25.7919
2167.61	25.8619
2168.56	22.9369
2169.51	26.2648
2170.47	25.0036
2171.42	31.9567
2172.38	29.8652
2173.33	24.5497
2174.28	27.5492
2175.24	24.6735
2176.19	27.2771
2177.14	29.9541
2178.09	24.7773
2179.05	25.348
2180	26
2180.95	24.0669
2181.9	29.1004
2182.86	29.1416
2183.81	25.7849
2184.76	26.445
2185.71	26.4566
2186.66	28.5955
2187.61	26.3839
2188.57	28.9779
2189.52	29.4559
2190.47	22.6591
2191.42	28.6021
2192.37	25.0588
2193.32	25.3883
2194.27	26.2456
2195.22	27.9412
2196.17	26.869
2197.12	25.724
2198.07	30.0374
2199.02	26.1882
2199.97	29.4737
2200.92	25.1525
2201.87	25.1598
2202.82	29.6921
2203.76	25.8481
2204.71	26.7745
2205.66	26.2117
2206.61	26.4091
2207.56	24.5416
2208.51	25.2775
2209.45	28.8231
2210.4	27.486
2211.35	26
2212.3	27.7393
2213.24	26.4443
2214.19	24.962
2215.14	24.8382
2216.09	24.8088
2217.03	28.7239
2217.98	25.0873
2218.93	24.7206
2219.87	26.9217
2220.82	28.9781
2221.77	28.9458
2222.71	29.897
2223.66	23.1771
2224.6	26.0494
2225.55	25.0343
2226.49	28.1179
2227.44	28.4502
2228.38	27.2936
2229.33	27.2848
2230.27	21.9439
2231.22	22.7424
2232.16	23.2801
2233.11	23.7888
2234.05	26.7781
2235	26.7127
2235.94	27.2723
2236.88	28.9308
2237.83	28.6765
2238.77	27.9314
2239.71	25.6269
2240.66	28.0027
2241.6	28.0781
2242	26
2242.95	25
2243.9	25
2244.84	26
2245.79	20
2246.74	29
2247.69	25
2248.63	29
2249.58	26
2250.53	27
2251.47	26
2252.42	29
2253.37	25
2254.31	26
2255.26	16
2256.2	28
2257.15	31
2258.1	24
2259.04	28
2259.99	24
2260.93	26
2261.88	22
2262.82	20
2263.77	29
2264.71	27
2265.65	27
2266.6	26
2267.54	26
2268.49	24
2269.43	24
2270.38	28
2271.32	26
2272.26	32
2273.21	27
2274.15	30
2275.09	26
2276.04	22
2276.98	25
2277.92	32
2278.86	28
2279.81	27
2280.75	24
2281.69	26
2282.63	27
2283.57	27
2284.52	24
2285.46	28
2286.4	23
2287.34	26
2288.28	24
2289.22	22
2290.16	29
2291.1	29
2292.04	27
2292.98	30
2293.93	26
2294.86	29
2295.8	26
2296.74	26
2297.69	28
2298.62	28
2299.56	27
2300.5	26
2301.44	29
2302.38	29
2303.32	26
2304.26	24
2305.2	22
2306.14	24
2307.07	22
2308.01	28
2308.95	24
2309.89	26
2310.83	28
2311.76	26
2312.7	22
2313.64	24
2314.58	26
2315.51	26
2316.45	26
2317.39	26
2318.32	29
2319.26	27
2320.2	29
2321.13	30
2322.07	27
2323	30
2323.94	29
2324.88	26
2325.81	28
2326.75	28
2327.68	24
2328.62	28
2329.55	25
2330.49	22
2331.42	28
2332.36	26
2333.29	24
2334.22	30
2335.16	32
2336.09	24
2337.03	25
2337.96	18
2338.89	25
2339.83	24
2340.76	31
2341.69	24
2342.63	26
2343.56	28
2344.49	30
2345.43	26
2346.36	28
2347.29	26
2348.22	29
2349.15	24
2350.09	24
2351.02	26
2351.95	26
2352.88	30
2353.81	26
2354.74	22
2355.67	24
2356.61	26
2357.54	30
2358.47	24
2359.4	28
2360.33	33
2361.26	26
2362.19	22
2363.12	26
2364.05	23
2364.98	28
2365.91	24
2366.84	33
2367.77	28
2368.7	24
2369.62	30
2370.55	31
2371.48	30
2372.41	32
2373.34	29
2374.27	26
2375.2	28
2376.12	26
2377.05	24
2377.98	28
2378.91	28
2379.83	24
2380.76	22
2381.69	26
2382.62	27
2383.54	25
2384.47	26
2385.4	28
2386.32	30
2387.25	28
2388.18	33
2389.1	22
2390.03	28
2390.95	28
2391.88	28
2392.81	27
2393.73	26
2394.66	29
2395.58	26
2396.51	28
2397.43	32
2398.36	24
2399.28	32
2400.2	26
2401.13	26
2402.05	28
2402.98	27
2403.9	25
2404.83	28
2405.75	20
2406.67	26
2407.6	26
2408.52	30
2409.44	28
2410.37	25
2411.29	23
2412.21	26
2413.13	27
2414.06	28
2414.98	28
2415.9	20
2416.82	24
2417.74	25
2418.67	22
2419.59	24
2420.51	22
2421.43	28
2422.35	23
2423.27	24
2424.19	29
2425.11	32
2426.03	24
2426.96	25
2427.88	29
2428.8	26
2429.72	23
2430.64	26
2431.56	25
2432.48	26
2433.39	30
2434.31	30
2435.23	30
2436.15	26
2437.07	30
2437.99	29
2438.91	25
2439.83	26
2440.75	28
2441.67	23
2442.58	32
2443.5	30
2444.42	20
2445.34	27
2446.26	28
2447.17	27
2448.09	28
2449.01	26
2449.92	26
2450.84	25
2451.76	26
2452.68	28
2453.59	26
2454.51	30
2455.42	28
2456.34	26
2457.26	24
2458.17	24
2459.09	26
2460	28
2460.92	26
2461.83	28
2462.75	25
2463.66	26
2464.58	26
2465.49	25
2466.41	27
2467.32	30
2468.24	24
2469.15	26
2470.07	25
2470.98	32
2471.89	28
2472.81	28
2473.72	28
2474.64	28
2475.55	23
2476.46	24
2477.37	26
2478.29	31
2479.2	27
2480.11	30
2481.03	26
2481.94	30
2482.85	28
2483.76	24
2484.67	28
2485.59	27
2486.5	26
2487.41	28
2488.32	24
2489.23	22
2490.14	30
2491.05	30
2491.97	29
2492.88	28
2493.79	26
2494.7	30
2495.61	30
2496.52	27
2497.43	28
2498.34	26
2499.25	26
2500.16	29
2501.07	27
2501.98	27
2502.89	23
2503.79	26
2504.7	28
2505.61	28
2506.52	25
2507.43	20
2508.34	26
2509.25	30
2510.16	27
2511.06	26
2511.97	22
2512.88	30
2513.79	28
2514.69	34
2515.6	29
2516.51	28
2517.42	28
2518.32	30
2519.23	28
2520.14	26
2521.04	25
2521.95	32
2522.86	30
2523.76	24
2524.67	22
2525.57	29
2526.48	28
2527.39	30
2528.29	29
2529.2	28
2530.1	22
2531.01	25
2531.91	26
2532.82	33
2533.72	25
2534.63	28
2535.53	30
2536.44	25
2537.34	29
2538.24	27
2539.15	29
2540.05	26
2540.96	34
2541.86	29
2542.76	29
2543.67	28
2544.57	27
2545.47	25
2546.37	27
2547.28	25
2548.18	28
2549.08	30
2549.99	22
2550.89	27
2551.79	28
2552.69	30
2553.59	26
2554.49	28
2555.4	20
2556.3	29
2557.2	26
2558.1	24
2559	27
2559.9	30
2560.8	29
2561.7	28
2562.6	30
2563.5	25
2564.4	26
2565.3	32
2566.2	24
2567.1	27
2568	29
2568.9	28
2569.8	24
2570.7	25
2571.6	30
2572.5	30
2573.4	26
2574.3	28
2575.2	20
2576.1	28
2576.99	24
2577.89	27
2578.79	30
2579.69	32
2580.59	29
2581.48	26
2582.38	30
2583.28	25
2584.18	25
2585.07	26
2585.97	32
2586.87	24
2587.76	30
2588.66	30
2589.56	30
2590.45	28
2591.35	29
2592.25	28
2593.14	26
2594.04	28
2594.93	26
2595.83	26
2596.73	28
2597.62	29
2598.52	30
2599.41	27
2600.31	24
2601.2	26
2602.1	29
2602.99	24
2603.88	26
2604.78	28
2605.67	29
2606.57	28
2607.46	32
2608.35	30
2609.25	29
2610.14	32
2611.03	31
2611.93	25
2612.82	22
2613.71	26
2614.61	33
2615.5	29
2616.39	30
2617.29	24
2618.18	31
2619.07	28
2619.96	28
2620.85	24
2621.75	22
2622.64	28
2623.53	29
2624.42	27
2625.31	26
2626.2	23
2627.09	29
2627.98	29
2628.88	29
2629.77	24
2630.66	28
2631.55	27
2632.44	27
2633.33	26
2634.22	22
2635.11	28
2636	27
2636.89	26
2637.78	30
2638.66	28
2639.55	30
2640.44	29
2641.33	32
2642.22	25
2643.11	28
2644	30
2644.89	26
2645.78	26
2646.66	26
2647.55	29
2648.44	28
2649.33	28
2650.21	23
2651.1	28
2651.99	27
2652.88	23
2653.76	30
2654.65	29
2655.54	32
2656.42	32
2657.31	24
2658.2	28
2659.08	28
2659.97	28
2660.86	29
2661.74	28
2662.63	27
2663.51	24
2664.4	28
2665.29	26
2666.17	24
2667.06	26
2667.94	26
2668.83	26
2669.71	28
2670.6	29
2671.48	26
2672.36	28
2673.25	29
2674.13	30
2675.02	27
2675.9	24
2676.78	25
2677.67	26
2678.55	30
2679.43	22
2680.32	30
2681.2	25
2682.08	30
2682.97	27
2683.85	28
2684.73	26
2685.61	28
2686.5	30
2687.38	22
2688.26	30
2689.14	26
2690.03	30
2690.91	27
2691.79	26
2692.67	25
2693.55	26
2694.43	26
2695.31	28
2696.19	28
2697.08	32
2697.96	22
2698.84	28
2699.72	24
2700.6	28
2701.48	26
2702.36	28
2703.24	32
2704.12	26
2705	24
2705.88	26
2706.76	27
2707.64	22
2708.51	29
2709.39	32
2710.27	33
2711.15	30
2712.03	26
2712.91	28
2713.79	33
2714.67	27
2715.54	30
2716.42	31
2717.3	28
2718.18	28
2719.05	34
2719.93	28
2720.81	28
2721.69	29
2722.56	24
2723.44	24
2724.32	24
2725.19	26
2726.07	28
2726.95	25
2727.82	28
2728.7	28
2729.58	30
2730.45	24
2731.33	27
2732.2	28
2733.08	30
2733.95	23
2734.83	24
2735.7	29
2736.58	26
2737.45	27
2738.33	25
2739.2	27
2740.08	25
2740.95	33
2741.83	29
2742.7	26
2743.58	24
2744.45	26
2745.32	28
2746.2	22
2747.07	24
2747.94	32
2748.82	30
2749.69	30
2750.56	29
2751.44	29
2752.31	26
2753.18	28
2754.05	24
2754.93	18
2755.8	26
2756.67	22
2757.54	27
2758.42	24
2759.29	29
2760.16	24
2761.03	26
2761.9	20
2762.77	28
2763.64	27
2764.51	24
2765.38	23
2766.26	24
2767.13	20
2768	32
2768.87	26
2769.74	23
2770.61	31
2771.48	22
2772.35	30
2773.22	29
2774.09	27
2774.96	28
2775.83	26
2776.7	26
2777.56	29
2778.43	26
2779.3	32
2780.17	25
2781.04	29
2781.91	24
2782.78	26
2783.64	26
2784.51	26
2785.38	27
2786.25	29
2787.12	29
2787.98	30
2788.85	27
2789.72	30
2790.59	28
2791.45	28
2792.32	30
2793.19	29
2794.05	27
2794.92	25
2795.79	28
2796.65	30
2797.52	24
2798.38	31
2799.25	22
2800.12	26
2800.98	28
2801.85	26
2802.71	28
2803.58	27.5
2804.44	24
2805.31	29
2806.17	24
2807.04	28
2807.9	28
2808.77	30
2809.63	22
2810.5	30
2811.36	32
2812.22	26
2813.09	24
2813.95	24
2814.82	27
2815.68	29
2816.54	29
2817.41	31
2818.27	25
2819.13	28
2820	34
2820.86	28
2821.72	32
2822.58	30
2823.45	31
2824.31	27
2825.17	28
2826.03	24
2826.9	29
2827.76	27
2828.62	30
2829.48	26
2830.34	28
2831.2	29
2832.06	30
2832.92	26
2833.79	24
2834.65	28
2835.51	31
2836.37	28
2837.23	28
2838.09	27
2838.95	29
2839.81	26
2840.67	21
2841.53	22
2842.39	31
2843.25	32
2844.11	27
2844.97	29
2845.83	28
2846.68	27
2847.54	26
2848.4	24
2849.26	26
2850.12	26
2850.98	31
2851.84	32
2852.69	30
2853.55	24
2854.41	26
2855.27	29
2856.13	31
2856.98	25
2857.84	24
2858.7	28
2859.56	24
2860.41	29
2861.27	26
2862.13	30
2862.98	25
2863.84	29
2864.7	28
2865.55	28
2866.41	27
2867.27	27
2868.12	28
2868.98	33
2869.83	32
2870.69	32
2871.54	30
2872.4	31
2873.25	28
2874.11	28
2874.96	26
2875.82	30
2876.68	24
2877.53	33
2878.38	32
2879.24	27
2880.09	34
2880.95	30
2881.8	30
2882.65	34
2883.51	29
2884.36	33
2885.22	33
2886.07	34
2886.92	36
2887.77	33
2888.63	32
2889.48	30
2890.33	28
2891.19	34
2892.04	36
2892.89	33
2893.74	36
2894.6	34
2895.45	37
2896.3	40
2897.15	40
2898	44
2898.85	44
2899.71	42
2900.56	51
2901.41	42
2902.26	45
2903.11	51
2903.96	55
2904.81	50
2905.66	51
2906.51	51
2907.36	54
2908.21	49
2909.06	51
2909.91	54
2910.76	48
2911.61	52
2912.46	47
2913.31	47
2914.16	47
2915.01	40
2915.86	32
2916.71	36
2917.56	42
2918.41	36
2919.26	34
2920.1	36
2920.95	36
2921.8	33
2922.65	33
2923.5	34
2924.34	26
2925.19	34
2926.04	26
2926.89	30
2927.74	32
2928.58	27
2929.43	34
2930.28	31
2931.12	31
2931.97	31
2932.82	28
2933.66	28
2934.51	30
2935.36	31
2936.2	33
2937.05	26
2937.89	33
2938.74	26
2939.59	22
2940.43	28
2941.28	28
2942.12	28
2942.97	29
2943.81	26
2944.66	30
2945.5	33
2946.35	28
2947.19	30
2948.04	28
2948.88	31
2949.72	28
2950.57	33
2951.41	32
2952.26	32
2953.1	26
2953.94	31
2954.79	30
2955.63	34
2956.47	30
2957.32	36
2958.16	36
2959	26
2959.85	31
2960.69	36
2961.53	34
2962.37	36
2963.22	42
2964.06	45
2964.9	38
2965.74	34
2966.58	30
2967.42	39
2968.27	37
2969.11	34
2969.95	38
2970.79	37
2971.63	34
2972.47	36
2973.31	33
2974.15	36
2974.99	32
2975.83	33
2976.68	31
2977.52	30
2978.36	34
2979.2	26
2980.04	33
2980.88	31
2981.71	27
2982.55	26
2983.39	30
2984.23	24
2985.07	29
2985.91	30
2986.75	28
2987.59	24
2988.43	22
2989.27	22
2990.1	29
2990.94	24
2991.78	32
2992.62	30
2993.46	29
2994.3	22
2995.13	26
2995.97	28
2996.81	32
2997.64	26
2998.48	29
2999.32	27
