#Acq. time (s)=	3
#Accumulations=	3
#Range (cm-¹)=	100...3000
#Windows=	3
#Autofocus=	Off
#AutoExposure=	Off
#Spike filter=	Multiple accum.
#Delay time (s)=	0
#Binning=	1
#Readout mode=	Signal
#DeNoise=	Off
#ICS correction=	Off
#Dark correction=	Off
#Inst. Process=	Off
#Instrument=	LabRAM HR Evol
#Detector=	Syncerity OE
#Objective=	x100_VIS_LWD
#Grating=	600 (500nm)
#ND Filter=	25%
#Laser=	633nm_Edge
#Hole=	100.021
#Range=	Visible
#Project=	Bolus
#Sample=	B1
#Site=	stripside
#Title=	m05
#Remark=	
#Date=	03.11.2025 16:54
#Acquired=	03.11.2025 16:54:24
100.969	26
102.252	36
103.535	35
104.818	35
106.101	31
107.384	26
108.666	29
109.948	26
111.232	31
112.514	34
113.795	34
115.077	29
116.358	32
117.639	32
118.919	28
120.2	27
121.48	29
122.76	30
124.04	28
125.32	31
126.599	30
127.879	30
129.158	29
130.436	30
131.715	26
132.992	28
134.27	33
135.548	30
136.826	29
138.104	32
139.381	34
140.658	32
141.935	26
143.212	32
144.489	36
145.763	32
147.04	39
148.315	34
149.591	35
150.867	36
152.142	37
153.416	31
154.691	30
155.965	36
157.24	36
158.514	30
159.786	38
161.06	28
162.334	36
163.607	32
164.881	34
166.152	34
167.425	32
168.698	34
169.969	34
171.241	39
172.513	36
173.785	34
175.055	34
176.326	28
177.597	28
178.867	38
180.137	33
181.408	38
182.677	32
183.947	35
185.217	36
186.485	33
187.755	34
189.022	35
190.291	39
191.56	36
192.828	36
194.096	31
195.363	32
196.631	32
197.899	36
199.165	36
200.432	32
201.698	37
202.965	32
204.23	34
205.497	35
206.762	30
208.028	34
209.293	34
210.559	35
211.823	31
213.088	34
214.352	24
215.617	34
216.88	28
218.145	26
219.408	32
220.672	30
221.934	32
223.196	32
224.46	30
225.722	34
226.985	28
228.246	30
229.508	32
230.77	30
232.031	31
233.292	28
234.554	37
235.814	30
237.074	30
238.335	34
239.595	32
240.854	32
242.115	30
243.374	31
244.633	32
245.893	26
247.151	32
248.409	22
249.667	32
250.927	26
252.184	29
253.442	30
254.699	27
255.957	22
257.214	28
258.47	30
259.727	28
260.983	31
262.24	32
263.496	28
264.752	29
266.007	32
267.262	32
268.517	27
269.773	29
271.028	29
272.282	34
273.536	32
274.79	22
276.044	27
277.297	20
278.551	27
279.804	26
281.057	30
282.31	30
283.564	33
284.816	32
286.068	28
287.32	26
288.572	31
289.823	30
291.074	24
292.325	30
293.576	34
294.827	26
296.077	29
297.328	30
298.578	31
299.828	24
301.077	31
302.325	30
303.575	36
304.824	30
306.073	34
307.321	26
308.57	30
309.818	29
311.066	26
312.314	24
313.562	28
314.808	24
316.055	29
317.302	30
318.549	33
319.796	31
321.042	34
322.288	28
323.533	29
324.779	30
326.024	26
327.27	28
328.515	26
329.759	28
331.004	34
332.248	31
333.493	33
334.736	32
335.98	28
337.223	26
338.466	33
339.709	34
340.952	25
342.195	35
343.437	27
344.68	33
345.922	32
347.163	33
348.405	32
349.647	30
350.887	28
352.128	32
353.37	27
354.609	32
355.85	35
357.089	29
358.33	31
359.57	34
360.809	27
362.049	30
363.287	28
364.526	30
365.764	24
367.003	26
368.241	30
369.479	26
370.718	34
371.955	31
373.193	28
374.429	33
375.667	28
376.903	24
378.139	32
379.376	33
380.611	33
381.848	28
383.083	33
384.319	28
385.554	30
386.79	30
388.024	26
389.258	24
390.493	27
391.727	32
392.962	29
394.195	31
395.428	26
396.663	28
397.895	34
399.128	27
400.361	32
401.593	32
402.825	30
404.058	27
405.29	28
406.521	27
407.752	30
408.985	30
410.215	30
411.446	31
412.678	26
413.908	30
415.138	28
416.367	34
417.597	22
418.828	31
420.057	31
421.286	36
422.514	34
423.743	26
424.973	34
426.201	28
427.429	26
428.657	27
429.884	32
431.112	28
432.34	38
433.567	31
434.794	28
436.02	32
437.247	28
438.473	32
439.699	33
440.925	26
442.15	34
443.376	34
444.601	34
445.826	35
447.051	31
448.275	27
449.5	32
450.724	26
451.948	32
453.172	32
454.396	31
455.619	27
456.842	30
458.065	27
459.288	32
460.511	28
461.733	29
462.956	32
464.178	33
465.4	29
466.621	34
467.843	30
469.064	33
470.285	32
471.505	39
472.726	32
473.946	30
475.166	36
476.387	35
477.606	36
478.825	35
480.044	32
481.264	30
482.483	35
483.702	38
484.921	42
486.138	44
487.356	46
488.574	38
489.792	49
491.009	53
492.226	41
493.444	42
494.661	45
495.877	42
497.094	43
498.31	36
499.525	40
500.741	39
501.958	41
503.172	36
504.388	37
505.603	32
506.817	34
508.032	39
509.247	36
510.46	30
511.675	31
512.888	37
514.102	32
515.316	31
516.528	29
517.742	34
518.954	32
520.167	34
521.378	30
522.591	37
523.802	28
525.015	37
526.226	30
527.438	32
528.648	28
529.86	28
531.07	32
532.281	35
533.491	26
534.702	32
535.911	28
537.121	24
538.33	30
539.54	30
540.749	32
541.957	31
543.167	36
544.375	26
545.584	28
546.791	26
547.999	31
549.207	31
550.414	26
551.621	27
552.829	30
554.035	32
555.241	31
556.449	32
557.655	31
558.86	30
560.066	30
561.272	29
562.477	31
563.682	26
564.888	31
566.093	32
567.297	32
568.501	26
569.705	30
570.91	33
572.114	32
573.317	32
574.52	33
575.723	34
576.927	35
578.13	30
579.332	28
580.535	29
581.737	28
582.938	30
584.14	32
585.343	28
586.544	34
587.745	30
588.946	31
590.147	31
591.347	28
592.548	36
593.748	28
594.948	29
596.147	30
597.347	30
598.546	32
599.745	31
600.944	30
602.143	31
603.342	28
604.54	28
605.738	24
606.937	34
608.134	27
609.332	33
610.529	26
611.727	30
612.924	29
614.121	30
615.317	34
616.513	26
617.709	26
618.905	30
620.101	32
621.297	30
622.492	34
623.688	26
624.883	31
626.077	32
627.271	33
628.466	34
629.66	34
630.855	26
632.047	32
633.241	26
634.435	34
635.629	31
636.82	32
638.014	34
639.207	32
640.399	32
641.59	33
642.783	32
643.975	27
645.166	32
646.357	26
647.549	32
648.741	34
649.93	30
651.122	32
652.311	28
653.502	30
654.692	28
655.881	29
657.071	34
658.261	34
659.45	29
660.639	34
661.827	29
663.016	30
664.204	30
665.393	32
666.581	31
667.769	31
668.957	31
670.143	28
671.331	28
672.518	24
673.705	30
674.891	32
676.078	30
677.264	37
678.451	30
679.636	28
680.821	30
682.007	34
683.192	40
684.378	35
685.562	36
686.747	30
687.931	30
689.115	32
690.3	32
691.483	26
692.666	30
693.851	33
695.034	32
696.216	36
697.4	40
698.582	36
699.764	32
700.948	36
702.129	36
703.311	37
704.493	24
705.674	40
706.855	38
708.036	40
709.218	42
710.399	39
711.579	41
712.759	41
713.939	36
715.12	36
716.299	32
717.478	32
718.657	35
719.836	30
721.015	28
722.195	31
723.373	34
724.552	35
725.729	30
726.907	32
728.085	30
729.262	33
730.44	30
731.617	26
732.795	22
733.972	29
735.148	29
736.324	32
737.501	36
738.677	30
739.852	32
741.028	33
742.203	30
743.379	31
744.554	30
745.729	34
746.903	29
748.078	31
749.252	26
750.426	28
751.599	26
752.772	32
753.946	33
755.119	26
756.293	26
757.466	33
758.639	30
759.811	32
760.984	30
762.155	32
763.327	31
764.499	38
765.67	30
766.842	32
768.013	24
769.183	28
770.354	33
771.525	26
772.696	33
773.865	32
775.035	30
776.205	36
777.375	29
778.544	34
779.713	33
780.882	35
782.052	36
783.219	31
784.388	31
785.557	30
786.724	26
787.892	28
789.06	35
790.227	33
791.395	30
792.562	28
793.728	32
794.895	33
796.061	32
797.228	26
798.395	34
799.56	30
800.726	32
801.891	28
803.057	33
804.221	28
805.387	36
806.551	37
807.716	28
808.879	33
810.044	34
811.208	33
812.372	36
813.535	30
814.699	26
815.862	28
817.025	33
818.188	29
819.351	33
820.513	24
821.675	30
822.837	32
823.999	30
825.161	28
826.322	26
827.483	28
828.645	33
829.805	22
830.966	26
832.127	24
833.287	35
834.447	26
835.607	32
836.767	33
837.926	33
839.085	35
840.245	28
841.404	24
842.562	33
843.72	32
844.88	32
846.038	24
847.195	28
848.353	26
849.512	34
850.669	34
851.826	30
852.983	32
854.139	24
855.296	33
856.453	27
857.609	32
858.765	36
859.921	34
861.077	26
862.232	30
863.387	35
864.542	31
865.697	27
866.852	34
868.008	27
869.162	30
870.316	30
871.47	31
872.624	26
873.778	24
874.931	30
876.084	34
877.237	26
878.39	32
879.543	30
880.695	31
881.846	30
882.999	32
884.151	26
885.302	31
886.454	24
887.606	24
888.757	36
889.908	34
891.059	33
892.21	31
893.359	34
894.509	29
895.659	31
896.81	26
897.959	27
899.109	28
900.257	31
901.407	24
902.556	26
903.705	35
904.854	34
906.001	28
907.149	30
908.298	31
909.446	32
910.592	28
911.74	29
912.888	28
914.034	30
915.181	34
916.328	29
917.473	29
918.62	26
919.766	33
920.911	31
922.058	30
923.204	34
924.348	30
925.494	30
926.638	31
927.783	30
928.928	29
930.072	26
931.216	34
932.36	28
933.504	26
934.647	25
935.791	32
936.933	28
938.077	28
939.219	28
940.363	28
941.504	28
942.647	26
943.789	29
944.932	29
946.073	30
947.215	33
948.356	27
949.498	30
950.638	29
951.778	30
952.92	30
954.06	23
955.199	29
956.34	24
957.479	28
958.62	30
959.759	29
960.898	26
962.038	30
963.176	31
964.315	29
965.453	27
966.592	28
967.73	26
968.867	20
970.006	30
971.144	30
972.281	29
973.418	29
974.554	27
975.692	30
976.829	27
977.965	26
979.101	31
980.237	28
981.374	29
982.509	32
983.645	32
984.78	24
985.915	29
987.05	32
988.184	29
989.319	31
990.453	32
991.589	26
992.722	27
993.856	30
994.99	31
996.123	24
997.257	29
998.39	30
999.523	33
1000.66	26
1001.79	30
1002.92	26
1004.05	28
1005.18	35
1006.32	33
1007.45	29
1008.58	32
1009.71	37
1010.84	26
1011.97	24
1013.1	26
1014.23	22
1015.36	31
1016.49	29
1017.62	26
1018.75	31
1019.88	30
1021.01	30
1022.14	22
1023.27	30
1024.4	32
1025.53	32
1026.66	26
1027.79	28
1028.91	30
1030.04	32
1031.17	30
1032.3	33
1033.42	29
1034.55	32
1035.68	25
1036.81	33
1037.93	32
1039.06	29
1040.18	27
1041.31	28
1042.44	26
1043.56	26
1044.69	30
1045.81	28
1046.94	26
1048.06	28
1049.19	30
1050.31	28
1051.44	28
1052.56	29
1053.69	29
1054.81	27
1055.93	22
1057.06	32
1058.18	30
1059.3	32
1060.43	34
1061.55	32
1062.67	30
1063.79	30
1064.92	32
1066.04	28
1067.16	29
1068.28	24
1069.4	32
1070.52	26
1071.65	24
1072.77	25
1073.89	28
1075.01	24
1076.13	28
1077.25	27
1078.37	26
1079.49	30
1080.61	26
1081.73	25
1082.85	22
1083.97	26
1085.09	26
1086.2	25
1087.32	27
1088.44	29
1089.56	26
1090.68	32
1091.8	26
1092.91	32
1094.03	27
1095.15	32
1096.26	30
1097.38	22
1098.5	32
1099.61	28
1100.73	29
1101.85	29
1102.96	31
1104.08	26
1105.19	30
1106.31	29
1107.43	24
1108.54	30
1109.66	29
1110.77	32
1111.88	26
1113	31
1114.11	24
1115.23	26
1116.34	26
1117.46	27
1118.57	25
1119.68	26
1120.8	27
1121.91	30
1123.02	28
1124.13	27
1125.25	25
1126.36	28
1127.47	24
1128.58	32
1129.69	26
1130.8	31
1131.92	30
1133.03	28
1134.14	28
1135.25	22
1136.36	30
1137.47	25
1138.58	31
1139.69	25
1140.8	26
1141.91	29
1143.02	35
1144.13	26
1145.24	26
1146.35	32
1147.46	20
1148.56	22
1149.67	24
1150.78	26
1151.89	28
1153	28
1154.1	27
1155.21	24
1156.32	27
1157.43	32
1158.53	28
1159.64	26
1160.75	32
1161.85	25
1162.96	27
1164.07	28
1165.17	30
1166.28	24
1167.38	29
1168.49	30
1169.59	30
1170.7	29
1171.8	30
1172.91	30
1174.01	25
1175.12	31
1176.22	24
1177.32	24
1178.43	20
1179.53	29
1180.64	22
1181.74	28
1182.84	28
1183.94	26
1185.05	25
1186.15	28
1187.25	24
1188.35	28
1189.46	28
1190.56	24
1191.66	26
1192.76	30
1193.86	28
1194.96	27
1196.06	29.9755
1197.16	23.9732
1198.26	28.8891
1199.37	30.9923
1200.47	24.2757
1201.57	28.0588
1202.67	25.1807
1203.77	29.8635
1204.86	27.0729
1205.96	24.4317
1207.06	29.8344
1208.16	22.2178
1209.26	30.3988
1210.36	30.4645
1211.46	27.7174
1212.56	27.8486
1213.65	26.0797
1214.75	26.1716
1215.85	31.2687
1216.95	24.5893
1218.04	27.5876
1219.14	27
1220.24	29.0311
1221.33	26.3859
1222.43	25.3755
1223.53	28.3874
1224.62	28.2206
1225.72	26.9679
1226.82	29.1976
1227.91	27.4216
1229.01	30.7159
1230.1	28.227
1231.2	23.611
1232.29	28.1826
1233.39	30.1482
1234.48	27.666
1235.58	27.4944
1236.67	31.4232
1237.77	28.3675
1238.86	26.2694
1239.95	29.0123
1241.05	28.6618
1242.14	30.2892
1243.23	27.1471
1244.33	26.9712
1245.42	26.977
1246.51	23.9859
1247.61	27.673
1248.7	27.2165
1249.79	28.3235
1250.88	28.8639
1251.97	28.4469
1253.07	29.6638
1254.16	29.1532
1255.25	28.934
1256.34	30.5916
1257.43	28.4478
1258.52	27.0539
1259.61	29.6861
1260.7	26.75
1261.79	29.2949
1262.88	27.4588
1263.97	28.7275
1265.06	25.794
1266.15	24.2936
1267.24	28.5659
1268.33	30.348
1269.42	29.8247
1270.51	26.9172
1271.6	23.9968
1272.68	25.6154
1273.77	27.3839
1274.86	28.0757
1275.95	26.8317
1277.04	24.7687
1278.12	24.326
1279.21	27.9011
1280.3	27.4015
1281.39	24.9041
1282.47	26.9319
1283.56	25.7488
1284.65	29.5216
1285.73	26.8796
1286.82	30.2243
1287.91	23.972
1288.99	27.9282
1290.08	26.1767
1291.16	22.9524
1292.25	26.768
1293.33	28.7675
1294.42	25.2562
1295.5	27.0694
1296.59	25.19
1297.67	27.6174
1298.76	25.9154
1299.84	28.4558
1300.92	29.4287
1302.01	27.8131
1303.09	26.2665
1304.17	28.717
1305.26	26.3253
1306.34	29.6955
1307.34	26
1308.43	26
1309.52	29
1310.61	32
1311.7	28
1312.78	32
1313.87	29
1314.96	26
1316.04	29
1317.13	28
1318.22	25
1319.3	30
1320.39	29
1321.48	32
1322.56	30
1323.65	26
1324.73	29
1325.82	27
1326.9	26
1327.99	27
1329.07	16
1330.16	22
1331.24	26
1332.33	25
1333.41	31
1334.5	25
1335.58	29
1336.66	24
1337.75	28
1338.83	26
1339.91	30
1341	28
1342.08	26
1343.16	28
1344.24	26
1345.33	30
1346.41	24
1347.49	21
1348.57	26
1349.65	28
1350.74	26
1351.82	33
1352.9	26
1353.98	26
1355.06	32
1356.14	26
1357.22	29
1358.3	24
1359.38	24
1360.46	31
1361.54	27
1362.62	28
1363.7	27
1364.78	26
1365.86	24
1366.94	23
1368.02	22
1369.09	27
1370.17	27
1371.25	29
1372.33	30
1373.41	26
1374.48	30
1375.56	30
1376.64	26
1377.72	31
1378.79	31
1379.87	31
1380.95	29
1382.02	20
1383.1	25
1384.17	28
1385.25	28
1386.33	30
1387.4	29
1388.48	24
1389.55	30
1390.63	23
1391.7	26
1392.78	33
1393.85	27
1394.93	28
1396	26
1397.07	32
1398.15	28
1399.22	29
1400.3	31
1401.37	27
1402.44	26
1403.52	29
1404.59	32
1405.66	32
1406.73	33
1407.81	33
1408.88	29
1409.95	26
1411.02	30
1412.09	26
1413.17	28
1414.24	26
1415.31	29
1416.38	36
1417.45	28
1418.52	35
1419.59	25
1420.66	26
1421.73	30
1422.8	29
1423.87	26
1424.94	31
1426.01	27
1427.08	28
1428.15	22
1429.22	26
1430.29	23
1431.35	29
1432.42	31
1433.49	28
1434.56	28
1435.63	29
1436.69	23
1437.76	24
1438.83	24
1439.9	26
1440.96	24
1442.03	30
1443.1	27
1444.17	29
1445.23	26
1446.3	30
1447.36	30
1448.43	28
1449.49	28
1450.56	31
1451.63	29
1452.69	27
1453.76	28
1454.82	27
1455.89	28
1456.95	26
1458.01	31
1459.08	26
1460.14	31
1461.21	30
1462.27	29
1463.34	29
1464.4	29
1465.46	26
1466.52	27
1467.59	29
1468.65	30
1469.71	27
1470.77	25
1471.84	27
1472.9	28
1473.96	25
1475.02	29
1476.08	29
1477.15	20
1478.21	26
1479.27	26
1480.33	24
1481.39	29
1482.45	28
1483.51	30
1484.57	26
1485.63	24
1486.69	32
1487.75	28
1488.81	30
1489.87	32
1490.93	32
1491.99	20
1493.05	32
1494.1	30
1495.16	29
1496.22	31
1497.28	32
1498.34	26
1499.4	30
1500.45	26
1501.51	29
1502.57	36
1503.63	28
1504.68	31
1505.74	32
1506.8	28
1507.85	32
1508.91	30
1509.97	20
1511.02	25
1512.08	32
1513.13	29
1514.19	29
1515.24	28
1516.3	30
1517.35	31
1518.41	27
1519.46	26
1520.52	22
1521.57	26
1522.63	29
1523.68	28
1524.73	29
1525.79	26
1526.84	30
1527.9	32
1528.95	27
1530	30
1531.05	28
1532.11	30
1533.16	26
1534.21	29
1535.26	30
1536.32	26
1537.37	25
1538.42	30
1539.47	30
1540.52	30
1541.57	26
1542.63	29
1543.68	30
1544.73	30
1545.78	28
1546.83	26
1547.88	32
1548.93	30
1549.98	28
1551.03	31
1552.08	26
1553.13	26
1554.18	26
1555.23	28
1556.27	30
1557.32	27
1558.37	33
1559.42	24
1560.47	24
1561.52	32
1562.56	31
1563.61	28
1564.66	27
1565.71	32
1566.75	37
1567.8	30
1568.85	24
1569.9	31
1570.94	30
1571.99	32
1573.03	33
1574.08	26
1575.13	26
1576.17	26
1577.22	26
1578.26	27
1579.31	28
1580.35	31
1581.4	28
1582.44	28
1583.49	29
1584.53	28
1585.58	29
1586.62	28
1587.66	29
1588.71	32
1589.75	26
1590.8	24
1591.84	33
1592.88	30
1593.92	28
1594.97	31
1596.01	28
1597.05	24
1598.1	30
1599.14	26
1600.18	28
1601.22	30
1602.26	30
1603.3	25
1604.35	29
1605.39	24
1606.43	22
1607.47	31
1608.51	31
1609.55	28
1610.59	24
1611.63	31
1612.67	29
1613.71	30
1614.75	29
1615.79	32
1616.83	24
1617.87	28
1618.91	30
1619.95	27
1620.99	28
1622.02	24
1623.06	28
1624.1	29
1625.14	28
1626.18	28
1627.21	24
1628.25	22
1629.29	30
1630.33	28
1631.36	24
1632.4	32
1633.44	31
1634.48	26
1635.51	31
1636.55	27
1637.58	24
1638.62	29
1639.66	32
1640.69	26
1641.73	22
1642.76	26
1643.8	32
1644.83	24
1645.87	27
1646.9	26
1647.94	25
1648.97	26
1650	34
1651.04	27
1652.07	28
1653.11	26
1654.14	26
1655.17	32
1656.21	25
1657.24	27
1658.27	27
1659.31	28
1660.34	26
1661.37	32
1662.4	27
1663.43	29
1664.47	26
1665.5	27
1666.53	30
1667.56	32
1668.59	30
1669.62	31
1670.66	26
1671.69	28
1672.72	30
1673.75	31
1674.78	28
1675.81	28
1676.84	30
1677.87	24
1678.9	28
1679.93	33
1680.96	26
1681.98	30
1683.01	28
1684.04	26
1685.07	28
1686.1	31
1687.13	20
1688.16	27
1689.18	22
1690.21	32
1691.24	26
1692.27	30
1693.3	26
1694.32	29
1695.35	24
1696.38	26
1697.4	22
1698.43	30
1699.46	28
1700.48	28
1701.51	28
1702.54	28
1703.56	24
1704.59	28
1705.61	30
1706.64	24
1707.66	30
1708.69	32
1709.71	29
1710.74	29
1711.76	27
1712.79	26
1713.81	29
1714.83	27
1715.86	26
1716.88	31
1717.91	28
1718.93	24
1719.95	32
1720.98	30
1722	29
1723.02	27
1724.04	27
1725.07	29
1726.09	24
1727.11	24
1728.13	28
1729.15	30
1730.18	29
1731.2	26
1732.22	28
1733.24	28
1734.26	30
1735.28	32
1736.3	19
1737.32	30
1738.34	20
1739.36	30
1740.38	29
1741.4	33
1742.42	31
1743.44	30
1744.46	32
1745.48	26
1746.5	25
1747.52	27
1748.54	24
1749.56	31
1750.58	29
1751.6	27
1752.61	24
1753.63	24
1754.65	29
1755.67	25
1756.68	31
1757.7	28
1758.72	31
1759.74	26
1760.75	28
1761.77	29
1762.79	33
1763.8	26
1764.82	29
1765.83	31
1766.85	26
1767.87	26
1768.88	25
1769.9	26
1770.91	32
1771.93	28
1772.94	30
1773.96	28
1774.97	26
1775.99	28
1777	28
1778.02	24
1779.03	30
1780.04	28
1781.06	26
1782.07	30
1783.09	31
1784.1	25
1785.11	24
1786.13	32
1787.14	25
1788.15	26
1789.16	31
1790.18	26
1791.19	29
1792.2	30
1793.21	26
1794.22	26
1795.23	31
1796.25	27
1797.26	30
1798.27	28
1799.28	28
1800.29	29
1801.3	26
1802.31	28
1803.32	28
1804.33	34
1805.34	24
1806.35	22
1807.36	28
1808.37	28
1809.38	27
1810.39	30
1811.4	26
1812.41	31
1813.42	20
1814.42	24
1815.43	26
1816.44	30
1817.45	34
1818.46	25
1819.47	25
1820.47	28
1821.48	26
1822.49	28
1823.49	30
1824.5	26
1825.51	26
1826.52	30
1827.52	31
1828.53	27
1829.53	24
1830.54	24
1831.55	25
1832.55	27
1833.56	32
1834.56	28
1835.57	25
1836.57	26
1837.58	27
1838.58	29
1839.59	28
1840.59	26
1841.6	29
1842.6	28
1843.61	26
1844.61	26
1845.61	27
1846.62	28
1847.62	29
1848.62	31
1849.63	26
1850.63	27
1851.63	25
1852.64	27
1853.64	26
1854.64	24
1855.64	28
1856.64	34
1857.65	31
1858.65	28
1859.65	22
1860.65	30
1861.65	28
1862.65	29
1863.65	24
1864.66	29
1865.66	28
1866.66	36
1867.66	28
1868.66	29
1869.66	24
1870.66	30
1871.66	30
1872.66	28
1873.66	26
1874.66	26
1875.65	28
1876.65	26
1877.65	28
1878.65	27
1879.65	29
1880.65	27
1881.65	28
1882.64	22
1883.64	26
1884.64	26
1885.64	30
1886.63	26
1887.63	32
1888.63	26
1889.63	28
1890.62	26
1891.62	29
1892.62	27
1893.61	28
1894.61	26
1895.6	30
1896.6	29
1897.6	29
1898.59	27
1899.59	29
1900.58	26
1901.58	28
1902.57	24
1903.57	23
1904.56	25
1905.56	26
1906.55	24
1907.54	26
1908.54	28
1909.53	25
1910.53	25
1911.52	26
1912.51	30
1913.51	28
1914.5	30
1915.49	29
1916.49	34
1917.48	24
1918.47	30
1919.46	29
1920.46	29
1921.45	29
1922.44	28
1923.43	28
1924.42	29
1925.41	28
1926.41	30
1927.4	22
1928.39	29
1929.38	25
1930.37	25
1931.36	22
1932.35	26
1933.34	28
1934.33	25
1935.32	28
1936.31	27
1937.3	26
1938.29	26
1939.28	29
1940.27	30
1941.26	22
1942.24	23
1943.23	32
1944.22	28
1945.21	28
1946.2	23
1947.19	27
1948.17	26
1949.16	24
1950.15	23
1951.14	20
1952.12	27
1953.11	32
1954.1	20
1955.09	22
1956.07	24
1957.06	29
1958.05	27
1959.03	28
1960.02	28
1961	26
1961.99	26
1962.98	27
1963.96	26
1964.95	25
1965.93	30
1966.92	20
1967.9	30
1968.89	20
1969.87	22
1970.85	27
1971.84	28
1972.82	32
1973.81	28
1974.79	23
1975.78	23
1976.76	26
1977.74	24
1978.73	29
1979.71	26
1980.69	29
1981.67	29
1982.66	27
1983.64	25
1984.62	24
1985.6	28
1986.59	29
1987.57	27
1988.55	28
1989.53	26
1990.51	26
1991.49	26
1992.47	26
1993.45	29
1994.44	28
1995.42	30
1996.4	21
1997.38	26
1998.36	24
1999.34	28
2000.32	27
2001.3	28
2002.28	29
2003.26	24
2004.24	24
2005.22	28
2006.19	30
2007.17	26
2008.15	26
2009.13	24
2010.11	26
2011.09	27
2012.06	28
2013.04	31
2014.02	27
2015	30
2015.98	26
2016.95	26
2017.93	27
2018.91	24
2019.88	29
2020.86	26
2021.84	27
2022.81	30
2023.79	27
2024.77	26
2025.74	30
2026.72	30
2027.69	24
2028.67	28
2029.65	28
2030.62	28
2031.6	33
2032.57	25
2033.55	24
2034.52	24
2035.5	30
2036.47	28
2037.44	28
2038.42	28
2039.39	28
2040.36	30
2041.34	29
2042.31	26
2043.29	28
2044.26	26
2045.23	27
2046.2	22
2047.18	28
2048.15	30
2049.12	29
2050.09	26
2051.07	24
2052.04	27
2053.01	28
2053.98	26
2054.95	30
2055.93	28
2056.9	27
2057.87	31
2058.84	27
2059.81	28
2060.78	28
2061.75	24
2062.72	25
2063.69	27
2064.66	22
2065.63	24
2066.6	22
2067.57	29
2068.54	26
2069.51	28
2070.48	26
2071.45	26
2072.42	24
2073.38	18
2074.35	30
2075.32	29
2076.29	32
2077.26	22
2078.23	26
2079.19	25
2080.16	24
2081.13	24
2082.1	26
2083.06	28
2084.03	22
2085	24
2085.96	30
2086.93	25
2087.9	26
2088.86	24
2089.83	24
2090.8	26
2091.76	23
2092.73	22
2093.69	28
2094.66	30
2095.62	29
2096.59	28
2097.55	26
2098.52	26
2099.48	24
2100.45	32
2101.41	24
2102.38	25
2103.34	29
2104.31	28
2105.27	24
2106.23	26
2107.2	28
2108.16	25
2109.12	26
2110.09	28
2111.05	30
2112.01	25
2112.98	20
2113.94	30
2114.9	27
2115.86	25
2116.82	24
2117.79	29
2118.75	26
2119.71	25
2120.67	29
2121.63	31
2122.59	24
2123.55	27
2124.52	32
2125.48	26
2126.44	25
2127.4	25
2128.36	23
2129.32	28
2130.28	27
2131.24	25
2132.2	25
2133.16	24
2134.12	28
2135.08	21
2136.04	29
2136.99	26
2137.95	23
2138.91	26
2139.87	26
2140.83	25
2141.79	28
2142.75	24
2143.7	26
2144.66	22
2145.62	26.006
2146.58	25.9238
2147.53	26.0735
2148.49	22.2262
2149.45	20.1765
2150.41	23.9847
2151.36	29.3754
2152.32	27.6634
2153.27	28.1481
2154.23	28.7206
2155.19	29.5835
2156.14	20.5824
2157.1	21.9579
2158.06	27.4706
2159.01	21.4154
2159.97	27.7875
2160.92	25.3629
2161.88	30.1403
2162.83	23.366
2163.79	25.5735
2164.74	24.8017
2165.7	29.5165
2166.65	28.332
2167.61	26.2258
2168.56	24.4864
2169.51	26.2426
2170.47	20.5642
2171.42	23.4608
2172.38	26.6703
2173.33	26.8245
2174.28	23.5277
2175.24	23.5862
2176.19	26.5569
2177.14	26.0606
2178.09	27.2016
2179.05	27.0828
2180	24.418
2180.95	25.8945
2181.9	24.0476
2182.86	25.2975
2183.81	28.4922
2184.76	25.6932
2185.71	28.0784
2186.66	25.7574
2187.61	24.982
2188.57	27.1078
2189.52	25.3989
2190.47	23.6024
2191.42	26.9459
2192.37	23.9999
2193.32	24.8355
2194.27	26.8461
2195.22	24.2306
2196.17	24.6145
2197.12	24.9738
2198.07	26
2199.02	26.429
2199.97	23.7451
2200.92	25.5803
2201.87	22.5902
2202.82	25.9127
2203.76	26.4647
2204.71	25.5518
2205.66	24.5627
2206.61	24.5777
2207.56	24.4917
2208.51	26.4394
2209.45	26.3209
2210.4	24.6328
2211.35	23.6533
2212.3	24.9265
2213.24	26.3093
2214.19	23.443
2215.14	23.0069
2216.09	22.1257
2217.03	22.7239
2217.98	25.8476
2218.93	24.395
2219.87	24.3844
2220.82	26.8604
2221.77	25.6469
2222.71	26.6911
2223.66	25.5899
2224.6	24.0931
2225.55	25.3814
2226.49	26.4633
2227.44	26.732
2228.38	26.8437
2229.33	27.2959
2230.27	24.7417
2231.22	25.1628
2232.16	26.3312
2233.11	26.8574
2234.05	28.7224
2235	25.9174
2235.94	23.8725
2236.88	25.2004
2237.83	24.9412
2238.77	26.3661
2239.71	24.4035
2240.66	24.3041
2241.6	24.2508
2242	23
2242.95	25
2243.9	28
2244.84	26
2245.79	26
2246.74	26
2247.69	26
2248.63	25
2249.58	20
2250.53	30
2251.47	27
2252.42	24
2253.37	22
2254.31	30
2255.26	24
2256.2	29
2257.15	28
2258.1	24
2259.04	26
2259.99	26
2260.93	24
2261.88	31
2262.82	23
2263.77	28
2264.71	25
2265.65	30
2266.6	28
2267.54	24
2268.49	25
2269.43	28
2270.38	27
2271.32	32
2272.26	26
2273.21	23
2274.15	27
2275.09	29
2276.04	30
2276.98	24
2277.92	29
2278.86	26
2279.81	26
2280.75	26
2281.69	23
2282.63	24
2283.57	28
2284.52	26
2285.46	24
2286.4	28
2287.34	27
2288.28	29
2289.22	22
2290.16	26
2291.1	29
2292.04	28
2292.98	24
2293.93	21
2294.86	20
2295.8	22
2296.74	26
2297.69	29
2298.62	24
2299.56	28
2300.5	24
2301.44	28
2302.38	24
2303.32	26
2304.26	20
2305.2	28
2306.14	25
2307.07	30
2308.01	28
2308.95	29
2309.89	25
2310.83	26
2311.76	25
2312.7	27
2313.64	26
2314.58	22
2315.51	25
2316.45	24
2317.39	28
2318.32	23
2319.26	26
2320.2	24
2321.13	28
2322.07	27
2323	20
2323.94	31
2324.88	26
2325.81	28
2326.75	29
2327.68	28
2328.62	26
2329.55	28
2330.49	26
2331.42	22
2332.36	24
2333.29	30
2334.22	28
2335.16	28
2336.09	26
2337.03	22
2337.96	26
2338.89	22
2339.83	24
2340.76	28
2341.69	29
2342.63	28
2343.56	26
2344.49	29
2345.43	30
2346.36	29
2347.29	20
2348.22	27
2349.15	25
2350.09	28
2351.02	24
2351.95	27
2352.88	29
2353.81	24
2354.74	31
2355.67	26
2356.61	27
2357.54	25
2358.47	27
2359.4	28
2360.33	27
2361.26	25
2362.19	28
2363.12	30
2364.05	26
2364.98	28
2365.91	29
2366.84	26
2367.77	32
2368.7	35
2369.62	28
2370.55	29
2371.48	27
2372.41	25
2373.34	31
2374.27	24
2375.2	26
2376.12	28
2377.05	22
2377.98	29
2378.91	25
2379.83	27
2380.76	24
2381.69	28
2382.62	25
2383.54	25
2384.47	24
2385.4	27
2386.32	27
2387.25	25
2388.18	23
2389.1	24
2390.03	24
2390.95	27
2391.88	20
2392.81	26
2393.73	28
2394.66	21
2395.58	27
2396.51	29
2397.43	22
2398.36	33
2399.28	28
2400.2	30
2401.13	26
2402.05	20
2402.98	25
2403.9	26
2404.83	30
2405.75	24
2406.67	32
2407.6	32
2408.52	24
2409.44	26
2410.37	23
2411.29	29
2412.21	30
2413.13	29
2414.06	26
2414.98	28
2415.9	28
2416.82	29
2417.74	24
2418.67	26
2419.59	22
2420.51	26
2421.43	28
2422.35	22
2423.27	25
2424.19	26
2425.11	24
2426.03	26
2426.96	22
2427.88	27
2428.8	29
2429.72	27
2430.64	26
2431.56	20
2432.48	27
2433.39	27
2434.31	27
2435.23	25
2436.15	32
2437.07	27
2437.99	28
2438.91	26
2439.83	27
2440.75	20
2441.67	24
2442.58	28
2443.5	33
2444.42	29
2445.34	26
2446.26	25
2447.17	26
2448.09	24
2449.01	26
2449.92	25
2450.84	27
2451.76	28
2452.68	26
2453.59	28
2454.51	26
2455.42	25
2456.34	27
2457.26	27
2458.17	25
2459.09	26
2460	28
2460.92	27
2461.83	20
2462.75	32
2463.66	26
2464.58	30
2465.49	28
2466.41	26
2467.32	25
2468.24	26
2469.15	32
2470.07	27
2470.98	32
2471.89	29
2472.81	22
2473.72	26
2474.64	28
2475.55	26
2476.46	28
2477.37	22
2478.29	28
2479.2	26
2480.11	26
2481.03	29
2481.94	29
2482.85	29
2483.76	24
2484.67	30
2485.59	24
2486.5	28
2487.41	28
2488.32	27
2489.23	24
2490.14	28
2491.05	29
2491.97	25
2492.88	29
2493.79	25
2494.7	30
2495.61	25
2496.52	28
2497.43	27
2498.34	29
2499.25	24
2500.16	30
2501.07	22
2501.98	28
2502.89	23
2503.79	26
2504.7	30
2505.61	25
2506.52	24
2507.43	28
2508.34	31
2509.25	27
2510.16	28
2511.06	29
2511.97	28
2512.88	24
2513.79	30
2514.69	28
2515.6	27
2516.51	26
2517.42	25
2518.32	28
2519.23	34
2520.14	28
2521.04	26
2521.95	26
2522.86	22
2523.76	28
2524.67	27
2525.57	28
2526.48	23
2527.39	28
2528.29	34
2529.2	30
2530.1	24
2531.01	25
2531.91	27
2532.82	26
2533.72	24
2534.63	25
2535.53	28
2536.44	28
2537.34	24
2538.24	28
2539.15	28
2540.05	24
2540.96	31
2541.86	28
2542.76	27
2543.67	28
2544.57	27
2545.47	28
2546.37	27
2547.28	24
2548.18	32
2549.08	32
2549.99	26
2550.89	26
2551.79	24
2552.69	26
2553.59	27
2554.49	29
2555.4	27
2556.3	28
2557.2	26
2558.1	22
2559	24
2559.9	26
2560.8	28
2561.7	30
2562.6	26
2563.5	29
2564.4	27
2565.3	22
2566.2	30
2567.1	24
2568	27
2568.9	26
2569.8	29
2570.7	26
2571.6	30
2572.5	32
2573.4	24
2574.3	27
2575.2	30
2576.1	26
2576.99	26
2577.89	27
2578.79	26
2579.69	26
2580.59	22
2581.48	26
2582.38	24
2583.28	24
2584.18	23
2585.07	28
2585.97	27
2586.87	28
2587.76	32
2588.66	23
2589.56	28
2590.45	30
2591.35	32
2592.25	30
2593.14	28
2594.04	26
2594.93	24
2595.83	27
2596.73	29
2597.62	23
2598.52	31
2599.41	24
2600.31	26
2601.2	28
2602.1	31
2602.99	28
2603.88	28
2604.78	28
2605.67	30
2606.57	22
2607.46	26
2608.35	29
2609.25	25
2610.14	29
2611.03	28
2611.93	26
2612.82	26
2613.71	33
2614.61	28
2615.5	27
2616.39	31
2617.29	26
2618.18	25
2619.07	23
2619.96	29
2620.85	28
2621.75	30
2622.64	32
2623.53	28
2624.42	20
2625.31	26
2626.2	26
2627.09	26
2627.98	26
2628.88	29
2629.77	26
2630.66	30
2631.55	26
2632.44	28
2633.33	24
2634.22	28
2635.11	26
2636	28
2636.89	27
2637.78	24
2638.66	29
2639.55	27
2640.44	31
2641.33	24
2642.22	32
2643.11	27
2644	27
2644.89	30
2645.78	26
2646.66	28
2647.55	22
2648.44	28
2649.33	28
2650.21	30
2651.1	25
2651.99	28
2652.88	26
2653.76	23
2654.65	26
2655.54	29
2656.42	27
2657.31	25
2658.2	30
2659.08	27
2659.97	26
2660.86	30
2661.74	22
2662.63	29
2663.51	30
2664.4	26
2665.29	29
2666.17	26
2667.06	24
2667.94	26
2668.83	30
2669.71	30
2670.6	29
2671.48	30
2672.36	28
2673.25	26
2674.13	28
2675.02	26
2675.9	27
2676.78	26
2677.67	25
2678.55	30
2679.43	23
2680.32	30
2681.2	29
2682.08	26
2682.97	30
2683.85	28
2684.73	32
2685.61	30
2686.5	32
2687.38	30
2688.26	26
2689.14	25
2690.03	28
2690.91	23
2691.79	28
2692.67	28
2693.55	25
2694.43	29
2695.31	28
2696.19	26
2697.08	27
2697.96	22
2698.84	25
2699.72	34
2700.6	29
2701.48	32
2702.36	31
2703.24	28
2704.12	28
2705	30
2705.88	31
2706.76	26
2707.64	30
2708.51	25
2709.39	26
2710.27	22
2711.15	24
2712.03	28
2712.91	23
2713.79	28
2714.67	26
2715.54	27
2716.42	27
2717.3	24
2718.18	26
2719.05	30
2719.93	28
2720.81	28
2721.69	31
2722.56	30
2723.44	18
2724.32	33
2725.19	29
2726.07	30
2726.95	27
2727.82	24
2728.7	30
2729.58	27
2730.45	31
2731.33	27
2732.2	32
2733.08	28
2733.95	28
2734.83	27
2735.7	31
2736.58	28
2737.45	22
2738.33	23
2739.2	29
2740.08	24
2740.95	24
2741.83	23
2742.7	29
2743.58	26
2744.45	27
2745.32	27
2746.2	24
2747.07	24
2747.94	20
2748.82	25
2749.69	26
2750.56	28
2751.44	26
2752.31	29
2753.18	27
2754.05	27
2754.93	32
2755.8	28
2756.67	24
2757.54	22
2758.42	28
2759.29	31
2760.16	26
2761.03	25
2761.9	26
2762.77	26
2763.64	28
2764.51	33
2765.38	26
2766.26	28
2767.13	26
2768	28
2768.87	28
2769.74	31
2770.61	27
2771.48	29
2772.35	30
2773.22	26
2774.09	28
2774.96	26
2775.83	26
2776.7	27
2777.56	28
2778.43	26
2779.3	29
2780.17	27
2781.04	28
2781.91	27
2782.78	28
2783.64	26
2784.51	30
2785.38	27
2786.25	27
2787.12	28
2787.98	30
2788.85	26
2789.72	26
2790.59	28
2791.45	22
2792.32	25
2793.19	24
2794.05	26
2794.92	30
2795.79	30
2796.65	26
2797.52	30
2798.38	30
2799.25	26
2800.12	24
2800.98	32
2801.85	28
2802.71	28
2803.58	27.5
2804.44	26
2805.31	29
2806.17	22
2807.04	22
2807.9	28
2808.77	32
2809.63	29
2810.5	30
2811.36	31
2812.22	24
2813.09	27
2813.95	24
2814.82	30
2815.68	28
2816.54	24
2817.41	25
2818.27	29
2819.13	29
2820	27
2820.86	31
2821.72	28
2822.58	30
2823.45	27
2824.31	26
2825.17	30
2826.03	29
2826.9	32
2827.76	22
2828.62	23
2829.48	28
2830.34	30
2831.2	32
2832.06	22
2832.92	30
2833.79	28
2834.65	28
2835.51	28
2836.37	25
2837.23	28
2838.09	26
2838.95	30
2839.81	28
2840.67	32
2841.53	24
2842.39	24
2843.25	26
2844.11	27
2844.97	31
2845.83	24
2846.68	29
2847.54	33
2848.4	26
2849.26	26
2850.12	24
2850.98	25
2851.84	30
2852.69	29
2853.55	24
2854.41	28
2855.27	27
2856.13	28
2856.98	18
2857.84	25
2858.7	24
2859.56	26
2860.41	28
2861.27	30
2862.13	28
2862.98	30
2863.84	24
2864.7	29
2865.55	26
2866.41	24
2867.27	32
2868.12	26
2868.98	29
2869.83	29
2870.69	28
2871.54	29
2872.4	32
2873.25	29
2874.11	27
2874.96	26
2875.82	31
2876.68	27
2877.53	26
2878.38	31
2879.24	30
2880.09	28
2880.95	34
2881.8	31
2882.65	26
2883.51	27
2884.36	32
2885.22	34
2886.07	32
2886.92	34
2887.77	31
2888.63	31
2889.48	30
2890.33	36
2891.19	28
2892.04	33
2892.89	37
2893.74	40
2894.6	42
2895.45	38
2896.3	37
2897.15	32
2898	38
2898.85	43
2899.71	38
2900.56	40
2901.41	45
2902.26	48
2903.11	45
2903.96	49
2904.81	45
2905.66	44
2906.51	46
2907.36	46
2908.21	43
2909.06	42
2909.91	46
2910.76	42
2911.61	44
2912.46	45
2913.31	36
2914.16	41
2915.01	36
2915.86	35
2916.71	38
2917.56	32
2918.41	36
2919.26	34
2920.1	32
2920.95	31
2921.8	26
2922.65	34
2923.5	33
2924.34	28
2925.19	31
2926.04	24
2926.89	22
2927.74	26
2928.58	25
2929.43	30
2930.28	26
2931.12	26
2931.97	30
2932.82	28
2933.66	28
2934.51	26
2935.36	29
2936.2	26
2937.05	31
2937.89	28
2938.74	26
2939.59	30
2940.43	28
2941.28	25
2942.12	25
2942.97	27
2943.81	32
2944.66	30
2945.5	28
2946.35	27
2947.19	26
2948.04	28
2948.88	31
2949.72	33
2950.57	25
2951.41	30
2952.26	35
2953.1	32
2953.94	32
2954.79	28
2955.63	31
2956.47	32
2957.32	33
2958.16	36
2959	35
2959.85	30
2960.69	34
2961.53	35
2962.37	32
2963.22	35
2964.06	36
2964.9	35
2965.74	33
2966.58	34
2967.42	35
2968.27	35
2969.11	36
2969.95	30
2970.79	32
2971.63	30
2972.47	32
2973.31	29
2974.15	32
2974.99	28
2975.83	29
2976.68	28
2977.52	36
2978.36	26
2979.2	28
2980.04	30
2980.88	32
2981.71	28
2982.55	30
2983.39	26
2984.23	27
2985.07	26
2985.91	24
2986.75	29
2987.59	22
2988.43	24
2989.27	28
2990.1	28
2990.94	24
2991.78	27
2992.62	30
2993.46	26
2994.3	24
2995.13	21
2995.97	22
2996.81	26
2997.64	26
2998.48	35
2999.32	26
