#Acq. time (s)=	3
#Accumulations=	3
#Range (cm-¹)=	100...3000
#Windows=	3
#Autofocus=	Off
#AutoExposure=	Off
#Spike filter=	Multiple accum.
#Delay time (s)=	0
#Binning=	1
#Readout mode=	Signal
#DeNoise=	Off
#ICS correction=	Off
#Dark correction=	Off
#Inst. Process=	Off
#Instrument=	LabRAM HR Evol
#Detector=	Syncerity OE
#Objective=	x100_VIS_LWD
#Grating=	600 (500nm)
#ND Filter=	25%
#Laser=	633nm_Edge
#Hole=	100.021
#Range=	Visible
#Project=	Bolus
#Sample=	B1
#Site=	stripside
#Title=	m06
#Remark=	
#Date=	03.11.2025 16:56
#Acquired=	03.11.2025 16:56:14
100.969	32
102.252	32
103.535	28
104.818	36
106.101	35
107.384	30
108.666	28
109.948	26
111.232	34
112.514	24
113.795	29
115.077	34
116.358	39
117.639	28
118.919	32
120.2	30
121.48	32
122.76	31
124.04	37
125.32	26
126.599	30
127.879	30
129.158	35
130.436	35
131.715	31
132.992	36
134.27	37
135.548	34
136.826	34
138.104	34
139.381	34
140.658	34
141.935	35
143.212	32
144.489	32
145.763	39
147.04	38
148.315	38
149.591	44
150.867	35
152.142	40
153.416	40
154.691	34
155.965	36
157.24	42
158.514	42
159.786	36
161.06	36
162.334	39
163.607	42
164.881	45
166.152	36
167.425	37
168.698	37
169.969	37
171.241	42
172.513	43
173.785	43
175.055	36
176.326	38
177.597	38
178.867	42
180.137	34
181.408	38
182.677	38
183.947	37
185.217	35
186.485	44
187.755	36
189.022	40
190.291	38
191.56	42
192.828	36
194.096	43
195.363	41
196.631	36
197.899	43
199.165	36
200.432	37
201.698	34
202.965	42
204.23	39
205.497	41
206.762	32
208.028	37
209.293	36
210.559	33
211.823	34
213.088	37
214.352	34
215.617	36
216.88	35
218.145	38
219.408	38
220.672	30
221.934	32
223.196	38
224.46	32
225.722	37
226.985	36
228.246	31
229.508	32
230.77	36
232.031	32
233.292	33
234.554	28
235.814	34
237.074	32
238.335	36
239.595	33
240.854	30
242.115	34
243.374	29
244.633	30
245.893	30
247.151	30
248.409	32
249.667	34
250.927	31
252.184	33
253.442	33
254.699	32
255.957	28
257.214	28
258.47	34
259.727	33
260.983	29
262.24	28
263.496	34
264.752	34
266.007	32
267.262	37
268.517	31
269.773	31
271.028	34
272.282	30
273.536	30
274.79	28
276.044	33
277.297	32
278.551	28
279.804	32
281.057	28
282.31	30
283.564	30
284.816	31
286.068	31
287.32	35
288.572	31
289.823	30
291.074	31
292.325	31
293.576	36
294.827	30
296.077	24
297.328	32
298.578	31
299.828	28
301.077	32
302.325	34
303.575	30
304.824	27
306.073	26
307.321	32
308.57	28
309.818	30
311.066	27
312.314	30
313.562	33
314.808	30
316.055	30
317.302	34
318.549	28
319.796	28
321.042	32
322.288	32
323.533	33
324.779	33
326.024	31
327.27	28
328.515	31
329.759	34
331.004	30
332.248	29
333.493	30
334.736	30
335.98	30
337.223	32
338.466	31
339.709	28
340.952	32
342.195	28
343.437	31
344.68	24
345.922	32
347.163	30
348.405	32
349.647	32
350.887	34
352.128	34
353.37	34
354.609	34
355.85	28
357.089	28
358.33	32
359.57	35
360.809	30
362.049	30
363.287	29
364.526	36
365.764	27
367.003	28
368.241	32
369.479	30
370.718	31
371.955	29
373.193	28
374.429	26
375.667	33
376.903	33
378.139	28
379.376	26
380.611	24
381.848	30
383.083	30
384.319	33
385.554	29
386.79	30
388.024	32
389.258	33
390.493	27
391.727	32
392.962	26
394.195	32
395.428	31
396.663	27
397.895	30
399.128	34
400.361	27
401.593	26
402.825	31
404.058	29
405.29	31
406.521	26
407.752	27
408.985	36
410.215	35
411.446	35
412.678	32
413.908	28
415.138	30
416.367	34
417.597	32
418.828	34
420.057	32
421.286	34
422.514	30
423.743	28
424.973	27
426.201	32
427.429	34
428.657	31
429.884	29
431.112	33
432.34	29
433.567	28
434.794	29
436.02	30
437.247	32
438.473	32
439.699	32
440.925	31
442.15	32
443.376	32
444.601	36
445.826	33
447.051	31
448.275	33
449.5	30
450.724	32
451.948	27
453.172	34
454.396	32
455.619	30
456.842	35
458.065	31
459.288	33
460.511	31
461.733	33
462.956	34
464.178	35
465.4	30
466.621	33
467.843	32
469.064	33
470.285	37
471.505	35
472.726	33
473.946	37
475.166	33
476.387	42
477.606	39
478.825	38
480.044	44
481.264	46
482.483	36
483.702	48
484.921	50
486.138	50
487.356	50
488.574	56
489.792	52
491.009	59
492.226	56
493.444	51
494.661	53
495.877	54
497.094	47
498.31	44
499.525	44
500.741	44
501.958	37
503.172	47
504.388	36
505.603	36
506.817	40
508.032	38
509.247	39
510.46	38
511.675	38
512.888	26
514.102	33
515.316	34
516.528	35
517.742	30
518.954	33
520.167	32
521.378	34
522.591	36
523.802	33
525.015	34
526.226	36
527.438	32
528.648	30
529.86	33
531.07	32
532.281	32
533.491	30
534.702	34
535.911	35
537.121	30
538.33	31
539.54	31
540.749	33
541.957	30
543.167	28
544.375	34
545.584	31
546.791	32
547.999	27
549.207	32
550.414	35
551.621	31
552.829	34
554.035	26
555.241	32
556.449	34
557.655	38
558.86	29
560.066	30
561.272	38
562.477	29
563.682	28
564.888	29
566.093	32
567.297	32
568.501	33
569.705	26
570.91	33
572.114	30
573.317	30
574.52	30
575.723	33
576.927	30
578.13	31
579.332	35
580.535	30
581.737	34
582.938	29
584.14	33
585.343	31
586.544	32
587.745	28
588.946	27
590.147	29
591.347	32
592.548	31
593.748	30
594.948	25
596.147	34
597.347	32
598.546	32
599.745	31
600.944	29
602.143	34
603.342	26
604.54	32
605.738	29
606.937	29
608.134	30
609.332	31
610.529	32
611.727	31
612.924	26
614.121	33
615.317	30
616.513	30
617.709	29
618.905	33
620.101	36
621.297	38
622.492	32
623.688	36
624.883	35
626.077	34
627.271	30
628.466	32
629.66	32
630.855	32
632.047	30
633.241	34
634.435	32
635.629	33
636.82	32
638.014	32
639.207	29
640.399	29
641.59	28
642.783	28
643.975	33
645.166	27
646.357	31
647.549	34
648.741	28
649.93	39
651.122	28
652.311	34
653.502	34
654.692	33
655.881	33
657.071	29
658.261	26
659.45	34
660.639	32
661.827	32
663.016	32
664.204	26
665.393	33
666.581	30
667.769	36
668.957	32
670.143	35
671.331	26
672.518	34
673.705	32
674.891	32
676.078	36
677.264	30
678.451	32
679.636	40
680.821	36
682.007	39
683.192	35
684.378	28
685.562	40
686.747	39
687.931	36
689.115	43
690.3	35
691.483	34
692.666	38
693.851	40
695.034	37
696.216	40
697.4	36
698.582	32
699.764	41
700.948	38
702.129	38
703.311	40
704.493	44
705.674	49
706.855	40
708.036	49
709.218	46
710.399	45
711.579	48
712.759	40
713.939	42
715.12	43
716.299	37
717.478	39
718.657	34
719.836	35
721.015	33
722.195	34
723.373	36
724.552	30
725.729	32
726.907	28
728.085	33
729.262	28
730.44	35
731.617	32
732.795	29
733.972	29
735.148	28
736.324	30
737.501	34
738.677	30
739.852	34
741.028	30
742.203	33
743.379	24
744.554	33
745.729	35
746.903	32
748.078	34
749.252	30
750.426	36
751.599	32
752.772	30
753.946	32
755.119	32
756.293	28
757.466	31
758.639	31
759.811	34
760.984	32
762.155	38
763.327	27
764.499	30
765.67	32
766.842	35
768.013	32
769.183	35
770.354	34
771.525	35
772.696	32
773.865	29
775.035	26
776.205	28
777.375	32
778.544	28
779.713	32
780.882	34
782.052	35
783.219	36
784.388	34
785.557	33
786.724	30
787.892	34
789.06	36
790.227	33
791.395	32
792.562	28
793.728	32
794.895	30
796.061	30
797.228	26
798.395	32
799.56	26
800.726	31
801.891	32
803.057	41
804.221	28
805.387	32
806.551	26
807.716	33
808.879	34
810.044	29
811.208	26
812.372	34
813.535	26
814.699	31
815.862	35
817.025	35
818.188	32
819.351	32
820.513	30
821.675	32
822.837	38
823.999	28
825.161	27
826.322	26
827.483	28
828.645	30
829.805	31
830.966	31
832.127	33
833.287	33
834.447	32
835.607	29
836.767	32
837.926	29
839.085	30
840.245	27
841.404	26
842.562	30
843.72	31
844.88	33
846.038	24
847.195	29
848.353	27
849.512	34
850.669	34
851.826	31
852.983	33
854.139	34
855.296	28
856.453	32
857.609	34
858.765	36
859.921	27
861.077	28
862.232	34
863.387	32
864.542	30
865.697	38
866.852	32
868.008	37
869.162	28
870.316	29
871.47	28
872.624	29
873.778	33
874.931	36
876.084	28
877.237	30
878.39	34
879.543	35
880.695	31
881.846	31
882.999	32
884.151	34
885.302	26
886.454	34
887.606	30
888.757	34
889.908	28
891.059	30
892.21	29
893.359	30
894.509	29
895.659	26
896.81	33
897.959	26
899.109	35
900.257	29
901.407	28
902.556	27
903.705	30
904.854	36
906.001	31
907.149	31
908.298	26
909.446	26
910.592	32
911.74	28
912.888	26
914.034	28
915.181	28
916.328	26
917.473	33
918.62	28
919.766	30
920.911	26
922.058	33
923.204	28
924.348	33
925.494	34
926.638	27
927.783	26
928.928	29
930.072	30
931.216	25
932.36	26
933.504	24
934.647	33
935.791	26
936.933	27
938.077	26
939.219	28
940.363	26
941.504	27
942.647	30
943.789	30
944.932	31
946.073	28
947.215	30
948.356	35
949.498	29
950.638	31
951.778	30
952.92	29
954.06	30
955.199	30
956.34	22
957.479	31
958.62	29
959.759	31
960.898	31
962.038	27
963.176	26
964.315	30
965.453	27
966.592	28
967.73	32
968.867	31
970.006	31
971.144	30
972.281	29
973.418	24
974.554	29
975.692	28
976.829	24
977.965	29
979.101	27
980.237	36
981.374	31
982.509	28
983.645	31
984.78	30
985.915	31
987.05	32
988.184	33
989.319	18
990.453	28
991.589	33
992.722	34
993.856	31
994.99	35
996.123	28
997.257	26
998.39	29
999.523	30
1000.66	26
1001.79	27
1002.92	28
1004.05	28
1005.18	29
1006.32	27
1007.45	30
1008.58	26
1009.71	33
1010.84	28
1011.97	30
1013.1	32
1014.23	32
1015.36	28
1016.49	28
1017.62	28
1018.75	25
1019.88	30
1021.01	31
1022.14	28
1023.27	31
1024.4	32
1025.53	30
1026.66	30
1027.79	29
1028.91	35
1030.04	30
1031.17	29
1032.3	26
1033.42	34
1034.55	26
1035.68	26
1036.81	26
1037.93	30
1039.06	24
1040.18	29
1041.31	28
1042.44	27
1043.56	28
1044.69	30
1045.81	31
1046.94	31
1048.06	34
1049.19	30
1050.31	25
1051.44	30
1052.56	26
1053.69	25
1054.81	26
1055.93	29
1057.06	22
1058.18	30
1059.3	32
1060.43	27
1061.55	27
1062.67	29
1063.79	26
1064.92	29
1066.04	30
1067.16	31
1068.28	25
1069.4	28
1070.52	28
1071.65	33
1072.77	27
1073.89	34
1075.01	26
1076.13	28
1077.25	30
1078.37	32
1079.49	18
1080.61	33
1081.73	30
1082.85	32
1083.97	28
1085.09	31
1086.2	29
1087.32	29
1088.44	28
1089.56	26
1090.68	27
1091.8	36
1092.91	29
1094.03	32
1095.15	32
1096.26	27
1097.38	32
1098.5	24
1099.61	29
1100.73	28
1101.85	30
1102.96	28
1104.08	28
1105.19	31
1106.31	30
1107.43	26
1108.54	32
1109.66	30
1110.77	30
1111.88	22
1113	26
1114.11	32
1115.23	26
1116.34	28
1117.46	31
1118.57	29
1119.68	26
1120.8	24
1121.91	31
1123.02	29
1124.13	28
1125.25	34
1126.36	29
1127.47	30
1128.58	26
1129.69	30
1130.8	23
1131.92	27
1133.03	27
1134.14	24
1135.25	27
1136.36	28
1137.47	30
1138.58	28
1139.69	24
1140.8	27
1141.91	26
1143.02	30
1144.13	28
1145.24	29
1146.35	31
1147.46	28
1148.56	32
1149.67	32
1150.78	30
1151.89	30
1153	30
1154.1	24
1155.21	25
1156.32	34
1157.43	32
1158.53	27
1159.64	30
1160.75	31
1161.85	20
1162.96	24
1164.07	22
1165.17	26
1166.28	32
1167.38	33
1168.49	33
1169.59	30
1170.7	30
1171.8	32
1172.91	28
1174.01	29
1175.12	30
1176.22	26
1177.32	29
1178.43	26
1179.53	27
1180.64	22
1181.74	28
1182.84	27
1183.94	32
1185.05	28
1186.15	29
1187.25	24
1188.35	28
1189.46	31
1190.56	30
1191.66	26
1192.76	26
1193.86	26
1194.96	30
1196.06	32
1197.16	27.9759
1198.26	27.9489
1199.37	28.0534
1200.47	26.9382
1201.57	25.9019
1202.67	31.6176
1203.77	30.5535
1204.86	27.7995
1205.96	27.9069
1207.06	25.9955
1208.16	26.0621
1209.26	28
1210.36	27.1324
1211.46	24.5686
1212.56	26.5311
1213.65	30.2415
1214.75	24.5359
1215.85	26.4443
1216.95	21.5136
1218.04	29.6188
1219.14	23.2384
1220.24	28.2364
1221.33	28.3463
1222.43	26.2794
1223.53	27.4506
1224.62	30.6833
1225.72	26.0559
1226.82	28.9683
1227.91	23.4859
1229.01	26.255
1230.1	30.1136
1231.2	24.7608
1232.29	25.4634
1233.39	29.1227
1234.48	25.5319
1235.58	27.2156
1236.67	28.2471
1237.77	28.3635
1238.86	28.1618
1239.95	28.799
1241.05	25.5588
1242.14	24.0883
1243.23	28.4185
1244.33	26.7487
1245.42	26.3114
1246.51	27.0882
1247.61	28.5639
1248.7	27.8885
1249.79	26.9706
1250.88	28.8247
1251.97	27.6729
1253.07	24.716
1254.16	29.3402
1255.25	26.331
1256.34	29.2429
1257.43	30
1258.52	27.2549
1259.61	26.9666
1260.7	27.4161
1261.79	29.8657
1262.88	29.747
1263.97	26.617
1265.06	29.3775
1266.15	29.6584
1267.24	30.0619
1268.33	29.5826
1269.42	30.5315
1270.51	24.1204
1271.6	28.5281
1272.68	29.3492
1273.77	26.1029
1274.86	27.7103
1275.95	25.1011
1277.04	29.7266
1278.12	28.5196
1279.21	27.6979
1280.3	27.0199
1281.39	28.7738
1282.47	27.9537
1283.56	28.4237
1284.65	25.0598
1285.73	25.5129
1286.82	27.8631
1287.91	27.8818
1288.99	30.4135
1290.08	28.7624
1291.16	26.7108
1292.25	26.371
1293.33	28.6374
1294.42	26.5383
1295.5	25.0918
1296.59	24.1474
1297.67	27.2406
1298.76	29.4964
1299.84	27.9902
1300.92	25.9679
1302.01	24.6983
1303.09	30.1663
1304.17	22.4056
1305.26	25.4067
1306.34	29.0521
1307.34	18
1308.43	26
1309.52	26
1310.61	28
1311.7	25
1312.78	29
1313.87	29
1314.96	28
1316.04	26
1317.13	24
1318.22	32
1319.3	29
1320.39	26
1321.48	30
1322.56	23
1323.65	28
1324.73	26
1325.82	29
1326.9	26
1327.99	31
1329.07	32
1330.16	21
1331.24	32
1332.33	28
1333.41	31
1334.5	24
1335.58	31
1336.66	24
1337.75	26
1338.83	27
1339.91	26
1341	33
1342.08	25
1343.16	31
1344.24	24
1345.33	25
1346.41	26
1347.49	22
1348.57	28
1349.65	27
1350.74	29
1351.82	29
1352.9	29
1353.98	26
1355.06	28
1356.14	30
1357.22	34
1358.3	26
1359.38	30
1360.46	30
1361.54	25
1362.62	28
1363.7	28
1364.78	32
1365.86	30
1366.94	27
1368.02	24
1369.09	24
1370.17	30
1371.25	26
1372.33	29
1373.41	26
1374.48	32
1375.56	26
1376.64	26
1377.72	32
1378.79	28
1379.87	31
1380.95	31
1382.02	27
1383.1	29
1384.17	23
1385.25	29
1386.33	33
1387.4	16
1388.48	28
1389.55	32
1390.63	25
1391.7	28
1392.78	29
1393.85	33
1394.93	26
1396	26
1397.07	34
1398.15	24
1399.22	32
1400.3	32
1401.37	26
1402.44	34
1403.52	35
1404.59	22
1405.66	33
1406.73	27
1407.81	31
1408.88	31
1409.95	32
1411.02	32
1412.09	32
1413.17	36
1414.24	28
1415.31	34
1416.38	34
1417.45	36
1418.52	24
1419.59	30
1420.66	31
1421.73	27
1422.8	32
1423.87	29
1424.94	26
1426.01	31
1427.08	34
1428.15	26
1429.22	22
1430.29	30
1431.35	25
1432.42	30
1433.49	25
1434.56	36
1435.63	24
1436.69	28
1437.76	30
1438.83	28
1439.9	30
1440.96	32
1442.03	30
1443.1	26
1444.17	30
1445.23	33
1446.3	30
1447.36	35
1448.43	29
1449.49	29
1450.56	31
1451.63	29
1452.69	34
1453.76	28
1454.82	26
1455.89	26
1456.95	33
1458.01	31
1459.08	32
1460.14	22
1461.21	27
1462.27	32
1463.34	26
1464.4	27
1465.46	34
1466.52	31
1467.59	28
1468.65	26
1469.71	25
1470.77	27
1471.84	26
1472.9	30
1473.96	29
1475.02	29
1476.08	26
1477.15	30
1478.21	28
1479.27	26
1480.33	26
1481.39	28
1482.45	29
1483.51	32
1484.57	31
1485.63	32
1486.69	28
1487.75	30
1488.81	32
1489.87	34
1490.93	33
1491.99	28
1493.05	35
1494.1	25
1495.16	28
1496.22	33
1497.28	29
1498.34	36
1499.4	29
1500.45	29
1501.51	30
1502.57	32
1503.63	30
1504.68	28
1505.74	30
1506.8	33
1507.85	30
1508.91	27
1509.97	26
1511.02	30
1512.08	33
1513.13	23
1514.19	30
1515.24	28
1516.3	27
1517.35	31
1518.41	32
1519.46	32
1520.52	27
1521.57	28
1522.63	33
1523.68	27
1524.73	33
1525.79	34
1526.84	31
1527.9	33
1528.95	29
1530	25
1531.05	33
1532.11	25
1533.16	34
1534.21	34
1535.26	22
1536.32	30
1537.37	30
1538.42	35
1539.47	31
1540.52	30
1541.57	28
1542.63	28
1543.68	30
1544.73	24
1545.78	26
1546.83	30
1547.88	28
1548.93	28
1549.98	24
1551.03	28
1552.08	29
1553.13	30
1554.18	29
1555.23	26
1556.27	30
1557.32	26
1558.37	32
1559.42	30
1560.47	27
1561.52	30
1562.56	30
1563.61	35
1564.66	27
1565.71	33
1566.75	28
1567.8	26
1568.85	30
1569.9	29
1570.94	30
1571.99	31
1573.03	32
1574.08	27
1575.13	26
1576.17	26
1577.22	26
1578.26	22
1579.31	28
1580.35	31
1581.4	30
1582.44	31
1583.49	27
1584.53	29
1585.58	26
1586.62	30
1587.66	25
1588.71	25
1589.75	30
1590.8	24
1591.84	29
1592.88	30
1593.92	30
1594.97	26
1596.01	22
1597.05	29
1598.1	27
1599.14	22
1600.18	26
1601.22	29
1602.26	26
1603.3	32
1604.35	32
1605.39	24
1606.43	27
1607.47	28
1608.51	32
1609.55	28
1610.59	26
1611.63	33
1612.67	27
1613.71	30
1614.75	28
1615.79	24
1616.83	25
1617.87	30
1618.91	26
1619.95	31
1620.99	29
1622.02	28
1623.06	25
1624.1	26
1625.14	29
1626.18	30
1627.21	29
1628.25	26
1629.29	28
1630.33	29
1631.36	26
1632.4	28
1633.44	27
1634.48	30
1635.51	31
1636.55	29
1637.58	30
1638.62	28
1639.66	28
1640.69	27
1641.73	28
1642.76	27
1643.8	28
1644.83	26
1645.87	32
1646.9	28
1647.94	29
1648.97	29
1650	25
1651.04	31
1652.07	24
1653.11	26
1654.14	26
1655.17	29
1656.21	31
1657.24	28
1658.27	27
1659.31	24
1660.34	28
1661.37	34
1662.4	24
1663.43	27
1664.47	25
1665.5	24
1666.53	26
1667.56	33
1668.59	31
1669.62	30
1670.66	25
1671.69	28
1672.72	26
1673.75	30
1674.78	30
1675.81	24
1676.84	30
1677.87	24
1678.9	28
1679.93	22
1680.96	30
1681.98	29
1683.01	22
1684.04	29
1685.07	31
1686.1	29
1687.13	27
1688.16	29
1689.18	28
1690.21	24
1691.24	29
1692.27	27
1693.3	27
1694.32	28
1695.35	27
1696.38	24
1697.4	30
1698.43	29
1699.46	24
1700.48	23
1701.51	35
1702.54	26
1703.56	28
1704.59	27
1705.61	26
1706.64	32
1707.66	26
1708.69	28
1709.71	27
1710.74	24
1711.76	24
1712.79	24
1713.81	28
1714.83	24
1715.86	34
1716.88	28
1717.91	29
1718.93	27
1719.95	28
1720.98	25
1722	26
1723.02	31
1724.04	28
1725.07	27
1726.09	30
1727.11	32
1728.13	27
1729.15	34
1730.18	28
1731.2	27
1732.22	30
1733.24	28
1734.26	26
1735.28	28
1736.3	25
1737.32	28
1738.34	32
1739.36	24
1740.38	30
1741.4	27
1742.42	26
1743.44	30
1744.46	28
1745.48	28
1746.5	30
1747.52	28
1748.54	28
1749.56	30
1750.58	31
1751.6	29
1752.61	26
1753.63	20
1754.65	29
1755.67	28
1756.68	30
1757.7	30
1758.72	30
1759.74	28
1760.75	27
1761.77	26
1762.79	26
1763.8	28
1764.82	31
1765.83	26
1766.85	26
1767.87	29
1768.88	28
1769.9	29
1770.91	29
1771.93	28
1772.94	22
1773.96	29
1774.97	22
1775.99	26
1777	26
1778.02	30
1779.03	32
1780.04	28
1781.06	28
1782.07	32
1783.09	27
1784.1	24
1785.11	32
1786.13	30
1787.14	29
1788.15	25
1789.16	31
1790.18	27
1791.19	26
1792.2	26
1793.21	24
1794.22	32
1795.23	28
1796.25	32
1797.26	30
1798.27	27
1799.28	26
1800.29	30
1801.3	20
1802.31	32
1803.32	27
1804.33	31
1805.34	29
1806.35	26
1807.36	34
1808.37	27
1809.38	28
1810.39	27
1811.4	28
1812.41	25
1813.42	30
1814.42	26
1815.43	36
1816.44	30
1817.45	26
1818.46	30
1819.47	25
1820.47	28
1821.48	24
1822.49	26
1823.49	24
1824.5	27
1825.51	33
1826.52	24
1827.52	30
1828.53	28
1829.53	26
1830.54	25
1831.55	28
1832.55	28
1833.56	26
1834.56	30
1835.57	29
1836.57	24
1837.58	20
1838.58	29
1839.59	26
1840.59	30
1841.6	28
1842.6	25
1843.61	27
1844.61	28
1845.61	24
1846.62	26
1847.62	28
1848.62	30
1849.63	31
1850.63	26
1851.63	26
1852.64	28
1853.64	25
1854.64	26
1855.64	33
1856.64	34
1857.65	34
1858.65	30
1859.65	29
1860.65	29
1861.65	26
1862.65	26
1863.65	29
1864.66	24
1865.66	26
1866.66	28
1867.66	31
1868.66	29
1869.66	26
1870.66	31
1871.66	24
1872.66	34
1873.66	22
1874.66	31
1875.65	26
1876.65	29
1877.65	28
1878.65	28
1879.65	29
1880.65	30
1881.65	30
1882.64	26
1883.64	30
1884.64	20
1885.64	30
1886.63	29
1887.63	31
1888.63	25
1889.63	28
1890.62	24
1891.62	28
1892.62	28
1893.61	26
1894.61	25
1895.6	26
1896.6	30
1897.6	30
1898.59	27
1899.59	28
1900.58	29
1901.58	25
1902.57	28
1903.57	30
1904.56	30
1905.56	28
1906.55	30
1907.54	26
1908.54	32
1909.53	32
1910.53	31
1911.52	24
1912.51	28
1913.51	30
1914.5	25
1915.49	26
1916.49	28
1917.48	30
1918.47	32
1919.46	24
1920.46	25
1921.45	24
1922.44	36
1923.43	30
1924.42	25
1925.41	22
1926.41	30
1927.4	31
1928.39	26
1929.38	28
1930.37	29
1931.36	31
1932.35	28
1933.34	28
1934.33	30
1935.32	32
1936.31	22
1937.3	29
1938.29	28
1939.28	29
1940.27	25
1941.26	27
1942.24	24
1943.23	27
1944.22	31
1945.21	27
1946.2	28
1947.19	26
1948.17	26
1949.16	30
1950.15	29
1951.14	28
1952.12	27
1953.11	27
1954.1	34
1955.09	28
1956.07	28
1957.06	24
1958.05	28
1959.03	32
1960.02	30
1961	24
1961.99	27
1962.98	28
1963.96	30
1964.95	24
1965.93	26
1966.92	24
1967.9	26
1968.89	22
1969.87	36
1970.85	26
1971.84	26
1972.82	26
1973.81	28
1974.79	28
1975.78	27
1976.76	27
1977.74	25
1978.73	29
1979.71	29
1980.69	26
1981.67	30
1982.66	31
1983.64	26
1984.62	28
1985.6	22
1986.59	27
1987.57	30
1988.55	26
1989.53	27
1990.51	28
1991.49	29
1992.47	26
1993.45	28
1994.44	29
1995.42	27
1996.4	26
1997.38	34
1998.36	26
1999.34	26
2000.32	22
2001.3	28
2002.28	25
2003.26	26
2004.24	28
2005.22	26
2006.19	27
2007.17	27
2008.15	29
2009.13	27
2010.11	29
2011.09	31
2012.06	30
2013.04	25
2014.02	27
2015	26
2015.98	29
2016.95	31
2017.93	25
2018.91	30
2019.88	26
2020.86	26
2021.84	28
2022.81	25
2023.79	32
2024.77	25
2025.74	24
2026.72	24
2027.69	27
2028.67	29
2029.65	24
2030.62	26
2031.6	28
2032.57	27
2033.55	27
2034.52	25
2035.5	26
2036.47	28
2037.44	26
2038.42	29
2039.39	22
2040.36	25
2041.34	27
2042.31	30
2043.29	28
2044.26	27
2045.23	28
2046.2	25
2047.18	25
2048.15	32
2049.12	26
2050.09	24
2051.07	30
2052.04	28
2053.01	28
2053.98	25
2054.95	20
2055.93	32
2056.9	29
2057.87	28
2058.84	23
2059.81	27
2060.78	27
2061.75	27
2062.72	32
2063.69	24
2064.66	26
2065.63	28
2066.6	26
2067.57	31
2068.54	26
2069.51	32
2070.48	26
2071.45	28
2072.42	26
2073.38	26
2074.35	25
2075.32	27
2076.29	24
2077.26	24
2078.23	26
2079.19	27
2080.16	28
2081.13	25
2082.1	22
2083.06	26
2084.03	25
2085	28
2085.96	25
2086.93	26
2087.9	24
2088.86	26
2089.83	26
2090.8	21
2091.76	24
2092.73	24
2093.69	28
2094.66	24
2095.62	29
2096.59	29
2097.55	22
2098.52	26
2099.48	25
2100.45	25
2101.41	27
2102.38	24
2103.34	28
2104.31	28
2105.27	22
2106.23	27
2107.2	32
2108.16	24
2109.12	30
2110.09	25
2111.05	26
2112.01	20
2112.98	28
2113.94	24
2114.9	24
2115.86	26
2116.82	26
2117.79	30
2118.75	29
2119.71	25
2120.67	32
2121.63	24
2122.59	28
2123.55	27
2124.52	29
2125.48	27
2126.44	30
2127.4	20
2128.36	24
2129.32	26
2130.28	26
2131.24	25
2132.2	28
2133.16	28
2134.12	24
2135.08	24
2136.04	26
2136.99	26
2137.95	30
2138.91	29
2139.87	26
2140.83	26
2141.79	27
2142.75	32
2143.7	24
2144.66	28
2145.62	25.9804
2146.58	25.9479
2147.53	25.0511
2148.49	27.9888
2149.45	24.0169
2150.41	26.135
2151.36	29.5155
2152.32	22.4323
2153.27	24.1713
2154.23	31.5295
2155.19	27.7941
2156.14	30.4176
2157.1	22.009
2158.06	28.3219
2159.01	26.0271
2159.97	24.3104
2160.92	22.9656
2161.88	25.1643
2162.83	26.0931
2163.79	26.8529
2164.74	23.9981
2165.7	23.2108
2166.65	25.5588
2167.61	23.5485
2168.56	24.925
2169.51	22.0444
2170.47	23.7437
2171.42	25.6953
2172.38	29.7396
2173.33	24
2174.28	24.4065
2175.24	21.8148
2176.19	23.7021
2177.14	24.0982
2178.09	26.5105
2179.05	23.0717
2180	26.6121
2180.95	21.5375
2181.9	23.94
2182.86	26.2763
2183.81	22.5078
2184.76	22.2791
2185.71	27.0434
2186.66	25.9485
2187.61	26.5809
2188.57	20.8595
2189.52	23.6277
2190.47	25.0686
2191.42	25.2866
2192.37	23.2353
2193.32	27.2631
2194.27	27.1539
2195.22	25.7406
2196.17	24.689
2197.12	28.7679
2198.07	23.4513
2199.02	23.8161
2199.97	22.8351
2200.92	24.8597
2201.87	26.25
2202.82	25.0627
2203.76	27.2686
2204.71	29.3016
2205.66	27.4511
2206.61	26.7353
2207.56	26.9834
2208.51	26.6078
2209.45	25.308
2210.4	22.8679
2211.35	27.032
2212.3	26.4318
2213.24	21.7655
2214.19	24.4657
2215.14	24.3235
2216.09	24.9477
2217.03	24.5196
2217.98	24.5
2218.93	26.8606
2219.87	23.6938
2220.82	21.9634
2221.77	24.5985
2222.71	24.5049
2223.66	25.0969
2224.6	26.377
2225.55	24.8922
2226.49	25.9377
2227.44	24.5
2228.38	26.6264
2229.33	24.2814
2230.27	24.8667
2231.22	24.8702
2232.16	24.7717
2233.11	23.7605
2234.05	25.5005
2235	27.7059
2235.94	24.2469
2236.88	24.6165
2237.83	24.8529
2238.77	26.4348
2239.71	25.0274
2240.66	26.4708
2241.6	26.1026
2242	24
2242.95	26
2243.9	26
2244.84	25
2245.79	26
2246.74	24
2247.69	26
2248.63	26
2249.58	25
2250.53	26
2251.47	24
2252.42	28
2253.37	26
2254.31	27
2255.26	22
2256.2	29
2257.15	20
2258.1	26
2259.04	28
2259.99	28
2260.93	29
2261.88	28
2262.82	24
2263.77	22
2264.71	21
2265.65	22
2266.6	29
2267.54	25
2268.49	28
2269.43	24
2270.38	32
2271.32	28
2272.26	23
2273.21	24
2274.15	22
2275.09	28
2276.04	26
2276.98	26
2277.92	24
2278.86	25
2279.81	18
2280.75	22
2281.69	28
2282.63	22
2283.57	27
2284.52	24
2285.46	26
2286.4	20
2287.34	29
2288.28	26
2289.22	29
2290.16	26
2291.1	26
2292.04	26
2292.98	18
2293.93	25
2294.86	29
2295.8	27
2296.74	25
2297.69	26
2298.62	26
2299.56	26
2300.5	22
2301.44	26
2302.38	29
2303.32	26
2304.26	22
2305.2	26
2306.14	24
2307.07	30
2308.01	26
2308.95	28
2309.89	25
2310.83	22
2311.76	22
2312.7	24
2313.64	24
2314.58	25
2315.51	28
2316.45	30
2317.39	24
2318.32	28
2319.26	29
2320.2	27
2321.13	25
2322.07	28
2323	27
2323.94	30
2324.88	22
2325.81	24
2326.75	25
2327.68	26
2328.62	28
2329.55	32
2330.49	24
2331.42	30
2332.36	28
2333.29	27
2334.22	30
2335.16	26
2336.09	31
2337.03	28
2337.96	34
2338.89	24
2339.83	24
2340.76	28
2341.69	18
2342.63	29
2343.56	29
2344.49	29
2345.43	21
2346.36	26
2347.29	28
2348.22	26
2349.15	28
2350.09	28
2351.02	25
2351.95	29
2352.88	25
2353.81	28
2354.74	28
2355.67	26
2356.61	28
2357.54	26
2358.47	24
2359.4	26
2360.33	32
2361.26	26
2362.19	28
2363.12	25
2364.05	31
2364.98	26
2365.91	26
2366.84	26
2367.77	30
2368.7	27
2369.62	27
2370.55	22
2371.48	23
2372.41	26
2373.34	24
2374.27	26
2375.2	29
2376.12	26
2377.05	26
2377.98	30
2378.91	28
2379.83	27
2380.76	26
2381.69	27
2382.62	23
2383.54	28
2384.47	29
2385.4	26
2386.32	22
2387.25	26
2388.18	28
2389.1	26
2390.03	24
2390.95	34
2391.88	27
2392.81	24
2393.73	29
2394.66	30
2395.58	22
2396.51	27
2397.43	26
2398.36	28
2399.28	27
2400.2	22
2401.13	28
2402.05	31
2402.98	25
2403.9	29
2404.83	26
2405.75	32
2406.67	23
2407.6	24
2408.52	30
2409.44	27
2410.37	26
2411.29	28
2412.21	28
2413.13	31
2414.06	25
2414.98	27
2415.9	24
2416.82	27
2417.74	23
2418.67	30
2419.59	28
2420.51	24
2421.43	28
2422.35	24
2423.27	22
2424.19	18
2425.11	26
2426.03	28
2426.96	22
2427.88	27
2428.8	24
2429.72	24
2430.64	22
2431.56	32
2432.48	25
2433.39	27
2434.31	27
2435.23	25
2436.15	25
2437.07	20
2437.99	31
2438.91	25
2439.83	32
2440.75	24
2441.67	29
2442.58	30
2443.5	28
2444.42	32
2445.34	25
2446.26	24
2447.17	24
2448.09	26
2449.01	28
2449.92	28
2450.84	26
2451.76	28
2452.68	29
2453.59	24
2454.51	29
2455.42	27
2456.34	27
2457.26	21
2458.17	22
2459.09	26
2460	28
2460.92	28
2461.83	29
2462.75	22
2463.66	29
2464.58	28
2465.49	26
2466.41	29
2467.32	26
2468.24	27
2469.15	30
2470.07	24
2470.98	27
2471.89	22
2472.81	31
2473.72	26
2474.64	30
2475.55	30
2476.46	26
2477.37	31
2478.29	24
2479.2	27
2480.11	29
2481.03	30
2481.94	30
2482.85	27
2483.76	24
2484.67	28
2485.59	26
2486.5	22
2487.41	22
2488.32	26
2489.23	26
2490.14	24
2491.05	26
2491.97	30
2492.88	30
2493.79	30
2494.7	28
2495.61	31
2496.52	24
2497.43	28
2498.34	27
2499.25	20
2500.16	31
2501.07	28
2501.98	26
2502.89	26
2503.79	32
2504.7	25
2505.61	24
2506.52	22
2507.43	26
2508.34	28
2509.25	26
2510.16	28
2511.06	24
2511.97	24
2512.88	27
2513.79	29
2514.69	27
2515.6	27
2516.51	23
2517.42	30
2518.32	32
2519.23	31
2520.14	31
2521.04	24
2521.95	24
2522.86	27
2523.76	30
2524.67	24
2525.57	25
2526.48	32
2527.39	26
2528.29	28
2529.2	29
2530.1	28
2531.01	28
2531.91	26
2532.82	29
2533.72	26
2534.63	24
2535.53	24
2536.44	29
2537.34	27
2538.24	30
2539.15	30
2540.05	27
2540.96	28
2541.86	25
2542.76	29
2543.67	26
2544.57	28
2545.47	26
2546.37	33
2547.28	26
2548.18	25
2549.08	30
2549.99	26
2550.89	26
2551.79	24
2552.69	26
2553.59	30
2554.49	30
2555.4	31
2556.3	29
2557.2	28
2558.1	26
2559	27
2559.9	27
2560.8	28
2561.7	26
2562.6	25
2563.5	26
2564.4	24
2565.3	27
2566.2	24
2567.1	26
2568	30
2568.9	27
2569.8	29
2570.7	28
2571.6	28
2572.5	33
2573.4	28
2574.3	34
2575.2	26
2576.1	26
2576.99	23
2577.89	26
2578.79	23
2579.69	30
2580.59	26
2581.48	26
2582.38	25
2583.28	27
2584.18	27
2585.07	26
2585.97	24
2586.87	27
2587.76	30
2588.66	29
2589.56	25
2590.45	24
2591.35	25
2592.25	27
2593.14	26
2594.04	30
2594.93	24
2595.83	26
2596.73	28
2597.62	28
2598.52	28
2599.41	26
2600.31	30
2601.2	28
2602.1	24
2602.99	22
2603.88	28
2604.78	25
2605.67	30
2606.57	30
2607.46	29
2608.35	30
2609.25	23
2610.14	24
2611.03	25
2611.93	27
2612.82	27
2613.71	24
2614.61	28
2615.5	27
2616.39	26
2617.29	25
2618.18	26
2619.07	28
2619.96	28
2620.85	28
2621.75	24
2622.64	29
2623.53	29
2624.42	28
2625.31	22
2626.2	26
2627.09	29
2627.98	24
2628.88	24
2629.77	33
2630.66	25
2631.55	27
2632.44	22
2633.33	24
2634.22	29
2635.11	32
2636	26
2636.89	29
2637.78	28
2638.66	22
2639.55	26
2640.44	24
2641.33	25
2642.22	29
2643.11	22
2644	29
2644.89	24
2645.78	25
2646.66	26
2647.55	24
2648.44	24
2649.33	28
2650.21	29
2651.1	24
2651.99	20
2652.88	27
2653.76	36
2654.65	29
2655.54	27
2656.42	26
2657.31	26
2658.2	26
2659.08	31
2659.97	31
2660.86	29
2661.74	24
2662.63	27
2663.51	28
2664.4	27
2665.29	22
2666.17	28
2667.06	24
2667.94	23
2668.83	26
2669.71	22
2670.6	33
2671.48	27
2672.36	30
2673.25	28
2674.13	24
2675.02	30
2675.9	24
2676.78	24
2677.67	27
2678.55	28
2679.43	28
2680.32	28
2681.2	27
2682.08	28
2682.97	30
2683.85	28
2684.73	30
2685.61	27
2686.5	30
2687.38	28
2688.26	22
2689.14	22
2690.03	23
2690.91	25
2691.79	28
2692.67	24
2693.55	28
2694.43	30
2695.31	26
2696.19	24
2697.08	28
2697.96	27
2698.84	28
2699.72	27
2700.6	27
2701.48	29
2702.36	27
2703.24	22
2704.12	25
2705	25
2705.88	26
2706.76	27
2707.64	29
2708.51	28
2709.39	20
2710.27	33
2711.15	28
2712.03	25
2712.91	28
2713.79	31
2714.67	20
2715.54	26
2716.42	30
2717.3	29
2718.18	28
2719.05	22
2719.93	25
2720.81	30
2721.69	28
2722.56	28
2723.44	26
2724.32	22
2725.19	25
2726.07	24
2726.95	30
2727.82	26
2728.7	27
2729.58	27
2730.45	27
2731.33	34
2732.2	32
2733.08	25
2733.95	25
2734.83	32
2735.7	29
2736.58	22
2737.45	25
2738.33	27
2739.2	27
2740.08	28
2740.95	26
2741.83	25
2742.7	24
2743.58	28
2744.45	30
2745.32	26
2746.2	29
2747.07	26
2747.94	28
2748.82	26
2749.69	24
2750.56	32
2751.44	26
2752.31	26
2753.18	30
2754.05	24
2754.93	33
2755.8	27
2756.67	28
2757.54	31
2758.42	25
2759.29	26
2760.16	20
2761.03	24
2761.9	31
2762.77	30
2763.64	28
2764.51	23
2765.38	24
2766.26	30
2767.13	28
2768	28
2768.87	29
2769.74	32
2770.61	20
2771.48	28
2772.35	28
2773.22	26
2774.09	28
2774.96	25
2775.83	28
2776.7	28
2777.56	26
2778.43	28
2779.3	24
2780.17	27
2781.04	24
2781.91	28
2782.78	28
2783.64	29
2784.51	32
2785.38	27
2786.25	28
2787.12	26
2787.98	25
2788.85	28
2789.72	28
2790.59	31
2791.45	32
2792.32	30
2793.19	24
2794.05	30
2794.92	33
2795.79	29
2796.65	25
2797.52	22
2798.38	30
2799.25	26
2800.12	28
2800.98	22
2801.85	32
2802.71	27
2803.58	29
2804.44	31
2805.31	27
2806.17	28
2807.04	33
2807.9	22
2808.77	26
2809.63	20
2810.5	31
2811.36	28
2812.22	36
2813.09	27
2813.95	28
2814.82	30
2815.68	27
2816.54	30
2817.41	29
2818.27	29
2819.13	33
2820	26
2820.86	28
2821.72	36
2822.58	26
2823.45	32
2824.31	28
2825.17	32
2826.03	25
2826.9	26
2827.76	26
2828.62	30
2829.48	28
2830.34	29
2831.2	29
2832.06	31
2832.92	31
2833.79	35
2834.65	26
2835.51	30
2836.37	28
2837.23	33
2838.09	29
2838.95	28
2839.81	22
2840.67	28
2841.53	31
2842.39	26
2843.25	32
2844.11	30
2844.97	26
2845.83	34
2846.68	29
2847.54	24
2848.4	28
2849.26	29
2850.12	24
2850.98	26
2851.84	26
2852.69	27
2853.55	29
2854.41	31
2855.27	27
2856.13	24
2856.98	28
2857.84	31
2858.7	24
2859.56	24
2860.41	31
2861.27	27
2862.13	26
2862.98	28
2863.84	32
2864.7	27
2865.55	31
2866.41	26
2867.27	34
2868.12	26
2868.98	26
2869.83	27
2870.69	33
2871.54	31
2872.4	33
2873.25	34
2874.11	31
2874.96	34
2875.82	26
2876.68	29
2877.53	28
2878.38	28
2879.24	31
2880.09	34
2880.95	33
2881.8	36
2882.65	30
2883.51	34
2884.36	28
2885.22	38
2886.07	31
2886.92	39
2887.77	38
2888.63	37
2889.48	31
2890.33	35
2891.19	34
2892.04	34
2892.89	34
2893.74	44
2894.6	38
2895.45	39
2896.3	40
2897.15	44
2898	47
2898.85	52
2899.71	46
2900.56	48
2901.41	48
2902.26	58
2903.11	52
2903.96	56
2904.81	58
2905.66	58
2906.51	56
2907.36	64
2908.21	59
2909.06	58
2909.91	56
2910.76	52
2911.61	56
2912.46	52
2913.31	49
2914.16	47
2915.01	44
2915.86	42
2916.71	46
2917.56	38
2918.41	38
2919.26	34
2920.1	42
2920.95	34
2921.8	35
2922.65	37
2923.5	37
2924.34	38
2925.19	28
2926.04	29
2926.89	30
2927.74	33
2928.58	30
2929.43	26
2930.28	34
2931.12	33
2931.97	30
2932.82	28
2933.66	30
2934.51	31
2935.36	24
2936.2	24
2937.05	32
2937.89	28
2938.74	31
2939.59	28
2940.43	29
2941.28	26
2942.12	27
2942.97	24
2943.81	28
2944.66	33
2945.5	27
2946.35	28
2947.19	31
2948.04	30
2948.88	31
2949.72	36
2950.57	37
2951.41	36
2952.26	29
2953.1	31
2953.94	35
2954.79	36
2955.63	36
2956.47	30
2957.32	40
2958.16	33
2959	35
2959.85	36
2960.69	36
2961.53	38
2962.37	41
2963.22	39
2964.06	43
2964.9	45
2965.74	38
2966.58	45
2967.42	44
2968.27	36
2969.11	34
2969.95	39
2970.79	39
2971.63	36
2972.47	39
2973.31	36
2974.15	34
2974.99	32
2975.83	35
2976.68	31
2977.52	35
2978.36	32
2979.2	31
2980.04	29
2980.88	30
2981.71	32
2982.55	26
2983.39	28
2984.23	28
2985.07	26
2985.91	28
2986.75	27
2987.59	31
2988.43	24
2989.27	25
2990.1	27
2990.94	30
2991.78	30
2992.62	28
2993.46	30
2994.3	26
2995.13	27
2995.97	24
2996.81	30
2997.64	28
2998.48	26
2999.32	24
