#Acq. time (s)=	3
#Accumulations=	3
#Range (cm-¹)=	100...3000
#Windows=	3
#Autofocus=	Off
#AutoExposure=	Off
#Spike filter=	Multiple accum.
#Delay time (s)=	0
#Binning=	1
#Readout mode=	Signal
#DeNoise=	Off
#ICS correction=	Off
#Dark correction=	Off
#Inst. Process=	Off
#Instrument=	LabRAM HR Evol
#Detector=	Syncerity OE
#Objective=	x100_VIS_LWD
#Grating=	600 (500nm)
#ND Filter=	25%
#Laser=	633nm_Edge
#Hole=	100.021
#Range=	Visible
#Project=	Bolus
#Sample=	B1
#Site=	stripside
#Title=	m07
#Remark=	
#Date=	03.11.2025 16:57
#Acquired=	03.11.2025 16:57:51
100.969	30
102.252	32
103.535	32
104.818	26
106.101	34
107.384	24
108.666	29
109.948	28
111.232	37
112.514	26
113.795	34
115.077	30
116.358	32
117.639	32
118.919	32
120.2	34
121.48	30
122.76	29
124.04	30
125.32	24
126.599	35
127.879	35
129.158	26
130.436	32
131.715	34
132.992	34
134.27	36
135.548	36
136.826	36
138.104	34
139.381	36
140.658	34
141.935	36
143.212	35
144.489	34
145.763	36
147.04	36
148.315	40
149.591	35
150.867	40
152.142	38
153.416	37
154.691	42
155.965	39
157.24	43
158.514	39
159.786	36
161.06	38
162.334	42
163.607	36
164.881	37
166.152	43
167.425	36
168.698	37
169.969	40
171.241	43
172.513	38
173.785	34
175.055	41
176.326	36
177.597	40
178.867	38
180.137	34
181.408	39
182.677	34
183.947	40
185.217	42
186.485	34
187.755	34
189.022	38
190.291	36
191.56	40
192.828	42
194.096	40
195.363	39
196.631	41
197.899	38
199.165	42
200.432	39
201.698	38
202.965	39
204.23	36
205.497	38
206.762	36
208.028	35
209.293	38
210.559	36
211.823	40
213.088	35
214.352	36
215.617	38
216.88	31
218.145	34
219.408	36
220.672	37
221.934	30
223.196	37
224.46	36
225.722	33
226.985	34
228.246	36
229.508	34
230.77	29
232.031	30
233.292	26
234.554	33
235.814	34
237.074	33
238.335	28
239.595	37
240.854	32
242.115	32
243.374	32
244.633	28
245.893	31
247.151	34
248.409	31
249.667	33
250.927	33
252.184	31
253.442	30
254.699	32
255.957	30
257.214	27
258.47	31
259.727	35
260.983	37
262.24	32
263.496	30
264.752	28
266.007	32
267.262	30
268.517	32
269.773	22
271.028	32
272.282	33
273.536	31
274.79	33
276.044	28
277.297	30
278.551	28
279.804	29
281.057	26
282.31	33
283.564	33
284.816	34
286.068	26
287.32	27
288.572	28
289.823	31
291.074	28
292.325	30
293.576	32
294.827	31
296.077	32
297.328	34
298.578	32
299.828	30
301.077	30
302.325	28
303.575	34
304.824	24
306.073	29
307.321	33
308.57	28
309.818	32
311.066	30
312.314	30
313.562	26
314.808	31
316.055	30
317.302	30
318.549	32
319.796	35
321.042	28
322.288	32
323.533	30
324.779	34
326.024	30
327.27	24
328.515	26
329.759	26
331.004	28
332.248	34
333.493	34
334.736	26
335.98	32
337.223	36
338.466	28
339.709	28
340.952	29
342.195	29
343.437	32
344.68	32
345.922	36
347.163	29
348.405	30
349.647	31
350.887	32
352.128	33
353.37	31
354.609	34
355.85	28
357.089	32
358.33	30
359.57	30
360.809	28
362.049	34
363.287	30
364.526	30
365.764	26
367.003	26
368.241	36
369.479	31
370.718	32
371.955	34
373.193	28
374.429	26
375.667	34
376.903	32
378.139	32
379.376	32
380.611	35
381.848	31
383.083	35
384.319	31
385.554	29
386.79	31
388.024	24
389.258	30
390.493	32
391.727	29
392.962	28
394.195	32
395.428	30
396.663	31
397.895	33
399.128	26
400.361	32
401.593	33
402.825	27
404.058	30
405.29	34
406.521	32
407.752	28
408.985	30
410.215	29
411.446	27
412.678	28
413.908	28
415.138	29
416.367	31
417.597	31
418.828	30
420.057	28
421.286	28
422.514	30
423.743	24
424.973	29
426.201	29
427.429	32
428.657	26
429.884	29
431.112	31
432.34	27
433.567	31
434.794	31
436.02	33
437.247	28
438.473	28
439.699	33
440.925	29
442.15	24
443.376	29
444.601	20
445.826	28
447.051	35
448.275	31
449.5	24
450.724	30
451.948	35
453.172	31
454.396	31
455.619	29
456.842	34
458.065	28
459.288	34
460.511	29
461.733	34
462.956	26
464.178	40
465.4	35
466.621	30
467.843	35
469.064	34
470.285	35
471.505	32
472.726	37
473.946	34
475.166	33
476.387	43
477.606	42
478.825	46
480.044	41
481.264	34
482.483	51
483.702	48
484.921	50
486.138	49
487.356	59
488.574	53
489.792	56
491.009	54
492.226	54
493.444	48
494.661	54
495.877	51
497.094	48
498.31	49
499.525	44
500.741	42
501.958	42
503.172	36
504.388	38
505.603	34
506.817	38
508.032	40
509.247	37
510.46	28
511.675	35
512.888	34
514.102	40
515.316	28
516.528	34
517.742	35
518.954	32
520.167	34
521.378	30
522.591	28
523.802	34
525.015	33
526.226	33
527.438	33
528.648	32
529.86	34
531.07	25
532.281	28
533.491	34
534.702	28
535.911	34
537.121	30
538.33	36
539.54	32
540.749	28
541.957	31
543.167	32
544.375	34
545.584	29
546.791	33
547.999	28
549.207	33
550.414	33
551.621	28
552.829	31
554.035	34
555.241	28
556.449	34
557.655	34
558.86	32
560.066	32
561.272	30
562.477	27
563.682	33
564.888	30
566.093	27
567.297	26
568.501	32
569.705	28
570.91	34
572.114	34
573.317	26
574.52	28
575.723	28
576.927	32
578.13	28
579.332	31
580.535	30
581.737	30
582.938	31
584.14	30
585.343	33
586.544	32
587.745	36
588.946	30
590.147	31
591.347	32
592.548	29
593.748	28
594.948	30
596.147	28
597.347	32
598.546	30
599.745	30
600.944	31
602.143	33
603.342	28
604.54	32
605.738	32
606.937	30
608.134	30
609.332	24
610.529	33
611.727	31
612.924	28
614.121	32
615.317	32
616.513	32
617.709	30
618.905	33
620.101	26
621.297	30
622.492	24
623.688	28
624.883	32
626.077	31
627.271	30
628.466	29
629.66	26
630.855	32
632.047	26
633.241	28
634.435	32
635.629	28
636.82	35
638.014	32
639.207	31
640.399	30
641.59	32
642.783	30
643.975	30
645.166	31
646.357	30
647.549	32
648.741	33
649.93	28
651.122	31
652.311	28
653.502	30
654.692	34
655.881	30
657.071	36
658.261	31
659.45	35
660.639	32
661.827	36
663.016	32
664.204	30
665.393	30
666.581	34
667.769	34
668.957	32
670.143	31
671.331	33
672.518	30
673.705	32
674.891	26
676.078	28
677.264	34
678.451	36
679.636	29
680.821	32
682.007	31
683.192	30
684.378	33
685.562	36
686.747	34
687.931	29
689.115	37
690.3	35
691.483	41
692.666	38
693.851	32
695.034	30
696.216	40
697.4	38
698.582	30
699.764	39
700.948	41
702.129	39
703.311	38
704.493	41
705.674	40
706.855	37
708.036	38
709.218	46
710.399	49
711.579	44
712.759	39
713.939	44
715.12	37
716.299	34
717.478	38
718.657	33
719.836	30
721.015	36
722.195	35
723.373	20
724.552	34
725.729	31
726.907	27
728.085	34
729.262	32
730.44	31
731.617	26
732.795	28
733.972	35
735.148	28
736.324	30
737.501	32
738.677	30
739.852	28
741.028	30
742.203	30
743.379	32
744.554	32
745.729	28
746.903	30
748.078	32
749.252	28
750.426	27
751.599	31
752.772	30
753.946	29
755.119	28
756.293	34
757.466	28
758.639	36
759.811	34
760.984	30
762.155	31
763.327	30
764.499	34
765.67	31
766.842	32
768.013	34
769.183	32
770.354	33
771.525	29
772.696	31
773.865	32
775.035	28
776.205	28
777.375	38
778.544	24
779.713	28
780.882	32
782.052	34
783.219	34
784.388	35
785.557	30
786.724	31
787.892	36
789.06	34
790.227	34
791.395	32
792.562	34
793.728	33
794.895	32
796.061	26
797.228	32
798.395	32
799.56	33
800.726	32
801.891	33
803.057	32
804.221	35
805.387	32
806.551	32
807.716	32
808.879	34
810.044	32
811.208	32
812.372	33
813.535	32
814.699	34
815.862	38
817.025	34
818.188	29
819.351	31
820.513	30
821.675	30
822.837	26
823.999	26
825.161	34
826.322	31
827.483	28
828.645	34
829.805	34
830.966	32
832.127	28
833.287	26
834.447	34
835.607	32
836.767	31
837.926	33
839.085	35
840.245	32
841.404	30
842.562	28
843.72	34
844.88	28
846.038	28
847.195	35
848.353	34
849.512	34
850.669	34
851.826	30
852.983	28
854.139	32
855.296	26
856.453	27
857.609	27
858.765	28
859.921	32
861.077	30
862.232	30
863.387	30
864.542	38
865.697	27
866.852	32
868.008	28
869.162	33
870.316	33
871.47	26
872.624	30
873.778	34
874.931	36
876.084	30
877.237	32
878.39	34
879.543	31
880.695	33
881.846	28
882.999	29
884.151	32
885.302	32
886.454	30
887.606	28
888.757	20
889.908	30
891.059	30
892.21	30
893.359	32
894.509	18
895.659	30
896.81	32
897.959	30
899.109	31
900.257	36
901.407	32
902.556	29
903.705	32
904.854	30
906.001	25
907.149	30
908.298	34
909.446	30
910.592	31
911.74	30
912.888	24
914.034	27
915.181	27
916.328	28
917.473	28
918.62	28
919.766	30
920.911	30
922.058	28
923.204	30
924.348	34
925.494	32
926.638	30
927.783	28
928.928	30
930.072	28
931.216	30
932.36	32
933.504	30
934.647	32
935.791	28
936.933	30
938.077	30
939.219	26
940.363	34
941.504	29
942.647	20
943.789	32
944.932	33
946.073	32
947.215	26
948.356	34
949.498	31
950.638	28
951.778	24
952.92	31
954.06	30
955.199	35
956.34	30
957.479	26
958.62	30
959.759	24
960.898	33
962.038	32
963.176	28
964.315	28
965.453	30
966.592	31
967.73	32
968.867	29
970.006	30
971.144	32
972.281	34
973.418	26
974.554	24
975.692	28
976.829	30
977.965	28
979.101	28
980.237	31
981.374	31
982.509	31
983.645	25
984.78	31
985.915	28
987.05	32
988.184	30
989.319	30
990.453	27
991.589	32
992.722	26
993.856	30
994.99	32
996.123	31
997.257	28
998.39	29
999.523	30
1000.66	29
1001.79	30
1002.92	33
1004.05	28
1005.18	26
1006.32	29
1007.45	35
1008.58	26
1009.71	31
1010.84	30
1011.97	30
1013.1	30
1014.23	29
1015.36	29
1016.49	31
1017.62	30
1018.75	29
1019.88	27
1021.01	26
1022.14	28
1023.27	24
1024.4	27
1025.53	32
1026.66	30
1027.79	30
1028.91	28
1030.04	35
1031.17	26
1032.3	27
1033.42	29
1034.55	32
1035.68	24
1036.81	30
1037.93	29
1039.06	28
1040.18	36
1041.31	26
1042.44	30
1043.56	26
1044.69	25
1045.81	28
1046.94	34
1048.06	26
1049.19	30
1050.31	27
1051.44	30
1052.56	24
1053.69	31
1054.81	30
1055.93	26
1057.06	26
1058.18	30
1059.3	28
1060.43	26
1061.55	34
1062.67	28
1063.79	31
1064.92	31
1066.04	27
1067.16	32
1068.28	30
1069.4	29
1070.52	28
1071.65	26
1072.77	30
1073.89	29
1075.01	31
1076.13	24
1077.25	29
1078.37	30
1079.49	27
1080.61	29
1081.73	28
1082.85	20
1083.97	30
1085.09	32
1086.2	30
1087.32	26
1088.44	28
1089.56	32
1090.68	31
1091.8	22
1092.91	28
1094.03	30
1095.15	27
1096.26	30
1097.38	34
1098.5	29
1099.61	26
1100.73	28
1101.85	30
1102.96	27
1104.08	28
1105.19	27
1106.31	24
1107.43	24
1108.54	22
1109.66	31
1110.77	28
1111.88	30
1113	30
1114.11	33
1115.23	26
1116.34	29
1117.46	25
1118.57	29
1119.68	24
1120.8	29
1121.91	31
1123.02	30
1124.13	26
1125.25	28
1126.36	24
1127.47	31
1128.58	24
1129.69	30
1130.8	28
1131.92	30
1133.03	28
1134.14	26
1135.25	31
1136.36	26
1137.47	32
1138.58	26
1139.69	26
1140.8	24
1141.91	28
1143.02	30
1144.13	25
1145.24	28
1146.35	31
1147.46	28
1148.56	24
1149.67	27
1150.78	32
1151.89	30
1153	28
1154.1	32
1155.21	31
1156.32	26
1157.43	28
1158.53	32
1159.64	28
1160.75	24
1161.85	26
1162.96	24
1164.07	26
1165.17	32
1166.28	25
1167.38	32
1168.49	30
1169.59	26
1170.7	24
1171.8	28
1172.91	34
1174.01	26
1175.12	22
1176.22	30
1177.32	27
1178.43	29
1179.53	27
1180.64	28
1181.74	24
1182.84	29
1183.94	24
1185.05	30
1186.15	26
1187.25	26
1188.35	26
1189.46	32
1190.56	28
1191.66	24
1192.76	25
1193.86	24
1194.96	26
1196.06	28.9853
1197.16	26
1198.26	27.9784
1199.37	26.1258
1200.47	27.9382
1201.57	26.9608
1202.67	33.5779
1203.77	22.3729
1204.86	26.0781
1205.96	26.0982
1207.06	24.2506
1208.16	29.378
1209.26	30.2676
1210.36	28.8717
1211.46	29.6425
1212.56	24.6062
1213.65	27.8474
1214.75	24.0794
1215.85	29.1867
1216.95	29.3947
1218.04	27.0592
1219.14	29.6641
1220.24	30.3699
1221.33	26
1222.43	26
1223.53	24.7253
1224.62	23.6745
1225.72	25.4668
1226.82	31.6747
1227.91	28.4691
1229.01	25.3579
1230.1	24.439
1231.2	24.2392
1232.29	24.3466
1233.39	29.7104
1234.48	28.3753
1235.58	27.9998
1236.67	28.3819
1237.77	23.9486
1238.86	25.788
1239.95	28.3027
1241.05	26.5786
1242.14	26.7289
1243.23	29.3799
1244.33	27.2837
1245.42	25.7345
1246.51	28.1765
1247.61	25.572
1248.7	27.7835
1249.79	26.4853
1250.88	30.8401
1251.97	31.0045
1253.07	26.7008
1254.16	25.835
1255.25	28.4253
1256.34	27.5739
1257.43	30.4461
1258.52	29.5637
1259.61	30
1260.7	28.5003
1261.79	30.0943
1262.88	26.4118
1263.97	28.7192
1265.06	29.6686
1266.15	28.4061
1267.24	27.461
1268.33	26.3747
1269.42	28.3212
1270.51	27.3514
1271.6	25.7545
1272.68	22.8382
1273.77	27.0067
1274.86	30.0562
1275.95	27.1239
1277.04	23.6827
1278.12	22.959
1279.21	29.3958
1280.3	25.4015
1281.39	24.5168
1282.47	25.0033
1283.56	23.1313
1284.65	26.4549
1285.73	29.2518
1286.82	26.2258
1287.91	26.0294
1288.99	25.8797
1290.08	27.1767
1291.16	23.6369
1292.25	21.5187
1293.33	27.5148
1294.42	25.0553
1295.5	19.4859
1296.59	22.4657
1297.67	22.6913
1298.76	23.8804
1299.84	29.3162
1300.92	26.86
1302.01	25.4023
1303.09	26
1304.17	25.6925
1305.26	23.9682
1306.34	33.3468
1307.34	26
1308.43	25
1309.52	27
1310.61	30
1311.7	28
1312.78	29
1313.87	27
1314.96	26
1316.04	25
1317.13	25
1318.22	24
1319.3	26
1320.39	25
1321.48	22
1322.56	24
1323.65	22
1324.73	28
1325.82	22
1326.9	29
1327.99	26
1329.07	27
1330.16	25
1331.24	29
1332.33	30
1333.41	27
1334.5	22
1335.58	32
1336.66	31
1337.75	30
1338.83	24
1339.91	27
1341	30
1342.08	27
1343.16	27
1344.24	28
1345.33	28
1346.41	24
1347.49	25
1348.57	30
1349.65	30
1350.74	24
1351.82	24
1352.9	29
1353.98	25
1355.06	32
1356.14	26
1357.22	28
1358.3	29
1359.38	34
1360.46	26
1361.54	30
1362.62	21
1363.7	31
1364.78	28
1365.86	26
1366.94	22
1368.02	27
1369.09	29
1370.17	28
1371.25	28
1372.33	26
1373.41	30
1374.48	26
1375.56	26
1376.64	29
1377.72	28
1378.79	30
1379.87	28
1380.95	26
1382.02	28
1383.1	24
1384.17	29
1385.25	25
1386.33	24
1387.4	29
1388.48	30
1389.55	28
1390.63	26
1391.7	28
1392.78	32
1393.85	29
1394.93	33
1396	29
1397.07	26
1398.15	30
1399.22	29
1400.3	34
1401.37	33
1402.44	34
1403.52	28
1404.59	34
1405.66	30
1406.73	31
1407.81	28
1408.88	35
1409.95	31
1411.02	29
1412.09	38
1413.17	30
1414.24	34
1415.31	26
1416.38	39
1417.45	32
1418.52	33
1419.59	36
1420.66	31
1421.73	32
1422.8	30
1423.87	31
1424.94	28
1426.01	31
1427.08	30
1428.15	28
1429.22	25
1430.29	27
1431.35	29
1432.42	24
1433.49	29
1434.56	30
1435.63	29
1436.69	24
1437.76	26
1438.83	34
1439.9	26
1440.96	29
1442.03	29
1443.1	28
1444.17	32
1445.23	24
1446.3	34
1447.36	28
1448.43	32
1449.49	30
1450.56	28
1451.63	29
1452.69	28
1453.76	28
1454.82	34
1455.89	34
1456.95	31
1458.01	34
1459.08	24
1460.14	25
1461.21	28
1462.27	27
1463.34	33
1464.4	28
1465.46	32
1466.52	27
1467.59	28
1468.65	28
1469.71	28
1470.77	29
1471.84	24
1472.9	28
1473.96	32
1475.02	29
1476.08	26
1477.15	31
1478.21	28
1479.27	28
1480.33	29
1481.39	26
1482.45	30
1483.51	28
1484.57	20
1485.63	29
1486.69	26
1487.75	24
1488.81	34
1489.87	28
1490.93	26
1491.99	28
1493.05	32
1494.1	29
1495.16	34
1496.22	27
1497.28	30
1498.34	26
1499.4	26
1500.45	27
1501.51	33
1502.57	26
1503.63	22
1504.68	25
1505.74	28
1506.8	36
1507.85	31
1508.91	26
1509.97	30
1511.02	32
1512.08	28
1513.13	26
1514.19	28
1515.24	27
1516.3	28
1517.35	28
1518.41	31
1519.46	26
1520.52	27
1521.57	28
1522.63	24
1523.68	29
1524.73	28
1525.79	33
1526.84	23
1527.9	28
1528.95	29
1530	25
1531.05	30
1532.11	27
1533.16	32
1534.21	30
1535.26	24
1536.32	26
1537.37	22
1538.42	29
1539.47	30
1540.52	30
1541.57	27
1542.63	28
1543.68	29
1544.73	24
1545.78	28
1546.83	29
1547.88	32
1548.93	28
1549.98	28
1551.03	25
1552.08	29
1553.13	24
1554.18	30
1555.23	29
1556.27	28
1557.32	31
1558.37	28
1559.42	30
1560.47	30
1561.52	27
1562.56	30
1563.61	28
1564.66	30
1565.71	26
1566.75	29
1567.8	24
1568.85	34
1569.9	33
1570.94	21
1571.99	29
1573.03	30
1574.08	27
1575.13	29
1576.17	26
1577.22	22
1578.26	24
1579.31	31
1580.35	24
1581.4	28
1582.44	28
1583.49	30
1584.53	35
1585.58	30
1586.62	31
1587.66	22
1588.71	34
1589.75	26
1590.8	29
1591.84	28
1592.88	28
1593.92	27
1594.97	30
1596.01	28
1597.05	31
1598.1	24
1599.14	32
1600.18	34
1601.22	30
1602.26	32
1603.3	28
1604.35	23
1605.39	32
1606.43	24
1607.47	32
1608.51	29
1609.55	28
1610.59	34
1611.63	28
1612.67	26
1613.71	27
1614.75	31
1615.79	29
1616.83	34
1617.87	24
1618.91	30
1619.95	28
1620.99	31
1622.02	30
1623.06	30
1624.1	28
1625.14	33
1626.18	24
1627.21	29
1628.25	33
1629.29	24
1630.33	26
1631.36	26
1632.4	28
1633.44	28
1634.48	28
1635.51	28
1636.55	28
1637.58	30
1638.62	31
1639.66	32
1640.69	24
1641.73	25
1642.76	28
1643.8	32
1644.83	28
1645.87	26
1646.9	28
1647.94	28
1648.97	24
1650	33
1651.04	32
1652.07	28
1653.11	30
1654.14	24
1655.17	30
1656.21	30
1657.24	28
1658.27	28
1659.31	28
1660.34	31
1661.37	29
1662.4	33
1663.43	28
1664.47	32
1665.5	26
1666.53	28
1667.56	28
1668.59	26
1669.62	30
1670.66	26
1671.69	28
1672.72	34
1673.75	24
1674.78	32
1675.81	26
1676.84	34
1677.87	28
1678.9	27
1679.93	33
1680.96	32
1681.98	29
1683.01	29
1684.04	24
1685.07	22
1686.1	24
1687.13	27
1688.16	28
1689.18	29
1690.21	30
1691.24	24
1692.27	33
1693.3	31
1694.32	29
1695.35	26
1696.38	30
1697.4	27
1698.43	24
1699.46	30
1700.48	26
1701.51	32
1702.54	28
1703.56	29
1704.59	26
1705.61	28
1706.64	31
1707.66	26
1708.69	26
1709.71	31
1710.74	32
1711.76	34
1712.79	28
1713.81	30
1714.83	28
1715.86	24
1716.88	29
1717.91	24
1718.93	28
1719.95	31
1720.98	32
1722	28
1723.02	36
1724.04	29
1725.07	32
1726.09	30
1727.11	25
1728.13	32
1729.15	31
1730.18	26
1731.2	26
1732.22	30
1733.24	28
1734.26	25
1735.28	26
1736.3	32
1737.32	28
1738.34	26
1739.36	23
1740.38	25
1741.4	22
1742.42	32
1743.44	26
1744.46	30
1745.48	32
1746.5	30
1747.52	28
1748.54	31
1749.56	32
1750.58	26
1751.6	28
1752.61	26
1753.63	29
1754.65	28
1755.67	27
1756.68	30
1757.7	28
1758.72	29
1759.74	26
1760.75	22
1761.77	28
1762.79	26
1763.8	30
1764.82	18
1765.83	28
1766.85	33
1767.87	26
1768.88	30
1769.9	30
1770.91	30
1771.93	24
1772.94	20
1773.96	29
1774.97	28
1775.99	30
1777	28
1778.02	26
1779.03	33
1780.04	27
1781.06	28
1782.07	24
1783.09	26
1784.1	32
1785.11	24
1786.13	20
1787.14	26
1788.15	27
1789.16	27
1790.18	26
1791.19	33
1792.2	27
1793.21	27
1794.22	22
1795.23	22
1796.25	28
1797.26	31
1798.27	28
1799.28	30
1800.29	29
1801.3	27
1802.31	24
1803.32	26
1804.33	20
1805.34	29
1806.35	26
1807.36	34
1808.37	22
1809.38	25
1810.39	29
1811.4	28
1812.41	25
1813.42	28
1814.42	27
1815.43	26
1816.44	22
1817.45	24
1818.46	26
1819.47	30
1820.47	30
1821.48	29
1822.49	30
1823.49	16
1824.5	28
1825.51	26
1826.52	24
1827.52	26
1828.53	26
1829.53	28
1830.54	25
1831.55	28
1832.55	26
1833.56	28
1834.56	29
1835.57	22
1836.57	26
1837.58	33
1838.58	28
1839.59	26
1840.59	27
1841.6	28
1842.6	33
1843.61	24
1844.61	34
1845.61	28
1846.62	28
1847.62	32
1848.62	28
1849.63	29
1850.63	24
1851.63	26
1852.64	28
1853.64	26
1854.64	28
1855.64	28
1856.64	28
1857.65	27
1858.65	26
1859.65	28
1860.65	28
1861.65	26
1862.65	31
1863.65	32
1864.66	31
1865.66	30
1866.66	31
1867.66	30
1868.66	29
1869.66	31
1870.66	31
1871.66	25
1872.66	26
1873.66	30
1874.66	24
1875.65	28
1876.65	26
1877.65	31
1878.65	24
1879.65	28
1880.65	27
1881.65	24
1882.64	32
1883.64	29
1884.64	26
1885.64	31
1886.63	26
1887.63	26
1888.63	33
1889.63	28
1890.62	27
1891.62	26
1892.62	32
1893.61	22
1894.61	30
1895.6	25
1896.6	28
1897.6	28
1898.59	30
1899.59	26
1900.58	33
1901.58	25
1902.57	24
1903.57	26
1904.56	24
1905.56	26
1906.55	26
1907.54	27
1908.54	24
1909.53	26
1910.53	31
1911.52	29
1912.51	27
1913.51	32
1914.5	28
1915.49	24
1916.49	22
1917.48	29
1918.47	30
1919.46	26
1920.46	27
1921.45	25
1922.44	27
1923.43	26
1924.42	28
1925.41	34
1926.41	25
1927.4	28
1928.39	24
1929.38	27
1930.37	27
1931.36	30
1932.35	25
1933.34	27
1934.33	30
1935.32	28
1936.31	30
1937.3	28
1938.29	31
1939.28	27
1940.27	30
1941.26	30
1942.24	30
1943.23	25
1944.22	31
1945.21	30
1946.2	30
1947.19	26
1948.17	25
1949.16	25
1950.15	26.5
1951.14	25
1952.12	29
1953.11	25
1954.1	23
1955.09	24
1956.07	20
1957.06	30
1958.05	27
1959.03	30
1960.02	27
1961	28
1961.99	28
1962.98	28
1963.96	25
1964.95	22
1965.93	31
1966.92	28
1967.9	27
1968.89	31
1969.87	29
1970.85	28
1971.84	25
1972.82	26
1973.81	22
1974.79	25
1975.78	31
1976.76	32
1977.74	26
1978.73	28
1979.71	27
1980.69	24
1981.67	26
1982.66	32
1983.64	29
1984.62	26
1985.6	27
1986.59	28
1987.57	28
1988.55	33
1989.53	24
1990.51	18
1991.49	28
1992.47	27
1993.45	26
1994.44	30
1995.42	26
1996.4	27
1997.38	26
1998.36	31
1999.34	26
2000.32	22
2001.3	26
2002.28	26
2003.26	26
2004.24	28
2005.22	18
2006.19	20
2007.17	26
2008.15	28
2009.13	24
2010.11	33
2011.09	23
2012.06	26
2013.04	26
2014.02	26
2015	24
2015.98	26
2016.95	31
2017.93	31
2018.91	25
2019.88	22
2020.86	26
2021.84	29
2022.81	26
2023.79	28
2024.77	27
2025.74	28
2026.72	25
2027.69	25
2028.67	24
2029.65	31
2030.62	26
2031.6	23
2032.57	26
2033.55	24
2034.52	28
2035.5	27
2036.47	28
2037.44	30
2038.42	22
2039.39	26
2040.36	27
2041.34	27
2042.31	22
2043.29	27
2044.26	27
2045.23	28
2046.2	31
2047.18	24
2048.15	29
2049.12	25
2050.09	29
2051.07	26
2052.04	25
2053.01	24
2053.98	27
2054.95	26
2055.93	25
2056.9	28
2057.87	28
2058.84	26
2059.81	22
2060.78	26
2061.75	24
2062.72	22
2063.69	27
2064.66	30
2065.63	20
2066.6	29
2067.57	28
2068.54	28
2069.51	23
2070.48	24
2071.45	28
2072.42	25
2073.38	24
2074.35	27
2075.32	28
2076.29	31
2077.26	27
2078.23	27
2079.19	30
2080.16	25
2081.13	24
2082.1	24
2083.06	31
2084.03	28
2085	30
2085.96	26
2086.93	27
2087.9	29
2088.86	30
2089.83	26
2090.8	24
2091.76	26
2092.73	27
2093.69	24
2094.66	25
2095.62	25
2096.59	20
2097.55	26
2098.52	33
2099.48	24
2100.45	26
2101.41	24
2102.38	30
2103.34	29
2104.31	26
2105.27	30
2106.23	30
2107.2	28
2108.16	28
2109.12	22
2110.09	24
2111.05	26
2112.01	30
2112.98	28
2113.94	30
2114.9	24
2115.86	28
2116.82	24
2117.79	32
2118.75	28
2119.71	32
2120.67	24
2121.63	26
2122.59	27
2123.55	27
2124.52	26
2125.48	30
2126.44	21
2127.4	29
2128.36	27
2129.32	24
2130.28	24
2131.24	27
2132.2	26
2133.16	22
2134.12	29
2135.08	27
2136.04	24
2136.99	20
2137.95	23
2138.91	28
2139.87	27
2140.83	24
2141.79	25
2142.75	26
2143.7	27
2144.66	20
2145.62	22.0124
2146.58	21.9826
2147.53	26.0673
2148.49	24.0686
2149.45	25.9797
2150.41	27.5916
2151.36	25.9916
2152.32	28.6279
2153.27	26.6667
2154.23	29.3432
2155.19	20.2059
2156.14	26.4409
2157.1	27.3917
2158.06	24.8839
2159.01	29.7009
2159.97	20.5949
2160.92	22.5271
2161.88	25.8193
2162.83	24.9203
2163.79	24.7647
2164.74	24.8028
2165.7	27.5744
2166.65	26.2175
2167.61	24.7835
2168.56	27.5077
2169.51	26.5296
2170.47	23.7313
2171.42	29.4066
2172.38	26.3989
2173.33	24.7958
2174.28	26.57
2175.24	22.8892
2176.19	26.6606
2177.14	24.1064
2178.09	25.9706
2179.05	26.5305
2180	24.749
2180.95	24.8636
2181.9	19.8873
2182.86	25.1027
2183.81	25.1222
2184.76	28.514
2185.71	26.75
2186.66	25
2187.61	25.3644
2188.57	26.5447
2189.52	24.943
2190.47	22.4629
2191.42	24.5038
2192.37	26.706
2193.32	25.5724
2194.27	29.3216
2195.22	25.4836
2196.17	24.681
2197.12	25.7579
2198.07	29.3786
2199.02	24.3022
2199.97	26.4563
2200.92	28.2794
2201.87	23.9375
2202.82	22.8099
2203.76	23.6264
2204.71	25.1399
2205.66	25.5835
2206.61	24.0961
2207.56	23.4077
2208.51	26.7071
2209.45	25.9688
2210.4	26
2211.35	23.5802
2212.3	26.2353
2213.24	22.7232
2214.19	21.8462
2215.14	25.5725
2216.09	27.1127
2217.03	25.816
2217.98	24.5651
2218.93	26.3802
2219.87	24.0792
2220.82	25.0444
2221.77	25.4558
2222.71	26.5515
2223.66	26.7146
2224.6	28.0071
2225.55	25.5873
2226.49	26.342
2227.44	23.8399
2228.38	20.9951
2229.33	30.1301
2230.27	27.8213
2231.22	26.3724
2232.16	25.5308
2233.11	26.0778
2234.05	27.6529
2235	27.4299
2235.94	26.3639
2236.88	26.6272
2237.83	28.0147
2238.77	25.5194
2239.71	22.5476
2240.66	24.9242
2241.6	24.1369
2242	22
2242.95	22
2243.9	22
2244.84	29
2245.79	23
2246.74	26
2247.69	25
2248.63	28
2249.58	18
2250.53	24
2251.47	29
2252.42	22
2253.37	26
2254.31	30
2255.26	24
2256.2	24
2257.15	28
2258.1	25
2259.04	30
2259.99	24
2260.93	25
2261.88	27
2262.82	25
2263.77	25
2264.71	30
2265.65	25
2266.6	24
2267.54	20
2268.49	29
2269.43	24
2270.38	25
2271.32	28
2272.26	28
2273.21	24
2274.15	28
2275.09	26
2276.04	26
2276.98	28
2277.92	20
2278.86	26
2279.81	25
2280.75	28
2281.69	26
2282.63	25
2283.57	26
2284.52	24
2285.46	25
2286.4	28
2287.34	26
2288.28	20
2289.22	27
2290.16	26
2291.1	28
2292.04	24
2292.98	27
2293.93	22
2294.86	24
2295.8	30
2296.74	25
2297.69	26
2298.62	22
2299.56	26
2300.5	25
2301.44	25
2302.38	25
2303.32	22
2304.26	26
2305.2	29
2306.14	26
2307.07	24
2308.01	28
2308.95	27
2309.89	20
2310.83	24
2311.76	27
2312.7	29
2313.64	28
2314.58	26
2315.51	24
2316.45	26
2317.39	28
2318.32	26
2319.26	29
2320.2	28
2321.13	24
2322.07	24
2323	24
2323.94	26
2324.88	26
2325.81	29
2326.75	33
2327.68	26
2328.62	27
2329.55	27
2330.49	29
2331.42	32
2332.36	22
2333.29	29
2334.22	24
2335.16	26
2336.09	30
2337.03	29
2337.96	25
2338.89	22
2339.83	28
2340.76	24
2341.69	30
2342.63	30
2343.56	25
2344.49	18
2345.43	25
2346.36	29
2347.29	26
2348.22	31
2349.15	32
2350.09	33
2351.02	24
2351.95	30
2352.88	27
2353.81	31
2354.74	26
2355.67	27
2356.61	26
2357.54	20
2358.47	24
2359.4	26
2360.33	24
2361.26	27
2362.19	21
2363.12	24
2364.05	26
2364.98	26
2365.91	30
2366.84	26
2367.77	25
2368.7	28
2369.62	24
2370.55	28
2371.48	28
2372.41	24
2373.34	24
2374.27	21
2375.2	20
2376.12	27
2377.05	27
2377.98	26
2378.91	26
2379.83	28
2380.76	20
2381.69	26
2382.62	24
2383.54	23
2384.47	24
2385.4	27
2386.32	26
2387.25	28
2388.18	30
2389.1	26
2390.03	26
2390.95	28
2391.88	26
2392.81	26
2393.73	28
2394.66	31
2395.58	20
2396.51	28
2397.43	25
2398.36	30
2399.28	24
2400.2	30
2401.13	26
2402.05	29
2402.98	24
2403.9	28
2404.83	31
2405.75	24
2406.67	23
2407.6	22
2408.52	28
2409.44	26
2410.37	24
2411.29	25
2412.21	32
2413.13	27
2414.06	25
2414.98	28
2415.9	24
2416.82	20
2417.74	25
2418.67	28
2419.59	28
2420.51	27
2421.43	20
2422.35	28
2423.27	26
2424.19	25
2425.11	34
2426.03	27
2426.96	27
2427.88	28
2428.8	26
2429.72	28
2430.64	28
2431.56	27
2432.48	26
2433.39	29
2434.31	29
2435.23	22
2436.15	32
2437.07	25
2437.99	24
2438.91	28
2439.83	24
2440.75	29
2441.67	25
2442.58	30
2443.5	31
2444.42	26
2445.34	28
2446.26	27
2447.17	32
2448.09	27
2449.01	31
2449.92	30
2450.84	28
2451.76	29
2452.68	29
2453.59	30
2454.51	23
2455.42	29
2456.34	28
2457.26	25
2458.17	25
2459.09	25
2460	26
2460.92	28
2461.83	25
2462.75	30
2463.66	22
2464.58	24
2465.49	32
2466.41	29
2467.32	24
2468.24	21
2469.15	26
2470.07	26
2470.98	32
2471.89	28
2472.81	28
2473.72	31
2474.64	30
2475.55	22
2476.46	29
2477.37	27
2478.29	29
2479.2	30
2480.11	24
2481.03	27
2481.94	29
2482.85	26
2483.76	27
2484.67	22
2485.59	26
2486.5	34
2487.41	26
2488.32	26
2489.23	26
2490.14	25
2491.05	27
2491.97	25
2492.88	22
2493.79	26
2494.7	31
2495.61	28
2496.52	29
2497.43	29
2498.34	30
2499.25	26
2500.16	24
2501.07	28
2501.98	26
2502.89	24
2503.79	26
2504.7	22
2505.61	22
2506.52	22
2507.43	31
2508.34	26
2509.25	21
2510.16	26
2511.06	25
2511.97	21
2512.88	22
2513.79	26
2514.69	30
2515.6	28
2516.51	30
2517.42	26
2518.32	24
2519.23	28
2520.14	32
2521.04	26
2521.95	30
2522.86	28
2523.76	25
2524.67	29
2525.57	25
2526.48	28
2527.39	26
2528.29	29
2529.2	25
2530.1	26
2531.01	26
2531.91	27
2532.82	31
2533.72	28
2534.63	30
2535.53	26
2536.44	30
2537.34	31
2538.24	26
2539.15	27
2540.05	26
2540.96	28
2541.86	27
2542.76	26
2543.67	26
2544.57	28
2545.47	30
2546.37	29
2547.28	26
2548.18	29
2549.08	27
2549.99	27
2550.89	27
2551.79	32
2552.69	28
2553.59	25
2554.49	28
2555.4	25
2556.3	26
2557.2	30
2558.1	24
2559	24
2559.9	24
2560.8	30
2561.7	25
2562.6	32
2563.5	26
2564.4	24
2565.3	24
2566.2	28
2567.1	22
2568	30
2568.9	26
2569.8	30
2570.7	25
2571.6	28
2572.5	23
2573.4	26
2574.3	28
2575.2	28
2576.1	34
2576.99	22
2577.89	27
2578.79	31
2579.69	24
2580.59	24
2581.48	28
2582.38	25
2583.28	25
2584.18	28
2585.07	30
2585.97	28
2586.87	22
2587.76	30
2588.66	25
2589.56	24
2590.45	29
2591.35	29
2592.25	30
2593.14	28
2594.04	26
2594.93	32
2595.83	27
2596.73	22
2597.62	26
2598.52	26
2599.41	30
2600.31	27
2601.2	29
2602.1	29
2602.99	31
2603.88	28
2604.78	27
2605.67	26
2606.57	26
2607.46	28
2608.35	30
2609.25	26
2610.14	29
2611.03	28
2611.93	34
2612.82	28
2613.71	26
2614.61	24
2615.5	26
2616.39	28
2617.29	26
2618.18	32
2619.07	29
2619.96	26
2620.85	23
2621.75	26
2622.64	26
2623.53	24
2624.42	27
2625.31	28
2626.2	26
2627.09	29
2627.98	24
2628.88	25
2629.77	25
2630.66	28
2631.55	24
2632.44	22
2633.33	31
2634.22	28
2635.11	29
2636	26
2636.89	29
2637.78	24
2638.66	22
2639.55	30
2640.44	27
2641.33	24
2642.22	34
2643.11	22
2644	28
2644.89	32
2645.78	26
2646.66	32
2647.55	30
2648.44	26
2649.33	26
2650.21	25
2651.1	26
2651.99	23
2652.88	22
2653.76	27
2654.65	25
2655.54	22
2656.42	31
2657.31	31
2658.2	30
2659.08	28
2659.97	25
2660.86	31
2661.74	28
2662.63	28
2663.51	29
2664.4	24
2665.29	24
2666.17	28
2667.06	22
2667.94	26
2668.83	24
2669.71	24
2670.6	24
2671.48	28
2672.36	30
2673.25	32
2674.13	21
2675.02	28
2675.9	24
2676.78	26
2677.67	29
2678.55	27
2679.43	29
2680.32	28
2681.2	25
2682.08	26
2682.97	30
2683.85	28
2684.73	27
2685.61	24
2686.5	28
2687.38	22
2688.26	32
2689.14	24
2690.03	26
2690.91	26
2691.79	26
2692.67	26
2693.55	26
2694.43	28
2695.31	28
2696.19	29
2697.08	26
2697.96	22
2698.84	25
2699.72	25
2700.6	25
2701.48	34
2702.36	24
2703.24	30
2704.12	28
2705	28
2705.88	28
2706.76	28
2707.64	24
2708.51	28
2709.39	30
2710.27	27
2711.15	25
2712.03	27
2712.91	24
2713.79	22
2714.67	25
2715.54	28
2716.42	30
2717.3	23
2718.18	29
2719.05	26
2719.93	30
2720.81	26
2721.69	24
2722.56	28
2723.44	22
2724.32	25
2725.19	24
2726.07	23
2726.95	28
2727.82	29
2728.7	28
2729.58	29
2730.45	33
2731.33	27
2732.2	20
2733.08	24
2733.95	28
2734.83	26
2735.7	24
2736.58	31
2737.45	28
2738.33	32
2739.2	26
2740.08	26
2740.95	26
2741.83	27
2742.7	29
2743.58	28
2744.45	30
2745.32	30
2746.2	20
2747.07	29
2747.94	28
2748.82	28
2749.69	28
2750.56	24
2751.44	27
2752.31	32
2753.18	26
2754.05	26
2754.93	29
2755.8	24
2756.67	29
2757.54	28
2758.42	25
2759.29	30
2760.16	28
2761.03	30
2761.9	27
2762.77	26
2763.64	26
2764.51	32
2765.38	27
2766.26	26
2767.13	26
2768	24
2768.87	24
2769.74	25
2770.61	28
2771.48	31
2772.35	18
2773.22	31
2774.09	23
2774.96	26
2775.83	30
2776.7	26
2777.56	27
2778.43	26
2779.3	25
2780.17	29
2781.04	35
2781.91	24
2782.78	26
2783.64	27
2784.51	28
2785.38	26
2786.25	28
2787.12	27
2787.98	26
2788.85	26
2789.72	27
2790.59	29
2791.45	28
2792.32	22
2793.19	27
2794.05	29
2794.92	28
2795.79	24
2796.65	30
2797.52	26
2798.38	28
2799.25	26
2800.12	30
2800.98	31
2801.85	31
2802.71	28
2803.58	30.5
2804.44	33
2805.31	27
2806.17	26
2807.04	27
2807.9	27
2808.77	29
2809.63	28
2810.5	35
2811.36	30
2812.22	32
2813.09	21
2813.95	25
2814.82	24
2815.68	30
2816.54	28
2817.41	30
2818.27	30
2819.13	28
2820	28
2820.86	32
2821.72	30
2822.58	30
2823.45	29
2824.31	29
2825.17	26
2826.03	27
2826.9	25
2827.76	30
2828.62	29
2829.48	27
2830.34	30
2831.2	30
2832.06	34
2832.92	24
2833.79	24
2834.65	26
2835.51	28
2836.37	28
2837.23	25
2838.09	24
2838.95	30
2839.81	27
2840.67	27
2841.53	24
2842.39	28
2843.25	28
2844.11	31
2844.97	30
2845.83	33
2846.68	24
2847.54	30
2848.4	24
2849.26	30
2850.12	22
2850.98	27
2851.84	26
2852.69	28
2853.55	26
2854.41	30
2855.27	28
2856.13	26
2856.98	27
2857.84	28
2858.7	28
2859.56	26
2860.41	24
2861.27	30
2862.13	30
2862.98	31
2863.84	24
2864.7	22
2865.55	24
2866.41	29
2867.27	28
2868.12	31
2868.98	34
2869.83	31
2870.69	26
2871.54	28
2872.4	32
2873.25	29
2874.11	32
2874.96	29
2875.82	34
2876.68	32
2877.53	30
2878.38	27
2879.24	31
2880.09	32
2880.95	32
2881.8	32
2882.65	34
2883.51	33
2884.36	34
2885.22	30
2886.07	34
2886.92	38
2887.77	30
2888.63	34
2889.48	32
2890.33	36
2891.19	39
2892.04	35
2892.89	35
2893.74	42
2894.6	36
2895.45	41
2896.3	42
2897.15	46
2898	45
2898.85	47
2899.71	45
2900.56	52
2901.41	54
2902.26	50
2903.11	64
2903.96	64
2904.81	55
2905.66	59
2906.51	64
2907.36	60
2908.21	55
2909.06	58
2909.91	58
2910.76	48
2911.61	52
2912.46	53
2913.31	52
2914.16	46
2915.01	43
2915.86	44
2916.71	47
2917.56	36
2918.41	39
2919.26	30
2920.1	32
2920.95	33
2921.8	32
2922.65	39
2923.5	37
2924.34	34
2925.19	28
2926.04	29
2926.89	32
2927.74	30
2928.58	32
2929.43	32
2930.28	30
2931.12	25
2931.97	30
2932.82	32
2933.66	24
2934.51	29
2935.36	30
2936.2	24
2937.05	31
2937.89	26
2938.74	28
2939.59	24
2940.43	29
2941.28	28
2942.12	28
2942.97	29
2943.81	28
2944.66	26
2945.5	35
2946.35	30
2947.19	32
2948.04	33
2948.88	29
2949.72	28
2950.57	33
2951.41	31
2952.26	29
2953.1	37
2953.94	31
2954.79	32
2955.63	28
2956.47	38
2957.32	34
2958.16	36
2959	38
2959.85	34
2960.69	42
2961.53	39
2962.37	35
2963.22	40
2964.06	41
2964.9	37
2965.74	42
2966.58	43
2967.42	34
2968.27	43
2969.11	36
2969.95	43
2970.79	38
2971.63	42
2972.47	36
2973.31	32
2974.15	34
2974.99	30
2975.83	30
2976.68	35
2977.52	30
2978.36	30
2979.2	33
2980.04	28
2980.88	35
2981.71	31
2982.55	26
2983.39	24
2984.23	36
2985.07	26
2985.91	32
2986.75	26
2987.59	24
2988.43	28
2989.27	30
2990.1	24
2990.94	23
2991.78	31
2992.62	31
2993.46	27
2994.3	29
2995.13	30
2995.97	28
2996.81	24
2997.64	27
2998.48	29
2999.32	28
