#Acq. time (s)=	3
#Accumulations=	3
#Range (cm-¹)=	100...3000
#Windows=	3
#Autofocus=	Off
#AutoExposure=	Off
#Spike filter=	Multiple accum.
#Delay time (s)=	0
#Binning=	1
#Readout mode=	Signal
#DeNoise=	Off
#ICS correction=	Off
#Dark correction=	Off
#Inst. Process=	Off
#Instrument=	LabRAM HR Evol
#Detector=	Syncerity OE
#Objective=	x100_VIS_LWD
#Grating=	600 (500nm)
#ND Filter=	25%
#Laser=	633nm_Edge
#Hole=	100.021
#Range=	Visible
#Project=	Bolus
#Sample=	B1
#Site=	stripside
#Title=	m09
#Remark=	
#Date=	03.11.2025 17:00
#Acquired=	03.11.2025 17:00:49
100.969	31
102.252	30
103.535	37
104.818	34
106.101	36
107.384	33
108.666	33
109.948	28
111.232	37
112.514	29
113.795	35
115.077	26
116.358	37
117.639	32
118.919	33
120.2	34
121.48	36
122.76	29
124.04	32
125.32	32
126.599	30
127.879	36
129.158	32
130.436	37
131.715	35
132.992	35
134.27	34
135.548	34
136.826	35
138.104	40
139.381	34
140.658	28
141.935	32
143.212	36
144.489	36
145.763	33
147.04	42
148.315	40
149.591	36
150.867	40
152.142	39
153.416	35
154.691	41
155.965	38
157.24	40
158.514	39
159.786	41
161.06	43
162.334	40
163.607	35
164.881	42
166.152	42
167.425	39
168.698	38
169.969	41
171.241	41
172.513	39
173.785	38
175.055	35
176.326	34
177.597	34
178.867	40
180.137	41
181.408	34
182.677	41
183.947	40
185.217	41
186.485	41
187.755	42
189.022	39
190.291	36
191.56	40
192.828	37
194.096	39
195.363	38
196.631	38
197.899	40
199.165	35
200.432	38
201.698	38
202.965	32
204.23	32
205.497	37
206.762	30
208.028	37
209.293	38
210.559	35
211.823	37
213.088	32
214.352	32
215.617	34
216.88	32
218.145	30
219.408	37
220.672	35
221.934	38
223.196	33
224.46	32
225.722	32
226.985	28
228.246	33
229.508	34
230.77	34
232.031	35
233.292	34
234.554	34
235.814	30
237.074	35
238.335	29
239.595	32
240.854	32
242.115	28
243.374	34
244.633	32
245.893	34
247.151	27
248.409	34
249.667	30
250.927	36
252.184	29
253.442	28
254.699	27
255.957	29
257.214	30
258.47	31
259.727	37
260.983	30
262.24	34
263.496	37
264.752	32
266.007	32
267.262	31
268.517	33
269.773	31
271.028	30
272.282	28
273.536	32
274.79	33
276.044	30
277.297	28
278.551	30
279.804	29
281.057	30
282.31	28
283.564	34
284.816	30
286.068	26
287.32	25
288.572	35
289.823	32
291.074	35
292.325	31
293.576	32
294.827	33
296.077	36
297.328	36
298.578	30
299.828	32
301.077	30
302.325	28
303.575	28
304.824	30
306.073	28
307.321	22
308.57	28
309.818	30
311.066	30
312.314	30
313.562	37
314.808	28
316.055	30
317.302	28
318.549	31
319.796	34
321.042	28
322.288	30
323.533	32
324.779	31
326.024	32
327.27	32
328.515	28
329.759	32
331.004	36
332.248	26
333.493	28
334.736	32
335.98	26
337.223	32
338.466	27
339.709	31
340.952	30
342.195	33
343.437	32
344.68	31
345.922	28
347.163	36
348.405	31
349.647	26
350.887	30
352.128	32
353.37	28
354.609	34
355.85	33
357.089	36
358.33	28
359.57	34
360.809	32
362.049	26
363.287	34
364.526	30
365.764	29
367.003	26
368.241	34
369.479	32
370.718	35
371.955	38
373.193	24
374.429	36
375.667	30
376.903	30
378.139	34
379.376	30
380.611	31
381.848	32
383.083	26
384.319	32
385.554	32
386.79	34
388.024	33
389.258	34
390.493	27
391.727	30
392.962	31
394.195	30
395.428	28
396.663	30
397.895	32
399.128	24
400.361	33
401.593	32
402.825	28
404.058	34
405.29	30
406.521	28
407.752	31
408.985	31
410.215	30
411.446	33
412.678	34
413.908	28
415.138	32
416.367	33
417.597	28
418.828	30
420.057	32
421.286	34
422.514	34
423.743	33
424.973	24
426.201	34
427.429	30
428.657	33
429.884	30
431.112	34
432.34	32
433.567	38
434.794	28
436.02	35
437.247	33
438.473	36
439.699	32
440.925	30
442.15	34
443.376	31
444.601	34
445.826	32
447.051	38
448.275	26
449.5	31
450.724	32
451.948	31
453.172	34
454.396	26
455.619	33
456.842	38
458.065	35
459.288	34
460.511	32
461.733	34
462.956	36
464.178	33
465.4	35
466.621	30
467.843	34
469.064	38
470.285	33
471.505	37
472.726	37
473.946	32
475.166	38
476.387	36
477.606	38
478.825	41
480.044	43
481.264	43
482.483	44
483.702	44
484.921	53
486.138	42
487.356	46
488.574	47
489.792	48
491.009	54
492.226	55
493.444	54
494.661	49
495.877	50
497.094	48
498.31	40
499.525	42
500.741	42
501.958	36
503.172	41
504.388	40
505.603	40
506.817	40
508.032	36
509.247	36
510.46	34
511.675	34
512.888	37
514.102	37
515.316	34
516.528	30
517.742	32
518.954	37
520.167	34
521.378	33
522.591	33
523.802	34
525.015	38
526.226	33
527.438	32
528.648	35
529.86	33
531.07	34
532.281	36
533.491	30
534.702	32
535.911	34
537.121	31
538.33	33
539.54	32
540.749	32
541.957	31
543.167	36
544.375	35
545.584	36
546.791	32
547.999	34
549.207	30
550.414	30
551.621	32
552.829	35
554.035	32
555.241	34
556.449	40
557.655	34
558.86	25
560.066	26
561.272	31
562.477	30
563.682	33
564.888	24
566.093	31
567.297	30
568.501	36
569.705	26
570.91	28
572.114	27
573.317	34
574.52	35
575.723	32
576.927	36
578.13	32
579.332	30
580.535	34
581.737	34
582.938	32
584.14	30
585.343	33
586.544	30
587.745	29
588.946	35
590.147	31
591.347	32
592.548	32
593.748	24
594.948	32
596.147	40
597.347	31
598.546	34
599.745	30
600.944	26
602.143	35
603.342	33
604.54	31
605.738	33
606.937	29
608.134	36
609.332	27
610.529	34
611.727	33
612.924	26
614.121	33
615.317	34
616.513	30
617.709	35
618.905	34
620.101	29
621.297	30
622.492	31
623.688	28
624.883	34
626.077	29
627.271	28
628.466	30
629.66	30
630.855	34
632.047	31
633.241	31
634.435	32
635.629	30
636.82	32
638.014	34
639.207	28
640.399	30
641.59	31
642.783	30
643.975	37
645.166	32
646.357	33
647.549	32
648.741	32
649.93	35
651.122	33
652.311	34
653.502	31
654.692	31
655.881	34
657.071	34
658.261	34
659.45	30
660.639	36
661.827	33
663.016	28
664.204	35
665.393	36
666.581	34
667.769	28
668.957	34
670.143	36
671.331	26
672.518	36
673.705	33
674.891	36
676.078	32
677.264	36
678.451	32
679.636	32
680.821	35
682.007	33
683.192	38
684.378	37
685.562	40
686.747	36
687.931	37
689.115	37
690.3	30
691.483	38
692.666	32
693.851	39
695.034	32
696.216	37
697.4	37
698.582	24
699.764	37
700.948	38
702.129	34
703.311	31
704.493	41
705.674	40
706.855	48
708.036	44
709.218	46
710.399	49
711.579	44
712.759	42
713.939	50
715.12	36
716.299	35
717.478	36
718.657	39
719.836	34
721.015	38
722.195	35
723.373	28
724.552	37
725.729	36
726.907	34
728.085	34
729.262	28
730.44	32
731.617	32
732.795	30
733.972	33
735.148	26
736.324	33
737.501	33
738.677	31
739.852	29
741.028	31
742.203	34
743.379	32
744.554	33
745.729	33
746.903	24
748.078	35
749.252	30
750.426	31
751.599	32
752.772	29
753.946	34
755.119	31
756.293	32
757.466	31
758.639	35
759.811	34
760.984	32
762.155	30
763.327	33
764.499	30
765.67	34
766.842	29
768.013	32
769.183	30
770.354	26
771.525	28
772.696	37
773.865	30
775.035	36
776.205	30
777.375	33
778.544	30
779.713	36
780.882	28
782.052	34
783.219	37
784.388	34
785.557	30
786.724	32
787.892	38
789.06	31
790.227	33
791.395	31
792.562	32
793.728	33
794.895	30
796.061	31
797.228	36
798.395	32
799.56	32
800.726	30
801.891	32
803.057	22
804.221	26
805.387	26
806.551	34
807.716	31
808.879	38
810.044	34
811.208	34
812.372	30
813.535	30
814.699	26
815.862	30
817.025	28
818.188	30
819.351	30
820.513	35
821.675	34
822.837	28
823.999	33
825.161	32
826.322	28
827.483	30
828.645	32
829.805	30
830.966	26
832.127	28
833.287	31
834.447	34
835.607	30
836.767	31
837.926	28
839.085	31
840.245	31
841.404	28
842.562	33
843.72	24
844.88	32
846.038	31
847.195	32
848.353	29
849.512	32
850.669	29
851.826	34
852.983	28
854.139	29
855.296	35
856.453	29
857.609	30
858.765	29
859.921	35
861.077	30
862.232	31
863.387	32
864.542	31
865.697	30
866.852	31
868.008	29
869.162	29
870.316	32
871.47	26
872.624	28
873.778	31
874.931	36
876.084	30
877.237	28
878.39	29
879.543	27
880.695	28
881.846	32
882.999	31
884.151	33
885.302	31
886.454	28
887.606	37
888.757	29
889.908	34
891.059	32
892.21	27
893.359	30
894.509	31
895.659	32
896.81	30
897.959	28
899.109	34
900.257	29
901.407	33
902.556	28
903.705	30
904.854	32
906.001	28
907.149	30
908.298	32
909.446	31
910.592	30
911.74	28
912.888	30
914.034	35
915.181	30
916.328	28
917.473	30
918.62	32
919.766	32
920.911	28
922.058	32
923.204	28
924.348	31
925.494	22
926.638	32
927.783	33
928.928	32
930.072	28
931.216	29
932.36	30
933.504	28
934.647	34
935.791	32
936.933	31
938.077	27
939.219	29
940.363	31
941.504	28
942.647	34
943.789	32
944.932	31
946.073	30
947.215	32
948.356	32
949.498	32
950.638	29
951.778	26
952.92	32
954.06	31
955.199	31
956.34	31
957.479	34
958.62	32
959.759	27
960.898	30
962.038	30
963.176	30
964.315	32
965.453	30
966.592	32
967.73	30
968.867	36
970.006	28
971.144	30
972.281	28
973.418	28
974.554	28
975.692	28
976.829	30
977.965	29
979.101	28
980.237	34
981.374	32
982.509	34
983.645	26
984.78	28
985.915	32
987.05	30
988.184	29
989.319	30
990.453	27
991.589	28
992.722	31
993.856	36
994.99	29
996.123	26
997.257	30
998.39	30
999.523	28
1000.66	28
1001.79	36
1002.92	33
1004.05	20
1005.18	28
1006.32	34
1007.45	30
1008.58	30
1009.71	29
1010.84	30
1011.97	24
1013.1	29
1014.23	34
1015.36	18
1016.49	30
1017.62	26
1018.75	30
1019.88	25
1021.01	29
1022.14	32
1023.27	34
1024.4	33
1025.53	29
1026.66	30
1027.79	24
1028.91	27
1030.04	29
1031.17	24
1032.3	32
1033.42	32
1034.55	30
1035.68	32
1036.81	29
1037.93	29
1039.06	36
1040.18	30
1041.31	34
1042.44	29
1043.56	32
1044.69	28
1045.81	28
1046.94	34
1048.06	31
1049.19	32
1050.31	30
1051.44	30
1052.56	35
1053.69	26
1054.81	28
1055.93	27
1057.06	28
1058.18	34
1059.3	26
1060.43	30
1061.55	34
1062.67	33
1063.79	26
1064.92	28
1066.04	28
1067.16	33
1068.28	30
1069.4	33
1070.52	33
1071.65	34
1072.77	34
1073.89	34
1075.01	32
1076.13	28
1077.25	31
1078.37	26
1079.49	35
1080.61	30
1081.73	30
1082.85	30
1083.97	26
1085.09	29
1086.2	30
1087.32	34
1088.44	31
1089.56	30
1090.68	30
1091.8	32
1092.91	30
1094.03	32
1095.15	24
1096.26	31
1097.38	32
1098.5	27
1099.61	31
1100.73	32
1101.85	30
1102.96	30
1104.08	25
1105.19	30
1106.31	30
1107.43	26
1108.54	29
1109.66	28
1110.77	31
1111.88	31
1113	29
1114.11	30
1115.23	34
1116.34	30
1117.46	24
1118.57	28
1119.68	34
1120.8	30
1121.91	28
1123.02	20
1124.13	33
1125.25	28
1126.36	28
1127.47	23
1128.58	31
1129.69	31
1130.8	28
1131.92	31
1133.03	30
1134.14	31
1135.25	22
1136.36	27
1137.47	32
1138.58	30
1139.69	27
1140.8	28
1141.91	26
1143.02	24
1144.13	24
1145.24	32
1146.35	30
1147.46	32
1148.56	25
1149.67	28
1150.78	30
1151.89	30
1153	26
1154.1	24
1155.21	32
1156.32	28
1157.43	24
1158.53	28
1159.64	27
1160.75	32
1161.85	32
1162.96	29
1164.07	26
1165.17	26
1166.28	30
1167.38	30
1168.49	28
1169.59	31
1170.7	34
1171.8	28
1172.91	28
1174.01	23
1175.12	26
1176.22	24
1177.32	24
1178.43	30
1179.53	26
1180.64	28
1181.74	33
1182.84	28
1183.94	27
1185.05	27
1186.15	30
1187.25	29
1188.35	28
1189.46	30
1190.56	30
1191.66	33
1192.76	29
1193.86	27
1194.96	27
1196.06	33.9706
1197.16	27.9668
1198.26	26.0607
1199.37	28.061
1200.47	27.9515
1201.57	27.0343
1202.67	27.024
1203.77	30.79
1204.86	26.9844
1205.96	26.1083
1207.06	31.633
1208.16	30.6656
1209.26	26.4304
1210.36	28.1975
1211.46	25.4971
1212.56	24.305
1213.65	29.6673
1214.75	32.6611
1215.85	31.6373
1216.95	26.6731
1218.04	25.8039
1219.14	29.6904
1220.24	26.3388
1221.33	24.3737
1222.43	23.1356
1223.53	31.5
1224.62	28.5196
1225.72	25.3801
1226.82	32.4353
1227.91	26.8033
1229.01	30.5443
1230.1	29.439
1231.2	27.4604
1232.29	30.2665
1233.39	29.1227
1234.48	28.9315
1235.58	30
1236.67	28.4469
1237.77	28.9526
1238.86	27.9865
1239.95	28.9589
1241.05	27.5733
1242.14	25.508
1243.23	27.7206
1244.33	27.9085
1245.42	28.0772
1246.51	23.2506
1247.61	28.8008
1248.7	32.3148
1249.79	29.2941
1250.88	30.1655
1251.97	29.0384
1253.07	26.4929
1254.16	29.9703
1255.25	31.669
1256.34	30.1248
1257.43	29.4443
1258.52	30.3824
1259.61	29.1867
1260.7	28.583
1261.79	28.5931
1262.88	29.3324
1263.97	29.7828
1265.06	28.4304
1266.15	28.1029
1267.24	28.5955
1268.33	28.8804
1269.42	27.4515
1270.51	32.728
1271.6	28.0762
1272.68	25.8426
1273.77	23.2321
1274.86	27.0762
1275.95	28.6408
1277.04	30.6119
1278.12	29.4804
1279.21	29.5989
1280.3	27.3501
1281.39	26.9041
1282.47	29.0779
1283.56	26.2754
1284.65	29.4882
1285.73	28.1921
1286.82	27.8186
1287.91	28.5147
1288.99	27.4135
1290.08	26.2155
1291.16	28.6736
1292.25	25.3061
1293.33	27.2129
1294.42	31.1181
1295.5	31.4406
1296.59	27.6275
1297.67	28.1572
1298.76	30.8529
1299.84	30.3432
1300.92	27.2369
1302.01	29.6807
1303.09	27.6245
1304.17	23.7013
1305.26	30.0666
1306.34	30.7336
1307.34	28
1308.43	30
1309.52	28
1310.61	28
1311.7	29
1312.78	33
1313.87	31
1314.96	29
1316.04	26
1317.13	30
1318.22	29
1319.3	28
1320.39	22
1321.48	29
1322.56	26
1323.65	26
1324.73	27
1325.82	27
1326.9	31
1327.99	29
1329.07	30
1330.16	32
1331.24	27
1332.33	28
1333.41	30
1334.5	26
1335.58	33
1336.66	30
1337.75	25
1338.83	26
1339.91	34
1341	33
1342.08	31
1343.16	28
1344.24	28
1345.33	29
1346.41	28
1347.49	24
1348.57	28
1349.65	30
1350.74	30
1351.82	30
1352.9	28
1353.98	31
1355.06	31
1356.14	31
1357.22	31
1358.3	26
1359.38	26
1360.46	28
1361.54	24
1362.62	27
1363.7	33
1364.78	29
1365.86	30
1366.94	29
1368.02	31
1369.09	32
1370.17	30
1371.25	20
1372.33	28
1373.41	25
1374.48	32
1375.56	31
1376.64	33
1377.72	32
1378.79	28
1379.87	28
1380.95	31
1382.02	27
1383.1	30
1384.17	30
1385.25	30
1386.33	28
1387.4	26
1388.48	28
1389.55	31
1390.63	30
1391.7	29
1392.78	24
1393.85	33
1394.93	26
1396	31
1397.07	28
1398.15	26
1399.22	30
1400.3	29
1401.37	35
1402.44	36
1403.52	30
1404.59	32
1405.66	30
1406.73	32
1407.81	35
1408.88	33
1409.95	30
1411.02	31
1412.09	32
1413.17	32
1414.24	27
1415.31	31
1416.38	32
1417.45	31
1418.52	34
1419.59	31
1420.66	28
1421.73	29
1422.8	30
1423.87	27
1424.94	32
1426.01	25
1427.08	32
1428.15	30
1429.22	31
1430.29	32
1431.35	29
1432.42	27
1433.49	26
1434.56	28
1435.63	26
1436.69	30
1437.76	26
1438.83	30
1439.9	28
1440.96	33
1442.03	28
1443.1	30
1444.17	25
1445.23	30
1446.3	28
1447.36	28
1448.43	32
1449.49	28
1450.56	28
1451.63	35
1452.69	30
1453.76	26
1454.82	30
1455.89	27
1456.95	30
1458.01	31
1459.08	26
1460.14	28
1461.21	29
1462.27	31
1463.34	32
1464.4	28
1465.46	29
1466.52	27
1467.59	26
1468.65	28
1469.71	26
1470.77	28
1471.84	30
1472.9	29
1473.96	30
1475.02	30
1476.08	30
1477.15	31
1478.21	35
1479.27	35
1480.33	30
1481.39	29
1482.45	32
1483.51	31
1484.57	30
1485.63	26
1486.69	28
1487.75	30
1488.81	33
1489.87	33
1490.93	27
1491.99	22
1493.05	26
1494.1	29
1495.16	30
1496.22	32
1497.28	30
1498.34	31
1499.4	35
1500.45	28
1501.51	28
1502.57	29
1503.63	26
1504.68	32
1505.74	29
1506.8	34
1507.85	29
1508.91	30
1509.97	26
1511.02	28
1512.08	26
1513.13	28
1514.19	26
1515.24	31
1516.3	26
1517.35	32
1518.41	28
1519.46	29
1520.52	28
1521.57	30
1522.63	31
1523.68	25
1524.73	29
1525.79	26
1526.84	29
1527.9	26
1528.95	26
1530	26
1531.05	24
1532.11	29
1533.16	31
1534.21	26
1535.26	27
1536.32	29
1537.37	37
1538.42	30
1539.47	32
1540.52	26
1541.57	28
1542.63	30
1543.68	29
1544.73	28
1545.78	31
1546.83	30
1547.88	28
1548.93	32
1549.98	28
1551.03	20
1552.08	29
1553.13	32
1554.18	28
1555.23	31
1556.27	33
1557.32	31
1558.37	29
1559.42	28
1560.47	24
1561.52	28
1562.56	30
1563.61	31
1564.66	23
1565.71	26
1566.75	30
1567.8	30
1568.85	22
1569.9	27
1570.94	30
1571.99	29
1573.03	27
1574.08	30
1575.13	24
1576.17	34
1577.22	32
1578.26	26
1579.31	28
1580.35	33
1581.4	28
1582.44	29
1583.49	32
1584.53	34
1585.58	36
1586.62	26
1587.66	28
1588.71	27
1589.75	28
1590.8	30
1591.84	24
1592.88	28
1593.92	29
1594.97	28
1596.01	28
1597.05	32
1598.1	29
1599.14	33
1600.18	31
1601.22	29
1602.26	29
1603.3	28
1604.35	35
1605.39	24
1606.43	32
1607.47	34
1608.51	26
1609.55	30
1610.59	34
1611.63	32
1612.67	24
1613.71	28
1614.75	28
1615.79	22
1616.83	30
1617.87	32
1618.91	28
1619.95	33
1620.99	30
1622.02	28
1623.06	31
1624.1	32
1625.14	29
1626.18	26
1627.21	30
1628.25	26
1629.29	28
1630.33	31
1631.36	28
1632.4	31
1633.44	29
1634.48	31
1635.51	29
1636.55	30
1637.58	29
1638.62	32
1639.66	28
1640.69	30
1641.73	32
1642.76	32
1643.8	30
1644.83	27
1645.87	30
1646.9	31
1647.94	36
1648.97	31
1650	30
1651.04	29
1652.07	20
1653.11	32
1654.14	29
1655.17	29
1656.21	28
1657.24	25
1658.27	27
1659.31	26
1660.34	28
1661.37	29
1662.4	26
1663.43	29
1664.47	30
1665.5	29
1666.53	28
1667.56	34
1668.59	22
1669.62	30
1670.66	29
1671.69	32
1672.72	28
1673.75	25
1674.78	28
1675.81	27
1676.84	30
1677.87	33
1678.9	26
1679.93	31
1680.96	30
1681.98	29
1683.01	26
1684.04	32
1685.07	28
1686.1	30
1687.13	32
1688.16	29
1689.18	26
1690.21	29
1691.24	31
1692.27	27
1693.3	26
1694.32	32
1695.35	28
1696.38	28
1697.4	31
1698.43	26
1699.46	34
1700.48	30
1701.51	28
1702.54	34
1703.56	32
1704.59	22
1705.61	26
1706.64	29
1707.66	29
1708.69	28
1709.71	27
1710.74	31
1711.76	31
1712.79	31
1713.81	28
1714.83	24
1715.86	30
1716.88	33
1717.91	26
1718.93	29
1719.95	31
1720.98	30
1722	32
1723.02	28
1724.04	30
1725.07	32
1726.09	29
1727.11	31
1728.13	31
1729.15	29
1730.18	26
1731.2	28
1732.22	30
1733.24	26
1734.26	29
1735.28	29
1736.3	27
1737.32	30
1738.34	30
1739.36	26
1740.38	30
1741.4	32
1742.42	27
1743.44	29
1744.46	26
1745.48	28
1746.5	28
1747.52	29
1748.54	31
1749.56	24
1750.58	28
1751.6	24
1752.61	32
1753.63	27
1754.65	28
1755.67	30
1756.68	32
1757.7	24
1758.72	29
1759.74	27
1760.75	29
1761.77	33
1762.79	28
1763.8	28
1764.82	33
1765.83	26
1766.85	33
1767.87	20
1768.88	27
1769.9	26
1770.91	32
1771.93	27
1772.94	36
1773.96	29
1774.97	26
1775.99	30
1777	29
1778.02	27
1779.03	27
1780.04	22
1781.06	29
1782.07	34
1783.09	25
1784.1	30
1785.11	30
1786.13	30
1787.14	29
1788.15	27
1789.16	30
1790.18	24
1791.19	33
1792.2	34
1793.21	28
1794.22	31
1795.23	34
1796.25	33
1797.26	24
1798.27	28
1799.28	27
1800.29	30
1801.3	28
1802.31	29
1803.32	32
1804.33	25
1805.34	22
1806.35	28
1807.36	26
1808.37	28
1809.38	26
1810.39	32
1811.4	31
1812.41	33
1813.42	32
1814.42	25
1815.43	32
1816.44	33
1817.45	31
1818.46	27
1819.47	28
1820.47	28
1821.48	30
1822.49	28
1823.49	31
1824.5	29
1825.51	28
1826.52	29
1827.52	30
1828.53	22
1829.53	24
1830.54	30
1831.55	30
1832.55	28
1833.56	30
1834.56	29
1835.57	22
1836.57	26
1837.58	28
1838.58	30
1839.59	26
1840.59	34
1841.6	28
1842.6	28
1843.61	28
1844.61	31
1845.61	28
1846.62	26
1847.62	28
1848.62	27
1849.63	24
1850.63	26
1851.63	28
1852.64	29
1853.64	32
1854.64	26
1855.64	30
1856.64	28
1857.65	29
1858.65	29
1859.65	30
1860.65	28
1861.65	30
1862.65	25
1863.65	30
1864.66	29
1865.66	33
1866.66	30
1867.66	30
1868.66	24
1869.66	29
1870.66	24
1871.66	25
1872.66	30
1873.66	29
1874.66	30
1875.65	31
1876.65	24
1877.65	27
1878.65	30
1879.65	27
1880.65	27
1881.65	29
1882.64	30
1883.64	32
1884.64	32
1885.64	24
1886.63	28
1887.63	26
1888.63	28
1889.63	31
1890.62	32
1891.62	27
1892.62	31
1893.61	24
1894.61	32
1895.6	26
1896.6	28
1897.6	26
1898.59	29
1899.59	31
1900.58	31
1901.58	30
1902.57	31
1903.57	28
1904.56	28
1905.56	26
1906.55	29
1907.54	30
1908.54	29
1909.53	30
1910.53	30
1911.52	31
1912.51	32
1913.51	31
1914.5	28
1915.49	29
1916.49	22
1917.48	24
1918.47	26
1919.46	31
1920.46	32
1921.45	28
1922.44	30
1923.43	28
1924.42	24
1925.41	30
1926.41	30
1927.4	26
1928.39	27
1929.38	24
1930.37	32
1931.36	30
1932.35	29
1933.34	27
1934.33	26
1935.32	24
1936.31	26
1937.3	24
1938.29	28
1939.28	30
1940.27	23
1941.26	26
1942.24	26
1943.23	26
1944.22	26
1945.21	28
1946.2	32
1947.19	27
1948.17	30
1949.16	30
1950.15	31
1951.14	29
1952.12	29
1953.11	30
1954.1	26
1955.09	30
1956.07	30
1957.06	32
1958.05	31
1959.03	29
1960.02	30
1961	24
1961.99	27
1962.98	31
1963.96	21
1964.95	26
1965.93	22
1966.92	27
1967.9	28
1968.89	28
1969.87	27
1970.85	24
1971.84	24
1972.82	25
1973.81	26
1974.79	23
1975.78	30
1976.76	24
1977.74	32
1978.73	26
1979.71	26
1980.69	32
1981.67	27
1982.66	28
1983.64	24
1984.62	27
1985.6	22
1986.59	26
1987.57	32
1988.55	29
1989.53	27
1990.51	26
1991.49	30
1992.47	30
1993.45	26
1994.44	28
1995.42	28
1996.4	28
1997.38	27
1998.36	28
1999.34	32
2000.32	29
2001.3	28
2002.28	33
2003.26	28
2004.24	29
2005.22	30
2006.19	24
2007.17	30
2008.15	26
2009.13	28
2010.11	23
2011.09	28
2012.06	28
2013.04	26
2014.02	30
2015	30
2015.98	33
2016.95	25
2017.93	25
2018.91	26
2019.88	27
2020.86	28
2021.84	22
2022.81	24
2023.79	25
2024.77	26
2025.74	31
2026.72	28
2027.69	26
2028.67	25
2029.65	27
2030.62	22
2031.6	28
2032.57	28
2033.55	25
2034.52	25
2035.5	29
2036.47	24
2037.44	23
2038.42	26
2039.39	34
2040.36	31
2041.34	28
2042.31	28
2043.29	31
2044.26	30
2045.23	23
2046.2	22
2047.18	28
2048.15	20
2049.12	30
2050.09	26
2051.07	26
2052.04	28
2053.01	28
2053.98	24
2054.95	24
2055.93	25
2056.9	26
2057.87	24
2058.84	26
2059.81	29
2060.78	32
2061.75	26
2062.72	23
2063.69	24
2064.66	24
2065.63	20
2066.6	26
2067.57	34
2068.54	30
2069.51	25
2070.48	29
2071.45	29
2072.42	25
2073.38	32
2074.35	28
2075.32	31
2076.29	32
2077.26	27
2078.23	22
2079.19	28
2080.16	24
2081.13	31
2082.1	32
2083.06	26
2084.03	27
2085	23
2085.96	28
2086.93	26
2087.9	24
2088.86	28
2089.83	29
2090.8	27
2091.76	26
2092.73	32
2093.69	23
2094.66	25
2095.62	24
2096.59	30
2097.55	24
2098.52	25
2099.48	26
2100.45	28
2101.41	28
2102.38	29
2103.34	26
2104.31	27
2105.27	24
2106.23	25
2107.2	28
2108.16	29
2109.12	28
2110.09	28
2111.05	24
2112.01	24
2112.98	24
2113.94	22
2114.9	27
2115.86	28
2116.82	22
2117.79	30
2118.75	30
2119.71	22
2120.67	31
2121.63	26
2122.59	30
2123.55	23
2124.52	28
2125.48	29
2126.44	23
2127.4	24
2128.36	25
2129.32	26
2130.28	26
2131.24	25
2132.2	28
2133.16	22
2134.12	26
2135.08	22
2136.04	22
2136.99	28
2137.95	29
2138.91	29
2139.87	26
2140.83	24
2141.79	29
2142.75	26
2143.7	26
2144.66	30
2145.62	28.9829
2146.58	24.9505
2147.53	29.951
2148.49	26.0686
2149.45	30.8643
2150.41	26.0348
2151.36	23.881
2152.32	24.0133
2153.27	26.0602
2154.23	25.642
2155.19	29.4615
2156.14	23.591
2157.1	21.0984
2158.06	22.786
2159.01	29.4425
2159.97	26.4429
2160.92	21.6595
2161.88	24.1973
2162.83	24.7276
2163.79	23.5294
2164.74	23.4056
2165.7	25.5724
2166.65	25.0873
2167.61	26.7835
2168.56	25.5315
2169.51	28.2574
2170.47	29.7116
2171.42	21.7152
2172.38	26.3738
2173.33	28.0749
2174.28	25.1635
2175.24	27.6411
2176.19	25.0234
2177.14	23.4266
2178.09	26.2332
2179.05	28.8344
2180	24.7925
2180.95	21.1724
2181.9	25.4013
2182.86	26.6907
2183.81	26.1075
2184.76	25.7275
2185.71	28.1317
2186.66	26.647
2187.61	26.5082
2188.57	27.5083
2189.52	25.3368
2190.47	23.4582
2191.42	23.6355
2192.37	24.1177
2193.32	27.768
2194.27	27.298
2195.22	25.0835
2196.17	25.2055
2197.12	25.3608
2198.07	22.716
2199.02	26.7253
2199.97	26.635
2200.92	23.3278
2201.87	27.2014
2202.82	25.6578
2203.76	24.4873
2204.71	26.5119
2205.66	27.3843
2206.61	26.2889
2207.56	24.7489
2208.51	23.5408
2209.45	24.9879
2210.4	26.5007
2211.35	25.7415
2212.3	23.6924
2213.24	23.4951
2214.19	24.1949
2215.14	24
2216.09	25.8481
2217.03	27.2598
2217.98	27.5325
2218.93	24.4188
2219.87	24.9991
2220.82	26.6215
2221.77	26.7008
2222.71	27.4387
2223.66	22.1771
2224.6	25.7749
2225.55	25.9598
2226.49	21.1542
2227.44	23.9338
2228.38	26.1563
2229.33	23.2281
2230.27	23.9355
2231.22	25.6776
2232.16	27.3376
2233.11	28.3821
2234.05	25.7357
2235	28.3405
2235.94	28.0557
2236.88	26.5193
2237.83	26.2941
2238.77	22.5194
2239.71	23.6945
2240.66	24.8186
2241.6	24.0147
2242	24
2242.95	30
2243.9	25
2244.84	30
2245.79	25
2246.74	28
2247.69	28
2248.63	29
2249.58	28
2250.53	26
2251.47	30
2252.42	25
2253.37	28
2254.31	29
2255.26	26
2256.2	26
2257.15	28
2258.1	20
2259.04	22
2259.99	30
2260.93	27
2261.88	28
2262.82	27
2263.77	30
2264.71	20
2265.65	24
2266.6	27
2267.54	26
2268.49	24
2269.43	26
2270.38	25
2271.32	25
2272.26	27
2273.21	28
2274.15	28
2275.09	25
2276.04	27
2276.98	22
2277.92	30
2278.86	27
2279.81	22
2280.75	28
2281.69	24
2282.63	28
2283.57	32
2284.52	21
2285.46	29
2286.4	29
2287.34	31
2288.28	26
2289.22	26
2290.16	23
2291.1	30
2292.04	27
2292.98	26
2293.93	25
2294.86	28
2295.8	24
2296.74	21
2297.69	23
2298.62	26
2299.56	26
2300.5	22
2301.44	32
2302.38	27
2303.32	26
2304.26	26
2305.2	24
2306.14	28
2307.07	27
2308.01	28
2308.95	22
2309.89	28
2310.83	27
2311.76	30
2312.7	26
2313.64	27
2314.58	25
2315.51	25
2316.45	24
2317.39	28
2318.32	31
2319.26	27
2320.2	32
2321.13	26
2322.07	25
2323	28
2323.94	30
2324.88	24
2325.81	26
2326.75	32
2327.68	26
2328.62	32
2329.55	31
2330.49	24
2331.42	28
2332.36	26
2333.29	28
2334.22	23
2335.16	24
2336.09	28
2337.03	28
2337.96	28
2338.89	28
2339.83	28
2340.76	22
2341.69	22
2342.63	29
2343.56	26
2344.49	27
2345.43	29
2346.36	26
2347.29	30
2348.22	31
2349.15	19
2350.09	28
2351.02	26
2351.95	24
2352.88	20
2353.81	24
2354.74	30
2355.67	26
2356.61	26
2357.54	28
2358.47	25
2359.4	26
2360.33	31
2361.26	26
2362.19	28
2363.12	27
2364.05	30
2364.98	27
2365.91	30
2366.84	28
2367.77	24
2368.7	24
2369.62	28
2370.55	27
2371.48	26
2372.41	28
2373.34	28
2374.27	22
2375.2	27
2376.12	26
2377.05	27
2377.98	26
2378.91	28
2379.83	29
2380.76	29
2381.69	20
2382.62	25
2383.54	26
2384.47	28
2385.4	27
2386.32	26
2387.25	27
2388.18	25
2389.1	27
2390.03	22
2390.95	24
2391.88	30
2392.81	27
2393.73	29
2394.66	27
2395.58	27
2396.51	28
2397.43	32
2398.36	27
2399.28	24
2400.2	27
2401.13	25
2402.05	28
2402.98	25
2403.9	27
2404.83	30
2405.75	31
2406.67	24
2407.6	29
2408.52	28
2409.44	27
2410.37	29
2411.29	27
2412.21	29
2413.13	24
2414.06	25
2414.98	27
2415.9	27
2416.82	25
2417.74	27
2418.67	28
2419.59	29
2420.51	30
2421.43	27
2422.35	27
2423.27	28
2424.19	20
2425.11	31
2426.03	22
2426.96	28
2427.88	24
2428.8	31
2429.72	29
2430.64	28
2431.56	29
2432.48	26
2433.39	24
2434.31	28
2435.23	30
2436.15	28
2437.07	30
2437.99	23
2438.91	28
2439.83	29
2440.75	24
2441.67	27
2442.58	26
2443.5	33
2444.42	28
2445.34	22
2446.26	29
2447.17	22
2448.09	26
2449.01	27
2449.92	30
2450.84	26
2451.76	26
2452.68	24
2453.59	30
2454.51	27
2455.42	28
2456.34	28
2457.26	26
2458.17	27
2459.09	26
2460	31
2460.92	30
2461.83	26
2462.75	27
2463.66	30
2464.58	27
2465.49	26
2466.41	26
2467.32	28
2468.24	20
2469.15	28
2470.07	20
2470.98	24
2471.89	26
2472.81	29
2473.72	27
2474.64	28
2475.55	28
2476.46	27
2477.37	29
2478.29	26
2479.2	31
2480.11	32
2481.03	28
2481.94	26
2482.85	25
2483.76	28
2484.67	20
2485.59	25
2486.5	26
2487.41	25
2488.32	24
2489.23	23
2490.14	29
2491.05	30
2491.97	26
2492.88	29
2493.79	29
2494.7	30
2495.61	29
2496.52	27
2497.43	30
2498.34	30
2499.25	28
2500.16	26
2501.07	32
2501.98	28
2502.89	31
2503.79	24
2504.7	27
2505.61	22
2506.52	30
2507.43	28
2508.34	23
2509.25	28
2510.16	28
2511.06	30
2511.97	26
2512.88	31
2513.79	31
2514.69	32
2515.6	24
2516.51	29
2517.42	28
2518.32	26
2519.23	22
2520.14	28
2521.04	26
2521.95	27
2522.86	29
2523.76	26
2524.67	27
2525.57	32
2526.48	28
2527.39	25
2528.29	22
2529.2	25
2530.1	30
2531.01	22
2531.91	27
2532.82	23
2533.72	25
2534.63	28
2535.53	27
2536.44	29
2537.34	26
2538.24	30
2539.15	26
2540.05	24
2540.96	28
2541.86	30
2542.76	28
2543.67	32
2544.57	27
2545.47	27
2546.37	29
2547.28	30
2548.18	26
2549.08	24
2549.99	27
2550.89	29
2551.79	31
2552.69	30
2553.59	24
2554.49	30
2555.4	27
2556.3	30
2557.2	30
2558.1	25
2559	32
2559.9	25
2560.8	26
2561.7	24
2562.6	29
2563.5	33
2564.4	24
2565.3	32
2566.2	26
2567.1	27
2568	28
2568.9	27
2569.8	26
2570.7	26
2571.6	27
2572.5	31
2573.4	28
2574.3	30
2575.2	30
2576.1	28
2576.99	28
2577.89	29
2578.79	25
2579.69	28
2580.59	31
2581.48	24
2582.38	28
2583.28	22
2584.18	27
2585.07	28
2585.97	26
2586.87	25
2587.76	26
2588.66	25
2589.56	26
2590.45	28
2591.35	24
2592.25	30
2593.14	28
2594.04	30
2594.93	31
2595.83	26
2596.73	26
2597.62	26
2598.52	27
2599.41	28
2600.31	26
2601.2	24
2602.1	28
2602.99	30
2603.88	32
2604.78	28
2605.67	27
2606.57	29
2607.46	27
2608.35	32
2609.25	26
2610.14	22
2611.03	25
2611.93	25
2612.82	27
2613.71	22
2614.61	30
2615.5	29
2616.39	28
2617.29	29
2618.18	26
2619.07	28
2619.96	26
2620.85	26
2621.75	26
2622.64	30
2623.53	26
2624.42	28
2625.31	24
2626.2	30
2627.09	29
2627.98	24
2628.88	30
2629.77	26
2630.66	24
2631.55	27
2632.44	32
2633.33	28
2634.22	28
2635.11	26
2636	30
2636.89	24
2637.78	26
2638.66	29
2639.55	32
2640.44	26
2641.33	26
2642.22	28
2643.11	30
2644	24
2644.89	26
2645.78	26
2646.66	24
2647.55	32
2648.44	29
2649.33	29
2650.21	29
2651.1	28
2651.99	20
2652.88	22
2653.76	27
2654.65	28
2655.54	26
2656.42	24
2657.31	28
2658.2	28
2659.08	32
2659.97	24
2660.86	32
2661.74	30
2662.63	30
2663.51	28
2664.4	25
2665.29	24
2666.17	29
2667.06	25
2667.94	25
2668.83	25
2669.71	28
2670.6	34
2671.48	26
2672.36	27
2673.25	31
2674.13	22
2675.02	24
2675.9	28
2676.78	31
2677.67	25
2678.55	28
2679.43	27
2680.32	26
2681.2	26
2682.08	24
2682.97	28
2683.85	31
2684.73	30
2685.61	27
2686.5	26
2687.38	22
2688.26	20
2689.14	22
2690.03	30
2690.91	30
2691.79	31
2692.67	29
2693.55	29
2694.43	26
2695.31	28
2696.19	24
2697.08	30
2697.96	30
2698.84	27
2699.72	26
2700.6	28
2701.48	30
2702.36	23
2703.24	26
2704.12	29
2705	22
2705.88	27
2706.76	24
2707.64	27
2708.51	24
2709.39	28
2710.27	24
2711.15	26
2712.03	29
2712.91	26
2713.79	28
2714.67	27
2715.54	22
2716.42	31
2717.3	25
2718.18	30
2719.05	28
2719.93	28
2720.81	28
2721.69	30
2722.56	30
2723.44	28
2724.32	28
2725.19	32
2726.07	28
2726.95	20
2727.82	23
2728.7	24
2729.58	28
2730.45	28
2731.33	28
2732.2	27
2733.08	12
2733.95	30
2734.83	29
2735.7	24
2736.58	26
2737.45	21
2738.33	32
2739.2	31
2740.08	24
2740.95	28
2741.83	24
2742.7	25
2743.58	28
2744.45	28
2745.32	31
2746.2	27
2747.07	29
2747.94	27
2748.82	27
2749.69	26
2750.56	28
2751.44	27
2752.31	29
2753.18	28
2754.05	25
2754.93	26
2755.8	30
2756.67	31
2757.54	18
2758.42	28
2759.29	29
2760.16	31
2761.03	27
2761.9	28
2762.77	28
2763.64	24
2764.51	27
2765.38	28
2766.26	29
2767.13	30
2768	24
2768.87	29
2769.74	25
2770.61	29
2771.48	28
2772.35	30
2773.22	27
2774.09	30
2774.96	25
2775.83	27
2776.7	27
2777.56	26
2778.43	29
2779.3	29
2780.17	28
2781.04	29
2781.91	32
2782.78	27
2783.64	26
2784.51	26
2785.38	28
2786.25	24
2787.12	28
2787.98	32
2788.85	29
2789.72	29
2790.59	29
2791.45	28
2792.32	29
2793.19	29
2794.05	25
2794.92	28
2795.79	30
2796.65	29
2797.52	29
2798.38	28
2799.25	29
2800.12	23
2800.98	25
2801.85	28
2802.71	30
2803.58	29
2804.44	28
2805.31	29
2806.17	26
2807.04	25
2807.9	32
2808.77	28
2809.63	24
2810.5	28
2811.36	28
2812.22	34
2813.09	29
2813.95	30
2814.82	26
2815.68	24
2816.54	30
2817.41	30
2818.27	30
2819.13	32
2820	29
2820.86	24
2821.72	29
2822.58	26
2823.45	24
2824.31	28
2825.17	22
2826.03	28
2826.9	32
2827.76	27
2828.62	33
2829.48	24
2830.34	28
2831.2	28
2832.06	35
2832.92	30
2833.79	28
2834.65	22
2835.51	29
2836.37	30
2837.23	22
2838.09	29
2838.95	30
2839.81	28
2840.67	29
2841.53	32
2842.39	30
2843.25	27
2844.11	30
2844.97	29
2845.83	31
2846.68	24
2847.54	30
2848.4	28
2849.26	29
2850.12	20
2850.98	29
2851.84	24
2852.69	27
2853.55	26
2854.41	28
2855.27	32
2856.13	24
2856.98	32
2857.84	25
2858.7	28
2859.56	31
2860.41	24
2861.27	28
2862.13	30
2862.98	26
2863.84	28
2864.7	24
2865.55	26
2866.41	27
2867.27	25
2868.12	32
2868.98	32
2869.83	27
2870.69	29
2871.54	33
2872.4	34
2873.25	31
2874.11	31
2874.96	28
2875.82	34
2876.68	34
2877.53	32
2878.38	28
2879.24	32
2880.09	29
2880.95	34
2881.8	34
2882.65	30
2883.51	31
2884.36	30
2885.22	34
2886.07	36
2886.92	33
2887.77	34
2888.63	38
2889.48	34
2890.33	39
2891.19	34
2892.04	37
2892.89	38
2893.74	37
2894.6	38
2895.45	43
2896.3	42
2897.15	42
2898	46
2898.85	43
2899.71	53
2900.56	47
2901.41	52
2902.26	49
2903.11	50
2903.96	56
2904.81	50
2905.66	52
2906.51	58
2907.36	61
2908.21	56
2909.06	53
2909.91	55
2910.76	54
2911.61	54
2912.46	47
2913.31	48
2914.16	48
2915.01	43
2915.86	42
2916.71	38
2917.56	37
2918.41	37
2919.26	34
2920.1	36
2920.95	32
2921.8	39
2922.65	33
2923.5	29
2924.34	35
2925.19	33
2926.04	33
2926.89	36
2927.74	30
2928.58	32
2929.43	32
2930.28	32
2931.12	28
2931.97	32
2932.82	33
2933.66	28
2934.51	33
2935.36	27
2936.2	30
2937.05	30
2937.89	36
2938.74	32
2939.59	27
2940.43	24
2941.28	22
2942.12	33
2942.97	30
2943.81	30
2944.66	32
2945.5	30
2946.35	26
2947.19	28
2948.04	34
2948.88	28
2949.72	32
2950.57	32
2951.41	27
2952.26	31
2953.1	26
2953.94	32
2954.79	32
2955.63	32
2956.47	34
2957.32	38
2958.16	34
2959	37
2959.85	36
2960.69	35
2961.53	36
2962.37	39
2963.22	38
2964.06	40
2964.9	36
2965.74	36
2966.58	45
2967.42	40
2968.27	37
2969.11	36
2969.95	32
2970.79	36
2971.63	37
2972.47	37
2973.31	32
2974.15	39
2974.99	28
2975.83	29
2976.68	34
2977.52	33
2978.36	28
2979.2	22
2980.04	28
2980.88	31
2981.71	28
2982.55	30
2983.39	28
2984.23	26
2985.07	26
2985.91	28
2986.75	28
2987.59	24
2988.43	29
2989.27	32
2990.1	29
2990.94	28
2991.78	27
2992.62	24
2993.46	30
2994.3	22
2995.13	30
2995.97	26
2996.81	29
2997.64	29
2998.48	28
2999.32	25
