#Acq. time (s)=	5
#Accumulations=	5
#Range (cm-ｹ)=	100...3500
#Windows=	4
#Autofocus=	Off
#AutoExposure=	Off
#Spike filter=	Multiple accum.
#Delay time (s)=	0
#Binning=	1
#Readout mode=	Signal
#DeNoise=	Off
#ICS correction=	Off
#Dark correction=	Off
#Inst. Process=	Off
#Instrument=	LabRAM HR Evol
#Detector=	Syncerity OE
#Objective=	x100_VIS
#Grating=	600 (500nm)
#ND Filter=	25%
#Laser=	633nm_Edge
#Hole=	100.021
#Range=	Visible
#Project=	verificaciones
#Sample=	a1
#Site=	lined
#Title=	bolusa1plain
#Remark=	
#Date=	09.01.2026 16:14
#Acquired=	09.01.2026 16:14:33
100.695	30.5
101.978	32.5
103.262	37
104.545	34.5
105.829	30.5
107.112	25.5
108.394	34.5
109.676	33
110.958	26
112.24	28
113.522	32
114.803	36
116.084	31
117.365	30.5
118.646	30
119.927	31.5
121.207	29
122.487	30.5
123.767	35
125.047	33
126.326	35
127.606	34.5
128.885	35.5
130.164	32.5
131.442	37
132.721	36.5
133.999	36.5
135.277	38
136.555	36
137.831	34.5
139.109	38.5
140.386	34
141.663	36.5
142.94	41
144.216	39.5
145.493	41
146.769	45
148.043	41.5
149.319	40.5
150.595	41
151.87	43
153.145	44.5
154.42	39.5
155.693	46
156.968	43
158.242	45.5
159.516	44
160.79	44
162.062	44
163.336	46.5
164.609	40.5
165.882	45.5
167.153	45
168.426	47
169.699	42
170.971	44
172.241	44
173.513	39.5
174.785	43
176.055	40.5
177.326	39.5
178.597	44.5
179.866	37.5
181.137	43.5
182.407	44
183.676	41.5
184.946	43.5
186.216	49.5
187.484	41.5
188.753	40.5
190.022	38
191.29	48
192.558	43.5
193.825	42
195.094	46
196.36	47.5
197.628	41.5
198.896	41
200.162	40
201.429	37.5
202.695	39.5
203.962	37
205.227	38
206.493	35
207.758	38.5
209.024	36
210.289	36
211.554	38
212.818	35
214.083	35.5
215.347	38
216.612	36
217.875	37.5
219.138	34.5
220.402	37
221.665	31.5
222.928	39
224.19	30.5
225.454	32
226.715	30.5
227.977	33
229.24	34.5
230.501	30.5
231.762	32
233.024	30
234.284	32.5
235.546	34.5
236.806	31
238.066	32
239.327	32
240.587	30.5
241.846	36
243.105	29.5
244.365	30.5
245.624	34
246.882	31.5
248.142	31
249.4	32.5
250.658	25
251.916	35
253.174	30.5
254.432	29.5
255.689	30.5
256.945	30.5
258.202	28
259.46	29
260.716	25.5
261.972	29.5
263.228	31.5
264.483	30.5
265.74	32
266.996	31.5
268.251	26
269.505	31
270.76	30.5
272.014	26
273.268	30.5
274.522	30
275.778	29
277.031	30.5
278.285	27
279.538	28.5
280.791	29
282.043	30
283.296	31
284.548	27
285.8	25.5
287.052	29
288.304	31
289.556	32
290.807	29
292.058	27
293.309	29
294.56	25.5
295.81	28.5
297.061	30
298.311	24.5
299.561	35
300.81	26
302.06	26
303.309	31
304.558	27.5
305.807	26
307.056	29
308.305	29.5
309.551	32.5
310.8	29
312.047	34
313.295	29.5
314.543	28
315.79	32.5
317.037	28.5
318.284	32
319.529	28.5
320.776	25
322.022	25
323.268	29.5
324.514	31.5
325.758	31
327.004	28
328.249	31
329.494	31
330.739	28
331.982	30
333.227	27.5
334.471	30
335.715	28
336.958	26.5
338.201	26.5
339.445	29.5
340.687	32.5
341.93	31.5
343.173	28.5
344.414	32.5
345.657	27
346.899	30.5
348.14	28
349.381	26
350.623	33
351.863	28
353.104	32
354.346	30
355.585	29
356.826	28
358.065	28
359.305	31.5
360.545	27.5
361.784	29
363.023	24
364.261	30
365.501	29
366.738	33
367.977	29.5
369.216	29
370.453	30.5
371.691	28
372.928	27
374.166	30.5
375.402	32.5
376.64	30
377.876	25.5
379.111	28
380.348	32
381.584	27
382.82	29
384.055	27
385.291	25
386.526	30
387.76	26.5
388.996	26
390.229	26
391.465	26
392.698	28.5
393.931	29.5
395.166	30
396.399	27.5
397.632	26.5
398.866	24.5
400.098	24
401.33	28
402.563	24.5
403.795	26
405.027	26
406.259	27.5
407.491	25
408.721	29
409.954	30
411.184	25
412.415	27.5
413.645	26
414.876	27
416.106	24.5
417.335	29.5
418.565	30.5
419.794	27.5
421.024	30
422.253	30
423.482	28
424.71	24.5
425.938	27.5
427.168	31
428.396	25
429.623	29.5
430.851	25.5
432.078	27
433.305	27
434.532	28.5
435.758	25
436.986	26.5
438.212	30
439.438	26.5
440.664	29
441.89	31.5
443.115	29
444.34	24.5
445.566	25
446.79	29
448.015	31
449.24	30
450.464	30
451.688	29
452.912	34.5
454.135	28.5
455.359	29
456.582	28
457.805	32
459.028	29
460.251	28.5
461.473	32.5
462.696	30
463.918	30.5
465.14	33.5
466.36	26
467.582	28
468.803	37
470.024	35
471.245	33.5
472.466	36
473.686	36.5
474.907	44
476.126	39.5
477.346	45
478.565	44.5
479.785	53
481.004	53.5
482.224	57
483.441	57
484.66	61
485.879	67
487.097	63
488.314	70
489.532	61
490.75	68
491.967	66
493.184	59.5
494.401	55
495.618	51
496.835	55.5
498.05	51
499.267	49
500.483	48
501.698	45.5
502.913	43
504.129	41
505.343	39.5
506.559	36.5
507.774	41.5
508.987	38
510.202	35
511.415	35.5
512.63	34
513.844	34
515.056	36.5
516.27	33
517.482	31
518.696	31.5
519.907	31
521.121	33
522.332	30
523.545	31
524.757	30
525.968	30
527.18	30.5
528.39	29
529.602	30.5
530.812	32.5
532.023	33
533.233	31
534.443	29.5
535.653	31
536.862	33.5
538.073	31
539.281	29
540.491	32
541.7	32
542.908	27
544.117	27.5
545.325	32.5
546.534	29
547.741	31
548.949	27
550.157	30
551.364	30
552.57	30
553.778	29
554.985	28
556.191	25
557.398	24.5
558.604	28
559.809	30
561.014	26.5
562.221	29
563.426	29
564.63	33.5
565.835	28.5
567.041	26
568.245	25
569.449	28.5
570.653	25
571.856	27.5
573.061	23
574.264	23
575.467	28
576.67	24
577.873	31.5
579.076	26
580.279	27.5
581.481	27.5
582.683	28
583.884	30.5
585.086	30
586.287	27
587.488	28
588.689	30.5
589.891	27
591.092	25.5
592.292	29.5
593.492	27
594.692	27.5
595.892	27.5
597.092	24
598.291	28.5
599.49	25.5
600.689	26
601.888	20.5
603.087	31.5
604.285	28.5
605.483	27
606.681	26
607.879	32
609.077	28
610.274	27.5
611.472	28
612.668	29
613.865	29.5
615.061	27
616.258	29
617.454	30
618.65	28
619.846	30
621.042	26
622.238	28.5
623.432	29
624.627	28.5
625.822	30.5
627.017	27
628.212	27
629.406	31
630.599	27
631.793	30.5
632.987	31
634.181	27.5
635.373	29.5
636.566	26.5
637.76	27
638.953	24
640.144	26
641.337	30.5
642.529	30.5
643.721	26
644.912	30.5
646.104	29.5
647.295	28
648.485	27
649.677	28.5
650.868	27.5
652.057	27.5
653.248	30
654.437	28
655.628	30
656.818	31
658.006	31.5
659.196	25.5
660.384	30.5
661.574	30
662.763	30.5
663.951	28.5
665.14	34.5
666.327	29
667.515	28
668.702	36
669.891	31
671.077	33
672.265	27
673.451	30.5
674.638	31
675.824	27.5
677.011	33
678.197	28.5
679.383	29.5
680.568	32
681.755	30
682.939	33
684.124	41
685.309	34.5
686.494	38
687.679	36.5
688.863	39
690.046	35.5
691.231	35.5
692.414	40.5
693.599	33
694.781	33
695.964	39
697.148	31.5
698.33	36
699.512	38
700.694	41.5
701.877	44.5
703.059	43
704.24	49.5
705.423	44
706.604	49
707.784	61
708.965	57
710.147	56.5
711.327	49.5
712.507	51
713.687	45
714.867	40
716.048	39
717.227	32
718.406	32.5
719.585	32
720.764	31.5
721.942	27.5
723.122	32.5
724.3	30
725.478	30.5
726.656	30.5
727.834	26
729.011	25.5
730.189	29
731.366	31
732.543	28.5
733.719	28.5
734.896	27.5
736.072	30
737.249	29
738.426	28.5
739.602	27
740.777	26
741.953	28
743.128	26.5
744.303	29
745.477	27
746.651	30.5
747.826	32.5
749	28
750.174	29
751.348	28
752.522	27
753.696	26
754.869	26
756.043	29
757.216	29
758.389	28.5
759.561	29.5
760.732	30.5
761.905	28.5
763.077	32
764.249	26
765.421	27.5
766.592	27
767.762	29
768.934	29
770.105	28.5
771.275	28.5
772.446	28.5
773.615	27
774.786	29.5
775.956	29
777.126	28.5
778.294	28.5
779.464	31
780.633	30
781.801	28.5
782.97	31.5
784.139	32.5
785.306	32.5
786.475	34
787.643	35.5
788.81	32.5
789.978	30
791.146	31.5
792.312	30.5
793.479	31.5
794.647	30
795.812	33
796.979	25
798.144	28
799.311	29.5
800.477	24.5
801.642	32.5
802.808	28
803.972	31
805.138	28
806.302	30.5
807.467	28.5
808.631	25.5
809.796	27.5
810.959	27
812.124	28
813.287	24.5
814.451	28.5
815.614	25.5
816.777	33.5
817.94	26.5
819.102	26
820.265	26.5
821.427	22
822.59	27
823.751	25.5
824.912	28
826.074	26
827.235	20
828.397	28
829.558	25
830.718	26.5
831.879	27.5
833.039	29.5
834.199	30.5
835.359	26
836.519	32.5
837.679	28.5
838.838	26
839.998	27.5
841.156	27
842.315	27
843.473	22
844.633	27
845.791	30.5
846.948	26.5
848.106	28
849.263	26
850.422	25.5
851.579	28.5
852.736	33.5
853.892	28
855.049	28
856.205	28
857.363	27.5
858.519	30.5
859.674	29
860.83	29
861.986	33.5
863.141	29.5
864.296	23.5
865.451	29.5
866.605	27.5
867.76	28
868.914	28.5
870.069	29
871.224	27
872.378	28
873.531	24
874.685	29.5
875.838	29
876.991	25.5
878.144	26.5
879.296	25
880.448	25.5
881.6	30.5
882.753	28.5
883.905	26
885.057	28
886.208	31
887.36	19
888.511	29.5
889.662	27
890.813	25
891.964	24.5
893.113	25
894.264	30.5
895.414	24.5
896.564	26.5
897.714	25.5
898.864	30
900.012	25.5
901.161	24
902.31	25.5
903.459	27.5
904.607	27
905.756	24
906.904	27
908.052	24
909.199	26.5
910.347	26.5
911.495	21.5
912.643	27.5
913.789	24.5
914.936	26
916.083	25.5
917.229	23.5
918.375	23.5
919.522	24.5
920.667	22
921.813	26
922.959	25
924.104	28
925.249	26.5
926.393	27.5
927.539	26
928.684	25.5
929.827	21.5
930.972	26
932.115	26
933.26	29
934.403	28
935.547	26
936.689	22
937.833	28
938.975	24.5
940.119	26.5
941.26	25
942.404	25
943.545	26.5
944.688	26
945.829	25.5
946.971	28.5
948.112	26
949.253	26
950.394	25
951.535	28
952.676	24.5
953.816	28
954.956	27
956.097	27
957.236	27
958.377	28.5
959.516	28
960.655	26
961.793	27
962.933	25.5
964.071	26.5
965.21	26.5
966.349	24
967.487	23
968.624	27.5
969.762	25
970.901	25.25
972.038	23.5
973.175	25.5
974.311	24
975.449	22
976.586	25
977.722	23
978.858	25.5
979.994	29
981.131	25
982.267	31.5
983.402	24
984.537	25.5
985.672	29.5
986.807	25.5
987.942	27
989.076	25.5
990.211	26.5
991.346	29
992.48	22.5
993.614	28.5
994.748	29
995.881	24.5
997.014	26
998.148	22
999.28	23.5
1000.41	24
1001.55	24.5
1002.68	28.5
1003.81	25
1004.94	23.5
1006.07	24.5
1007.21	26.5
1008.34	29
1009.47	27.5
1010.6	26
1011.73	25
1012.86	27
1013.99	24.5
1015.12	22.5
1016.25	26
1017.38	24
1018.51	24.5
1019.64	27.5
1020.77	24
1021.9	25
1023.03	24.5
1024.16	25.5
1025.29	24.5
1026.42	27
1027.54	25.5
1028.67	25
1029.8	27
1030.93	25
1032.06	25
1033.18	22.5
1034.31	26
1035.44	24.5
1036.56	23
1037.69	27
1038.82	24.5
1039.94	24.5
1041.07	23
1042.2	26.5
1043.32	26
1044.45	27.5
1045.57	25
1046.7	23.5
1047.82	25
1048.95	25
1050.07	26.5
1051.2	22.5
1052.32	28.5
1053.45	29.5
1054.57	28.5
1055.69	25
1056.82	28.5
1057.94	28.5
1059.06	24.5
1060.19	22
1061.31	29
1062.43	21
1063.55	25
1064.68	26
1065.8	28.5
1066.92	30.5
1068.04	25
1069.16	23.5
1070.28	22.5
1071.41	30
1072.53	28
1073.65	27
1074.77	28
1075.89	25.5
1077.01	24
1078.13	25.5
1079.25	28.5
1080.37	23.5
1081.49	25.5
1082.61	22
1083.73	26.5
1084.85	23
1085.96	23
1087.08	26
1088.2	25
1089.32	26
1090.44	28
1091.56	24.5
1092.67	28
1093.79	21.5
1094.91	27.5
1096.03	26
1097.14	28.5
1098.26	24
1099.38	25
1100.49	25
1101.61	25
1102.73	28
1103.84	24.5
1104.96	26.5
1106.07	26.5
1107.19	25
1108.3	30.5
1109.42	19
1110.53	21.5
1111.65	26
1112.76	27
1113.88	23
1114.99	30
1116.1	26
1117.22	24
1118.33	20.5
1119.44	26
1120.56	20
1121.67	26
1122.78	26
1123.9	19
1125.01	21
1126.12	24
1127.23	26.5
1128.34	21.5
1129.46	24.5
1130.57	24.5
1131.68	28
1132.79	28
1133.9	27
1135.01	23
1136.12	26
1137.23	27.5
1138.34	21.5
1139.45	25.5
1140.56	25
1141.67	25.5
1142.78	26
1143.89	23
1145	24
1146.11	26.5
1147.22	24
1148.33	21
1149.44	23
1150.54	24
1151.65	25
1152.76	21
1153.87	23
1154.97	29
1156.08	26
1157.19	23.5
1158.3	23.5
1159.4	22
1160.51	23
1161.62	22
1162.72	22
1163.83	25.5
1164.93	24
1166.04	22
1167.15	25.5
1168.25	26
1169.36	24.5
1170.46	25.5
1171.57	26
1172.67	24.5
1173.78	27.5
1174.88	22.5
1175.98	24
1177.09	25.5
1178.19	24
1179.3	22
1180.4	27
1181.5	22.5
1182.61	23.5
1183.71	26.5
1184.81	24.5
1185.91	24
1187.02	24.5
1188.12	23
1189.22	25.5
1190.32	23
1191.42	27
1192.53	24
1193.63	23.5
1194.73	24.5004
1195.83	22.4472
1196.93	21.6362
1198.03	23.1345
1199.13	21.639
1200.23	25.8665
1201.33	30.0199
1202.43	23.3247
1203.53	21.2142
1204.63	30.8169
1205.73	26.3335
1206.83	24.6141
1207.93	22.381
1209.02	23.1752
1210.12	25.4782
1211.22	24.6203
1212.32	22.4559
1213.42	21.4716
1214.52	21.2564
1215.61	22.8372
1216.71	26.6583
1217.81	24.0588
1218.91	23.9485
1220	23.4015
1221.1	23.7896
1222.2	23.5961
1223.29	22.2159
1224.39	25.9117
1225.49	24.1565
1226.58	26.9046
1227.68	23.4871
1228.77	24.3631
1229.87	26.4613
1230.96	22.8374
1232.06	22.1562
1233.15	21.3554
1234.25	23.1559
1235.34	25.1968
1236.44	25.9376
1237.53	22.6505
1238.63	26.6544
1239.72	24.7019
1240.81	23.9381
1241.91	25.1642
1243	22.7212
1244.09	21.8903
1245.19	22.9029
1246.28	22.925
1247.37	23.6755
1248.46	23.8231
1249.56	27.4265
1250.65	26.0212
1251.74	24.7595
1252.83	26.269
1253.92	26.9933
1255.01	26.8504
1256.11	24.8848
1257.2	24.3495
1258.29	24.566
1259.38	26.5045
1260.47	25.5415
1261.56	27.9475
1262.65	25.4309
1263.74	25.0413
1264.83	27.8689
1265.92	24.5787
1267.01	26.5627
1268.1	23.6617
1269.19	24.0041
1270.27	25.9776
1271.36	22.5079
1272.45	22.8422
1273.54	25.8604
1274.63	24.2274
1275.72	25.5534
1276.8	22.1878
1277.89	24.1448
1278.98	23.6814
1280.07	22.7545
1281.15	24.2259
1282.24	25.4275
1283.33	23.9236
1284.41	25.1983
1285.5	23.0451
1286.59	23.8382
1287.67	26.5483
1288.76	23.6002
1289.84	22.7685
1290.93	24.3184
1292.01	22.4355
1293.1	21.6507
1294.19	23.8823
1295.27	23.6418
1296.35	26.2852
1297.44	21.4487
1298.52	23.1134
1299.61	21.7883
1300.69	25.7279
1301.78	23.7821
1302.86	23.3086
1303.94	24.5046
1305.03	24.9782
1306.11	23.9005
1306.4	23.5
1307.49	26
1308.57	25
1309.66	24.5
1310.75	24.5
1311.84	22
1312.92	25
1314.01	21
1315.1	24.5
1316.19	23
1317.27	27.5
1318.36	21
1319.45	22.5
1320.53	24
1321.62	25
1322.7	24.5
1323.79	24
1324.88	21
1325.96	26.5
1327.05	28.5
1328.13	23
1329.21	22.5
1330.3	27.5
1331.38	26.5
1332.47	25.5
1333.55	24.5
1334.64	25
1335.72	23.5
1336.8	24.5
1337.89	24
1338.97	27
1340.05	24
1341.14	20
1342.22	25
1343.3	23
1344.39	26
1345.47	24
1346.55	24.5
1347.63	27
1348.71	22.5
1349.79	21
1350.88	23
1351.96	21.5
1353.04	28
1354.12	21.5
1355.2	28
1356.28	21
1357.36	24
1358.44	23.5
1359.52	18
1360.6	23
1361.68	22.5
1362.76	23
1363.84	27
1364.92	26
1366	20.5
1367.08	24
1368.16	23
1369.23	26
1370.31	26
1371.39	25
1372.47	21
1373.55	25
1374.62	25.5
1375.7	27.5
1376.78	26
1377.85	21
1378.93	22.5
1380.01	24
1381.09	25.5
1382.16	26.5
1383.24	25.5
1384.31	25.5
1385.39	27.5
1386.47	28
1387.54	29
1388.62	26
1389.69	22.5
1390.77	24
1391.84	27
1392.92	29.5
1393.99	25
1395.06	24
1396.14	27.5
1397.21	28
1398.29	27
1399.36	33
1400.43	31.5
1401.51	32
1402.58	33
1403.65	32.5
1404.73	30
1405.8	30
1406.87	28
1407.94	32.5
1409.02	30.5
1410.09	31.5
1411.16	31.5
1412.23	29.5
1413.3	33.5
1414.37	35
1415.45	32.5
1416.52	29
1417.59	33
1418.66	27.5
1419.73	28.5
1420.8	27.5
1421.87	29.5
1422.94	23
1424.01	27
1425.08	29
1426.15	24
1427.22	26
1428.29	26.5
1429.35	26
1430.42	26
1431.49	27
1432.56	26.5
1433.63	22
1434.7	29
1435.77	26.5
1436.83	26
1437.9	26
1438.97	26
1440.04	23.5
1441.1	25
1442.17	27
1443.24	23
1444.3	26.5
1445.37	31
1446.44	30
1447.5	26.5
1448.57	26
1449.63	26.5
1450.7	29.5
1451.76	28.5
1452.83	26
1453.89	24
1454.96	28.5
1456.02	28
1457.09	21
1458.15	22
1459.22	24
1460.28	23
1461.34	28
1462.41	22
1463.47	27
1464.54	29.5
1465.6	25.5
1466.66	26
1467.72	29.5
1468.79	26.5
1469.85	22
1470.91	27.5
1471.97	27.5
1473.04	28.5
1474.1	25
1475.16	26.5
1476.22	26
1477.28	26
1478.34	26.5
1479.4	22
1480.47	28
1481.53	27
1482.59	27.5
1483.65	26
1484.71	26
1485.77	25.5
1486.83	27
1487.89	27
1488.95	23.5
1490.01	24.5
1491.07	22
1492.12	29.5
1493.18	26.5
1494.24	25
1495.3	26.5
1496.36	28.5
1497.42	27.5
1498.47	27
1499.53	27
1500.59	27
1501.65	28.5
1502.7	26
1503.76	26.5
1504.82	26.5
1505.88	27
1506.93	23
1507.99	26
1509.05	28
1510.1	28
1511.16	27.5
1512.21	19.5
1513.27	25
1514.32	27
1515.38	24
1516.43	25
1517.49	24.5
1518.54	29.5
1519.6	25.5
1520.65	22.5
1521.71	24
1522.76	26.5
1523.82	29
1524.87	21
1525.92	24
1526.98	23.5
1528.03	26
1529.08	25
1530.14	28
1531.19	26.5
1532.24	24
1533.3	23
1534.35	24.5
1535.4	29
1536.45	26.5
1537.5	18
1538.56	24.5
1539.61	25
1540.66	27.5
1541.71	24.5
1542.76	20.5
1543.81	25
1544.86	23
1545.91	27.5
1546.96	23
1548.01	24
1549.06	28
1550.11	25
1551.16	26.5
1552.21	25
1553.26	23.5
1554.31	26
1555.36	23
1556.41	24.5
1557.46	27
1558.51	23.5
1559.55	23.5
1560.6	26.5
1561.65	24
1562.7	25
1563.75	25
1564.79	24.5
1565.84	27.5
1566.89	27.5
1567.94	24
1568.98	24.5
1570.03	23.5
1571.07	25.5
1572.12	26.5
1573.17	24
1574.21	23
1575.26	27.5
1576.31	23
1577.35	29.5
1578.4	22
1579.44	24
1580.49	29.5
1581.53	22
1582.58	25
1583.62	22
1584.67	27.5
1585.71	26
1586.75	24.5
1587.8	27
1588.84	26.5
1589.89	25
1590.93	24.5
1591.97	26.5
1593.02	25
1594.06	27.5
1595.1	28.5
1596.14	26.5
1597.19	24
1598.23	26
1599.27	21
1600.31	23.5
1601.35	28.5
1602.4	25.5
1603.44	25
1604.48	21
1605.52	26
1606.56	24.5
1607.6	25.5
1608.64	21
1609.68	24.5
1610.72	25.5
1611.76	29.5
1612.8	26
1613.84	23.5
1614.88	27
1615.92	27.5
1616.96	24.5
1618	26
1619.04	21.5
1620.08	26
1621.12	24.5
1622.16	27
1623.19	24
1624.23	26.5
1625.27	27
1626.31	23
1627.35	23.5
1628.38	22.5
1629.42	23.5
1630.46	24
1631.5	19
1632.53	28
1633.57	24.5
1634.61	23.5
1635.64	26
1636.68	24.5
1637.71	29
1638.75	29
1639.79	29
1640.82	23.5
1641.86	27
1642.89	25
1643.93	25
1644.96	29
1646	29
1647.03	22.5
1648.07	24
1649.1	25.5
1650.14	20
1651.17	28
1652.2	27
1653.24	24
1654.27	20
1655.3	28
1656.34	21
1657.37	27
1658.4	26
1659.44	24
1660.47	26
1661.5	24
1662.53	26
1663.57	23.5
1664.6	26.5
1665.63	24
1666.66	28.5
1667.69	22.5
1668.72	23.5
1669.75	26.5
1670.79	26.5
1671.82	26.5
1672.85	24
1673.88	26
1674.91	23.5
1675.94	28
1676.97	25
1678	27.5
1679.03	20.5
1680.06	24.5
1681.09	25.5
1682.11	25.5
1683.14	24.5
1684.17	24
1685.2	26.5
1686.23	26.5
1687.26	24.5
1688.29	24
1689.32	27
1690.34	27.5
1691.37	24.5
1692.4	27
1693.43	26.5
1694.45	24
1695.48	23
1696.51	22
1697.53	26
1698.56	22.5
1699.59	23
1700.61	24
1701.64	22.5
1702.66	20.5
1703.69	27.5
1704.72	23.5
1705.74	26
1706.77	25
1707.79	20
1708.82	27.5
1709.84	23.5
1710.87	24
1711.89	21.5
1712.92	22.5
1713.94	22
1714.96	27.5
1715.99	23.5
1717.01	22
1718.04	27
1719.06	25.5
1720.08	22
1721.11	26.5
1722.13	24
1723.15	22.5
1724.17	25
1725.2	26
1726.22	27.5
1727.24	24
1728.26	28
1729.28	25.5
1730.31	25
1731.33	28
1732.35	24
1733.37	25.5
1734.39	27
1735.41	23.5
1736.43	25
1737.45	22.5
1738.47	26
1739.49	27.5
1740.51	26.5
1741.53	24
1742.55	24
1743.57	23.5
1744.59	19.5
1745.61	27
1746.63	24.5
1747.65	27.5
1748.67	22
1749.69	24.5
1750.71	23.5
1751.72	23
1752.74	27.5
1753.76	21
1754.78	30.5
1755.8	25
1756.81	27.5
1757.83	25
1758.85	25
1759.86	24.5
1760.88	26.5
1761.9	26
1762.91	25.5
1763.93	24
1764.95	24
1765.96	25
1766.98	24.5
1768	22.5
1769.01	25
1770.03	25.5
1771.04	23.5
1772.06	23
1773.07	23
1774.09	27
1775.1	20.5
1776.12	27.5
1777.13	23
1778.14	28.5
1779.16	25
1780.17	25
1781.19	22
1782.2	25
1783.21	24
1784.23	29
1785.24	25
1786.25	25.5
1787.27	23.5
1788.28	27.5
1789.29	25.5
1790.3	25.5
1791.32	25.5
1792.33	26
1793.34	27
1794.35	24
1795.36	23.5
1796.37	24.5
1797.38	26
1798.4	23.5
1799.41	23
1800.42	28.5
1801.43	24
1802.44	27
1803.45	24.5
1804.46	20.5
1805.47	27
1806.48	26.5
1807.49	26
1808.5	22
1809.51	25
1810.52	30.5
1811.53	25
1812.53	25.5
1813.54	24
1814.55	23
1815.56	26
1816.57	25
1817.58	26
1818.58	24.5
1819.59	24.5
1820.6	22
1821.61	25.5
1822.61	23.5
1823.62	22
1824.63	24.5
1825.64	23
1826.64	22.5
1827.65	26.5
1828.66	22
1829.66	27.5
1830.67	26
1831.67	23.5
1832.68	30
1833.68	25.5
1834.69	22
1835.7	28.5
1836.7	27
1837.71	24.5
1838.71	25.5
1839.71	27
1840.72	26
1841.72	27
1842.73	25.5
1843.73	25.5
1844.74	24.5
1845.74	23.5
1846.74	22.5
1847.75	22
1848.75	25
1849.75	26
1850.76	27.5
1851.76	24.5
1852.76	23
1853.76	25.5
1854.77	26
1855.77	24.5
1856.77	23
1857.77	24.5
1858.77	26.5
1859.78	24
1860.78	25
1861.78	23
1862.78	25.5
1863.78	24
1864.78	29
1865.78	25.5
1866.78	22
1867.78	22.5
1868.78	26.5
1869.78	23.5
1870.78	25
1871.78	27
1872.78	27
1873.78	26
1874.78	23
1875.78	24
1876.78	26
1877.78	23
1878.78	26.5
1879.77	25
1880.77	25
1881.77	26
1882.77	24
1883.77	25.5
1884.76	23.5
1885.76	24.5
1886.76	22.5
1887.76	21.5
1888.75	25
1889.75	24.5
1890.75	23.5
1891.74	25
1892.74	21
1893.74	24
1894.73	22
1895.73	26.5
1896.72	23.5
1897.72	23.5
1898.72	25.5
1899.71	23
1900.71	25
1901.7	25
1902.7	23.5
1903.69	25.5
1904.69	26
1905.68	26
1906.67	26
1907.67	29
1908.66	28.5
1909.66	25
1910.65	20.5
1911.64	23
1912.64	22.5
1913.63	25
1914.62	22
1915.62	23.5
1916.61	25
1917.6	24.5
1918.59	27
1919.59	22
1920.58	26
1921.57	23
1922.56	26
1923.55	26.5
1924.55	25.5
1925.54	24
1926.53	25
1927.52	27
1928.51	25
1929.5	22
1930.49	23.5
1931.48	25.5
1932.47	23
1933.46	25.5
1934.45	26.5
1935.44	22
1936.43	23.5
1937.42	25.5
1938.41	32
1939.4	25
1940.39	21
1941.38	23.5
1942.37	25
1943.36	25
1944.34	18.5
1945.33	23
1946.32	28.5
1947.31	21.5
1948.3	22.5
1949.28	23.5
1950.27	24.5
1951.26	26
1952.25	23.5
1953.23	25.5
1954.22	25.5
1955.21	22
1956.2	25.5
1957.18	23.5
1958.17	27.5
1959.15	23
1960.14	20.5
1961.13	22
1962.11	26
1963.1	20.5
1964.08	25
1965.07	25.5
1966.05	26
1967.04	24
1968.02	26.5
1969.01	29.5
1969.99	22
1970.98	24
1971.96	26
1972.94	23.5
1973.93	25
1974.91	21
1975.9	23.5
1976.88	24.5
1977.86	26.5
1978.85	26
1979.83	26.5
1980.81	27.5
1981.8	23.5
1982.78	20
1983.76	22
1984.74	26
1985.72	24
1986.71	25
1987.69	27
1988.67	25
1989.65	26.5
1990.63	23.5
1991.61	24
1992.6	23.5
1993.58	23.5
1994.56	28
1995.54	24
1996.52	26.5
1997.5	23.5
1998.48	25
1999.46	23.5
2000.44	27
2001.42	21.5
2002.4	23
2003.38	24
2004.36	24.5
2005.34	25.5
2006.32	26.5
2007.29	26
2008.27	20
2009.25	24.5
2010.23	22
2011.21	23.5
2012.19	21.5
2013.16	27
2014.14	25
2015.12	23
2016.1	22
2017.07	26
2018.05	22.5
2019.03	23
2020	24
2020.98	23.5
2021.96	21
2022.93	22
2023.91	25
2024.89	27.5
2025.86	25
2026.84	25
2027.81	25
2028.79	25.5
2029.77	23.5
2030.74	24.5
2031.72	25.5
2032.69	25
2033.67	24.5
2034.64	26
2035.61	27
2036.59	25
2037.56	24.5
2038.54	21
2039.51	22.5
2040.48	22.5
2041.46	26.5
2042.43	23
2043.41	22
2044.38	24
2045.35	20.5
2046.32	23.5
2047.3	21
2048.27	25.5
2049.24	18
2050.21	22
2051.19	28.5
2052.16	23.5
2053.13	25.5
2054.1	25
2055.07	21
2056.04	26.5
2057.02	23
2057.99	27
2058.96	22
2059.93	24
2060.9	24
2061.87	26.5
2062.84	24
2063.81	21
2064.78	21.5
2065.75	20
2066.72	23
2067.69	23
2068.66	21.5
2069.63	24
2070.6	24.5
2071.57	17.5
2072.53	24
2073.5	20
2074.47	23.5
2075.44	23.5
2076.41	24
2077.38	24.5
2078.34	20.5
2079.31	27
2080.28	26.5
2081.25	23
2082.21	24
2083.18	22
2084.15	25.5
2085.12	22.5
2086.08	23
2087.05	24
2088.02	23
2088.98	25.5
2089.95	25
2090.91	21
2091.88	24
2092.85	25.5
2093.81	26
2094.78	22
2095.74	21.5
2096.71	22
2097.67	18
2098.64	23.5
2099.6	26.5
2100.57	23
2101.53	18
2102.5	24
2103.46	22
2104.42	23.5
2105.39	22
2106.35	25
2107.31	18.5
2108.28	24.5
2109.24	22.5
2110.2	23.5
2111.17	22
2112.13	24.5
2113.09	20
2114.06	23
2115.02	25
2115.98	28.5
2116.94	25.5
2117.9	20.5
2118.86	23
2119.83	25
2120.79	21.5
2121.75	25.5
2122.71	19
2123.67	24
2124.63	20.5
2125.59	23
2126.55	23.5
2127.51	22
2128.48	23.5
2129.43	23
2130.4	24
2131.35	18.5
2132.31	22.5
2133.27	22
2134.23	25.5
2135.19	24
2136.15	25.5
2137.11	22.5
2138.07	22.5
2139.03	22.5
2139.99	24
2140.95	22
2141.9	24.5
2142.86	25.491
2143.82	23.9599
2144.78	25.9414
2145.74	21.5897
2146.69	19.1558
2147.65	24.9615
2148.61	20.2897
2149.56	21.5872
2150.52	23.6787
2151.48	23.1323
2152.44	20.1148
2153.39	24.2343
2154.35	24.4688
2155.3	25
2156.26	22.7372
2157.22	24.134
2158.17	21.4449
2159.13	21.7179
2160.08	22.3151
2161.04	23.7494
2161.99	24.9814
2162.95	26.2937
2163.9	22.3026
2164.86	22.2144
2165.81	24.1621
2166.77	20.03
2167.72	25.1392
2168.68	24.7323
2169.63	23.6074
2170.58	23.7807
2171.54	24.2533
2172.49	23.4119
2173.44	22.9968
2174.4	22.1748
2175.35	20.9669
2176.3	21.1797
2177.26	22.8328
2178.21	21.0496
2179.16	21.3108
2180.11	24.7092
2181.07	24.326
2182.02	25.0548
2182.97	21.6564
2183.92	24.6929
2184.88	24.4824
2185.83	25.8702
2186.78	20.4991
2187.73	20.4587
2188.68	23.6495
2189.63	23.8247
2190.58	24.8108
2191.53	24.4663
2192.48	23.0507
2193.43	23.7823
2194.38	24.4339
2195.33	22.5254
2196.28	22.6824
2197.23	22.9457
2198.18	23.216
2199.13	22.1512
2200.08	20.5888
2201.03	23.1836
2201.98	23.7936
2202.93	21.1008
2203.88	20.8064
2204.83	23.584
2205.78	25.25
2206.72	24.4218
2207.67	22.7274
2208.62	22.623
2209.57	23.149
2210.52	21.2837
2211.46	21.0702
2212.41	20.6946
2213.36	20.2502
2214.31	22.0951
2215.25	24.0978
2216.2	22.9715
2217.15	22.7606
2218.09	23.015
2219.04	23.6038
2219.99	21.5974
2220.93	21.7749
2221.88	22.3324
2222.83	22.0005
2223.77	24.4944
2224.72	23.1935
2225.66	22.1836
2226.61	20.4686
2227.55	24.08
2228.5	24.0161
2229.44	23.7767
2230.39	24.3058
2231.33	23.4466
2232.28	24.2128
2233.22	21.4672
2234.17	22.0528
2235.11	23.923
2236.05	22.7688
2237	20.6105
2237.94	20.6994
2238.88	19.904
2239.83	22.2407
2240.04	23
2240.98	24
2241.93	23.5
2242.88	21.5
2243.83	22
2244.78	21
2245.72	25
2246.67	20.5
2247.62	21.5
2248.56	22
2249.51	20.5
2250.46	20
2251.4	22.5
2252.35	19
2253.3	24.5
2254.24	22.5
2255.19	24
2256.14	19
2257.08	26.5
2258.03	22.5
2258.97	20
2259.92	20.5
2260.86	21
2261.81	18
2262.75	22
2263.7	22
2264.64	22.5
2265.59	18
2266.53	27
2267.48	26
2268.42	25
2269.36	21.5
2270.31	26
2271.25	25
2272.19	20.5
2273.14	24.5
2274.08	22
2275.02	23.5
2275.97	21.5
2276.91	23
2277.85	25.5
2278.8	21.5
2279.74	19
2280.68	20.5
2281.62	24
2282.56	23.5
2283.51	22.5
2284.45	21.5
2285.39	20
2286.33	27
2287.27	20
2288.21	26
2289.15	22.5
2290.09	22.5
2291.04	23
2291.98	22.5
2292.92	23
2293.86	20
2294.8	20.5
2295.74	25
2296.68	27
2297.62	21
2298.56	20
2299.5	27
2300.44	24
2301.37	24.5
2302.31	21.5
2303.25	24.5
2304.19	20
2305.13	24.5
2306.07	25.5
2307.01	24
2307.94	19
2308.88	22
2309.82	22
2310.76	23.5
2311.7	27.5
2312.63	22
2313.57	26.5
2314.51	21
2315.44	23
2316.38	20.5
2317.32	22
2318.26	21
2319.19	23
2320.13	25.5
2321.06	24
2322	23.5
2322.94	22
2323.87	21.5
2324.81	23.5
2325.74	25
2326.68	22.5
2327.61	19
2328.55	23.5
2329.48	24.5
2330.42	25
2331.35	26.5
2332.29	23.5
2333.22	23.5
2334.16	28
2335.09	21
2336.02	22
2336.96	21.5
2337.89	21.5
2338.83	19
2339.76	24
2340.69	27.5
2341.63	24
2342.56	24
2343.49	23
2344.42	25.5
2345.36	22
2346.29	22.5
2347.22	25.5
2348.15	27.5
2349.09	22.5
2350.02	24
2350.95	23.5
2351.88	23.5
2352.81	22
2353.74	27
2354.68	23.5
2355.61	24
2356.54	25.5
2357.47	26.5
2358.4	24.5
2359.33	24.5
2360.26	25
2361.19	23.5
2362.12	25
2363.05	25.5
2363.98	24.5
2364.91	26.5
2365.84	25
2366.77	21.5
2367.7	21.5
2368.63	23
2369.56	25
2370.49	25.5
2371.41	23.5
2372.34	20.5
2373.27	23
2374.2	22.5
2375.13	22
2376.06	22
2376.98	25
2377.91	25.5
2378.84	27.5
2379.77	24
2380.69	22.5
2381.62	25
2382.55	21
2383.47	24.5
2384.4	21
2385.33	27
2386.25	23.5
2387.18	23.5
2388.11	23.5
2389.03	22.5
2389.96	25
2390.89	21.5
2391.81	21.5
2392.74	22.5
2393.66	26
2394.59	25
2395.51	23
2396.44	25.5
2397.36	21.5
2398.29	27
2399.21	23.5
2400.14	23
2401.06	21
2401.99	25.5
2402.91	26.5
2403.83	22.5
2404.76	22
2405.68	25
2406.6	24.5
2407.53	24
2408.45	22.5
2409.37	26
2410.3	20.5
2411.22	23
2412.14	22
2413.06	24
2413.99	21
2414.91	25
2415.83	25
2416.75	26
2417.68	21.5
2418.6	25.5
2419.52	23.5
2420.44	22.5
2421.36	24.5
2422.28	21.5
2423.2	24.5
2424.12	24.5
2425.05	26
2425.97	25.5
2426.89	23.5
2427.81	25.5
2428.73	23.5
2429.65	22.5
2430.57	24
2431.49	24.5
2432.41	25.5
2433.33	24
2434.25	21
2435.17	28
2436.08	24
2437	27.5
2437.92	23.5
2438.84	24.5
2439.76	25
2440.68	24.5
2441.6	23
2442.51	25
2443.43	27.5
2444.35	27
2445.27	24
2446.19	19.5
2447.1	22.5
2448.02	25
2448.94	28
2449.85	24
2450.77	23
2451.69	25
2452.61	23.5
2453.52	24.5
2454.44	23
2455.35	24
2456.27	23
2457.19	25.5
2458.1	24
2459.02	26.5
2459.94	24.5
2460.85	22.5
2461.77	24.5
2462.68	27
2463.6	25
2464.51	24
2465.43	21
2466.34	22.5
2467.25	24.5
2468.17	26
2469.08	23.5
2470	21.5
2470.91	26.5
2471.83	22.5
2472.74	27
2473.65	21.5
2474.57	24
2475.48	24
2476.39	28
2477.31	21.5
2478.22	26.5
2479.13	25
2480.04	27
2480.96	22.5
2481.87	21
2482.78	28.5
2483.69	22
2484.6	21.5
2485.52	26
2486.43	23.5
2487.34	23.5
2488.25	25
2489.16	25.5
2490.07	26.5
2490.99	21.5
2491.9	23
2492.81	25
2493.72	24
2494.63	25.5
2495.54	25
2496.45	25
2497.36	28
2498.27	24.5
2499.18	27.5
2500.09	21.5
2501	28
2501.91	22.5
2502.82	24
2503.73	21.5
2504.63	26.5
2505.54	23.5
2506.45	22
2507.36	23.5
2508.27	22.5
2509.18	25.5
2510.09	26
2510.99	22
2511.9	26
2512.81	25
2513.72	25.5
2514.62	20.5
2515.53	19.5
2516.44	26
2517.35	24
2518.25	22.5
2519.16	27.5
2520.07	24
2520.97	24.5
2521.88	25
2522.79	27
2523.69	20
2524.6	24.5
2525.51	28.5
2526.41	26.5
2527.32	24.5
2528.22	28
2529.13	21
2530.03	28
2530.94	27.5
2531.84	25.5
2532.75	23.5
2533.65	23.5
2534.56	24.5
2535.46	26
2536.37	26.5
2537.27	30
2538.17	24.5
2539.08	24
2539.98	24.5
2540.89	27
2541.79	28
2542.69	24
2543.6	22
2544.5	24
2545.4	25.5
2546.31	23.5
2547.21	23
2548.11	25
2549.01	24
2549.92	23
2550.82	29
2551.72	25
2552.62	27
2553.52	23
2554.42	18
2555.33	23
2556.23	24.5
2557.13	24
2558.03	27
2558.93	22.5
2559.83	26
2560.73	20
2561.63	25.5
2562.53	25.5
2563.43	20.5
2564.33	22.5
2565.24	25.5
2566.13	22
2567.04	22
2567.93	27
2568.83	23
2569.73	20
2570.63	26
2571.53	29.5
2572.43	26.5
2573.33	24.5
2574.23	23.5
2575.13	24.5
2576.03	22
2576.92	21.5
2577.82	23
2578.72	25
2579.62	26
2580.52	27
2581.41	23
2582.31	25
2583.21	23
2584.11	25.5
2585	24
2585.9	28.5
2586.8	25
2587.69	23.5
2588.59	24
2589.49	29
2590.38	24
2591.28	22
2592.18	21
2593.07	21.5
2593.97	24.5
2594.86	23
2595.76	26.5
2596.66	24.5
2597.55	20
2598.45	28
2599.34	22.5
2600.24	21.5
2601.13	27
2602.03	23
2602.92	24
2603.81	26
2604.71	22
2605.6	23.5
2606.5	25.5
2607.39	27.5
2608.28	23.5
2609.18	26.5
2610.07	24.5
2610.97	29
2611.86	19
2612.75	24.5
2613.64	23.5
2614.54	24.5
2615.43	26.5
2616.32	26
2617.22	22.5
2618.11	24.5
2619	26
2619.89	26
2620.78	23
2621.68	22.5
2622.57	24
2623.46	27
2624.35	20.5
2625.24	26.5
2626.13	25.5
2627.02	22
2627.91	26.5
2628.81	22
2629.7	22
2630.59	26
2631.48	24
2632.37	26.5
2633.26	27.5
2634.15	22.5
2635.04	25
2635.93	22
2636.82	27
2637.71	24
2638.59	23
2639.48	27
2640.37	25.5
2641.26	24.5
2642.15	27
2643.04	23
2643.93	25.5
2644.82	23
2645.71	25
2646.59	26
2647.48	28.5
2648.37	22
2649.26	25.5
2650.15	26
2651.03	26
2651.92	25
2652.81	23
2653.69	23
2654.58	25.5
2655.47	27.5
2656.35	26
2657.24	26.5
2658.13	26.5
2659.01	23
2659.9	28
2660.79	24
2661.67	25
2662.56	23
2663.44	23
2664.33	26.5
2665.22	22
2666.1	23
2666.99	28
2667.87	22
2668.76	19
2669.64	25
2670.52	22
2671.41	23.5
2672.29	28
2673.18	26
2674.06	23.5
2674.95	25
2675.83	23
2676.71	18.5
2677.6	23.5
2678.48	26
2679.36	24.5
2680.25	25.5
2681.13	21
2682.01	25.5
2682.9	24
2683.78	24
2684.66	21.5
2685.55	22.5
2686.43	26
2687.31	21.5
2688.19	25.5
2689.07	25.5
2689.96	19
2690.84	25
2691.72	26
2692.6	27
2693.48	24
2694.36	24
2695.24	21.5
2696.12	25
2697	22
2697.89	25.5
2698.77	23.5
2699.65	24
2700.53	25.5
2701.41	23
2702.29	24.5
2703.17	25
2704.05	23
2704.93	23.5
2705.81	25.5
2706.69	23.5
2707.57	22
2708.44	22.5
2709.32	26
2710.2	24.5
2711.08	23
2711.96	24.5
2712.84	28
2713.72	23.5
2714.59	26
2715.47	29.5
2716.35	25
2717.23	23
2718.11	28
2718.98	26.5
2719.86	27.5
2720.74	27.5
2721.62	25.5
2722.49	25.5
2723.37	20
2724.25	27
2725.12	23
2726	24
2726.88	26.5
2727.75	24.5
2728.63	23.5
2729.51	24
2730.38	24.5
2731.26	24.5
2732.13	26.5
2733.01	26.5
2733.88	26.5
2734.76	20
2735.63	24.5
2736.51	23.5
2737.38	24.5
2738.26	25
2739.13	21.5
2740.01	28.5
2740.88	23.5
2741.76	22
2742.63	25
2743.5	24
2744.38	24
2745.25	25
2746.13	24.5
2747	22.5
2747.87	21
2748.75	25
2749.62	24
2750.49	27
2751.36	28.5
2752.24	25
2753.11	24
2753.98	24
2754.86	25.5
2755.73	22.5
2756.6	25
2757.47	24
2758.34	22.5
2759.22	25
2760.09	22
2760.96	26
2761.83	22
2762.7	20
2763.57	24.5
2764.44	26
2765.31	23
2766.18	23.5
2767.06	25.5
2767.93	24
2768.8	23
2769.67	23.5
2770.54	22
2771.41	27.5
2772.28	23
2773.15	27
2774.02	24.5
2774.89	25
2775.75	25
2776.62	26.5
2777.49	25.5
2778.36	24
2779.23	21
2780.1	28
2780.97	25.5
2781.84	25
2782.71	26.5
2783.57	27.5
2784.44	27.5
2785.31	24.5
2786.18	24.5
2787.04	25
2787.91	27.5
2788.78	26
2789.65	26.5
2790.51	24.5
2791.38	28
2792.25	26
2793.12	26
2793.98	24.5
2794.85	26
2795.72	27.5
2796.58	24
2797.45	21
2798.31	26
2799.18	22
2800.05	28
2800.91	28
2801.78	25.5
2802.64	18
2803.51	25.5
2804.37	28.5
2805.24	27.5
2806.1	23.5
2806.97	25.5
2807.83	27
2808.7	28.5
2809.56	30.5
2810.43	24.5
2811.29	27.5
2812.15	24
2813.02	29.5
2813.88	25.5
2814.75	27.5
2815.61	22
2816.47	29.5
2817.34	22.5
2818.2	31.5
2819.06	24
2819.92	22
2820.79	27.5
2821.65	22.5
2822.51	25.5
2823.37	27.5
2824.24	24
2825.1	27
2825.96	21.5
2826.82	29
2827.69	26.5
2828.55	27.5
2829.41	26.5
2830.27	25
2831.13	24
2831.99	26.5
2832.85	27
2833.71	27.5
2834.58	28.5
2835.44	26.5
2836.3	26.5
2837.16	23.5
2838.02	26.5
2838.88	29.5
2839.74	27.5
2840.6	26.5
2841.46	29.5
2842.32	24.5
2843.18	24.5
2844.04	23
2844.9	25
2845.75	25.5
2846.61	26.5
2847.47	25.5
2848.33	25
2849.19	24
2850.05	25
2850.91	26
2851.77	28
2852.62	27
2853.48	25
2854.34	26
2855.2	28.5
2856.06	24
2856.91	28
2857.77	25.5
2858.63	27.5
2859.48	24
2860.34	29
2861.2	25.5
2862.06	30.5
2862.91	26.5
2863.77	30
2864.63	23
2865.48	29
2866.34	24.5
2867.19	28.5
2868.05	27.5
2868.91	26.5
2869.76	27.5
2870.62	28.5
2871.47	24
2872.33	25
2873.18	31.5
2874.04	27.5
2874.89	27
2875.75	28.5
2876.6	30
2877.46	32.5
2878.31	32.5
2879.17	32
2880.02	32
2880.88	30
2881.73	31
2882.58	34
2883.44	38
2884.29	36.5
2885.14	40
2886	37
2886.85	37.5
2887.7	36.5
2888.56	40.5
2889.41	37.5
2890.26	45.5
2891.12	36.5
2891.97	42
2892.82	43
2893.67	46.5
2894.52	52
2895.38	47
2896.23	48
2897.08	51.5
2897.93	56.5
2898.78	57
2899.64	62.5
2900.49	62.5
2901.34	63.5
2902.19	69.5
2903.04	74.5
2903.89	71.5
2904.74	73.5
2905.59	73
2906.44	73.5
2907.29	75.5
2908.14	74.5
2908.99	68
2909.84	66
2910.69	66
2911.54	68.5
2912.39	56.5
2913.24	55
2914.09	53.5
2914.94	48
2915.79	50.5
2916.64	44
2917.49	45
2918.34	36.5
2919.18	41.5
2920.03	38
2920.88	36
2921.73	35
2922.58	37.5
2923.42	34
2924.27	35
2925.12	34
2925.97	31
2926.82	32.5
2927.66	32.5
2928.51	31
2929.36	31
2930.2	29.5
2931.05	31
2931.9	30.5
2932.74	25
2933.59	29
2934.44	27
2935.28	29
2936.13	29
2936.98	31
2937.82	30
2938.67	28
2939.51	26
2940.36	32
2941.2	32
2942.05	27
2942.9	30.5
2943.74	26.5
2944.58	31.5
2945.43	31
2946.27	28
2947.12	30.5
2947.96	32
2948.81	33
2949.65	30.5
2950.5	35
2951.34	30.5
2952.18	31
2953.03	32
2953.87	35.5
2954.71	34.5
2955.56	35
2956.4	34
2957.24	35
2958.09	42
2958.93	34
2959.77	40.5
2960.62	43
2961.46	42.5
2962.3	50
2963.14	45.5
2963.98	46.5
2964.83	50
2965.67	43
2966.51	51
2967.35	43
2968.19	48.5
2969.04	51
2969.88	40.5
2970.72	43
2971.56	40.9757
2972.4	35.988
2973.24	40.9836
2974.08	39.0988
2974.92	37.4846
2975.76	35.9356
2976.6	33.0442
2977.44	34.7175
2978.28	37.2511
2979.12	31.2233
2979.96	32.1318
2980.8	29
2981.64	32.9073
2982.48	30.7572
2983.32	29.2918
2984.16	29.285
2985	28.4976
2985.84	28.1602
2986.68	27.0043
2987.52	29.5381
2988.35	26.3
2989.19	27.6102
2990.03	24.4052
2990.87	25.0896
2991.71	25.5339
2992.55	26.0349
2993.38	26.1494
2994.22	25.6655
2995.06	27.5542
2995.9	26.9848
2996.73	25.5555
2997.57	25.5512
2998.41	26.7112
2999.25	23.0823
3000.08	22.7501
3000.92	26.0869
3001.76	26.274
3002.59	23.3846
3003.43	25.662
3004.27	25.3274
3005.1	22.6216
3005.94	23
3006.78	25.1382
3007.61	23.3565
3008.45	21.6517
3009.28	22.8374
3010.12	25.414
3010.95	23.9087
3011.79	24.065
3012.62	23.6788
3013.46	24.0204
3014.29	24.1617
3015.13	23.3494
3015.96	22.9897
3016.8	22.0893
3017.63	22.8951
3018.47	21.1411
3019.3	21.9091
3020.14	20.975
3020.97	21.9005
3021.8	21.9108
3022.64	23.2384
3023.47	23.18
3024.3	23.4909
3025.14	24.2077
3025.97	24.8922
3026.8	24.44
3027.64	23.9009
3028.47	21.9881
3029.3	23.6252
3030.14	22.3986
3030.97	23.1152
3031.8	22.9482
3032.63	23.0344
3033.46	24.3639
3034.3	23.5816
3035.13	23.6141
3035.96	22.6611
3036.79	21.99
3037.62	21.3276
3038.46	23.8625
3039.29	24.2683
3040.12	23.8433
3040.95	23.8084
3041.78	23.7294
3042.61	21.3129
3043.44	23.8395
3044.27	20.8925
3045.1	22.3592
3045.93	23.1569
3046.76	23.0848
3047.59	20.864
3048.42	20.7063
3049.25	21.353
3050.08	21.1856
3050.91	22.5882
3051.74	21.7482
3052.57	23.8651
3053.4	24.0844
3054.23	22.0771
3055.06	24.1293
3055.89	24.4738
3056.72	25.1633
3057.32	20.5
3058.15	22
3058.98	26.5
3059.82	22.5
3060.65	23
3061.48	22
3062.31	23
3063.15	23
3063.98	23
3064.81	22.5
3065.64	28
3066.48	25
3067.31	21
3068.14	22
3068.97	26
3069.8	22.5
3070.63	24.5
3071.47	18
3072.3	23.5
3073.13	24.5
3073.96	25
3074.79	24.5
3075.62	22.5
3076.45	20.5
3077.28	22
3078.11	20
3078.94	24
3079.77	26
3080.6	24
3081.43	17
3082.26	24.5
3083.09	21.5
3083.92	24.5
3084.75	22
3085.58	21.5
3086.41	25
3087.24	20
3088.07	26
3088.9	24.5
3089.73	22.5
3090.55	20
3091.38	22.5
3092.21	24
3093.04	24
3093.87	26
3094.7	23
3095.52	26
3096.35	21.5
3097.18	22
3098.01	22
3098.84	20.5
3099.66	22.5
3100.49	23
3101.32	22.5
3102.14	23
3102.97	26.5
3103.8	23
3104.62	22.5
3105.45	21
3106.28	25.5
3107.1	25
3107.93	24.5
3108.76	23
3109.58	23
3110.41	24.5
3111.23	24
3112.06	19.5
3112.89	22.5
3113.71	21.5
3114.54	26
3115.36	20.5
3116.19	24
3117.01	20.5
3117.84	24
3118.66	23.5
3119.49	26.5
3120.31	24.5
3121.13	30.5
3121.96	22
3122.78	23
3123.61	24.5
3124.43	23
3125.25	21
3126.08	19.5
3126.9	21
3127.73	26.5
3128.55	24.5
3129.37	22.5
3130.19	23
3131.02	24
3131.84	22.5
3132.66	23.5
3133.49	18
3134.31	23
3135.13	20
3135.95	23.5
3136.78	26
3137.6	20
3138.42	21.5
3139.24	21
3140.06	25
3140.88	19
3141.71	18
3142.53	21.5
3143.35	23.5
3144.17	23
3144.99	21
3145.81	23.5
3146.63	26
3147.45	23
3148.27	25.5
3149.09	21.5
3149.91	20
3150.73	21.5
3151.56	24
3152.37	21
3153.2	26
3154.01	24.5
3154.83	21.5
3155.65	26.5
3156.47	21.5
3157.29	20
3158.11	22
3158.93	20
3159.75	25
3160.57	26.5
3161.39	22
3162.21	22.5
3163.02	24
3163.84	24
3164.66	25.5
3165.48	21
3166.3	25.5
3167.11	23.5
3167.93	25
3168.75	24.5
3169.57	24.5
3170.39	25.5
3171.2	26.5
3172.02	21
3172.84	19.5
3173.65	21
3174.47	23
3175.29	25
3176.1	24
3176.92	23.5
3177.74	23
3178.55	21
3179.37	23.5
3180.19	23
3181	25.5
3181.82	19.5
3182.63	22.5
3183.45	25
3184.27	26
3185.08	24
3185.9	21.5
3186.71	19
3187.53	25
3188.34	25
3189.16	20.5
3189.97	22.5
3190.79	22.5
3191.6	25.5
3192.41	18.5
3193.23	24
3194.04	22.5
3194.86	22.5
3195.67	21
3196.48	22
3197.3	25.5
3198.11	22
3198.93	25.5
3199.74	21
3200.55	23.5
3201.36	25.5
3202.18	23
3202.99	27
3203.8	20.5
3204.62	22.5
3205.43	20.5
3206.24	22
3207.05	25
3207.87	22
3208.68	23
3209.49	22.5
3210.3	24
3211.11	23
3211.93	24.5
3212.74	27
3213.55	21.5
3214.36	24.5
3215.17	25.5
3215.98	22.5
3216.79	25
3217.6	27
3218.41	27
3219.22	25
3220.03	23
3220.85	25
3221.66	23
3222.47	24.5
3223.28	24.5
3224.09	24
3224.9	20.5
3225.71	24
3226.52	21.5
3227.33	26
3228.13	22
3228.94	27.5
3229.75	24.5
3230.56	27
3231.37	22.5
3232.18	25
3232.99	21
3233.8	24
3234.61	25.5
3235.41	23.5
3236.22	23.5
3237.03	24.5
3237.84	20.5
3238.65	23.5
3239.45	26
3240.26	20.5
3241.07	23
3241.88	22.5
3242.68	23
3243.49	27
3244.3	27
3245.1	26.5
3245.91	23.5
3246.72	20.5
3247.53	26
3248.33	20.5
3249.14	27
3249.95	24
3250.75	25
3251.56	21.5
3252.36	22.5
3253.17	25
3253.97	22
3254.78	22
3255.59	23.5
3256.39	22
3257.2	24
3258	24
3258.81	23.5
3259.61	24
3260.42	17.5
3261.22	25
3262.03	21
3262.83	23
3263.64	23.5
3264.44	22.5
3265.24	23
3266.05	22
3266.85	20.5
3267.66	28.5
3268.46	21.5
3269.26	25
3270.07	27
3270.87	26.5
3271.67	23.5
3272.48	22.5
3273.28	25
3274.08	23
3274.89	19
3275.69	24
3276.49	24.5
3277.29	28
3278.1	29
3278.9	26
3279.7	26
3280.5	22.5
3281.3	24
3282.11	24.5
3282.91	23
3283.71	24.5
3284.51	25
3285.31	20
3286.11	23
3286.91	26
3287.72	24
3288.52	26.5
3289.32	25
3290.12	22
3290.92	26
3291.72	25.5
3292.52	23.5
3293.32	29
3294.12	20.5
3294.92	25
3295.72	18.5
3296.52	27.5
3297.32	22.5
3298.12	20
3298.92	25.5
3299.72	22
3300.52	25
3301.32	25
3302.12	23
3302.92	24.5
3303.71	22.5
3304.51	22
3305.31	25.5
3306.11	21
3306.91	22
3307.71	26
3308.5	26
3309.3	24
3310.1	25
3310.9	24.5
3311.7	26.5
3312.49	24
3313.29	27
3314.09	25.5
3314.89	28
3315.68	25.5
3316.48	25.5
3317.28	19
3318.07	24.5
3318.87	23.5
3319.67	22
3320.46	23.5
3321.26	22.5
3322.06	22
3322.85	23.5
3323.65	24
3324.44	24.5
3325.24	23
3326.04	21.5
3326.83	26.5
3327.63	23.5
3328.42	18
3329.22	23
3330.01	23
3330.81	28.5
3331.6	22
3332.4	26
3333.19	24.5
3333.99	24
3334.78	22.5
3335.58	24
3336.37	19
3337.17	26.5
3337.96	23
3338.75	27.5
3339.55	26.5
3340.34	23
3341.13	27
3341.93	23
3342.72	29
3343.51	21
3344.31	22.5
3345.1	25.5
3345.89	21.5
3346.69	23
3347.48	27
3348.27	25.5
3349.06	21.5
3349.86	25
3350.65	24.5
3351.44	24.5
3352.23	24.5
3353.03	24
3353.82	23.5
3354.61	25.5
3355.4	23
3356.19	26
3356.98	23
3357.78	23.5
3358.57	25.5
3359.36	22
3360.15	24.5
3360.94	24
3361.73	22
3362.52	25.5
3363.31	22.5
3364.1	21
3364.89	22.5
3365.68	23
3366.47	23.5
3367.26	25
3368.05	27.5
3368.84	26
3369.63	27
3370.42	22.5
3371.21	25.5
3372	26
3372.79	23.5
3373.58	23
3374.37	22.5
3375.16	27
3375.95	28
3376.73	21
3377.52	23.5
3378.31	25
3379.1	26
3379.89	24.5
3380.68	21
3381.46	25.5
3382.25	25
3383.04	26
3383.83	26
3384.62	27
3385.4	25
3386.19	23.5
3386.98	21.5
3387.76	23
3388.55	23
3389.34	23.5
3390.13	25.5
3390.91	21.5
3391.7	22
3392.49	22.5
3393.27	25
3394.06	21
3394.84	20
3395.63	22
3396.42	23.5
3397.2	21
3397.99	22
3398.77	26
3399.56	24
3400.34	24.5
3401.13	22
3401.92	25
3402.7	22.5
3403.49	27
3404.27	23.5
3405.06	21
3405.84	21
3406.62	27
3407.41	22.5
3408.19	25
3408.98	23
3409.76	27
3410.55	26
3411.33	23.5
3412.11	23
3412.9	21
3413.68	22.5
3414.46	24.5
3415.25	25.5
3416.03	21.5
3416.81	21
3417.6	25
3418.38	17
3419.16	27
3419.95	25
3420.73	25
3421.51	26.5
3422.29	22.5
3423.08	23.5
3423.86	26
3424.64	25
3425.42	27
3426.2	22.5
3426.98	23.5
3427.77	23.5
3428.55	27.5
3429.33	27
3430.11	21.5
3430.89	22.5
3431.67	26
3432.45	28.5
3433.24	23
3434.02	25
3434.8	25
3435.58	22.5
3436.36	28.5
3437.14	24
3437.92	25
3438.7	23
3439.48	23.5
3440.26	28.5
3441.04	22.5
3441.82	24
3442.6	22.5
3443.38	24.5
3444.16	21
3444.94	21.5
3445.71	25
3446.49	25
3447.27	27.5
3448.05	21
3448.83	23.5
3449.61	24
3450.39	23
3451.17	22
3451.94	22
3452.72	24.5
3453.5	23.5
3454.28	25
3455.06	18
3455.83	26
3456.61	28
3457.39	21.5
3458.17	23
3458.94	27
3459.72	25
3460.5	24
3461.28	22
3462.05	21
3462.83	25
3463.61	22
3464.38	27.5
3465.16	19
3465.93	24.5
3466.71	28
3467.49	27
3468.26	24
3469.04	26
3469.82	23
3470.59	25.5
3471.37	23
3472.14	24.5
3472.92	26
3473.69	23.5
3474.47	25
3475.24	21.5
3476.02	28
3476.79	25.5
3477.57	26.5
3478.34	24.5
3479.12	27.5
3479.89	27.5
3480.67	23.5
3481.44	24
3482.21	20
3482.99	25
3483.76	27
3484.54	25.5
3485.31	25.5
3486.08	21
3486.86	24
3487.63	24.5
3488.4	21
3489.18	24
3489.95	23
3490.72	22
3491.5	22
3492.27	23
3493.04	24.5
3493.81	23.5
3494.59	24
3495.36	25
3496.13	24
3496.9	24
3497.67	29.5
3498.45	22
3499.22	24
3499.99	24.5
