#Acq. time (s)=	5
#Accumulations=	5
#Range (cm-¹)=	100...3500
#Windows=	4
#Autofocus=	Off
#AutoExposure=	Off
#Spike filter=	Multiple accum.
#Delay time (s)=	0
#Binning=	1
#Readout mode=	Signal
#DeNoise=	Off
#ICS correction=	Off
#Dark correction=	Off
#Inst. Process=	Off
#Instrument=	LabRAM HR Evol
#Detector=	Syncerity OE
#Objective=	x100_VIS
#Grating=	600 (500nm)
#ND Filter=	25%
#Laser=	633nm_Edge
#Hole=	100.021
#Range=	Visible
#Project=	verificaciones
#Sample=	a1
#Site=	lined
#Title=	bolusa1plain
#Remark=	
#Date=	09.01.2026 15:50
#Acquired=	09.01.2026 15:50:32
100.695	29.5
101.978	31
103.262	37
104.545	28
105.829	31
107.112	32
108.394	28
109.676	34
110.958	27.5
112.24	34
113.522	30
114.803	29.5
116.084	28
117.365	34
118.646	30.5
119.927	36.5
121.207	33
122.487	32
123.767	32.5
125.047	31
126.326	32
127.606	33
128.885	33
130.164	32.5
131.442	36
132.721	35.5
133.999	39
135.277	35.5
136.555	39
137.831	38
139.109	37.5
140.386	35
141.663	35
142.94	36.5
144.216	40
145.493	41
146.769	39
148.043	42
149.319	39.5
150.595	40
151.87	41.5
153.145	40
154.42	41.5
155.693	39.5
156.968	38
158.242	41
159.516	43.5
160.79	45
162.062	44
163.336	43.5
164.609	38.5
165.882	42
167.153	40
168.426	41
169.699	42
170.971	42
172.241	40
173.513	39.5
174.785	42.5
176.055	43
177.326	42.5
178.597	43
179.866	37.5
181.137	41.5
182.407	37.5
183.676	42
184.946	42
186.216	42
187.484	43
188.753	41
190.022	44
191.29	39
192.558	39.5
193.825	37
195.094	38.5
196.36	42
197.628	38.5
198.896	40
200.162	40.5
201.429	41.5
202.695	35
203.962	37
205.227	37.5
206.493	34
207.758	35
209.024	36
210.289	36
211.554	34.5
212.818	35.5
214.083	41
215.347	29
216.612	35
217.875	35
219.138	39.5
220.402	36.5
221.665	31.5
222.928	34.5
224.19	31.5
225.454	29
226.715	34
227.977	26
229.24	37.5
230.501	31.5
231.762	35.5
233.024	33.5
234.284	36.5
235.546	31.5
236.806	30.5
238.066	30.5
239.327	34
240.587	31
241.846	30.5
243.105	29
244.365	29
245.624	27.5
246.882	31.5
248.142	28
249.4	31.5
250.658	30
251.916	29.5
253.174	30
254.432	32.5
255.689	27
256.945	29
258.202	29
259.46	29.5
260.716	25.5
261.972	28.5
263.228	30
264.483	29
265.74	33
266.996	29
268.251	28
269.505	31
270.76	29
272.014	31
273.268	26
274.522	30.5
275.778	30
277.031	28
278.285	28.5
279.538	30
280.791	26.5
282.043	28.5
283.296	29.5
284.548	32
285.8	29.5
287.052	28.5
288.304	32
289.556	27
290.807	30
292.058	30
293.309	29.5
294.56	26
295.81	28
297.061	28.5
298.311	31
299.561	29
300.81	28.5
302.06	31
303.309	29
304.558	26
305.807	30.5
307.056	29.5
308.305	26
309.551	28
310.8	29
312.047	29.5
313.295	32
314.543	28
315.79	31.5
317.037	29
318.284	27.5
319.529	28
320.776	27.5
322.022	28
323.268	29.5
324.514	29
325.758	26
327.004	22
328.249	30
329.494	25
330.739	33
331.982	27
333.227	31.5
334.471	26
335.715	27
336.958	29
338.201	28
339.445	27
340.687	24
341.93	27
343.173	30
344.414	27.5
345.657	26.5
346.899	26
348.14	29
349.381	24
350.623	31.5
351.863	27.5
353.104	26.5
354.346	32.5
355.585	29
356.826	26.5
358.065	31
359.305	27
360.545	27
361.784	24.5
363.023	23
364.261	26.5
365.501	25
366.738	31.5
367.977	28.5
369.216	30
370.453	28
371.691	29.5
372.928	28
374.166	27
375.402	26
376.64	24
377.876	26.5
379.111	28
380.348	31
381.584	32
382.82	26.5
384.055	28.5
385.291	26.5
386.526	31.5
387.76	26.5
388.996	33
390.229	25.5
391.465	29.5
392.698	29
393.931	33.5
395.166	26
396.399	29
397.632	29.5
398.866	28
400.098	33
401.33	30
402.563	20.5
403.795	28
405.027	31
406.259	26.5
407.491	28.5
408.721	28
409.954	28
411.184	30
412.415	30.5
413.645	25
414.876	31
416.106	29
417.335	28
418.565	25
419.794	28
421.024	29.5
422.253	24
423.482	26
424.71	28
425.938	27
427.168	27
428.396	29
429.623	34.5
430.851	29.5
432.078	31.5
433.305	30
434.532	26
435.758	27.5
436.986	30
438.212	28
439.438	28.5
440.664	31.5
441.89	28
443.115	26.5
444.34	29
445.566	28
446.79	32
448.015	28.5
449.24	34.5
450.464	33.5
451.688	27
452.912	24.5
454.135	28
455.359	31.5
456.582	28
457.805	32
459.028	32
460.251	25.5
461.473	28
462.696	31
463.918	35.5
465.14	32
466.36	31
467.582	33
468.803	37
470.024	35.5
471.245	38
472.466	33
473.686	36
474.907	34
476.126	40.5
477.346	42
478.565	46
479.785	46.5
481.004	53
482.224	49
483.441	57
484.66	59
485.879	58
487.097	63
488.314	60
489.532	66
490.75	67.5
491.967	62
493.184	56
494.401	57.5
495.618	55.5
496.835	47
498.05	48
499.267	50
500.483	47
501.698	40
502.913	43
504.129	41.5
505.343	40.5
506.559	40
507.774	42
508.987	35
510.202	35
511.415	37.5
512.63	34
513.844	34
515.056	36.5
516.27	30
517.482	30.5
518.696	35
519.907	35
521.121	34
522.332	31
523.545	32.5
524.757	37.5
525.968	32
527.18	35
528.39	33
529.602	29
530.812	30
532.023	35
533.233	26
534.443	33
535.653	27
536.862	32
538.073	31
539.281	27
540.491	30
541.7	29.5
542.908	27.5
544.117	32
545.325	27
546.534	30.5
547.741	33
548.949	30
550.157	30.5
551.364	25.5
552.57	31
553.778	27.5
554.985	28
556.191	32
557.398	32
558.604	31
559.809	28.5
561.014	30.5
562.221	27.5
563.426	34
564.63	32.5
565.835	27
567.041	31.5
568.245	30.5
569.449	26.5
570.653	28.5
571.856	28.5
573.061	29.5
574.264	30
575.467	29.5
576.67	32.5
577.873	27.5
579.076	28.5
580.279	27.5
581.481	28
582.683	31.5
583.884	26.5
585.086	20
586.287	27
587.488	32
588.689	31.5
589.891	28
591.092	27
592.292	28.5
593.492	26.5
594.692	24.5
595.892	27
597.092	25
598.291	27.5
599.49	31.5
600.689	27
601.888	27
603.087	20.5
604.285	28
605.483	30
606.681	26.5
607.879	27.5
609.077	23
610.274	33
611.472	28.5
612.668	30
613.865	31
615.061	27
616.258	27
617.454	31.5
618.65	31
619.846	27.5
621.042	29.5
622.238	30
623.432	29
624.627	25.5
625.822	30
627.017	30
628.212	29
629.406	30
630.599	26.5
631.793	27.5
632.987	27
634.181	31.5
635.373	26
636.566	26.5
637.76	25
638.953	25.5
640.144	28.5
641.337	32.5
642.529	28.5
643.721	27
644.912	26
646.104	29
647.295	27.5
648.485	29
649.677	26.5
650.868	27
652.057	28.5
653.248	26
654.437	31
655.628	31.5
656.818	28
658.006	28
659.196	28
660.384	27.5
661.574	29.5
662.763	31.5
663.951	32
665.14	33.5
666.327	34
667.515	28
668.702	29
669.891	34.5
671.077	36
672.265	30
673.451	29.5
674.638	34
675.824	33
677.011	29
678.197	34
679.383	35
680.568	30
681.755	34
682.939	36.5
684.124	40
685.309	36
686.494	39
687.679	38
688.863	33
690.046	38
691.231	33
692.414	34
693.599	35
694.781	33
695.964	37.5
697.148	34.5
698.33	36.5
699.512	34
700.694	37
701.877	38
703.059	41
704.24	49
705.423	47
706.604	49.5
707.784	54.5
708.965	53.5
710.147	51
711.327	52
712.507	43
713.687	40.5
714.867	38
716.048	40.5
717.227	30
718.406	29.5
719.585	31
720.764	29.5
721.942	30
723.122	29
724.3	31
725.478	31
726.656	29.5
727.834	30
729.011	29
730.189	27.5
731.366	29
732.543	31
733.719	28.5
734.896	27.5
736.072	30.5
737.249	23.5
738.426	31
739.602	28
740.777	27
741.953	30
743.128	31
744.303	30.5
745.477	29
746.651	27
747.826	25
749	25
750.174	25
751.348	30
752.522	28.5
753.696	24.5
754.869	27.5
756.043	29
757.216	25
758.389	30.5
759.561	27
760.732	28
761.905	28
763.077	27
764.249	29
765.421	32
766.592	28.5
767.762	26
768.934	27
770.105	23
771.275	32
772.446	30
773.615	26
774.786	31.5
775.956	28.5
777.126	30.5
778.294	28.5
779.464	31
780.633	30.5
781.801	31.5
782.97	26
784.139	33
785.306	29.5
786.475	35
787.643	31
788.81	32.5
789.978	31.5
791.146	29
792.312	34
793.479	29
794.647	29
795.812	35.5
796.979	23
798.144	28
799.311	32.5
800.477	30.5
801.642	31.5
802.808	26.5
803.972	29.5
805.138	30
806.302	26
807.467	28.5
808.631	25.5
809.796	28
810.959	29
812.124	31
813.287	27
814.451	28.5
815.614	30
816.777	27.5
817.94	26
819.102	31
820.265	27
821.427	24
822.59	28
823.751	29.5
824.912	27
826.074	30
827.235	26.5
828.397	29
829.558	27.5
830.718	25
831.879	21.5
833.039	24.5
834.199	27
835.359	26.5
836.519	29
837.679	22
838.838	29
839.998	28.5
841.156	27
842.315	27
843.473	27
844.633	31
845.791	24
846.948	24
848.106	31
849.263	26
850.422	27
851.579	28
852.736	30.5
853.892	26.5
855.049	23
856.205	28
857.363	26
858.519	28
859.674	26
860.83	33.5
861.986	30.5
863.141	34.5
864.296	28
865.451	30.5
866.605	30
867.76	30.5
868.914	27
870.069	29
871.224	28
872.378	26.5
873.531	26.5
874.685	31.5
875.838	29
876.991	27.5
878.144	27.5
879.296	27.5
880.448	27
881.6	30
882.753	28
883.905	25.5
885.057	28
886.208	24
887.36	27
888.511	24.5
889.662	24.5
890.813	28.5
891.964	25.5
893.113	22
894.264	26.5
895.414	28
896.564	26
897.714	28.5
898.864	30.5
900.012	26
901.161	26.5
902.31	27.5
903.459	24
904.607	24
905.756	28
906.904	25.5
908.052	27.5
909.199	26
910.347	28.5
911.495	27.5
912.643	23
913.789	26
914.936	25
916.083	26
917.229	26.5
918.375	26.5
919.522	24.5
920.667	25
921.813	24.5
922.959	28.5
924.104	26.5
925.249	28
926.393	29
927.539	27.5
928.684	29
929.827	26.5
930.972	31.5
932.115	27
933.26	24
934.403	29.5
935.547	27
936.689	28
937.833	25
938.975	26
940.119	30
941.26	24
942.404	28.5
943.545	23
944.688	28.5
945.829	31
946.971	27.5
948.112	27.5
949.253	24
950.394	27
951.535	27.5
952.676	26
953.816	26.5
954.956	28
956.097	26.5
957.236	28.5
958.377	26.5
959.516	26
960.655	23
961.793	28.5
962.933	28.5
964.071	27
965.21	24
966.349	28.5
967.487	25.5
968.624	23.5
969.762	25.5
970.901	27.25
972.038	29
973.175	24
974.311	25
975.449	28
976.586	30
977.722	23
978.858	28
979.994	26.5
981.131	26.5
982.267	28
983.402	29
984.537	26.5
985.672	22.5
986.807	25
987.942	23.5
989.076	26
990.211	24
991.346	26
992.48	23.5
993.614	22
994.748	24.5
995.881	24
997.014	24.5
998.148	29
999.28	29.5
1000.41	25.5
1001.55	27.5
1002.68	27
1003.81	24.5
1004.94	26.5
1006.07	26.5
1007.21	28.5
1008.34	26
1009.47	27.5
1010.6	27
1011.73	25.5
1012.86	27
1013.99	27
1015.12	28.5
1016.25	29.5
1017.38	23
1018.51	27
1019.64	25
1020.77	27
1021.9	24
1023.03	27
1024.16	28
1025.29	23
1026.42	27
1027.54	25
1028.67	25
1029.8	23
1030.93	30
1032.06	23
1033.18	29.5
1034.31	28.5
1035.44	26
1036.56	21.5
1037.69	29.5
1038.82	24
1039.94	32
1041.07	23
1042.2	26
1043.32	25
1044.45	28
1045.57	27
1046.7	26.5
1047.82	27
1048.95	29
1050.07	26
1051.2	28.5
1052.32	24
1053.45	25
1054.57	27
1055.69	27
1056.82	27.5
1057.94	26
1059.06	26
1060.19	26
1061.31	29.5
1062.43	25.5
1063.55	25
1064.68	26.5
1065.8	26.5
1066.92	24
1068.04	24
1069.16	27
1070.28	26
1071.41	24
1072.53	31
1073.65	26
1074.77	25.5
1075.89	24
1077.01	28.5
1078.13	27.5
1079.25	29
1080.37	24
1081.49	27
1082.61	24
1083.73	26.5
1084.85	25.5
1085.96	23
1087.08	23
1088.2	26
1089.32	25.5
1090.44	24.5
1091.56	22.5
1092.67	26.5
1093.79	24
1094.91	24.5
1096.03	23
1097.14	26
1098.26	27.5
1099.38	26
1100.49	25
1101.61	23.5
1102.73	22
1103.84	25
1104.96	29.5
1106.07	26
1107.19	27
1108.3	23.5
1109.42	25.5
1110.53	27
1111.65	28.5
1112.76	25
1113.88	27.5
1114.99	26.5
1116.1	27
1117.22	22
1118.33	24
1119.44	24.5
1120.56	22
1121.67	24
1122.78	27
1123.9	24.5
1125.01	25
1126.12	22.5
1127.23	28.5
1128.34	22
1129.46	25.5
1130.57	26
1131.68	22
1132.79	24
1133.9	25.5
1135.01	24
1136.12	25.5
1137.23	25.5
1138.34	27.5
1139.45	26
1140.56	24.5
1141.67	24
1142.78	24.5
1143.89	27.5
1145	25
1146.11	24.5
1147.22	26
1148.33	21
1149.44	29.5
1150.54	25.5
1151.65	23.5
1152.76	22
1153.87	23
1154.97	26
1156.08	24
1157.19	21.5
1158.3	25
1159.4	26.5
1160.51	24.5
1161.62	21
1162.72	25
1163.83	26
1164.93	27.5
1166.04	23.5
1167.15	26
1168.25	25
1169.36	25
1170.46	23
1171.57	23
1172.67	25
1173.78	23.5
1174.88	22.5
1175.98	30.5
1177.09	24
1178.19	26.5
1179.3	27.5
1180.4	23.5
1181.5	23.5
1182.61	25
1183.71	27.5
1184.81	21
1185.91	27.5
1187.02	24
1188.12	25
1189.22	24
1190.32	25
1191.42	30
1192.53	24
1193.63	25
1194.73	27.9778
1195.83	19.0446
1196.93	28.8974
1198.03	26.0399
1199.13	28.8643
1200.23	28.8076
1201.33	26.8994
1202.43	27.3988
1203.53	24.3825
1204.63	22.7076
1205.73	26.43
1206.83	24.5633
1207.93	21.9498
1209.02	27.2356
1210.12	23.0576
1211.22	27.1153
1212.32	23.3339
1213.42	25.7666
1214.52	21.7967
1215.61	24.0299
1216.71	26.4458
1217.81	23.8956
1218.91	25.5084
1220	22.6889
1221.1	24.6309
1222.2	26.7019
1223.29	28.7993
1224.39	23.0722
1225.49	25.0851
1226.58	26.4009
1227.68	26.4636
1228.77	23.8991
1229.87	24.1926
1230.96	23.1863
1232.06	23.4575
1233.15	23.4938
1234.25	25.6439
1235.34	27.4933
1236.44	21.9213
1237.53	20.0585
1238.63	23.7881
1239.72	22.7504
1240.81	23.7112
1241.91	22.3681
1243	22.9355
1244.09	26.7364
1245.19	26.6432
1246.28	22.078
1247.37	27.8791
1248.46	23.5642
1249.56	25.4718
1250.65	26.0035
1251.74	21.7738
1252.83	24.8917
1253.92	25.2055
1255.01	25.9223
1256.11	23.7567
1257.2	24.5026
1258.29	28.9149
1259.38	25.9518
1260.47	23.0023
1261.56	24.5259
1262.65	26.3756
1263.74	27.549
1264.83	25.2648
1265.92	25.1511
1267.01	27.3871
1268.1	26.4132
1269.19	27.6695
1270.27	25.7299
1271.36	21.9245
1272.45	24.0752
1273.54	26.5132
1274.63	24.0166
1275.72	24.198
1276.8	22.0455
1277.89	22.5944
1278.98	24.1784
1280.07	24.9762
1281.15	24.046
1282.24	24.5019
1283.33	25.3318
1284.41	22.9637
1285.5	25.2994
1286.59	26.1974
1287.67	25.4054
1288.76	23.185
1289.84	23.2243
1290.93	26.4193
1292.01	25.1275
1293.1	23.6929
1294.19	23.4064
1295.27	22.1913
1296.35	25.3008
1297.44	23.7887
1298.52	20.8581
1299.61	23.8965
1300.69	22.8693
1301.78	23.3229
1302.86	24.6195
1303.94	21.429
1305.03	25.1586
1306.11	26.254
1306.4	26
1307.49	24.5
1308.57	29
1309.66	25
1310.75	25.5
1311.84	24
1312.92	25.5
1314.01	22.5
1315.1	21
1316.19	26
1317.27	22.5
1318.36	25
1319.45	21.5
1320.53	25
1321.62	20
1322.7	23.5
1323.79	25.5
1324.88	21
1325.96	25
1327.05	23
1328.13	25
1329.21	27
1330.3	22
1331.38	28.5
1332.47	23
1333.55	26
1334.64	23.5
1335.72	25.5
1336.8	26
1337.89	25
1338.97	25.5
1340.05	24.5
1341.14	24.5
1342.22	22
1343.3	24.5
1344.39	27.5
1345.47	25
1346.55	23
1347.63	21.5
1348.71	22
1349.79	22.5
1350.88	27
1351.96	25.5
1353.04	20
1354.12	25
1355.2	25.5
1356.28	22.5
1357.36	22
1358.44	24
1359.52	26
1360.6	22.5
1361.68	24
1362.76	21
1363.84	28
1364.92	22
1366	29
1367.08	20.5
1368.16	26
1369.23	23.5
1370.31	23
1371.39	26.5
1372.47	25
1373.55	24
1374.62	21.5
1375.7	25
1376.78	24
1377.85	27.5
1378.93	26.5
1380.01	23.5
1381.09	23
1382.16	24.5
1383.24	28
1384.31	27.5
1385.39	22.5
1386.47	24.5
1387.54	24
1388.62	25.5
1389.69	25
1390.77	25.5
1391.84	25
1392.92	23.5
1393.99	25.5
1395.06	26.5
1396.14	26
1397.21	28
1398.29	28.5
1399.36	31
1400.43	32
1401.51	26
1402.58	30.5
1403.65	28.5
1404.73	30.5
1405.8	26.5
1406.87	31
1407.94	32
1409.02	31.5
1410.09	32
1411.16	32
1412.23	28.5
1413.3	33
1414.37	33
1415.45	31.5
1416.52	31.5
1417.59	29
1418.66	28
1419.73	26
1420.8	31
1421.87	26
1422.94	27
1424.01	27
1425.08	29
1426.15	26
1427.22	27.5
1428.29	26.5
1429.35	27
1430.42	25.5
1431.49	27.5
1432.56	29
1433.63	27.5
1434.7	24.5
1435.77	24
1436.83	29.5
1437.9	26
1438.97	27
1440.04	28.5
1441.1	27
1442.17	22.5
1443.24	26.5
1444.3	27
1445.37	22.5
1446.44	21.5
1447.5	23.5
1448.57	26.5
1449.63	25.5
1450.7	26
1451.76	26.5
1452.83	25
1453.89	24.5
1454.96	26.5
1456.02	25
1457.09	25.5
1458.15	25
1459.22	25
1460.28	22
1461.34	23.5
1462.41	23
1463.47	24.5
1464.54	24
1465.6	26.5
1466.66	29
1467.72	25
1468.79	28.5
1469.85	23.5
1470.91	23
1471.97	23.5
1473.04	28.5
1474.1	24
1475.16	23.5
1476.22	21
1477.28	21
1478.34	24
1479.4	24.5
1480.47	30
1481.53	21.5
1482.59	29.5
1483.65	26
1484.71	26
1485.77	27.5
1486.83	25
1487.89	27
1488.95	31
1490.01	22
1491.07	25
1492.12	30
1493.18	26
1494.24	23
1495.3	25.5
1496.36	25
1497.42	25.5
1498.47	25
1499.53	24
1500.59	26
1501.65	27
1502.7	26
1503.76	27.5
1504.82	24
1505.88	26
1506.93	21.5
1507.99	24
1509.05	27.5
1510.1	24
1511.16	24.5
1512.21	24.5
1513.27	22.5
1514.32	26
1515.38	28
1516.43	27
1517.49	25
1518.54	30
1519.6	26.5
1520.65	27
1521.71	25.5
1522.76	26
1523.82	28.5
1524.87	30
1525.92	29.5
1526.98	26.5
1528.03	24.5
1529.08	27.5
1530.14	26.5
1531.19	32
1532.24	24
1533.3	26.5
1534.35	24
1535.4	24.5
1536.45	30
1537.5	26.5
1538.56	27
1539.61	23.5
1540.66	22
1541.71	24.5
1542.76	23
1543.81	26
1544.86	26.5
1545.91	24.5
1546.96	26.5
1548.01	26
1549.06	26.5
1550.11	24.5
1551.16	26
1552.21	24.5
1553.26	24
1554.31	26.5
1555.36	30
1556.41	25
1557.46	24.5
1558.51	26
1559.55	29
1560.6	25
1561.65	28.5
1562.7	27
1563.75	29.5
1564.79	26.5
1565.84	23
1566.89	26.5
1567.94	26.5
1568.98	27.5
1570.03	27
1571.07	23
1572.12	22
1573.17	21
1574.21	25
1575.26	21
1576.31	24.5
1577.35	24.5
1578.4	29
1579.44	23
1580.49	26
1581.53	22
1582.58	26
1583.62	25
1584.67	26.5
1585.71	25
1586.75	25.5
1587.8	23
1588.84	25
1589.89	25.5
1590.93	26.5
1591.97	23.5
1593.02	26.5
1594.06	25
1595.1	25
1596.14	25.5
1597.19	25
1598.23	25
1599.27	25
1600.31	25
1601.35	27.5
1602.4	22
1603.44	25.5
1604.48	23
1605.52	27.5
1606.56	25
1607.6	26.5
1608.64	26
1609.68	26.5
1610.72	26.5
1611.76	23
1612.8	24.5
1613.84	22
1614.88	26.5
1615.92	24
1616.96	25
1618	30
1619.04	26
1620.08	25
1621.12	24
1622.16	24
1623.19	27
1624.23	26
1625.27	27.5
1626.31	28.5
1627.35	25
1628.38	24
1629.42	21.5
1630.46	25
1631.5	26
1632.53	24
1633.57	26.5
1634.61	22.5
1635.64	27.5
1636.68	23.5
1637.71	24
1638.75	23.5
1639.79	25.5
1640.82	26.5
1641.86	26
1642.89	25
1643.93	26.5
1644.96	26
1646	23.5
1647.03	28.5
1648.07	26
1649.1	27.5
1650.14	26
1651.17	24
1652.2	26.5
1653.24	29
1654.27	21
1655.3	23
1656.34	23
1657.37	25
1658.4	25.5
1659.44	24.5
1660.47	25.5
1661.5	25
1662.53	26
1663.57	24.5
1664.6	28.5
1665.63	25.5
1666.66	25
1667.69	29.5
1668.72	22.5
1669.75	26.5
1670.79	23
1671.82	22.5
1672.85	24.5
1673.88	21.5
1674.91	26
1675.94	24
1676.97	27
1678	24.5
1679.03	27
1680.06	24.5
1681.09	26.5
1682.11	27.5
1683.14	23.5
1684.17	27.5
1685.2	26.5
1686.23	30.5
1687.26	27
1688.29	26.5
1689.32	26
1690.34	23.5
1691.37	26
1692.4	21.5
1693.43	26.5
1694.45	23
1695.48	25
1696.51	22
1697.53	28.5
1698.56	25
1699.59	24
1700.61	22.5
1701.64	26
1702.66	24
1703.69	25
1704.72	26.5
1705.74	26
1706.77	25
1707.79	29
1708.82	23
1709.84	26
1710.87	24.5
1711.89	27
1712.92	28
1713.94	24.5
1714.96	25
1715.99	24
1717.01	22.5
1718.04	22
1719.06	28
1720.08	22.5
1721.11	28
1722.13	24
1723.15	23.5
1724.17	27
1725.2	27
1726.22	24
1727.24	23
1728.26	24.5
1729.28	25.5
1730.31	27
1731.33	22
1732.35	24
1733.37	22
1734.39	18.5
1735.41	26
1736.43	23
1737.45	26.5
1738.47	26
1739.49	26
1740.51	25.5
1741.53	31
1742.55	28
1743.57	24
1744.59	25.5
1745.61	25.5
1746.63	28
1747.65	30.5
1748.67	24.5
1749.69	25.5
1750.71	27
1751.72	22
1752.74	26.5
1753.76	28
1754.78	26.5
1755.8	23.5
1756.81	24
1757.83	23
1758.85	25.5
1759.86	25.5
1760.88	23.5
1761.9	21.5
1762.91	22
1763.93	24
1764.95	22.5
1765.96	22.5
1766.98	24
1768	27.5
1769.01	23.5
1770.03	28.5
1771.04	23
1772.06	24.5
1773.07	26.5
1774.09	27.5
1775.1	25
1776.12	28.5
1777.13	25
1778.14	26
1779.16	24
1780.17	25.5
1781.19	21
1782.2	25
1783.21	25.5
1784.23	29
1785.24	24
1786.25	25
1787.27	23
1788.28	28
1789.29	26
1790.3	23
1791.32	25
1792.33	29
1793.34	27
1794.35	23.5
1795.36	25
1796.37	25
1797.38	24
1798.4	25.5
1799.41	26
1800.42	20.5
1801.43	21.5
1802.44	28
1803.45	25.5
1804.46	25
1805.47	26.5
1806.48	22
1807.49	24
1808.5	25.5
1809.51	24.5
1810.52	28.5
1811.53	27
1812.53	25.5
1813.54	30.5
1814.55	20.5
1815.56	28
1816.57	25
1817.58	28.5
1818.58	22
1819.59	26.5
1820.6	27
1821.61	24.5
1822.61	27
1823.62	24
1824.63	27
1825.64	27
1826.64	25
1827.65	24.5
1828.66	27
1829.66	23
1830.67	27.5
1831.67	27.5
1832.68	25
1833.68	23
1834.69	20
1835.7	25.5
1836.7	26
1837.71	27
1838.71	22
1839.71	25
1840.72	23
1841.72	23.5
1842.73	25.5
1843.73	20.5
1844.74	29
1845.74	22
1846.74	27.5
1847.75	25.5
1848.75	21
1849.75	20
1850.76	24.5
1851.76	24
1852.76	25.5
1853.76	26
1854.77	22
1855.77	25
1856.77	24.5
1857.77	24
1858.77	21
1859.78	17.5
1860.78	25
1861.78	27.5
1862.78	23
1863.78	21
1864.78	22
1865.78	28.5
1866.78	21.5
1867.78	26.5
1868.78	21.5
1869.78	26
1870.78	27.5
1871.78	25.5
1872.78	24
1873.78	22.5
1874.78	26
1875.78	23.5
1876.78	18
1877.78	27.5
1878.78	22.5
1879.77	23
1880.77	25.5
1881.77	24
1882.77	21
1883.77	29.5
1884.76	21
1885.76	26
1886.76	27.5
1887.76	26.5
1888.75	25
1889.75	23.5
1890.75	30.5
1891.74	24
1892.74	25
1893.74	25.5
1894.73	24.5
1895.73	25
1896.72	23
1897.72	24.5
1898.72	27
1899.71	25
1900.71	26.5
1901.7	28.5
1902.7	28.5
1903.69	28
1904.69	27.5
1905.68	21
1906.67	26
1907.67	24.5
1908.66	27
1909.66	27
1910.65	26
1911.64	24
1912.64	23
1913.63	19.5
1914.62	25
1915.62	23
1916.61	29.5
1917.6	25
1918.59	25
1919.59	23
1920.58	25.5
1921.57	26.5
1922.56	21
1923.55	22
1924.55	22
1925.54	25
1926.53	26
1927.52	23.5
1928.51	26.5
1929.5	26.5
1930.49	26
1931.48	23
1932.47	26
1933.46	21.5
1934.45	24
1935.44	24
1936.43	25
1937.42	31.5
1938.41	23
1939.4	26.5
1940.39	24
1941.38	24
1942.37	25
1943.36	25
1944.34	26
1945.33	24.5
1946.32	24
1947.31	25.5
1948.3	26
1949.28	24
1950.27	24
1951.26	25.5
1952.25	24
1953.23	22.5
1954.22	28.5
1955.21	23.5
1956.2	26.5
1957.18	24
1958.17	26.5
1959.15	25.5
1960.14	22
1961.13	23
1962.11	23
1963.1	25
1964.08	23
1965.07	27
1966.05	23
1967.04	21.5
1968.02	22
1969.01	27.5
1969.99	21
1970.98	26
1971.96	19
1972.94	25
1973.93	27.5
1974.91	26
1975.9	22.5
1976.88	25.5
1977.86	22
1978.85	27
1979.83	24.5
1980.81	27
1981.8	28.5
1982.78	22.5
1983.76	24.5
1984.74	28
1985.72	26.5
1986.71	20
1987.69	26
1988.67	22.5
1989.65	27
1990.63	26
1991.61	25.5
1992.6	27
1993.58	22
1994.56	27
1995.54	28
1996.52	25
1997.5	27
1998.48	24
1999.46	23.5
2000.44	24
2001.42	22.5
2002.4	23
2003.38	22.5
2004.36	20
2005.34	26
2006.32	25
2007.29	24.5
2008.27	18
2009.25	24
2010.23	23.5
2011.21	22
2012.19	27
2013.16	24
2014.14	23
2015.12	25.5
2016.1	26.5
2017.07	23
2018.05	25
2019.03	21.5
2020	27.5
2020.98	24.5
2021.96	22
2022.93	23.5
2023.91	24.5
2024.89	31
2025.86	28
2026.84	23
2027.81	24
2028.79	21
2029.77	24
2030.74	20
2031.72	23.5
2032.69	21
2033.67	20
2034.64	25
2035.61	24.5
2036.59	22
2037.56	21
2038.54	27.5
2039.51	27.5
2040.48	21.5
2041.46	21.5
2042.43	24
2043.41	22
2044.38	25.5
2045.35	24.5
2046.32	22
2047.3	26
2048.27	27
2049.24	23.5
2050.21	25
2051.19	25
2052.16	22.5
2053.13	24.5
2054.1	26.5
2055.07	20.5
2056.04	21.5
2057.02	23
2057.99	24.5
2058.96	27.5
2059.93	24.5
2060.9	24
2061.87	23
2062.84	24.5
2063.81	25.5
2064.78	23.5
2065.75	23
2066.72	25
2067.69	26
2068.66	20
2069.63	23
2070.6	24
2071.57	24
2072.53	24.5
2073.5	24
2074.47	21.5
2075.44	25
2076.41	23
2077.38	22
2078.34	21.5
2079.31	26
2080.28	21.5
2081.25	25.5
2082.21	24.5
2083.18	23
2084.15	25
2085.12	22
2086.08	26
2087.05	22
2088.02	26
2088.98	24.5
2089.95	23.5
2090.91	26
2091.88	25.5
2092.85	27.5
2093.81	22
2094.78	25
2095.74	23.5
2096.71	24.5
2097.67	21.5
2098.64	25
2099.6	24
2100.57	27.5
2101.53	23
2102.5	21
2103.46	26
2104.42	27.5
2105.39	23
2106.35	22
2107.31	20
2108.28	22
2109.24	24
2110.2	21.5
2111.17	23.5
2112.13	25.5
2113.09	21
2114.06	25
2115.02	26
2115.98	26
2116.94	27.5
2117.9	25.5
2118.86	25.5
2119.83	25
2120.79	27
2121.75	22
2122.71	23.5
2123.67	22.5
2124.63	22
2125.59	22
2126.55	23
2127.51	19
2128.48	23.5
2129.43	22
2130.4	25.5
2131.35	23.5
2132.31	26.5
2133.27	23
2134.23	26
2135.19	21
2136.15	24
2137.11	22
2138.07	22
2139.03	25
2139.99	23.5
2140.95	25
2141.9	23.5
2142.86	23.491
2143.82	20.0194
2144.78	22.1279
2145.74	24.5193
2146.69	24.9625
2147.65	24.4257
2148.61	25.1989
2149.56	24.4052
2150.52	21.9066
2151.48	22.8997
2152.44	24.0877
2153.39	21.5277
2154.35	22.4706
2155.3	23.1599
2156.26	21.312
2157.22	23.1163
2158.17	23.4199
2159.13	20.1316
2160.08	25.6408
2161.04	25.9483
2161.99	26.907
2162.95	22.3775
2163.9	26.5341
2164.86	22.8216
2165.81	21.8272
2166.77	20.8853
2167.72	23.3422
2168.68	21.8773
2169.63	23.5988
2170.58	22.5
2171.54	21.7961
2172.49	21.4587
2173.44	23.9874
2174.4	23.0972
2175.35	22.797
2176.3	21.92
2177.26	23.0548
2178.21	22.0922
2179.16	22.3505
2180.11	24.2587
2181.07	22.9237
2182.02	21.8831
2182.97	24.9248
2183.92	22.62
2184.88	22.5937
2185.83	22.6124
2186.78	22.5165
2187.73	22.9012
2188.68	21.4574
2189.63	22.7017
2190.58	25.784
2191.53	22.9213
2192.48	21.2047
2193.43	21.7145
2194.38	23.722
2195.33	25.1328
2196.28	24.0489
2197.23	19.9655
2198.18	24.2443
2199.13	25.2837
2200.08	23.4144
2201.03	21.6331
2201.98	21.7819
2202.93	22.767
2203.88	23.7191
2204.83	22.8987
2205.78	23.0734
2206.72	24.6122
2207.67	23.3115
2208.62	24.338
2209.57	22.967
2210.52	22.9155
2211.46	21.4104
2212.41	20.5514
2213.36	21.4523
2214.31	23.9542
2215.25	22.328
2216.2	23.3379
2217.15	24.3568
2218.09	24.4723
2219.04	22.1756
2219.99	22.9137
2220.93	21.6929
2221.88	23.9009
2222.83	23.1024
2223.77	24.4769
2224.72	23.3303
2225.66	24.0083
2226.61	23.7731
2227.55	24.2376
2228.5	21.7302
2229.44	22.4687
2230.39	20.3573
2231.33	23.0676
2232.28	23.8762
2233.22	20.209
2234.17	22.6436
2235.11	22.5749
2236.05	22.6092
2237	24.4744
2237.94	21.1266
2238.88	21.5778
2239.83	23.1673
2240.04	23.5
2240.98	24
2241.93	23
2242.88	26.5
2243.83	21.5
2244.78	21
2245.72	23
2246.67	28
2247.62	24
2248.56	18.5
2249.51	22
2250.46	20
2251.4	24.5
2252.35	21.5
2253.3	21.5
2254.24	23
2255.19	25.5
2256.14	23
2257.08	22.5
2258.03	20.5
2258.97	23
2259.92	26.5
2260.86	23
2261.81	21
2262.75	24
2263.7	23.5
2264.64	23.5
2265.59	22
2266.53	25
2267.48	22
2268.42	26
2269.36	24.5
2270.31	22.5
2271.25	24.5
2272.19	25.5
2273.14	22.5
2274.08	18.5
2275.02	24
2275.97	25.5
2276.91	24
2277.85	22
2278.8	23
2279.74	22
2280.68	20.5
2281.62	22.5
2282.56	24.5
2283.51	20.5
2284.45	20.5
2285.39	23
2286.33	22.5
2287.27	24
2288.21	20
2289.15	22.5
2290.09	20.5
2291.04	23.5
2291.98	24
2292.92	24
2293.86	22.5
2294.8	23
2295.74	23
2296.68	22
2297.62	23
2298.56	24.5
2299.5	24
2300.44	19.5
2301.37	23
2302.31	24.5
2303.25	24
2304.19	20.5
2305.13	24.5
2306.07	19
2307.01	25.5
2307.94	22
2308.88	23.5
2309.82	23
2310.76	26
2311.7	19
2312.63	22.5
2313.57	23
2314.51	23
2315.44	23
2316.38	24
2317.32	22.5
2318.26	21.5
2319.19	27
2320.13	21
2321.06	26.5
2322	21
2322.94	21
2323.87	24
2324.81	23.5
2325.74	22
2326.68	25
2327.61	19
2328.55	24
2329.48	23
2330.42	20
2331.35	22.5
2332.29	20
2333.22	20
2334.16	28
2335.09	24
2336.02	24.5
2336.96	23
2337.89	22
2338.83	21
2339.76	22.5
2340.69	26
2341.63	22
2342.56	20.5
2343.49	22
2344.42	26.5
2345.36	23.5
2346.29	20.5
2347.22	22
2348.15	21.5
2349.09	26.5
2350.02	23
2350.95	23
2351.88	22.5
2352.81	25
2353.74	21
2354.68	21.5
2355.61	23.5
2356.54	23.5
2357.47	22
2358.4	21.5
2359.33	24
2360.26	25
2361.19	25
2362.12	22
2363.05	25
2363.98	25.5
2364.91	25
2365.84	27
2366.77	23
2367.7	20.5
2368.63	23
2369.56	22
2370.49	24.5
2371.41	25.5
2372.34	21
2373.27	25.5
2374.2	25.5
2375.13	26
2376.06	22
2376.98	22
2377.91	17.5
2378.84	21
2379.77	22.5
2380.69	22.5
2381.62	23.5
2382.55	23
2383.47	19.5
2384.4	22
2385.33	25
2386.25	24.5
2387.18	24
2388.11	20
2389.03	23.5
2389.96	25
2390.89	26.5
2391.81	19.5
2392.74	25
2393.66	25
2394.59	25
2395.51	23
2396.44	21
2397.36	24
2398.29	25
2399.21	26.5
2400.14	22.5
2401.06	23
2401.99	25
2402.91	24
2403.83	21
2404.76	23.5
2405.68	23.5
2406.6	27
2407.53	19.5
2408.45	20
2409.37	26
2410.3	23
2411.22	26.5
2412.14	20.5
2413.06	22
2413.99	26.5
2414.91	25
2415.83	22.5
2416.75	25
2417.68	26.5
2418.6	22.5
2419.52	21.5
2420.44	25
2421.36	21
2422.28	25.5
2423.2	25
2424.12	23.5
2425.05	24
2425.97	22
2426.89	19
2427.81	23
2428.73	20
2429.65	24.5
2430.57	24
2431.49	24.5
2432.41	28
2433.33	21
2434.25	24.5
2435.17	20
2436.08	25
2437	25
2437.92	25.5
2438.84	25.5
2439.76	22.5
2440.68	21
2441.6	22
2442.51	23
2443.43	21
2444.35	23
2445.27	25.5
2446.19	26
2447.1	22.5
2448.02	25
2448.94	22
2449.85	25
2450.77	23
2451.69	23
2452.61	26
2453.52	27
2454.44	25
2455.35	25
2456.27	24.5
2457.19	24
2458.1	27
2459.02	23.5
2459.94	23
2460.85	19.5
2461.77	23
2462.68	25.5
2463.6	21
2464.51	19.5
2465.43	26.5
2466.34	26.5
2467.25	27
2468.17	26.5
2469.08	26
2470	23
2470.91	23
2471.83	25
2472.74	27
2473.65	25
2474.57	23.5
2475.48	22
2476.39	24
2477.31	27.5
2478.22	20.5
2479.13	25.5
2480.04	21.5
2480.96	26.5
2481.87	24.5
2482.78	22.5
2483.69	26.5
2484.6	27.5
2485.52	24
2486.43	26
2487.34	18.5
2488.25	25.5
2489.16	21.5
2490.07	25
2490.99	27.5
2491.9	22.5
2492.81	23
2493.72	24.5
2494.63	26
2495.54	21.5
2496.45	22.5
2497.36	23.5
2498.27	26
2499.18	25.5
2500.09	22
2501	25.5
2501.91	25
2502.82	26
2503.73	25.5
2504.63	28
2505.54	27
2506.45	22.5
2507.36	26
2508.27	25
2509.18	24
2510.09	28
2510.99	25
2511.9	27
2512.81	25
2513.72	23.5
2514.62	29
2515.53	23.5
2516.44	23
2517.35	23.5
2518.25	24
2519.16	23
2520.07	25
2520.97	22
2521.88	25
2522.79	23
2523.69	24.5
2524.6	19.5
2525.51	24
2526.41	24
2527.32	21.5
2528.22	22
2529.13	23
2530.03	24
2530.94	24
2531.84	25
2532.75	24.5
2533.65	21.5
2534.56	25.5
2535.46	24
2536.37	27.5
2537.27	25
2538.17	24
2539.08	23
2539.98	26
2540.89	24
2541.79	25
2542.69	24
2543.6	22
2544.5	26
2545.4	22.5
2546.31	25
2547.21	25
2548.11	25
2549.01	26
2549.92	21.5
2550.82	22.5
2551.72	23.5
2552.62	24.5
2553.52	19
2554.42	22.5
2555.33	26
2556.23	27.5
2557.13	24.5
2558.03	24.5
2558.93	23
2559.83	21.5
2560.73	23
2561.63	20
2562.53	26
2563.43	26
2564.33	26
2565.24	26
2566.13	21
2567.04	20.5
2567.93	24.5
2568.83	23.5
2569.73	22.5
2570.63	24.5
2571.53	28
2572.43	27.5
2573.33	28.5
2574.23	24.5
2575.13	25
2576.03	24
2576.92	25
2577.82	24.5
2578.72	20.5
2579.62	27
2580.52	21
2581.41	26
2582.31	22.5
2583.21	22
2584.11	24
2585	26.5
2585.9	23.5
2586.8	23
2587.69	21.5
2588.59	23.5
2589.49	25
2590.38	29
2591.28	19
2592.18	24.5
2593.07	26
2593.97	23
2594.86	25
2595.76	27
2596.66	23
2597.55	24
2598.45	23.5
2599.34	25.5
2600.24	25
2601.13	25
2602.03	27
2602.92	22.5
2603.81	23
2604.71	23
2605.6	26
2606.5	22
2607.39	23
2608.28	27
2609.18	26.5
2610.07	24.5
2610.97	24
2611.86	21
2612.75	27
2613.64	21
2614.54	25
2615.43	27.5
2616.32	23
2617.22	28.5
2618.11	29
2619	25
2619.89	17.5
2620.78	26
2621.68	24.5
2622.57	24
2623.46	27.5
2624.35	22.5
2625.24	24
2626.13	23.5
2627.02	26
2627.91	24.5
2628.81	25
2629.7	25
2630.59	25.5
2631.48	24.5
2632.37	22
2633.26	23
2634.15	22.5
2635.04	22.5
2635.93	23.5
2636.82	26
2637.71	26
2638.59	24.5
2639.48	24
2640.37	26
2641.26	21.5
2642.15	23
2643.04	26.5
2643.93	23.5
2644.82	21.5
2645.71	26
2646.59	27.5
2647.48	26
2648.37	26
2649.26	24
2650.15	26.5
2651.03	23
2651.92	21.5
2652.81	23
2653.69	22
2654.58	23.5
2655.47	21.5
2656.35	21.5
2657.24	25
2658.13	27
2659.01	27
2659.9	23.5
2660.79	26
2661.67	23.5
2662.56	20
2663.44	23.5
2664.33	25.5
2665.22	21.5
2666.1	24.5
2666.99	23
2667.87	22
2668.76	24
2669.64	20.5
2670.52	24.5
2671.41	25
2672.29	25.5
2673.18	22.5
2674.06	24
2674.95	20.5
2675.83	20.5
2676.71	26.5
2677.6	23
2678.48	21
2679.36	27.5
2680.25	24
2681.13	28
2682.01	27.5
2682.9	21.5
2683.78	29
2684.66	26
2685.55	24
2686.43	24
2687.31	23
2688.19	19
2689.07	22.5
2689.96	24
2690.84	25.5
2691.72	23.5
2692.6	20
2693.48	22.5
2694.36	21.5
2695.24	29
2696.12	22
2697	23.5
2697.89	23
2698.77	25
2699.65	24.5
2700.53	24.5
2701.41	25
2702.29	29
2703.17	26.5
2704.05	28
2704.93	26.5
2705.81	25
2706.69	24
2707.57	23
2708.44	25.5
2709.32	22.5
2710.2	29
2711.08	22.5
2711.96	23
2712.84	21
2713.72	24
2714.59	23.5
2715.47	25.5
2716.35	25
2717.23	25
2718.11	24
2718.98	25
2719.86	23.5
2720.74	25
2721.62	27.5
2722.49	26.5
2723.37	19.5
2724.25	23
2725.12	23
2726	24
2726.88	24
2727.75	23
2728.63	27
2729.51	18
2730.38	23
2731.26	25.5
2732.13	23.5
2733.01	28
2733.88	25.5
2734.76	24.5
2735.63	20.5
2736.51	23
2737.38	24.5
2738.26	26
2739.13	22
2740.01	24
2740.88	23
2741.76	21.5
2742.63	25
2743.5	23.5
2744.38	25
2745.25	23.5
2746.13	22
2747	23.5
2747.87	23
2748.75	21
2749.62	21
2750.49	25.5
2751.36	26
2752.24	24.5
2753.11	26
2753.98	23.5
2754.86	26
2755.73	22.5
2756.6	22
2757.47	23
2758.34	24
2759.22	22.5
2760.09	20
2760.96	24.5
2761.83	26.5
2762.7	25
2763.57	22
2764.44	29
2765.31	23
2766.18	23.5
2767.06	25
2767.93	27
2768.8	27.5
2769.67	27.5
2770.54	25
2771.41	20.5
2772.28	24.5
2773.15	27
2774.02	27
2774.89	25.5
2775.75	23.5
2776.62	27
2777.49	26
2778.36	25
2779.23	27.5
2780.1	23.5
2780.97	29
2781.84	30
2782.71	24.5
2783.57	24.5
2784.44	26
2785.31	23.5
2786.18	28.5
2787.04	27.5
2787.91	24.5
2788.78	26
2789.65	23
2790.51	25
2791.38	29
2792.25	24.5
2793.12	26
2793.98	26
2794.85	26.5
2795.72	21
2796.58	31.5
2797.45	23
2798.31	24
2799.18	25
2800.05	26
2800.91	25.5
2801.78	25
2802.64	24.5
2803.51	25.5
2804.37	28
2805.24	21.5
2806.1	29
2806.97	27
2807.83	24
2808.7	24
2809.56	29
2810.43	28
2811.29	25.5
2812.15	29.5
2813.02	24.5
2813.88	27
2814.75	25
2815.61	27.5
2816.47	27
2817.34	28
2818.2	29
2819.06	23
2819.92	27.5
2820.79	24
2821.65	24.5
2822.51	27.5
2823.37	25.5
2824.24	28
2825.1	24.5
2825.96	23
2826.82	25
2827.69	29.5
2828.55	26.5
2829.41	25.5
2830.27	29
2831.13	24
2831.99	28
2832.85	28
2833.71	29.5
2834.58	24
2835.44	23
2836.3	25.5
2837.16	28
2838.02	20.5
2838.88	26.5
2839.74	27.5
2840.6	23
2841.46	24.5
2842.32	25
2843.18	28
2844.04	28
2844.9	27.5
2845.75	26
2846.61	30
2847.47	25
2848.33	29
2849.19	27
2850.05	23
2850.91	26.5
2851.77	28
2852.62	24.5
2853.48	25.5
2854.34	25
2855.2	21.5
2856.06	27.5
2856.91	25
2857.77	23
2858.63	27
2859.48	26.5
2860.34	23
2861.2	24
2862.06	27.5
2862.91	26
2863.77	25
2864.63	27.5
2865.48	29
2866.34	26.5
2867.19	27.5
2868.05	27.5
2868.91	26.5
2869.76	25
2870.62	33
2871.47	29
2872.33	26
2873.18	30.5
2874.04	24
2874.89	32
2875.75	29
2876.6	30.5
2877.46	30.5
2878.31	34
2879.17	33.5
2880.02	33
2880.88	33.5
2881.73	33
2882.58	34
2883.44	32.5
2884.29	31.5
2885.14	39
2886	35.5
2886.85	34
2887.7	40.5
2888.56	34
2889.41	37
2890.26	37.5
2891.12	35
2891.97	41
2892.82	40.5
2893.67	44
2894.52	40
2895.38	47
2896.23	50
2897.08	50.5
2897.93	53
2898.78	53
2899.64	60
2900.49	64
2901.34	60.5
2902.19	64.5
2903.04	64
2903.89	66
2904.74	74
2905.59	68
2906.44	74
2907.29	72
2908.14	69
2908.99	67
2909.84	64
2910.69	65
2911.54	64
2912.39	58
2913.24	57
2914.09	47.5
2914.94	50.5
2915.79	44
2916.64	48
2917.49	40.5
2918.34	38
2919.18	38
2920.03	30
2920.88	38
2921.73	38.5
2922.58	38
2923.42	34
2924.27	36
2925.12	31
2925.97	29
2926.82	27.5
2927.66	32
2928.51	30.5
2929.36	27.5
2930.2	31
2931.05	32.5
2931.9	29
2932.74	31
2933.59	29
2934.44	24.5
2935.28	33.5
2936.13	27.5
2936.98	30.5
2937.82	27.5
2938.67	25.5
2939.51	26.5
2940.36	28
2941.2	26
2942.05	28.5
2942.9	27
2943.74	26.5
2944.58	26.5
2945.43	28.5
2946.27	22.5
2947.12	30.5
2947.96	30
2948.81	35
2949.65	31.5
2950.5	33.5
2951.34	31
2952.18	30.5
2953.03	32.5
2953.87	29
2954.71	36.5
2955.56	32
2956.4	34
2957.24	35
2958.09	34.5
2958.93	34
2959.77	39.5
2960.62	40
2961.46	40.5
2962.3	42
2963.14	45
2963.98	44.5
2964.83	45
2965.67	45
2966.51	46
2967.35	46
2968.19	42
2969.04	36.5
2969.88	45
2970.72	39
2971.56	37.9879
2972.4	35.0073
2973.24	32.5629
2974.08	39.9683
2974.92	35.9628
2975.76	33.6769
2976.6	34.8804
2977.44	35.5643
2978.28	35.4636
2979.12	31.4238
2979.96	31.4094
2980.8	29.9266
2981.64	23.3559
2982.48	30.4134
2983.32	30.8622
2984.16	27.4326
2985	27.1019
2985.84	27.478
2986.68	27.448
2987.52	28.2
2988.35	29.3137
2989.19	26.3206
2990.03	25.3434
2990.87	24.2807
2991.71	24.0354
2992.55	23.4204
2993.38	26.0403
2994.22	24.7903
2995.06	27.7307
2995.9	26.326
2996.73	24.3519
2997.57	24.6942
2998.41	25.6215
2999.25	25.7654
3000.08	24.1039
3000.92	22.2889
3001.76	23.4527
3002.59	23.7922
3003.43	22.5645
3004.27	25.1195
3005.1	23.982
3005.94	24.2855
3006.78	23.9843
3007.61	22.8546
3008.45	24.5137
3009.28	21.6888
3010.12	21.8873
3010.95	23.331
3011.79	23.2229
3012.62	22.5054
3013.46	23.2876
3014.29	26.6103
3015.13	25.2221
3015.96	25.1397
3016.8	21.7444
3017.63	24.3633
3018.47	24.5841
3019.3	23.2343
3020.14	21.5426
3020.97	22.0308
3021.8	25.6932
3022.64	23.4831
3023.47	21.4109
3024.3	23.7184
3025.14	23.1728
3025.97	23.2715
3026.8	21.7747
3027.64	23.1913
3028.47	24.1152
3029.3	23.2506
3030.14	21.0534
3030.97	22.3058
3031.8	23.0278
3032.63	21.9864
3033.46	22.9276
3034.3	23.205
3035.13	23.7282
3035.96	22.4748
3036.79	23.6146
3037.62	22.0488
3038.46	22.1909
3039.29	26.3553
3040.12	24.0847
3040.95	24.0614
3041.78	26.2859
3042.61	23.5448
3043.44	22.2459
3044.27	23.4667
3045.1	21.5704
3045.93	21.8069
3046.76	21.9177
3047.59	21.1404
3048.42	24.7918
3049.25	22.37
3050.08	20.9174
3050.91	25.6303
3051.74	22.1144
3052.57	20.001
3053.4	19.9365
3054.23	21.966
3055.06	23.6202
3055.89	25.5916
3056.72	21.5762
3057.32	23
3058.15	20.5
3058.98	22
3059.82	21.5
3060.65	21.5
3061.48	26.5
3062.31	26
3063.15	27
3063.98	23
3064.81	20
3065.64	23
3066.48	22
3067.31	23.5
3068.14	20.5
3068.97	19
3069.8	23
3070.63	25
3071.47	25
3072.3	24
3073.13	28
3073.96	21.5
3074.79	24.5
3075.62	23.5
3076.45	23.5
3077.28	24.5
3078.11	22
3078.94	23.5
3079.77	24
3080.6	21.5
3081.43	21.5
3082.26	21.5
3083.09	23.5
3083.92	26.5
3084.75	27
3085.58	22.5
3086.41	24.5
3087.24	23
3088.07	21
3088.9	21
3089.73	25.5
3090.55	21
3091.38	22.5
3092.21	21.5
3093.04	21
3093.87	24
3094.7	22
3095.52	21
3096.35	26.5
3097.18	23
3098.01	17
3098.84	26
3099.66	22.5
3100.49	22
3101.32	23.5
3102.14	23
3102.97	24.5
3103.8	21
3104.62	21
3105.45	23
3106.28	23
3107.1	24
3107.93	22
3108.76	20
3109.58	20.5
3110.41	23.5
3111.23	22
3112.06	23.5
3112.89	22
3113.71	26
3114.54	23.5
3115.36	21.5
3116.19	23.5
3117.01	22
3117.84	24
3118.66	22
3119.49	25.5
3120.31	23
3121.13	25
3121.96	20.5
3122.78	19
3123.61	23
3124.43	27.5
3125.25	24.5
3126.08	24
3126.9	22
3127.73	20
3128.55	23.5
3129.37	21.5
3130.19	23.5
3131.02	26
3131.84	22.5
3132.66	23.5
3133.49	22.5
3134.31	23.5
3135.13	24
3135.95	25
3136.78	23.5
3137.6	20.5
3138.42	19
3139.24	21.5
3140.06	28
3140.88	20
3141.71	25
3142.53	23
3143.35	23.5
3144.17	21
3144.99	19
3145.81	24.5
3146.63	21.5
3147.45	22.5
3148.27	25
3149.09	24.5
3149.91	23
3150.73	19
3151.56	23
3152.37	23
3153.2	23.5
3154.01	21
3154.83	24.5
3155.65	22
3156.47	23
3157.29	25
3158.11	23.5
3158.93	26
3159.75	23.5
3160.57	22.5
3161.39	23
3162.21	25
3163.02	21.5
3163.84	22.5
3164.66	22
3165.48	22.5
3166.3	26
3167.11	23
3167.93	20
3168.75	26.5
3169.57	25
3170.39	23
3171.2	25
3172.02	25
3172.84	27
3173.65	25
3174.47	27
3175.29	23
3176.1	19.5
3176.92	22
3177.74	20
3178.55	22
3179.37	24
3180.19	25
3181	23.5
3181.82	23.5
3182.63	21.5
3183.45	27
3184.27	25
3185.08	22.5
3185.9	24.5
3186.71	26
3187.53	26
3188.34	24
3189.16	18
3189.97	25
3190.79	21
3191.6	24
3192.41	24.5
3193.23	23
3194.04	21.5
3194.86	22
3195.67	20
3196.48	27
3197.3	21.5
3198.11	22
3198.93	25
3199.74	25
3200.55	26.5
3201.36	23.5
3202.18	27
3202.99	25
3203.8	23
3204.62	25
3205.43	25
3206.24	20
3207.05	26
3207.87	22
3208.68	25
3209.49	22
3210.3	24
3211.11	25.5
3211.93	23
3212.74	26
3213.55	22
3214.36	24.5
3215.17	22.5
3215.98	25
3216.79	21
3217.6	22
3218.41	21
3219.22	24
3220.03	18.5
3220.85	24
3221.66	23
3222.47	22
3223.28	22
3224.09	25.5
3224.9	26.5
3225.71	24.5
3226.52	25.5
3227.33	22.5
3228.13	26
3228.94	24.5
3229.75	22
3230.56	21
3231.37	21
3232.18	25
3232.99	21
3233.8	24
3234.61	24
3235.41	21
3236.22	22.5
3237.03	26.5
3237.84	22
3238.65	21
3239.45	21.5
3240.26	19.5
3241.07	25
3241.88	21
3242.68	25.5
3243.49	24.5
3244.3	25
3245.1	24
3245.91	21
3246.72	26
3247.53	19.5
3248.33	19.5
3249.14	26
3249.95	23.5
3250.75	23.5
3251.56	26.5
3252.36	23.5
3253.17	26
3253.97	22.5
3254.78	22
3255.59	24
3256.39	22
3257.2	25
3258	22.5
3258.81	24.5
3259.61	19
3260.42	20.5
3261.22	21
3262.03	23
3262.83	21
3263.64	23
3264.44	20.5
3265.24	26
3266.05	25
3266.85	22.5
3267.66	24.5
3268.46	23.5
3269.26	24
3270.07	22.5
3270.87	18.5
3271.67	22.5
3272.48	20
3273.28	21.5
3274.08	20.5
3274.89	20
3275.69	23
3276.49	24
3277.29	25
3278.1	25
3278.9	24.5
3279.7	26.5
3280.5	19
3281.3	26
3282.11	26.5
3282.91	25
3283.71	23
3284.51	25.5
3285.31	22
3286.11	22
3286.91	23
3287.72	24.5
3288.52	20.5
3289.32	24.5
3290.12	24
3290.92	24
3291.72	21
3292.52	21.5
3293.32	24
3294.12	26
3294.92	23.5
3295.72	26.5
3296.52	27.5
3297.32	24.5
3298.12	24
3298.92	25
3299.72	24.5
3300.52	22
3301.32	22.5
3302.12	23.5
3302.92	23.5
3303.71	21
3304.51	23
3305.31	21
3306.11	27
3306.91	23
3307.71	22.5
3308.5	19
3309.3	21.5
3310.1	23
3310.9	29
3311.7	25.5
3312.49	26
3313.29	21
3314.09	22.5
3314.89	20
3315.68	23
3316.48	23.5
3317.28	21
3318.07	24
3318.87	25.5
3319.67	23
3320.46	27
3321.26	26
3322.06	21
3322.85	22
3323.65	24.5
3324.44	26
3325.24	23.5
3326.04	23
3326.83	26
3327.63	22
3328.42	27
3329.22	21
3330.01	25
3330.81	21.5
3331.6	22
3332.4	25
3333.19	26
3333.99	22
3334.78	25
3335.58	22.5
3336.37	25.5
3337.17	22.5
3337.96	25
3338.75	24
3339.55	23
3340.34	24
3341.13	29
3341.93	26
3342.72	25
3343.51	27
3344.31	25
3345.1	26.5
3345.89	26
3346.69	24
3347.48	25
3348.27	23.5
3349.06	25.5
3349.86	23
3350.65	26.5
3351.44	22
3352.23	25
3353.03	26
3353.82	26
3354.61	27.5
3355.4	23.5
3356.19	25
3356.98	20
3357.78	27
3358.57	21
3359.36	22
3360.15	24
3360.94	24.5
3361.73	18
3362.52	26.5
3363.31	24.5
3364.1	22.5
3364.89	24
3365.68	23.5
3366.47	25
3367.26	26
3368.05	23.5
3368.84	26
3369.63	22.5
3370.42	27
3371.21	26
3372	22
3372.79	27
3373.58	23.5
3374.37	25.5
3375.16	23
3375.95	22
3376.73	30
3377.52	22.5
3378.31	25.5
3379.1	18
3379.89	27
3380.68	24
3381.46	24.5
3382.25	20.5
3383.04	24
3383.83	26
3384.62	20
3385.4	26
3386.19	25
3386.98	22.5
3387.76	23
3388.55	24
3389.34	28
3390.13	22
3390.91	19
3391.7	24
3392.49	23
3393.27	24
3394.06	24
3394.84	26
3395.63	21
3396.42	25.5
3397.2	24
3397.99	24.5
3398.77	24.5
3399.56	24
3400.34	22.5
3401.13	25.5
3401.92	24
3402.7	24.5
3403.49	24
3404.27	25
3405.06	22
3405.84	25.5
3406.62	23
3407.41	27
3408.19	22
3408.98	21.5
3409.76	22
3410.55	22
3411.33	22
3412.11	25
3412.9	21.5
3413.68	27.5
3414.46	25.5
3415.25	26
3416.03	23.5
3416.81	24
3417.6	23
3418.38	23
3419.16	25
3419.95	22
3420.73	23
3421.51	23.5
3422.29	25.5
3423.08	23.5
3423.86	20.5
3424.64	23
3425.42	26.5
3426.2	19.5
3426.98	24
3427.77	27
3428.55	27.5
3429.33	23
3430.11	24
3430.89	21.5
3431.67	25
3432.45	22.5
3433.24	23
3434.02	19
3434.8	23
3435.58	23
3436.36	24.5
3437.14	21
3437.92	25
3438.7	23
3439.48	24
3440.26	24
3441.04	27
3441.82	23.5
3442.6	23
3443.38	23
3444.16	24.5
3444.94	22
3445.71	28
3446.49	25.5
3447.27	19
3448.05	24
3448.83	23
3449.61	23.5
3450.39	22
3451.17	21.5
3451.94	23.5
3452.72	25.5
3453.5	24.5
3454.28	20.5
3455.06	23.5
3455.83	24
3456.61	22.5
3457.39	21.5
3458.17	25
3458.94	24.5
3459.72	23
3460.5	22.5
3461.28	25
3462.05	26.5
3462.83	27.5
3463.61	25
3464.38	22
3465.16	24
3465.93	25
3466.71	24
3467.49	25
3468.26	24
3469.04	23.5
3469.82	26
3470.59	24
3471.37	26
3472.14	23
3472.92	23.5
3473.69	23
3474.47	23
3475.24	29.5
3476.02	27
3476.79	24
3477.57	24.5
3478.34	21
3479.12	26
3479.89	24
3480.67	23
3481.44	25
3482.21	22.5
3482.99	25
3483.76	24
3484.54	25
3485.31	22
3486.08	23.5
3486.86	26
3487.63	23.5
3488.4	24
3489.18	26
3489.95	24.5
3490.72	23
3491.5	25.5
3492.27	22.5
3493.04	25
3493.81	27.5
3494.59	24.5
3495.36	27
3496.13	26
3496.9	24
3497.67	24
3498.45	21.5
3499.22	23
3499.99	26
