#Acq. time (s)=	5
#Accumulations=	5
#Range (cm-¹)=	100...3500
#Windows=	4
#Autofocus=	Off
#AutoExposure=	Off
#Spike filter=	Multiple accum.
#Delay time (s)=	0
#Binning=	1
#Readout mode=	Signal
#DeNoise=	Off
#ICS correction=	Off
#Dark correction=	Off
#Inst. Process=	Off
#Instrument=	LabRAM HR Evol
#Detector=	Syncerity OE
#Objective=	x100_VIS
#Grating=	600 (500nm)
#ND Filter=	25%
#Laser=	633nm_Edge
#Hole=	100.021
#Range=	Visible
#Project=	verificaciones
#Sample=	a1
#Site=	lined
#Title=	bolusa1plain
#Remark=	
#Date=	09.01.2026 15:55
#Acquired=	09.01.2026 15:55:46
100.695	24.5
101.978	28.5
103.262	31
104.545	33
105.829	31
107.112	31
108.394	30
109.676	32
110.958	31
112.24	32.5
113.522	33
114.803	29.5
116.084	31
117.365	33
118.646	30.5
119.927	31
121.207	31.5
122.487	34
123.767	35
125.047	31
126.326	31.5
127.606	30
128.885	37
130.164	31
131.442	32.5
132.721	35.5
133.999	34
135.277	40
136.555	38
137.831	36
139.109	39.5
140.386	37
141.663	41.5
142.94	39
144.216	38.5
145.493	43.5
146.769	39
148.043	43.5
149.319	40
150.595	41.5
151.87	39
153.145	42.5
154.42	42.5
155.693	35.5
156.968	44.5
158.242	43
159.516	43
160.79	42.5
162.062	42
163.336	45
164.609	42.5
165.882	45
167.153	45
168.426	39.5
169.699	41
170.971	40
172.241	42.5
173.513	40
174.785	39
176.055	42
177.326	39
178.597	41
179.866	39.5
181.137	40.5
182.407	41
183.676	39.5
184.946	40
186.216	42.5
187.484	44.5
188.753	45
190.022	45
191.29	48
192.558	36
193.825	46
195.094	46
196.36	35
197.628	43.5
198.896	43.5
200.162	35
201.429	40
202.695	35
203.962	41.5
205.227	34.5
206.493	37
207.758	36
209.024	35.5
210.289	34
211.554	33.5
212.818	34.5
214.083	36
215.347	36
216.612	36.5
217.875	34
219.138	34
220.402	32.5
221.665	36
222.928	34
224.19	30
225.454	31
226.715	29.5
227.977	34
229.24	32
230.501	32.5
231.762	30.5
233.024	33
234.284	31.5
235.546	28.5
236.806	34.5
238.066	27
239.327	30.5
240.587	26.5
241.846	30
243.105	29.5
244.365	34
245.624	35.5
246.882	30.5
248.142	28
249.4	29.5
250.658	27.5
251.916	33
253.174	30
254.432	29
255.689	28
256.945	32.5
258.202	32.5
259.46	31.5
260.716	31.5
261.972	29.5
263.228	30
264.483	27
265.74	32.5
266.996	31.5
268.251	30.5
269.505	32
270.76	30.5
272.014	29.5
273.268	29.5
274.522	26
275.778	31
277.031	30
278.285	23
279.538	28
280.791	30.5
282.043	27.5
283.296	28.5
284.548	27
285.8	28
287.052	28
288.304	31.5
289.556	26.5
290.807	26.5
292.058	27
293.309	29
294.56	27
295.81	25.5
297.061	29
298.311	29.5
299.561	29
300.81	30
302.06	28
303.309	29.5
304.558	30
305.807	27.5
307.056	29
308.305	32
309.551	28.5
310.8	31.5
312.047	30
313.295	26.5
314.543	29.5
315.79	29
317.037	26
318.284	28.5
319.529	25.5
320.776	28.5
322.022	29
323.268	26
324.514	28
325.758	25
327.004	26
328.249	27
329.494	29
330.739	30
331.982	30
333.227	28.5
334.471	31.5
335.715	28
336.958	29.5
338.201	29.5
339.445	28.5
340.687	29.5
341.93	25.5
343.173	29.5
344.414	26
345.657	25
346.899	23
348.14	24.5
349.381	27.5
350.623	30
351.863	27
353.104	30.5
354.346	29.5
355.585	28.5
356.826	28
358.065	28
359.305	28
360.545	28.5
361.784	31
363.023	29
364.261	29
365.501	31
366.738	30.5
367.977	31
369.216	27
370.453	28
371.691	32
372.928	27
374.166	30
375.402	28
376.64	28.5
377.876	26.5
379.111	30.5
380.348	25.5
381.584	29
382.82	25
384.055	28.5
385.291	28.5
386.526	28
387.76	29.5
388.996	27.5
390.229	27.5
391.465	28
392.698	26
393.931	31.5
395.166	30.5
396.399	28
397.632	29
398.866	25
400.098	26
401.33	28.5
402.563	27
403.795	26
405.027	27.5
406.259	27.5
407.491	28
408.721	26
409.954	31.5
411.184	31.5
412.415	23.5
413.645	29.5
414.876	27.5
416.106	28.5
417.335	26
418.565	31
419.794	26
421.024	27.5
422.253	25
423.482	24
424.71	28
425.938	30
427.168	24.5
428.396	26
429.623	27.5
430.851	30.5
432.078	28.5
433.305	28
434.532	28
435.758	30
436.986	28.5
438.212	31
439.438	31
440.664	28.5
441.89	28
443.115	30
444.34	29.5
445.566	28
446.79	29
448.015	30.5
449.24	28.5
450.464	26
451.688	27
452.912	27.5
454.135	32
455.359	29
456.582	34.5
457.805	27
459.028	27.5
460.251	32.5
461.473	29
462.696	31
463.918	29.5
465.14	31
466.36	31
467.582	34
468.803	36.5
470.024	31
471.245	37.5
472.466	36
473.686	36
474.907	41.5
476.126	40.5
477.346	43
478.565	47
479.785	49.5
481.004	55
482.224	49
483.441	52
484.66	55
485.879	55
487.097	64.5
488.314	65
489.532	63.5
490.75	60
491.967	57
493.184	56
494.401	61.5
495.618	57
496.835	53.5
498.05	43.5
499.267	50.5
500.483	38
501.698	43
502.913	47.5
504.129	42.5
505.343	41
506.559	38
507.774	42
508.987	38
510.202	38
511.415	35
512.63	33.5
513.844	33
515.056	35.5
516.27	38
517.482	35
518.696	31.5
519.907	33
521.121	31.5
522.332	34
523.545	27
524.757	32
525.968	33.5
527.18	31
528.39	27.5
529.602	29.5
530.812	27
532.023	34
533.233	29.5
534.443	34
535.653	28.5
536.862	28
538.073	28
539.281	27.5
540.491	31.5
541.7	29.5
542.908	28.5
544.117	30
545.325	30.5
546.534	31
547.741	25.5
548.949	24.5
550.157	31
551.364	30
552.57	30
553.778	28
554.985	25.5
556.191	29.5
557.398	26.5
558.604	28
559.809	28
561.014	28.5
562.221	29
563.426	30
564.63	28.5
565.835	29
567.041	26
568.245	30
569.449	28.5
570.653	30
571.856	26.5
573.061	26
574.264	30
575.467	31
576.67	31.5
577.873	28.5
579.076	26
580.279	26
581.481	29.5
582.683	30.5
583.884	28
585.086	27.5
586.287	26.5
587.488	28.5
588.689	29
589.891	30
591.092	28
592.292	30.5
593.492	27
594.692	24
595.892	28.5
597.092	24.5
598.291	26.5
599.49	22
600.689	27
601.888	26
603.087	27
604.285	26.5
605.483	24.5
606.681	27
607.879	30.5
609.077	28.5
610.274	28
611.472	32.5
612.668	28.5
613.865	26
615.061	28
616.258	30.5
617.454	30
618.65	26
619.846	27
621.042	26
622.238	24.5
623.432	29
624.627	29.5
625.822	27
627.017	26
628.212	30
629.406	29
630.599	23
631.793	28.5
632.987	27.5
634.181	32
635.373	28.5
636.566	29.5
637.76	30.5
638.953	27
640.144	25.5
641.337	31.5
642.529	30
643.721	25.5
644.912	28
646.104	29.5
647.295	27
648.485	29
649.677	32
650.868	29.5
652.057	29.5
653.248	25
654.437	30.5
655.628	27.5
656.818	28
658.006	29
659.196	28.5
660.384	30.5
661.574	28
662.763	29
663.951	29.5
665.14	29
666.327	31
667.515	35
668.702	30.5
669.891	27
671.077	25
672.265	31.5
673.451	28.5
674.638	30
675.824	34.5
677.011	32.5
678.197	29
679.383	31
680.568	33.5
681.755	33
682.939	40
684.124	36.5
685.309	41
686.494	35.5
687.679	38
688.863	31.5
690.046	32.5
691.231	32
692.414	34
693.599	34.5
694.781	33.5
695.964	36.5
697.148	37
698.33	32.5
699.512	39.5
700.694	36
701.877	38.5
703.059	41
704.24	47
705.423	48
706.604	47.5
707.784	49
708.965	50
710.147	47.5
711.327	47
712.507	49
713.687	41
714.867	38
716.048	30.5
717.227	36.5
718.406	30
719.585	31.5
720.764	35.5
721.942	33.5
723.122	29
724.3	29
725.478	29.5
726.656	29.5
727.834	25.5
729.011	27
730.189	25.5
731.366	29.5
732.543	27
733.719	27.5
734.896	30.5
736.072	27.5
737.249	27.5
738.426	28
739.602	29
740.777	29.5
741.953	28
743.128	27
744.303	27
745.477	29
746.651	22
747.826	31
749	27.5
750.174	28
751.348	29
752.522	24.5
753.696	23.5
754.869	27
756.043	29.5
757.216	25
758.389	25
759.561	23.5
760.732	28
761.905	30.5
763.077	27
764.249	30.5
765.421	28
766.592	26.5
767.762	31.5
768.934	28
770.105	25.5
771.275	28
772.446	29
773.615	29.5
774.786	30
775.956	25.5
777.126	28
778.294	28
779.464	29.5
780.633	29
781.801	31
782.97	30
784.139	33
785.306	33.5
786.475	30
787.643	31
788.81	32
789.978	32.5
791.146	31.5
792.312	35
793.479	30.5
794.647	29.5
795.812	27
796.979	28
798.144	29
799.311	31
800.477	29
801.642	33
802.808	29
803.972	30.5
805.138	25.5
806.302	27
807.467	29
808.631	26
809.796	25.5
810.959	25
812.124	24.5
813.287	31.5
814.451	23.5
815.614	30.5
816.777	27.5
817.94	27
819.102	26
820.265	29.5
821.427	26.5
822.59	29
823.751	28.5
824.912	29.5
826.074	25
827.235	29.5
828.397	23
829.558	26.5
830.718	26
831.879	27.5
833.039	22
834.199	27.5
835.359	27.5
836.519	27
837.679	26.5
838.838	29
839.998	27.5
841.156	26.5
842.315	29
843.473	28
844.633	25
845.791	27.5
846.948	28
848.106	31.5
849.263	29.5
850.422	28.5
851.579	30.5
852.736	29
853.892	24.5
855.049	28
856.205	26.5
857.363	30.5
858.519	29
859.674	26
860.83	33.5
861.986	32
863.141	28
864.296	28
865.451	25
866.605	24.5
867.76	28.5
868.914	27
870.069	29.5
871.224	25
872.378	31.5
873.531	28.5
874.685	31
875.838	26
876.991	32.5
878.144	26.5
879.296	28
880.448	27.5
881.6	30
882.753	27
883.905	30
885.057	25
886.208	23.5
887.36	28
888.511	25.5
889.662	28.5
890.813	23
891.964	30.5
893.113	30.5
894.264	28
895.414	27
896.564	26
897.714	28.5
898.864	24
900.012	27
901.161	29.5
902.31	20.5
903.459	29
904.607	26
905.756	27
906.904	28
908.052	26.5
909.199	27.5
910.347	28
911.495	30
912.643	24
913.789	25
914.936	26
916.083	26.5
917.229	28
918.375	26
919.522	26.5
920.667	24
921.813	24.5
922.959	24
924.104	27
925.249	27.5
926.393	22.5
927.539	24.5
928.684	25.5
929.827	25
930.972	26
932.115	28
933.26	28
934.403	25.5
935.547	22.5
936.689	26.5
937.833	25
938.975	24.5
940.119	25
941.26	29
942.404	23
943.545	23
944.688	29
945.829	26.5
946.971	24
948.112	23
949.253	28.5
950.394	23
951.535	28
952.676	27
953.816	25
954.956	28
956.097	24.5
957.236	27
958.377	24.5
959.516	26
960.655	25
961.793	27.5
962.933	26.5
964.071	27
965.21	20
966.349	20
967.487	26
968.624	24.5
969.762	25
970.901	25.75
972.038	26
973.175	22
974.311	26.5
975.449	29
976.586	25
977.722	26.5
978.858	25
979.994	26.5
981.131	24
982.267	31.5
983.402	26.5
984.537	25.5
985.672	28.5
986.807	23
987.942	24.5
989.076	25
990.211	24.5
991.346	25.5
992.48	26.5
993.614	23
994.748	24
995.881	26
997.014	27.5
998.148	23
999.28	25
1000.41	26.5
1001.55	24
1002.68	25
1003.81	25.5
1004.94	22
1006.07	23.5
1007.21	27
1008.34	26.5
1009.47	28
1010.6	24.5
1011.73	27.5
1012.86	28.5
1013.99	25
1015.12	24
1016.25	25
1017.38	24
1018.51	22
1019.64	27.5
1020.77	23.5
1021.9	22.5
1023.03	26.5
1024.16	30.5
1025.29	24.5
1026.42	26
1027.54	24
1028.67	27
1029.8	27.5
1030.93	21.5
1032.06	24
1033.18	25.5
1034.31	26.5
1035.44	22
1036.56	25.5
1037.69	21
1038.82	23
1039.94	27.5
1041.07	25
1042.2	25
1043.32	25
1044.45	29
1045.57	25
1046.7	23
1047.82	27.5
1048.95	26
1050.07	24
1051.2	26.5
1052.32	28
1053.45	25.5
1054.57	20
1055.69	23.5
1056.82	26.5
1057.94	23.5
1059.06	27
1060.19	25
1061.31	29.5
1062.43	26.5
1063.55	24
1064.68	21
1065.8	23
1066.92	28
1068.04	25
1069.16	24.5
1070.28	25.5
1071.41	24.5
1072.53	22
1073.65	26
1074.77	30
1075.89	20.5
1077.01	27
1078.13	25
1079.25	22
1080.37	27.5
1081.49	25
1082.61	24
1083.73	21.5
1084.85	22.5
1085.96	26
1087.08	26
1088.2	25.5
1089.32	27
1090.44	22
1091.56	27
1092.67	23
1093.79	29
1094.91	23.5
1096.03	28
1097.14	27
1098.26	26
1099.38	26
1100.49	29.5
1101.61	26.5
1102.73	29.5
1103.84	23
1104.96	25.5
1106.07	26
1107.19	21
1108.3	21.5
1109.42	26.5
1110.53	25.5
1111.65	29
1112.76	22.5
1113.88	26.5
1114.99	22
1116.1	26
1117.22	23.5
1118.33	25
1119.44	26
1120.56	22.5
1121.67	23
1122.78	26
1123.9	25
1125.01	22
1126.12	20
1127.23	23
1128.34	26
1129.46	24.5
1130.57	22.5
1131.68	20.5
1132.79	26
1133.9	30
1135.01	22
1136.12	24
1137.23	23
1138.34	25
1139.45	26.5
1140.56	23.5
1141.67	26
1142.78	27
1143.89	21
1145	28.5
1146.11	25.5
1147.22	25.5
1148.33	22
1149.44	21.5
1150.54	25.5
1151.65	25
1152.76	21.5
1153.87	27.5
1154.97	24
1156.08	20
1157.19	24
1158.3	27
1159.4	25
1160.51	23.5
1161.62	24
1162.72	21
1163.83	26
1164.93	29
1166.04	25
1167.15	27.5
1168.25	25.5
1169.36	26.5
1170.46	25.5
1171.57	20.5
1172.67	25
1173.78	27
1174.88	24
1175.98	25
1177.09	26.5
1178.19	23
1179.3	26
1180.4	24.5
1181.5	21
1182.61	25.5
1183.71	25
1184.81	21.5
1185.91	28
1187.02	24
1188.12	24.5
1189.22	25
1190.32	21.5
1191.42	24.5
1192.53	25
1193.63	24
1194.73	25.478
1195.83	23.4389
1196.93	24.0337
1198.03	25.4646
1199.13	23.4656
1200.23	25.8775
1201.33	23.5439
1202.43	21.1097
1203.53	23.7191
1204.63	23.2781
1205.73	23.2961
1206.83	22.912
1207.93	23.7112
1209.02	26.6288
1210.12	24.8848
1211.22	21.37
1212.32	21.073
1213.42	21.9336
1214.52	22.8347
1215.61	22.4371
1216.71	24.4109
1217.81	25.3049
1218.91	24.9591
1220	22.3285
1221.1	24.5517
1222.2	23.9169
1223.29	22.5406
1224.39	23.6784
1225.49	21.8302
1226.58	27.4186
1227.68	21.6739
1228.77	24.7985
1229.87	26.9057
1230.96	25.8574
1232.06	22.5313
1233.15	26.9428
1234.25	21.8859
1235.34	22.4786
1236.44	22.8721
1237.53	24.5329
1238.63	24.2822
1239.72	21.5409
1240.81	23.8119
1241.91	22.6737
1243	23.7667
1244.09	23.464
1245.19	23.0072
1246.28	23.1434
1247.37	21.5291
1248.46	22.818
1249.56	25.9889
1250.65	23.2535
1251.74	24.2695
1252.83	24.7392
1253.92	24.1082
1255.01	24.8859
1256.11	25.7811
1257.2	25.9731
1258.29	25.5274
1259.38	25.9847
1260.47	26.4076
1261.56	27.9034
1262.65	24.3385
1263.74	24.173
1264.83	25.854
1265.92	24.9801
1267.01	26.6228
1268.1	24.3578
1269.19	24.9333
1270.27	23.0327
1271.36	21.4655
1272.45	22.6869
1273.54	25.7419
1274.63	23.4624
1275.72	23.7058
1276.8	22.267
1277.89	23.0925
1278.98	24.6402
1280.07	24.5794
1281.15	22.9317
1282.24	23.4755
1283.33	24.5779
1284.41	24.7327
1285.5	24.9308
1286.59	24.593
1287.67	26.6332
1288.76	22.8528
1289.84	25.5021
1290.93	24.4064
1292.01	22.6761
1293.1	23.3054
1294.19	23.6452
1295.27	23.4944
1296.35	23.6845
1297.44	23.8137
1298.52	23.7451
1299.61	22.9573
1300.69	25.6169
1301.78	26.4563
1302.86	24.7078
1303.94	23.9879
1305.03	22.5646
1306.11	21.2783
1306.4	21
1307.49	25.5
1308.57	23.5
1309.66	20.5
1310.75	21
1311.84	24
1312.92	26
1314.01	26
1315.1	24.5
1316.19	21.5
1317.27	25
1318.36	23
1319.45	24
1320.53	23
1321.62	23
1322.7	25
1323.79	21
1324.88	24.5
1325.96	24
1327.05	24.5
1328.13	23.5
1329.21	23
1330.3	26.5
1331.38	21
1332.47	22.5
1333.55	25
1334.64	23
1335.72	22
1336.8	27.5
1337.89	26
1338.97	27.5
1340.05	21.5
1341.14	25
1342.22	29
1343.3	26.5
1344.39	22
1345.47	23
1346.55	22.5
1347.63	21.5
1348.71	25
1349.79	22
1350.88	21
1351.96	22
1353.04	26
1354.12	24
1355.2	22.5
1356.28	21
1357.36	22
1358.44	25
1359.52	23
1360.6	23.5
1361.68	25
1362.76	25.5
1363.84	25
1364.92	24.5
1366	24
1367.08	21
1368.16	26
1369.23	24.5
1370.31	24
1371.39	27
1372.47	25
1373.55	21
1374.62	24.5
1375.7	24.5
1376.78	25
1377.85	24
1378.93	26
1380.01	21.5
1381.09	29
1382.16	24.5
1383.24	29
1384.31	26.5
1385.39	28.5
1386.47	25
1387.54	27
1388.62	26
1389.69	27
1390.77	25.5
1391.84	24.5
1392.92	24
1393.99	24.5
1395.06	24
1396.14	29
1397.21	24.5
1398.29	29.5
1399.36	28.5
1400.43	28
1401.51	31.5
1402.58	25
1403.65	32
1404.73	28.5
1405.8	31
1406.87	29.5
1407.94	28
1409.02	31
1410.09	28
1411.16	33
1412.23	34
1413.3	31.5
1414.37	33.5
1415.45	29
1416.52	29
1417.59	29
1418.66	33
1419.73	29
1420.8	32.5
1421.87	26
1422.94	30
1424.01	28.5
1425.08	29.5
1426.15	27.5
1427.22	26
1428.29	28
1429.35	26
1430.42	26
1431.49	29
1432.56	26
1433.63	24.5
1434.7	24.5
1435.77	27
1436.83	25
1437.9	27
1438.97	20
1440.04	26
1441.1	27
1442.17	27.5
1443.24	26.5
1444.3	25
1445.37	25
1446.44	26
1447.5	23
1448.57	25.5
1449.63	26
1450.7	26.5
1451.76	23.5
1452.83	28
1453.89	24
1454.96	29
1456.02	26
1457.09	23.5
1458.15	23
1459.22	23
1460.28	24.5
1461.34	26.5
1462.41	21
1463.47	26
1464.54	29
1465.6	23
1466.66	24
1467.72	24
1468.79	25
1469.85	27
1470.91	24
1471.97	25
1473.04	24.5
1474.1	26
1475.16	24.5
1476.22	29
1477.28	22
1478.34	20.5
1479.4	24
1480.47	23.5
1481.53	25
1482.59	25
1483.65	27.5
1484.71	26.5
1485.77	25
1486.83	20.5
1487.89	21.5
1488.95	27.5
1490.01	24
1491.07	23
1492.12	27.5
1493.18	25
1494.24	26
1495.3	25
1496.36	26.5
1497.42	24.5
1498.47	21
1499.53	26.5
1500.59	24
1501.65	25
1502.7	26
1503.76	24
1504.82	20.5
1505.88	22.5
1506.93	29
1507.99	24.5
1509.05	23
1510.1	26.5
1511.16	28
1512.21	26
1513.27	21
1514.32	26
1515.38	23
1516.43	24
1517.49	25.5
1518.54	25
1519.6	24
1520.65	24
1521.71	24.5
1522.76	24
1523.82	25
1524.87	27
1525.92	26
1526.98	25
1528.03	26.5
1529.08	19
1530.14	22.5
1531.19	25.5
1532.24	25.5
1533.3	23.5
1534.35	20
1535.4	23
1536.45	23.5
1537.5	26
1538.56	27
1539.61	23.5
1540.66	24
1541.71	26.5
1542.76	25.5
1543.81	25
1544.86	25
1545.91	25.5
1546.96	26
1548.01	25
1549.06	29.5
1550.11	25.5
1551.16	28
1552.21	26
1553.26	24.5
1554.31	21
1555.36	23.5
1556.41	25
1557.46	29
1558.51	29
1559.55	25
1560.6	22.5
1561.65	27.5
1562.7	27
1563.75	24.5
1564.79	24.5
1565.84	24
1566.89	21.5
1567.94	28.5
1568.98	24
1570.03	24
1571.07	25.5
1572.12	28.5
1573.17	28.5
1574.21	26
1575.26	24
1576.31	25
1577.35	25.5
1578.4	24
1579.44	25.5
1580.49	26
1581.53	25.5
1582.58	21
1583.62	25
1584.67	17.5
1585.71	26.5
1586.75	21.5
1587.8	30.5
1588.84	23.5
1589.89	22
1590.93	26
1591.97	23
1593.02	24.5
1594.06	24
1595.1	26
1596.14	24
1597.19	21
1598.23	24.5
1599.27	23
1600.31	24
1601.35	21.5
1602.4	26
1603.44	22
1604.48	27
1605.52	27.5
1606.56	22
1607.6	27
1608.64	28.5
1609.68	26
1610.72	25
1611.76	19
1612.8	25
1613.84	23
1614.88	26.5
1615.92	28
1616.96	26
1618	23.5
1619.04	24.5
1620.08	26.5
1621.12	27
1622.16	23.5
1623.19	31
1624.23	25.5
1625.27	24.5
1626.31	25.5
1627.35	21.5
1628.38	25
1629.42	27.5
1630.46	22
1631.5	25
1632.53	23.5
1633.57	26.5
1634.61	26
1635.64	25.5
1636.68	27
1637.71	27.5
1638.75	24.5
1639.79	25
1640.82	28.5
1641.86	20
1642.89	20
1643.93	23.5
1644.96	21
1646	24
1647.03	22.5
1648.07	24.5
1649.1	22.5
1650.14	28
1651.17	23
1652.2	22
1653.24	25.5
1654.27	20
1655.3	23.5
1656.34	23.5
1657.37	27.5
1658.4	25.5
1659.44	24.5
1660.47	20.5
1661.5	20
1662.53	21
1663.57	22
1664.6	24.5
1665.63	26
1666.66	25.5
1667.69	21
1668.72	26.5
1669.75	25
1670.79	21.5
1671.82	28
1672.85	23.5
1673.88	28
1674.91	27
1675.94	33.5
1676.97	23.5
1678	26
1679.03	26
1680.06	24.5
1681.09	24.5
1682.11	23
1683.14	25
1684.17	23
1685.2	28.5
1686.23	23.5
1687.26	28.5
1688.29	22.5
1689.32	26.5
1690.34	25
1691.37	24
1692.4	26
1693.43	25.5
1694.45	24.5
1695.48	24
1696.51	26
1697.53	24.5
1698.56	23.5
1699.59	23.5
1700.61	26.5
1701.64	24
1702.66	26.5
1703.69	19
1704.72	22
1705.74	25
1706.77	23
1707.79	24
1708.82	23.5
1709.84	22
1710.87	21.5
1711.89	29.5
1712.92	23
1713.94	27.5
1714.96	24
1715.99	25.5
1717.01	21
1718.04	23
1719.06	23
1720.08	21.5
1721.11	24
1722.13	25
1723.15	28
1724.17	24
1725.2	26
1726.22	26.5
1727.24	24.5
1728.26	27.5
1729.28	21.5
1730.31	26.5
1731.33	26.5
1732.35	23
1733.37	27
1734.39	28.5
1735.41	23
1736.43	24
1737.45	25.5
1738.47	20.5
1739.49	23.5
1740.51	27
1741.53	25.5
1742.55	24
1743.57	24
1744.59	23
1745.61	23.5
1746.63	25
1747.65	25.5
1748.67	24
1749.69	25.5
1750.71	20
1751.72	23.5
1752.74	25.5
1753.76	22
1754.78	26.5
1755.8	26.5
1756.81	28
1757.83	25.5
1758.85	25.5
1759.86	26
1760.88	22.5
1761.9	28
1762.91	25
1763.93	23.5
1764.95	24
1765.96	26
1766.98	26.5
1768	25.5
1769.01	26.5
1770.03	26
1771.04	27.5
1772.06	25
1773.07	24.5
1774.09	23
1775.1	21
1776.12	25.5
1777.13	21
1778.14	20.5
1779.16	26.5
1780.17	27.5
1781.19	24.5
1782.2	24.5
1783.21	27
1784.23	26
1785.24	27.5
1786.25	27.5
1787.27	23
1788.28	22
1789.29	21
1790.3	23.5
1791.32	23.5
1792.33	24.5
1793.34	27
1794.35	26.5
1795.36	23.5
1796.37	24
1797.38	24
1798.4	23
1799.41	26
1800.42	24
1801.43	25
1802.44	21.5
1803.45	23
1804.46	29
1805.47	24
1806.48	26
1807.49	23.5
1808.5	22
1809.51	25.5
1810.52	25.5
1811.53	25
1812.53	23
1813.54	28
1814.55	26
1815.56	24
1816.57	26.5
1817.58	25
1818.58	23.5
1819.59	26.5
1820.6	24
1821.61	26.5
1822.61	25
1823.62	27
1824.63	22
1825.64	24
1826.64	25.5
1827.65	26
1828.66	22.5
1829.66	26
1830.67	25.5
1831.67	29
1832.68	30
1833.68	22.5
1834.69	23
1835.7	25.5
1836.7	23
1837.71	22
1838.71	22
1839.71	26.5
1840.72	23
1841.72	26
1842.73	23.5
1843.73	23.5
1844.74	23
1845.74	26
1846.74	26
1847.75	23.5
1848.75	28.5
1849.75	20
1850.76	25.5
1851.76	26
1852.76	24.5
1853.76	24
1854.77	28.5
1855.77	27
1856.77	25
1857.77	25
1858.77	19.5
1859.78	19
1860.78	23.5
1861.78	21
1862.78	25
1863.78	25
1864.78	27.5
1865.78	29.5
1866.78	23
1867.78	26.5
1868.78	27
1869.78	25
1870.78	24.5
1871.78	25
1872.78	25
1873.78	25.5
1874.78	25.5
1875.78	24.5
1876.78	27
1877.78	25
1878.78	26.5
1879.77	23.5
1880.77	26
1881.77	24
1882.77	23.5
1883.77	27
1884.76	23.5
1885.76	24
1886.76	25.5
1887.76	24.5
1888.75	25
1889.75	22
1890.75	22.5
1891.74	26.5
1892.74	26
1893.74	27
1894.73	25
1895.73	26
1896.72	24
1897.72	25.5
1898.72	25
1899.71	25.5
1900.71	27
1901.7	24
1902.7	24
1903.69	28.5
1904.69	25.5
1905.68	24.5
1906.67	23.5
1907.67	25.5
1908.66	26
1909.66	29
1910.65	22.5
1911.64	23.5
1912.64	24
1913.63	22.5
1914.62	22
1915.62	22.5
1916.61	25
1917.6	22
1918.59	25
1919.59	25
1920.58	26.5
1921.57	18.5
1922.56	23
1923.55	21
1924.55	21.5
1925.54	24
1926.53	25.5
1927.52	21.5
1928.51	23
1929.5	29.5
1930.49	22.5
1931.48	21.5
1932.47	21
1933.46	25
1934.45	25.5
1935.44	24
1936.43	24
1937.42	23.5
1938.41	27.5
1939.4	25
1940.39	22
1941.38	24
1942.37	23.5
1943.36	23.5
1944.34	25.5
1945.33	19
1946.32	24.5
1947.31	27
1948.3	27
1949.28	23.5
1950.27	21
1951.26	22
1952.25	26.5
1953.23	25.5
1954.22	23
1955.21	24
1956.2	26
1957.18	23
1958.17	26
1959.15	24
1960.14	25.5
1961.13	25.5
1962.11	22
1963.1	22.5
1964.08	18
1965.07	21.5
1966.05	25.5
1967.04	27.5
1968.02	26.5
1969.01	24.5
1969.99	25.5
1970.98	23
1971.96	22
1972.94	25
1973.93	20
1974.91	25
1975.9	22.5
1976.88	26
1977.86	22
1978.85	22.5
1979.83	23
1980.81	25.5
1981.8	23
1982.78	24.5
1983.76	21
1984.74	25.5
1985.72	25
1986.71	24
1987.69	28
1988.67	24
1989.65	21
1990.63	22
1991.61	24.5
1992.6	25
1993.58	24
1994.56	23.5
1995.54	26
1996.52	22
1997.5	21.5
1998.48	23
1999.46	23
2000.44	26.5
2001.42	22.5
2002.4	25
2003.38	27
2004.36	25
2005.34	24
2006.32	24.5
2007.29	19
2008.27	24.5
2009.25	25
2010.23	26
2011.21	25
2012.19	24.5
2013.16	26.5
2014.14	22.5
2015.12	23
2016.1	25
2017.07	24.5
2018.05	27.5
2019.03	22.5
2020	25
2020.98	24
2021.96	24
2022.93	23
2023.91	25.5
2024.89	22
2025.86	20
2026.84	22
2027.81	23
2028.79	25
2029.77	19.5
2030.74	23
2031.72	23.5
2032.69	23
2033.67	25.5
2034.64	23.5
2035.61	21.5
2036.59	22.5
2037.56	23.5
2038.54	23.5
2039.51	20.5
2040.48	24
2041.46	26
2042.43	24.5
2043.41	24.5
2044.38	23.5
2045.35	21
2046.32	22.5
2047.3	22
2048.27	21.5
2049.24	26
2050.21	22.5
2051.19	25
2052.16	21
2053.13	25.5
2054.1	26.5
2055.07	22
2056.04	24
2057.02	23.5
2057.99	21
2058.96	24
2059.93	24
2060.9	26
2061.87	22
2062.84	24
2063.81	21
2064.78	25
2065.75	26
2066.72	21.5
2067.69	25
2068.66	21
2069.63	26.5
2070.6	26
2071.57	25.5
2072.53	26.5
2073.5	23.5
2074.47	23.5
2075.44	26
2076.41	25
2077.38	22.5
2078.34	22
2079.31	23.5
2080.28	22.5
2081.25	25.5
2082.21	24
2083.18	24
2084.15	23.5
2085.12	24
2086.08	22.5
2087.05	24.5
2088.02	22.5
2088.98	25
2089.95	20.5
2090.91	22
2091.88	22
2092.85	23.5
2093.81	21.5
2094.78	24
2095.74	23.5
2096.71	20
2097.67	21
2098.64	25.5
2099.6	26
2100.57	28.5
2101.53	25.5
2102.5	19.5
2103.46	21
2104.42	22.5
2105.39	20
2106.35	24.5
2107.31	22
2108.28	24.5
2109.24	20.5
2110.2	20.5
2111.17	26
2112.13	22.5
2113.09	23
2114.06	27
2115.02	22
2115.98	26
2116.94	24.5
2117.9	23.5
2118.86	23.5
2119.83	27
2120.79	24
2121.75	20.5
2122.71	23.5
2123.67	22.5
2124.63	21.5
2125.59	22
2126.55	27.5
2127.51	25
2128.48	21
2129.43	23
2130.4	22.5
2131.35	23
2132.31	26
2133.27	23.5
2134.23	26
2135.19	24
2136.15	22
2137.11	24
2138.07	23.5
2139.03	22.5
2139.99	24
2140.95	25
2141.9	20.5
2142.86	21.4917
2143.82	23.9393
2144.78	19.1537
2145.74	21.5193
2146.69	20.0931
2147.65	24.5118
2148.61	23.0631
2149.56	23.0339
2150.52	24.7849
2151.48	21.5542
2152.44	19.8607
2153.39	21.4299
2154.35	25.0016
2155.3	19.2682
2156.26	27.0921
2157.22	23.5348
2158.17	24.3843
2159.13	24.9829
2160.08	25.0312
2161.04	23.5301
2161.99	24.9401
2162.95	21.6638
2163.9	23.8947
2164.86	25.6808
2165.81	23.5597
2166.77	21.4292
2167.72	20.9129
2168.68	26.0099
2169.63	23.9504
2170.58	21.4719
2171.54	24.5643
2172.49	22.3695
2173.44	23.8913
2174.4	24.9357
2175.35	21.4205
2176.3	23.1967
2177.26	17.8699
2178.21	23
2179.16	23.3971
2180.11	22.4128
2181.07	23.2136
2182.02	22.6357
2182.97	20.6505
2183.92	21.6622
2184.88	19.9332
2185.83	23.2831
2186.78	22.6291
2187.73	22.4847
2188.68	23.044
2189.63	22.6827
2190.58	24.5966
2191.53	21.7837
2192.48	23.4482
2193.43	22.4685
2194.38	20.8363
2195.33	23.1208
2196.28	22.2101
2197.23	21.3954
2198.18	20.9145
2199.13	21.6396
2200.08	24.2042
2201.03	23.9892
2201.98	24.13
2202.93	20.7841
2203.88	23.7124
2204.83	20.5515
2205.78	20.4691
2206.72	22.4519
2207.67	24.8663
2208.62	24.0843
2209.57	22.7824
2210.52	22.5614
2211.46	23.3299
2212.41	24.4455
2213.36	22.8026
2214.31	22.4803
2215.25	23.4746
2216.2	24.0904
2217.15	21.8933
2218.09	22.6194
2219.04	21.0536
2219.99	23.95
2220.93	21.4156
2221.88	23.3551
2222.83	23.9617
2223.77	22.6621
2224.72	24.599
2225.66	22.9229
2226.61	24.242
2227.55	23.8037
2228.5	21.2844
2229.44	20.9285
2230.39	20.2518
2231.33	22.5321
2232.28	24.8892
2233.22	23.9622
2234.17	25.7437
2235.11	24.7833
2236.05	21.3871
2237	21.0036
2237.94	23.6422
2238.88	25.6251
2239.83	22.4908
2240.04	21.5
2240.98	24
2241.93	22
2242.88	24
2243.83	19.5
2244.78	20
2245.72	20
2246.67	21.5
2247.62	23
2248.56	22.5
2249.51	23
2250.46	22.5
2251.4	24
2252.35	24.5
2253.3	24
2254.24	21
2255.19	24
2256.14	22
2257.08	24.5
2258.03	19
2258.97	23
2259.92	22
2260.86	22
2261.81	23
2262.75	22
2263.7	24.5
2264.64	25
2265.59	25
2266.53	23.5
2267.48	24
2268.42	25
2269.36	23.5
2270.31	23
2271.25	29
2272.19	26.5
2273.14	23
2274.08	25.5
2275.02	23
2275.97	24
2276.91	23
2277.85	26
2278.8	21.5
2279.74	24
2280.68	24.5
2281.62	19
2282.56	19.5
2283.51	23
2284.45	20.5
2285.39	22.5
2286.33	23
2287.27	20
2288.21	21.5
2289.15	19.5
2290.09	24
2291.04	23
2291.98	26.5
2292.92	23
2293.86	23
2294.8	24
2295.74	24
2296.68	22.5
2297.62	23
2298.56	24
2299.5	22
2300.44	21.5
2301.37	18.5
2302.31	26
2303.25	23.5
2304.19	22
2305.13	23.5
2306.07	23
2307.01	20
2307.94	21
2308.88	19.5
2309.82	25.5
2310.76	25.5
2311.7	24
2312.63	26
2313.57	21
2314.51	22
2315.44	20.5
2316.38	23
2317.32	24
2318.26	20.5
2319.19	25
2320.13	24
2321.06	25.5
2322	25
2322.94	23
2323.87	23.5
2324.81	18.5
2325.74	22.5
2326.68	25
2327.61	21.5
2328.55	23
2329.48	20
2330.42	24.5
2331.35	24.5
2332.29	24
2333.22	22
2334.16	26.5
2335.09	26
2336.02	25
2336.96	20.5
2337.89	23
2338.83	24
2339.76	24
2340.69	25
2341.63	23
2342.56	24.5
2343.49	24
2344.42	22
2345.36	21
2346.29	24
2347.22	29
2348.15	20
2349.09	24
2350.02	24
2350.95	24
2351.88	22
2352.81	21.5
2353.74	24.5
2354.68	22.5
2355.61	24
2356.54	22
2357.47	18.5
2358.4	20
2359.33	22
2360.26	22.5
2361.19	24.5
2362.12	19
2363.05	23
2363.98	27
2364.91	25
2365.84	23
2366.77	26.5
2367.7	23.5
2368.63	22
2369.56	21
2370.49	22
2371.41	20.5
2372.34	21.5
2373.27	25
2374.2	20
2375.13	23
2376.06	24
2376.98	25.5
2377.91	27.5
2378.84	21
2379.77	23.5
2380.69	24.5
2381.62	22.5
2382.55	23
2383.47	23.5
2384.4	21.5
2385.33	23
2386.25	22.5
2387.18	20
2388.11	23
2389.03	23
2389.96	25.5
2390.89	24
2391.81	26
2392.74	21
2393.66	23.5
2394.59	25
2395.51	22
2396.44	21
2397.36	22.5
2398.29	21
2399.21	24
2400.14	26
2401.06	23
2401.99	26
2402.91	26.5
2403.83	26
2404.76	22.5
2405.68	23.5
2406.6	22.5
2407.53	22
2408.45	26.5
2409.37	24
2410.3	21.5
2411.22	22
2412.14	19
2413.06	21.5
2413.99	25
2414.91	26
2415.83	22.5
2416.75	27
2417.68	22.5
2418.6	22
2419.52	18.5
2420.44	25
2421.36	22
2422.28	24
2423.2	22
2424.12	25.5
2425.05	22.5
2425.97	24
2426.89	24
2427.81	22
2428.73	27.5
2429.65	22
2430.57	19.5
2431.49	24.5
2432.41	26.5
2433.33	24.5
2434.25	20.5
2435.17	24.5
2436.08	24.5
2437	25.5
2437.92	25.5
2438.84	21
2439.76	25.5
2440.68	29
2441.6	24
2442.51	26
2443.43	28
2444.35	26.5
2445.27	24.5
2446.19	21.5
2447.1	26
2448.02	23.5
2448.94	24.5
2449.85	23.5
2450.77	24
2451.69	22.5
2452.61	22.5
2453.52	22.5
2454.44	22.5
2455.35	24
2456.27	20
2457.19	21
2458.1	21
2459.02	28.5
2459.94	25.5
2460.85	23
2461.77	26
2462.68	22
2463.6	27.5
2464.51	29
2465.43	26
2466.34	26
2467.25	20
2468.17	28
2469.08	24.5
2470	24.5
2470.91	27.5
2471.83	24.5
2472.74	26.5
2473.65	21.5
2474.57	23.5
2475.48	27
2476.39	25
2477.31	23
2478.22	26
2479.13	30.5
2480.04	24
2480.96	24
2481.87	26.5
2482.78	23.5
2483.69	25
2484.6	22.5
2485.52	25.5
2486.43	23.5
2487.34	21
2488.25	25.5
2489.16	24
2490.07	24.5
2490.99	24.5
2491.9	23
2492.81	27
2493.72	25
2494.63	22
2495.54	27
2496.45	23
2497.36	25
2498.27	20.5
2499.18	25
2500.09	24
2501	25.5
2501.91	27
2502.82	28
2503.73	26.5
2504.63	25.5
2505.54	25.5
2506.45	19
2507.36	23.5
2508.27	19.5
2509.18	22.5
2510.09	26.5
2510.99	21
2511.9	24
2512.81	24.5
2513.72	24.5
2514.62	21.5
2515.53	23.5
2516.44	25.5
2517.35	26.5
2518.25	26
2519.16	24
2520.07	25
2520.97	23
2521.88	27.5
2522.79	23.5
2523.69	24.5
2524.6	26.5
2525.51	22
2526.41	26
2527.32	21
2528.22	23.5
2529.13	25
2530.03	24
2530.94	23
2531.84	21
2532.75	23
2533.65	24.5
2534.56	27.5
2535.46	24
2536.37	23
2537.27	28
2538.17	24
2539.08	25.5
2539.98	26
2540.89	26
2541.79	29
2542.69	25
2543.6	25
2544.5	22.5
2545.4	22
2546.31	25.5
2547.21	23.5
2548.11	21.5
2549.01	24
2549.92	24
2550.82	25.5
2551.72	24.5
2552.62	26.5
2553.52	22.5
2554.42	24
2555.33	26.5
2556.23	25
2557.13	21
2558.03	26
2558.93	22
2559.83	24
2560.73	21.5
2561.63	26
2562.53	21.5
2563.43	24.5
2564.33	25
2565.24	25.5
2566.13	21.5
2567.04	27
2567.93	24.5
2568.83	18
2569.73	23
2570.63	23
2571.53	24
2572.43	23.5
2573.33	22
2574.23	23.5
2575.13	22.5
2576.03	26
2576.92	25
2577.82	26
2578.72	23
2579.62	26.5
2580.52	22
2581.41	24.5
2582.31	23
2583.21	25.5
2584.11	22.5
2585	23.5
2585.9	23.5
2586.8	25
2587.69	22.5
2588.59	23.5
2589.49	23
2590.38	26.5
2591.28	22
2592.18	30
2593.07	23
2593.97	22
2594.86	24
2595.76	25
2596.66	26
2597.55	25.5
2598.45	28
2599.34	25
2600.24	23.5
2601.13	25.5
2602.03	27
2602.92	22.5
2603.81	25
2604.71	23
2605.6	25
2606.5	25
2607.39	25
2608.28	23
2609.18	24.5
2610.07	27.5
2610.97	19.5
2611.86	23.5
2612.75	22
2613.64	25
2614.54	24.5
2615.43	22.5
2616.32	21
2617.22	25
2618.11	22.5
2619	25
2619.89	23
2620.78	22.5
2621.68	19
2622.57	23
2623.46	22
2624.35	23
2625.24	24.5
2626.13	23.5
2627.02	26
2627.91	26
2628.81	25.5
2629.7	23.5
2630.59	24
2631.48	28
2632.37	26.5
2633.26	25
2634.15	23.5
2635.04	24
2635.93	25.5
2636.82	27
2637.71	24
2638.59	25
2639.48	25.5
2640.37	25.5
2641.26	20
2642.15	27
2643.04	26
2643.93	26
2644.82	26
2645.71	27
2646.59	29
2647.48	22.5
2648.37	28
2649.26	26.5
2650.15	29
2651.03	20.5
2651.92	23
2652.81	23.5
2653.69	22
2654.58	23.5
2655.47	22
2656.35	26
2657.24	27.5
2658.13	23.5
2659.01	24
2659.9	24
2660.79	23.5
2661.67	24.5
2662.56	23
2663.44	26
2664.33	22
2665.22	25
2666.1	26
2666.99	22
2667.87	25
2668.76	25
2669.64	25.5
2670.52	21
2671.41	22
2672.29	25.5
2673.18	24
2674.06	22
2674.95	24
2675.83	21.5
2676.71	22
2677.6	25
2678.48	25
2679.36	24.5
2680.25	27.5
2681.13	23.5
2682.01	22.5
2682.9	26
2683.78	20.5
2684.66	26.5
2685.55	24.5
2686.43	23.5
2687.31	26.5
2688.19	24.5
2689.07	25.5
2689.96	24.5
2690.84	26
2691.72	22.5
2692.6	25.5
2693.48	25.5
2694.36	25
2695.24	24
2696.12	25.5
2697	27.5
2697.89	23.5
2698.77	25.5
2699.65	26
2700.53	24
2701.41	25
2702.29	28
2703.17	25.5
2704.05	25
2704.93	24.5
2705.81	22
2706.69	19
2707.57	23.5
2708.44	23.5
2709.32	26
2710.2	27
2711.08	23
2711.96	26.5
2712.84	24.5
2713.72	24.5
2714.59	26.5
2715.47	23.5
2716.35	24
2717.23	24.5
2718.11	25.5
2718.98	26
2719.86	23.5
2720.74	22.5
2721.62	27.5
2722.49	25
2723.37	24
2724.25	24.5
2725.12	22.5
2726	25
2726.88	25
2727.75	29.5
2728.63	27.5
2729.51	28
2730.38	26.5
2731.26	24.5
2732.13	23.5
2733.01	30.5
2733.88	19
2734.76	23
2735.63	22.5
2736.51	21.5
2737.38	24.5
2738.26	23.5
2739.13	26
2740.01	26
2740.88	20
2741.76	23
2742.63	25.5
2743.5	24
2744.38	26
2745.25	21
2746.13	24.5
2747	25
2747.87	27
2748.75	21
2749.62	25.5
2750.49	23.5
2751.36	23.5
2752.24	22.5
2753.11	25.5
2753.98	26.5
2754.86	23
2755.73	26.5
2756.6	21.5
2757.47	21.5
2758.34	24.5
2759.22	25
2760.09	25
2760.96	22
2761.83	23
2762.7	23.5
2763.57	22.5
2764.44	26
2765.31	23.5
2766.18	27.5
2767.06	19
2767.93	24
2768.8	23.5
2769.67	25.5
2770.54	26.5
2771.41	26
2772.28	20.5
2773.15	25.5
2774.02	25
2774.89	21.5
2775.75	23.5
2776.62	27
2777.49	26
2778.36	23
2779.23	26.5
2780.1	24.5
2780.97	21
2781.84	25
2782.71	24.5
2783.57	25.5
2784.44	26.5
2785.31	21
2786.18	27.5
2787.04	25
2787.91	25.5
2788.78	27.5
2789.65	26.5
2790.51	24
2791.38	24.5
2792.25	25
2793.12	28.5
2793.98	26.5
2794.85	27
2795.72	25.5
2796.58	26
2797.45	30
2798.31	23.5
2799.18	24
2800.05	24.5
2800.91	26.5
2801.78	27
2802.64	25.5
2803.51	23
2804.37	26
2805.24	27.5
2806.1	30.5
2806.97	26.5
2807.83	25.5
2808.7	30
2809.56	27
2810.43	25.5
2811.29	22
2812.15	26
2813.02	27
2813.88	24
2814.75	23.5
2815.61	24.5
2816.47	27
2817.34	25
2818.2	27
2819.06	26
2819.92	28
2820.79	23.5
2821.65	27
2822.51	27.5
2823.37	24
2824.24	25.5
2825.1	20
2825.96	27
2826.82	25
2827.69	26.5
2828.55	24.5
2829.41	29.5
2830.27	27
2831.13	25
2831.99	25
2832.85	24.5
2833.71	29.5
2834.58	28
2835.44	29
2836.3	25
2837.16	27
2838.02	27
2838.88	21.5
2839.74	25.5
2840.6	26.5
2841.46	24.5
2842.32	26.5
2843.18	26
2844.04	24
2844.9	25
2845.75	27.5
2846.61	26.5
2847.47	28
2848.33	24.5
2849.19	28.5
2850.05	24.5
2850.91	26.5
2851.77	25.5
2852.62	25
2853.48	26
2854.34	26.5
2855.2	25
2856.06	31
2856.91	26.5
2857.77	25.5
2858.63	22
2859.48	26
2860.34	28.5
2861.2	28.5
2862.06	30
2862.91	26.5
2863.77	28.5
2864.63	29.5
2865.48	23.5
2866.34	26
2867.19	29
2868.05	26
2868.91	24
2869.76	26
2870.62	32.5
2871.47	31.5
2872.33	26.5
2873.18	35
2874.04	23
2874.89	27.5
2875.75	31.5
2876.6	30.5
2877.46	32
2878.31	34.5
2879.17	31.5
2880.02	31.5
2880.88	30
2881.73	33.5
2882.58	34
2883.44	31.5
2884.29	34
2885.14	36
2886	37.5
2886.85	32.5
2887.7	39
2888.56	36
2889.41	37
2890.26	37
2891.12	35
2891.97	38
2892.82	43.5
2893.67	44
2894.52	48
2895.38	41
2896.23	49
2897.08	55
2897.93	52.5
2898.78	56.5
2899.64	60
2900.49	58.5
2901.34	60.5
2902.19	65
2903.04	68.5
2903.89	71
2904.74	69
2905.59	73.5
2906.44	76.5
2907.29	72
2908.14	79
2908.99	65
2909.84	67.5
2910.69	66.5
2911.54	61
2912.39	63
2913.24	55
2914.09	55.5
2914.94	53.5
2915.79	49.5
2916.64	42
2917.49	45.5
2918.34	40
2919.18	38.5
2920.03	39.5
2920.88	33.5
2921.73	37.5
2922.58	29
2923.42	32
2924.27	28
2925.12	28
2925.97	34
2926.82	30
2927.66	35.5
2928.51	30.5
2929.36	29.5
2930.2	30.5
2931.05	29.5
2931.9	28.5
2932.74	30
2933.59	24
2934.44	28
2935.28	25
2936.13	27
2936.98	29
2937.82	24
2938.67	29.5
2939.51	30.5
2940.36	27
2941.2	24.5
2942.05	29
2942.9	32
2943.74	30.5
2944.58	26.5
2945.43	33
2946.27	25
2947.12	29
2947.96	30
2948.81	32
2949.65	30
2950.5	27
2951.34	31.5
2952.18	31.5
2953.03	32.5
2953.87	33.5
2954.71	36.5
2955.56	33.5
2956.4	36
2957.24	39
2958.09	41.5
2958.93	36.5
2959.77	40.5
2960.62	39.5
2961.46	44
2962.3	43.5
2963.14	44
2963.98	48
2964.83	41.5
2965.67	46
2966.51	40.5
2967.35	46
2968.19	45
2969.04	41
2969.88	41.5
2970.72	41
2971.56	36.0049
2972.4	39.9443
2973.24	38.9471
2974.08	39.9672
2974.92	34.9846
2975.76	29.9508
2976.6	34.2411
2977.44	33.1735
2978.28	32.0035
2979.12	35.3055
2979.96	29.8817
2980.8	30.0224
2981.64	28.6377
2982.48	27.841
2983.32	29.7012
2984.16	27.3198
2985	29.8621
2985.84	23.9402
2986.68	23.25
2987.52	22.6529
2988.35	23.0103
2989.19	24.4984
2990.03	25.3143
2990.87	26.4541
2991.71	23.7975
2992.55	25.6029
2993.38	23.6036
2994.22	22.6587
2995.06	23.8083
2995.9	26.3784
2996.73	25.8205
2997.57	27.1743
2998.41	25.3361
2999.25	24.928
3000.08	25.8165
3000.92	20.1565
3001.76	23.2124
3002.59	22.7948
3003.43	22.1598
3004.27	22.9026
3005.1	25.017
3005.94	24.1292
3006.78	22.1346
3007.61	23.7295
3008.45	24.9812
3009.28	25.1305
3010.12	27.0037
3010.95	23.0401
3011.79	24
3012.62	22.9331
3013.46	23.0635
3014.29	24.2794
3015.13	24.2279
3015.96	23.9909
3016.8	23.4174
3017.63	20.894
3018.47	24.1466
3019.3	22.4993
3020.14	22.8394
3020.97	22.2175
3021.8	25.4988
3022.64	23.7288
3023.47	20.9553
3024.3	21.8009
3025.14	22.5398
3025.97	21.9335
3026.8	23.4085
3027.64	25.5177
3028.47	24.5214
3029.3	22.8814
3030.14	23.7531
3030.97	23.7969
3031.8	23.7104
3032.63	23.8284
3033.46	23.7489
3034.3	23.6514
3035.13	24.4156
3035.96	23.4351
3036.79	22.2578
3037.62	23.3739
3038.46	22.5809
3039.29	23.2362
3040.12	21.7114
3040.95	21.6543
3041.78	23.0608
3042.61	23.3747
3043.44	20.545
3044.27	22.2768
3045.1	24.3197
3045.93	22.3655
3046.76	21.421
3047.59	21.4263
3048.42	23.3514
3049.25	23.8649
3050.08	22.9019
3050.91	22.5393
3051.74	21.1262
3052.57	21.2264
3053.4	22.9156
3054.23	24.7618
3055.06	20.857
3055.89	19.3072
3056.72	22.3675
3057.32	22
3058.15	27.5
3058.98	25
3059.82	26
3060.65	22.5
3061.48	23.5
3062.31	21
3063.15	23.5
3063.98	26
3064.81	26
3065.64	23
3066.48	26
3067.31	22.5
3068.14	23.5
3068.97	22.5
3069.8	21.5
3070.63	22
3071.47	24
3072.3	23.5
3073.13	22
3073.96	21.5
3074.79	22
3075.62	21.5
3076.45	21
3077.28	22
3078.11	24.5
3078.94	23
3079.77	21.5
3080.6	22
3081.43	26.5
3082.26	26.5
3083.09	24
3083.92	22.5
3084.75	24
3085.58	23.5
3086.41	25
3087.24	24
3088.07	22
3088.9	23
3089.73	21.5
3090.55	21.5
3091.38	22
3092.21	26
3093.04	22
3093.87	24
3094.7	18
3095.52	24
3096.35	21
3097.18	25
3098.01	21.5
3098.84	19
3099.66	21.5
3100.49	20
3101.32	24
3102.14	26
3102.97	21
3103.8	25.5
3104.62	20
3105.45	22.5
3106.28	21.5
3107.1	22
3107.93	21
3108.76	22
3109.58	21
3110.41	25
3111.23	20
3112.06	21
3112.89	23.5
3113.71	25.5
3114.54	23.5
3115.36	23
3116.19	25.5
3117.01	20
3117.84	22.5
3118.66	21
3119.49	26.5
3120.31	23
3121.13	23
3121.96	22.5
3122.78	21
3123.61	22
3124.43	22.5
3125.25	21
3126.08	24
3126.9	23
3127.73	25.5
3128.55	24
3129.37	23.5
3130.19	22
3131.02	27
3131.84	22
3132.66	25.5
3133.49	17.5
3134.31	26.5
3135.13	20
3135.95	25
3136.78	26
3137.6	21
3138.42	23
3139.24	24.5
3140.06	26
3140.88	29.5
3141.71	21.5
3142.53	22
3143.35	22
3144.17	26
3144.99	22.5
3145.81	22
3146.63	23.5
3147.45	21
3148.27	23.5
3149.09	24
3149.91	29
3150.73	22
3151.56	22
3152.37	21.5
3153.2	23.5
3154.01	21.5
3154.83	21
3155.65	21.5
3156.47	20
3157.29	23.5
3158.11	24
3158.93	23
3159.75	26
3160.57	24
3161.39	22.5
3162.21	21
3163.02	22.5
3163.84	18
3164.66	24.5
3165.48	25
3166.3	23.5
3167.11	27.5
3167.93	22.5
3168.75	20.5
3169.57	27
3170.39	20
3171.2	24.5
3172.02	23
3172.84	23.5
3173.65	26
3174.47	23.5
3175.29	25
3176.1	21.5
3176.92	20.5
3177.74	21.5
3178.55	21
3179.37	22.5
3180.19	23.5
3181	26.5
3181.82	21
3182.63	25
3183.45	21.5
3184.27	25
3185.08	22.5
3185.9	24.5
3186.71	26
3187.53	24
3188.34	24.5
3189.16	22
3189.97	23.5
3190.79	26
3191.6	26
3192.41	24
3193.23	23.5
3194.04	20.5
3194.86	22.5
3195.67	25
3196.48	25.5
3197.3	24.5
3198.11	21
3198.93	25
3199.74	24
3200.55	21
3201.36	24
3202.18	21
3202.99	22
3203.8	24
3204.62	25
3205.43	23.5
3206.24	23
3207.05	20
3207.87	24.5
3208.68	22.5
3209.49	25
3210.3	23
3211.11	26.5
3211.93	23.5
3212.74	26.5
3213.55	27.5
3214.36	22
3215.17	22.5
3215.98	22.5
3216.79	24
3217.6	25
3218.41	22
3219.22	21.5
3220.03	23.5
3220.85	25
3221.66	24.5
3222.47	23
3223.28	25
3224.09	24.5
3224.9	21
3225.71	21.5
3226.52	26
3227.33	20.5
3228.13	30
3228.94	21
3229.75	23.5
3230.56	28
3231.37	23.5
3232.18	25
3232.99	27
3233.8	21
3234.61	24
3235.41	25
3236.22	19.5
3237.03	21.5
3237.84	25.5
3238.65	22.5
3239.45	23
3240.26	25
3241.07	24.5
3241.88	23
3242.68	19
3243.49	25.5
3244.3	25.5
3245.1	24
3245.91	21.5
3246.72	22.5
3247.53	22
3248.33	25
3249.14	23.5
3249.95	24
3250.75	19
3251.56	25
3252.36	24.5
3253.17	23
3253.97	24.5
3254.78	23
3255.59	24
3256.39	27.5
3257.2	22
3258	26.5
3258.81	25
3259.61	29.5
3260.42	23
3261.22	22.5
3262.03	22.5
3262.83	24.5
3263.64	26
3264.44	24.5
3265.24	25
3266.05	24
3266.85	22.5
3267.66	24.5
3268.46	23
3269.26	24
3270.07	20.5
3270.87	24
3271.67	23.5
3272.48	25
3273.28	23
3274.08	23
3274.89	24
3275.69	22
3276.49	27.5
3277.29	23.5
3278.1	22
3278.9	26
3279.7	23.5
3280.5	23
3281.3	25
3282.11	26
3282.91	24
3283.71	22
3284.51	23
3285.31	22
3286.11	22.5
3286.91	24
3287.72	22.5
3288.52	27
3289.32	26.5
3290.12	22.5
3290.92	25
3291.72	24
3292.52	25.5
3293.32	21.5
3294.12	23.5
3294.92	20
3295.72	22.5
3296.52	24
3297.32	24
3298.12	25
3298.92	22
3299.72	25.5
3300.52	19
3301.32	21
3302.12	23
3302.92	23
3303.71	26
3304.51	25.5
3305.31	22
3306.11	21.5
3306.91	24
3307.71	23
3308.5	21.5
3309.3	22
3310.1	24.5
3310.9	22.5
3311.7	25.5
3312.49	25
3313.29	26
3314.09	25
3314.89	20
3315.68	22
3316.48	22
3317.28	25
3318.07	27
3318.87	25
3319.67	24.5
3320.46	27
3321.26	26
3322.06	20
3322.85	26
3323.65	25
3324.44	22
3325.24	26
3326.04	24.5
3326.83	24
3327.63	24.5
3328.42	22.5
3329.22	25.5
3330.01	19
3330.81	23.5
3331.6	21
3332.4	23.5
3333.19	24
3333.99	23.5
3334.78	23
3335.58	24.5
3336.37	19
3337.17	22.5
3337.96	27
3338.75	22
3339.55	24.5
3340.34	27.5
3341.13	23
3341.93	25
3342.72	20
3343.51	22
3344.31	23.5
3345.1	23
3345.89	24
3346.69	24
3347.48	25
3348.27	22.5
3349.06	23
3349.86	21.5
3350.65	23
3351.44	22.5
3352.23	25
3353.03	21
3353.82	25.5
3354.61	21
3355.4	21.5
3356.19	20.5
3356.98	25.5
3357.78	24
3358.57	25
3359.36	27
3360.15	23
3360.94	24
3361.73	22
3362.52	24
3363.31	22
3364.1	25
3364.89	20
3365.68	24
3366.47	24.5
3367.26	24
3368.05	24.5
3368.84	21.5
3369.63	24
3370.42	29
3371.21	22
3372	22
3372.79	22.5
3373.58	23.5
3374.37	21.5
3375.16	26
3375.95	23
3376.73	21
3377.52	25.5
3378.31	24.5
3379.1	23
3379.89	23.5
3380.68	21.5
3381.46	24.5
3382.25	27
3383.04	24
3383.83	26
3384.62	25
3385.4	26.5
3386.19	22
3386.98	22
3387.76	17
3388.55	21
3389.34	28.5
3390.13	20
3390.91	25
3391.7	26.5
3392.49	18
3393.27	22.5
3394.06	25
3394.84	27.5
3395.63	21
3396.42	27
3397.2	22
3397.99	25
3398.77	25
3399.56	21
3400.34	24
3401.13	24.5
3401.92	28
3402.7	20
3403.49	23.5
3404.27	23.5
3405.06	19.5
3405.84	24
3406.62	22.5
3407.41	23.5
3408.19	26
3408.98	18.5
3409.76	25
3410.55	25.5
3411.33	23.5
3412.11	19
3412.9	24.5
3413.68	23.5
3414.46	21.5
3415.25	20
3416.03	22.5
3416.81	24
3417.6	26
3418.38	25
3419.16	22
3419.95	21
3420.73	23.5
3421.51	23.5
3422.29	27
3423.08	24
3423.86	24
3424.64	25.5
3425.42	26.5
3426.2	25.5
3426.98	23
3427.77	24
3428.55	24
3429.33	25
3430.11	17
3430.89	24
3431.67	23.5
3432.45	24
3433.24	23
3434.02	19.5
3434.8	24.5
3435.58	26
3436.36	26
3437.14	23
3437.92	26
3438.7	26
3439.48	21.5
3440.26	21
3441.04	23
3441.82	23.5
3442.6	26
3443.38	25
3444.16	27
3444.94	26.5
3445.71	26
3446.49	21
3447.27	23.5
3448.05	21.5
3448.83	21
3449.61	23.5
3450.39	25
3451.17	24.5
3451.94	25
3452.72	19
3453.5	21.5
3454.28	18
3455.06	24.5
3455.83	18
3456.61	24
3457.39	19.5
3458.17	22
3458.94	25
3459.72	25
3460.5	20.5
3461.28	24
3462.05	24.5
3462.83	23
3463.61	22
3464.38	24
3465.16	24
3465.93	24.5
3466.71	21.5
3467.49	19.5
3468.26	23
3469.04	25
3469.82	22.5
3470.59	27
3471.37	25
3472.14	22.5
3472.92	26
3473.69	24
3474.47	23
3475.24	21.5
3476.02	22.5
3476.79	21
3477.57	24
3478.34	22
3479.12	29.5
3479.89	24
3480.67	25
3481.44	22.5
3482.21	24.5
3482.99	22.5
3483.76	27.5
3484.54	24
3485.31	22
3486.08	20.5
3486.86	23
3487.63	23
3488.4	22.5
3489.18	22.5
3489.95	22
3490.72	23.5
3491.5	25
3492.27	25
3493.04	27.5
3493.81	24
3494.59	24
3495.36	21
3496.13	23.5
3496.9	23
3497.67	26
3498.45	24.5
3499.22	21
3499.99	25
