#Acq. time (s)=	5
#Accumulations=	5
#Range (cm-¹)=	100...3500
#Windows=	4
#Autofocus=	Off
#AutoExposure=	Off
#Spike filter=	Multiple accum.
#Delay time (s)=	0
#Binning=	1
#Readout mode=	Signal
#DeNoise=	Off
#ICS correction=	Off
#Dark correction=	Off
#Inst. Process=	Off
#Instrument=	LabRAM HR Evol
#Detector=	Syncerity OE
#Objective=	x100_VIS
#Grating=	600 (500nm)
#ND Filter=	25%
#Laser=	633nm_Edge
#Hole=	100.021
#Range=	Visible
#Project=	verificaciones
#Sample=	a1
#Site=	lined
#Title=	bolusa1plain
#Remark=	
#Date=	09.01.2026 15:47
#Acquired=	09.01.2026 15:47:56
100.695	30
101.978	33
103.262	31
104.545	34
105.829	31.5
107.112	34.5
108.394	29.5
109.676	27.5
110.958	27
112.24	29.5
113.522	33.5
114.803	30
116.084	29
117.365	34.5
118.646	29.5
119.927	29.5
121.207	33.5
122.487	32.5
123.767	27
125.047	34.5
126.326	35.5
127.606	34.5
128.885	34.5
130.164	38
131.442	37
132.721	35.5
133.999	35.5
135.277	34.5
136.555	36.5
137.831	36
139.109	34.5
140.386	37.5
141.663	36.5
142.94	37
144.216	38
145.493	39.5
146.769	37
148.043	38.5
149.319	41
150.595	40
151.87	40
153.145	42
154.42	38
155.693	42
156.968	40
158.242	39
159.516	42
160.79	43
162.062	39.5
163.336	37
164.609	40
165.882	39
167.153	41
168.426	38.5
169.699	41
170.971	37
172.241	37.5
173.513	41
174.785	41.5
176.055	39.5
177.326	39.5
178.597	38
179.866	42
181.137	42
182.407	40.5
183.676	45
184.946	42.5
186.216	49
187.484	46.5
188.753	45
190.022	43
191.29	43.5
192.558	42.5
193.825	43.5
195.094	44
196.36	41
197.628	40.5
198.896	40.5
200.162	41
201.429	38
202.695	43
203.962	41
205.227	38
206.493	42.5
207.758	42
209.024	36
210.289	30
211.554	37.5
212.818	37
214.083	32
215.347	34
216.612	32.5
217.875	34.5
219.138	30.5
220.402	33
221.665	30.5
222.928	32.5
224.19	33
225.454	33
226.715	34
227.977	29.5
229.24	33.5
230.501	33.5
231.762	32
233.024	32
234.284	29.5
235.546	36.5
236.806	32.5
238.066	28
239.327	32
240.587	29
241.846	26.5
243.105	32
244.365	31
245.624	28.5
246.882	27
248.142	30
249.4	30
250.658	28.5
251.916	34
253.174	29.5
254.432	33.5
255.689	29.5
256.945	28
258.202	27
259.46	32
260.716	26
261.972	29.5
263.228	28
264.483	31.5
265.74	29
266.996	28
268.251	31
269.505	24
270.76	29.5
272.014	31
273.268	31
274.522	29
275.778	27
277.031	27
278.285	30.5
279.538	27.5
280.791	29.5
282.043	33
283.296	29.5
284.548	30.5
285.8	32
287.052	26.5
288.304	28.5
289.556	30
290.807	33.5
292.058	30
293.309	28
294.56	28.5
295.81	30
297.061	28.5
298.311	30.5
299.561	28
300.81	26
302.06	31.5
303.309	30
304.558	29.5
305.807	29
307.056	31
308.305	28.5
309.551	25.5
310.8	27
312.047	30
313.295	28.5
314.543	30.5
315.79	27.5
317.037	31.5
318.284	24.5
319.529	31.5
320.776	29
322.022	28
323.268	32
324.514	27
325.758	28
327.004	26
328.249	29
329.494	28
330.739	28
331.982	34.5
333.227	28.5
334.471	31
335.715	26.5
336.958	34.5
338.201	35
339.445	29
340.687	34.5
341.93	32.5
343.173	25
344.414	31.5
345.657	30
346.899	26.5
348.14	30
349.381	29
350.623	29
351.863	31.5
353.104	30
354.346	28
355.585	30
356.826	33
358.065	27.5
359.305	23.5
360.545	31
361.784	26.5
363.023	29
364.261	31
365.501	27
366.738	31
367.977	31.5
369.216	27.5
370.453	28.5
371.691	23
372.928	26.5
374.166	29.5
375.402	30
376.64	26
377.876	28
379.111	31.5
380.348	29
381.584	30
382.82	33
384.055	28
385.291	28
386.526	29.5
387.76	28.5
388.996	31
390.229	31.5
391.465	29.5
392.698	28
393.931	29
395.166	32
396.399	28
397.632	28
398.866	27
400.098	30.5
401.33	25.5
402.563	26
403.795	23.5
405.027	28.5
406.259	27
407.491	27.5
408.721	31
409.954	27
411.184	29.5
412.415	30
413.645	27.5
414.876	30
416.106	30
417.335	28
418.565	29
419.794	24
421.024	29.5
422.253	29
423.482	28.5
424.71	26.5
425.938	29.5
427.168	27
428.396	31
429.623	29
430.851	32.5
432.078	26
433.305	30.5
434.532	29.5
435.758	26
436.986	30
438.212	28.5
439.438	27.5
440.664	29
441.89	28
443.115	26.5
444.34	27
445.566	29.5
446.79	32
448.015	29.5
449.24	30
450.464	26.5
451.688	31.5
452.912	30
454.135	28.5
455.359	34
456.582	29.5
457.805	32
459.028	30
460.251	30.5
461.473	28.5
462.696	31
463.918	31
465.14	32
466.36	29.5
467.582	32.5
468.803	32
470.024	35.5
471.245	36
472.466	36
473.686	34.5
474.907	35
476.126	41
477.346	45.5
478.565	45.5
479.785	47
481.004	53
482.224	50.5
483.441	55
484.66	56
485.879	61
487.097	56
488.314	63.5
489.532	56
490.75	62.5
491.967	61.5
493.184	56
494.401	51
495.618	57.5
496.835	58.5
498.05	50.5
499.267	47
500.483	42
501.698	48
502.913	36
504.129	40
505.343	35
506.559	37.5
507.774	38
508.987	33.5
510.202	40
511.415	35
512.63	38.5
513.844	33
515.056	36
516.27	32.5
517.482	33
518.696	32
519.907	33
521.121	31.5
522.332	32
523.545	30
524.757	32.5
525.968	31
527.18	30.5
528.39	34
529.602	34
530.812	29
532.023	34.5
533.233	27
534.443	32.5
535.653	30.5
536.862	31.5
538.073	29.5
539.281	29.5
540.491	32
541.7	25.5
542.908	30
544.117	29
545.325	32.5
546.534	29
547.741	29
548.949	29
550.157	29
551.364	28
552.57	30.5
553.778	28
554.985	32.5
556.191	29
557.398	28.5
558.604	24.5
559.809	26.5
561.014	29
562.221	28.5
563.426	28.5
564.63	26
565.835	30
567.041	31
568.245	28.5
569.449	28
570.653	30
571.856	26.5
573.061	31
574.264	30
575.467	25.5
576.67	29
577.873	27.5
579.076	31.5
580.279	30.5
581.481	25
582.683	26
583.884	31
585.086	27
586.287	29
587.488	27
588.689	32
589.891	32
591.092	30.5
592.292	30
593.492	26
594.692	31
595.892	27.5
597.092	28.5
598.291	26
599.49	29.5
600.689	29.5
601.888	28
603.087	29
604.285	29
605.483	30
606.681	25.5
607.879	31.5
609.077	31
610.274	28.5
611.472	29.5
612.668	22
613.865	28
615.061	30
616.258	28
617.454	29.5
618.65	26.5
619.846	29
621.042	28.5
622.238	27.5
623.432	28
624.627	27
625.822	30
627.017	30
628.212	28
629.406	30
630.599	30
631.793	27
632.987	26.5
634.181	29
635.373	35
636.566	30
637.76	29.5
638.953	30
640.144	27.5
641.337	29
642.529	31.5
643.721	28
644.912	31.5
646.104	30
647.295	32.5
648.485	31
649.677	28
650.868	29
652.057	27
653.248	28
654.437	30.5
655.628	28
656.818	29
658.006	26.5
659.196	30.5
660.384	30
661.574	26
662.763	29.5
663.951	29
665.14	32.5
666.327	33.5
667.515	30
668.702	26
669.891	29.5
671.077	30.5
672.265	29
673.451	27.5
674.638	31
675.824	33.5
677.011	32.5
678.197	34
679.383	33.5
680.568	31
681.755	38
682.939	34.5
684.124	33.5
685.309	43
686.494	38.5
687.679	38.5
688.863	36
690.046	34.5
691.231	32.5
692.414	35
693.599	33.5
694.781	38
695.964	33.5
697.148	35.5
698.33	36
699.512	38
700.694	40.5
701.877	41.5
703.059	41.5
704.24	46
705.423	47.5
706.604	47.5
707.784	49.5
708.965	60.5
710.147	54
711.327	53
712.507	42.5
713.687	39
714.867	39
716.048	35
717.227	35
718.406	28.5
719.585	36.5
720.764	33
721.942	32
723.122	31
724.3	31.5
725.478	28.5
726.656	31
727.834	33
729.011	33
730.189	30
731.366	28.5
732.543	26.5
733.719	32.5
734.896	29
736.072	30
737.249	27.5
738.426	31
739.602	29
740.777	31.5
741.953	26
743.128	29
744.303	26
745.477	30.5
746.651	28
747.826	31
749	27
750.174	32
751.348	28
752.522	32.5
753.696	30
754.869	31
756.043	27
757.216	31
758.389	23.5
759.561	26.5
760.732	28.5
761.905	26
763.077	27.5
764.249	30.5
765.421	30.5
766.592	31.5
767.762	27.5
768.934	26
770.105	30
771.275	25
772.446	29.5
773.615	29
774.786	28
775.956	25.5
777.126	28
778.294	33
779.464	31.5
780.633	33
781.801	31
782.97	32.5
784.139	35
785.306	33
786.475	31.5
787.643	30.5
788.81	33
789.978	32.5
791.146	28.5
792.312	29
793.479	32.5
794.647	30.5
795.812	30
796.979	31
798.144	28
799.311	28
800.477	27.5
801.642	26
802.808	32.5
803.972	32
805.138	33
806.302	26.5
807.467	30.5
808.631	28.5
809.796	30
810.959	34.5
812.124	27.5
813.287	32.5
814.451	28
815.614	31
816.777	29.5
817.94	28.5
819.102	30
820.265	25.5
821.427	27.5
822.59	28.5
823.751	27.5
824.912	27
826.074	25
827.235	33.5
828.397	29.5
829.558	27
830.718	25.5
831.879	27
833.039	27.5
834.199	30.5
835.359	26
836.519	29.5
837.679	25.5
838.838	29
839.998	25
841.156	24.5
842.315	26.5
843.473	26.5
844.633	28.5
845.791	28
846.948	28.5
848.106	27.5
849.263	27.5
850.422	27
851.579	29
852.736	27.5
853.892	30.5
855.049	31
856.205	30
857.363	28
858.519	26
859.674	33
860.83	31
861.986	31
863.141	31
864.296	31.5
865.451	29
866.605	25
867.76	26.5
868.914	31
870.069	25.5
871.224	28
872.378	27.5
873.531	28
874.685	32.5
875.838	25.5
876.991	30
878.144	32.5
879.296	27
880.448	26
881.6	29
882.753	27
883.905	31
885.057	28
886.208	29
887.36	26
888.511	28.5
889.662	29
890.813	24.5
891.964	25
893.113	28
894.264	26.5
895.414	24.5
896.564	24
897.714	31
898.864	30
900.012	26
901.161	24.5
902.31	29.5
903.459	25
904.607	28
905.756	26
906.904	29
908.052	27.5
909.199	23.5
910.347	25
911.495	29
912.643	27.5
913.789	30.5
914.936	26
916.083	28.5
917.229	29
918.375	26
919.522	27
920.667	26.5
921.813	27
922.959	27
924.104	31
925.249	30.5
926.393	28.5
927.539	27.5
928.684	25
929.827	25
930.972	28
932.115	28
933.26	30
934.403	26
935.547	26.5
936.689	28
937.833	26.5
938.975	25.5
940.119	29
941.26	24
942.404	27.5
943.545	25.5
944.688	27
945.829	31
946.971	29
948.112	26
949.253	26.5
950.394	30
951.535	24
952.676	28.5
953.816	27
954.956	28.5
956.097	27.5
957.236	25
958.377	33.5
959.516	28
960.655	32
961.793	29
962.933	26
964.071	27.5
965.21	29.5
966.349	24.5
967.487	24.5
968.624	26.5
969.762	26.5
970.901	27.25
972.038	25
973.175	29
974.311	26.5
975.449	27.5
976.586	28
977.722	29.5
978.858	30
979.994	29
981.131	26.5
982.267	23
983.402	28.5
984.537	25.5
985.672	29
986.807	27.5
987.942	25.5
989.076	25
990.211	22.5
991.346	25.5
992.48	25.5
993.614	27
994.748	23
995.881	23.5
997.014	22
998.148	25
999.28	28
1000.41	23
1001.55	25
1002.68	29
1003.81	25
1004.94	28
1006.07	27.5
1007.21	29
1008.34	28
1009.47	23.5
1010.6	27
1011.73	23.5
1012.86	23
1013.99	29
1015.12	28.5
1016.25	25.5
1017.38	26.5
1018.51	25.5
1019.64	24
1020.77	25.5
1021.9	26
1023.03	29
1024.16	28.5
1025.29	23
1026.42	24.5
1027.54	25.5
1028.67	25.5
1029.8	28.5
1030.93	25
1032.06	23.5
1033.18	27
1034.31	24
1035.44	24.5
1036.56	25.5
1037.69	23
1038.82	26.5
1039.94	27
1041.07	26
1042.2	28
1043.32	25
1044.45	29.5
1045.57	25.5
1046.7	22.5
1047.82	28.5
1048.95	27
1050.07	27.5
1051.2	25
1052.32	24
1053.45	28
1054.57	25.5
1055.69	26.5
1056.82	31.5
1057.94	23.5
1059.06	22
1060.19	31
1061.31	27
1062.43	31.5
1063.55	29.5
1064.68	23
1065.8	30.5
1066.92	24
1068.04	25.5
1069.16	23.5
1070.28	27.5
1071.41	26.5
1072.53	25.5
1073.65	28.5
1074.77	27
1075.89	26
1077.01	28
1078.13	25
1079.25	27.5
1080.37	27.5
1081.49	26
1082.61	24
1083.73	27
1084.85	26.5
1085.96	24.5
1087.08	27
1088.2	29.5
1089.32	26
1090.44	30
1091.56	23
1092.67	23
1093.79	25.5
1094.91	27
1096.03	26.5
1097.14	29.5
1098.26	27
1099.38	30
1100.49	25
1101.61	25
1102.73	25
1103.84	25.5
1104.96	22
1106.07	22.5
1107.19	24
1108.3	25
1109.42	26
1110.53	22
1111.65	23.5
1112.76	28.5
1113.88	25
1114.99	29
1116.1	27.5
1117.22	27.5
1118.33	27
1119.44	24
1120.56	25.5
1121.67	27.5
1122.78	31.5
1123.9	28.5
1125.01	28.5
1126.12	25.5
1127.23	23
1128.34	28
1129.46	24
1130.57	26
1131.68	25
1132.79	24.5
1133.9	25.5
1135.01	24
1136.12	25
1137.23	28.5
1138.34	22
1139.45	26.5
1140.56	24
1141.67	26
1142.78	26.5
1143.89	25.5
1145	26.5
1146.11	26.5
1147.22	27
1148.33	28
1149.44	23.5
1150.54	27
1151.65	22.5
1152.76	27
1153.87	25.5
1154.97	27.5
1156.08	27.5
1157.19	23
1158.3	30
1159.4	26.5
1160.51	22.5
1161.62	25.5
1162.72	28.5
1163.83	28.5
1164.93	23.5
1166.04	23
1167.15	24.5
1168.25	27
1169.36	25.5
1170.46	27.5
1171.57	22.5
1172.67	26.5
1173.78	25
1174.88	23.5
1175.98	24.5
1177.09	28
1178.19	23.5
1179.3	26
1180.4	22
1181.5	24
1182.61	25.5
1183.71	20.5
1184.81	25.5
1185.91	27
1187.02	24
1188.12	26
1189.22	26
1190.32	25
1191.42	22
1192.53	26
1193.63	25.5
1194.73	21.9881
1195.83	23.9422
1196.93	24.5607
1198.03	27.955
1199.13	19.284
1200.23	23.095
1201.33	23.9057
1202.43	22.1604
1203.53	23.5142
1204.63	26.4741
1205.73	22.2591
1206.83	23.4281
1207.93	22.7112
1209.02	25.6509
1210.12	25.3259
1211.22	23.9579
1212.32	26.3221
1213.42	24.96
1214.52	27.3321
1215.61	25.1231
1216.71	23.7039
1217.81	25.725
1218.91	27.0988
1220	24.9015
1221.1	27.1263
1222.2	23.7386
1223.29	24.7971
1224.39	24.2397
1225.49	24.4017
1226.58	28.0634
1227.68	23.5186
1228.77	21.9188
1229.87	22.3913
1230.96	24.3018
1232.06	23.1763
1233.15	23.6661
1234.25	24.8015
1235.34	22.9689
1236.44	23.2123
1237.53	24.8333
1238.63	26.2728
1239.72	22.2294
1240.81	24.5886
1241.91	24.7487
1243	25.6489
1244.09	27.399
1245.19	26.7695
1246.28	25.7694
1247.37	26.5569
1248.46	21.9654
1249.56	25.9501
1250.65	26.2747
1251.74	25.2552
1252.83	26.7198
1253.92	27.9626
1255.01	26.2661
1256.11	25.0172
1257.2	22
1258.29	24.4847
1259.38	24.7517
1260.47	25.3667
1261.56	25.5373
1262.65	26.2003
1263.74	27.0077
1264.83	27.9607
1265.92	24.6417
1267.01	26.2452
1268.1	24.9991
1269.19	25.3715
1270.27	25.4776
1271.36	23.25
1272.45	24.2621
1273.54	22.1233
1274.63	23.6294
1275.72	25.7265
1276.8	25.0655
1277.89	25.8714
1278.98	26.3993
1280.07	23.8334
1281.15	26.0055
1282.24	23.6564
1283.33	25.1762
1284.41	24.8346
1285.5	23.9395
1286.59	23.4968
1287.67	29.4363
1288.76	24.9624
1289.84	22.3126
1290.93	23.7344
1292.01	24.6489
1293.1	23.1009
1294.19	25.878
1295.27	27.3485
1296.35	25.2148
1297.44	24.9988
1298.52	23.6742
1299.61	24.0584
1300.69	25.4452
1301.78	25.8689
1302.86	24.8975
1303.94	20.8198
1305.03	24.9501
1306.11	25.1545
1306.4	24.5
1307.49	25
1308.57	25
1309.66	22
1310.75	22.5
1311.84	23
1312.92	27.5
1314.01	23.5
1315.1	22
1316.19	24
1317.27	25
1318.36	21
1319.45	24
1320.53	24
1321.62	28
1322.7	26
1323.79	27
1324.88	21.5
1325.96	26
1327.05	25.5
1328.13	25
1329.21	23
1330.3	23.5
1331.38	24
1332.47	21.5
1333.55	24
1334.64	22.5
1335.72	26
1336.8	23.5
1337.89	22
1338.97	31
1340.05	24.5
1341.14	21.5
1342.22	27
1343.3	23
1344.39	25
1345.47	26
1346.55	21.5
1347.63	27
1348.71	22
1349.79	23
1350.88	29.5
1351.96	22.5
1353.04	25.5
1354.12	24
1355.2	25
1356.28	23
1357.36	26
1358.44	24.5
1359.52	26.5
1360.6	26
1361.68	26
1362.76	27.5
1363.84	25.5
1364.92	25.5
1366	25
1367.08	26
1368.16	24.5
1369.23	24
1370.31	23.5
1371.39	22
1372.47	25
1373.55	26
1374.62	23
1375.7	24
1376.78	27
1377.85	24.5
1378.93	24
1380.01	25.5
1381.09	26.5
1382.16	26.5
1383.24	27
1384.31	26
1385.39	26.5
1386.47	24
1387.54	26.5
1388.62	26
1389.69	29
1390.77	28.5
1391.84	27
1392.92	25.5
1393.99	27.5
1395.06	27
1396.14	27.5
1397.21	24
1398.29	28.5
1399.36	26
1400.43	26
1401.51	28.5
1402.58	32.5
1403.65	29
1404.73	28
1405.8	27
1406.87	31.5
1407.94	32
1409.02	30.5
1410.09	32.5
1411.16	32
1412.23	32
1413.3	28
1414.37	34.5
1415.45	29
1416.52	30
1417.59	28.5
1418.66	23.5
1419.73	29.5
1420.8	27.5
1421.87	30
1422.94	28.5
1424.01	27.5
1425.08	32.5
1426.15	31
1427.22	23
1428.29	28
1429.35	30.5
1430.42	27
1431.49	28.5
1432.56	23
1433.63	25.5
1434.7	22.5
1435.77	25
1436.83	26.5
1437.9	25
1438.97	26.5
1440.04	29
1441.1	26
1442.17	29
1443.24	25
1444.3	28.5
1445.37	23
1446.44	23
1447.5	29.5
1448.57	26
1449.63	26
1450.7	29
1451.76	24
1452.83	23.5
1453.89	27.5
1454.96	28
1456.02	25
1457.09	30
1458.15	27
1459.22	24
1460.28	25.5
1461.34	24
1462.41	24.5
1463.47	23
1464.54	27
1465.6	27
1466.66	22
1467.72	27
1468.79	26.5
1469.85	25.5
1470.91	25.5
1471.97	24.5
1473.04	27.5
1474.1	24
1475.16	24.5
1476.22	26
1477.28	27
1478.34	28
1479.4	19.5
1480.47	24
1481.53	28
1482.59	23
1483.65	31
1484.71	28
1485.77	27.5
1486.83	26.5
1487.89	28.5
1488.95	28.5
1490.01	25
1491.07	27.5
1492.12	24
1493.18	26.5
1494.24	25.5
1495.3	25
1496.36	28
1497.42	28
1498.47	24.5
1499.53	28.5
1500.59	28
1501.65	25
1502.7	26.5
1503.76	22.5
1504.82	28
1505.88	22
1506.93	27
1507.99	24.5
1509.05	24.5
1510.1	28
1511.16	23.5
1512.21	28
1513.27	25.5
1514.32	24.5
1515.38	29
1516.43	24
1517.49	26
1518.54	23
1519.6	23
1520.65	27
1521.71	22
1522.76	23.5
1523.82	26.5
1524.87	26.5
1525.92	24
1526.98	22
1528.03	24
1529.08	22.5
1530.14	27.5
1531.19	24
1532.24	25
1533.3	27
1534.35	28
1535.4	19.5
1536.45	30.5
1537.5	28
1538.56	19
1539.61	24.5
1540.66	24
1541.71	23
1542.76	28
1543.81	27.5
1544.86	28
1545.91	26
1546.96	26
1548.01	27
1549.06	26.5
1550.11	27
1551.16	21.5
1552.21	27
1553.26	28.5
1554.31	27.5
1555.36	28.5
1556.41	26
1557.46	28.5
1558.51	26
1559.55	23
1560.6	26
1561.65	30
1562.7	27.5
1563.75	26
1564.79	30.5
1565.84	26.5
1566.89	25.5
1567.94	28.5
1568.98	22.5
1570.03	26.5
1571.07	23.5
1572.12	23
1573.17	24.5
1574.21	22.5
1575.26	24.5
1576.31	25
1577.35	24
1578.4	25.5
1579.44	26
1580.49	27
1581.53	26.5
1582.58	24
1583.62	26
1584.67	27
1585.71	25
1586.75	25
1587.8	27
1588.84	23
1589.89	25
1590.93	25.5
1591.97	24.5
1593.02	27
1594.06	29
1595.1	23
1596.14	26.5
1597.19	28
1598.23	25.5
1599.27	27
1600.31	23.5
1601.35	25.5
1602.4	23.5
1603.44	26.5
1604.48	25.5
1605.52	25
1606.56	28.5
1607.6	24
1608.64	23
1609.68	25.5
1610.72	23.5
1611.76	27
1612.8	25.5
1613.84	23.5
1614.88	25.5
1615.92	25.5
1616.96	25
1618	25.5
1619.04	26
1620.08	24.5
1621.12	27
1622.16	25.5
1623.19	26
1624.23	23.5
1625.27	25
1626.31	27.5
1627.35	27
1628.38	24
1629.42	22
1630.46	29.5
1631.5	23
1632.53	24
1633.57	21
1634.61	25.5
1635.64	27
1636.68	24.5
1637.71	25
1638.75	24.5
1639.79	27.5
1640.82	24.5
1641.86	29
1642.89	25
1643.93	22
1644.96	26.5
1646	26
1647.03	27
1648.07	24.5
1649.1	25.5
1650.14	22.5
1651.17	24.5
1652.2	25
1653.24	22.5
1654.27	21
1655.3	23.5
1656.34	18
1657.37	25.5
1658.4	24.5
1659.44	24.5
1660.47	27.5
1661.5	26
1662.53	21
1663.57	24
1664.6	27
1665.63	27.5
1666.66	22
1667.69	26
1668.72	29
1669.75	25
1670.79	26.5
1671.82	27.5
1672.85	25
1673.88	22.5
1674.91	27
1675.94	29.5
1676.97	26
1678	23.5
1679.03	28.5
1680.06	27
1681.09	23
1682.11	27.5
1683.14	24
1684.17	27.5
1685.2	28
1686.23	22.5
1687.26	26.5
1688.29	26.5
1689.32	30
1690.34	27
1691.37	23
1692.4	23.5
1693.43	27
1694.45	23.5
1695.48	28.5
1696.51	23
1697.53	26
1698.56	23.5
1699.59	28.5
1700.61	25
1701.64	28.5
1702.66	29.5
1703.69	26
1704.72	24.5
1705.74	28
1706.77	26
1707.79	28.5
1708.82	27
1709.84	24
1710.87	26
1711.89	30
1712.92	25.5
1713.94	23
1714.96	25.5
1715.99	25.5
1717.01	23
1718.04	24
1719.06	28
1720.08	25.5
1721.11	24
1722.13	28.5
1723.15	24
1724.17	24.5
1725.2	27.5
1726.22	27.5
1727.24	25
1728.26	27.5
1729.28	27.5
1730.31	25.5
1731.33	28
1732.35	27.5
1733.37	27
1734.39	25
1735.41	24
1736.43	24
1737.45	24
1738.47	30.5
1739.49	25.5
1740.51	23
1741.53	27
1742.55	26
1743.57	27
1744.59	23
1745.61	28.5
1746.63	26
1747.65	26
1748.67	24
1749.69	28.5
1750.71	24.5
1751.72	28.5
1752.74	26
1753.76	24
1754.78	24
1755.8	25.5
1756.81	25
1757.83	27
1758.85	23.5
1759.86	22.5
1760.88	26.5
1761.9	26
1762.91	24
1763.93	25
1764.95	26
1765.96	23
1766.98	25
1768	23.5
1769.01	26
1770.03	24
1771.04	24.5
1772.06	25.5
1773.07	30.5
1774.09	23
1775.1	28
1776.12	28
1777.13	25
1778.14	28.5
1779.16	27.5
1780.17	26.5
1781.19	25
1782.2	24.5
1783.21	25
1784.23	24.5
1785.24	23.5
1786.25	23
1787.27	26.5
1788.28	27
1789.29	26
1790.3	23
1791.32	22.5
1792.33	28.5
1793.34	24.5
1794.35	26
1795.36	23.5
1796.37	26
1797.38	24.5
1798.4	26.5
1799.41	23.5
1800.42	25.5
1801.43	24
1802.44	28.5
1803.45	25.5
1804.46	28.5
1805.47	29.5
1806.48	29
1807.49	21.5
1808.5	26
1809.51	27
1810.52	24
1811.53	23
1812.53	22.5
1813.54	23.5
1814.55	25
1815.56	26.5
1816.57	23
1817.58	21.5
1818.58	20.5
1819.59	21
1820.6	23
1821.61	27
1822.61	24.5
1823.62	24.5
1824.63	25
1825.64	25
1826.64	24.5
1827.65	27.5
1828.66	23.5
1829.66	26
1830.67	25
1831.67	22.5
1832.68	28
1833.68	18
1834.69	26
1835.7	25.5
1836.7	25
1837.71	23.5
1838.71	23
1839.71	24
1840.72	25
1841.72	26
1842.73	24
1843.73	23
1844.74	24
1845.74	23
1846.74	26
1847.75	19
1848.75	21
1849.75	26
1850.76	25
1851.76	24.5
1852.76	26
1853.76	22.5
1854.77	27
1855.77	21.5
1856.77	20.5
1857.77	28.5
1858.77	26
1859.78	21
1860.78	26.5
1861.78	22
1862.78	27.5
1863.78	24
1864.78	26
1865.78	29
1866.78	27
1867.78	27.5
1868.78	23.5
1869.78	24.5
1870.78	28
1871.78	27.5
1872.78	27.5
1873.78	29.5
1874.78	20
1875.78	25
1876.78	24
1877.78	24.5
1878.78	29.5
1879.77	22.5
1880.77	21
1881.77	28.5
1882.77	22
1883.77	24.5
1884.76	25
1885.76	23.5
1886.76	25.5
1887.76	20.5
1888.75	24.5
1889.75	24
1890.75	25.5
1891.74	21.5
1892.74	22.5
1893.74	22
1894.73	24.5
1895.73	26
1896.72	25
1897.72	24
1898.72	26
1899.71	25.5
1900.71	24.5
1901.7	24
1902.7	25.5
1903.69	25
1904.69	24.5
1905.68	26
1906.67	26.5
1907.67	26
1908.66	27
1909.66	24
1910.65	25
1911.64	20
1912.64	23
1913.63	26
1914.62	25
1915.62	21
1916.61	23.5
1917.6	26.5
1918.59	24.5
1919.59	23
1920.58	25.5
1921.57	24
1922.56	22.5
1923.55	26
1924.55	26.5
1925.54	25.5
1926.53	23
1927.52	25.5
1928.51	24
1929.5	22.5
1930.49	26.5
1931.48	27
1932.47	26
1933.46	24.5
1934.45	25
1935.44	24.5
1936.43	26
1937.42	28
1938.41	23
1939.4	25
1940.39	22.5
1941.38	24
1942.37	25.5
1943.36	26.5
1944.34	23.5
1945.33	23.5
1946.32	25
1947.31	25
1948.3	24.25
1949.28	22.5
1950.27	25
1951.26	23
1952.25	27
1953.23	26.5
1954.22	24
1955.21	26
1956.2	28.5
1957.18	22
1958.17	32
1959.15	22.5
1960.14	26
1961.13	27.5
1962.11	25
1963.1	23
1964.08	27
1965.07	22
1966.05	24
1967.04	25
1968.02	24.5
1969.01	25.5
1969.99	26
1970.98	24
1971.96	21.5
1972.94	23
1973.93	26.5
1974.91	23
1975.9	24
1976.88	25
1977.86	27
1978.85	24
1979.83	23.5
1980.81	25.5
1981.8	26.5
1982.78	21.5
1983.76	22.5
1984.74	24
1985.72	24
1986.71	23
1987.69	27.5
1988.67	25
1989.65	24.5
1990.63	24.5
1991.61	23
1992.6	28.5
1993.58	23
1994.56	28.5
1995.54	25
1996.52	24
1997.5	27
1998.48	23
1999.46	23.5
2000.44	24.5
2001.42	23
2002.4	26.5
2003.38	24
2004.36	27.5
2005.34	26
2006.32	20.5
2007.29	25
2008.27	23
2009.25	24.5
2010.23	24
2011.21	24
2012.19	23.5
2013.16	26
2014.14	24.5
2015.12	20.5
2016.1	21
2017.07	25
2018.05	22
2019.03	25
2020	26.5
2020.98	23
2021.96	22.5
2022.93	24
2023.91	25
2024.89	27
2025.86	22
2026.84	24
2027.81	24.5
2028.79	22.5
2029.77	27
2030.74	20.5
2031.72	23.5
2032.69	23.5
2033.67	22.5
2034.64	24.5
2035.61	23.5
2036.59	27
2037.56	23.5
2038.54	23
2039.51	26.5
2040.48	25
2041.46	26
2042.43	23
2043.41	27
2044.38	23
2045.35	21
2046.32	22
2047.3	24.5
2048.27	24
2049.24	24
2050.21	24
2051.19	22
2052.16	25
2053.13	22.5
2054.1	24.5
2055.07	23.5
2056.04	24.5
2057.02	24
2057.99	23.5
2058.96	26.5
2059.93	23.5
2060.9	28
2061.87	24.5
2062.84	28
2063.81	25
2064.78	26
2065.75	25.5
2066.72	26
2067.69	22
2068.66	21.5
2069.63	23
2070.6	23.5
2071.57	22.5
2072.53	24.5
2073.5	26.5
2074.47	25
2075.44	22
2076.41	24
2077.38	28
2078.34	22
2079.31	28
2080.28	22
2081.25	23.5
2082.21	19
2083.18	25.5
2084.15	24
2085.12	25.5
2086.08	22.5
2087.05	25
2088.02	24.5
2088.98	27
2089.95	23.5
2090.91	22
2091.88	20
2092.85	26.5
2093.81	21
2094.78	26
2095.74	22.5
2096.71	27.5
2097.67	26.5
2098.64	25.5
2099.6	23
2100.57	24
2101.53	22
2102.5	20
2103.46	25.5
2104.42	26
2105.39	20.5
2106.35	23
2107.31	24.5
2108.28	23
2109.24	22
2110.2	22.5
2111.17	23.5
2112.13	21
2113.09	24
2114.06	20.5
2115.02	23.5
2115.98	26.5
2116.94	24
2117.9	23
2118.86	25.5
2119.83	25
2120.79	25.5
2121.75	19.5
2122.71	25.5
2123.67	25.5
2124.63	22.5
2125.59	22
2126.55	20
2127.51	21
2128.48	26
2129.43	22
2130.4	23
2131.35	23
2132.31	26.5
2133.27	21
2134.23	25.5
2135.19	23
2136.15	25
2137.11	21.5
2138.07	20.5
2139.03	22.5
2139.99	25
2140.95	23.5
2141.9	24
2142.86	23.992
2143.82	23.9839
2144.78	23.0344
2145.74	23.0342
2146.69	24.066
2147.65	27.2449
2148.61	21.0459
2149.56	24.7672
2150.52	21.2151
2151.48	20.9962
2152.44	24.7762
2153.39	20.3357
2154.35	23.6176
2155.3	23.9345
2156.26	23.8477
2157.22	21.8495
2158.17	21.4734
2159.13	22.8596
2160.08	24.3957
2161.04	22.9933
2161.99	22.746
2162.95	21.7912
2163.9	23.0959
2164.86	22.9021
2165.81	21.2299
2166.77	23.1726
2167.72	21.8192
2168.68	24.4769
2169.63	23.969
2170.58	23.2226
2171.54	24.0508
2172.49	22.9363
2173.44	25.7837
2174.4	20.4138
2175.35	21.1174
2176.3	19.4198
2177.26	22.7381
2178.21	22.565
2179.16	21.2521
2180.11	22.1458
2181.07	21.5091
2182.02	22.3257
2182.97	21.3313
2183.92	21.7993
2184.88	21.3612
2185.83	26.4827
2186.78	22.2427
2187.73	20.4081
2188.68	22.3797
2189.63	22.4544
2190.58	20.7501
2191.53	22.9663
2192.48	21.7759
2193.43	22.5105
2194.38	22.5235
2195.33	23.9799
2196.28	23.6183
2197.23	22.3835
2198.18	22.5801
2199.13	21.5072
2200.08	24.3786
2201.03	24.5234
2201.98	19.0251
2202.93	21.7155
2203.88	23.7076
2204.83	21.0717
2205.78	21.3131
2206.72	23.0099
2207.67	26.2572
2208.62	21.4492
2209.57	23.9287
2210.52	23.1862
2211.46	22.0533
2212.41	22.2129
2213.36	24.3458
2214.31	21.3876
2215.25	21.1957
2216.2	23.3045
2217.15	23.5243
2218.09	20.1875
2219.04	23.3705
2219.99	22.1906
2220.93	21.8871
2221.88	23.4036
2222.83	22.7961
2223.77	24.1661
2224.72	23.307
2225.66	23.5794
2226.61	24.719
2227.55	23.4105
2228.5	23.1374
2229.44	23.6518
2230.39	21.4083
2231.33	22.7023
2232.28	22.6222
2233.22	23.2946
2234.17	25.3068
2235.11	24.0343
2236.05	23.1819
2237	22.1117
2237.94	19.7075
2238.88	22.0756
2239.83	20.6848
2240.04	20
2240.98	24
2241.93	24.5
2242.88	21
2243.83	24
2244.78	21
2245.72	25
2246.67	22
2247.62	23
2248.56	23.5
2249.51	24.5
2250.46	23
2251.4	19.5
2252.35	21
2253.3	26
2254.24	25
2255.19	23
2256.14	23
2257.08	24.5
2258.03	21
2258.97	24.5
2259.92	22
2260.86	21
2261.81	25
2262.75	21
2263.7	21.5
2264.64	24
2265.59	22
2266.53	23
2267.48	26.5
2268.42	24
2269.36	22.5
2270.31	24
2271.25	21
2272.19	22.5
2273.14	22
2274.08	24
2275.02	23.5
2275.97	22
2276.91	22.5
2277.85	23
2278.8	18.5
2279.74	24
2280.68	23
2281.62	24
2282.56	23.5
2283.51	20.5
2284.45	24
2285.39	23.5
2286.33	23
2287.27	20
2288.21	22.5
2289.15	25
2290.09	19
2291.04	24
2291.98	21
2292.92	24
2293.86	22.5
2294.8	27
2295.74	23
2296.68	24
2297.62	21.5
2298.56	22
2299.5	26
2300.44	26
2301.37	26
2302.31	26
2303.25	21.5
2304.19	24.5
2305.13	25
2306.07	24
2307.01	21.5
2307.94	24.5
2308.88	22.5
2309.82	25
2310.76	23
2311.7	23
2312.63	24
2313.57	20
2314.51	23.5
2315.44	27
2316.38	23.5
2317.32	20.5
2318.26	20.5
2319.19	20.5
2320.13	24.5
2321.06	21.5
2322	23
2322.94	25
2323.87	25.5
2324.81	23
2325.74	22
2326.68	23.5
2327.61	23
2328.55	21
2329.48	23.5
2330.42	23
2331.35	23
2332.29	25
2333.22	26.5
2334.16	30.5
2335.09	21.5
2336.02	25.5
2336.96	22.5
2337.89	23.5
2338.83	22.5
2339.76	21
2340.69	24
2341.63	22.5
2342.56	22
2343.49	25
2344.42	24.5
2345.36	23.5
2346.29	26
2347.22	27
2348.15	24
2349.09	25.5
2350.02	21.5
2350.95	23.5
2351.88	21
2352.81	21
2353.74	23.5
2354.68	21.5
2355.61	23
2356.54	24.5
2357.47	25
2358.4	27
2359.33	25
2360.26	26.5
2361.19	22.5
2362.12	25.5
2363.05	26.5
2363.98	26.5
2364.91	24.5
2365.84	22.5
2366.77	26
2367.7	24.5
2368.63	23
2369.56	27
2370.49	25
2371.41	23
2372.34	26
2373.27	24
2374.2	27
2375.13	24.5
2376.06	23
2376.98	25.5
2377.91	22
2378.84	24
2379.77	26
2380.69	28.5
2381.62	24.5
2382.55	18.5
2383.47	26
2384.4	22
2385.33	27
2386.25	25
2387.18	23
2388.11	19
2389.03	22.5
2389.96	21
2390.89	24.5
2391.81	23.5
2392.74	24.5
2393.66	24
2394.59	27.5
2395.51	26.5
2396.44	19
2397.36	23
2398.29	27
2399.21	19
2400.14	25.5
2401.06	21
2401.99	21.5
2402.91	27
2403.83	20
2404.76	24
2405.68	27
2406.6	24
2407.53	25.5
2408.45	25
2409.37	21
2410.3	23.5
2411.22	26
2412.14	22.5
2413.06	27.5
2413.99	25
2414.91	23
2415.83	24
2416.75	24
2417.68	26.5
2418.6	22.5
2419.52	24
2420.44	23
2421.36	21.5
2422.28	27
2423.2	23
2424.12	22
2425.05	22.5
2425.97	23.5
2426.89	24
2427.81	23.5
2428.73	21
2429.65	23
2430.57	25
2431.49	18.5
2432.41	24.5
2433.33	22
2434.25	23.5
2435.17	25.5
2436.08	24.5
2437	22
2437.92	24
2438.84	23
2439.76	23.5
2440.68	28
2441.6	25.5
2442.51	27.5
2443.43	24.5
2444.35	25
2445.27	22
2446.19	22
2447.1	23.5
2448.02	22.5
2448.94	20
2449.85	24
2450.77	26.5
2451.69	23.5
2452.61	18
2453.52	28.5
2454.44	22.5
2455.35	25.5
2456.27	24
2457.19	27.5
2458.1	22.5
2459.02	21
2459.94	27
2460.85	24
2461.77	22
2462.68	26
2463.6	24.5
2464.51	28.5
2465.43	25.5
2466.34	25
2467.25	21
2468.17	27
2469.08	20.5
2470	24
2470.91	22
2471.83	25.5
2472.74	28
2473.65	20
2474.57	26
2475.48	22.5
2476.39	19.5
2477.31	25
2478.22	26
2479.13	23.5
2480.04	20
2480.96	23.5
2481.87	24.5
2482.78	25.5
2483.69	26
2484.6	27.5
2485.52	28.5
2486.43	24
2487.34	25
2488.25	23
2489.16	21
2490.07	24.5
2490.99	24.5
2491.9	26.5
2492.81	25.5
2493.72	24.5
2494.63	27
2495.54	25
2496.45	28
2497.36	26
2498.27	26.5
2499.18	25.5
2500.09	23
2501	23.5
2501.91	26.5
2502.82	26
2503.73	24
2504.63	25
2505.54	25.5
2506.45	27
2507.36	25.5
2508.27	20
2509.18	28
2510.09	28.5
2510.99	26
2511.9	20
2512.81	29
2513.72	28.5
2514.62	20.5
2515.53	24
2516.44	25.5
2517.35	23.5
2518.25	21
2519.16	24
2520.07	22.5
2520.97	24
2521.88	23.5
2522.79	25.5
2523.69	25.5
2524.6	25.5
2525.51	23
2526.41	24.5
2527.32	23.5
2528.22	22.5
2529.13	28.5
2530.03	26.5
2530.94	26.5
2531.84	25
2532.75	24.5
2533.65	22.5
2534.56	26
2535.46	23.5
2536.37	28
2537.27	27
2538.17	21
2539.08	25.5
2539.98	24
2540.89	25.5
2541.79	26
2542.69	24.5
2543.6	20
2544.5	22
2545.4	26.5
2546.31	25.5
2547.21	24
2548.11	26.5
2549.01	25
2549.92	26.5
2550.82	26
2551.72	26
2552.62	21.5
2553.52	25.5
2554.42	23.5
2555.33	24
2556.23	22
2557.13	25.5
2558.03	27
2558.93	25
2559.83	25.5
2560.73	20
2561.63	25.5
2562.53	27.5
2563.43	24
2564.33	21
2565.24	30
2566.13	24
2567.04	22.5
2567.93	22.5
2568.83	24.5
2569.73	22.5
2570.63	27
2571.53	25.5
2572.43	25.5
2573.33	23
2574.23	26.5
2575.13	21
2576.03	25
2576.92	24
2577.82	27.5
2578.72	21
2579.62	22.5
2580.52	22
2581.41	23
2582.31	23.5
2583.21	24
2584.11	28
2585	27
2585.9	27
2586.8	27.5
2587.69	24
2588.59	27.5
2589.49	21.5
2590.38	25
2591.28	25.5
2592.18	22.5
2593.07	26
2593.97	24
2594.86	23
2595.76	23.5
2596.66	24
2597.55	24.5
2598.45	23.5
2599.34	30
2600.24	24.5
2601.13	26
2602.03	26
2602.92	26.5
2603.81	21.5
2604.71	27.5
2605.6	28.5
2606.5	23
2607.39	26
2608.28	24.5
2609.18	25.5
2610.07	22
2610.97	28.5
2611.86	23
2612.75	22
2613.64	27.5
2614.54	24.5
2615.43	24
2616.32	22
2617.22	24
2618.11	27
2619	24
2619.89	25.5
2620.78	28.5
2621.68	25
2622.57	23
2623.46	23
2624.35	22.5
2625.24	25
2626.13	22.5
2627.02	24
2627.91	23.5
2628.81	22.5
2629.7	27.5
2630.59	23
2631.48	26
2632.37	25
2633.26	20.5
2634.15	26
2635.04	25.5
2635.93	27
2636.82	24.5
2637.71	28.5
2638.59	20.5
2639.48	25
2640.37	29.5
2641.26	24.5
2642.15	24.5
2643.04	23
2643.93	26
2644.82	27.5
2645.71	24
2646.59	28
2647.48	26
2648.37	27.5
2649.26	27.5
2650.15	25
2651.03	26.5
2651.92	26
2652.81	23
2653.69	26
2654.58	22
2655.47	24
2656.35	23
2657.24	23
2658.13	21.5
2659.01	26
2659.9	25
2660.79	25
2661.67	22
2662.56	25
2663.44	27
2664.33	21
2665.22	27.5
2666.1	21
2666.99	27.5
2667.87	23
2668.76	20
2669.64	27.5
2670.52	23.5
2671.41	25
2672.29	22.5
2673.18	21
2674.06	24.5
2674.95	25.5
2675.83	25.5
2676.71	24
2677.6	25
2678.48	25
2679.36	23.5
2680.25	24.5
2681.13	23
2682.01	26.5
2682.9	20
2683.78	24
2684.66	23.5
2685.55	23
2686.43	24
2687.31	23
2688.19	22
2689.07	23
2689.96	25
2690.84	25
2691.72	25
2692.6	25.5
2693.48	23
2694.36	29
2695.24	24.5
2696.12	22
2697	23
2697.89	25.5
2698.77	25
2699.65	24
2700.53	23
2701.41	24.5
2702.29	24.5
2703.17	22
2704.05	23.5
2704.93	25
2705.81	27
2706.69	26
2707.57	23.5
2708.44	24
2709.32	23
2710.2	20
2711.08	28
2711.96	26.5
2712.84	21.5
2713.72	22.5
2714.59	22.5
2715.47	25
2716.35	24
2717.23	26
2718.11	26
2718.98	23
2719.86	23
2720.74	26
2721.62	22
2722.49	27
2723.37	28
2724.25	25
2725.12	19
2726	25
2726.88	26
2727.75	24
2728.63	24.5
2729.51	26.5
2730.38	24
2731.26	20
2732.13	24.5
2733.01	25
2733.88	26
2734.76	26
2735.63	25
2736.51	20.5
2737.38	22
2738.26	24
2739.13	24
2740.01	24
2740.88	23
2741.76	25.5
2742.63	20.5
2743.5	21.5
2744.38	23
2745.25	22
2746.13	25
2747	27
2747.87	24.5
2748.75	20
2749.62	25
2750.49	23
2751.36	25
2752.24	21
2753.11	22.5
2753.98	22.5
2754.86	26
2755.73	24
2756.6	25
2757.47	27.5
2758.34	24
2759.22	24.5
2760.09	27.5
2760.96	24
2761.83	20
2762.7	25.5
2763.57	23.5
2764.44	20.5
2765.31	27
2766.18	28
2767.06	21
2767.93	24
2768.8	25
2769.67	25
2770.54	23
2771.41	23
2772.28	25
2773.15	22
2774.02	25
2774.89	25
2775.75	22
2776.62	24
2777.49	26.5
2778.36	24
2779.23	24
2780.1	29
2780.97	29.5
2781.84	23.5
2782.71	27.5
2783.57	25
2784.44	23
2785.31	27
2786.18	29
2787.04	22
2787.91	25
2788.78	22.5
2789.65	25
2790.51	28.5
2791.38	26
2792.25	29
2793.12	23.5
2793.98	25
2794.85	28
2795.72	26
2796.58	24.5
2797.45	22.5
2798.31	24
2799.18	26
2800.05	24
2800.91	24.75
2801.78	24
2802.64	25.5
2803.51	28.5
2804.37	29.5
2805.24	29
2806.1	24.5
2806.97	25
2807.83	27
2808.7	27
2809.56	26
2810.43	22.5
2811.29	28
2812.15	28
2813.02	29.5
2813.88	24.5
2814.75	26.5
2815.61	29.5
2816.47	26.5
2817.34	25
2818.2	27
2819.06	30
2819.92	24
2820.79	30.5
2821.65	27
2822.51	26
2823.37	23.5
2824.24	28
2825.1	28
2825.96	23
2826.82	28
2827.69	27.5
2828.55	26
2829.41	27
2830.27	24.5
2831.13	26.5
2831.99	29
2832.85	28
2833.71	26
2834.58	24.5
2835.44	24
2836.3	27
2837.16	29
2838.02	24
2838.88	25.5
2839.74	24.5
2840.6	23
2841.46	29.5
2842.32	27
2843.18	29.5
2844.04	25
2844.9	25
2845.75	27
2846.61	26.5
2847.47	31
2848.33	25
2849.19	25
2850.05	26
2850.91	22.5
2851.77	23
2852.62	26.5
2853.48	28
2854.34	28
2855.2	26
2856.06	27
2856.91	23.5
2857.77	26
2858.63	23.5
2859.48	25
2860.34	26
2861.2	30
2862.06	27
2862.91	28
2863.77	24
2864.63	26.5
2865.48	26
2866.34	29.5
2867.19	29
2868.05	29
2868.91	30.5
2869.76	27.5
2870.62	25.5
2871.47	31.5
2872.33	27.5
2873.18	27.5
2874.04	32
2874.89	27
2875.75	28.5
2876.6	31
2877.46	33.5
2878.31	31
2879.17	34
2880.02	30
2880.88	35.5
2881.73	31.5
2882.58	36.5
2883.44	30.5
2884.29	32.5
2885.14	33
2886	35.5
2886.85	37.5
2887.7	37
2888.56	37
2889.41	37.5
2890.26	41.5
2891.12	39.5
2891.97	43
2892.82	44.5
2893.67	45
2894.52	44
2895.38	48
2896.23	48.5
2897.08	57
2897.93	53.5
2898.78	56
2899.64	52
2900.49	67
2901.34	66.5
2902.19	68.5
2903.04	67.5
2903.89	69
2904.74	71
2905.59	68
2906.44	74
2907.29	75
2908.14	72
2908.99	67.5
2909.84	70
2910.69	67.5
2911.54	62.5
2912.39	61
2913.24	56
2914.09	52.5
2914.94	50.5
2915.79	50.5
2916.64	45
2917.49	47
2918.34	43
2919.18	39
2920.03	37
2920.88	37.5
2921.73	38
2922.58	34.5
2923.42	31.5
2924.27	34.5
2925.12	34
2925.97	34
2926.82	36
2927.66	28.5
2928.51	28
2929.36	30.5
2930.2	29
2931.05	32.5
2931.9	27.5
2932.74	27
2933.59	28
2934.44	30
2935.28	29
2936.13	30
2936.98	28
2937.82	28
2938.67	25.5
2939.51	30
2940.36	27
2941.2	29.5
2942.05	26.5
2942.9	31.5
2943.74	27
2944.58	28.5
2945.43	33
2946.27	27
2947.12	31
2947.96	28.5
2948.81	35.5
2949.65	31.5
2950.5	28
2951.34	33
2952.18	35
2953.03	35
2953.87	31
2954.71	31
2955.56	34.5
2956.4	38.5
2957.24	35
2958.09	38.5
2958.93	34
2959.77	38
2960.62	47
2961.46	41
2962.3	43
2963.14	42
2963.98	48.5
2964.83	39
2965.67	44
2966.51	44
2967.35	42
2968.19	44.5
2969.04	43.5
2969.88	39.5
2970.72	42
2971.56	42.966
2972.4	35.976
2973.24	39.8345
2974.08	35.8981
2974.92	36.9489
2975.76	34.3922
2976.6	32.8297
2977.44	34.4034
2978.28	29.2827
2979.12	33.4338
2979.96	31.257
2980.8	34.3908
2981.64	30.646
2982.48	31.5949
2983.32	27.4671
2984.16	27.5188
2985	27.7408
2985.84	26.6668
2986.68	30.7393
2987.52	27.0086
2988.35	25.4186
2989.19	28.1485
2990.03	28.8776
2990.87	23.5089
2991.71	28.0018
2992.55	24.9155
2993.38	24.673
2994.22	25.9078
2995.06	25.2922
2995.9	27.8562
2996.73	25.762
2997.57	25.745
2998.41	25.0537
2999.25	26.4738
3000.08	25.2404
3000.92	22.6319
3001.76	25.8027
3002.59	22.4615
3003.43	23.0211
3004.27	23.4439
3005.1	22.9134
3005.94	24.2847
3006.78	24.6339
3007.61	21.5447
3008.45	22.4842
3009.28	23.7732
3010.12	22.9551
3010.95	21.9593
3011.79	22.1643
3012.62	22.1142
3013.46	24.2957
3014.29	24.4631
3015.13	22.3224
3015.96	21.1868
3016.8	24.2619
3017.63	24.1363
3018.47	21.9422
3019.3	23.1172
3020.14	21.259
3020.97	20.5869
3021.8	22.8877
3022.64	23.1573
3023.47	23.5909
3024.3	23.6037
3025.14	23.6262
3025.97	23.2306
3026.8	22.3173
3027.64	23.3447
3028.47	23.6461
3029.3	21.9122
3030.14	22.317
3030.97	21.5
3031.8	21.1077
3032.63	23.4408
3033.46	23.3491
3034.3	22.733
3035.13	21.8696
3035.96	21.7788
3036.79	22.5526
3037.62	21.0729
3038.46	21.0197
3039.29	22.6548
3040.12	20.928
3040.95	20.9773
3041.78	21.5235
3042.61	21.7628
3043.44	23.3854
3044.27	21.8843
3045.1	23.6612
3045.93	24.857
3046.76	24.1633
3047.59	26.3905
3048.42	23.9872
3049.25	22.9633
3050.08	24.665
3050.91	22.7213
3051.74	22.9684
3052.57	23.7049
3053.4	25.0427
3054.23	23.5336
3055.06	22.8801
3055.89	23.54
3056.72	23.4858
3057.32	26
3058.15	23.5
3058.98	24.5
3059.82	22
3060.65	24
3061.48	19.5
3062.31	22
3063.15	24
3063.98	26
3064.81	25
3065.64	23.5
3066.48	23
3067.31	21
3068.14	22
3068.97	25
3069.8	25.5
3070.63	25
3071.47	22
3072.3	24
3073.13	24
3073.96	23
3074.79	24
3075.62	21
3076.45	25.5
3077.28	25
3078.11	21
3078.94	25
3079.77	20.5
3080.6	22
3081.43	28.5
3082.26	27
3083.09	18.5
3083.92	21.5
3084.75	25.5
3085.58	23
3086.41	25
3087.24	22
3088.07	21
3088.9	22
3089.73	23.5
3090.55	20
3091.38	23.5
3092.21	17
3093.04	25
3093.87	25.5
3094.7	25.5
3095.52	24.5
3096.35	25
3097.18	23.5
3098.01	19.5
3098.84	19
3099.66	23
3100.49	21.5
3101.32	22
3102.14	18
3102.97	21.5
3103.8	23.5
3104.62	24.5
3105.45	21.5
3106.28	21.5
3107.1	22.5
3107.93	23
3108.76	24.5
3109.58	25
3110.41	23
3111.23	23.5
3112.06	25
3112.89	24.5
3113.71	24.5
3114.54	23
3115.36	22
3116.19	25
3117.01	24
3117.84	24.5
3118.66	23
3119.49	24
3120.31	25
3121.13	26
3121.96	24
3122.78	23.5
3123.61	22
3124.43	23.5
3125.25	23
3126.08	22
3126.9	23
3127.73	21.5
3128.55	23
3129.37	27
3130.19	21
3131.02	22.5
3131.84	24
3132.66	21.5
3133.49	22
3134.31	24.5
3135.13	21
3135.95	21
3136.78	22
3137.6	24.5
3138.42	22.5
3139.24	29
3140.06	25.5
3140.88	26
3141.71	22
3142.53	22
3143.35	22
3144.17	18
3144.99	25
3145.81	25.5
3146.63	22.5
3147.45	18.5
3148.27	25
3149.09	23
3149.91	22.5
3150.73	18
3151.56	22.5
3152.37	24
3153.2	22.5
3154.01	25
3154.83	23.5
3155.65	24
3156.47	25
3157.29	23
3158.11	25.5
3158.93	25
3159.75	23
3160.57	21
3161.39	21
3162.21	21.5
3163.02	21.5
3163.84	22.5
3164.66	22
3165.48	22
3166.3	21
3167.11	22.5
3167.93	23.5
3168.75	20
3169.57	23
3170.39	26
3171.2	22.5
3172.02	23.5
3172.84	23.5
3173.65	21
3174.47	22
3175.29	22.5
3176.1	20
3176.92	19.5
3177.74	22.5
3178.55	24
3179.37	23.5
3180.19	24
3181	25
3181.82	21
3182.63	22.5
3183.45	26
3184.27	21
3185.08	28
3185.9	22.5
3186.71	24.5
3187.53	22.5
3188.34	21.5
3189.16	25.5
3189.97	22.5
3190.79	23
3191.6	23
3192.41	25.5
3193.23	21
3194.04	26.5
3194.86	22
3195.67	23
3196.48	24
3197.3	25
3198.11	21.5
3198.93	24
3199.74	20.5
3200.55	21
3201.36	22.5
3202.18	26
3202.99	26
3203.8	21.5
3204.62	20
3205.43	20.5
3206.24	24
3207.05	20
3207.87	26
3208.68	22.5
3209.49	19
3210.3	20
3211.11	23
3211.93	23
3212.74	24
3213.55	24
3214.36	20.5
3215.17	24
3215.98	25
3216.79	22.5
3217.6	24
3218.41	24
3219.22	23
3220.03	22
3220.85	25
3221.66	23.5
3222.47	23.5
3223.28	23.5
3224.09	26
3224.9	22
3225.71	24.5
3226.52	24
3227.33	26
3228.13	23.5
3228.94	23
3229.75	25
3230.56	22
3231.37	20
3232.18	24.5
3232.99	24.5
3233.8	27.5
3234.61	24
3235.41	22.5
3236.22	18
3237.03	20
3237.84	23.5
3238.65	21.5
3239.45	27
3240.26	23
3241.07	23
3241.88	25
3242.68	23
3243.49	23.5
3244.3	21
3245.1	17.5
3245.91	26.5
3246.72	23.5
3247.53	26
3248.33	23
3249.14	27
3249.95	21.5
3250.75	23.5
3251.56	25.5
3252.36	23
3253.17	23
3253.97	22
3254.78	21.5
3255.59	23.5
3256.39	23.5
3257.2	24
3258	24.5
3258.81	23
3259.61	20.5
3260.42	22.5
3261.22	25
3262.03	28.5
3262.83	22
3263.64	20
3264.44	25.5
3265.24	25
3266.05	27
3266.85	25.5
3267.66	23
3268.46	22.5
3269.26	22
3270.07	24
3270.87	28
3271.67	25.5
3272.48	22
3273.28	19
3274.08	23.5
3274.89	27.5
3275.69	24
3276.49	25
3277.29	20
3278.1	29
3278.9	26
3279.7	24.5
3280.5	24
3281.3	20
3282.11	27
3282.91	23.5
3283.71	21
3284.51	20
3285.31	20.5
3286.11	24.5
3286.91	27.5
3287.72	23
3288.52	27.5
3289.32	20.5
3290.12	25.5
3290.92	22
3291.72	25.5
3292.52	19.5
3293.32	23.5
3294.12	23.5
3294.92	23
3295.72	24
3296.52	24
3297.32	22
3298.12	24
3298.92	23
3299.72	25
3300.52	25.5
3301.32	21.5
3302.12	21
3302.92	26.5
3303.71	21
3304.51	25
3305.31	21
3306.11	22.5
3306.91	26.5
3307.71	22
3308.5	27
3309.3	23
3310.1	24
3310.9	26
3311.7	26
3312.49	26
3313.29	22.5
3314.09	25.5
3314.89	28
3315.68	21
3316.48	20
3317.28	24
3318.07	25
3318.87	23.5
3319.67	26
3320.46	24
3321.26	27
3322.06	24.5
3322.85	22
3323.65	25.5
3324.44	26.5
3325.24	24
3326.04	25.5
3326.83	23
3327.63	25
3328.42	19.5
3329.22	23.5
3330.01	18.5
3330.81	27
3331.6	25
3332.4	23
3333.19	24
3333.99	26
3334.78	23
3335.58	25.5
3336.37	24
3337.17	24
3337.96	26
3338.75	18.5
3339.55	26.5
3340.34	26
3341.13	20
3341.93	23
3342.72	23
3343.51	21
3344.31	25.5
3345.1	23
3345.89	28.5
3346.69	23
3347.48	24
3348.27	25.5
3349.06	25
3349.86	23.5
3350.65	24
3351.44	24
3352.23	23
3353.03	25
3353.82	23.5
3354.61	21
3355.4	24
3356.19	25.5
3356.98	26.5
3357.78	22.5
3358.57	22
3359.36	27
3360.15	23
3360.94	27
3361.73	26
3362.52	20.5
3363.31	23.5
3364.1	26
3364.89	25.5
3365.68	26
3366.47	21
3367.26	29.5
3368.05	25.5
3368.84	24
3369.63	24
3370.42	25
3371.21	20.5
3372	24
3372.79	25.5
3373.58	22
3374.37	30
3375.16	23.5
3375.95	21.5
3376.73	22
3377.52	26
3378.31	26
3379.1	24
3379.89	22.5
3380.68	22.5
3381.46	27
3382.25	25
3383.04	23
3383.83	25
3384.62	26
3385.4	23.5
3386.19	29
3386.98	24
3387.76	25
3388.55	22.5
3389.34	25
3390.13	26
3390.91	23
3391.7	26
3392.49	27
3393.27	25
3394.06	22.5
3394.84	26.5
3395.63	26.5
3396.42	26.5
3397.2	24.5
3397.99	23
3398.77	20.5
3399.56	19.5
3400.34	22
3401.13	26.5
3401.92	21.5
3402.7	26
3403.49	25.5
3404.27	24
3405.06	22.5
3405.84	23
3406.62	23.5
3407.41	23.5
3408.19	22.5
3408.98	27
3409.76	23
3410.55	23
3411.33	23
3412.11	26
3412.9	21
3413.68	24.5
3414.46	21
3415.25	24
3416.03	27
3416.81	29
3417.6	24
3418.38	23
3419.16	17
3419.95	23.5
3420.73	23.5
3421.51	26
3422.29	26
3423.08	26
3423.86	27
3424.64	24.5
3425.42	21
3426.2	23.5
3426.98	25.5
3427.77	25
3428.55	25
3429.33	25.5
3430.11	24
3430.89	23
3431.67	22
3432.45	23
3433.24	21
3434.02	23
3434.8	23
3435.58	25
3436.36	18.5
3437.14	26.5
3437.92	26
3438.7	23
3439.48	22.5
3440.26	24
3441.04	22
3441.82	23
3442.6	26
3443.38	23
3444.16	27.5
3444.94	21.5
3445.71	24
3446.49	25
3447.27	25
3448.05	24.5
3448.83	25.5
3449.61	24
3450.39	25.5
3451.17	20.5
3451.94	26.5
3452.72	27.5
3453.5	26
3454.28	23
3455.06	24.5
3455.83	25
3456.61	27.5
3457.39	24.5
3458.17	25.5
3458.94	22.5
3459.72	22
3460.5	25
3461.28	26
3462.05	23.5
3462.83	25
3463.61	22
3464.38	24
3465.16	25
3465.93	25
3466.71	22
3467.49	26.5
3468.26	21
3469.04	23.5
3469.82	22
3470.59	24
3471.37	26
3472.14	23.5
3472.92	25.5
3473.69	25
3474.47	22
3475.24	30
3476.02	26
3476.79	24
3477.57	25.5
3478.34	21.5
3479.12	28.5
3479.89	22
3480.67	25.5
3481.44	24
3482.21	26
3482.99	21
3483.76	23.5
3484.54	19
3485.31	23.5
3486.08	22
3486.86	24
3487.63	21
3488.4	26
3489.18	24
3489.95	21
3490.72	23
3491.5	25.5
3492.27	23
3493.04	26
3493.81	25.5
3494.59	22
3495.36	27.5
3496.13	26.5
3496.9	24
3497.67	24
3498.45	26.5
3499.22	22.5
3499.99	18
