#Acq. time (s)=	5
#Accumulations=	5
#Range (cm-¹)=	100...3500
#Windows=	4
#Autofocus=	Off
#AutoExposure=	Off
#Spike filter=	Multiple accum.
#Delay time (s)=	0
#Binning=	1
#Readout mode=	Signal
#DeNoise=	Off
#ICS correction=	Off
#Dark correction=	Off
#Inst. Process=	Off
#Instrument=	LabRAM HR Evol
#Detector=	Syncerity OE
#Objective=	x100_VIS
#Grating=	600 (500nm)
#ND Filter=	25%
#Laser=	633nm_Edge
#Hole=	100.021
#Range=	Visible
#Project=	verificaciones
#Sample=	a1
#Site=	lined
#Title=	bolusa1plain
#Remark=	
#Date=	09.01.2026 16:00
#Acquired=	09.01.2026 16:00:24
100.695	28.5
101.978	35
103.262	32
104.545	33
105.829	28.5
107.112	27
108.394	31
109.676	33
110.958	27
112.24	31.5
113.522	31.5
114.803	30
116.084	31.5
117.365	27
118.646	29
119.927	31.5
121.207	29.5
122.487	31
123.767	31.5
125.047	31
126.326	32
127.606	31
128.885	38.5
130.164	37
131.442	32.5
132.721	34
133.999	31
135.277	36
136.555	37
137.831	40.5
139.109	36.5
140.386	43.5
141.663	35.5
142.94	36.5
144.216	40.5
145.493	41
146.769	39
148.043	43
149.319	37.5
150.595	44
151.87	37.5
153.145	44
154.42	41
155.693	44.5
156.968	46
158.242	44
159.516	37.5
160.79	44.5
162.062	42.5
163.336	48
164.609	40.5
165.882	44
167.153	39
168.426	40
169.699	37
170.971	41.5
172.241	37.5
173.513	41
174.785	44
176.055	44.5
177.326	42.5
178.597	41
179.866	45
181.137	44.5
182.407	42.5
183.676	43
184.946	40.5
186.216	38
187.484	37.5
188.753	45
190.022	44
191.29	45
192.558	42
193.825	41
195.094	42
196.36	42
197.628	44
198.896	40
200.162	42
201.429	35
202.695	41.5
203.962	34.5
205.227	37
206.493	37
207.758	38
209.024	40
210.289	33.5
211.554	42
212.818	41.5
214.083	34.5
215.347	37
216.612	34
217.875	38
219.138	35.5
220.402	35
221.665	32
222.928	30
224.19	36.5
225.454	33.5
226.715	31.5
227.977	35.5
229.24	30.5
230.501	33
231.762	33.5
233.024	28
234.284	31.5
235.546	31.5
236.806	30.5
238.066	29
239.327	27
240.587	32
241.846	31
243.105	33.5
244.365	31
245.624	30.5
246.882	31.5
248.142	30.5
249.4	30
250.658	28.5
251.916	30
253.174	30.5
254.432	31
255.689	31
256.945	32
258.202	26.5
259.46	32.5
260.716	30.5
261.972	30.5
263.228	32
264.483	29.5
265.74	32.5
266.996	31
268.251	29
269.505	29.5
270.76	35.5
272.014	29
273.268	29
274.522	30.5
275.778	27.5
277.031	30
278.285	29
279.538	29.5
280.791	28.5
282.043	29
283.296	28
284.548	30.5
285.8	26.5
287.052	24
288.304	24
289.556	30.5
290.807	28
292.058	32.5
293.309	21
294.56	27
295.81	26.5
297.061	23.5
298.311	29
299.561	28
300.81	26
302.06	30
303.309	30
304.558	28
305.807	29.5
307.056	28
308.305	33.5
309.551	27.5
310.8	31.5
312.047	29.5
313.295	27.5
314.543	29
315.79	27.5
317.037	27
318.284	30
319.529	21.5
320.776	29
322.022	30
323.268	27.5
324.514	28
325.758	30.5
327.004	27
328.249	32
329.494	30
330.739	27
331.982	26
333.227	27
334.471	26.5
335.715	26.5
336.958	26.5
338.201	29
339.445	31.5
340.687	29
341.93	32.5
343.173	28.5
344.414	26.5
345.657	27.5
346.899	28.5
348.14	29
349.381	27
350.623	29.5
351.863	30
353.104	28
354.346	31.5
355.585	28.5
356.826	28.5
358.065	30
359.305	25.5
360.545	24
361.784	25
363.023	29.5
364.261	29.5
365.501	26
366.738	31
367.977	30
369.216	29
370.453	25
371.691	28.5
372.928	30
374.166	27.5
375.402	27
376.64	29
377.876	30
379.111	28
380.348	29.5
381.584	29
382.82	28.5
384.055	26
385.291	26
386.526	29.5
387.76	31
388.996	27.5
390.229	31
391.465	29.5
392.698	31
393.931	30
395.166	29
396.399	29.5
397.632	27
398.866	24
400.098	27.5
401.33	30.5
402.563	29.5
403.795	28.5
405.027	31
406.259	25.5
407.491	23.5
408.721	28.5
409.954	28
411.184	30
412.415	27
413.645	27.5
414.876	27
416.106	30
417.335	31.5
418.565	30
419.794	26
421.024	28.5
422.253	29
423.482	29.5
424.71	27
425.938	27
427.168	28
428.396	25
429.623	26
430.851	28.5
432.078	25
433.305	26.5
434.532	30
435.758	30
436.986	25.5
438.212	32
439.438	29
440.664	33.5
441.89	28
443.115	28.5
444.34	30
445.566	33
446.79	27
448.015	25
449.24	29
450.464	30.5
451.688	29
452.912	27
454.135	32
455.359	32
456.582	31
457.805	28.5
459.028	31
460.251	26.5
461.473	29.5
462.696	32
463.918	28
465.14	32
466.36	31.5
467.582	28.5
468.803	33
470.024	34.5
471.245	35
472.466	37
473.686	36
474.907	40
476.126	40.5
477.346	43
478.565	46.5
479.785	50
481.004	50
482.224	57.5
483.441	59
484.66	61
485.879	64.5
487.097	71
488.314	67
489.532	68
490.75	68
491.967	64
493.184	61
494.401	56
495.618	53
496.835	53.5
498.05	49
499.267	51
500.483	43
501.698	42
502.913	47
504.129	43.5
505.343	45
506.559	40
507.774	40
508.987	38.5
510.202	38.5
511.415	33.5
512.63	34
513.844	30.5
515.056	32
516.27	34
517.482	34
518.696	31
519.907	33.5
521.121	32.5
522.332	31
523.545	33
524.757	34
525.968	30.5
527.18	28
528.39	30.5
529.602	25.5
530.812	29
532.023	29.5
533.233	29.5
534.443	26
535.653	31
536.862	32.5
538.073	33
539.281	30.5
540.491	25.5
541.7	31
542.908	29
544.117	29
545.325	32
546.534	28.5
547.741	30
548.949	27.5
550.157	31
551.364	31
552.57	30.5
553.778	27.5
554.985	26.5
556.191	30.5
557.398	24
558.604	31.5
559.809	27.5
561.014	29
562.221	29.5
563.426	29.5
564.63	28.5
565.835	26
567.041	30
568.245	29
569.449	28.5
570.653	26.5
571.856	26
573.061	26.5
574.264	29
575.467	29
576.67	24
577.873	28.5
579.076	26
580.279	25
581.481	28
582.683	31
583.884	28
585.086	24
586.287	26
587.488	26
588.689	29
589.891	27
591.092	24.5
592.292	31
593.492	29.5
594.692	31
595.892	31.5
597.092	31
598.291	28.5
599.49	32
600.689	26.5
601.888	27
603.087	29
604.285	26.5
605.483	29
606.681	27
607.879	29.5
609.077	27.5
610.274	30.5
611.472	26
612.668	31
613.865	26
615.061	28.5
616.258	32
617.454	29
618.65	28
619.846	28.5
621.042	29.5
622.238	28.5
623.432	27
624.627	32
625.822	25
627.017	27
628.212	26.5
629.406	29.5
630.599	26.5
631.793	27
632.987	26
634.181	28
635.373	28
636.566	29
637.76	27.5
638.953	29
640.144	24.5
641.337	30
642.529	28.5
643.721	35
644.912	26
646.104	23.5
647.295	28.5
648.485	23.5
649.677	30.5
650.868	26
652.057	28
653.248	23
654.437	29
655.628	28.5
656.818	30
658.006	27.5
659.196	25.5
660.384	32
661.574	30
662.763	26.5
663.951	30.5
665.14	31
666.327	31
667.515	29
668.702	31
669.891	30
671.077	30.5
672.265	32.5
673.451	32.5
674.638	30.5
675.824	29.5
677.011	32
678.197	30
679.383	31.5
680.568	34
681.755	37
682.939	40.5
684.124	32.5
685.309	39
686.494	37.5
687.679	39
688.863	30
690.046	31.5
691.231	34.5
692.414	33.5
693.599	33
694.781	35.5
695.964	36.5
697.148	35
698.33	33.5
699.512	38
700.694	33.5
701.877	37.5
703.059	44.5
704.24	40
705.423	45
706.604	52
707.784	52
708.965	51
710.147	52
711.327	48
712.507	44
713.687	40
714.867	37
716.048	40
717.227	32
718.406	34
719.585	32
720.764	29
721.942	29
723.122	31.5
724.3	28
725.478	27
726.656	29
727.834	24.5
729.011	28
730.189	26.5
731.366	28
732.543	29
733.719	26
734.896	26
736.072	25.5
737.249	28
738.426	29.5
739.602	29
740.777	24.5
741.953	28
743.128	30.5
744.303	21
745.477	28
746.651	27
747.826	29
749	29
750.174	27
751.348	23.5
752.522	28.5
753.696	27.5
754.869	30
756.043	26
757.216	25.5
758.389	22.5
759.561	30
760.732	25.5
761.905	24.5
763.077	24.5
764.249	29.5
765.421	27.5
766.592	28.5
767.762	27
768.934	25.5
770.105	27
771.275	28.5
772.446	26
773.615	28.5
774.786	27.5
775.956	30
777.126	25
778.294	30
779.464	32
780.633	29
781.801	33.5
782.97	32
784.139	33.5
785.306	32.5
786.475	32
787.643	31.5
788.81	28.5
789.978	36.5
791.146	33
792.312	34
793.479	29.5
794.647	28.5
795.812	31
796.979	29
798.144	29.5
799.311	23.5
800.477	26
801.642	28.5
802.808	25.5
803.972	28
805.138	29.5
806.302	28.5
807.467	30.5
808.631	26.5
809.796	28.5
810.959	26.5
812.124	29.5
813.287	25.5
814.451	25
815.614	32
816.777	28.5
817.94	29
819.102	28
820.265	26.5
821.427	26
822.59	26
823.751	28
824.912	25.5
826.074	29
827.235	23
828.397	24
829.558	26.5
830.718	25
831.879	27
833.039	25
834.199	25.5
835.359	24.5
836.519	30.5
837.679	24.5
838.838	25.5
839.998	25
841.156	26.5
842.315	29
843.473	29
844.633	29
845.791	30.5
846.948	29
848.106	27
849.263	27.5
850.422	23
851.579	29
852.736	26
853.892	29.5
855.049	28
856.205	29.5
857.363	29.5
858.519	31.5
859.674	30.5
860.83	29.5
861.986	27.5
863.141	30.5
864.296	26
865.451	32
866.605	24.5
867.76	30.5
868.914	33
870.069	27.5
871.224	25
872.378	27.5
873.531	24.5
874.685	30.5
875.838	29
876.991	30.5
878.144	28.5
879.296	26
880.448	31
881.6	29
882.753	27
883.905	30
885.057	27.5
886.208	26
887.36	28
888.511	26.5
889.662	22
890.813	24
891.964	29.5
893.113	27.5
894.264	28
895.414	25
896.564	27.5
897.714	26.5
898.864	27
900.012	23
901.161	24.5
902.31	27
903.459	26
904.607	28.5
905.756	27.5
906.904	22.5
908.052	24
909.199	28
910.347	23.5
911.495	22.5
912.643	25
913.789	27
914.936	26
916.083	26.5
917.229	28.5
918.375	27
919.522	25.5
920.667	26
921.813	26.5
922.959	25.5
924.104	23
925.249	26.5
926.393	27.5
927.539	26.5
928.684	23
929.827	25
930.972	26.5
932.115	25.5
933.26	31
934.403	23.5
935.547	25.5
936.689	24
937.833	27.5
938.975	25
940.119	25
941.26	26.5
942.404	26.5
943.545	23
944.688	28
945.829	23.5
946.971	25
948.112	27.5
949.253	28
950.394	27
951.535	29
952.676	25.5
953.816	28
954.956	24.5
956.097	29.5
957.236	27
958.377	25
959.516	28.5
960.655	25.5
961.793	26
962.933	25.5
964.071	28.5
965.21	22.5
966.349	26.5
967.487	27.5
968.624	25.5
969.762	25
970.901	25.75
972.038	24.5
973.175	26
974.311	24
975.449	28
976.586	21
977.722	23
978.858	26
979.994	27
981.131	24.5
982.267	28
983.402	29
984.537	27.5
985.672	23.5
986.807	27
987.942	23.5
989.076	28
990.211	25.5
991.346	26.5
992.48	22
993.614	23
994.748	28
995.881	24.5
997.014	23.5
998.148	24.5
999.28	26.5
1000.41	27.5
1001.55	28
1002.68	25
1003.81	28.5
1004.94	26.5
1006.07	26.5
1007.21	23.5
1008.34	26
1009.47	27
1010.6	24
1011.73	26.5
1012.86	22.5
1013.99	24
1015.12	26
1016.25	26.5
1017.38	26
1018.51	26.5
1019.64	25.5
1020.77	26
1021.9	23
1023.03	22
1024.16	26
1025.29	30.5
1026.42	25.5
1027.54	23
1028.67	26
1029.8	26
1030.93	28
1032.06	26
1033.18	22.5
1034.31	26
1035.44	25
1036.56	25.5
1037.69	29
1038.82	24
1039.94	25.5
1041.07	26.5
1042.2	26.5
1043.32	24.5
1044.45	26
1045.57	27
1046.7	27
1047.82	23.5
1048.95	26
1050.07	28
1051.2	25.5
1052.32	28
1053.45	25.5
1054.57	25.5
1055.69	27.5
1056.82	25.5
1057.94	28
1059.06	21
1060.19	23
1061.31	28
1062.43	23
1063.55	26
1064.68	27
1065.8	24
1066.92	24
1068.04	22.5
1069.16	25
1070.28	25.5
1071.41	27
1072.53	26.5
1073.65	27
1074.77	24
1075.89	26
1077.01	24
1078.13	25.5
1079.25	25
1080.37	25
1081.49	24.5
1082.61	26
1083.73	23
1084.85	23
1085.96	21
1087.08	25
1088.2	25.5
1089.32	25.5
1090.44	24
1091.56	27
1092.67	25.5
1093.79	26
1094.91	24
1096.03	24.5
1097.14	27
1098.26	26
1099.38	25.5
1100.49	27
1101.61	24
1102.73	23.5
1103.84	25
1104.96	23
1106.07	26
1107.19	25
1108.3	22
1109.42	22.5
1110.53	26
1111.65	22
1112.76	25
1113.88	27
1114.99	26
1116.1	27
1117.22	25
1118.33	25
1119.44	24.5
1120.56	22.5
1121.67	22.5
1122.78	23.5
1123.9	24
1125.01	22.5
1126.12	26
1127.23	23.5
1128.34	28
1129.46	25.5
1130.57	25
1131.68	24
1132.79	23.5
1133.9	24
1135.01	27
1136.12	28.5
1137.23	23
1138.34	27.5
1139.45	25
1140.56	24
1141.67	23
1142.78	24
1143.89	21
1145	27
1146.11	24
1147.22	26.5
1148.33	24
1149.44	27
1150.54	21.5
1151.65	24
1152.76	24.5
1153.87	25
1154.97	29.5
1156.08	20
1157.19	23.5
1158.3	25
1159.4	26.5
1160.51	27
1161.62	23
1162.72	22
1163.83	22.5
1164.93	25
1166.04	27
1167.15	23
1168.25	22
1169.36	26.5
1170.46	24.5
1171.57	26.5
1172.67	27.5
1173.78	25
1174.88	21.5
1175.98	27
1177.09	21
1178.19	23
1179.3	24
1180.4	27
1181.5	22.5
1182.61	28.5
1183.71	25.5
1184.81	21.5
1185.91	27
1187.02	23.5
1188.12	26
1189.22	23
1190.32	22
1191.42	27
1192.53	25.5
1193.63	23.5
1194.73	26.4698
1195.83	23.45
1196.93	21.0457
1198.03	26.9697
1199.13	25.0563
1200.23	24.5479
1201.33	23.1006
1202.43	27.1579
1203.53	24.2382
1204.63	25.3773
1205.73	22.4719
1206.83	23.7346
1207.93	24.0397
1209.02	25.6282
1210.12	24.5188
1211.22	20.301
1212.32	22.4693
1213.42	23.6103
1214.52	27.8974
1215.61	23.5945
1216.71	25.3441
1217.81	24.1679
1218.91	27.0443
1220	22.9426
1221.1	24.3262
1222.2	23.5326
1223.29	26.7687
1224.39	24.5242
1225.49	25.3532
1226.58	24.4333
1227.68	25.7787
1228.77	21.0396
1229.87	26.4776
1230.96	26.8382
1232.06	24.0963
1233.15	26.5215
1234.25	25.845
1235.34	23.8716
1236.44	23.5542
1237.53	24.9587
1238.63	25.2711
1239.72	28.1112
1240.81	21.2051
1241.91	24.548
1243	26.7082
1244.09	25.7825
1245.19	23.8034
1246.28	24.9462
1247.37	22.1179
1248.46	23.5346
1249.56	25.2313
1250.65	25.7465
1251.74	24.029
1252.83	24.0654
1253.92	21.8677
1255.01	25.9467
1256.11	25.0207
1257.2	26.3809
1258.29	26.0558
1259.38	28.0241
1260.47	24.0143
1261.56	27.8768
1262.65	25.8693
1263.74	24.3308
1264.83	25.4513
1265.92	26.6295
1267.01	25.0825
1268.1	26.3277
1269.19	25.5695
1270.27	25.6748
1271.36	21.3134
1272.45	25.8422
1273.54	23.1101
1274.63	21.6052
1275.72	23.497
1276.8	22.7585
1277.89	25.1047
1278.98	22.8514
1280.07	23.5076
1281.15	24.5973
1282.24	23.3522
1283.33	19.4952
1284.41	21.9978
1285.5	25.0154
1286.59	21.3097
1287.67	20.2452
1288.76	22.616
1289.84	25.9754
1290.93	23.672
1292.01	23.2621
1293.1	24.443
1294.19	22.1778
1295.27	24.229
1296.35	23.3077
1297.44	23.4788
1298.52	23.8934
1299.61	24.1057
1300.69	23.3946
1301.78	24.6838
1302.86	26.9671
1303.94	23.5449
1305.03	23.1148
1306.11	23.8511
1306.4	24
1307.49	24
1308.57	22.5
1309.66	28
1310.75	27.5
1311.84	24
1312.92	24
1314.01	23
1315.1	25
1316.19	28
1317.27	24.5
1318.36	21.5
1319.45	21.5
1320.53	25.5
1321.62	24
1322.7	24.5
1323.79	22.5
1324.88	24
1325.96	25.5
1327.05	23.5
1328.13	24
1329.21	23.5
1330.3	21
1331.38	26.5
1332.47	23
1333.55	22
1334.64	22.5
1335.72	21
1336.8	25
1337.89	25
1338.97	28.5
1340.05	26.5
1341.14	24
1342.22	25
1343.3	27
1344.39	23.5
1345.47	23
1346.55	24.5
1347.63	22.5
1348.71	23
1349.79	28.5
1350.88	26
1351.96	23
1353.04	25.5
1354.12	22.5
1355.2	21
1356.28	21
1357.36	24.5
1358.44	26.5
1359.52	24
1360.6	27
1361.68	23.5
1362.76	25
1363.84	26.5
1364.92	24.5
1366	26.5
1367.08	17
1368.16	24.5
1369.23	23.5
1370.31	21.5
1371.39	26
1372.47	23.5
1373.55	27.5
1374.62	23
1375.7	28
1376.78	25
1377.85	23.5
1378.93	21.5
1380.01	23.5
1381.09	22.5
1382.16	27
1383.24	25.5
1384.31	26.5
1385.39	25.5
1386.47	24
1387.54	26
1388.62	26
1389.69	23
1390.77	24
1391.84	28.5
1392.92	24.5
1393.99	25.5
1395.06	24
1396.14	28
1397.21	26.5
1398.29	24
1399.36	32
1400.43	30.5
1401.51	27.5
1402.58	30
1403.65	30
1404.73	31
1405.8	29.5
1406.87	32
1407.94	33.5
1409.02	28
1410.09	32.5
1411.16	30.5
1412.23	33
1413.3	31.5
1414.37	35.5
1415.45	30.5
1416.52	29
1417.59	28.5
1418.66	27
1419.73	28.5
1420.8	29
1421.87	29.5
1422.94	25.5
1424.01	27.5
1425.08	21
1426.15	25.5
1427.22	24
1428.29	24
1429.35	22
1430.42	27
1431.49	27.5
1432.56	23
1433.63	26.5
1434.7	25.5
1435.77	27
1436.83	28
1437.9	27
1438.97	24.5
1440.04	24.5
1441.1	26
1442.17	26.5
1443.24	26
1444.3	28.5
1445.37	27
1446.44	26.5
1447.5	22
1448.57	28
1449.63	21.5
1450.7	25.5
1451.76	25
1452.83	25.5
1453.89	23
1454.96	25
1456.02	29.5
1457.09	22.5
1458.15	22.5
1459.22	24.5
1460.28	24
1461.34	26.5
1462.41	26.5
1463.47	23.5
1464.54	23
1465.6	19.5
1466.66	24
1467.72	26
1468.79	22
1469.85	27
1470.91	25
1471.97	26.5
1473.04	23.5
1474.1	29
1475.16	24.5
1476.22	25.5
1477.28	25
1478.34	27
1479.4	27
1480.47	29
1481.53	28.5
1482.59	24.5
1483.65	29
1484.71	25.5
1485.77	26
1486.83	28
1487.89	24
1488.95	27.5
1490.01	27
1491.07	27
1492.12	29
1493.18	24
1494.24	23.5
1495.3	24
1496.36	27.5
1497.42	28.5
1498.47	26
1499.53	26
1500.59	26
1501.65	21
1502.7	22
1503.76	25.5
1504.82	27
1505.88	29
1506.93	27
1507.99	28
1509.05	27
1510.1	23
1511.16	29.5
1512.21	24
1513.27	23
1514.32	24.5
1515.38	23.5
1516.43	24
1517.49	26
1518.54	27
1519.6	26
1520.65	27
1521.71	24
1522.76	30
1523.82	23.5
1524.87	25
1525.92	26
1526.98	28
1528.03	25.5
1529.08	20
1530.14	25
1531.19	26
1532.24	28.5
1533.3	25
1534.35	23.5
1535.4	24
1536.45	30
1537.5	25.5
1538.56	26
1539.61	27
1540.66	28
1541.71	26.5
1542.76	23.5
1543.81	24.5
1544.86	22
1545.91	25.5
1546.96	25
1548.01	27
1549.06	24
1550.11	23.5
1551.16	26.5
1552.21	24.5
1553.26	24
1554.31	25.5
1555.36	27.5
1556.41	26
1557.46	26
1558.51	24
1559.55	24.5
1560.6	23
1561.65	26.5
1562.7	29.5
1563.75	28
1564.79	26.5
1565.84	25.5
1566.89	29
1567.94	28.5
1568.98	25.5
1570.03	27
1571.07	24.5
1572.12	25
1573.17	27.5
1574.21	22.5
1575.26	24.5
1576.31	25
1577.35	26
1578.4	27
1579.44	28.5
1580.49	28.5
1581.53	21.5
1582.58	21.5
1583.62	22
1584.67	25.5
1585.71	25
1586.75	25
1587.8	24.5
1588.84	24.5
1589.89	23
1590.93	29.5
1591.97	27
1593.02	26.5
1594.06	25
1595.1	27.5
1596.14	23
1597.19	28.5
1598.23	21.5
1599.27	24
1600.31	25.5
1601.35	22.5
1602.4	25
1603.44	21.5
1604.48	20.5
1605.52	29
1606.56	24.5
1607.6	22
1608.64	23
1609.68	25
1610.72	25.5
1611.76	28
1612.8	25
1613.84	26.5
1614.88	25.5
1615.92	29
1616.96	24.5
1618	24.5
1619.04	25.5
1620.08	22
1621.12	23
1622.16	20
1623.19	28
1624.23	21.5
1625.27	27
1626.31	27.5
1627.35	24
1628.38	24.5
1629.42	28
1630.46	28.5
1631.5	26.5
1632.53	28
1633.57	29
1634.61	27
1635.64	28
1636.68	24
1637.71	25.5
1638.75	23
1639.79	28.5
1640.82	26
1641.86	24
1642.89	26.5
1643.93	25.5
1644.96	23
1646	25.5
1647.03	24
1648.07	21.5
1649.1	24
1650.14	24
1651.17	21.5
1652.2	24
1653.24	25
1654.27	28.5
1655.3	22
1656.34	25
1657.37	25.5
1658.4	24
1659.44	23
1660.47	24
1661.5	23
1662.53	23
1663.57	28
1664.6	25
1665.63	26.5
1666.66	26.5
1667.69	23
1668.72	25
1669.75	23.5
1670.79	27.5
1671.82	26.5
1672.85	24
1673.88	21
1674.91	21.5
1675.94	27.5
1676.97	24.5
1678	22
1679.03	25
1680.06	29
1681.09	22
1682.11	23.5
1683.14	23
1684.17	22
1685.2	26
1686.23	28.5
1687.26	27.5
1688.29	24
1689.32	23
1690.34	26
1691.37	25.5
1692.4	26
1693.43	23
1694.45	26
1695.48	22.5
1696.51	25.5
1697.53	23
1698.56	25.5
1699.59	21
1700.61	21
1701.64	25.5
1702.66	28.5
1703.69	25
1704.72	23
1705.74	16
1706.77	24
1707.79	25.5
1708.82	25.5
1709.84	28.5
1710.87	25
1711.89	27.5
1712.92	21
1713.94	24
1714.96	24
1715.99	26.5
1717.01	25.5
1718.04	25
1719.06	31
1720.08	20
1721.11	24.5
1722.13	25.5
1723.15	21.5
1724.17	27.5
1725.2	24
1726.22	29
1727.24	23
1728.26	22.5
1729.28	24.5
1730.31	24
1731.33	23
1732.35	26.5
1733.37	21.5
1734.39	26.5
1735.41	23
1736.43	24
1737.45	24
1738.47	27
1739.49	23
1740.51	25
1741.53	24.5
1742.55	23
1743.57	22
1744.59	26
1745.61	24
1746.63	22
1747.65	22.5
1748.67	25
1749.69	24
1750.71	27
1751.72	26.5
1752.74	24
1753.76	24.5
1754.78	27.5
1755.8	27.5
1756.81	26
1757.83	26.5
1758.85	25.5
1759.86	23.5
1760.88	26
1761.9	27
1762.91	25.5
1763.93	24.5
1764.95	27
1765.96	25.5
1766.98	27.5
1768	20
1769.01	27
1770.03	24
1771.04	27
1772.06	24.5
1773.07	24
1774.09	31
1775.1	23
1776.12	25
1777.13	26
1778.14	26.5
1779.16	26.5
1780.17	25
1781.19	28.5
1782.2	20.5
1783.21	28
1784.23	27
1785.24	24
1786.25	24
1787.27	25.5
1788.28	24
1789.29	22
1790.3	26.5
1791.32	25.5
1792.33	29
1793.34	25.5
1794.35	24
1795.36	29
1796.37	24.5
1797.38	25.5
1798.4	24
1799.41	23
1800.42	23
1801.43	22.5
1802.44	25.5
1803.45	23.5
1804.46	25
1805.47	24
1806.48	28
1807.49	24.5
1808.5	26
1809.51	23
1810.52	26.5
1811.53	22
1812.53	20
1813.54	24
1814.55	29
1815.56	23
1816.57	26
1817.58	26
1818.58	24
1819.59	24
1820.6	32
1821.61	24.5
1822.61	24.5
1823.62	23.5
1824.63	28
1825.64	24
1826.64	25.5
1827.65	22
1828.66	21
1829.66	23.5
1830.67	27
1831.67	25
1832.68	24
1833.68	22
1834.69	27.5
1835.7	26.5
1836.7	23
1837.71	24
1838.71	23.5
1839.71	27
1840.72	27
1841.72	26
1842.73	26.5
1843.73	26
1844.74	28.5
1845.74	30
1846.74	26
1847.75	23
1848.75	23
1849.75	26
1850.76	23
1851.76	22
1852.76	25.5
1853.76	25.5
1854.77	27.5
1855.77	24.5
1856.77	21
1857.77	23
1858.77	24
1859.78	27.5
1860.78	26.5
1861.78	24.5
1862.78	24.5
1863.78	24
1864.78	26.5
1865.78	26
1866.78	24
1867.78	22.5
1868.78	24
1869.78	23.5
1870.78	26.5
1871.78	23
1872.78	24.5
1873.78	27
1874.78	22.5
1875.78	24.5
1876.78	25.5
1877.78	23
1878.78	22
1879.77	26
1880.77	25
1881.77	24
1882.77	26.5
1883.77	26.5
1884.76	21.5
1885.76	24
1886.76	24.5
1887.76	21.5
1888.75	24.5
1889.75	23.5
1890.75	26
1891.74	23.5
1892.74	22.5
1893.74	23
1894.73	23
1895.73	27.5
1896.72	25.5
1897.72	23
1898.72	25
1899.71	25
1900.71	23
1901.7	27
1902.7	27
1903.69	24.5
1904.69	24
1905.68	27
1906.67	24.5
1907.67	24.5
1908.66	23
1909.66	24.5
1910.65	23
1911.64	25.5
1912.64	26.5
1913.63	22
1914.62	22
1915.62	26
1916.61	25.5
1917.6	23
1918.59	25
1919.59	19
1920.58	24.5
1921.57	24.5
1922.56	25
1923.55	23
1924.55	27.5
1925.54	24
1926.53	23
1927.52	24.5
1928.51	20
1929.5	24
1930.49	21.5
1931.48	28
1932.47	24
1933.46	22
1934.45	23.5
1935.44	22
1936.43	28
1937.42	25
1938.41	26.5
1939.4	26.5
1940.39	22
1941.38	24.5
1942.37	22
1943.36	26
1944.34	27
1945.33	30
1946.32	26
1947.31	25.5
1948.3	26.5
1949.28	25
1950.27	27
1951.26	25
1952.25	25.5
1953.23	24
1954.22	25
1955.21	22
1956.2	26
1957.18	20.5
1958.17	30
1959.15	23
1960.14	21
1961.13	23
1962.11	24
1963.1	23.5
1964.08	24
1965.07	24.5
1966.05	25.5
1967.04	23.5
1968.02	22
1969.01	27.5
1969.99	24.5
1970.98	26
1971.96	27
1972.94	25
1973.93	24
1974.91	19
1975.9	27
1976.88	24.5
1977.86	21.5
1978.85	23
1979.83	21.5
1980.81	30
1981.8	24
1982.78	22.5
1983.76	25.5
1984.74	21.5
1985.72	23
1986.71	27
1987.69	27
1988.67	21
1989.65	24
1990.63	23
1991.61	24
1992.6	22
1993.58	24
1994.56	24
1995.54	24.5
1996.52	20
1997.5	25.5
1998.48	25.5
1999.46	22.5
2000.44	23.5
2001.42	25
2002.4	26
2003.38	25.5
2004.36	21.5
2005.34	24.5
2006.32	24.5
2007.29	24
2008.27	24.5
2009.25	23.5
2010.23	23
2011.21	24
2012.19	24
2013.16	19
2014.14	24.5
2015.12	22
2016.1	21.5
2017.07	26
2018.05	22.5
2019.03	24
2020	21
2020.98	21.5
2021.96	27.5
2022.93	22.5
2023.91	23.5
2024.89	25.5
2025.86	16
2026.84	23.5
2027.81	21
2028.79	22
2029.77	18.5
2030.74	26
2031.72	26
2032.69	24
2033.67	25
2034.64	21.5
2035.61	24
2036.59	24.5
2037.56	19.5
2038.54	29
2039.51	23
2040.48	24.5
2041.46	23
2042.43	22
2043.41	27.5
2044.38	25.5
2045.35	21
2046.32	25.5
2047.3	24
2048.27	25
2049.24	24.5
2050.21	23
2051.19	24
2052.16	27
2053.13	24
2054.1	22
2055.07	22.5
2056.04	22.5
2057.02	24
2057.99	26
2058.96	23.5
2059.93	22
2060.9	21
2061.87	22.5
2062.84	22.5
2063.81	24
2064.78	24
2065.75	20.5
2066.72	26
2067.69	26
2068.66	21
2069.63	25
2070.6	21
2071.57	21
2072.53	24
2073.5	25
2074.47	22
2075.44	23.5
2076.41	25.5
2077.38	23
2078.34	25.5
2079.31	25.5
2080.28	23.5
2081.25	21.5
2082.21	22
2083.18	25.5
2084.15	24
2085.12	24
2086.08	26
2087.05	25.5
2088.02	20.5
2088.98	22.5
2089.95	22
2090.91	25.5
2091.88	22.5
2092.85	20.5
2093.81	21.5
2094.78	25.5
2095.74	23.5
2096.71	23
2097.67	25.5
2098.64	25
2099.6	25
2100.57	23
2101.53	25
2102.5	22
2103.46	23
2104.42	22
2105.39	24.5
2106.35	24
2107.31	21
2108.28	21
2109.24	22.5
2110.2	24
2111.17	22.5
2112.13	22.5
2113.09	22.5
2114.06	23
2115.02	22.5
2115.98	24
2116.94	26.5
2117.9	24.5
2118.86	24
2119.83	27
2120.79	25
2121.75	28
2122.71	25
2123.67	21.5
2124.63	25.5
2125.59	24
2126.55	25
2127.51	21
2128.48	21.5
2129.43	23.5
2130.4	25
2131.35	24
2132.31	29.5
2133.27	25
2134.23	23.5
2135.19	26
2136.15	23.5
2137.11	24.5
2138.07	28
2139.03	21.5
2139.99	23
2140.95	26.5
2141.9	25
2142.86	22.9955
2143.82	21.4727
2144.78	24.5429
2145.74	22.5436
2146.69	23.453
2147.65	22.0355
2148.61	21.9657
2149.56	25.8836
2150.52	23.665
2151.48	24.0081
2152.44	23.2594
2153.39	23.0982
2154.35	22.4099
2155.3	24.1504
2156.26	20.9812
2157.22	23.6819
2158.17	20.6958
2159.13	23.4225
2160.08	22.5198
2161.04	21.643
2161.99	26.8439
2162.95	24.8144
2163.9	22.5803
2164.86	23.4571
2165.81	18.9187
2166.77	21.0349
2167.72	24.1568
2168.68	25.1653
2169.63	21.031
2170.58	26.8397
2171.54	22.7339
2172.49	21.8617
2173.44	22.2901
2174.4	22.2533
2175.35	21.4915
2176.3	20.2933
2177.26	22.4435
2178.21	23.7585
2179.16	22.0491
2180.11	21.5761
2181.07	22.5261
2182.02	23.9348
2182.97	20.8191
2183.92	24.1794
2184.88	22.2065
2185.83	20.7503
2186.78	24.5642
2187.73	22.7908
2188.68	21.3207
2189.63	20.0457
2190.58	22.1867
2191.53	22.0562
2192.48	24.736
2193.43	24.9166
2194.38	21.5313
2195.33	23.7105
2196.28	22.9185
2197.23	22.1549
2198.18	20.1574
2199.13	23.5188
2200.08	22.8821
2201.03	24.6979
2201.98	24.0134
2202.93	25.767
2203.88	21.5467
2204.83	23.9567
2205.78	21.7803
2206.72	22.7714
2207.67	20.3787
2208.62	23.2134
2209.57	22.9822
2210.52	21.826
2211.46	22.0922
2212.41	19.7008
2213.36	21.3892
2214.31	21.6798
2215.25	23.7553
2216.2	24.3144
2217.15	20.9759
2218.09	23.6611
2219.04	21.5677
2219.99	23.4463
2220.93	19.5976
2221.88	21.4498
2222.83	22.7689
2223.77	25.7395
2224.72	21.7
2225.66	23.6031
2226.61	23.5317
2227.55	20.5915
2228.5	21.6645
2229.44	20.9197
2230.39	19.7075
2231.33	20.9648
2232.28	25.0261
2233.22	23.6162
2234.17	21.321
2235.11	19.8259
2236.05	22.273
2237	23.3507
2237.94	22.6064
2238.88	22.5073
2239.83	25.2213
2240.04	26
2240.98	24.5
2241.93	20.5
2242.88	25.5
2243.83	22.5
2244.78	22.5
2245.72	21.5
2246.67	24.5
2247.62	26
2248.56	23
2249.51	25
2250.46	17
2251.4	23
2252.35	21
2253.3	24
2254.24	21
2255.19	22
2256.14	21
2257.08	25
2258.03	21.5
2258.97	23
2259.92	22.5
2260.86	22
2261.81	23
2262.75	26
2263.7	22.5
2264.64	21.5
2265.59	21.5
2266.53	20.5
2267.48	25
2268.42	26.5
2269.36	25
2270.31	25.5
2271.25	27.5
2272.19	23
2273.14	23.5
2274.08	27
2275.02	24.5
2275.97	21
2276.91	21
2277.85	23
2278.8	23
2279.74	21.5
2280.68	21.5
2281.62	24.5
2282.56	25.5
2283.51	23
2284.45	24
2285.39	22.5
2286.33	22
2287.27	22
2288.21	22
2289.15	21
2290.09	23
2291.04	20
2291.98	24
2292.92	23
2293.86	22.5
2294.8	21
2295.74	21
2296.68	25
2297.62	24.5
2298.56	18.5
2299.5	23.5
2300.44	22.5
2301.37	24.5
2302.31	21
2303.25	19.5
2304.19	22.5
2305.13	23.5
2306.07	20
2307.01	23
2307.94	25.5
2308.88	24
2309.82	22.5
2310.76	22.5
2311.7	23
2312.63	22.5
2313.57	27
2314.51	23.5
2315.44	23
2316.38	25
2317.32	23
2318.26	20
2319.19	25
2320.13	25.5
2321.06	22.5
2322	20.5
2322.94	24
2323.87	26
2324.81	22
2325.74	22
2326.68	20.5
2327.61	27
2328.55	24
2329.48	25.5
2330.42	21
2331.35	23
2332.29	24
2333.22	21
2334.16	24
2335.09	25
2336.02	23.5
2336.96	25.5
2337.89	23.5
2338.83	24
2339.76	21
2340.69	20
2341.63	27.5
2342.56	20.5
2343.49	24.5
2344.42	25.5
2345.36	19.5
2346.29	21
2347.22	26
2348.15	21.5
2349.09	22
2350.02	22.5
2350.95	25
2351.88	20.5
2352.81	26
2353.74	22.5
2354.68	23.5
2355.61	25.5
2356.54	22
2357.47	24.5
2358.4	23.5
2359.33	25
2360.26	24.5
2361.19	24
2362.12	24
2363.05	22.5
2363.98	25
2364.91	27.5
2365.84	24.5
2366.77	25.5
2367.7	22.5
2368.63	25
2369.56	22
2370.49	21.5
2371.41	21.5
2372.34	24.5
2373.27	26.5
2374.2	20
2375.13	24.5
2376.06	23
2376.98	22
2377.91	25.5
2378.84	22.5
2379.77	21.5
2380.69	26
2381.62	23
2382.55	24
2383.47	23
2384.4	24.5
2385.33	21
2386.25	24.5
2387.18	21.5
2388.11	24.5
2389.03	25.5
2389.96	22
2390.89	25.5
2391.81	26.5
2392.74	28
2393.66	23.5
2394.59	21.5
2395.51	24.5
2396.44	23
2397.36	24
2398.29	29.5
2399.21	22.5
2400.14	24
2401.06	25.5
2401.99	25
2402.91	25.5
2403.83	20
2404.76	22.5
2405.68	24.5
2406.6	28
2407.53	18.5
2408.45	24
2409.37	24.5
2410.3	22
2411.22	21.5
2412.14	22
2413.06	24
2413.99	26
2414.91	23.5
2415.83	21.5
2416.75	22.5
2417.68	24
2418.6	23.5
2419.52	24.5
2420.44	24.5
2421.36	23
2422.28	26.5
2423.2	23
2424.12	22.5
2425.05	21
2425.97	24
2426.89	19.5
2427.81	22
2428.73	23.5
2429.65	21.5
2430.57	24.5
2431.49	26.5
2432.41	23.5
2433.33	22
2434.25	23
2435.17	26.5
2436.08	25
2437	25.5
2437.92	24
2438.84	23.5
2439.76	25
2440.68	23.5
2441.6	21
2442.51	18.5
2443.43	21
2444.35	23.5
2445.27	26
2446.19	24
2447.1	23.5
2448.02	25.5
2448.94	25
2449.85	26
2450.77	22
2451.69	21
2452.61	25.5
2453.52	19.5
2454.44	18.5
2455.35	26.5
2456.27	25.5
2457.19	23.5
2458.1	23.5
2459.02	25.5
2459.94	24.5
2460.85	22
2461.77	20.5
2462.68	28
2463.6	25
2464.51	25.5
2465.43	24.5
2466.34	22
2467.25	23.5
2468.17	23.5
2469.08	25.5
2470	25
2470.91	22.5
2471.83	25
2472.74	25
2473.65	24
2474.57	24.5
2475.48	26
2476.39	25
2477.31	26
2478.22	20
2479.13	25.5
2480.04	23
2480.96	22
2481.87	23.5
2482.78	25
2483.69	26.5
2484.6	21.5
2485.52	22.5
2486.43	22.5
2487.34	21.5
2488.25	24
2489.16	27.5
2490.07	25.5
2490.99	23.5
2491.9	24
2492.81	24.5
2493.72	24
2494.63	25
2495.54	25.5
2496.45	24.5
2497.36	22.5
2498.27	22.5
2499.18	25.5
2500.09	28
2501	26
2501.91	26.5
2502.82	23
2503.73	26
2504.63	23.5
2505.54	24
2506.45	24
2507.36	26
2508.27	26
2509.18	24
2510.09	26
2510.99	19.5
2511.9	26.5
2512.81	23.5
2513.72	22
2514.62	25.5
2515.53	26.5
2516.44	24
2517.35	24.5
2518.25	23.5
2519.16	24
2520.07	25
2520.97	24
2521.88	21
2522.79	27
2523.69	22
2524.6	27
2525.51	28
2526.41	24.5
2527.32	26.5
2528.22	26
2529.13	22
2530.03	24
2530.94	26.5
2531.84	22.5
2532.75	24.5
2533.65	26
2534.56	23.5
2535.46	25
2536.37	27
2537.27	27.5
2538.17	26
2539.08	24
2539.98	23
2540.89	26.5
2541.79	21.5
2542.69	21
2543.6	22
2544.5	25
2545.4	19
2546.31	27
2547.21	22
2548.11	27
2549.01	26.5
2549.92	23.5
2550.82	21
2551.72	22
2552.62	22
2553.52	25
2554.42	25
2555.33	23.5
2556.23	21
2557.13	26.5
2558.03	24.5
2558.93	26.5
2559.83	24.5
2560.73	26
2561.63	21
2562.53	28.5
2563.43	23
2564.33	25.5
2565.24	26.5
2566.13	24.5
2567.04	26
2567.93	23.5
2568.83	22
2569.73	23.5
2570.63	26.5
2571.53	27.5
2572.43	25.5
2573.33	25.5
2574.23	24
2575.13	23.5
2576.03	25
2576.92	25
2577.82	26
2578.72	24
2579.62	24
2580.52	22
2581.41	22
2582.31	26.5
2583.21	27.5
2584.11	21.5
2585	27.5
2585.9	22
2586.8	24
2587.69	24
2588.59	23
2589.49	24.5
2590.38	28
2591.28	22
2592.18	26.5
2593.07	23
2593.97	25.5
2594.86	25
2595.76	23
2596.66	26.5
2597.55	22
2598.45	26
2599.34	23.5
2600.24	25
2601.13	25
2602.03	25.5
2602.92	22.5
2603.81	23
2604.71	26.5
2605.6	27
2606.5	25.5
2607.39	21
2608.28	25.5
2609.18	26
2610.07	27
2610.97	25
2611.86	26
2612.75	24
2613.64	22.5
2614.54	21
2615.43	28.5
2616.32	21.5
2617.22	25
2618.11	24
2619	23
2619.89	25
2620.78	27
2621.68	21
2622.57	24
2623.46	24.5
2624.35	25
2625.24	23
2626.13	28
2627.02	29.5
2627.91	21.5
2628.81	23.5
2629.7	26.5
2630.59	21.5
2631.48	26.5
2632.37	22.5
2633.26	25
2634.15	23.5
2635.04	24
2635.93	22
2636.82	25.5
2637.71	24
2638.59	19
2639.48	23
2640.37	22
2641.26	25
2642.15	26
2643.04	28.5
2643.93	25
2644.82	25
2645.71	25
2646.59	24
2647.48	26
2648.37	23.5
2649.26	23
2650.15	25.5
2651.03	22.5
2651.92	23
2652.81	24.5
2653.69	24.5
2654.58	24
2655.47	25
2656.35	23.5
2657.24	24.5
2658.13	25.5
2659.01	25.5
2659.9	26
2660.79	26.5
2661.67	23
2662.56	26.5
2663.44	23.5
2664.33	26
2665.22	29
2666.1	24
2666.99	24
2667.87	23
2668.76	24.5
2669.64	26
2670.52	24
2671.41	25.5
2672.29	24.5
2673.18	25
2674.06	27
2674.95	26.5
2675.83	26.5
2676.71	22.5
2677.6	24.5
2678.48	24
2679.36	24.5
2680.25	24
2681.13	24
2682.01	26
2682.9	24
2683.78	26
2684.66	25.5
2685.55	25
2686.43	26
2687.31	26
2688.19	21.5
2689.07	22.5
2689.96	26
2690.84	25.5
2691.72	23
2692.6	23.5
2693.48	23
2694.36	23.5
2695.24	26.5
2696.12	21
2697	24
2697.89	27.5
2698.77	24
2699.65	23
2700.53	25.5
2701.41	28.5
2702.29	23
2703.17	25
2704.05	24
2704.93	25.5
2705.81	27.5
2706.69	25
2707.57	27
2708.44	25
2709.32	24
2710.2	23
2711.08	25.5
2711.96	23
2712.84	25
2713.72	24
2714.59	25
2715.47	25.5
2716.35	21
2717.23	22
2718.11	23.5
2718.98	28.5
2719.86	24.5
2720.74	23.5
2721.62	23.5
2722.49	27
2723.37	23.5
2724.25	20.5
2725.12	25.5
2726	24.5
2726.88	27
2727.75	26.5
2728.63	27.5
2729.51	27.5
2730.38	20.5
2731.26	23
2732.13	23.5
2733.01	26
2733.88	22.5
2734.76	23
2735.63	22.5
2736.51	24
2737.38	26.5
2738.26	26.5
2739.13	24
2740.01	25
2740.88	23
2741.76	24
2742.63	18.5
2743.5	23.5
2744.38	23.5
2745.25	23.5
2746.13	25.5
2747	22
2747.87	22
2748.75	26.5
2749.62	21.5
2750.49	23.5
2751.36	26
2752.24	25.5
2753.11	24.5
2753.98	23
2754.86	25.5
2755.73	26.5
2756.6	20
2757.47	24.5
2758.34	24
2759.22	21.5
2760.09	24.5
2760.96	25
2761.83	25
2762.7	25
2763.57	26.5
2764.44	26
2765.31	28.5
2766.18	22.5
2767.06	26.5
2767.93	26
2768.8	24.5
2769.67	20
2770.54	24.5
2771.41	20.5
2772.28	27
2773.15	21
2774.02	28
2774.89	22.5
2775.75	26.5
2776.62	24.5
2777.49	23
2778.36	21.5
2779.23	25
2780.1	27
2780.97	24
2781.84	22
2782.71	20
2783.57	27.5
2784.44	27.5
2785.31	25
2786.18	28
2787.04	25
2787.91	27
2788.78	25
2789.65	25.5
2790.51	28
2791.38	22
2792.25	25.5
2793.12	24
2793.98	28.5
2794.85	27
2795.72	23
2796.58	24.5
2797.45	27
2798.31	26
2799.18	25.5
2800.05	28.5
2800.91	27.75
2801.78	26.5
2802.64	25.5
2803.51	26.5
2804.37	28.5
2805.24	26.5
2806.1	25.5
2806.97	27
2807.83	26
2808.7	24
2809.56	28.5
2810.43	27
2811.29	23.5
2812.15	27.5
2813.02	28
2813.88	25.5
2814.75	25.5
2815.61	27
2816.47	24.5
2817.34	24.5
2818.2	28.5
2819.06	24
2819.92	25
2820.79	26
2821.65	23
2822.51	26
2823.37	25
2824.24	27.5
2825.1	25
2825.96	25
2826.82	25
2827.69	25
2828.55	25.5
2829.41	28.5
2830.27	26.5
2831.13	26
2831.99	26
2832.85	26.5
2833.71	28.5
2834.58	29.5
2835.44	26
2836.3	29.5
2837.16	21
2838.02	25.5
2838.88	23
2839.74	27.5
2840.6	28.5
2841.46	27.5
2842.32	25.5
2843.18	24.5
2844.04	26.5
2844.9	25
2845.75	22
2846.61	28.5
2847.47	28
2848.33	28
2849.19	27
2850.05	24
2850.91	27
2851.77	25.5
2852.62	22
2853.48	22
2854.34	24
2855.2	25.5
2856.06	25
2856.91	23.5
2857.77	28
2858.63	25
2859.48	28.5
2860.34	25
2861.2	23
2862.06	20
2862.91	26
2863.77	30.5
2864.63	28
2865.48	35
2866.34	28.5
2867.19	26
2868.05	25.5
2868.91	26
2869.76	30
2870.62	27
2871.47	30.5
2872.33	27.5
2873.18	24
2874.04	28.5
2874.89	31
2875.75	27
2876.6	28
2877.46	25
2878.31	36.5
2879.17	27
2880.02	32
2880.88	32
2881.73	31.5
2882.58	33.5
2883.44	33
2884.29	31.5
2885.14	37
2886	34.5
2886.85	35.5
2887.7	36
2888.56	37
2889.41	39.5
2890.26	38
2891.12	37
2891.97	42
2892.82	38.5
2893.67	45
2894.52	44.5
2895.38	47.5
2896.23	49
2897.08	53
2897.93	57.5
2898.78	58
2899.64	60.5
2900.49	63
2901.34	63.5
2902.19	61.5
2903.04	68.5
2903.89	68.5
2904.74	70
2905.59	73.5
2906.44	75
2907.29	72
2908.14	70
2908.99	69.5
2909.84	69
2910.69	65
2911.54	62
2912.39	58.5
2913.24	61.5
2914.09	51
2914.94	51.5
2915.79	45.5
2916.64	50
2917.49	47.5
2918.34	41.5
2919.18	42.5
2920.03	41.5
2920.88	36
2921.73	39
2922.58	36
2923.42	34
2924.27	31.5
2925.12	32.5
2925.97	33
2926.82	33.5
2927.66	28.5
2928.51	26
2929.36	32.5
2930.2	31.5
2931.05	27.5
2931.9	28
2932.74	25.5
2933.59	29.5
2934.44	26
2935.28	28
2936.13	31
2936.98	26.5
2937.82	30
2938.67	24
2939.51	29.5
2940.36	27
2941.2	27
2942.05	29
2942.9	28
2943.74	28.5
2944.58	27
2945.43	31
2946.27	29.5
2947.12	28
2947.96	29.5
2948.81	30.5
2949.65	33
2950.5	31.5
2951.34	31.5
2952.18	35.5
2953.03	30
2953.87	33
2954.71	29.5
2955.56	34.5
2956.4	34
2957.24	35
2958.09	38
2958.93	37
2959.77	36.5
2960.62	42.5
2961.46	40
2962.3	46
2963.14	45
2963.98	50
2964.83	48.5
2965.67	43
2966.51	47
2967.35	44
2968.19	44
2969.04	39
2969.88	39.5
2970.72	42
2971.56	41.9733
2972.4	38.3989
2973.24	40.3667
2974.08	39.3811
2974.92	36.868
2975.76	35.888
2976.6	31.6578
2977.44	36.1158
2978.28	28.1738
2979.12	28.927
2979.96	33.6437
2980.8	26.9776
2981.64	26.8321
2982.48	28.022
2983.32	30.0187
2984.16	27.3869
2985	26.0991
2985.84	26.7108
2986.68	26.3592
2987.52	27.793
2988.35	27.8539
2989.19	23.8828
2990.03	26.9691
2990.87	26.1962
2991.71	24.5015
2992.55	25.4951
2993.38	26.0945
2994.22	25.9248
2995.06	25.6823
2995.9	26.8459
2996.73	24.2548
2997.57	25.3694
2998.41	23.3564
2999.25	26.3551
3000.08	24.8389
3000.92	24.5273
3001.76	24.4541
3002.59	24.8948
3003.43	23.6029
3004.27	23.4307
3005.1	25.1068
3005.94	26.1876
3006.78	24.2364
3007.61	22.9288
3008.45	22.4251
3009.28	24.6486
3010.12	23.0545
3010.95	23.9809
3011.79	23.1419
3012.62	23.8157
3013.46	23.4348
3014.29	23.1691
3015.13	25.276
3015.96	26.5405
3016.8	23.2915
3017.63	21.7104
3018.47	22.4205
3019.3	23.9866
3020.14	21.9504
3020.97	21.5777
3021.8	23.6308
3022.64	24.1003
3023.47	25.0288
3024.3	20.622
3025.14	21.1996
3025.97	21.3155
3026.8	21.5513
3027.64	21.9974
3028.47	21.5452
3029.3	21.5868
3030.14	22.5252
3030.97	23.3436
3031.8	22.8174
3032.63	22.374
3033.46	23.0125
3034.3	22.7134
3035.13	22.1728
3035.96	22.9603
3036.79	22.0623
3037.62	23.1724
3038.46	21.2184
3039.29	22.4657
3040.12	24.801
3040.95	24.28
3041.78	21.9973
3042.61	21.5932
3043.44	23.8152
3044.27	23.3859
3045.1	21.9414
3045.93	21.2706
3046.76	22.9834
3047.59	21.8661
3048.42	21.0085
3049.25	22.2147
3050.08	22.0049
3050.91	24.1638
3051.74	22.4524
3052.57	22.5052
3053.4	24.9365
3054.23	24.6085
3055.06	20.5258
3055.89	23.2795
3056.72	21.6374
3057.32	22
3058.15	21.5
3058.98	26
3059.82	25.5
3060.65	20
3061.48	23
3062.31	19.5
3063.15	25
3063.98	20.5
3064.81	25
3065.64	21
3066.48	19.5
3067.31	24
3068.14	22
3068.97	22
3069.8	25.5
3070.63	25
3071.47	28
3072.3	24.5
3073.13	20.5
3073.96	19.5
3074.79	20
3075.62	22
3076.45	22
3077.28	24.5
3078.11	22.5
3078.94	20
3079.77	22.5
3080.6	27
3081.43	25
3082.26	28
3083.09	20.5
3083.92	24.5
3084.75	23.5
3085.58	22.5
3086.41	24
3087.24	22
3088.07	20.5
3088.9	23.5
3089.73	23.5
3090.55	24
3091.38	23.5
3092.21	25
3093.04	27.5
3093.87	19.5
3094.7	24.5
3095.52	22.5
3096.35	26.5
3097.18	30
3098.01	21.5
3098.84	17.5
3099.66	23.5
3100.49	19.5
3101.32	23
3102.14	21
3102.97	19
3103.8	25
3104.62	20
3105.45	24
3106.28	24
3107.1	20
3107.93	22
3108.76	24
3109.58	23
3110.41	24
3111.23	23
3112.06	21.5
3112.89	22.5
3113.71	23.5
3114.54	23
3115.36	23.5
3116.19	22
3117.01	25.5
3117.84	22.5
3118.66	20
3119.49	25.5
3120.31	25
3121.13	25
3121.96	22.5
3122.78	25
3123.61	22.5
3124.43	22
3125.25	24
3126.08	23
3126.9	26
3127.73	26
3128.55	25
3129.37	22.5
3130.19	25.5
3131.02	24.5
3131.84	21
3132.66	21.5
3133.49	23
3134.31	21
3135.13	24.5
3135.95	22
3136.78	26.5
3137.6	20.5
3138.42	23.5
3139.24	24.5
3140.06	28
3140.88	24.5
3141.71	23
3142.53	22.5
3143.35	22
3144.17	24.5
3144.99	20
3145.81	24.5
3146.63	27
3147.45	22.5
3148.27	25.5
3149.09	27
3149.91	26
3150.73	21
3151.56	22.5
3152.37	25.5
3153.2	24
3154.01	25.5
3154.83	26
3155.65	23.5
3156.47	21.5
3157.29	26
3158.11	23
3158.93	21
3159.75	24
3160.57	24
3161.39	24.5
3162.21	27
3163.02	21
3163.84	23
3164.66	23
3165.48	24.5
3166.3	21
3167.11	25.5
3167.93	24
3168.75	23
3169.57	23
3170.39	25.5
3171.2	21.5
3172.02	24
3172.84	25.5
3173.65	17
3174.47	21
3175.29	24.5
3176.1	20
3176.92	25
3177.74	26
3178.55	25.5
3179.37	21
3180.19	24
3181	24.5
3181.82	22
3182.63	23.5
3183.45	24.5
3184.27	21.5
3185.08	22.5
3185.9	22
3186.71	20
3187.53	28.5
3188.34	25
3189.16	23.5
3189.97	22.5
3190.79	27
3191.6	25
3192.41	17.5
3193.23	24.5
3194.04	24
3194.86	22
3195.67	25.5
3196.48	22
3197.3	24.5
3198.11	24.5
3198.93	26
3199.74	22
3200.55	23
3201.36	23.5
3202.18	22
3202.99	25
3203.8	23
3204.62	22
3205.43	22.5
3206.24	19.5
3207.05	20.5
3207.87	21
3208.68	22.5
3209.49	22.5
3210.3	26
3211.11	25
3211.93	21.5
3212.74	25.5
3213.55	25
3214.36	26
3215.17	23
3215.98	23
3216.79	22
3217.6	19
3218.41	22.5
3219.22	24.5
3220.03	22.5
3220.85	26
3221.66	20.5
3222.47	22.5
3223.28	23
3224.09	25.5
3224.9	20
3225.71	23
3226.52	19
3227.33	21
3228.13	24
3228.94	22
3229.75	23
3230.56	24
3231.37	24.5
3232.18	26
3232.99	18.5
3233.8	22
3234.61	21
3235.41	21
3236.22	25.5
3237.03	20
3237.84	24.5
3238.65	23.5
3239.45	25
3240.26	23.5
3241.07	24.5
3241.88	19.5
3242.68	23
3243.49	27
3244.3	26
3245.1	23.5
3245.91	21.5
3246.72	22.5
3247.53	23.5
3248.33	19.5
3249.14	23.5
3249.95	22
3250.75	28.5
3251.56	27.5
3252.36	25.5
3253.17	24
3253.97	25.5
3254.78	24.5
3255.59	24
3256.39	21
3257.2	27
3258	26.5
3258.81	25.5
3259.61	21.5
3260.42	23
3261.22	23
3262.03	25
3262.83	24
3263.64	22
3264.44	24
3265.24	25
3266.05	21
3266.85	22.5
3267.66	25.5
3268.46	21
3269.26	21.5
3270.07	23
3270.87	24.5
3271.67	23
3272.48	25.5
3273.28	23
3274.08	25
3274.89	21.5
3275.69	22.5
3276.49	23
3277.29	23.5
3278.1	25
3278.9	22.5
3279.7	23
3280.5	25
3281.3	23
3282.11	28.5
3282.91	27
3283.71	23.5
3284.51	22.5
3285.31	26
3286.11	23.5
3286.91	27.5
3287.72	22.5
3288.52	23
3289.32	20
3290.12	20
3290.92	25.5
3291.72	21
3292.52	23
3293.32	26
3294.12	26
3294.92	23
3295.72	23.5
3296.52	26.5
3297.32	23
3298.12	25.5
3298.92	21.5
3299.72	20.5
3300.52	23.5
3301.32	26
3302.12	24
3302.92	25
3303.71	22.5
3304.51	26
3305.31	22
3306.11	23
3306.91	25
3307.71	20.5
3308.5	27
3309.3	24
3310.1	26
3310.9	24
3311.7	25
3312.49	24
3313.29	26.5
3314.09	23.5
3314.89	26
3315.68	23.5
3316.48	26
3317.28	25.5
3318.07	23
3318.87	25
3319.67	21
3320.46	26
3321.26	27
3322.06	20
3322.85	25.5
3323.65	22
3324.44	23.5
3325.24	22
3326.04	26.5
3326.83	24
3327.63	25
3328.42	20
3329.22	24
3330.01	19.5
3330.81	25.5
3331.6	22
3332.4	24
3333.19	23
3333.99	24.5
3334.78	23
3335.58	25.5
3336.37	21
3337.17	23
3337.96	22
3338.75	25.5
3339.55	23.5
3340.34	26
3341.13	25
3341.93	22.5
3342.72	19
3343.51	22.5
3344.31	24.5
3345.1	23
3345.89	25
3346.69	20.5
3347.48	25.5
3348.27	24
3349.06	26.5
3349.86	22
3350.65	22.5
3351.44	24
3352.23	16
3353.03	25.5
3353.82	24.5
3354.61	24.5
3355.4	24.5
3356.19	26
3356.98	23.5
3357.78	22.5
3358.57	22
3359.36	23.5
3360.15	25
3360.94	23
3361.73	27.5
3362.52	22
3363.31	22
3364.1	21
3364.89	24.5
3365.68	22
3366.47	22
3367.26	21.5
3368.05	24
3368.84	20.5
3369.63	19.5
3370.42	22.5
3371.21	24
3372	22
3372.79	25
3373.58	25
3374.37	23
3375.16	24
3375.95	24
3376.73	21.5
3377.52	23.5
3378.31	22
3379.1	24
3379.89	26
3380.68	20.5
3381.46	27
3382.25	22
3383.04	26
3383.83	23.5
3384.62	23.5
3385.4	23.5
3386.19	22
3386.98	26
3387.76	27
3388.55	22.5
3389.34	29.5
3390.13	27.5
3390.91	26
3391.7	22
3392.49	25
3393.27	24
3394.06	22.5
3394.84	25.5
3395.63	23.5
3396.42	24
3397.2	26.5
3397.99	21
3398.77	21
3399.56	27
3400.34	22.5
3401.13	26
3401.92	25.5
3402.7	27
3403.49	24
3404.27	23
3405.06	25
3405.84	25.5
3406.62	25
3407.41	22.5
3408.19	23.5
3408.98	26.5
3409.76	23
3410.55	22
3411.33	22
3412.11	21
3412.9	23
3413.68	26.5
3414.46	24
3415.25	25
3416.03	25.5
3416.81	21
3417.6	21.5
3418.38	23
3419.16	25
3419.95	22.5
3420.73	22
3421.51	24
3422.29	27
3423.08	24.5
3423.86	23.5
3424.64	23
3425.42	22
3426.2	25
3426.98	21.5
3427.77	25.5
3428.55	28
3429.33	24.5
3430.11	24
3430.89	22
3431.67	22.5
3432.45	24.5
3433.24	23
3434.02	24
3434.8	21.5
3435.58	26
3436.36	21.5
3437.14	24.5
3437.92	24
3438.7	23.5
3439.48	25
3440.26	26.5
3441.04	24.5
3441.82	23
3442.6	21
3443.38	24
3444.16	25
3444.94	28
3445.71	21
3446.49	23
3447.27	22.5
3448.05	25
3448.83	23.5
3449.61	22
3450.39	26
3451.17	23.5
3451.94	22
3452.72	22.5
3453.5	20.5
3454.28	20
3455.06	23.5
3455.83	24
3456.61	26
3457.39	24
3458.17	23
3458.94	24.5
3459.72	22
3460.5	26.5
3461.28	23
3462.05	25
3462.83	23
3463.61	20
3464.38	26
3465.16	24
3465.93	27
3466.71	22
3467.49	26
3468.26	24
3469.04	23
3469.82	23
3470.59	21
3471.37	21.5
3472.14	24.5
3472.92	21.5
3473.69	22
3474.47	23.5
3475.24	27
3476.02	25.5
3476.79	23
3477.57	23
3478.34	25
3479.12	24
3479.89	22.5
3480.67	23
3481.44	27
3482.21	25.5
3482.99	23.5
3483.76	22
3484.54	24.5
3485.31	24.5
3486.08	25.5
3486.86	22.5
3487.63	28
3488.4	23.5
3489.18	31
3489.95	28.5
3490.72	23
3491.5	27
3492.27	24
3493.04	26
3493.81	23
3494.59	27
3495.36	22.5
3496.13	23
3496.9	23.5
3497.67	22.5
3498.45	24.5
3499.22	23
3499.99	25
