#Acq. time (s)=	5
#Accumulations=	5
#Range (cm-¹)=	100...3500
#Windows=	4
#Autofocus=	Off
#AutoExposure=	Off
#Spike filter=	Multiple accum.
#Delay time (s)=	0
#Binning=	1
#Readout mode=	Signal
#DeNoise=	Off
#ICS correction=	Off
#Dark correction=	Off
#Inst. Process=	Off
#Instrument=	LabRAM HR Evol
#Detector=	Syncerity OE
#Objective=	x100_VIS
#Grating=	600 (500nm)
#ND Filter=	25%
#Laser=	633nm_Edge
#Hole=	100.021
#Range=	Visible
#Project=	verificaciones
#Sample=	a1
#Site=	lined
#Title=	bolusa1plain
#Remark=	
#Date=	09.01.2026 15:53
#Acquired=	09.01.2026 15:53:26
100.695	28.5
101.978	31.5
103.262	31
104.545	31.5
105.829	28.5
107.112	26
108.394	30.5
109.676	30.5
110.958	32
112.24	27.5
113.522	30
114.803	31.5
116.084	34
117.365	33
118.646	33.5
119.927	30
121.207	35
122.487	31
123.767	31.5
125.047	31.5
126.326	30
127.606	31.5
128.885	34
130.164	34.5
131.442	35.5
132.721	32.5
133.999	34
135.277	34.5
136.555	35.5
137.831	36
139.109	38
140.386	34
141.663	39
142.94	38.5
144.216	37
145.493	41.5
146.769	39
148.043	40
149.319	39.5
150.595	45
151.87	39.5
153.145	39
154.42	42
155.693	40.5
156.968	45
158.242	41.5
159.516	43
160.79	47.5
162.062	40
163.336	46
164.609	38
165.882	40.5
167.153	38
168.426	39
169.699	42
170.971	39.5
172.241	41
173.513	40
174.785	42.5
176.055	41.5
177.326	40.5
178.597	42
179.866	38.5
181.137	37.5
182.407	43.5
183.676	42
184.946	37
186.216	44
187.484	41.5
188.753	43
190.022	43.5
191.29	43
192.558	45
193.825	43.5
195.094	47
196.36	39.5
197.628	40.5
198.896	38
200.162	36
201.429	40
202.695	39
203.962	36.5
205.227	37.5
206.493	41
207.758	37.5
209.024	35
210.289	36.5
211.554	38
212.818	33.5
214.083	33.5
215.347	34
216.612	35.5
217.875	36.5
219.138	36.5
220.402	34.5
221.665	30
222.928	30.5
224.19	33
225.454	31
226.715	26.5
227.977	34
229.24	33
230.501	28
231.762	33.5
233.024	30.5
234.284	34.5
235.546	28.5
236.806	34.5
238.066	34
239.327	26.5
240.587	35.5
241.846	33.5
243.105	31
244.365	34.5
245.624	32
246.882	29
248.142	31.5
249.4	29.5
250.658	30.5
251.916	33
253.174	30
254.432	28.5
255.689	29.5
256.945	28
258.202	30.5
259.46	30.5
260.716	29
261.972	33
263.228	28
264.483	31
265.74	34
266.996	33
268.251	28
269.505	30.5
270.76	31
272.014	30
273.268	26.5
274.522	28
275.778	25
277.031	30
278.285	31
279.538	27
280.791	25.5
282.043	32.5
283.296	31
284.548	35.5
285.8	27
287.052	27.5
288.304	24
289.556	29
290.807	31.5
292.058	29.5
293.309	33
294.56	31
295.81	29
297.061	28
298.311	25.5
299.561	29.5
300.81	26
302.06	28.5
303.309	26.5
304.558	24.5
305.807	29.5
307.056	28
308.305	27
309.551	31
310.8	30.5
312.047	27.5
313.295	27
314.543	30
315.79	27.5
317.037	27
318.284	29.5
319.529	28
320.776	28
322.022	30
323.268	32
324.514	29
325.758	29
327.004	29
328.249	28.5
329.494	23
330.739	31
331.982	27
333.227	27.5
334.471	29.5
335.715	29
336.958	25.5
338.201	31
339.445	28.5
340.687	31.5
341.93	27.5
343.173	29
344.414	31.5
345.657	28
346.899	28
348.14	33.5
349.381	27
350.623	22
351.863	28.5
353.104	29
354.346	34.5
355.585	31.5
356.826	27.5
358.065	28
359.305	29.5
360.545	27
361.784	28
363.023	29
364.261	25
365.501	29
366.738	30
367.977	30.5
369.216	27.5
370.453	25
371.691	27.5
372.928	28
374.166	28.5
375.402	22
376.64	29
377.876	28
379.111	26
380.348	26.5
381.584	25.5
382.82	31.5
384.055	29.5
385.291	30.5
386.526	32
387.76	27.5
388.996	27.5
390.229	31.5
391.465	28
392.698	27.5
393.931	29
395.166	28.5
396.399	33.5
397.632	24.5
398.866	28.5
400.098	26.5
401.33	26
402.563	30.5
403.795	30
405.027	30.5
406.259	29.5
407.491	26.5
408.721	27.5
409.954	28
411.184	22
412.415	32.5
413.645	28
414.876	28
416.106	30
417.335	27
418.565	28
419.794	27
421.024	24
422.253	28.5
423.482	25
424.71	22
425.938	22
427.168	30.5
428.396	27.5
429.623	28
430.851	28.5
432.078	26.5
433.305	29
434.532	26.5
435.758	28
436.986	30.5
438.212	25
439.438	25.5
440.664	29.5
441.89	27.5
443.115	31.5
444.34	26
445.566	32
446.79	31
448.015	33
449.24	30.5
450.464	32
451.688	25
452.912	30.5
454.135	28.5
455.359	32
456.582	30
457.805	27.5
459.028	26.5
460.251	30.5
461.473	31.5
462.696	34.5
463.918	31
465.14	27.5
466.36	32
467.582	35
468.803	33
470.024	30
471.245	39
472.466	38
473.686	38.5
474.907	37
476.126	37.5
477.346	42
478.565	43
479.785	47
481.004	50.5
482.224	56
483.441	56.5
484.66	60
485.879	65
487.097	58
488.314	67
489.532	68
490.75	68.5
491.967	64.5
493.184	64.5
494.401	51
495.618	61
496.835	54.5
498.05	52
499.267	44.5
500.483	45.5
501.698	46
502.913	40
504.129	37
505.343	39
506.559	40
507.774	39
508.987	35
510.202	35.5
511.415	33
512.63	36.5
513.844	33.5
515.056	37
516.27	35.5
517.482	30.5
518.696	31
519.907	35
521.121	29.5
522.332	29.5
523.545	28.5
524.757	33.5
525.968	28.5
527.18	33
528.39	29.5
529.602	33
530.812	28
532.023	29
533.233	34.5
534.443	29.5
535.653	28.5
536.862	26
538.073	31
539.281	31
540.491	31
541.7	32
542.908	31
544.117	27
545.325	31.5
546.534	27.5
547.741	31.5
548.949	28
550.157	30
551.364	31
552.57	29
553.778	23
554.985	30
556.191	31.5
557.398	27
558.604	27.5
559.809	27
561.014	26.5
562.221	28.5
563.426	34
564.63	30
565.835	27.5
567.041	29
568.245	26.5
569.449	26
570.653	29.5
571.856	30
573.061	29.5
574.264	27.5
575.467	27
576.67	28
577.873	31
579.076	29.5
580.279	27.5
581.481	31.5
582.683	23.5
583.884	29
585.086	30.5
586.287	30
587.488	30.5
588.689	28
589.891	26
591.092	28
592.292	28.5
593.492	28.5
594.692	29
595.892	29
597.092	27.5
598.291	27.5
599.49	27
600.689	30.5
601.888	27
603.087	29.5
604.285	27
605.483	24
606.681	26
607.879	26
609.077	34.5
610.274	32
611.472	28
612.668	30
613.865	30
615.061	27
616.258	23
617.454	28
618.65	25.5
619.846	27.5
621.042	29
622.238	24
623.432	26.5
624.627	32
625.822	28
627.017	28
628.212	23
629.406	25.5
630.599	28
631.793	32.5
632.987	29.5
634.181	29
635.373	28
636.566	26.5
637.76	31
638.953	29
640.144	28
641.337	28
642.529	28
643.721	27
644.912	28.5
646.104	30.5
647.295	27.5
648.485	32
649.677	30.5
650.868	25.5
652.057	27
653.248	27
654.437	29.5
655.628	30
656.818	27.5
658.006	30.5
659.196	31
660.384	28
661.574	28
662.763	28
663.951	30.5
665.14	31.5
666.327	24
667.515	27.5
668.702	31.5
669.891	31.5
671.077	33
672.265	30.5
673.451	33
674.638	32
675.824	30
677.011	33.5
678.197	34.5
679.383	34.5
680.568	35
681.755	34
682.939	34.5
684.124	37
685.309	34
686.494	36
687.679	38
688.863	38
690.046	32.5
691.231	36
692.414	38.5
693.599	39
694.781	31
695.964	36.5
697.148	37.5
698.33	39
699.512	38
700.694	35.5
701.877	40
703.059	40.5
704.24	51.5
705.423	46.5
706.604	50.5
707.784	52
708.965	53
710.147	52
711.327	51
712.507	47
713.687	42
714.867	38.5
716.048	36.5
717.227	31
718.406	28.5
719.585	30.5
720.764	31.5
721.942	27
723.122	28
724.3	25
725.478	26.5
726.656	31
727.834	29
729.011	28.5
730.189	26.5
731.366	28
732.543	26.5
733.719	25.5
734.896	29
736.072	27
737.249	29
738.426	28.5
739.602	28
740.777	29.5
741.953	29
743.128	22
744.303	26
745.477	29
746.651	27
747.826	29
749	31
750.174	31.5
751.348	33
752.522	30
753.696	29
754.869	24.5
756.043	28
757.216	27.5
758.389	27
759.561	28.5
760.732	24
761.905	30
763.077	24
764.249	25
765.421	27.5
766.592	29
767.762	30.5
768.934	26.5
770.105	24.5
771.275	26
772.446	27.5
773.615	26
774.786	26.5
775.956	24
777.126	29.5
778.294	33
779.464	29.5
780.633	31
781.801	31.5
782.97	32
784.139	31
785.306	33
786.475	32
787.643	32
788.81	31
789.978	30
791.146	30.5
792.312	32
793.479	31
794.647	33.5
795.812	28.5
796.979	30
798.144	29
799.311	28
800.477	31.5
801.642	32
802.808	28.5
803.972	27.5
805.138	31
806.302	31
807.467	23
808.631	26.5
809.796	30
810.959	25
812.124	23
813.287	28.5
814.451	31.5
815.614	29.5
816.777	28
817.94	28
819.102	30.5
820.265	28
821.427	29
822.59	30
823.751	28.5
824.912	28
826.074	26.5
827.235	26
828.397	27
829.558	29
830.718	27
831.879	26
833.039	26.5
834.199	26.5
835.359	28
836.519	26
837.679	29
838.838	24
839.998	28.5
841.156	30.5
842.315	29.5
843.473	24.5
844.633	23
845.791	27
846.948	27.5
848.106	26
849.263	24
850.422	26
851.579	30
852.736	27.5
853.892	29.5
855.049	28.5
856.205	30
857.363	32
858.519	26.5
859.674	30.5
860.83	26.5
861.986	32
863.141	32
864.296	26
865.451	29
866.605	29
867.76	27
868.914	27
870.069	29.5
871.224	27.5
872.378	27.5
873.531	30
874.685	32.5
875.838	26.5
876.991	29
878.144	24.5
879.296	30
880.448	24
881.6	31
882.753	26
883.905	21.5
885.057	27
886.208	31
887.36	26
888.511	28
889.662	33
890.813	25.5
891.964	27.5
893.113	30
894.264	28
895.414	29.5
896.564	27.5
897.714	28
898.864	26.5
900.012	26
901.161	29
902.31	25
903.459	34.5
904.607	27
905.756	27
906.904	28.5
908.052	31.5
909.199	25.5
910.347	25
911.495	27.5
912.643	28
913.789	23
914.936	27
916.083	29.5
917.229	26
918.375	27
919.522	28
920.667	26.5
921.813	25
922.959	28.5
924.104	25
925.249	28.5
926.393	30
927.539	25
928.684	29.5
929.827	29.5
930.972	26
932.115	23.5
933.26	25
934.403	26
935.547	24.5
936.689	24
937.833	22
938.975	25
940.119	27
941.26	26.5
942.404	22
943.545	25
944.688	27
945.829	26.5
946.971	24
948.112	25
949.253	26.5
950.394	28.5
951.535	24
952.676	26
953.816	32
954.956	26
956.097	26
957.236	22.5
958.377	28
959.516	28
960.655	28
961.793	27.5
962.933	25.5
964.071	28
965.21	23
966.349	24.5
967.487	24.5
968.624	26.5
969.762	24.5
970.901	27.5
972.038	29
973.175	28
974.311	26
975.449	26.5
976.586	27
977.722	26.5
978.858	26
979.994	31
981.131	26.5
982.267	28.5
983.402	24.5
984.537	24
985.672	23
986.807	26
987.942	25
989.076	20.5
990.211	28
991.346	25
992.48	23.5
993.614	30
994.748	23
995.881	25.5
997.014	27.5
998.148	24.5
999.28	23.5
1000.41	26
1001.55	28
1002.68	22
1003.81	25
1004.94	26
1006.07	29
1007.21	26
1008.34	27.5
1009.47	27.5
1010.6	25
1011.73	23
1012.86	21
1013.99	26.5
1015.12	27.5
1016.25	20.5
1017.38	24
1018.51	25.5
1019.64	24
1020.77	25
1021.9	28.5
1023.03	28
1024.16	22
1025.29	30
1026.42	24
1027.54	23
1028.67	25
1029.8	25
1030.93	23.5
1032.06	22
1033.18	26.5
1034.31	29.5
1035.44	26
1036.56	30
1037.69	28.5
1038.82	24.5
1039.94	25
1041.07	27.5
1042.2	22
1043.32	25
1044.45	25.5
1045.57	25
1046.7	26.5
1047.82	24
1048.95	24
1050.07	26.5
1051.2	24
1052.32	22.5
1053.45	24
1054.57	26.5
1055.69	21.5
1056.82	26
1057.94	24
1059.06	20
1060.19	27.5
1061.31	27.5
1062.43	26.5
1063.55	28
1064.68	25
1065.8	25
1066.92	24.5
1068.04	22.5
1069.16	21
1070.28	28.5
1071.41	29
1072.53	26
1073.65	24
1074.77	21.5
1075.89	28
1077.01	26.5
1078.13	26.5
1079.25	28.5
1080.37	24
1081.49	24
1082.61	22
1083.73	26
1084.85	26.5
1085.96	28
1087.08	26
1088.2	26
1089.32	28
1090.44	24
1091.56	26
1092.67	22
1093.79	24.5
1094.91	23.5
1096.03	27.5
1097.14	31
1098.26	27
1099.38	22
1100.49	25
1101.61	21.5
1102.73	25
1103.84	23.5
1104.96	24.5
1106.07	26.5
1107.19	24.5
1108.3	24
1109.42	23.5
1110.53	27
1111.65	24.5
1112.76	23.5
1113.88	23.5
1114.99	22
1116.1	27
1117.22	23.5
1118.33	26
1119.44	25.5
1120.56	26.5
1121.67	25
1122.78	25
1123.9	25
1125.01	25.5
1126.12	24.5
1127.23	23
1128.34	24
1129.46	27
1130.57	25.5
1131.68	25.5
1132.79	23
1133.9	23
1135.01	21
1136.12	25
1137.23	25.5
1138.34	25
1139.45	26.5
1140.56	25.5
1141.67	24
1142.78	24
1143.89	25
1145	27.5
1146.11	26
1147.22	24
1148.33	25
1149.44	21.5
1150.54	22.5
1151.65	28
1152.76	30
1153.87	21
1154.97	25.5
1156.08	22.5
1157.19	24
1158.3	26.5
1159.4	16.5
1160.51	29
1161.62	25
1162.72	31
1163.83	24.5
1164.93	25
1166.04	24.5
1167.15	29
1168.25	28.5
1169.36	29
1170.46	24
1171.57	21.5
1172.67	24
1173.78	25
1174.88	26.5
1175.98	25
1177.09	23
1178.19	22.5
1179.3	22
1180.4	27
1181.5	23
1182.61	24
1183.71	24.5
1184.81	28
1185.91	25.5
1187.02	24
1188.12	23
1189.22	23.5
1190.32	24.5
1191.42	22.5
1192.53	21
1193.63	26
1194.73	23.991
1195.83	24.449
1196.93	25.908
1198.03	24.5348
1199.13	24.8967
1200.23	30.6466
1201.33	23.3989
1202.43	21.9564
1203.53	18.2713
1204.63	21.1815
1205.73	22.2123
1206.83	23.2482
1207.93	25.1692
1209.02	17.0712
1210.12	23.9363
1211.22	22.0598
1212.32	22.4376
1213.42	25.9492
1214.52	23.948
1215.61	26.1993
1216.71	25.7228
1217.81	25.7885
1218.91	26.0306
1220	22.2145
1221.1	23.6569
1222.2	22.2337
1223.29	24.3154
1224.39	23.3083
1225.49	27.4915
1226.58	27.1469
1227.68	23.6199
1228.77	25.1169
1229.87	27.6599
1230.96	25.8814
1232.06	21.0562
1233.15	23.8277
1234.25	22.8339
1235.34	23.2035
1236.44	25.6688
1237.53	23.7336
1238.63	23.9026
1239.72	22.1808
1240.81	21.9054
1241.91	24.4181
1243	20.242
1244.09	26.2676
1245.19	21.6743
1246.28	25.1945
1247.37	25.9395
1248.46	22.4874
1249.56	23.2068
1250.65	23.5177
1251.74	22.4804
1252.83	26.8806
1253.92	25.4351
1255.01	23.9401
1256.11	25.4483
1257.2	23.7234
1258.29	27.7544
1259.38	25.7954
1260.47	25.5579
1261.56	28.3548
1262.65	26.8863
1263.74	25.7555
1264.83	25.3618
1265.92	27.6867
1267.01	27.2335
1268.1	21.6749
1269.19	26.2817
1270.27	26.1383
1271.36	23.3978
1272.45	23.5315
1273.54	22.9442
1274.63	22.5619
1275.72	23.154
1276.8	19.5883
1277.89	23.7118
1278.98	24.0249
1280.07	26.3417
1281.15	25.2081
1282.24	21.4765
1283.33	25.0298
1284.41	24.2351
1285.5	24.0692
1286.59	22.8956
1287.67	20.3765
1288.76	26.2219
1289.84	23.1614
1290.93	22.6776
1292.01	23.6095
1293.1	23.1655
1294.19	21.7834
1295.27	23.9232
1296.35	24.4616
1297.44	25.1026
1298.52	25.4591
1299.61	23.6621
1300.69	24.7445
1301.78	27.2825
1302.86	26.1399
1303.94	25.8389
1305.03	23.071
1306.11	26.7736
1306.4	28.5
1307.49	23
1308.57	27.5
1309.66	24
1310.75	26.5
1311.84	23
1312.92	24.5
1314.01	26.5
1315.1	24.5
1316.19	22
1317.27	25
1318.36	24
1319.45	26
1320.53	20
1321.62	23.5
1322.7	25.5
1323.79	26
1324.88	26.5
1325.96	26
1327.05	20.5
1328.13	20
1329.21	22.5
1330.3	25
1331.38	26
1332.47	26
1333.55	26
1334.64	26.5
1335.72	25
1336.8	24.5
1337.89	23
1338.97	26
1340.05	18.5
1341.14	24.5
1342.22	26
1343.3	22.5
1344.39	28
1345.47	22
1346.55	24.5
1347.63	24.5
1348.71	24
1349.79	21.5
1350.88	28.5
1351.96	22
1353.04	23
1354.12	24
1355.2	25.5
1356.28	21.5
1357.36	26.5
1358.44	22
1359.52	24.5
1360.6	23
1361.68	22
1362.76	21.5
1363.84	25.5
1364.92	27
1366	28.5
1367.08	22
1368.16	21
1369.23	24
1370.31	28
1371.39	23
1372.47	25.5
1373.55	21.5
1374.62	26
1375.7	27.5
1376.78	24.5
1377.85	28.5
1378.93	26
1380.01	25
1381.09	28.5
1382.16	24.5
1383.24	24
1384.31	22
1385.39	22
1386.47	24.5
1387.54	23.5
1388.62	21
1389.69	26.5
1390.77	28
1391.84	27.5
1392.92	25
1393.99	30
1395.06	27
1396.14	27
1397.21	27
1398.29	26.5
1399.36	26
1400.43	29
1401.51	28
1402.58	32
1403.65	29
1404.73	25
1405.8	30.5
1406.87	30.5
1407.94	29
1409.02	33.5
1410.09	32.5
1411.16	26
1412.23	32
1413.3	31
1414.37	39.5
1415.45	33.5
1416.52	30.5
1417.59	31
1418.66	26.5
1419.73	28
1420.8	29
1421.87	28
1422.94	26.5
1424.01	27.5
1425.08	25
1426.15	27.5
1427.22	24
1428.29	26
1429.35	29.5
1430.42	26
1431.49	24.5
1432.56	28.5
1433.63	24.5
1434.7	22.5
1435.77	24
1436.83	24
1437.9	25.5
1438.97	23.5
1440.04	26.5
1441.1	30
1442.17	25
1443.24	25
1444.3	24
1445.37	31
1446.44	22
1447.5	27
1448.57	24.5
1449.63	20
1450.7	23.5
1451.76	26
1452.83	27.5
1453.89	31
1454.96	26.5
1456.02	25.5
1457.09	23.5
1458.15	24.5
1459.22	25
1460.28	22.5
1461.34	24.5
1462.41	23
1463.47	26.5
1464.54	25
1465.6	21.5
1466.66	27.5
1467.72	26.5
1468.79	25
1469.85	24
1470.91	30
1471.97	30
1473.04	30.5
1474.1	23
1475.16	22.5
1476.22	26.5
1477.28	24
1478.34	23.5
1479.4	25
1480.47	22
1481.53	27.5
1482.59	25
1483.65	24
1484.71	23
1485.77	24
1486.83	27.5
1487.89	28.5
1488.95	28
1490.01	25.5
1491.07	23.5
1492.12	24.5
1493.18	27
1494.24	26
1495.3	27
1496.36	22.5
1497.42	28
1498.47	24
1499.53	24.5
1500.59	26
1501.65	25
1502.7	26
1503.76	22.5
1504.82	26
1505.88	22
1506.93	26
1507.99	20
1509.05	27
1510.1	26.5
1511.16	26
1512.21	27
1513.27	24
1514.32	22.5
1515.38	24
1516.43	23.5
1517.49	28.5
1518.54	25
1519.6	26
1520.65	27
1521.71	24.5
1522.76	25
1523.82	26
1524.87	24.5
1525.92	27.5
1526.98	23
1528.03	23
1529.08	23
1530.14	23.5
1531.19	24
1532.24	27.5
1533.3	26
1534.35	24.5
1535.4	25
1536.45	26
1537.5	27.5
1538.56	25
1539.61	25
1540.66	26.5
1541.71	28.5
1542.76	28
1543.81	22.5
1544.86	24.5
1545.91	28
1546.96	24
1548.01	25
1549.06	22.5
1550.11	28
1551.16	24.5
1552.21	26.5
1553.26	24
1554.31	25
1555.36	24.5
1556.41	25.5
1557.46	25.5
1558.51	25.5
1559.55	27
1560.6	26.5
1561.65	27.5
1562.7	24
1563.75	26
1564.79	23
1565.84	24.5
1566.89	27.5
1567.94	28
1568.98	26.5
1570.03	22
1571.07	26.5
1572.12	26.5
1573.17	27.5
1574.21	26
1575.26	22.5
1576.31	27.5
1577.35	25
1578.4	23.5
1579.44	26.5
1580.49	26.5
1581.53	27.5
1582.58	20.5
1583.62	24
1584.67	26
1585.71	27
1586.75	23.5
1587.8	23.5
1588.84	24
1589.89	25.5
1590.93	25.5
1591.97	23.5
1593.02	22
1594.06	25.5
1595.1	26
1596.14	22.5
1597.19	24
1598.23	26
1599.27	26.5
1600.31	25
1601.35	26.5
1602.4	22
1603.44	26
1604.48	23
1605.52	25
1606.56	21.5
1607.6	28.5
1608.64	26
1609.68	23
1610.72	24.5
1611.76	27
1612.8	27.5
1613.84	24.5
1614.88	27
1615.92	26
1616.96	24
1618	26.5
1619.04	23
1620.08	27
1621.12	22
1622.16	25
1623.19	24.5
1624.23	24
1625.27	27.5
1626.31	25.5
1627.35	27.5
1628.38	23
1629.42	22
1630.46	22
1631.5	26
1632.53	21.5
1633.57	27
1634.61	26
1635.64	28.5
1636.68	24.5
1637.71	24
1638.75	28
1639.79	25.5
1640.82	26
1641.86	23.5
1642.89	23
1643.93	24
1644.96	23
1646	24
1647.03	28.5
1648.07	26.5
1649.1	28.5
1650.14	21
1651.17	22.5
1652.2	25
1653.24	25.5
1654.27	25
1655.3	23
1656.34	22
1657.37	27.5
1658.4	23
1659.44	25.5
1660.47	24
1661.5	23.5
1662.53	26.5
1663.57	25.5
1664.6	24
1665.63	27.5
1666.66	24
1667.69	24
1668.72	23
1669.75	24.5
1670.79	26.5
1671.82	22
1672.85	23
1673.88	27.5
1674.91	24
1675.94	26.5
1676.97	24
1678	27.5
1679.03	26.5
1680.06	27.5
1681.09	24
1682.11	25.5
1683.14	26.5
1684.17	26.5
1685.2	28
1686.23	24.5
1687.26	21.5
1688.29	24.5
1689.32	20
1690.34	23
1691.37	26
1692.4	22.5
1693.43	23.5
1694.45	24.5
1695.48	26
1696.51	25
1697.53	26.5
1698.56	23.5
1699.59	27
1700.61	24.5
1701.64	26.5
1702.66	28.5
1703.69	24
1704.72	24.5
1705.74	27
1706.77	25
1707.79	27
1708.82	27
1709.84	25.5
1710.87	24.5
1711.89	27.5
1712.92	21
1713.94	20
1714.96	26.5
1715.99	23
1717.01	27
1718.04	19
1719.06	25
1720.08	24
1721.11	28
1722.13	26
1723.15	24
1724.17	27.5
1725.2	27
1726.22	27
1727.24	29.5
1728.26	26
1729.28	23.5
1730.31	23
1731.33	26.5
1732.35	25
1733.37	26
1734.39	25
1735.41	20
1736.43	23
1737.45	22
1738.47	24
1739.49	26.5
1740.51	22.5
1741.53	22
1742.55	25
1743.57	25
1744.59	28.5
1745.61	20.5
1746.63	24
1747.65	28
1748.67	24
1749.69	25
1750.71	25.5
1751.72	27.5
1752.74	27.5
1753.76	28
1754.78	26
1755.8	24
1756.81	21
1757.83	24.5
1758.85	22
1759.86	25
1760.88	23.5
1761.9	27.5
1762.91	25.5
1763.93	26
1764.95	26
1765.96	28
1766.98	26
1768	22
1769.01	29.5
1770.03	24.5
1771.04	27
1772.06	26
1773.07	25.5
1774.09	24
1775.1	24.5
1776.12	20
1777.13	26.5
1778.14	23.5
1779.16	23.5
1780.17	28
1781.19	24
1782.2	27.5
1783.21	23
1784.23	23.5
1785.24	22
1786.25	24
1787.27	23.5
1788.28	21
1789.29	25.5
1790.3	26.5
1791.32	23
1792.33	25
1793.34	25
1794.35	21
1795.36	24.5
1796.37	27.5
1797.38	24
1798.4	22.5
1799.41	23.5
1800.42	25
1801.43	23
1802.44	28
1803.45	22.5
1804.46	25.5
1805.47	24
1806.48	28
1807.49	22
1808.5	26.5
1809.51	25
1810.52	22
1811.53	31.5
1812.53	23
1813.54	26.5
1814.55	20
1815.56	24.5
1816.57	25
1817.58	23.5
1818.58	23
1819.59	24.5
1820.6	21.5
1821.61	26.5
1822.61	27
1823.62	24
1824.63	23
1825.64	24.5
1826.64	23
1827.65	23.5
1828.66	22.5
1829.66	23.5
1830.67	28.5
1831.67	24
1832.68	22.5
1833.68	23
1834.69	24.5
1835.7	24.5
1836.7	26
1837.71	21
1838.71	29
1839.71	24.5
1840.72	25
1841.72	27
1842.73	24
1843.73	24
1844.74	21.5
1845.74	23.5
1846.74	25
1847.75	22.5
1848.75	21
1849.75	24.5
1850.76	28
1851.76	26
1852.76	27.5
1853.76	23.5
1854.77	26.5
1855.77	26
1856.77	26.5
1857.77	18.5
1858.77	25
1859.78	25.5
1860.78	21.5
1861.78	26.5
1862.78	20.5
1863.78	24.5
1864.78	29
1865.78	25
1866.78	23
1867.78	23.5
1868.78	24
1869.78	26
1870.78	27
1871.78	23
1872.78	25.5
1873.78	28.5
1874.78	26.5
1875.78	23.5
1876.78	22.5
1877.78	24
1878.78	20.5
1879.77	25
1880.77	19.5
1881.77	26
1882.77	22
1883.77	27
1884.76	25
1885.76	27.5
1886.76	26
1887.76	23
1888.75	23
1889.75	27.5
1890.75	26
1891.74	21
1892.74	24
1893.74	20
1894.73	26
1895.73	26.5
1896.72	22.5
1897.72	25.5
1898.72	22.5
1899.71	21
1900.71	26
1901.7	24
1902.7	25
1903.69	23
1904.69	22
1905.68	21
1906.67	27
1907.67	23.5
1908.66	25.5
1909.66	23
1910.65	24
1911.64	24.5
1912.64	20.5
1913.63	20.5
1914.62	24
1915.62	22
1916.61	28.5
1917.6	22
1918.59	22
1919.59	25
1920.58	25
1921.57	26
1922.56	25.5
1923.55	23
1924.55	23.5
1925.54	24
1926.53	28.5
1927.52	25
1928.51	26
1929.5	24
1930.49	24
1931.48	22.5
1932.47	24.5
1933.46	25
1934.45	24.5
1935.44	21
1936.43	28.5
1937.42	23
1938.41	22.5
1939.4	22
1940.39	21
1941.38	23.5
1942.37	25
1943.36	26
1944.34	22.5
1945.33	22.5
1946.32	22
1947.31	26
1948.3	24
1949.28	22
1950.27	29
1951.26	23
1952.25	22
1953.23	25
1954.22	20.5
1955.21	27.5
1956.2	25.5
1957.18	24
1958.17	27
1959.15	26.5
1960.14	23
1961.13	24.5
1962.11	21.5
1963.1	24
1964.08	20.5
1965.07	26.5
1966.05	20
1967.04	23.5
1968.02	24
1969.01	23
1969.99	23.5
1970.98	24.5
1971.96	24
1972.94	26.5
1973.93	25.5
1974.91	21.5
1975.9	22
1976.88	22
1977.86	24.5
1978.85	24.5
1979.83	21
1980.81	27
1981.8	27
1982.78	22
1983.76	23
1984.74	25.5
1985.72	29
1986.71	25
1987.69	26
1988.67	24.5
1989.65	25.5
1990.63	24.5
1991.61	23.5
1992.6	25.5
1993.58	20
1994.56	23
1995.54	26.5
1996.52	24
1997.5	25.5
1998.48	24.5
1999.46	22
2000.44	22.5
2001.42	25.5
2002.4	24.5
2003.38	23
2004.36	25
2005.34	24.5
2006.32	26
2007.29	20
2008.27	23
2009.25	20.5
2010.23	28
2011.21	24
2012.19	21
2013.16	26
2014.14	24
2015.12	21.5
2016.1	25
2017.07	25
2018.05	26
2019.03	25.5
2020	26.5
2020.98	21
2021.96	25
2022.93	23
2023.91	25
2024.89	23.5
2025.86	21.5
2026.84	25
2027.81	27
2028.79	18
2029.77	24.5
2030.74	23
2031.72	24.5
2032.69	22
2033.67	27
2034.64	24
2035.61	21.5
2036.59	22.5
2037.56	24
2038.54	22
2039.51	26.5
2040.48	26
2041.46	24
2042.43	22.5
2043.41	22
2044.38	28
2045.35	22.5
2046.32	21.5
2047.3	26
2048.27	20
2049.24	24
2050.21	26
2051.19	22
2052.16	22.5
2053.13	21.5
2054.1	23.5
2055.07	22
2056.04	22
2057.02	22.5
2057.99	23
2058.96	22
2059.93	23.5
2060.9	23.5
2061.87	24
2062.84	25
2063.81	24
2064.78	21
2065.75	25
2066.72	22
2067.69	26
2068.66	21.5
2069.63	26.5
2070.6	22
2071.57	24.5
2072.53	21.5
2073.5	22.5
2074.47	20.5
2075.44	26.5
2076.41	19
2077.38	25
2078.34	20.5
2079.31	24
2080.28	22
2081.25	22.5
2082.21	23
2083.18	23.5
2084.15	24
2085.12	23.5
2086.08	23
2087.05	22.5
2088.02	25
2088.98	25.5
2089.95	23.5
2090.91	26
2091.88	22
2092.85	21
2093.81	24
2094.78	26
2095.74	27
2096.71	20
2097.67	23.5
2098.64	23.5
2099.6	24
2100.57	26
2101.53	23
2102.5	25
2103.46	23.5
2104.42	21.5
2105.39	23.5
2106.35	23.5
2107.31	20
2108.28	24.5
2109.24	25.5
2110.2	23
2111.17	24
2112.13	21
2113.09	24
2114.06	23
2115.02	24
2115.98	22
2116.94	23
2117.9	21
2118.86	27.5
2119.83	24
2120.79	23
2121.75	26
2122.71	21.5
2123.67	21.5
2124.63	19.5
2125.59	24.5
2126.55	22
2127.51	21.5
2128.48	26.5
2129.43	23.5
2130.4	26
2131.35	23
2132.31	20.5
2133.27	23.5
2134.23	21.5
2135.19	23
2136.15	21
2137.11	24
2138.07	23
2139.03	24
2139.99	21.5
2140.95	22.5
2141.9	23.5
2142.86	23.491
2143.82	21.9751
2144.78	23.5385
2145.74	22.1383
2146.69	22.1064
2147.65	21.5949
2148.61	22.1004
2149.56	26.1308
2150.52	23.109
2151.48	22.7009
2152.44	19.6794
2153.39	26.5399
2154.35	20.5607
2155.3	23.638
2156.26	22.0328
2157.22	25.0554
2158.17	24.4305
2159.13	23.3966
2160.08	22.9292
2161.04	22.0521
2161.99	19.1804
2162.95	24.6032
2163.9	21.521
2164.86	22.9021
2165.81	21.4592
2166.77	21.2214
2167.72	22.906
2168.68	25.8316
2169.63	23.3307
2170.58	25.7022
2171.54	20.6421
2172.49	20.6117
2173.44	23.9863
2174.4	22.9723
2175.35	23.7336
2176.3	19.4901
2177.26	23.0493
2178.21	19.492
2179.16	19.8899
2180.11	22.5147
2181.07	23.0684
2182.02	23.3992
2182.97	23.162
2183.92	22.4624
2184.88	22.9199
2185.83	22.1419
2186.78	22.8709
2187.73	22.8932
2188.68	22.467
2189.63	23.4619
2190.58	23.7833
2191.53	22.545
2192.48	23.6847
2193.43	22.289
2194.38	24.5695
2195.33	23.6971
2196.28	22.3596
2197.23	22.5885
2198.18	20.1615
2199.13	20.734
2200.08	21.8807
2201.03	24.3976
2201.98	22.4912
2202.93	20.7721
2203.88	22.8404
2204.83	25.4481
2205.78	21.2281
2206.72	20.4388
2207.67	23.3598
2208.62	21.0997
2209.57	22.5865
2210.52	21.5825
2211.46	23.0247
2212.41	21.5973
2213.36	24.9261
2214.31	24.5291
2215.25	21.3063
2216.2	25.7613
2217.15	23.4509
2218.09	22.1524
2219.04	23.1819
2219.99	20.9712
2220.93	20.4411
2221.88	22.4715
2222.83	19.6816
2223.77	21.9828
2224.72	22.3771
2225.66	21.7103
2226.61	24.7886
2227.55	24.7791
2228.5	22.1038
2229.44	19.0988
2230.39	21.1284
2231.33	20.0956
2232.28	21.8415
2233.22	20.2137
2234.17	19.784
2235.11	23.9206
2236.05	24.189
2237	21.9406
2237.94	20.0768
2238.88	22.5901
2239.83	23.8867
2240.04	24
2240.98	22
2241.93	23
2242.88	23
2243.83	21.5
2244.78	20
2245.72	23
2246.67	21.5
2247.62	23
2248.56	24
2249.51	20
2250.46	24
2251.4	23
2252.35	20.5
2253.3	25
2254.24	21
2255.19	20.5
2256.14	20
2257.08	22.5
2258.03	20.5
2258.97	22
2259.92	21
2260.86	24
2261.81	20.5
2262.75	23
2263.7	22
2264.64	25
2265.59	22
2266.53	24.5
2267.48	19.5
2268.42	24.5
2269.36	22.5
2270.31	24
2271.25	25.5
2272.19	19.5
2273.14	23.5
2274.08	26
2275.02	23
2275.97	21
2276.91	20.5
2277.85	23
2278.8	25
2279.74	22.5
2280.68	25.5
2281.62	26
2282.56	23
2283.51	21
2284.45	21.5
2285.39	20
2286.33	22.5
2287.27	25
2288.21	20.5
2289.15	25.5
2290.09	23.5
2291.04	24
2291.98	23
2292.92	24
2293.86	23.5
2294.8	22.5
2295.74	23
2296.68	21.5
2297.62	21
2298.56	24
2299.5	23.5
2300.44	23
2301.37	23
2302.31	25.5
2303.25	24.5
2304.19	21.5
2305.13	22
2306.07	21
2307.01	25.5
2307.94	23.5
2308.88	23
2309.82	20.5
2310.76	23
2311.7	22
2312.63	24
2313.57	22.5
2314.51	21
2315.44	21
2316.38	26
2317.32	24
2318.26	23
2319.19	24.5
2320.13	25.5
2321.06	22.5
2322	22.5
2322.94	19.5
2323.87	23.5
2324.81	18
2325.74	23
2326.68	21
2327.61	26.5
2328.55	21
2329.48	20.5
2330.42	24.5
2331.35	20.5
2332.29	26.5
2333.22	22
2334.16	26.5
2335.09	21
2336.02	22.5
2336.96	22
2337.89	23.5
2338.83	21
2339.76	23.5
2340.69	23
2341.63	26
2342.56	23
2343.49	25.5
2344.42	20
2345.36	22.5
2346.29	23
2347.22	23
2348.15	27
2349.09	23.5
2350.02	24
2350.95	29
2351.88	22.5
2352.81	24
2353.74	24
2354.68	16.5
2355.61	23
2356.54	23.5
2357.47	24
2358.4	22
2359.33	22.5
2360.26	26
2361.19	22
2362.12	20.5
2363.05	26.5
2363.98	20
2364.91	24
2365.84	23
2366.77	22
2367.7	21
2368.63	25
2369.56	21
2370.49	24.5
2371.41	23
2372.34	23.5
2373.27	24
2374.2	21
2375.13	22
2376.06	23.5
2376.98	25.5
2377.91	24
2378.84	19
2379.77	25.5
2380.69	23.5
2381.62	21
2382.55	22
2383.47	24.5
2384.4	23.5
2385.33	25
2386.25	25
2387.18	23.5
2388.11	24.5
2389.03	26
2389.96	25.5
2390.89	18.5
2391.81	24.5
2392.74	23
2393.66	25.5
2394.59	23.5
2395.51	23
2396.44	24
2397.36	22.5
2398.29	21
2399.21	24.5
2400.14	24
2401.06	23
2401.99	24
2402.91	25
2403.83	22.5
2404.76	26.5
2405.68	26
2406.6	20.5
2407.53	26
2408.45	24
2409.37	22
2410.3	22
2411.22	21.5
2412.14	25
2413.06	22
2413.99	21
2414.91	23
2415.83	22
2416.75	21.5
2417.68	23
2418.6	25.5
2419.52	22
2420.44	22
2421.36	21.5
2422.28	25
2423.2	20
2424.12	22.5
2425.05	23
2425.97	22.5
2426.89	22
2427.81	22.5
2428.73	25.5
2429.65	23.5
2430.57	25
2431.49	24.5
2432.41	22
2433.33	21
2434.25	25.5
2435.17	23.5
2436.08	24.5
2437	26
2437.92	21.5
2438.84	24
2439.76	25.5
2440.68	27
2441.6	21.5
2442.51	25
2443.43	23.5
2444.35	22.5
2445.27	24
2446.19	25
2447.1	25
2448.02	27
2448.94	21
2449.85	24
2450.77	22
2451.69	26
2452.61	23.5
2453.52	26.5
2454.44	23
2455.35	21
2456.27	27
2457.19	25
2458.1	23
2459.02	24.5
2459.94	27
2460.85	21
2461.77	23
2462.68	26
2463.6	24.5
2464.51	23
2465.43	23.5
2466.34	22
2467.25	24
2468.17	27
2469.08	24.5
2470	26.5
2470.91	21
2471.83	24
2472.74	26
2473.65	25.5
2474.57	25
2475.48	24
2476.39	26.5
2477.31	19
2478.22	20.5
2479.13	27.5
2480.04	22
2480.96	22
2481.87	25.5
2482.78	24.5
2483.69	21
2484.6	24
2485.52	24
2486.43	23.5
2487.34	24.5
2488.25	26.5
2489.16	22.5
2490.07	24
2490.99	24
2491.9	27
2492.81	23.5
2493.72	20.5
2494.63	24
2495.54	21
2496.45	25
2497.36	24.5
2498.27	24
2499.18	26.5
2500.09	25.5
2501	26.5
2501.91	26
2502.82	25.5
2503.73	23.5
2504.63	24
2505.54	26.5
2506.45	24
2507.36	24.5
2508.27	24.5
2509.18	27
2510.09	28
2510.99	24
2511.9	29
2512.81	26
2513.72	23.5
2514.62	26
2515.53	22
2516.44	28
2517.35	22
2518.25	23.5
2519.16	23.5
2520.07	21
2520.97	25
2521.88	26
2522.79	25
2523.69	20.5
2524.6	23
2525.51	28
2526.41	28.5
2527.32	24.5
2528.22	21
2529.13	24
2530.03	24
2530.94	27
2531.84	27.5
2532.75	28
2533.65	22
2534.56	23.5
2535.46	26.5
2536.37	27
2537.27	26
2538.17	23.5
2539.08	24
2539.98	23.5
2540.89	28.5
2541.79	25
2542.69	23.5
2543.6	23.5
2544.5	23.5
2545.4	26
2546.31	23.5
2547.21	23.5
2548.11	23.5
2549.01	27.5
2549.92	26
2550.82	23
2551.72	22
2552.62	25
2553.52	22.5
2554.42	26
2555.33	26
2556.23	25
2557.13	22.5
2558.03	27.5
2558.93	23
2559.83	23.5
2560.73	23.5
2561.63	24.5
2562.53	24
2563.43	26.5
2564.33	24
2565.24	25.5
2566.13	28.5
2567.04	24
2567.93	27
2568.83	23
2569.73	21.5
2570.63	22.5
2571.53	25
2572.43	24.5
2573.33	27.5
2574.23	26.5
2575.13	26
2576.03	23.5
2576.92	22.5
2577.82	26.5
2578.72	23.5
2579.62	17.5
2580.52	24
2581.41	23.5
2582.31	24.5
2583.21	23.5
2584.11	22
2585	22.5
2585.9	24.5
2586.8	22.5
2587.69	22
2588.59	24.5
2589.49	25.5
2590.38	24.5
2591.28	27.5
2592.18	27
2593.07	26.5
2593.97	24
2594.86	23
2595.76	22
2596.66	25
2597.55	21.5
2598.45	24
2599.34	26
2600.24	25
2601.13	19.5
2602.03	23.5
2602.92	24
2603.81	22.5
2604.71	23.5
2605.6	22
2606.5	26
2607.39	24.5
2608.28	23
2609.18	25
2610.07	25.5
2610.97	23.5
2611.86	24.5
2612.75	28
2613.64	29.5
2614.54	25
2615.43	22
2616.32	21.5
2617.22	25
2618.11	22
2619	25
2619.89	21
2620.78	26
2621.68	20.5
2622.57	26.5
2623.46	22
2624.35	25.5
2625.24	24.5
2626.13	24.5
2627.02	24
2627.91	24.5
2628.81	22
2629.7	24
2630.59	23
2631.48	24.5
2632.37	22
2633.26	23.5
2634.15	26
2635.04	22
2635.93	21
2636.82	30
2637.71	21.5
2638.59	25
2639.48	23.5
2640.37	19.5
2641.26	23.5
2642.15	27
2643.04	25
2643.93	27
2644.82	22.5
2645.71	22.5
2646.59	24
2647.48	26
2648.37	23
2649.26	27
2650.15	23.5
2651.03	24
2651.92	23
2652.81	24
2653.69	20
2654.58	25
2655.47	23
2656.35	21.5
2657.24	25.5
2658.13	26
2659.01	23.5
2659.9	19
2660.79	23.5
2661.67	23.5
2662.56	24.5
2663.44	22
2664.33	22.5
2665.22	28
2666.1	21
2666.99	25.5
2667.87	24
2668.76	24.5
2669.64	21.5
2670.52	26
2671.41	23.5
2672.29	23.5
2673.18	26
2674.06	23
2674.95	25
2675.83	23.5
2676.71	21.5
2677.6	23.5
2678.48	26
2679.36	25
2680.25	23.5
2681.13	23
2682.01	29
2682.9	27.5
2683.78	21.5
2684.66	26
2685.55	23
2686.43	23.5
2687.31	25
2688.19	23.5
2689.07	25
2689.96	25
2690.84	24.5
2691.72	24.5
2692.6	19
2693.48	27
2694.36	24.5
2695.24	27
2696.12	24.5
2697	20
2697.89	26
2698.77	23
2699.65	24.5
2700.53	26
2701.41	26
2702.29	24
2703.17	23
2704.05	29
2704.93	27
2705.81	28.5
2706.69	25
2707.57	25
2708.44	23.5
2709.32	22
2710.2	24.5
2711.08	23.5
2711.96	23
2712.84	24.5
2713.72	23
2714.59	24.5
2715.47	26.5
2716.35	25
2717.23	19
2718.11	24
2718.98	23
2719.86	23.5
2720.74	26.5
2721.62	25.5
2722.49	26.5
2723.37	25
2724.25	20
2725.12	26.5
2726	23
2726.88	26
2727.75	26
2728.63	24.5
2729.51	27
2730.38	24.5
2731.26	22
2732.13	21.5
2733.01	26.5
2733.88	23
2734.76	25
2735.63	24.5
2736.51	26.5
2737.38	27
2738.26	23
2739.13	23
2740.01	27
2740.88	23.5
2741.76	23.5
2742.63	25
2743.5	25
2744.38	27
2745.25	18.5
2746.13	26
2747	25
2747.87	22
2748.75	25.5
2749.62	23.5
2750.49	21.5
2751.36	20.5
2752.24	24.5
2753.11	22.5
2753.98	22.5
2754.86	27.5
2755.73	23.5
2756.6	24.5
2757.47	22
2758.34	25.5
2759.22	26.5
2760.09	26.5
2760.96	26.5
2761.83	25.5
2762.7	20
2763.57	26.5
2764.44	27
2765.31	28
2766.18	26
2767.06	23
2767.93	22.5
2768.8	21.5
2769.67	25
2770.54	25.5
2771.41	25.5
2772.28	26.5
2773.15	22.5
2774.02	25
2774.89	23
2775.75	25.5
2776.62	29
2777.49	25
2778.36	23
2779.23	25
2780.1	24
2780.97	27
2781.84	27
2782.71	26
2783.57	28.5
2784.44	22
2785.31	24
2786.18	23.5
2787.04	26
2787.91	29
2788.78	25
2789.65	26.5
2790.51	25.5
2791.38	23.5
2792.25	24.5
2793.12	21.5
2793.98	28.5
2794.85	26.5
2795.72	27
2796.58	23
2797.45	27.5
2798.31	26
2799.18	25
2800.05	22.5
2800.91	24.5
2801.78	26.5
2802.64	29
2803.51	25
2804.37	23.5
2805.24	29
2806.1	23
2806.97	20
2807.83	24.5
2808.7	26.5
2809.56	29
2810.43	24
2811.29	26
2812.15	25.5
2813.02	27
2813.88	26
2814.75	29
2815.61	27.5
2816.47	24
2817.34	26.5
2818.2	25.5
2819.06	29.5
2819.92	26.5
2820.79	25
2821.65	22
2822.51	23.5
2823.37	26.5
2824.24	24
2825.1	25
2825.96	22.5
2826.82	27.5
2827.69	28
2828.55	22.5
2829.41	29
2830.27	25.5
2831.13	26
2831.99	27
2832.85	27
2833.71	25.5
2834.58	29
2835.44	23
2836.3	26.5
2837.16	24
2838.02	26
2838.88	26
2839.74	23
2840.6	25
2841.46	27
2842.32	25.5
2843.18	28
2844.04	27.5
2844.9	28.5
2845.75	25
2846.61	26
2847.47	23
2848.33	28.5
2849.19	27
2850.05	25.5
2850.91	29
2851.77	27.5
2852.62	27.5
2853.48	26.5
2854.34	26.5
2855.2	23
2856.06	26
2856.91	26.5
2857.77	27
2858.63	25.5
2859.48	24
2860.34	26.5
2861.2	25
2862.06	27.5
2862.91	24
2863.77	21.5
2864.63	28
2865.48	23
2866.34	25
2867.19	29
2868.05	29.5
2868.91	30
2869.76	32
2870.62	27
2871.47	31
2872.33	27
2873.18	25
2874.04	30
2874.89	29
2875.75	31
2876.6	32
2877.46	27
2878.31	30
2879.17	32
2880.02	33
2880.88	33
2881.73	30.5
2882.58	30.5
2883.44	33.5
2884.29	36.5
2885.14	31.5
2886	33.5
2886.85	33
2887.7	34.5
2888.56	38
2889.41	41
2890.26	41.5
2891.12	43.5
2891.97	41
2892.82	42.5
2893.67	43
2894.52	50
2895.38	44
2896.23	51
2897.08	53.5
2897.93	53
2898.78	59
2899.64	54
2900.49	66
2901.34	63.5
2902.19	69.5
2903.04	71
2903.89	75.5
2904.74	76
2905.59	72
2906.44	73.5
2907.29	73.5
2908.14	68.5
2908.99	74.5
2909.84	71
2910.69	67
2911.54	57.5
2912.39	57.5
2913.24	56.5
2914.09	50
2914.94	49.5
2915.79	52
2916.64	46
2917.49	40.5
2918.34	38.5
2919.18	39
2920.03	37.5
2920.88	38
2921.73	37.5
2922.58	32
2923.42	31
2924.27	38
2925.12	36.5
2925.97	34
2926.82	28.5
2927.66	30.5
2928.51	31
2929.36	33
2930.2	32.5
2931.05	31.5
2931.9	26
2932.74	22
2933.59	29.5
2934.44	27.5
2935.28	27
2936.13	28.5
2936.98	24.5
2937.82	30.5
2938.67	24
2939.51	30
2940.36	28.5
2941.2	30
2942.05	30.5
2942.9	32.5
2943.74	30
2944.58	26
2945.43	30
2946.27	29.5
2947.12	24
2947.96	33
2948.81	32.5
2949.65	31
2950.5	28.5
2951.34	32
2952.18	29
2953.03	31.5
2953.87	32
2954.71	33
2955.56	34.5
2956.4	34.5
2957.24	37
2958.09	35
2958.93	38.5
2959.77	35
2960.62	42
2961.46	40
2962.3	41
2963.14	43.5
2963.98	44
2964.83	52
2965.67	47
2966.51	47
2967.35	44.5
2968.19	40.5
2969.04	42
2969.88	39
2970.72	39
2971.56	36.5194
2972.4	37.003
2973.24	37.5254
2974.08	34.1699
2974.92	32.9089
2975.76	34.5068
2976.6	33.2145
2977.44	32.5313
2978.28	31.6752
2979.12	24.6736
2979.96	31.2852
2980.8	25.2185
2981.64	31.4517
2982.48	33.1691
2983.32	30.4511
2984.16	28.4061
2985	25.0213
2985.84	29.5123
2986.68	28.9568
2987.52	28.1706
2988.35	25.2701
2989.19	26.8024
2990.03	24.5317
2990.87	27.5644
2991.71	23.595
2992.55	26.7738
2993.38	22.8921
2994.22	25.5146
2995.06	25.9876
2995.9	27.0018
2996.73	23.8982
2997.57	24.9202
2998.41	24.5769
2999.25	21.6626
3000.08	25.4213
3000.92	23.9672
3001.76	23.9677
3002.59	25.4333
3003.43	26.0087
3004.27	25.6165
3005.1	24.5148
3005.94	24.1825
3006.78	24.1619
3007.61	23.4342
3008.45	23.3714
3009.28	23.7972
3010.12	24.0133
3010.95	22.801
3011.79	24.4062
3012.62	25.93
3013.46	22.8217
3014.29	22.3309
3015.13	23.9648
3015.96	23.2985
3016.8	24.0291
3017.63	24.6125
3018.47	22.0485
3019.3	23.5299
3020.14	22.9752
3020.97	22.4038
3021.8	22.3483
3022.64	23.0337
3023.47	22.8766
3024.3	22.4495
3025.14	24.634
3025.97	23.4665
3026.8	22.8488
3027.64	23.137
3028.47	22.7435
3029.3	21.1176
3030.14	22.2142
3030.97	23.2338
3031.8	21.9762
3032.63	21.258
3033.46	22.4471
3034.3	22.2474
3035.13	22.1021
3035.96	21.5146
3036.79	21.9639
3037.62	24.03
3038.46	23.1224
3039.29	23.2031
3040.12	25.0124
3040.95	23.8663
3041.78	22.0635
3042.61	22.6156
3043.44	24.7048
3044.27	21.758
3045.1	20.0441
3045.93	20.8828
3046.76	22.4194
3047.59	21.7856
3048.42	23.2409
3049.25	22.7201
3050.08	23.0565
3050.91	22.7941
3051.74	21.9352
3052.57	20.8308
3053.4	21.9033
3054.23	18.6446
3055.06	20.9907
3055.89	22.0116
3056.72	20.2184
3057.32	22
3058.15	23
3058.98	24.5
3059.82	22
3060.65	18.5
3061.48	19
3062.31	24
3063.15	20
3063.98	22.5
3064.81	22
3065.64	22
3066.48	23
3067.31	23
3068.14	23.5
3068.97	22.5
3069.8	21
3070.63	23
3071.47	22.5
3072.3	21.5
3073.13	23.5
3073.96	21
3074.79	22
3075.62	26
3076.45	18.5
3077.28	22.5
3078.11	24
3078.94	22.5
3079.77	23
3080.6	25
3081.43	22
3082.26	26.5
3083.09	23
3083.92	23
3084.75	24.5
3085.58	22
3086.41	21.5
3087.24	21.5
3088.07	24
3088.9	25.5
3089.73	22.5
3090.55	22.5
3091.38	19
3092.21	23.5
3093.04	21.5
3093.87	23
3094.7	26
3095.52	23.5
3096.35	24.5
3097.18	24.5
3098.01	20.5
3098.84	24.5
3099.66	20
3100.49	25
3101.32	22
3102.14	21
3102.97	22.5
3103.8	21
3104.62	23.5
3105.45	24.5
3106.28	17.5
3107.1	21
3107.93	24.5
3108.76	22
3109.58	23
3110.41	25.5
3111.23	23.5
3112.06	19.5
3112.89	23.5
3113.71	23.5
3114.54	25
3115.36	26
3116.19	25
3117.01	21.5
3117.84	25
3118.66	26
3119.49	25
3120.31	23
3121.13	24
3121.96	20.5
3122.78	20.5
3123.61	22
3124.43	19.5
3125.25	22
3126.08	22
3126.9	22
3127.73	25
3128.55	22.5
3129.37	20
3130.19	21.5
3131.02	27
3131.84	22.5
3132.66	28.5
3133.49	22.5
3134.31	22
3135.13	20.5
3135.95	24.5
3136.78	23
3137.6	23.5
3138.42	26
3139.24	21
3140.06	24
3140.88	21.5
3141.71	26
3142.53	22
3143.35	23.5
3144.17	25
3144.99	22
3145.81	23.5
3146.63	19
3147.45	20.5
3148.27	27.5
3149.09	23.5
3149.91	23
3150.73	19.5
3151.56	24.5
3152.37	23
3153.2	24
3154.01	25
3154.83	27
3155.65	22
3156.47	26
3157.29	23.5
3158.11	21.5
3158.93	21.5
3159.75	27.5
3160.57	23
3161.39	24.5
3162.21	27.5
3163.02	22
3163.84	25.5
3164.66	25.5
3165.48	21.5
3166.3	22.5
3167.11	20.5
3167.93	21.5
3168.75	20
3169.57	22
3170.39	24.5
3171.2	24
3172.02	26
3172.84	26
3173.65	23.5
3174.47	22
3175.29	25.5
3176.1	22
3176.92	21
3177.74	25.5
3178.55	21.5
3179.37	23.5
3180.19	24
3181	19
3181.82	27
3182.63	24.5
3183.45	20.5
3184.27	25.5
3185.08	24
3185.9	26
3186.71	23
3187.53	24
3188.34	21.5
3189.16	25
3189.97	23
3190.79	23.5
3191.6	22.5
3192.41	26
3193.23	26.5
3194.04	23
3194.86	20
3195.67	19.5
3196.48	26.5
3197.3	18
3198.11	25
3198.93	20
3199.74	21.5
3200.55	24.5
3201.36	23
3202.18	19
3202.99	22.5
3203.8	23
3204.62	22.5
3205.43	23
3206.24	19.5
3207.05	23
3207.87	23
3208.68	26
3209.49	25.5
3210.3	17.5
3211.11	22
3211.93	23
3212.74	20
3213.55	19
3214.36	22
3215.17	24.5
3215.98	26
3216.79	22
3217.6	25.5
3218.41	21
3219.22	19
3220.03	20
3220.85	25
3221.66	25
3222.47	22.5
3223.28	25
3224.09	20.5
3224.9	24.5
3225.71	25
3226.52	26
3227.33	20.5
3228.13	21
3228.94	22
3229.75	24.5
3230.56	24
3231.37	21.5
3232.18	23.5
3232.99	23.5
3233.8	19.5
3234.61	22
3235.41	23.5
3236.22	26
3237.03	28
3237.84	23
3238.65	22
3239.45	23
3240.26	20
3241.07	22
3241.88	24.5
3242.68	23.5
3243.49	24
3244.3	20.5
3245.1	21
3245.91	23
3246.72	20
3247.53	23.5
3248.33	23
3249.14	23.5
3249.95	21.5
3250.75	24.5
3251.56	23.5
3252.36	22
3253.17	22
3253.97	22
3254.78	21.5
3255.59	19
3256.39	22.5
3257.2	22
3258	25.5
3258.81	23.5
3259.61	23
3260.42	24.5
3261.22	26
3262.03	24.5
3262.83	25
3263.64	23.5
3264.44	19
3265.24	22.5
3266.05	21
3266.85	22
3267.66	24.5
3268.46	25
3269.26	22.5
3270.07	27
3270.87	25
3271.67	26
3272.48	26
3273.28	23
3274.08	22
3274.89	25
3275.69	24
3276.49	20.5
3277.29	21
3278.1	23
3278.9	23
3279.7	23.5
3280.5	21
3281.3	22.5
3282.11	21.5
3282.91	23.5
3283.71	26
3284.51	23
3285.31	20.5
3286.11	21
3286.91	23
3287.72	26
3288.52	26.5
3289.32	21
3290.12	24
3290.92	24.5
3291.72	25
3292.52	24.5
3293.32	24.5
3294.12	23
3294.92	20.5
3295.72	24.5
3296.52	26
3297.32	23.5
3298.12	25
3298.92	25
3299.72	22.5
3300.52	25
3301.32	26
3302.12	18.5
3302.92	20.5
3303.71	20
3304.51	21
3305.31	21.5
3306.11	23.5
3306.91	27
3307.71	24
3308.5	22.5
3309.3	28.5
3310.1	21
3310.9	23
3311.7	24.5
3312.49	21.5
3313.29	23.5
3314.09	24
3314.89	22
3315.68	24
3316.48	22
3317.28	24
3318.07	23.5
3318.87	25
3319.67	22.5
3320.46	26.5
3321.26	22.5
3322.06	27.5
3322.85	24.5
3323.65	25.5
3324.44	24.5
3325.24	23
3326.04	23
3326.83	24.5
3327.63	22
3328.42	22
3329.22	25.5
3330.01	23.5
3330.81	22
3331.6	24
3332.4	20
3333.19	25
3333.99	22.5
3334.78	26.5
3335.58	22.5
3336.37	21
3337.17	20.5
3337.96	26.5
3338.75	20.5
3339.55	25.5
3340.34	23.5
3341.13	24.5
3341.93	22
3342.72	24.5
3343.51	28.5
3344.31	20
3345.1	25
3345.89	24.5
3346.69	24
3347.48	27.5
3348.27	24.5
3349.06	25.5
3349.86	24
3350.65	20.5
3351.44	25.5
3352.23	22.5
3353.03	25.5
3353.82	21
3354.61	24.5
3355.4	22.5
3356.19	22
3356.98	22.5
3357.78	26.5
3358.57	26.5
3359.36	21
3360.15	23.5
3360.94	25.5
3361.73	19.5
3362.52	19
3363.31	22
3364.1	24
3364.89	22
3365.68	25.5
3366.47	23
3367.26	25.5
3368.05	24.5
3368.84	24
3369.63	24.5
3370.42	19.5
3371.21	23
3372	26
3372.79	27
3373.58	24
3374.37	22
3375.16	22.5
3375.95	24
3376.73	24.5
3377.52	23
3378.31	25
3379.1	26.5
3379.89	22.5
3380.68	26
3381.46	28.5
3382.25	25
3383.04	21
3383.83	28.5
3384.62	25
3385.4	23
3386.19	22.5
3386.98	25.5
3387.76	24
3388.55	22
3389.34	28.5
3390.13	26
3390.91	25.5
3391.7	21.5
3392.49	22
3393.27	19
3394.06	23
3394.84	25.5
3395.63	26
3396.42	23.5
3397.2	22.5
3397.99	22
3398.77	21
3399.56	24.5
3400.34	25.5
3401.13	25
3401.92	23
3402.7	30
3403.49	24.5
3404.27	23
3405.06	19
3405.84	22
3406.62	24.5
3407.41	21.5
3408.19	24.5
3408.98	25.5
3409.76	23
3410.55	22
3411.33	25
3412.11	27.5
3412.9	25.5
3413.68	21.5
3414.46	19
3415.25	27
3416.03	26
3416.81	22.5
3417.6	22.5
3418.38	30
3419.16	26.5
3419.95	22.5
3420.73	23
3421.51	24
3422.29	22.5
3423.08	24
3423.86	25
3424.64	21.5
3425.42	24.5
3426.2	23.5
3426.98	22
3427.77	26
3428.55	25.5
3429.33	23.5
3430.11	25
3430.89	24
3431.67	22
3432.45	29
3433.24	23
3434.02	25.5
3434.8	25
3435.58	23
3436.36	25.5
3437.14	23.5
3437.92	22.5
3438.7	20.5
3439.48	25.5
3440.26	23
3441.04	23.5
3441.82	21.5
3442.6	25.5
3443.38	21
3444.16	23.5
3444.94	26.5
3445.71	25.5
3446.49	20
3447.27	23.5
3448.05	22.5
3448.83	20.5
3449.61	24.5
3450.39	22
3451.17	25
3451.94	23.5
3452.72	21
3453.5	25
3454.28	21.5
3455.06	18
3455.83	23.5
3456.61	24
3457.39	25
3458.17	24
3458.94	21
3459.72	22
3460.5	23
3461.28	24.5
3462.05	20
3462.83	23
3463.61	28
3464.38	19
3465.16	21.5
3465.93	27.5
3466.71	26.5
3467.49	26.5
3468.26	22
3469.04	20.5
3469.82	23.5
3470.59	22
3471.37	25
3472.14	17
3472.92	18
3473.69	23
3474.47	23
3475.24	23
3476.02	26
3476.79	24.5
3477.57	22.5
3478.34	20
3479.12	25
3479.89	24.5
3480.67	23.5
3481.44	22.5
3482.21	28
3482.99	21
3483.76	23
3484.54	21
3485.31	24.5
3486.08	22.5
3486.86	23
3487.63	24.5
3488.4	26
3489.18	24.5
3489.95	25
3490.72	22.5
3491.5	25.5
3492.27	20
3493.04	23
3493.81	23.5
3494.59	24.5
3495.36	25
3496.13	23.5
3496.9	23.5
3497.67	21.5
3498.45	25
3499.22	21.5
3499.99	24.5
