#Acq. time (s)=	5
#Accumulations=	5
#Range (cm-¹)=	100...3500
#Windows=	4
#Autofocus=	Off
#AutoExposure=	Off
#Spike filter=	Multiple accum.
#Delay time (s)=	0
#Binning=	1
#Readout mode=	Signal
#DeNoise=	Off
#ICS correction=	Off
#Dark correction=	Off
#Inst. Process=	Off
#Instrument=	LabRAM HR Evol
#Detector=	Syncerity OE
#Objective=	x100_VIS
#Grating=	600 (500nm)
#ND Filter=	25%
#Laser=	633nm_Edge
#Hole=	100.021
#Range=	Visible
#Project=	verificaciones
#Sample=	a1
#Site=	lined
#Title=	bolusa1plain
#Remark=	
#Date=	09.01.2026 16:04
#Acquired=	09.01.2026 16:04:05
100.695	28.5
101.978	32.5
103.262	33
104.545	33.5
105.829	28.5
107.112	31.5
108.394	32.5
109.676	34
110.958	29.5
112.24	35
113.522	30
114.803	33.5
116.084	28
117.365	30
118.646	30
119.927	34
121.207	35.5
122.487	31
123.767	30
125.047	32
126.326	33
127.606	34
128.885	32
130.164	32.5
131.442	38
132.721	35
133.999	37
135.277	36
136.555	37
137.831	41.5
139.109	34.5
140.386	36
141.663	34.5
142.94	39.5
144.216	39
145.493	42
146.769	44
148.043	44
149.319	38.5
150.595	37.5
151.87	40
153.145	39
154.42	35.5
155.693	40
156.968	49
158.242	41
159.516	45.5
160.79	40.5
162.062	39.5
163.336	42.5
164.609	40
165.882	38
167.153	44
168.426	43
169.699	43
170.971	41
172.241	39
173.513	41.5
174.785	40
176.055	35.5
177.326	43.5
178.597	42.5
179.866	39.5
181.137	41.5
182.407	42
183.676	46.5
184.946	42.5
186.216	44
187.484	44.5
188.753	45
190.022	42.5
191.29	41.5
192.558	43.5
193.825	41.5
195.094	39.5
196.36	41
197.628	38.5
198.896	41
200.162	39
201.429	41
202.695	36
203.962	41
205.227	38.5
206.493	37
207.758	34
209.024	41.5
210.289	37.5
211.554	35.5
212.818	36
214.083	41
215.347	32
216.612	35
217.875	34
219.138	34
220.402	36.5
221.665	35
222.928	34.5
224.19	33.5
225.454	35.5
226.715	34.5
227.977	34
229.24	30
230.501	33
231.762	31.5
233.024	31.5
234.284	29.5
235.546	30
236.806	30
238.066	28.5
239.327	31
240.587	30
241.846	31.5
243.105	28.5
244.365	30
245.624	26
246.882	31.5
248.142	30.5
249.4	32.5
250.658	30
251.916	28
253.174	32.5
254.432	29
255.689	27.5
256.945	26
258.202	29
259.46	30
260.716	31
261.972	28
263.228	31.5
264.483	32
265.74	27
266.996	34
268.251	33
269.505	23
270.76	33
272.014	25
273.268	29
274.522	26.5
275.778	29
277.031	30
278.285	31
279.538	27
280.791	29
282.043	30
283.296	27.5
284.548	30
285.8	28.5
287.052	25.5
288.304	25.5
289.556	29
290.807	28
292.058	25.5
293.309	30.5
294.56	29
295.81	32
297.061	28.5
298.311	32
299.561	28
300.81	28.5
302.06	30
303.309	29.5
304.558	29
305.807	31
307.056	28
308.305	29.5
309.551	30.5
310.8	29
312.047	29
313.295	28
314.543	31
315.79	27
317.037	32
318.284	27.5
319.529	31
320.776	29
322.022	28.5
323.268	29
324.514	29
325.758	30.5
327.004	26
328.249	26.5
329.494	31
330.739	26
331.982	31
333.227	29
334.471	25.5
335.715	29.5
336.958	28
338.201	28
339.445	31.5
340.687	29
341.93	30.5
343.173	33
344.414	30.5
345.657	29
346.899	26.5
348.14	28.5
349.381	29
350.623	30
351.863	25
353.104	30.5
354.346	33.5
355.585	33.5
356.826	30
358.065	30
359.305	26
360.545	29.5
361.784	27.5
363.023	32
364.261	30
365.501	26.5
366.738	27
367.977	27.5
369.216	31.5
370.453	29.5
371.691	30
372.928	30
374.166	25.5
375.402	32
376.64	30
377.876	28
379.111	28
380.348	31
381.584	30.5
382.82	28
384.055	26
385.291	28.5
386.526	26.5
387.76	30.5
388.996	26
390.229	30
391.465	31
392.698	25.5
393.931	28
395.166	30
396.399	28
397.632	31
398.866	25.5
400.098	31.5
401.33	32.5
402.563	28
403.795	26.5
405.027	28.5
406.259	29
407.491	29.5
408.721	26.5
409.954	28
411.184	27
412.415	27
413.645	30.5
414.876	27
416.106	31.5
417.335	31.5
418.565	24
419.794	24.5
421.024	27.5
422.253	32
423.482	30
424.71	27.5
425.938	31
427.168	29
428.396	26
429.623	30.5
430.851	26.5
432.078	27.5
433.305	26
434.532	30
435.758	29.5
436.986	26.5
438.212	28
439.438	30.5
440.664	34
441.89	28.5
443.115	29.5
444.34	29.5
445.566	24.5
446.79	31
448.015	34
449.24	27.5
450.464	28
451.688	29.5
452.912	30
454.135	29
455.359	31.5
456.582	28.5
457.805	33
459.028	31
460.251	35
461.473	31
462.696	30
463.918	32
465.14	32.5
466.36	35.5
467.582	35
468.803	34
470.024	36.5
471.245	35.5
472.466	35
473.686	40.5
474.907	38.5
476.126	40
477.346	43.5
478.565	46
479.785	48
481.004	49
482.224	56
483.441	59.5
484.66	57
485.879	62.5
487.097	57
488.314	58.5
489.532	65
490.75	55
491.967	56.5
493.184	52
494.401	57
495.618	58
496.835	55.5
498.05	50
499.267	52
500.483	49
501.698	44
502.913	45
504.129	46
505.343	41
506.559	34.5
507.774	40.5
508.987	35
510.202	37
511.415	37.5
512.63	35.5
513.844	35.5
515.056	33.5
516.27	32
517.482	34.5
518.696	34
519.907	30.5
521.121	36
522.332	30.5
523.545	29
524.757	28
525.968	31
527.18	34.5
528.39	28.5
529.602	29
530.812	31.5
532.023	34.5
533.233	29.5
534.443	30
535.653	29
536.862	32.5
538.073	30
539.281	29.5
540.491	32
541.7	29
542.908	30
544.117	29
545.325	28.5
546.534	31.5
547.741	29
548.949	27.5
550.157	29
551.364	29
552.57	30
553.778	26
554.985	31
556.191	27.5
557.398	29
558.604	31.5
559.809	32
561.014	27
562.221	31
563.426	31
564.63	33
565.835	23
567.041	26.5
568.245	27
569.449	30
570.653	28.5
571.856	31
573.061	30.5
574.264	29
575.467	28
576.67	31
577.873	27.5
579.076	28.5
580.279	26
581.481	29.5
582.683	27.5
583.884	32.5
585.086	28.5
586.287	27.5
587.488	29
588.689	30.5
589.891	28
591.092	26.5
592.292	30
593.492	29
594.692	23.5
595.892	31
597.092	29
598.291	27
599.49	24.5
600.689	25
601.888	28
603.087	29.5
604.285	31
605.483	26
606.681	29.5
607.879	28
609.077	30.5
610.274	24.5
611.472	24.5
612.668	28.5
613.865	27.5
615.061	25
616.258	26
617.454	30.5
618.65	32.5
619.846	29.5
621.042	29.5
622.238	30.5
623.432	29
624.627	31
625.822	28.5
627.017	27.5
628.212	27.5
629.406	29
630.599	30.5
631.793	30
632.987	27.5
634.181	29.5
635.373	28
636.566	26.5
637.76	31
638.953	30.5
640.144	31
641.337	25
642.529	32.5
643.721	30
644.912	30
646.104	34
647.295	30.5
648.485	25
649.677	29.5
650.868	31
652.057	28
653.248	26
654.437	30.5
655.628	29
656.818	29
658.006	31.5
659.196	24.5
660.384	29
661.574	26
662.763	32
663.951	27.5
665.14	31.5
666.327	24.5
667.515	32
668.702	31
669.891	32.5
671.077	33
672.265	27.5
673.451	33.5
674.638	32.5
675.824	33
677.011	35
678.197	30
679.383	33.5
680.568	31
681.755	36.5
682.939	38
684.124	34.5
685.309	34.5
686.494	33.5
687.679	33
688.863	33
690.046	35
691.231	33
692.414	34
693.599	32.5
694.781	35
695.964	36.5
697.148	36.5
698.33	33.5
699.512	37.5
700.694	37.5
701.877	40
703.059	41.5
704.24	44
705.423	46
706.604	51
707.784	53
708.965	48.5
710.147	51
711.327	49.5
712.507	44
713.687	44.5
714.867	39.5
716.048	32
717.227	32
718.406	36
719.585	34.5
720.764	29.5
721.942	32
723.122	27.5
724.3	27.5
725.478	28
726.656	28.5
727.834	28.5
729.011	28
730.189	26.5
731.366	29.5
732.543	25
733.719	28
734.896	31
736.072	23.5
737.249	24.5
738.426	28
739.602	26.5
740.777	30.5
741.953	29
743.128	29.5
744.303	26
745.477	29.5
746.651	27
747.826	30
749	27.5
750.174	28
751.348	28
752.522	28.5
753.696	27.5
754.869	26
756.043	25
757.216	27
758.389	26
759.561	27
760.732	27.5
761.905	27.5
763.077	25
764.249	31
765.421	25
766.592	28
767.762	27
768.934	26.5
770.105	24.5
771.275	27
772.446	30
773.615	30.5
774.786	28
775.956	26.5
777.126	34
778.294	29
779.464	25.5
780.633	30.5
781.801	31
782.97	33
784.139	29
785.306	34.5
786.475	29
787.643	34
788.81	28
789.978	28
791.146	31.5
792.312	29.5
793.479	34
794.647	31.5
795.812	33
796.979	29.5
798.144	29.5
799.311	28.5
800.477	34
801.642	33.5
802.808	31
803.972	29.5
805.138	31.5
806.302	29.5
807.467	29
808.631	27.5
809.796	29
810.959	26
812.124	27.5
813.287	29
814.451	30.5
815.614	31
816.777	30.5
817.94	25
819.102	26
820.265	28.5
821.427	31.5
822.59	30.5
823.751	28.5
824.912	25.5
826.074	31
827.235	23.5
828.397	26
829.558	26
830.718	31
831.879	26.5
833.039	30.5
834.199	26.5
835.359	27.5
836.519	31
837.679	25
838.838	25
839.998	25.5
841.156	26
842.315	34
843.473	25
844.633	29
845.791	29
846.948	27.5
848.106	24
849.263	28.5
850.422	28
851.579	27
852.736	26
853.892	30.5
855.049	26.5
856.205	28.5
857.363	29.5
858.519	29
859.674	29.5
860.83	33
861.986	26.5
863.141	35.5
864.296	29.5
865.451	28.5
866.605	29.5
867.76	25.5
868.914	28
870.069	26
871.224	27
872.378	28
873.531	31
874.685	26.5
875.838	28
876.991	27
878.144	27.5
879.296	29
880.448	29
881.6	30
882.753	25
883.905	28.5
885.057	25.5
886.208	26.5
887.36	26.5
888.511	29.5
889.662	32
890.813	23.5
891.964	21.5
893.113	24.5
894.264	27
895.414	24.5
896.564	26.5
897.714	29
898.864	20.5
900.012	25
901.161	29.5
902.31	28.5
903.459	28
904.607	26.5
905.756	27.5
906.904	27
908.052	26
909.199	27.5
910.347	30
911.495	24
912.643	25.5
913.789	24
914.936	26
916.083	26
917.229	25
918.375	25.5
919.522	23.5
920.667	26
921.813	26
922.959	22.5
924.104	25.5
925.249	26.5
926.393	29
927.539	25.5
928.684	27
929.827	23.5
930.972	25
932.115	27
933.26	27.5
934.403	25.5
935.547	30
936.689	31
937.833	29.5
938.975	28
940.119	29
941.26	22
942.404	25.5
943.545	23
944.688	24
945.829	27.5
946.971	23
948.112	24.5
949.253	29.5
950.394	26
951.535	29
952.676	22.5
953.816	28.5
954.956	28
956.097	23.5
957.236	26
958.377	26.5
959.516	25.5
960.655	28
961.793	25
962.933	28
964.071	26
965.21	26
966.349	26.5
967.487	28
968.624	26.5
969.762	26
970.901	26
972.038	23
973.175	25
974.311	25
975.449	27
976.586	33
977.722	27.5
978.858	27
979.994	28
981.131	26
982.267	25.5
983.402	28.5
984.537	22.5
985.672	27.5
986.807	24
987.942	22
989.076	25.5
990.211	30.5
991.346	25
992.48	30
993.614	25
994.748	28.5
995.881	25.5
997.014	23.5
998.148	26.5
999.28	28.5
1000.41	25.5
1001.55	27
1002.68	26.5
1003.81	26.5
1004.94	29.5
1006.07	28
1007.21	25.5
1008.34	29.5
1009.47	25
1010.6	21.5
1011.73	26.5
1012.86	26
1013.99	25
1015.12	23.5
1016.25	28
1017.38	27
1018.51	29
1019.64	22.5
1020.77	25
1021.9	24
1023.03	27
1024.16	27
1025.29	27.5
1026.42	26
1027.54	27
1028.67	30
1029.8	28
1030.93	26
1032.06	27
1033.18	21
1034.31	28
1035.44	22.5
1036.56	25.5
1037.69	28.5
1038.82	27.5
1039.94	26
1041.07	25.5
1042.2	25
1043.32	28.5
1044.45	28
1045.57	27
1046.7	25.5
1047.82	22
1048.95	26
1050.07	26.5
1051.2	28
1052.32	22
1053.45	24.5
1054.57	23.5
1055.69	26
1056.82	26.5
1057.94	29
1059.06	23.5
1060.19	23.5
1061.31	24.5
1062.43	27.5
1063.55	28.5
1064.68	25.5
1065.8	28.5
1066.92	28
1068.04	26
1069.16	23.5
1070.28	26
1071.41	31
1072.53	27
1073.65	23
1074.77	28
1075.89	28.5
1077.01	27
1078.13	23
1079.25	25
1080.37	24.5
1081.49	24
1082.61	24
1083.73	25
1084.85	25
1085.96	27
1087.08	23
1088.2	27
1089.32	23
1090.44	25
1091.56	24
1092.67	26.5
1093.79	26.5
1094.91	25
1096.03	27
1097.14	24
1098.26	24
1099.38	25
1100.49	26.5
1101.61	25
1102.73	27
1103.84	26
1104.96	26
1106.07	27
1107.19	25
1108.3	21
1109.42	23
1110.53	23.5
1111.65	23
1112.76	28
1113.88	24.5
1114.99	25
1116.1	25.5
1117.22	27
1118.33	30
1119.44	24
1120.56	22
1121.67	23
1122.78	27
1123.9	25
1125.01	24
1126.12	24.5
1127.23	24
1128.34	28
1129.46	24
1130.57	25
1131.68	22.5
1132.79	23.5
1133.9	24.5
1135.01	25.5
1136.12	23
1137.23	26.5
1138.34	25
1139.45	21
1140.56	23
1141.67	28.5
1142.78	25.5
1143.89	27.5
1145	24.5
1146.11	27.5
1147.22	19
1148.33	24.5
1149.44	28.5
1150.54	25
1151.65	27
1152.76	25
1153.87	24
1154.97	26
1156.08	25
1157.19	25
1158.3	19.5
1159.4	21.5
1160.51	26.5
1161.62	22
1162.72	24
1163.83	27
1164.93	27
1166.04	23
1167.15	27
1168.25	27
1169.36	27
1170.46	28
1171.57	23.5
1172.67	27.5
1173.78	21
1174.88	26
1175.98	22
1177.09	28
1178.19	28
1179.3	24
1180.4	25
1181.5	22
1182.61	27.5
1183.71	25.5
1184.81	24
1185.91	29.5
1187.02	22
1188.12	28
1189.22	24.5
1190.32	27
1191.42	24
1192.53	22
1193.63	26
1194.73	23.0121
1195.83	23.9589
1196.93	21.066
1198.03	24.0207
1199.13	23.1244
1200.23	27.5306
1201.33	19.3151
1202.43	24.3252
1203.53	22.5317
1204.63	24.072
1205.73	25.9532
1206.83	23.5298
1207.93	23.2952
1209.02	22.754
1210.12	22.8126
1211.22	21.5479
1212.32	23.9199
1213.42	21.4628
1214.52	24.2056
1215.61	21.9201
1216.71	24.9191
1217.81	24.3056
1218.91	22.6944
1220	27.4166
1221.1	25.6721
1222.2	23.8241
1223.29	24.7963
1224.39	24.0137
1225.49	24.0715
1226.58	23.4798
1227.68	24
1228.77	27.0986
1229.87	25.1025
1230.96	23.0232
1232.06	25.3599
1233.15	27.2801
1234.25	25.3433
1235.34	25.6724
1236.44	23.3173
1237.53	23.8088
1238.63	23.1051
1239.72	25.9369
1240.81	27.3579
1241.91	23.815
1243	25.6857
1244.09	22.769
1245.19	24.5847
1246.28	26.0695
1247.37	23.0577
1248.46	24.1182
1249.56	27.7248
1250.65	26.7571
1251.74	26.2352
1252.83	26.9428
1253.92	26.663
1255.01	25.4312
1256.11	25.8926
1257.2	26.5922
1258.29	27.7697
1259.38	26.2877
1260.47	26.9006
1261.56	27.6862
1262.65	25.7789
1263.74	27.767
1264.83	24.8599
1265.92	27.9768
1267.01	26.8494
1268.1	24.2927
1269.19	25.3691
1270.27	28.1421
1271.36	23.1646
1272.45	22.9951
1273.54	23.2698
1274.63	24.0186
1275.72	25.7991
1276.8	24.6566
1277.89	25.6558
1278.98	25.6238
1280.07	23.4534
1281.15	22.4899
1282.24	23.3012
1283.33	23.4175
1284.41	24.5634
1285.5	22.5088
1286.59	25.6903
1287.67	23.4421
1288.76	26.4605
1289.84	26.4733
1290.93	23.4735
1292.01	23.4353
1293.1	25.5957
1294.19	22.086
1295.27	23.5237
1296.35	24.9845
1297.44	24.7112
1298.52	24.8544
1299.61	25
1300.69	23.8145
1301.78	23.0736
1302.86	24.9111
1303.94	22.6068
1305.03	23.3652
1306.11	22.8956
1306.4	22.5
1307.49	23
1308.57	26
1309.66	23
1310.75	26
1311.84	24.5
1312.92	25.5
1314.01	25
1315.1	17
1316.19	23.5
1317.27	21.5
1318.36	23
1319.45	25
1320.53	27
1321.62	23.5
1322.7	26
1323.79	28.5
1324.88	22
1325.96	22
1327.05	22.5
1328.13	24.5
1329.21	22
1330.3	22.5
1331.38	24.5
1332.47	27
1333.55	22
1334.64	24
1335.72	26
1336.8	21.5
1337.89	25
1338.97	31
1340.05	20
1341.14	24
1342.22	27
1343.3	25.5
1344.39	23
1345.47	23
1346.55	26.5
1347.63	23
1348.71	25
1349.79	23
1350.88	28
1351.96	24
1353.04	26
1354.12	25
1355.2	19.5
1356.28	25
1357.36	23.5
1358.44	21
1359.52	24.5
1360.6	25
1361.68	22.5
1362.76	24
1363.84	26
1364.92	22
1366	23
1367.08	24
1368.16	27.5
1369.23	27.5
1370.31	26.5
1371.39	26.5
1372.47	23.5
1373.55	24.5
1374.62	23.5
1375.7	25.5
1376.78	25.5
1377.85	23.5
1378.93	27
1380.01	25
1381.09	25
1382.16	28
1383.24	24
1384.31	24
1385.39	26.5
1386.47	22.5
1387.54	27.5
1388.62	26
1389.69	23.5
1390.77	20
1391.84	24.5
1392.92	27
1393.99	29.5
1395.06	25.5
1396.14	23
1397.21	25
1398.29	31
1399.36	28
1400.43	27
1401.51	26.5
1402.58	32.5
1403.65	28.5
1404.73	32
1405.8	29.5
1406.87	27
1407.94	31.5
1409.02	32
1410.09	30.5
1411.16	27
1412.23	33.5
1413.3	31
1414.37	32
1415.45	30.5
1416.52	27.5
1417.59	29.5
1418.66	28
1419.73	33.5
1420.8	30
1421.87	31.5
1422.94	29.5
1424.01	22.5
1425.08	27
1426.15	26.5
1427.22	24.5
1428.29	28
1429.35	26
1430.42	28.5
1431.49	23.5
1432.56	27
1433.63	27.5
1434.7	25.5
1435.77	26
1436.83	24
1437.9	25.5
1438.97	27
1440.04	26.5
1441.1	26
1442.17	27
1443.24	27
1444.3	24
1445.37	25
1446.44	25
1447.5	22
1448.57	25.5
1449.63	29
1450.7	23.5
1451.76	24
1452.83	23
1453.89	25.5
1454.96	28
1456.02	28
1457.09	28.5
1458.15	25
1459.22	26.5
1460.28	26.5
1461.34	25
1462.41	29.5
1463.47	24.5
1464.54	26.5
1465.6	25.5
1466.66	24
1467.72	24
1468.79	24
1469.85	26
1470.91	25
1471.97	27
1473.04	24.5
1474.1	25
1475.16	24.5
1476.22	25
1477.28	24
1478.34	25.5
1479.4	22
1480.47	25.5
1481.53	29.5
1482.59	27.5
1483.65	25.5
1484.71	27
1485.77	25.5
1486.83	22
1487.89	25.5
1488.95	23.5
1490.01	26
1491.07	30
1492.12	26
1493.18	24
1494.24	25.5
1495.3	28
1496.36	28
1497.42	27.5
1498.47	25.5
1499.53	26.5
1500.59	28
1501.65	25.5
1502.7	24.5
1503.76	27.5
1504.82	24.5
1505.88	23.5
1506.93	19.5
1507.99	24
1509.05	26
1510.1	25
1511.16	24
1512.21	28
1513.27	27
1514.32	28.5
1515.38	27
1516.43	26.5
1517.49	25
1518.54	27
1519.6	25
1520.65	26
1521.71	24
1522.76	26
1523.82	25.5
1524.87	22.5
1525.92	28
1526.98	27
1528.03	26.5
1529.08	26.5
1530.14	26
1531.19	21.5
1532.24	29
1533.3	29.5
1534.35	26
1535.4	25
1536.45	30.5
1537.5	23
1538.56	26.5
1539.61	26
1540.66	24.5
1541.71	25
1542.76	27
1543.81	26.5
1544.86	27
1545.91	27
1546.96	25.5
1548.01	24
1549.06	23
1550.11	25
1551.16	24.5
1552.21	21.5
1553.26	25.5
1554.31	22.5
1555.36	21
1556.41	25.5
1557.46	27
1558.51	24.5
1559.55	27
1560.6	24
1561.65	29.5
1562.7	23
1563.75	24
1564.79	27
1565.84	25.5
1566.89	28.5
1567.94	29
1568.98	24
1570.03	25.5
1571.07	25
1572.12	26
1573.17	26.5
1574.21	25.5
1575.26	26.5
1576.31	28
1577.35	23
1578.4	27.5
1579.44	27.5
1580.49	25.5
1581.53	22
1582.58	27
1583.62	24
1584.67	24
1585.71	29
1586.75	23
1587.8	22
1588.84	24.5
1589.89	24
1590.93	25.5
1591.97	27
1593.02	25
1594.06	21.5
1595.1	31.5
1596.14	26.5
1597.19	22.5
1598.23	26
1599.27	23
1600.31	28
1601.35	23
1602.4	27.5
1603.44	24.5
1604.48	24
1605.52	27
1606.56	25
1607.6	24.5
1608.64	27.5
1609.68	22
1610.72	20.5
1611.76	27
1612.8	27
1613.84	22
1614.88	24.5
1615.92	23.5
1616.96	26
1618	24
1619.04	27
1620.08	24
1621.12	27
1622.16	24
1623.19	27
1624.23	23
1625.27	28.5
1626.31	21
1627.35	24.5
1628.38	23
1629.42	25.5
1630.46	29.5
1631.5	24
1632.53	27
1633.57	27
1634.61	23
1635.64	23
1636.68	26
1637.71	30
1638.75	23.5
1639.79	24.5
1640.82	23
1641.86	27
1642.89	26.5
1643.93	25
1644.96	26
1646	25.5
1647.03	27.5
1648.07	26
1649.1	25
1650.14	26.5
1651.17	27.5
1652.2	29
1653.24	26.5
1654.27	26.5
1655.3	27
1656.34	24
1657.37	24.5
1658.4	25.5
1659.44	27
1660.47	22.5
1661.5	22
1662.53	25
1663.57	24
1664.6	24.5
1665.63	31
1666.66	23
1667.69	23.5
1668.72	28.5
1669.75	31
1670.79	25
1671.82	25
1672.85	22
1673.88	25.5
1674.91	28.5
1675.94	26.5
1676.97	25.5
1678	25
1679.03	24
1680.06	28
1681.09	28.5
1682.11	23
1683.14	23
1684.17	27.5
1685.2	25.5
1686.23	25
1687.26	23
1688.29	29
1689.32	26
1690.34	24.5
1691.37	22.5
1692.4	24
1693.43	26
1694.45	24
1695.48	27.5
1696.51	24
1697.53	25.5
1698.56	28
1699.59	31
1700.61	24.5
1701.64	27
1702.66	26
1703.69	23.5
1704.72	26
1705.74	25.5
1706.77	26
1707.79	26
1708.82	27
1709.84	22
1710.87	25
1711.89	23
1712.92	24.5
1713.94	24
1714.96	28
1715.99	23.5
1717.01	23.5
1718.04	21
1719.06	26
1720.08	28
1721.11	26.5
1722.13	26.5
1723.15	25
1724.17	24
1725.2	24.5
1726.22	24
1727.24	27
1728.26	26.5
1729.28	28
1730.31	28
1731.33	24
1732.35	26
1733.37	25.5
1734.39	24
1735.41	25.5
1736.43	25.5
1737.45	26.5
1738.47	26.5
1739.49	25
1740.51	24.5
1741.53	27.5
1742.55	27.5
1743.57	23
1744.59	25.5
1745.61	25.5
1746.63	22.5
1747.65	25
1748.67	22.5
1749.69	25
1750.71	25
1751.72	25.5
1752.74	25.5
1753.76	25
1754.78	29
1755.8	26
1756.81	25.5
1757.83	23
1758.85	25
1759.86	23
1760.88	26
1761.9	23.5
1762.91	25.5
1763.93	24.5
1764.95	23.5
1765.96	26
1766.98	26
1768	25.5
1769.01	21
1770.03	25
1771.04	23.5
1772.06	28.5
1773.07	28
1774.09	23
1775.1	23
1776.12	27.5
1777.13	22
1778.14	22.5
1779.16	25
1780.17	26
1781.19	27.5
1782.2	25
1783.21	28
1784.23	28.5
1785.24	25.5
1786.25	26.5
1787.27	25.5
1788.28	22.5
1789.29	24.5
1790.3	25.5
1791.32	22.5
1792.33	26.5
1793.34	31
1794.35	23
1795.36	23.5
1796.37	26.5
1797.38	21
1798.4	24.5
1799.41	26
1800.42	26.5
1801.43	25.5
1802.44	28.5
1803.45	24.5
1804.46	29
1805.47	27.5
1806.48	28.5
1807.49	24
1808.5	24
1809.51	26.5
1810.52	28
1811.53	27.5
1812.53	20.5
1813.54	27.5
1814.55	28.5
1815.56	23.5
1816.57	23.5
1817.58	25.5
1818.58	26
1819.59	24.5
1820.6	27
1821.61	27
1822.61	27
1823.62	26.5
1824.63	22.5
1825.64	26.5
1826.64	24.5
1827.65	23
1828.66	23
1829.66	24
1830.67	24
1831.67	26
1832.68	26
1833.68	23.5
1834.69	24.5
1835.7	25
1836.7	23
1837.71	22.5
1838.71	24
1839.71	23
1840.72	26
1841.72	22
1842.73	22.5
1843.73	23.5
1844.74	26.5
1845.74	24
1846.74	26
1847.75	23
1848.75	24
1849.75	23
1850.76	23.5
1851.76	22.5
1852.76	26
1853.76	27
1854.77	26
1855.77	28
1856.77	21.5
1857.77	26
1858.77	22
1859.78	27
1860.78	29
1861.78	20.5
1862.78	29
1863.78	25
1864.78	24.5
1865.78	25
1866.78	24
1867.78	26
1868.78	24.5
1869.78	23
1870.78	29
1871.78	25.5
1872.78	25.5
1873.78	26
1874.78	24
1875.78	30.5
1876.78	22.5
1877.78	25.5
1878.78	24
1879.77	25
1880.77	25.5
1881.77	23
1882.77	25
1883.77	23.5
1884.76	22
1885.76	25.5
1886.76	21.5
1887.76	29
1888.75	23.5
1889.75	26.5
1890.75	25.5
1891.74	23.5
1892.74	21.5
1893.74	24.5
1894.73	24.5
1895.73	25.5
1896.72	25
1897.72	23
1898.72	23.5
1899.71	23
1900.71	26
1901.7	19.5
1902.7	26
1903.69	24.5
1904.69	24
1905.68	25.5
1906.67	24
1907.67	28.5
1908.66	26.5
1909.66	24.5
1910.65	25.5
1911.64	28.5
1912.64	26.5
1913.63	25.5
1914.62	27
1915.62	25
1916.61	23
1917.6	25.5
1918.59	26
1919.59	26
1920.58	22
1921.57	24.5
1922.56	21
1923.55	22
1924.55	24.5
1925.54	25
1926.53	26.5
1927.52	23
1928.51	25.5
1929.5	22.5
1930.49	21
1931.48	25.5
1932.47	22.5
1933.46	22
1934.45	27.5
1935.44	23
1936.43	27.5
1937.42	26
1938.41	24
1939.4	21
1940.39	24
1941.38	23.5
1942.37	25.5
1943.36	22.5
1944.34	21.5
1945.33	24
1946.32	20.5
1947.31	26
1948.3	22
1949.28	17.5
1950.27	23
1951.26	20.5
1952.25	24
1953.23	24
1954.22	25.5
1955.21	21.5
1956.2	26
1957.18	23.5
1958.17	28.5
1959.15	23.5
1960.14	28.5
1961.13	26.5
1962.11	23
1963.1	25.5
1964.08	24.5
1965.07	26
1966.05	24
1967.04	27.5
1968.02	23
1969.01	25
1969.99	22.5
1970.98	24.5
1971.96	26
1972.94	24
1973.93	23
1974.91	21
1975.9	22
1976.88	23
1977.86	21
1978.85	25
1979.83	26
1980.81	27.5
1981.8	24
1982.78	26.5
1983.76	24
1984.74	25
1985.72	23.5
1986.71	24.5
1987.69	28
1988.67	23.5
1989.65	23
1990.63	25
1991.61	26
1992.6	22.5
1993.58	20
1994.56	26
1995.54	26
1996.52	25.5
1997.5	22
1998.48	24.5
1999.46	26
2000.44	27
2001.42	22
2002.4	25
2003.38	23
2004.36	22.5
2005.34	23
2006.32	23.5
2007.29	24.5
2008.27	23.5
2009.25	24
2010.23	23.5
2011.21	21
2012.19	23.5
2013.16	24
2014.14	26
2015.12	24
2016.1	27
2017.07	26
2018.05	20.5
2019.03	22.5
2020	24
2020.98	21.5
2021.96	26
2022.93	22
2023.91	22
2024.89	24
2025.86	22.5
2026.84	21
2027.81	20
2028.79	24
2029.77	25
2030.74	24.5
2031.72	21
2032.69	24.5
2033.67	25
2034.64	21.5
2035.61	26
2036.59	25
2037.56	23.5
2038.54	27.5
2039.51	21.5
2040.48	28
2041.46	23.5
2042.43	23
2043.41	25.5
2044.38	26
2045.35	24
2046.32	22
2047.3	23
2048.27	22
2049.24	21.5
2050.21	24
2051.19	25.5
2052.16	27.5
2053.13	25.5
2054.1	23
2055.07	23.5
2056.04	23.5
2057.02	24.5
2057.99	24.5
2058.96	24.5
2059.93	22.5
2060.9	24
2061.87	25.5
2062.84	19
2063.81	26.5
2064.78	20
2065.75	22
2066.72	23
2067.69	20.5
2068.66	27.5
2069.63	26.5
2070.6	20.5
2071.57	26
2072.53	30
2073.5	21
2074.47	25
2075.44	23
2076.41	20
2077.38	24
2078.34	20
2079.31	25.5
2080.28	26
2081.25	27
2082.21	23.5
2083.18	24
2084.15	26
2085.12	26.5
2086.08	26.5
2087.05	23.5
2088.02	24.5
2088.98	25.5
2089.95	26
2090.91	23.5
2091.88	23.5
2092.85	26.5
2093.81	25.5
2094.78	25
2095.74	25
2096.71	24
2097.67	20
2098.64	22
2099.6	23.5
2100.57	21.5
2101.53	27.5
2102.5	21.5
2103.46	22
2104.42	30.5
2105.39	26
2106.35	25
2107.31	22
2108.28	24.5
2109.24	22.5
2110.2	23.5
2111.17	27
2112.13	24
2113.09	23
2114.06	22.5
2115.02	21
2115.98	24
2116.94	27.5
2117.9	28.5
2118.86	26
2119.83	27.5
2120.79	23
2121.75	23.5
2122.71	25
2123.67	21
2124.63	20.5
2125.59	22
2126.55	22
2127.51	22
2128.48	22.5
2129.43	24
2130.4	24
2131.35	24
2132.31	21.5
2133.27	24.5
2134.23	23.5
2135.19	22
2136.15	25
2137.11	26
2138.07	20
2139.03	23.5
2139.99	25
2140.95	26
2141.9	24
2142.86	24.9788
2143.82	24.4284
2144.78	24.4539
2145.74	23.3814
2146.69	23.5346
2147.65	23.4392
2148.61	24.3853
2149.56	18.4636
2150.52	23.935
2151.48	24.2127
2152.44	23.8471
2153.39	23.3606
2154.35	25.4097
2155.3	24.0817
2156.26	23.6832
2157.22	19.5951
2158.17	26.0549
2159.13	23.5088
2160.08	23.57
2161.04	23.1376
2161.99	19.3002
2162.95	24.0206
2163.9	22.542
2164.86	18.5275
2165.81	21.9381
2166.77	22.1597
2167.72	20.2573
2168.68	24.6426
2169.63	24.952
2170.58	25.8096
2171.54	24.7034
2172.49	21.7845
2173.44	22.9733
2174.4	23.5962
2175.35	22.8545
2176.3	22.9127
2177.26	21.7104
2178.21	22.0754
2179.16	21.3783
2180.11	22.6514
2181.07	24.7306
2182.02	22.3951
2182.97	23.2688
2183.92	22.3676
2184.88	22.6359
2185.83	23.3702
2186.78	21.4346
2187.73	23.3838
2188.68	22.4588
2189.63	21.4809
2190.58	21.3085
2191.53	23.5225
2192.48	22.9249
2193.43	22.9265
2194.38	23.9809
2195.33	24.5308
2196.28	21.0971
2197.23	21.5464
2198.18	22.2389
2199.13	20.8035
2200.08	20.2403
2201.03	22.5721
2201.98	23.5872
2202.93	22.1917
2203.88	23.9885
2204.83	24.0288
2205.78	23.3228
2206.72	21.0312
2207.67	22.7912
2208.62	22.8489
2209.57	22.3155
2210.52	23.174
2211.46	22.3286
2212.41	21.7864
2213.36	25.2293
2214.31	23.7911
2215.25	22.0853
2216.2	24.0472
2217.15	26.4067
2218.09	21.423
2219.04	23.669
2219.99	24.5394
2220.93	22.3591
2221.88	19.4778
2222.83	23.6646
2223.77	25.2008
2224.72	23.2697
2225.66	22.029
2226.61	23.4532
2227.55	21.7633
2228.5	22.1068
2229.44	22.1518
2230.39	23.1733
2231.33	23.2163
2232.28	24.5939
2233.22	20.2323
2234.17	20.0778
2235.11	22.6526
2236.05	24.9401
2237	21.6021
2237.94	22.8653
2238.88	21.1915
2239.83	22.4479
2240.04	23
2240.98	24
2241.93	20
2242.88	19
2243.83	26
2244.78	21
2245.72	24.5
2246.67	25
2247.62	24.5
2248.56	21.5
2249.51	22
2250.46	23
2251.4	19.5
2252.35	20.5
2253.3	20.5
2254.24	26
2255.19	20.5
2256.14	21.5
2257.08	23
2258.03	23
2258.97	20
2259.92	25
2260.86	26
2261.81	23.5
2262.75	23
2263.7	24.5
2264.64	23
2265.59	22
2266.53	22
2267.48	24.5
2268.42	23
2269.36	22.5
2270.31	20
2271.25	21
2272.19	22.5
2273.14	25
2274.08	19
2275.02	23
2275.97	21.5
2276.91	25
2277.85	24
2278.8	23
2279.74	20
2280.68	24
2281.62	23
2282.56	22
2283.51	20
2284.45	23
2285.39	23
2286.33	22.5
2287.27	23
2288.21	22.5
2289.15	25
2290.09	22.5
2291.04	21.5
2291.98	24.5
2292.92	20
2293.86	25
2294.8	21.5
2295.74	24
2296.68	25
2297.62	23
2298.56	24
2299.5	19
2300.44	24
2301.37	20.5
2302.31	23.5
2303.25	23.5
2304.19	25.5
2305.13	24
2306.07	23.5
2307.01	22
2307.94	24
2308.88	21.5
2309.82	25
2310.76	25.5
2311.7	24
2312.63	22.5
2313.57	23
2314.51	22
2315.44	25
2316.38	27
2317.32	23
2318.26	23
2319.19	23
2320.13	23.5
2321.06	26
2322	19
2322.94	24
2323.87	26
2324.81	25.5
2325.74	23.5
2326.68	24
2327.61	18.5
2328.55	20.5
2329.48	20.5
2330.42	21
2331.35	21.5
2332.29	21
2333.22	24
2334.16	24.5
2335.09	26
2336.02	24
2336.96	20
2337.89	22
2338.83	23.5
2339.76	24
2340.69	24
2341.63	21.5
2342.56	26
2343.49	24
2344.42	25.5
2345.36	24.5
2346.29	27
2347.22	23
2348.15	23
2349.09	23
2350.02	25
2350.95	24.5
2351.88	27
2352.81	25.5
2353.74	24.5
2354.68	24
2355.61	27
2356.54	22.5
2357.47	25
2358.4	24
2359.33	24
2360.26	23.5
2361.19	24.5
2362.12	24
2363.05	25
2363.98	25
2364.91	22
2365.84	23.5
2366.77	24.5
2367.7	22
2368.63	24.5
2369.56	23
2370.49	26
2371.41	25
2372.34	27.5
2373.27	23
2374.2	23.5
2375.13	24.5
2376.06	23.5
2376.98	26.5
2377.91	26
2378.84	27
2379.77	23
2380.69	26.5
2381.62	24
2382.55	25.5
2383.47	19
2384.4	23
2385.33	24.5
2386.25	25
2387.18	23.5
2388.11	29
2389.03	21.5
2389.96	19
2390.89	26.5
2391.81	24
2392.74	21.5
2393.66	24.5
2394.59	25
2395.51	27.5
2396.44	22.5
2397.36	26
2398.29	23
2399.21	25
2400.14	21
2401.06	25.5
2401.99	22
2402.91	22.5
2403.83	24
2404.76	24
2405.68	20
2406.6	21.5
2407.53	23.5
2408.45	23
2409.37	26
2410.3	23.5
2411.22	21
2412.14	23
2413.06	25.5
2413.99	23.5
2414.91	23.5
2415.83	25.5
2416.75	26.5
2417.68	22
2418.6	22
2419.52	24
2420.44	26
2421.36	20.5
2422.28	25
2423.2	23.5
2424.12	24.5
2425.05	21
2425.97	27.5
2426.89	24.5
2427.81	24
2428.73	24
2429.65	25
2430.57	23.5
2431.49	27
2432.41	22.5
2433.33	24
2434.25	24.5
2435.17	24
2436.08	26
2437	24.5
2437.92	22
2438.84	22.5
2439.76	24.5
2440.68	26.5
2441.6	23.5
2442.51	23
2443.43	21
2444.35	25
2445.27	21
2446.19	21.5
2447.1	22
2448.02	22
2448.94	27.5
2449.85	26
2450.77	22
2451.69	25
2452.61	25
2453.52	27
2454.44	24
2455.35	25
2456.27	25
2457.19	24
2458.1	23.5
2459.02	23
2459.94	19
2460.85	22.5
2461.77	26.5
2462.68	23.5
2463.6	23
2464.51	23.5
2465.43	25
2466.34	18
2467.25	25
2468.17	27
2469.08	25.5
2470	24.5
2470.91	23
2471.83	26.5
2472.74	23
2473.65	21.5
2474.57	22
2475.48	20
2476.39	27
2477.31	26
2478.22	24.5
2479.13	26
2480.04	22.5
2480.96	26.5
2481.87	21.5
2482.78	25
2483.69	19.5
2484.6	23.5
2485.52	22
2486.43	24
2487.34	24.5
2488.25	23.5
2489.16	20.5
2490.07	27
2490.99	25
2491.9	26.5
2492.81	27
2493.72	22
2494.63	25
2495.54	28.5
2496.45	23.5
2497.36	23.5
2498.27	25
2499.18	27.5
2500.09	23.5
2501	29.5
2501.91	22
2502.82	26
2503.73	25
2504.63	28.5
2505.54	25
2506.45	25
2507.36	23
2508.27	24.5
2509.18	21
2510.09	28
2510.99	26.5
2511.9	25
2512.81	22
2513.72	28
2514.62	24
2515.53	22
2516.44	22
2517.35	22
2518.25	27
2519.16	21
2520.07	23.5
2520.97	23
2521.88	23
2522.79	28
2523.69	20
2524.6	23.5
2525.51	26
2526.41	26.5
2527.32	24
2528.22	21
2529.13	22
2530.03	28
2530.94	22
2531.84	22.5
2532.75	22
2533.65	27.5
2534.56	24
2535.46	26
2536.37	20.5
2537.27	23
2538.17	24
2539.08	26.5
2539.98	22
2540.89	30
2541.79	23
2542.69	22.5
2543.6	24
2544.5	24
2545.4	23
2546.31	18
2547.21	22.5
2548.11	25
2549.01	23.5
2549.92	23
2550.82	23.5
2551.72	25
2552.62	27.5
2553.52	27.5
2554.42	28
2555.33	25
2556.23	26.5
2557.13	22.5
2558.03	27
2558.93	24
2559.83	23.5
2560.73	27.5
2561.63	25
2562.53	28
2563.43	26.5
2564.33	24
2565.24	26
2566.13	21.5
2567.04	25.5
2567.93	27.5
2568.83	28
2569.73	23
2570.63	28
2571.53	25
2572.43	26.5
2573.33	23
2574.23	28
2575.13	22
2576.03	23.5
2576.92	28.5
2577.82	24
2578.72	19
2579.62	25
2580.52	21
2581.41	25
2582.31	23
2583.21	27.5
2584.11	22
2585	23.5
2585.9	21.5
2586.8	21
2587.69	24.5
2588.59	24
2589.49	27
2590.38	23.5
2591.28	26
2592.18	27
2593.07	21
2593.97	24
2594.86	24
2595.76	21.5
2596.66	22
2597.55	24
2598.45	25
2599.34	25.5
2600.24	25
2601.13	24.5
2602.03	25.5
2602.92	26
2603.81	24
2604.71	25
2605.6	27
2606.5	26
2607.39	23.5
2608.28	24
2609.18	24
2610.07	24.5
2610.97	26.5
2611.86	23
2612.75	27
2613.64	23
2614.54	23
2615.43	25
2616.32	24
2617.22	27
2618.11	25.5
2619	23.5
2619.89	20.5
2620.78	23
2621.68	25
2622.57	23.5
2623.46	26.5
2624.35	25.5
2625.24	20
2626.13	24
2627.02	21
2627.91	25.5
2628.81	25
2629.7	25
2630.59	22
2631.48	26
2632.37	24.5
2633.26	25.5
2634.15	26.5
2635.04	23
2635.93	26.5
2636.82	23
2637.71	24
2638.59	27
2639.48	21.5
2640.37	25.5
2641.26	26
2642.15	25.5
2643.04	27.5
2643.93	29
2644.82	23
2645.71	18
2646.59	25.5
2647.48	25
2648.37	27
2649.26	23
2650.15	23.5
2651.03	21
2651.92	23.5
2652.81	25.5
2653.69	27
2654.58	23
2655.47	22
2656.35	25
2657.24	23
2658.13	26
2659.01	21
2659.9	27
2660.79	26
2661.67	26.5
2662.56	22.5
2663.44	25
2664.33	25.5
2665.22	20.5
2666.1	28
2666.99	23.5
2667.87	22
2668.76	23.5
2669.64	26
2670.52	24
2671.41	23.5
2672.29	24
2673.18	25.5
2674.06	24
2674.95	26.5
2675.83	26.5
2676.71	20
2677.6	26
2678.48	28
2679.36	24.5
2680.25	27
2681.13	23.5
2682.01	22.5
2682.9	26
2683.78	23
2684.66	23.5
2685.55	25.5
2686.43	22
2687.31	24.5
2688.19	26.5
2689.07	24
2689.96	27
2690.84	25
2691.72	23.5
2692.6	24
2693.48	22.5
2694.36	22
2695.24	25
2696.12	26
2697	28
2697.89	24
2698.77	24
2699.65	23
2700.53	23
2701.41	28
2702.29	21.5
2703.17	28.5
2704.05	26
2704.93	23
2705.81	24.5
2706.69	25.5
2707.57	23
2708.44	26
2709.32	21
2710.2	24.5
2711.08	22.5
2711.96	23
2712.84	23
2713.72	28
2714.59	26.5
2715.47	24
2716.35	23.5
2717.23	22
2718.11	26
2718.98	29
2719.86	23
2720.74	26
2721.62	22.5
2722.49	24
2723.37	21
2724.25	25
2725.12	26.5
2726	24
2726.88	27
2727.75	29.5
2728.63	28.5
2729.51	24
2730.38	22
2731.26	24
2732.13	26.5
2733.01	25
2733.88	24
2734.76	25
2735.63	23.5
2736.51	24.5
2737.38	22
2738.26	24.5
2739.13	23
2740.01	26
2740.88	27
2741.76	27
2742.63	21.5
2743.5	23
2744.38	21.5
2745.25	24.5
2746.13	24
2747	29.5
2747.87	27.5
2748.75	26.5
2749.62	25
2750.49	26.5
2751.36	23.5
2752.24	20
2753.11	24
2753.98	21.5
2754.86	23.5
2755.73	25.5
2756.6	24
2757.47	26
2758.34	28
2759.22	21.5
2760.09	24
2760.96	24
2761.83	24.5
2762.7	19.5
2763.57	22.5
2764.44	28.5
2765.31	28
2766.18	26.5
2767.06	21.5
2767.93	23.5
2768.8	24
2769.67	27.5
2770.54	22
2771.41	23.5
2772.28	24
2773.15	22
2774.02	28.5
2774.89	24
2775.75	26
2776.62	27.5
2777.49	23
2778.36	26
2779.23	21.5
2780.1	22
2780.97	22
2781.84	27.5
2782.71	26.5
2783.57	25
2784.44	23
2785.31	26
2786.18	24
2787.04	23.5
2787.91	27
2788.78	27.5
2789.65	27
2790.51	26.5
2791.38	27
2792.25	26
2793.12	22.5
2793.98	25
2794.85	27.5
2795.72	25.5
2796.58	28.5
2797.45	20
2798.31	25
2799.18	23
2800.05	29
2800.91	28.25
2801.78	26.5
2802.64	24
2803.51	25.5
2804.37	30
2805.24	24
2806.1	24
2806.97	25
2807.83	26
2808.7	28.5
2809.56	28.5
2810.43	25.5
2811.29	25
2812.15	26
2813.02	24.5
2813.88	29
2814.75	22
2815.61	25
2816.47	27
2817.34	28
2818.2	23
2819.06	28.5
2819.92	20
2820.79	24
2821.65	27
2822.51	26.5
2823.37	24
2824.24	28
2825.1	24.5
2825.96	29.5
2826.82	28
2827.69	24.5
2828.55	23.5
2829.41	20
2830.27	25.5
2831.13	22.5
2831.99	28
2832.85	27.5
2833.71	30
2834.58	25.5
2835.44	27
2836.3	26
2837.16	27.5
2838.02	20.5
2838.88	28.5
2839.74	25.5
2840.6	29
2841.46	21
2842.32	27.5
2843.18	26
2844.04	24.5
2844.9	25.5
2845.75	21.5
2846.61	24
2847.47	25.5
2848.33	24
2849.19	27
2850.05	21.5
2850.91	25
2851.77	25
2852.62	23.5
2853.48	24.5
2854.34	27
2855.2	23
2856.06	26.5
2856.91	26.5
2857.77	27.5
2858.63	25.5
2859.48	25
2860.34	27
2861.2	25.5
2862.06	25.5
2862.91	28
2863.77	28.5
2864.63	25.5
2865.48	30.5
2866.34	26.5
2867.19	27
2868.05	27.5
2868.91	27.5
2869.76	27.5
2870.62	25
2871.47	32
2872.33	25.5
2873.18	28
2874.04	32.5
2874.89	26.5
2875.75	29
2876.6	31.5
2877.46	27.5
2878.31	31.5
2879.17	32
2880.02	31.5
2880.88	33
2881.73	30.5
2882.58	36.5
2883.44	33.5
2884.29	37
2885.14	31
2886	33.5
2886.85	35
2887.7	36
2888.56	37.5
2889.41	35
2890.26	38
2891.12	39.5
2891.97	40
2892.82	38
2893.67	44.5
2894.52	43.5
2895.38	45.5
2896.23	46.5
2897.08	50
2897.93	52
2898.78	60
2899.64	55
2900.49	62
2901.34	61.5
2902.19	71
2903.04	65
2903.89	70.5
2904.74	72
2905.59	70
2906.44	70
2907.29	72.5
2908.14	69.5
2908.99	68
2909.84	68.5
2910.69	57
2911.54	60.5
2912.39	59
2913.24	57.5
2914.09	49
2914.94	47
2915.79	46.5
2916.64	42
2917.49	41
2918.34	39.5
2919.18	36.5
2920.03	31
2920.88	32
2921.73	39
2922.58	32
2923.42	37
2924.27	31.5
2925.12	35
2925.97	33.5
2926.82	32
2927.66	31
2928.51	26.5
2929.36	28
2930.2	26.5
2931.05	29
2931.9	29.5
2932.74	28
2933.59	26.5
2934.44	27.5
2935.28	28
2936.13	29.5
2936.98	24
2937.82	29.5
2938.67	29
2939.51	30.5
2940.36	26
2941.2	32
2942.05	23.5
2942.9	32.5
2943.74	29
2944.58	28.5
2945.43	29.5
2946.27	28.5
2947.12	23
2947.96	30.5
2948.81	27.5
2949.65	26.5
2950.5	31.5
2951.34	29
2952.18	30.5
2953.03	31
2953.87	35
2954.71	34.5
2955.56	33.5
2956.4	34.5
2957.24	35.5
2958.09	36.5
2958.93	39
2959.77	39.5
2960.62	42
2961.46	39.5
2962.3	46
2963.14	42.5
2963.98	41
2964.83	43
2965.67	43.5
2966.51	44
2967.35	41.5
2968.19	40.5
2969.04	44
2969.88	40
2970.72	40.5
2971.56	38.4782
2972.4	38.8972
2973.24	35.9703
2974.08	38.4257
2974.92	34.0739
2975.76	35.3927
2976.6	31.7207
2977.44	35.617
2978.28	31.4324
2979.12	27.3329
2979.96	28.1361
2980.8	32.9842
2981.64	29.9735
2982.48	30.907
2983.32	29.4498
2984.16	30.5108
2985	27.6009
2985.84	29.5026
2986.68	25.7825
2987.52	33.3384
2988.35	25.5206
2989.19	29.7731
2990.03	26.8287
2990.87	28.2592
2991.71	27.5018
2992.55	26.9068
2993.38	23.5945
2994.22	26.9068
2995.06	25.88
2995.9	30.0079
2996.73	27.1044
2997.57	25.0002
2998.41	26.4792
2999.25	23.8318
3000.08	23.2262
3000.92	23.8222
3001.76	21.3888
3002.59	26.9387
3003.43	24.6409
3004.27	23.2168
3005.1	23.8509
3005.94	24.7926
3006.78	23.0064
3007.61	21.9223
3008.45	22.6029
3009.28	22.9016
3010.12	25.4492
3010.95	22.172
3011.79	23.4289
3012.62	24.0442
3013.46	22.8184
3014.29	24.8603
3015.13	22.89
3015.96	20.3827
3016.8	23.4391
3017.63	24.276
3018.47	23.615
3019.3	21.6449
3020.14	24.1729
3020.97	23.5621
3021.8	22.7004
3022.64	24.2657
3023.47	23.6515
3024.3	23.8477
3025.14	24.1136
3025.97	22.351
3026.8	22.2805
3027.64	21.6181
3028.47	23.5985
3029.3	23.1516
3030.14	21.5686
3030.97	23.7646
3031.8	23.2702
3032.63	21.9438
3033.46	23.9077
3034.3	26.6216
3035.13	23.7688
3035.96	21.9014
3036.79	23.2136
3037.62	22.1578
3038.46	21.9934
3039.29	20.9118
3040.12	21.5152
3040.95	22.0143
3041.78	21.8604
3042.61	21.6171
3043.44	23
3044.27	22.9959
3045.1	23.4414
3045.93	22.3381
3046.76	20.4414
3047.59	20.6385
3048.42	21.4551
3049.25	21.6996
3050.08	21.32
3050.91	20.9943
3051.74	22.2524
3052.57	22.3994
3053.4	23.1592
3054.23	23.9408
3055.06	22.2627
3055.89	19.92
3056.72	22.8412
3057.32	25
3058.15	23
3058.98	22.5
3059.82	24.5
3060.65	24
3061.48	20
3062.31	25
3063.15	22
3063.98	24.5
3064.81	21.5
3065.64	21
3066.48	23.5
3067.31	24
3068.14	25.5
3068.97	24.5
3069.8	20
3070.63	19
3071.47	23
3072.3	24.5
3073.13	24
3073.96	22
3074.79	23.5
3075.62	23
3076.45	25.5
3077.28	26
3078.11	24
3078.94	23.5
3079.77	24
3080.6	24
3081.43	19.5
3082.26	25
3083.09	22.5
3083.92	19
3084.75	25.5
3085.58	23
3086.41	23.5
3087.24	22
3088.07	25
3088.9	23.5
3089.73	26
3090.55	24.5
3091.38	22.5
3092.21	22
3093.04	26.5
3093.87	23.5
3094.7	24
3095.52	24.5
3096.35	23.5
3097.18	22.5
3098.01	25
3098.84	19
3099.66	22.5
3100.49	18
3101.32	24
3102.14	24.5
3102.97	25.5
3103.8	25
3104.62	24
3105.45	20
3106.28	23
3107.1	21
3107.93	21.5
3108.76	23.5
3109.58	22
3110.41	27.5
3111.23	21
3112.06	24.5
3112.89	21
3113.71	21.5
3114.54	23
3115.36	23.5
3116.19	20.5
3117.01	24
3117.84	20
3118.66	21.5
3119.49	22
3120.31	24
3121.13	23
3121.96	26
3122.78	20.5
3123.61	23.5
3124.43	20
3125.25	25
3126.08	24
3126.9	26
3127.73	21
3128.55	27.5
3129.37	26
3130.19	22.5
3131.02	23
3131.84	20
3132.66	20.5
3133.49	21
3134.31	22
3135.13	22
3135.95	23
3136.78	25
3137.6	25
3138.42	23.5
3139.24	19.5
3140.06	26.5
3140.88	22.5
3141.71	25.5
3142.53	20
3143.35	23
3144.17	26
3144.99	23
3145.81	23.5
3146.63	24.5
3147.45	26.5
3148.27	24.5
3149.09	21
3149.91	22
3150.73	23
3151.56	21
3152.37	22
3153.2	24.5
3154.01	26.5
3154.83	22
3155.65	25
3156.47	23
3157.29	22
3158.11	25
3158.93	24.5
3159.75	20
3160.57	24.5
3161.39	25.5
3162.21	23.5
3163.02	22
3163.84	23.5
3164.66	19.5
3165.48	23
3166.3	22
3167.11	21
3167.93	24
3168.75	24
3169.57	24
3170.39	21
3171.2	26
3172.02	25
3172.84	22
3173.65	25
3174.47	21
3175.29	22
3176.1	24.5
3176.92	25
3177.74	23
3178.55	23
3179.37	23
3180.19	25
3181	22.5
3181.82	24.5
3182.63	21.5
3183.45	23
3184.27	21
3185.08	23
3185.9	23
3186.71	24.5
3187.53	21
3188.34	28
3189.16	23.5
3189.97	22.5
3190.79	24
3191.6	23.5
3192.41	26
3193.23	20
3194.04	21.5
3194.86	26
3195.67	24.5
3196.48	25
3197.3	22
3198.11	27.5
3198.93	22
3199.74	21
3200.55	25
3201.36	22
3202.18	23.5
3202.99	26
3203.8	22
3204.62	27.5
3205.43	22
3206.24	28
3207.05	20.5
3207.87	19.5
3208.68	20
3209.49	23
3210.3	21.5
3211.11	27
3211.93	23.5
3212.74	22
3213.55	25.5
3214.36	24.5
3215.17	21.5
3215.98	24
3216.79	24
3217.6	20
3218.41	25.5
3219.22	23
3220.03	24.5
3220.85	23.5
3221.66	25
3222.47	18.5
3223.28	25
3224.09	21
3224.9	25.5
3225.71	24.5
3226.52	27.5
3227.33	21
3228.13	23
3228.94	24.5
3229.75	26.5
3230.56	26
3231.37	24
3232.18	22.5
3232.99	19
3233.8	25.5
3234.61	19
3235.41	21.5
3236.22	25.5
3237.03	19
3237.84	22
3238.65	24
3239.45	19.5
3240.26	22
3241.07	22
3241.88	22.5
3242.68	22.5
3243.49	27
3244.3	20.5
3245.1	23
3245.91	23
3246.72	23.5
3247.53	22.5
3248.33	23
3249.14	25
3249.95	24.5
3250.75	24
3251.56	21
3252.36	21
3253.17	24.5
3253.97	23
3254.78	24.5
3255.59	25.5
3256.39	24
3257.2	23.5
3258	23
3258.81	22
3259.61	22
3260.42	25
3261.22	23.5
3262.03	22.5
3262.83	23.5
3263.64	22.5
3264.44	21
3265.24	20
3266.05	25
3266.85	25.5
3267.66	25
3268.46	21
3269.26	25.5
3270.07	19
3270.87	24.5
3271.67	20.5
3272.48	24
3273.28	19
3274.08	24
3274.89	23.5
3275.69	22
3276.49	23
3277.29	26
3278.1	20.5
3278.9	21
3279.7	29
3280.5	24
3281.3	26.5
3282.11	20
3282.91	23.5
3283.71	21.5
3284.51	24.5
3285.31	23.5
3286.11	25
3286.91	24
3287.72	23.5
3288.52	25
3289.32	24.5
3290.12	22.5
3290.92	25
3291.72	20
3292.52	18.5
3293.32	21
3294.12	20
3294.92	20
3295.72	24
3296.52	23.5
3297.32	25.5
3298.12	22.5
3298.92	25.5
3299.72	23.5
3300.52	24
3301.32	25
3302.12	23.5
3302.92	19
3303.71	28
3304.51	22.5
3305.31	24
3306.11	23
3306.91	22
3307.71	26
3308.5	25.5
3309.3	24
3310.1	23
3310.9	20
3311.7	25
3312.49	29
3313.29	24.5
3314.09	25.5
3314.89	27.5
3315.68	22
3316.48	25
3317.28	24.5
3318.07	25.5
3318.87	21.5
3319.67	22
3320.46	27.5
3321.26	23
3322.06	27
3322.85	24
3323.65	24.5
3324.44	23.5
3325.24	23
3326.04	23.5
3326.83	24
3327.63	23
3328.42	25.5
3329.22	22
3330.01	25
3330.81	26.5
3331.6	24
3332.4	18.5
3333.19	25.5
3333.99	23.5
3334.78	25
3335.58	22.5
3336.37	22.5
3337.17	23
3337.96	23
3338.75	23.5
3339.55	21.5
3340.34	24
3341.13	22.5
3341.93	24
3342.72	23
3343.51	19
3344.31	23
3345.1	22
3345.89	23
3346.69	23.5
3347.48	22
3348.27	24.5
3349.06	24
3349.86	28.5
3350.65	29
3351.44	23
3352.23	22
3353.03	26
3353.82	26
3354.61	25
3355.4	26
3356.19	23.5
3356.98	23
3357.78	22
3358.57	22.5
3359.36	21
3360.15	27
3360.94	27.5
3361.73	22
3362.52	27.5
3363.31	23.5
3364.1	23
3364.89	25.5
3365.68	19.5
3366.47	26.5
3367.26	29.5
3368.05	24.5
3368.84	26.5
3369.63	25
3370.42	22.5
3371.21	26
3372	22
3372.79	24
3373.58	20.5
3374.37	21.5
3375.16	22.5
3375.95	22
3376.73	21
3377.52	26
3378.31	22.5
3379.1	22
3379.89	26.5
3380.68	21
3381.46	23.5
3382.25	26
3383.04	24
3383.83	24
3384.62	21.5
3385.4	24
3386.19	22
3386.98	22
3387.76	25.5
3388.55	24
3389.34	24
3390.13	27
3390.91	22.5
3391.7	25
3392.49	27
3393.27	23
3394.06	27.5
3394.84	26
3395.63	25.5
3396.42	24
3397.2	22.5
3397.99	23
3398.77	24.5
3399.56	20.5
3400.34	25
3401.13	25
3401.92	26
3402.7	24
3403.49	20.5
3404.27	21.5
3405.06	23.5
3405.84	22
3406.62	25.5
3407.41	26.5
3408.19	25
3408.98	22
3409.76	25
3410.55	26
3411.33	20
3412.11	24.5
3412.9	25
3413.68	23
3414.46	24
3415.25	19.5
3416.03	26
3416.81	23.5
3417.6	20.5
3418.38	22
3419.16	24.5
3419.95	25
3420.73	20
3421.51	20.5
3422.29	26.5
3423.08	22
3423.86	26
3424.64	26
3425.42	25
3426.2	26
3426.98	20
3427.77	20.5
3428.55	21.5
3429.33	26.5
3430.11	24.5
3430.89	22
3431.67	25
3432.45	22.5
3433.24	28.5
3434.02	22
3434.8	22.5
3435.58	25.5
3436.36	25
3437.14	25
3437.92	24.5
3438.7	22
3439.48	24.5
3440.26	25.5
3441.04	23.5
3441.82	24
3442.6	21.5
3443.38	22
3444.16	24
3444.94	26
3445.71	24
3446.49	28
3447.27	23.5
3448.05	24
3448.83	23
3449.61	22
3450.39	26.5
3451.17	21
3451.94	24
3452.72	23
3453.5	23.5
3454.28	20.5
3455.06	22
3455.83	17
3456.61	25
3457.39	22
3458.17	24.5
3458.94	24
3459.72	22
3460.5	27
3461.28	27.5
3462.05	24
3462.83	23
3463.61	26
3464.38	23
3465.16	23
3465.93	22
3466.71	23
3467.49	22.5
3468.26	23
3469.04	17.5
3469.82	24
3470.59	24
3471.37	23
3472.14	24
3472.92	27
3473.69	23
3474.47	23.5
3475.24	26.5
3476.02	25
3476.79	23
3477.57	23.5
3478.34	24.5
3479.12	25
3479.89	23
3480.67	24
3481.44	27.5
3482.21	17
3482.99	22
3483.76	23
3484.54	25
3485.31	27
3486.08	26
3486.86	26
3487.63	25.5
3488.4	26
3489.18	21
3489.95	23.5
3490.72	25.5
3491.5	27
3492.27	22.5
3493.04	26.5
3493.81	22
3494.59	27.5
3495.36	21
3496.13	20
3496.9	26
3497.67	22
3498.45	24
3499.22	19
3499.99	19
