#Acq. time (s)=	5
#Accumulations=	5
#Range (cm-¹)=	100...3500
#Windows=	4
#Autofocus=	Off
#AutoExposure=	Off
#Spike filter=	Multiple accum.
#Delay time (s)=	0
#Binning=	1
#Readout mode=	Signal
#DeNoise=	Off
#ICS correction=	Off
#Dark correction=	Off
#Inst. Process=	Off
#Instrument=	LabRAM HR Evol
#Detector=	Syncerity OE
#Objective=	x100_VIS
#Grating=	600 (500nm)
#ND Filter=	25%
#Laser=	633nm_Edge
#Hole=	100.021
#Range=	Visible
#Project=	verificaciones
#Sample=	a5
#Site=	plain
#Title=	bolusa5plain
#Remark=	
#Date=	09.01.2026 14:11
#Acquired=	09.01.2026 14:11:19
100.695	26.5
101.978	26.5
103.262	34
104.545	30
105.829	33.5
107.112	34
108.394	32.5
109.676	33.5
110.958	31.5
112.24	30.5
113.522	34
114.803	30.5
116.084	28.5
117.365	31
118.646	33
119.927	31
121.207	32
122.487	34
123.767	35.5
125.047	32.5
126.326	32
127.606	35.5
128.885	31.5
130.164	34.5
131.442	35.5
132.721	35
133.999	38.5
135.277	38.5
136.555	37
137.831	42
139.109	37.5
140.386	40
141.663	40
142.94	35
144.216	38
145.493	35.5
146.769	40.5
148.043	38
149.319	39
150.595	44.5
151.87	40
153.145	41.5
154.42	46
155.693	44.5
156.968	46.5
158.242	37
159.516	43.5
160.79	38.5
162.062	45.5
163.336	44
164.609	44.5
165.882	42
167.153	38.5
168.426	37
169.699	41
170.971	37.5
172.241	40
173.513	42.5
174.785	41
176.055	39
177.326	43
178.597	45
179.866	42
181.137	42.5
182.407	46.5
183.676	38.5
184.946	46
186.216	44.5
187.484	44
188.753	41.5
190.022	44
191.29	39.5
192.558	43
193.825	38
195.094	40.5
196.36	45
197.628	46.5
198.896	43
200.162	37
201.429	41.5
202.695	41
203.962	40.5
205.227	38.5
206.493	38.5
207.758	39.5
209.024	40
210.289	38
211.554	37
212.818	38.5
214.083	35.5
215.347	33
216.612	38.5
217.875	38
219.138	41
220.402	34
221.665	37
222.928	37
224.19	35.5
225.454	29
226.715	39
227.977	33
229.24	35.5
230.501	35
231.762	34
233.024	33
234.284	32.5
235.546	33.5
236.806	32
238.066	36.5
239.327	33.5
240.587	32.5
241.846	31
243.105	31.5
244.365	31
245.624	34.5
246.882	38
248.142	33.5
249.4	35
250.658	33
251.916	36
253.174	33.5
254.432	36
255.689	32
256.945	32
258.202	29
259.46	31
260.716	31
261.972	34.5
263.228	32
264.483	34
265.74	34
266.996	36
268.251	33.5
269.505	30.5
270.76	29.5
272.014	34
273.268	31
274.522	33.5
275.778	32.5
277.031	32
278.285	32
279.538	34
280.791	31
282.043	32
283.296	27
284.548	33
285.8	32
287.052	34
288.304	33.5
289.556	30.5
290.807	36.5
292.058	32.5
293.309	33
294.56	31
295.81	35
297.061	30.5
298.311	31.5
299.561	29.5
300.81	36
302.06	36
303.309	35
304.558	36.5
305.807	29
307.056	31
308.305	31.5
309.551	37
310.8	33
312.047	34
313.295	35.5
314.543	35
315.79	33.5
317.037	32.5
318.284	35
319.529	29.5
320.776	34
322.022	32
323.268	35.5
324.514	31
325.758	31
327.004	30.5
328.249	34.5
329.494	33.5
330.739	32.5
331.982	33
333.227	35.5
334.471	30.5
335.715	28.5
336.958	35
338.201	37.5
339.445	32.5
340.687	29
341.93	34
343.173	36.5
344.414	32
345.657	33.5
346.899	31.5
348.14	35
349.381	34
350.623	35
351.863	37.5
353.104	32
354.346	31
355.585	33
356.826	31.5
358.065	38
359.305	36
360.545	31
361.784	36
363.023	31.5
364.261	33
365.501	33.5
366.738	36.5
367.977	34
369.216	31.5
370.453	29
371.691	35.5
372.928	34
374.166	34.5
375.402	34
376.64	34
377.876	33
379.111	35
380.348	30.5
381.584	36
382.82	34
384.055	35
385.291	33.5
386.526	36
387.76	33
388.996	32
390.229	36.5
391.465	32
392.698	33.5
393.931	35
395.166	33.5
396.399	34
397.632	36
398.866	35.5
400.098	32
401.33	33.5
402.563	36.5
403.795	31
405.027	37
406.259	33
407.491	36.5
408.721	35.5
409.954	31
411.184	32
412.415	35
413.645	31
414.876	32.5
416.106	34
417.335	33
418.565	33
419.794	34
421.024	32
422.253	35.5
423.482	33.5
424.71	35
425.938	31
427.168	35
428.396	34
429.623	35
430.851	37
432.078	31.5
433.305	32.5
434.532	36
435.758	35
436.986	35
438.212	37
439.438	38
440.664	31.5
441.89	39
443.115	35.5
444.34	35.5
445.566	32
446.79	32.5
448.015	33.5
449.24	37
450.464	33.5
451.688	41
452.912	30.5
454.135	35.5
455.359	35
456.582	33.5
457.805	36
459.028	33
460.251	37
461.473	33
462.696	35
463.918	33.5
465.14	33
466.36	38
467.582	30.5
468.803	38.5
470.024	38
471.245	38
472.466	39
473.686	43.5
474.907	43
476.126	46.5
477.346	44.5
478.565	47.5
479.785	49.5
481.004	46.5
482.224	47
483.441	58
484.66	58.5
485.879	58
487.097	62
488.314	61
489.532	59
490.75	64.5
491.967	56.5
493.184	63
494.401	57
495.618	57
496.835	54
498.05	56.5
499.267	55.5
500.483	48.5
501.698	51.5
502.913	50.5
504.129	42
505.343	40.5
506.559	47
507.774	39
508.987	42.5
510.202	41
511.415	40.5
512.63	41.5
513.844	39.5
515.056	38
516.27	37
517.482	40.5
518.696	33.5
519.907	36
521.121	39
522.332	36.5
523.545	35.5
524.757	42
525.968	32
527.18	38
528.39	34.5
529.602	39.5
530.812	34
532.023	38.5
533.233	38
534.443	40
535.653	35
536.862	35.5
538.073	33.5
539.281	34
540.491	35.5
541.7	32
542.908	39.5
544.117	31
545.325	36
546.534	40
547.741	34
548.949	32
550.157	32.5
551.364	35
552.57	33
553.778	31
554.985	37
556.191	31
557.398	37.5
558.604	30
559.809	32.5
561.014	35.5
562.221	34.5
563.426	37
564.63	32.5
565.835	34.5
567.041	38
568.245	35.5
569.449	32
570.653	28.5
571.856	36.5
573.061	36
574.264	36
575.467	36
576.67	36
577.873	34
579.076	33
580.279	34.5
581.481	30.5
582.683	31.5
583.884	33.5
585.086	29.5
586.287	30.5
587.488	33.5
588.689	33.5
589.891	36
591.092	33.5
592.292	34
593.492	34
594.692	33.5
595.892	30
597.092	31
598.291	36
599.49	35
600.689	30.5
601.888	32
603.087	29
604.285	35
605.483	36
606.681	31
607.879	36
609.077	31.5
610.274	31.5
611.472	37
612.668	35
613.865	37.5
615.061	32
616.258	33
617.454	39
618.65	34
619.846	32.5
621.042	32
622.238	34
623.432	36
624.627	36
625.822	30
627.017	32.5
628.212	33.5
629.406	34
630.599	33
631.793	37.5
632.987	34.5
634.181	34
635.373	36.5
636.566	36.5
637.76	32
638.953	33
640.144	36.5
641.337	39.5
642.529	36
643.721	34
644.912	35.5
646.104	34.5
647.295	36.5
648.485	36
649.677	29
650.868	35
652.057	31
653.248	34.5
654.437	36
655.628	39
656.818	36
658.006	32
659.196	29
660.384	37
661.574	31.5
662.763	35
663.951	35
665.14	39
666.327	36.5
667.515	37.5
668.702	32
669.891	38.5
671.077	37
672.265	35
673.451	38
674.638	32
675.824	32
677.011	34.5
678.197	39.5
679.383	38
680.568	37
681.755	37
682.939	39.5
684.124	40
685.309	39.5
686.494	42.5
687.679	41
688.863	42
690.046	43
691.231	37.5
692.414	41.5
693.599	38.5
694.781	43
695.964	40
697.148	37
698.33	40
699.512	43
700.694	42.5
701.877	41.5
703.059	49
704.24	45.5
705.423	49
706.604	47
707.784	53.5
708.965	64
710.147	56
711.327	53
712.507	52.5
713.687	47
714.867	40.5
716.048	38
717.227	41
718.406	37
719.585	38
720.764	37.5
721.942	37
723.122	34
724.3	35
725.478	36.5
726.656	32
727.834	34.5
729.011	32
730.189	33
731.366	34
732.543	34.5
733.719	37
734.896	33
736.072	33
737.249	36.5
738.426	33
739.602	35
740.777	32
741.953	36.5
743.128	35.5
744.303	32
745.477	36
746.651	37.5
747.826	34.5
749	27
750.174	36
751.348	37.5
752.522	34
753.696	34
754.869	33
756.043	35
757.216	33
758.389	31.5
759.561	34
760.732	34
761.905	33
763.077	33.5
764.249	29.5
765.421	37.5
766.592	29
767.762	33
768.934	35
770.105	32.5
771.275	34.5
772.446	37.5
773.615	39.5
774.786	34.5
775.956	33
777.126	33.5
778.294	35.5
779.464	30
780.633	37
781.801	32.5
782.97	37
784.139	36.5
785.306	37
786.475	38.5
787.643	40
788.81	35.5
789.978	37.5
791.146	34
792.312	41
793.479	34.5
794.647	32
795.812	32.5
796.979	34
798.144	33.5
799.311	32.5
800.477	36
801.642	31
802.808	36
803.972	35
805.138	30
806.302	32
807.467	30.5
808.631	32.5
809.796	32
810.959	32
812.124	33
813.287	33
814.451	36
815.614	34
816.777	37
817.94	37.5
819.102	31.5
820.265	27.5
821.427	33
822.59	35.5
823.751	32
824.912	32.5
826.074	33
827.235	35
828.397	32.5
829.558	35
830.718	39
831.879	32.5
833.039	32
834.199	37
835.359	36
836.519	35
837.679	34
838.838	37.5
839.998	36.5
841.156	31.5
842.315	33.5
843.473	35.5
844.633	34
845.791	32
846.948	33.5
848.106	30
849.263	33
850.422	33.5
851.579	34
852.736	36
853.892	35
855.049	37.5
856.205	34.5
857.363	32
858.519	33.5
859.674	34.5
860.83	37
861.986	34
863.141	38.5
864.296	33
865.451	31
866.605	34
867.76	33
868.914	33
870.069	37.5
871.224	37
872.378	32
873.531	33
874.685	38.5
875.838	35
876.991	30.5
878.144	32
879.296	32.5
880.448	31.5
881.6	32
882.753	34
883.905	33
885.057	33
886.208	32.5
887.36	32
888.511	32
889.662	32.5
890.813	35
891.964	29
893.113	33
894.264	34.5
895.414	35
896.564	33
897.714	31
898.864	32.5
900.012	33
901.161	34.5
902.31	30
903.459	26
904.607	30.5
905.756	33.5
906.904	31
908.052	31.5
909.199	32
910.347	31
911.495	32
912.643	31.5
913.789	27
914.936	31.5
916.083	29
917.229	30
918.375	30
919.522	33
920.667	33.5
921.813	31.5
922.959	34
924.104	31.5
925.249	33.5
926.393	34
927.539	30.5
928.684	27.5
929.827	32
930.972	29
932.115	27
933.26	32
934.403	33
935.547	33
936.689	31.5
937.833	29
938.975	34.5
940.119	28
941.26	32
942.404	30.5
943.545	28
944.688	34
945.829	32.5
946.971	35
948.112	32.5
949.253	29
950.394	30.5
951.535	34.5
952.676	29
953.816	29
954.956	25.5
956.097	27
957.236	32
958.377	36
959.516	30
960.655	30.5
961.793	31.5
962.933	33
964.071	33
965.21	32.5
966.349	34
967.487	26
968.624	28.5
969.762	35
970.901	33.75
972.038	32.5
973.175	31
974.311	29
975.449	31
976.586	27.5
977.722	31
978.858	29.5
979.994	31
981.131	30
982.267	31
983.402	28
984.537	29.5
985.672	31
986.807	28
987.942	35
989.076	28
990.211	33.5
991.346	28
992.48	32.5
993.614	31
994.748	33
995.881	30
997.014	31
998.148	26.5
999.28	32
1000.41	33
1001.55	31.5
1002.68	36.5
1003.81	29.5
1004.94	30
1006.07	32
1007.21	27
1008.34	35.5
1009.47	30
1010.6	30.5
1011.73	28
1012.86	32
1013.99	32
1015.12	32.5
1016.25	28
1017.38	26
1018.51	29
1019.64	29
1020.77	27
1021.9	32.5
1023.03	29
1024.16	28.5
1025.29	32.5
1026.42	27.5
1027.54	32
1028.67	31.5
1029.8	33.5
1030.93	26
1032.06	32.5
1033.18	30.5
1034.31	32
1035.44	28
1036.56	27
1037.69	29
1038.82	28.5
1039.94	30
1041.07	26
1042.2	28
1043.32	31.5
1044.45	28
1045.57	31.5
1046.7	29.5
1047.82	28
1048.95	32.5
1050.07	27.5
1051.2	26.5
1052.32	23.5
1053.45	28
1054.57	29.5
1055.69	32.5
1056.82	31.5
1057.94	27
1059.06	28.5
1060.19	32.5
1061.31	28
1062.43	26
1063.55	31.5
1064.68	31
1065.8	33
1066.92	29.5
1068.04	27.5
1069.16	29
1070.28	31.5
1071.41	30
1072.53	30.5
1073.65	27.5
1074.77	28
1075.89	30.5
1077.01	30
1078.13	33
1079.25	30.5
1080.37	30.5
1081.49	27.5
1082.61	27
1083.73	23.5
1084.85	30.5
1085.96	30
1087.08	30
1088.2	32.5
1089.32	32
1090.44	27.5
1091.56	29
1092.67	33
1093.79	30
1094.91	29
1096.03	29
1097.14	29
1098.26	26
1099.38	30
1100.49	31.5
1101.61	26
1102.73	29.5
1103.84	28
1104.96	28.5
1106.07	30.5
1107.19	30
1108.3	30.5
1109.42	26
1110.53	27
1111.65	31.5
1112.76	26
1113.88	30
1114.99	36
1116.1	31
1117.22	27
1118.33	28
1119.44	25
1120.56	29.5
1121.67	26
1122.78	31
1123.9	25
1125.01	30
1126.12	28
1127.23	29
1128.34	32.5
1129.46	32.5
1130.57	30
1131.68	29.5
1132.79	24.5
1133.9	32.5
1135.01	29
1136.12	30
1137.23	28.5
1138.34	27.5
1139.45	26
1140.56	28.5
1141.67	28
1142.78	25
1143.89	29.5
1145	27
1146.11	29
1147.22	30
1148.33	31
1149.44	33
1150.54	27
1151.65	31
1152.76	29
1153.87	31
1154.97	31
1156.08	26
1157.19	31
1158.3	30.5
1159.4	30.5
1160.51	31
1161.62	28
1162.72	33
1163.83	32
1164.93	27
1166.04	26.5
1167.15	30.5
1168.25	26
1169.36	29.5
1170.46	31
1171.57	28
1172.67	27.5
1173.78	28.5
1174.88	32.5
1175.98	27
1177.09	28
1178.19	23
1179.3	25
1180.4	28.5
1181.5	25
1182.61	29
1183.71	30
1184.81	25
1185.91	26
1187.02	28.5
1188.12	25.5
1189.22	32
1190.32	27.5
1191.42	29
1192.53	28.5
1193.63	28
1194.73	28.9795
1195.83	29.911
1196.93	31.8204
1198.03	28.4779
1199.13	26.9252
1200.23	29.2495
1201.33	29.2472
1202.43	26.8099
1203.53	28.8699
1204.63	28.6483
1205.73	26.8513
1206.83	25.6911
1207.93	27.8162
1209.02	22.6664
1210.12	26.1881
1211.22	29.3776
1212.32	27.5636
1213.42	26.8585
1214.52	23.4113
1215.61	24.5282
1216.71	27.9703
1217.81	28.4365
1218.91	29.659
1220	27.2296
1221.1	27.2329
1222.2	28.5414
1223.29	26.8866
1224.39	26.1276
1225.49	25.75
1226.58	28.1671
1227.68	28.9568
1228.77	29.4814
1229.87	30.0678
1230.96	27.7546
1232.06	26.8678
1233.15	28.8027
1234.25	27.3764
1235.34	24.9002
1236.44	28.0975
1237.53	27.6494
1238.63	28.3145
1239.72	25.5554
1240.81	26.3593
1241.91	26.4119
1243	24.2875
1244.09	27.2296
1245.19	26.9732
1246.28	26.5831
1247.37	27.7621
1248.46	24.5659
1249.56	26.4958
1250.65	27.4894
1251.74	24.5239
1252.83	26.3497
1253.92	28.9386
1255.01	27.775
1256.11	29.2711
1257.2	28.7843
1258.29	29.7802
1259.38	29.1412
1260.47	29.2621
1261.56	26.6598
1262.65	27.1583
1263.74	25.2103
1264.83	27.3371
1265.92	29.2328
1267.01	29.2388
1268.1	28.6291
1269.19	28.2366
1270.27	24.5776
1271.36	26.7165
1272.45	23.267
1273.54	28.0697
1274.63	25.6299
1275.72	27.3379
1276.8	22.5515
1277.89	26.4564
1278.98	27.642
1280.07	25.5161
1281.15	24.4731
1282.24	25.4717
1283.33	27.6169
1284.41	22.0606
1285.5	24.9703
1286.59	25.2904
1287.67	25.6043
1288.76	25.0925
1289.84	26.4977
1290.93	25.5199
1292.01	25.8913
1293.1	24.6325
1294.19	24.3865
1295.27	27.2744
1296.35	27.3694
1297.44	25.8488
1298.52	25.2842
1299.61	24.8154
1300.69	25.8724
1301.78	27.1481
1302.86	25.6908
1303.94	25.0485
1305.03	23.5865
1306.11	25.2137
1306.4	26
1307.49	27
1308.57	24
1309.66	28
1310.75	27
1311.84	23
1312.92	24
1314.01	23.5
1315.1	25.5
1316.19	27
1317.27	25
1318.36	26.5
1319.45	24.5
1320.53	26
1321.62	25
1322.7	25.5
1323.79	25
1324.88	23.5
1325.96	23.5
1327.05	26
1328.13	25
1329.21	23.5
1330.3	27
1331.38	26.5
1332.47	27
1333.55	23
1334.64	24.5
1335.72	26
1336.8	27
1337.89	22
1338.97	28
1340.05	24.5
1341.14	25
1342.22	29
1343.3	24
1344.39	23
1345.47	28.5
1346.55	27.5
1347.63	28
1348.71	26
1349.79	27
1350.88	23.5
1351.96	27
1353.04	26.5
1354.12	24.5
1355.2	23.5
1356.28	24.5
1357.36	24
1358.44	29
1359.52	28.5
1360.6	26.5
1361.68	25
1362.76	24
1363.84	27.5
1364.92	23
1366	28
1367.08	26.5
1368.16	22
1369.23	23
1370.31	22
1371.39	24
1372.47	27
1373.55	25
1374.62	27
1375.7	24
1376.78	26.5
1377.85	23.5
1378.93	27.5
1380.01	25.5
1381.09	20
1382.16	27.5
1383.24	28.5
1384.31	26
1385.39	24
1386.47	27.5
1387.54	25.5
1388.62	23.5
1389.69	27
1390.77	27.5
1391.84	23.5
1392.92	24.5
1393.99	30.5
1395.06	25
1396.14	27.5
1397.21	27
1398.29	27
1399.36	29
1400.43	27
1401.51	29
1402.58	32.5
1403.65	31.5
1404.73	28.5
1405.8	31
1406.87	32.5
1407.94	32
1409.02	31
1410.09	30
1411.16	28.5
1412.23	33
1413.3	27
1414.37	32
1415.45	27.5
1416.52	31
1417.59	30.5
1418.66	28.5
1419.73	26
1420.8	25
1421.87	28
1422.94	29
1424.01	31
1425.08	27
1426.15	26.5
1427.22	27.5
1428.29	27.5
1429.35	31
1430.42	27
1431.49	28.5
1432.56	23
1433.63	25
1434.7	29.5
1435.77	29
1436.83	26
1437.9	26.5
1438.97	26
1440.04	26.5
1441.1	29
1442.17	27.5
1443.24	26
1444.3	25.5
1445.37	29
1446.44	24.5
1447.5	26.5
1448.57	29
1449.63	29.5
1450.7	29
1451.76	27.5
1452.83	24.5
1453.89	25.5
1454.96	26
1456.02	26
1457.09	25
1458.15	24
1459.22	27.5
1460.28	24.5
1461.34	28.5
1462.41	25.5
1463.47	27.5
1464.54	26.5
1465.6	25
1466.66	25
1467.72	26
1468.79	26
1469.85	26
1470.91	23
1471.97	27
1473.04	30.5
1474.1	22.5
1475.16	25.5
1476.22	24
1477.28	26.5
1478.34	22.5
1479.4	27.5
1480.47	25.5
1481.53	23
1482.59	25
1483.65	26
1484.71	23
1485.77	26.5
1486.83	29.5
1487.89	23.5
1488.95	25.5
1490.01	28.5
1491.07	30.5
1492.12	28
1493.18	26
1494.24	30
1495.3	23
1496.36	28
1497.42	25.5
1498.47	24.5
1499.53	23.5
1500.59	29
1501.65	27
1502.7	30.5
1503.76	23.5
1504.82	23
1505.88	24.5
1506.93	28
1507.99	28.5
1509.05	25.5
1510.1	27.5
1511.16	26.5
1512.21	26.5
1513.27	26
1514.32	27.5
1515.38	25
1516.43	24.5
1517.49	25.5
1518.54	27.5
1519.6	25.5
1520.65	23
1521.71	24.5
1522.76	26
1523.82	24.5
1524.87	28
1525.92	26.5
1526.98	27
1528.03	22.5
1529.08	27.5
1530.14	29
1531.19	26.5
1532.24	31
1533.3	29.5
1534.35	27
1535.4	28
1536.45	32
1537.5	21
1538.56	26
1539.61	26.5
1540.66	27
1541.71	25.5
1542.76	26.5
1543.81	25.5
1544.86	25
1545.91	30
1546.96	26.5
1548.01	25.5
1549.06	27.5
1550.11	26
1551.16	27
1552.21	25
1553.26	23
1554.31	25.5
1555.36	26
1556.41	25.5
1557.46	28
1558.51	23
1559.55	26
1560.6	28
1561.65	30.5
1562.7	25
1563.75	29.5
1564.79	26
1565.84	26.5
1566.89	28
1567.94	30
1568.98	26.5
1570.03	26.5
1571.07	29
1572.12	20
1573.17	25.5
1574.21	25
1575.26	28.5
1576.31	26.5
1577.35	27
1578.4	24
1579.44	27
1580.49	24
1581.53	27
1582.58	23
1583.62	28
1584.67	25.5
1585.71	27
1586.75	32
1587.8	25
1588.84	27
1589.89	28
1590.93	26
1591.97	22.5
1593.02	27
1594.06	25
1595.1	28
1596.14	27
1597.19	26
1598.23	24.5
1599.27	24
1600.31	23.5
1601.35	22
1602.4	22
1603.44	28
1604.48	26.5
1605.52	27.5
1606.56	22
1607.6	26
1608.64	22.5
1609.68	24
1610.72	24
1611.76	23
1612.8	26.5
1613.84	25.5
1614.88	26
1615.92	27.5
1616.96	26.5
1618	27
1619.04	30
1620.08	27
1621.12	24.5
1622.16	23
1623.19	24
1624.23	27
1625.27	29
1626.31	24
1627.35	27
1628.38	26
1629.42	27.5
1630.46	26
1631.5	28
1632.53	28
1633.57	25
1634.61	28
1635.64	26
1636.68	29.5
1637.71	28
1638.75	28.5
1639.79	23
1640.82	27
1641.86	29
1642.89	27
1643.93	24.5
1644.96	27.5
1646	27
1647.03	27.5
1648.07	23
1649.1	27.5
1650.14	25
1651.17	27.5
1652.2	26.5
1653.24	29.5
1654.27	24
1655.3	26.5
1656.34	24
1657.37	28.5
1658.4	25.5
1659.44	26
1660.47	30
1661.5	21.5
1662.53	25.5
1663.57	26.5
1664.6	25.5
1665.63	29.5
1666.66	29
1667.69	24
1668.72	25
1669.75	24
1670.79	25
1671.82	23.5
1672.85	24.5
1673.88	25.5
1674.91	27
1675.94	23
1676.97	25.5
1678	28
1679.03	23.5
1680.06	25.5
1681.09	25
1682.11	26.5
1683.14	25.5
1684.17	24
1685.2	24.5
1686.23	30
1687.26	24.5
1688.29	23
1689.32	28.5
1690.34	26
1691.37	26.5
1692.4	27.5
1693.43	26
1694.45	22
1695.48	28
1696.51	25.5
1697.53	25
1698.56	27
1699.59	27
1700.61	25.5
1701.64	21
1702.66	21
1703.69	23
1704.72	24.5
1705.74	25
1706.77	23.5
1707.79	26
1708.82	24
1709.84	21
1710.87	25.5
1711.89	28
1712.92	26
1713.94	24
1714.96	23
1715.99	24
1717.01	26.5
1718.04	27.5
1719.06	27.5
1720.08	25
1721.11	25
1722.13	24.5
1723.15	31.5
1724.17	27.5
1725.2	28.5
1726.22	29
1727.24	31
1728.26	27
1729.28	27.5
1730.31	23.5
1731.33	22
1732.35	25.5
1733.37	24
1734.39	22
1735.41	23.5
1736.43	21.5
1737.45	22
1738.47	26.5
1739.49	26
1740.51	25
1741.53	28.5
1742.55	29
1743.57	28
1744.59	27.5
1745.61	26
1746.63	20.5
1747.65	29
1748.67	26
1749.69	26
1750.71	24
1751.72	27.5
1752.74	24.5
1753.76	25.5
1754.78	26.5
1755.8	29
1756.81	29.5
1757.83	25
1758.85	27
1759.86	28
1760.88	30.5
1761.9	27
1762.91	24.5
1763.93	26
1764.95	26.5
1765.96	24.5
1766.98	23.5
1768	26
1769.01	24.5
1770.03	27
1771.04	26
1772.06	25
1773.07	22
1774.09	27.5
1775.1	24.5
1776.12	25
1777.13	25
1778.14	27
1779.16	25.5
1780.17	26
1781.19	24.5
1782.2	25
1783.21	25.5
1784.23	24.5
1785.24	23
1786.25	27
1787.27	27.5
1788.28	21
1789.29	23
1790.3	24
1791.32	27.5
1792.33	26
1793.34	24.5
1794.35	23.5
1795.36	24
1796.37	25
1797.38	25.5
1798.4	23
1799.41	27.5
1800.42	23.5
1801.43	26
1802.44	27.5
1803.45	25
1804.46	25
1805.47	26
1806.48	28
1807.49	28
1808.5	21
1809.51	27
1810.52	27
1811.53	23
1812.53	27.5
1813.54	24
1814.55	18.5
1815.56	23.5
1816.57	26
1817.58	24
1818.58	27.5
1819.59	26.5
1820.6	20
1821.61	27.5
1822.61	24.5
1823.62	26
1824.63	25
1825.64	26
1826.64	24.5
1827.65	23.5
1828.66	26
1829.66	26
1830.67	27
1831.67	25
1832.68	24
1833.68	27.5
1834.69	24.5
1835.7	22
1836.7	24.5
1837.71	27
1838.71	25
1839.71	23
1840.72	24
1841.72	25
1842.73	23
1843.73	22
1844.74	26
1845.74	23.5
1846.74	24.5
1847.75	24.5
1848.75	25.5
1849.75	23.5
1850.76	23.5
1851.76	21
1852.76	23
1853.76	25.5
1854.77	25.5
1855.77	26.5
1856.77	24
1857.77	25
1858.77	28
1859.78	27
1860.78	26
1861.78	25.5
1862.78	25
1863.78	24
1864.78	30.5
1865.78	24.5
1866.78	25.5
1867.78	25
1868.78	25.5
1869.78	25
1870.78	26.5
1871.78	29
1872.78	26
1873.78	24.5
1874.78	26
1875.78	22
1876.78	24.5
1877.78	25
1878.78	25
1879.77	25
1880.77	26.5
1881.77	25
1882.77	28
1883.77	28
1884.76	24.5
1885.76	22
1886.76	25
1887.76	28
1888.75	27.5
1889.75	25.5
1890.75	22.5
1891.74	26
1892.74	27
1893.74	25
1894.73	23
1895.73	23.5
1896.72	26.5
1897.72	24.5
1898.72	26
1899.71	26
1900.71	28
1901.7	24.5
1902.7	31
1903.69	25
1904.69	26.5
1905.68	24
1906.67	23
1907.67	27
1908.66	27
1909.66	28.5
1910.65	24
1911.64	27.5
1912.64	22
1913.63	23
1914.62	24.5
1915.62	25.5
1916.61	28.5
1917.6	27
1918.59	26
1919.59	22.5
1920.58	23.5
1921.57	21
1922.56	23
1923.55	24.5
1924.55	24.5
1925.54	25.5
1926.53	22
1927.52	24.5
1928.51	23
1929.5	26
1930.49	24
1931.48	29
1932.47	27
1933.46	25
1934.45	19.5
1935.44	25.5
1936.43	28
1937.42	26
1938.41	25.5
1939.4	25.5
1940.39	22
1941.38	24
1942.37	20
1943.36	21
1944.34	27
1945.33	25.5
1946.32	21.5
1947.31	28.5
1948.3	26
1949.28	23.5
1950.27	25.5
1951.26	24
1952.25	22
1953.23	26
1954.22	25.5
1955.21	24
1956.2	23.5
1957.18	26
1958.17	27.5
1959.15	25
1960.14	26
1961.13	22
1962.11	26
1963.1	22.5
1964.08	24
1965.07	24
1966.05	20
1967.04	21.5
1968.02	26.5
1969.01	29.5
1969.99	26
1970.98	22.5
1971.96	28.5
1972.94	25
1973.93	28.5
1974.91	23.5
1975.9	20
1976.88	22.5
1977.86	23
1978.85	27.5
1979.83	25.5
1980.81	28
1981.8	25
1982.78	23
1983.76	24
1984.74	23.5
1985.72	25.5
1986.71	25
1987.69	21.5
1988.67	25.5
1989.65	26
1990.63	26
1991.61	24
1992.6	27
1993.58	25
1994.56	26
1995.54	23.5
1996.52	23
1997.5	21.5
1998.48	21.5
1999.46	25
2000.44	21.5
2001.42	23
2002.4	24
2003.38	25
2004.36	21
2005.34	24
2006.32	27
2007.29	27
2008.27	26
2009.25	24
2010.23	25.5
2011.21	22
2012.19	25
2013.16	20.5
2014.14	25
2015.12	21
2016.1	23
2017.07	21
2018.05	25.5
2019.03	20
2020	24
2020.98	24
2021.96	24
2022.93	24
2023.91	22
2024.89	23.5
2025.86	24.5
2026.84	25.5
2027.81	23
2028.79	25
2029.77	24
2030.74	25
2031.72	25.5
2032.69	21.5
2033.67	27.5
2034.64	25
2035.61	21.5
2036.59	25.5
2037.56	27
2038.54	27.5
2039.51	23
2040.48	19
2041.46	25.5
2042.43	24
2043.41	27.5
2044.38	21.5
2045.35	24.5
2046.32	25.5
2047.3	18.5
2048.27	25
2049.24	25.5
2050.21	25
2051.19	21
2052.16	22
2053.13	22.5
2054.1	23
2055.07	24.5
2056.04	22
2057.02	26
2057.99	27.5
2058.96	23
2059.93	26
2060.9	22
2061.87	23
2062.84	21
2063.81	26.5
2064.78	24
2065.75	22
2066.72	19
2067.69	25.5
2068.66	23
2069.63	20.5
2070.6	21.5
2071.57	24.5
2072.53	22
2073.5	21.5
2074.47	21.5
2075.44	26.5
2076.41	24
2077.38	23
2078.34	24
2079.31	22.5
2080.28	28
2081.25	21.5
2082.21	24
2083.18	19
2084.15	24.5
2085.12	25.5
2086.08	27.5
2087.05	21
2088.02	23
2088.98	24
2089.95	23
2090.91	22
2091.88	25
2092.85	22.5
2093.81	23
2094.78	22
2095.74	26
2096.71	23.5
2097.67	24.5
2098.64	23
2099.6	26
2100.57	24.5
2101.53	24
2102.5	23
2103.46	23
2104.42	23
2105.39	24.5
2106.35	27
2107.31	22
2108.28	25.5
2109.24	25.5
2110.2	22.5
2111.17	21.5
2112.13	24.5
2113.09	27
2114.06	20
2115.02	23
2115.98	26
2116.94	23
2117.9	23
2118.86	21
2119.83	26
2120.79	25.5
2121.75	24
2122.71	23
2123.67	23
2124.63	25.5
2125.59	25.5
2126.55	22
2127.51	24
2128.48	23.5
2129.43	20.5
2130.4	26.5
2131.35	25
2132.31	24.5
2133.27	23.5
2134.23	20.5
2135.19	30.5
2136.15	23.5
2137.11	23
2138.07	19.5
2139.03	21
2139.99	23.5
2140.95	25
2141.9	27
2142.86	21.5016
2143.82	24.4335
2144.78	24.0157
2145.74	24.0389
2146.69	25.4629
2147.65	27.7509
2148.61	21.2754
2149.56	22.5457
2150.52	23.1219
2151.48	18.8241
2152.44	23.4871
2153.39	20.2795
2154.35	21.967
2155.3	23.1622
2156.26	23.2652
2157.22	20.9652
2158.17	21.4111
2159.13	24.5013
2160.08	20.6522
2161.04	21.9895
2161.99	24.8624
2162.95	22.25
2163.9	21.7777
2164.86	20.9417
2165.81	21.0999
2166.77	22.2101
2167.72	22.4115
2168.68	23.4113
2169.63	22.0572
2170.58	22.3612
2171.54	24.7448
2172.49	24.034
2173.44	24.015
2174.4	20.6537
2175.35	19.8802
2176.3	22.9612
2177.26	21.1556
2178.21	20.682
2179.16	22.6285
2180.11	22.3129
2181.07	23.6005
2182.02	22.132
2182.97	22.4374
2183.92	23.0558
2184.88	23.8086
2185.83	22.887
2186.78	21.3705
2187.73	23.3155
2188.68	21.6428
2189.63	24.4413
2190.58	21.9343
2191.53	23.2837
2192.48	24.0621
2193.43	27.2046
2194.38	23.305
2195.33	20.5629
2196.28	21.4638
2197.23	23.5042
2198.18	24.9374
2199.13	24.232
2200.08	23.7625
2201.03	22.6258
2201.98	22.1992
2202.93	24.8992
2203.88	20.1407
2204.83	23.049
2205.78	18.6978
2206.72	21.593
2207.67	24.2523
2208.62	23.6594
2209.57	24.8601
2210.52	22.6027
2211.46	20.2351
2212.41	21.2802
2213.36	21.7817
2214.31	22.6409
2215.25	22.6598
2216.2	20.9618
2217.15	21.4287
2218.09	21.9616
2219.04	21.0814
2219.99	22.6837
2220.93	22.145
2221.88	20.048
2222.83	21.9597
2223.77	21.0887
2224.72	23.3433
2225.66	22.3299
2226.61	23.7347
2227.55	22.6316
2228.5	24.845
2229.44	21.9225
2230.39	22.9042
2231.33	22.8086
2232.28	25.8594
2233.22	22.1959
2234.17	23.0593
2235.11	22.0503
2236.05	23.9548
2237	23.227
2237.94	23.4711
2238.88	20.0227
2239.83	21.7261
2240.04	22.5
2240.98	27
2241.93	23.5
2242.88	25.5
2243.83	27
2244.78	21
2245.72	18
2246.67	20
2247.62	24.5
2248.56	18.5
2249.51	21
2250.46	21.5
2251.4	25
2252.35	21
2253.3	21
2254.24	24.5
2255.19	25.5
2256.14	20.5
2257.08	27
2258.03	22.5
2258.97	23
2259.92	22.5
2260.86	26.5
2261.81	23.5
2262.75	23
2263.7	24.5
2264.64	26.5
2265.59	24
2266.53	22.5
2267.48	25.5
2268.42	25.5
2269.36	23
2270.31	20
2271.25	22.5
2272.19	21.5
2273.14	28
2274.08	26
2275.02	22
2275.97	24
2276.91	19
2277.85	20
2278.8	22
2279.74	24.5
2280.68	21
2281.62	22.5
2282.56	24
2283.51	21.5
2284.45	21.5
2285.39	23
2286.33	24
2287.27	24.5
2288.21	24
2289.15	20.5
2290.09	26.5
2291.04	24
2291.98	23
2292.92	25
2293.86	21
2294.8	23
2295.74	24.5
2296.68	21
2297.62	23
2298.56	25
2299.5	24
2300.44	21
2301.37	25
2302.31	22
2303.25	23.5
2304.19	23
2305.13	25
2306.07	23
2307.01	20.5
2307.94	20.5
2308.88	24.5
2309.82	23
2310.76	27.5
2311.7	25
2312.63	24.5
2313.57	23.5
2314.51	20.5
2315.44	26.5
2316.38	22
2317.32	24
2318.26	21.5
2319.19	24
2320.13	24
2321.06	24
2322	20
2322.94	22
2323.87	22
2324.81	25
2325.74	23.5
2326.68	25.5
2327.61	20.5
2328.55	23
2329.48	21
2330.42	30
2331.35	22.5
2332.29	24.5
2333.22	22.5
2334.16	25.5
2335.09	27.5
2336.02	25
2336.96	26
2337.89	25
2338.83	21
2339.76	21.5
2340.69	22
2341.63	24.5
2342.56	25.5
2343.49	26
2344.42	20
2345.36	21.5
2346.29	25
2347.22	23
2348.15	25.5
2349.09	24
2350.02	24
2350.95	23
2351.88	22
2352.81	23
2353.74	25
2354.68	21.5
2355.61	22.5
2356.54	21
2357.47	26.5
2358.4	25.5
2359.33	21
2360.26	22
2361.19	24.5
2362.12	24
2363.05	23.5
2363.98	23
2364.91	24
2365.84	28.5
2366.77	22
2367.7	24
2368.63	25
2369.56	24.5
2370.49	22
2371.41	25
2372.34	22.5
2373.27	25.5
2374.2	22
2375.13	28
2376.06	24
2376.98	25
2377.91	24
2378.84	25
2379.77	27.5
2380.69	22.5
2381.62	23.5
2382.55	22
2383.47	22
2384.4	23
2385.33	24
2386.25	21.5
2387.18	21
2388.11	26
2389.03	22
2389.96	22
2390.89	21.5
2391.81	20
2392.74	23.5
2393.66	23.5
2394.59	22
2395.51	23
2396.44	22.5
2397.36	25.5
2398.29	22.5
2399.21	24.5
2400.14	24.5
2401.06	24
2401.99	22.5
2402.91	24
2403.83	22.5
2404.76	21
2405.68	26.5
2406.6	21.5
2407.53	24.5
2408.45	24.5
2409.37	23
2410.3	24
2411.22	23
2412.14	25
2413.06	20
2413.99	24.5
2414.91	21
2415.83	26
2416.75	27
2417.68	22
2418.6	24
2419.52	23
2420.44	23
2421.36	26
2422.28	26.5
2423.2	27
2424.12	21
2425.05	20
2425.97	25.5
2426.89	20
2427.81	26
2428.73	28.5
2429.65	20
2430.57	26
2431.49	26
2432.41	25
2433.33	24.5
2434.25	24.5
2435.17	25
2436.08	28
2437	28
2437.92	25.5
2438.84	21
2439.76	27.5
2440.68	25.5
2441.6	24.5
2442.51	26.5
2443.43	25.5
2444.35	23.5
2445.27	24
2446.19	21.5
2447.1	24
2448.02	25.5
2448.94	21
2449.85	26.5
2450.77	21
2451.69	25
2452.61	26
2453.52	25.5
2454.44	27
2455.35	21
2456.27	27
2457.19	24
2458.1	23.5
2459.02	21
2459.94	25
2460.85	22.5
2461.77	22
2462.68	25
2463.6	24.5
2464.51	27
2465.43	19.5
2466.34	26
2467.25	22
2468.17	26
2469.08	23
2470	22.5
2470.91	26
2471.83	25
2472.74	27
2473.65	25
2474.57	28
2475.48	23
2476.39	24.5
2477.31	22
2478.22	24
2479.13	24
2480.04	24.5
2480.96	25.5
2481.87	23.5
2482.78	25.5
2483.69	24.5
2484.6	22
2485.52	23
2486.43	24.5
2487.34	20
2488.25	27
2489.16	26
2490.07	23
2490.99	24
2491.9	27
2492.81	25
2493.72	23
2494.63	23.5
2495.54	24
2496.45	18
2497.36	26.5
2498.27	25
2499.18	24
2500.09	25.5
2501	27
2501.91	22.5
2502.82	24.5
2503.73	23.5
2504.63	22
2505.54	25.5
2506.45	24
2507.36	22
2508.27	23
2509.18	24.5
2510.09	24.5
2510.99	28
2511.9	26
2512.81	23.5
2513.72	23
2514.62	24
2515.53	25.5
2516.44	25.5
2517.35	24.5
2518.25	27
2519.16	23
2520.07	26
2520.97	25.5
2521.88	24
2522.79	23.5
2523.69	20.5
2524.6	23
2525.51	27
2526.41	24.5
2527.32	27.5
2528.22	24.5
2529.13	23
2530.03	27
2530.94	22.5
2531.84	24.5
2532.75	23
2533.65	24.5
2534.56	26
2535.46	25
2536.37	20.5
2537.27	24.5
2538.17	24
2539.08	25
2539.98	23
2540.89	23.5
2541.79	26.5
2542.69	22
2543.6	27.5
2544.5	28
2545.4	20
2546.31	23.5
2547.21	25
2548.11	22.5
2549.01	24.5
2549.92	26
2550.82	27
2551.72	28
2552.62	24.5
2553.52	24.5
2554.42	30
2555.33	25.5
2556.23	23
2557.13	22
2558.03	24
2558.93	24
2559.83	24
2560.73	22.5
2561.63	26.5
2562.53	22.5
2563.43	21.5
2564.33	25
2565.24	24
2566.13	27
2567.04	23
2567.93	26
2568.83	22.5
2569.73	26
2570.63	27.5
2571.53	24
2572.43	23
2573.33	25
2574.23	24
2575.13	22
2576.03	25.5
2576.92	24.5
2577.82	21.5
2578.72	23.5
2579.62	26.5
2580.52	26
2581.41	25
2582.31	24
2583.21	25
2584.11	20.5
2585	22
2585.9	22
2586.8	23
2587.69	25
2588.59	24
2589.49	17
2590.38	28
2591.28	23.5
2592.18	22
2593.07	23
2593.97	23
2594.86	25.5
2595.76	24.5
2596.66	22.5
2597.55	26.5
2598.45	26
2599.34	21.5
2600.24	27
2601.13	27.5
2602.03	26.5
2602.92	21
2603.81	20.5
2604.71	25
2605.6	24.5
2606.5	25
2607.39	24.5
2608.28	23.5
2609.18	24
2610.07	24.5
2610.97	21
2611.86	28
2612.75	24
2613.64	25.5
2614.54	25.5
2615.43	28
2616.32	23.5
2617.22	25
2618.11	27
2619	23
2619.89	23
2620.78	24
2621.68	27
2622.57	21
2623.46	27
2624.35	22
2625.24	28
2626.13	24
2627.02	24.5
2627.91	26.5
2628.81	23.5
2629.7	23.5
2630.59	26.5
2631.48	23
2632.37	23
2633.26	22.5
2634.15	25.5
2635.04	24
2635.93	24.5
2636.82	22
2637.71	23
2638.59	27
2639.48	25
2640.37	25.5
2641.26	26
2642.15	26
2643.04	26.5
2643.93	28.5
2644.82	26
2645.71	26
2646.59	24
2647.48	25
2648.37	25
2649.26	20
2650.15	23.5
2651.03	27
2651.92	24
2652.81	24.5
2653.69	27
2654.58	23.5
2655.47	25
2656.35	26.5
2657.24	24
2658.13	22
2659.01	24
2659.9	22
2660.79	26
2661.67	23.5
2662.56	27.5
2663.44	26.5
2664.33	23.5
2665.22	25
2666.1	23
2666.99	24
2667.87	25.5
2668.76	24
2669.64	24
2670.52	23
2671.41	26
2672.29	26
2673.18	28
2674.06	21.5
2674.95	25.5
2675.83	25.5
2676.71	27
2677.6	24
2678.48	23.5
2679.36	23
2680.25	25.5
2681.13	26.5
2682.01	26.5
2682.9	22.5
2683.78	27
2684.66	24
2685.55	22
2686.43	25
2687.31	23.5
2688.19	21
2689.07	26
2689.96	22
2690.84	24
2691.72	27.5
2692.6	22.5
2693.48	22.5
2694.36	24
2695.24	26
2696.12	21.5
2697	27
2697.89	26
2698.77	25.5
2699.65	26.5
2700.53	22.5
2701.41	20.5
2702.29	22.5
2703.17	21
2704.05	25.5
2704.93	25
2705.81	26
2706.69	23
2707.57	26.5
2708.44	24
2709.32	25.5
2710.2	23.5
2711.08	26.5
2711.96	21
2712.84	26
2713.72	25
2714.59	29
2715.47	22
2716.35	22.5
2717.23	24
2718.11	27.5
2718.98	26.5
2719.86	23.5
2720.74	23
2721.62	26
2722.49	25
2723.37	22.5
2724.25	23.5
2725.12	24
2726	25.5
2726.88	23
2727.75	25
2728.63	25
2729.51	28
2730.38	21.5
2731.26	25.5
2732.13	24
2733.01	27.5
2733.88	21
2734.76	23
2735.63	23.5
2736.51	25.5
2737.38	26
2738.26	20
2739.13	24.5
2740.01	23
2740.88	24
2741.76	23.5
2742.63	22.5
2743.5	24.5
2744.38	25
2745.25	26.5
2746.13	23.5
2747	23
2747.87	24
2748.75	21
2749.62	25
2750.49	23
2751.36	23
2752.24	23
2753.11	26
2753.98	23
2754.86	22.5
2755.73	27.5
2756.6	21
2757.47	22
2758.34	24
2759.22	21.5
2760.09	24
2760.96	21
2761.83	21.5
2762.7	19
2763.57	27
2764.44	25
2765.31	22
2766.18	22
2767.06	25
2767.93	22
2768.8	23.5
2769.67	23.5
2770.54	23.5
2771.41	24
2772.28	22
2773.15	23.5
2774.02	28.5
2774.89	24.5
2775.75	26
2776.62	22
2777.49	26
2778.36	25
2779.23	24
2780.1	22.5
2780.97	27.5
2781.84	22.5
2782.71	28
2783.57	27.5
2784.44	27.5
2785.31	24.5
2786.18	24.5
2787.04	22.5
2787.91	27
2788.78	27.5
2789.65	27.5
2790.51	27.5
2791.38	31
2792.25	27.5
2793.12	24
2793.98	23.5
2794.85	26.5
2795.72	27
2796.58	25
2797.45	25
2798.31	24
2799.18	27
2800.05	23.5
2800.91	25
2801.78	26
2802.64	26.5
2803.51	22.5
2804.37	22
2805.24	24.5
2806.1	26
2806.97	28
2807.83	29.5
2808.7	26
2809.56	28.5
2810.43	27.5
2811.29	24.5
2812.15	25.5
2813.02	28.5
2813.88	27
2814.75	25
2815.61	26
2816.47	24
2817.34	23.5
2818.2	23.5
2819.06	27
2819.92	23.5
2820.79	27
2821.65	25
2822.51	25.5
2823.37	24.5
2824.24	27.5
2825.1	22.5
2825.96	25
2826.82	27.5
2827.69	28.5
2828.55	23
2829.41	26
2830.27	27
2831.13	27.5
2831.99	29.5
2832.85	28.5
2833.71	24.5
2834.58	29
2835.44	27.5
2836.3	29
2837.16	25.5
2838.02	22
2838.88	26
2839.74	23
2840.6	25.5
2841.46	25.5
2842.32	25
2843.18	25
2844.04	24.5
2844.9	27
2845.75	26.5
2846.61	25.5
2847.47	24.5
2848.33	29
2849.19	24
2850.05	24
2850.91	27
2851.77	24.5
2852.62	26
2853.48	22
2854.34	29
2855.2	23
2856.06	26
2856.91	25.5
2857.77	27
2858.63	27.5
2859.48	26
2860.34	24
2861.2	24.5
2862.06	24
2862.91	23
2863.77	26
2864.63	25
2865.48	30.5
2866.34	24
2867.19	26.5
2868.05	31
2868.91	30.5
2869.76	26.5
2870.62	29
2871.47	30.5
2872.33	26
2873.18	31.5
2874.04	27
2874.89	29.5
2875.75	31.5
2876.6	28.5
2877.46	33
2878.31	30
2879.17	30
2880.02	33
2880.88	28
2881.73	29
2882.58	33
2883.44	32.5
2884.29	33
2885.14	34.5
2886	33
2886.85	34.5
2887.7	34
2888.56	38
2889.41	32.5
2890.26	29
2891.12	39
2891.97	38
2892.82	39
2893.67	37.5
2894.52	46
2895.38	44
2896.23	43
2897.08	50
2897.93	47.5
2898.78	48.5
2899.64	50
2900.49	57.5
2901.34	56
2902.19	59.5
2903.04	65
2903.89	62.5
2904.74	68
2905.59	63
2906.44	65.5
2907.29	71.5
2908.14	60.5
2908.99	63.5
2909.84	61.5
2910.69	63
2911.54	63
2912.39	57.5
2913.24	49
2914.09	51
2914.94	49.5
2915.79	44
2916.64	44.5
2917.49	37
2918.34	43.5
2919.18	37
2920.03	37
2920.88	36
2921.73	35.5
2922.58	35
2923.42	33.5
2924.27	35
2925.12	31.5
2925.97	31
2926.82	33
2927.66	30
2928.51	31
2929.36	26.5
2930.2	31
2931.05	27.5
2931.9	29.5
2932.74	28.5
2933.59	28
2934.44	29.5
2935.28	26
2936.13	29
2936.98	28.5
2937.82	23
2938.67	30
2939.51	30
2940.36	27.5
2941.2	30.5
2942.05	25.5
2942.9	32
2943.74	27.5
2944.58	27.5
2945.43	26
2946.27	27.5
2947.12	29.5
2947.96	30.5
2948.81	26.5
2949.65	26.5
2950.5	30.5
2951.34	29
2952.18	32.5
2953.03	32.5
2953.87	35.5
2954.71	33.5
2955.56	30.5
2956.4	29
2957.24	31.5
2958.09	35.5
2958.93	29.5
2959.77	36.5
2960.62	38.5
2961.46	35.5
2962.3	37
2963.14	44
2963.98	40
2964.83	42
2965.67	44.5
2966.51	47
2967.35	38.5
2968.19	40
2969.04	44
2969.88	42.5
2970.72	38
2971.56	39.9879
2972.4	35.9438
2973.24	36.0079
2974.08	31.2485
2974.92	36.4108
2975.76	31.112
2976.6	37.5584
2977.44	30.4711
2978.28	31.3113
2979.12	33.121
2979.96	32.0754
2980.8	27.5692
2981.64	27.812
2982.48	29.3877
2983.32	27.1221
2984.16	25.1504
2985	26.1588
2985.84	27.4116
2986.68	26.6214
2987.52	24.9813
2988.35	28.9431
2989.19	28.5021
2990.03	26.3284
2990.87	26.171
2991.71	25.1851
2992.55	28.0477
2993.38	24.7081
2994.22	26.3413
2995.06	26.2767
2995.9	29.4361
2996.73	23
2997.57	24.675
2998.41	24.1543
2999.25	24.4738
3000.08	24.6475
3000.92	27.7214
3001.76	23.7913
3002.59	24.4359
3003.43	23.5693
3004.27	25.1918
3005.1	24.6003
3005.94	25.6679
3006.78	23.6683
3007.61	22.4571
3008.45	24.1936
3009.28	25.4639
3010.12	22.9162
3010.95	23.7503
3011.79	22.6355
3012.62	21.8103
3013.46	24.0265
3014.29	23.0074
3015.13	24.0194
3015.96	23.7097
3016.8	21.3815
3017.63	20.5283
3018.47	21.0529
3019.3	23.0888
3020.14	24.9695
3020.97	24.4349
3021.8	22.6741
3022.64	23.8387
3023.47	22.2306
3024.3	21.6706
3025.14	22.7159
3025.97	23.2408
3026.8	22.9889
3027.64	22.2456
3028.47	21.7351
3029.3	25.4429
3030.14	23.0739
3030.97	22.5607
3031.8	23.3581
3032.63	22.5734
3033.46	23.0506
3034.3	24.0757
3035.13	23.8139
3035.96	23.405
3036.79	22.7139
3037.62	22.1698
3038.46	23.4191
3039.29	22.9725
3040.12	23.8462
3040.95	21.066
3041.78	21.0498
3042.61	22.7549
3043.44	21.2603
3044.27	20.7145
3045.1	22.1481
3045.93	22.0189
3046.76	21.3899
3047.59	21.5891
3048.42	24.5
3049.25	24.3617
3050.08	24.7577
3050.91	23.8334
3051.74	21.6065
3052.57	23.5929
3053.4	24.2466
3054.23	23.6516
3055.06	21.5851
3055.89	23.6958
3056.72	22.1564
3057.32	20
3058.15	27
3058.98	25
3059.82	23.5
3060.65	22
3061.48	23.5
3062.31	23.5
3063.15	21
3063.98	19.5
3064.81	19.5
3065.64	20.5
3066.48	20
3067.31	24
3068.14	22.5
3068.97	23
3069.8	25
3070.63	23
3071.47	23
3072.3	23
3073.13	22.5
3073.96	27
3074.79	19
3075.62	21
3076.45	23
3077.28	20.5
3078.11	22
3078.94	23
3079.77	22
3080.6	22
3081.43	21.5
3082.26	24
3083.09	20
3083.92	21.5
3084.75	25
3085.58	19.5
3086.41	24
3087.24	23.5
3088.07	23.5
3088.9	24
3089.73	20.5
3090.55	24
3091.38	21.5
3092.21	22.5
3093.04	22
3093.87	23
3094.7	25.5
3095.52	24.5
3096.35	25.5
3097.18	28
3098.01	22.5
3098.84	21.5
3099.66	25.5
3100.49	22
3101.32	24
3102.14	21
3102.97	23.5
3103.8	22
3104.62	23
3105.45	26.5
3106.28	21
3107.1	25
3107.93	23
3108.76	22.5
3109.58	27
3110.41	22.5
3111.23	25
3112.06	24.5
3112.89	23
3113.71	22
3114.54	23
3115.36	23.5
3116.19	22.5
3117.01	21
3117.84	28
3118.66	24
3119.49	23.5
3120.31	20
3121.13	21
3121.96	24.5
3122.78	22.5
3123.61	24
3124.43	27
3125.25	24
3126.08	24.5
3126.9	20.5
3127.73	25
3128.55	27
3129.37	28
3130.19	24
3131.02	23.5
3131.84	23
3132.66	26.5
3133.49	21
3134.31	26
3135.13	18.5
3135.95	24
3136.78	23
3137.6	22
3138.42	20.5
3139.24	22.5
3140.06	29
3140.88	22
3141.71	23
3142.53	23
3143.35	22
3144.17	22
3144.99	22
3145.81	21
3146.63	24.5
3147.45	24.5
3148.27	22
3149.09	25.5
3149.91	24.5
3150.73	21.5
3151.56	26.5
3152.37	27
3153.2	25
3154.01	24
3154.83	23
3155.65	22
3156.47	24.5
3157.29	23.5
3158.11	23
3158.93	25
3159.75	21.5
3160.57	26
3161.39	25.5
3162.21	20.5
3163.02	21.5
3163.84	21.5
3164.66	28
3165.48	23
3166.3	22.5
3167.11	21
3167.93	19.5
3168.75	26
3169.57	25.5
3170.39	18
3171.2	21
3172.02	22.5
3172.84	23
3173.65	22
3174.47	25.5
3175.29	22.5
3176.1	24
3176.92	24
3177.74	23.5
3178.55	24.5
3179.37	27.5
3180.19	21
3181	23.5
3181.82	19
3182.63	21.5
3183.45	25
3184.27	22.5
3185.08	25.5
3185.9	25.5
3186.71	25
3187.53	22
3188.34	23
3189.16	20
3189.97	24
3190.79	20
3191.6	25
3192.41	19
3193.23	25
3194.04	24.5
3194.86	25
3195.67	25
3196.48	25
3197.3	22
3198.11	22.5
3198.93	20
3199.74	24
3200.55	21
3201.36	25.5
3202.18	26
3202.99	20.5
3203.8	23
3204.62	22
3205.43	23
3206.24	27
3207.05	24.5
3207.87	22
3208.68	23
3209.49	22.5
3210.3	24
3211.11	21
3211.93	20
3212.74	24
3213.55	26.5
3214.36	25
3215.17	18
3215.98	22
3216.79	26.5
3217.6	24
3218.41	22
3219.22	24.5
3220.03	25
3220.85	18
3221.66	24
3222.47	19.5
3223.28	24.5
3224.09	25.5
3224.9	22
3225.71	24
3226.52	24
3227.33	22
3228.13	25.5
3228.94	21.5
3229.75	28
3230.56	24.5
3231.37	24
3232.18	19
3232.99	23
3233.8	23.5
3234.61	24.5
3235.41	25
3236.22	24.5
3237.03	22.5
3237.84	22.5
3238.65	24
3239.45	21.5
3240.26	20.5
3241.07	24.5
3241.88	28
3242.68	24
3243.49	23
3244.3	21
3245.1	25
3245.91	24.5
3246.72	26
3247.53	24
3248.33	24.5
3249.14	23.5
3249.95	22.5
3250.75	26
3251.56	21
3252.36	23.5
3253.17	28.5
3253.97	20.5
3254.78	26
3255.59	22
3256.39	22
3257.2	21.5
3258	24
3258.81	23
3259.61	19.5
3260.42	24
3261.22	22
3262.03	24.5
3262.83	19
3263.64	22
3264.44	23
3265.24	24
3266.05	23.5
3266.85	28
3267.66	25
3268.46	28
3269.26	25
3270.07	20.5
3270.87	23.5
3271.67	23
3272.48	25.5
3273.28	23.5
3274.08	23
3274.89	22.5
3275.69	23.5
3276.49	22
3277.29	24.5
3278.1	26.5
3278.9	27
3279.7	22
3280.5	23
3281.3	27
3282.11	24.5
3282.91	21.5
3283.71	23
3284.51	22
3285.31	24
3286.11	24.5
3286.91	24
3287.72	23.5
3288.52	25
3289.32	24.5
3290.12	26
3290.92	23
3291.72	23
3292.52	25.5
3293.32	21
3294.12	27
3294.92	21.5
3295.72	25
3296.52	25
3297.32	23
3298.12	27
3298.92	25.5
3299.72	24.5
3300.52	23
3301.32	24.5
3302.12	24
3302.92	22
3303.71	22.5
3304.51	28.5
3305.31	21
3306.11	24.5
3306.91	25.5
3307.71	25
3308.5	27
3309.3	20.5
3310.1	22.5
3310.9	21.5
3311.7	26
3312.49	26
3313.29	26
3314.09	26
3314.89	23
3315.68	24
3316.48	22.5
3317.28	23
3318.07	25
3318.87	22
3319.67	23.5
3320.46	24.5
3321.26	26
3322.06	23
3322.85	25
3323.65	24
3324.44	22.5
3325.24	27
3326.04	21.5
3326.83	23.5
3327.63	21.5
3328.42	20.5
3329.22	28
3330.01	24
3330.81	22
3331.6	23.5
3332.4	24.5
3333.19	20.5
3333.99	26
3334.78	26
3335.58	21
3336.37	26
3337.17	24.5
3337.96	25
3338.75	24
3339.55	24
3340.34	23.5
3341.13	21.5
3341.93	28.5
3342.72	21.5
3343.51	21
3344.31	25.5
3345.1	22.5
3345.89	20.5
3346.69	21.5
3347.48	25
3348.27	24
3349.06	23.5
3349.86	24
3350.65	20
3351.44	20.5
3352.23	23.5
3353.03	22
3353.82	20.5
3354.61	25
3355.4	24
3356.19	22
3356.98	24
3357.78	26.5
3358.57	26.5
3359.36	22
3360.15	24.5
3360.94	28
3361.73	28
3362.52	27
3363.31	21
3364.1	21
3364.89	25.5
3365.68	22.5
3366.47	22.5
3367.26	27.5
3368.05	20
3368.84	22.5
3369.63	22.5
3370.42	23.5
3371.21	24.5
3372	23
3372.79	25
3373.58	23.5
3374.37	26.5
3375.16	24
3375.95	22.5
3376.73	21.5
3377.52	27.5
3378.31	25.5
3379.1	24
3379.89	24.5
3380.68	25.5
3381.46	24.5
3382.25	24
3383.04	25
3383.83	22
3384.62	24
3385.4	29
3386.19	23
3386.98	22
3387.76	25
3388.55	24
3389.34	26.5
3390.13	26
3390.91	25.5
3391.7	26
3392.49	25
3393.27	22.5
3394.06	27
3394.84	24
3395.63	23.5
3396.42	23.5
3397.2	24.5
3397.99	22.5
3398.77	24
3399.56	22
3400.34	23.5
3401.13	20
3401.92	25
3402.7	21
3403.49	25
3404.27	20.5
3405.06	25
3405.84	26.5
3406.62	23
3407.41	25
3408.19	23
3408.98	25.5
3409.76	21
3410.55	19.5
3411.33	23
3412.11	25.5
3412.9	23.5
3413.68	21
3414.46	25
3415.25	27
3416.03	25
3416.81	24
3417.6	23
3418.38	23
3419.16	24
3419.95	23.5
3420.73	23
3421.51	26.5
3422.29	24
3423.08	25
3423.86	18.5
3424.64	26
3425.42	20.5
3426.2	23
3426.98	20.5
3427.77	24
3428.55	28
3429.33	24
3430.11	23.5
3430.89	20.5
3431.67	25.5
3432.45	25.5
3433.24	26.5
3434.02	23
3434.8	25
3435.58	23
3436.36	25
3437.14	24
3437.92	22
3438.7	22
3439.48	25.5
3440.26	24.5
3441.04	26
3441.82	23.5
3442.6	24
3443.38	20.5
3444.16	25
3444.94	22
3445.71	23.5
3446.49	27.5
3447.27	27
3448.05	27.5
3448.83	23
3449.61	26
3450.39	24.5
3451.17	19
3451.94	28.5
3452.72	22.5
3453.5	23
3454.28	24
3455.06	21
3455.83	24.5
3456.61	25.5
3457.39	22.5
3458.17	24
3458.94	25
3459.72	22
3460.5	22.5
3461.28	23.5
3462.05	24
3462.83	25
3463.61	24.5
3464.38	23
3465.16	26
3465.93	24.5
3466.71	23.5
3467.49	25
3468.26	24.5
3469.04	21
3469.82	19.5
3470.59	19.5
3471.37	22
3472.14	22
3472.92	25.5
3473.69	19.5
3474.47	24.5
3475.24	22
3476.02	26
3476.79	24
3477.57	25.5
3478.34	22.5
3479.12	24.5
3479.89	23.5
3480.67	23
3481.44	25
3482.21	24.5
3482.99	21
3483.76	21
3484.54	21.5
3485.31	25
3486.08	24.5
3486.86	24
3487.63	20
3488.4	23
3489.18	24
3489.95	22
3490.72	22
3491.5	23
3492.27	24.5
3493.04	26
3493.81	25
3494.59	22
3495.36	22
3496.13	23
3496.9	23.5
3497.67	24
3498.45	25.5
3499.22	25
3499.99	23.5
