#Acq. time (s)=	5
#Accumulations=	5
#Range (cm-¹)=	100...3500
#Windows=	4
#Autofocus=	Off
#AutoExposure=	Off
#Spike filter=	Multiple accum.
#Delay time (s)=	0
#Binning=	1
#Readout mode=	Signal
#DeNoise=	Off
#ICS correction=	Off
#Dark correction=	Off
#Inst. Process=	Off
#Instrument=	LabRAM HR Evol
#Detector=	Syncerity OE
#Objective=	x100_VIS
#Grating=	600 (500nm)
#ND Filter=	25%
#Laser=	633nm_Edge
#Hole=	100.021
#Range=	Visible
#Project=	verificaciones
#Sample=	a5
#Site=	plain
#Title=	bolusa5plain
#Remark=	
#Date=	09.01.2026 13:34
#Acquired=	09.01.2026 13:34:06
100.695	32
101.978	34.5
103.262	34.5
104.545	38
105.829	32
107.112	32
108.394	34
109.676	31
110.958	35
112.24	32
113.522	35.5
114.803	36.5
116.084	33.5
117.365	33
118.646	32.5
119.927	33.5
121.207	36
122.487	34
123.767	33
125.047	33
126.326	32.5
127.606	36.5
128.885	35
130.164	36
131.442	37.5
132.721	37
133.999	35
135.277	37
136.555	38.5
137.831	36
139.109	38.5
140.386	41
141.663	38
142.94	34.5
144.216	38.5
145.493	36
146.769	36.5
148.043	42
149.319	45
150.595	44.5
151.87	40
153.145	40
154.42	44
155.693	49
156.968	43
158.242	42
159.516	39.5
160.79	42
162.062	47.5
163.336	41.5
164.609	46
165.882	40
167.153	44.5
168.426	42
169.699	40
170.971	40.5
172.241	45
173.513	45
174.785	42.5
176.055	41
177.326	41.5
178.597	42.5
179.866	40
181.137	45
182.407	45
183.676	40.5
184.946	44
186.216	45
187.484	42
188.753	44
190.022	46.5
191.29	41
192.558	43
193.825	42
195.094	39
196.36	42
197.628	47.5
198.896	45
200.162	44
201.429	43.5
202.695	43.5
203.962	39.5
205.227	39
206.493	36
207.758	42.5
209.024	37
210.289	42
211.554	37
212.818	34.5
214.083	38.5
215.347	34
216.612	36
217.875	39.5
219.138	40.5
220.402	32
221.665	36
222.928	36.5
224.19	35.5
225.454	35.5
226.715	39
227.977	36
229.24	30
230.501	36.5
231.762	38.5
233.024	29
234.284	37
235.546	33
236.806	33
238.066	34.5
239.327	35
240.587	36
241.846	30.5
243.105	35
244.365	31.5
245.624	32.5
246.882	30.5
248.142	30
249.4	34
250.658	31
251.916	34.5
253.174	30
254.432	32.5
255.689	29
256.945	32.5
258.202	33
259.46	31.5
260.716	29.5
261.972	34
263.228	29
264.483	34
265.74	28.5
266.996	36.5
268.251	30
269.505	32.5
270.76	31.5
272.014	30
273.268	33.5
274.522	32
275.778	30.5
277.031	24
278.285	32
279.538	32.5
280.791	37
282.043	32
283.296	29.5
284.548	31
285.8	30
287.052	28.5
288.304	33
289.556	31.5
290.807	33.5
292.058	28.5
293.309	30
294.56	32.5
295.81	34
297.061	32
298.311	30.5
299.561	30
300.81	31.5
302.06	30.5
303.309	30.5
304.558	30
305.807	28
307.056	30
308.305	32.5
309.551	33
310.8	31
312.047	36
313.295	29
314.543	34.5
315.79	32
317.037	32
318.284	27
319.529	32.5
320.776	28
322.022	29.5
323.268	33
324.514	33.5
325.758	35
327.004	27.5
328.249	29.5
329.494	34
330.739	35.5
331.982	33
333.227	31
334.471	32.5
335.715	32.5
336.958	30
338.201	30
339.445	32.5
340.687	31
341.93	30.5
343.173	31
344.414	35.5
345.657	31.5
346.899	28
348.14	31.5
349.381	31
350.623	28
351.863	33.5
353.104	31
354.346	34.5
355.585	34.5
356.826	30
358.065	30
359.305	30
360.545	29
361.784	30.5
363.023	34
364.261	32
365.501	31.5
366.738	33
367.977	27.5
369.216	33
370.453	29.5
371.691	32
372.928	32
374.166	31
375.402	30
376.64	32
377.876	34
379.111	30.5
380.348	31.5
381.584	32
382.82	30
384.055	31.5
385.291	33
386.526	24.5
387.76	27
388.996	25
390.229	33
391.465	31
392.698	33.5
393.931	32.5
395.166	30
396.399	33
397.632	29
398.866	31.5
400.098	32.5
401.33	30.5
402.563	32
403.795	34.5
405.027	31
406.259	34
407.491	31
408.721	33
409.954	30
411.184	33
412.415	32.5
413.645	28
414.876	35
416.106	29
417.335	32
418.565	32
419.794	30.5
421.024	32.5
422.253	32.5
423.482	33
424.71	30
425.938	30
427.168	32
428.396	31
429.623	36
430.851	32
432.078	29.5
433.305	31
434.532	29
435.758	31.5
436.986	32.5
438.212	34.5
439.438	32.5
440.664	34.5
441.89	27
443.115	33.5
444.34	29.5
445.566	36.5
446.79	26
448.015	31.5
449.24	34.5
450.464	31.5
451.688	33.5
452.912	34
454.135	32
455.359	32
456.582	33.5
457.805	30
459.028	31.5
460.251	33
461.473	34.5
462.696	35.5
463.918	33.5
465.14	35.5
466.36	36.5
467.582	36
468.803	39
470.024	37.5
471.245	37
472.466	39
473.686	40.5
474.907	43.5
476.126	44
477.346	41
478.565	45
479.785	49.5
481.004	49.5
482.224	58.5
483.441	56.5
484.66	62
485.879	67.5
487.097	63
488.314	67
489.532	61
490.75	67.5
491.967	56.5
493.184	54
494.401	54
495.618	57
496.835	52
498.05	54
499.267	48.5
500.483	50.5
501.698	43
502.913	48.5
504.129	44
505.343	42
506.559	38
507.774	41.5
508.987	44
510.202	36
511.415	41
512.63	39
513.844	39
515.056	31
516.27	39.5
517.482	34
518.696	35.5
519.907	36.5
521.121	37.5
522.332	34
523.545	31
524.757	35.5
525.968	36
527.18	36
528.39	36.5
529.602	32
530.812	33
532.023	38.5
533.233	33.5
534.443	32.5
535.653	30.5
536.862	33.5
538.073	32.5
539.281	36
540.491	30.5
541.7	32.5
542.908	30.5
544.117	33
545.325	35
546.534	33
547.741	31
548.949	25.5
550.157	35
551.364	33.5
552.57	32.5
553.778	33
554.985	31.5
556.191	29
557.398	34.5
558.604	31.5
559.809	29.5
561.014	29.5
562.221	33
563.426	33
564.63	27
565.835	29
567.041	33
568.245	30
569.449	33
570.653	30.5
571.856	33
573.061	35.5
574.264	32.5
575.467	32
576.67	33.5
577.873	28
579.076	36
580.279	31
581.481	24
582.683	31
583.884	30
585.086	34.5
586.287	34
587.488	29
588.689	31
589.891	33
591.092	33
592.292	31
593.492	27
594.692	32
595.892	33
597.092	30.5
598.291	35
599.49	30
600.689	28
601.888	30.5
603.087	27
604.285	28.5
605.483	31.5
606.681	28.5
607.879	31.5
609.077	32
610.274	31.5
611.472	30.5
612.668	28.5
613.865	29
615.061	32
616.258	32.5
617.454	31.5
618.65	31
619.846	31.5
621.042	34.5
622.238	34.5
623.432	34.5
624.627	38
625.822	33.5
627.017	29.5
628.212	36
629.406	32.5
630.599	34
631.793	31.5
632.987	30
634.181	31.5
635.373	35
636.566	34.5
637.76	34
638.953	33.5
640.144	31
641.337	34.5
642.529	27
643.721	34
644.912	32
646.104	36
647.295	33.5
648.485	32
649.677	32
650.868	29
652.057	30
653.248	33
654.437	35
655.628	30
656.818	34.5
658.006	32
659.196	35
660.384	34
661.574	34.5
662.763	27
663.951	32.5
665.14	31
666.327	37.5
667.515	33
668.702	37
669.891	36.5
671.077	34
672.265	32
673.451	33.5
674.638	33.5
675.824	37
677.011	34
678.197	36
679.383	37
680.568	36
681.755	38
682.939	37
684.124	38.5
685.309	38.5
686.494	40.5
687.679	39.5
688.863	36
690.046	37.5
691.231	36.5
692.414	35.5
693.599	36.5
694.781	41
695.964	38
697.148	38
698.33	41
699.512	40
700.694	40
701.877	38.5
703.059	46
704.24	43.5
705.423	43
706.604	49.5
707.784	59
708.965	52
710.147	56
711.327	49
712.507	48
713.687	46
714.867	45
716.048	36
717.227	38
718.406	35.5
719.585	32.5
720.764	31
721.942	30.5
723.122	32
724.3	35
725.478	32
726.656	34.5
727.834	33
729.011	31
730.189	31
731.366	34
732.543	27
733.719	31
734.896	34
736.072	30.5
737.249	32.5
738.426	32.5
739.602	33
740.777	31
741.953	27
743.128	31
744.303	32.5
745.477	31.5
746.651	34.5
747.826	32
749	30
750.174	28.5
751.348	33
752.522	28.5
753.696	30
754.869	29.5
756.043	29
757.216	26.5
758.389	32.5
759.561	31.5
760.732	34.5
761.905	29
763.077	35
764.249	33
765.421	32.5
766.592	31.5
767.762	29
768.934	29.5
770.105	27.5
771.275	27
772.446	31
773.615	29.5
774.786	31
775.956	33.5
777.126	29
778.294	34.5
779.464	31.5
780.633	35
781.801	33
782.97	36
784.139	37
785.306	33
786.475	32
787.643	34
788.81	35.5
789.978	35
791.146	32
792.312	33.5
793.479	33.5
794.647	34.5
795.812	35
796.979	31
798.144	35.5
799.311	29
800.477	33.5
801.642	29.5
802.808	31.5
803.972	29
805.138	36
806.302	29.5
807.467	33.5
808.631	34.5
809.796	29
810.959	32
812.124	32.5
813.287	29.5
814.451	34
815.614	30
816.777	32.5
817.94	28
819.102	30
820.265	31.5
821.427	29
822.59	30.5
823.751	30
824.912	31
826.074	30.5
827.235	28
828.397	27.5
829.558	25
830.718	31
831.879	33
833.039	29
834.199	33.5
835.359	28
836.519	32.5
837.679	30.5
838.838	27.5
839.998	28
841.156	33
842.315	33.5
843.473	31
844.633	32.5
845.791	31
846.948	31
848.106	33
849.263	30.5
850.422	32
851.579	31
852.736	31.5
853.892	32
855.049	32.5
856.205	29.5
857.363	36
858.519	32.5
859.674	30.5
860.83	33.5
861.986	31.5
863.141	37.5
864.296	31.5
865.451	32
866.605	34.5
867.76	34.5
868.914	30
870.069	29.5
871.224	34.5
872.378	27
873.531	29.5
874.685	37
875.838	32
876.991	34
878.144	30
879.296	28
880.448	29.5
881.6	33
882.753	35.5
883.905	30
885.057	33
886.208	30.5
887.36	30
888.511	32.5
889.662	28
890.813	34.5
891.964	28
893.113	29.5
894.264	28
895.414	25.5
896.564	31
897.714	27.5
898.864	29
900.012	29
901.161	31
902.31	31.5
903.459	30
904.607	27.5
905.756	32.5
906.904	27
908.052	27.5
909.199	30.5
910.347	27.5
911.495	33.5
912.643	26
913.789	25
914.936	24
916.083	33.5
917.229	28
918.375	28.5
919.522	28
920.667	26
921.813	32
922.959	26.5
924.104	30
925.249	33.5
926.393	30
927.539	33
928.684	29.5
929.827	26
930.972	27
932.115	26.5
933.26	28
934.403	31
935.547	28
936.689	28.5
937.833	28
938.975	29
940.119	26
941.26	31
942.404	26
943.545	29
944.688	33
945.829	25
946.971	29
948.112	27.5
949.253	32
950.394	29.5
951.535	27
952.676	28.5
953.816	29
954.956	29.5
956.097	25.5
957.236	31
958.377	30.5
959.516	28
960.655	30
961.793	33.5
962.933	31
964.071	31.5
965.21	28.5
966.349	33
967.487	28.5
968.624	30
969.762	31
970.901	31.5
972.038	31
973.175	30
974.311	30
975.449	34
976.586	27.5
977.722	28
978.858	29
979.994	27
981.131	29
982.267	32.5
983.402	28.5
984.537	32.5
985.672	30
986.807	28
987.942	28
989.076	27.5
990.211	29
991.346	25.5
992.48	26
993.614	30
994.748	30.5
995.881	28
997.014	28
998.148	27.5
999.28	28.5
1000.41	28.5
1001.55	26.5
1002.68	28.5
1003.81	25.5
1004.94	29
1006.07	32.5
1007.21	31
1008.34	30
1009.47	28.5
1010.6	28
1011.73	31.5
1012.86	28.5
1013.99	31
1015.12	31
1016.25	28
1017.38	30
1018.51	29.5
1019.64	26
1020.77	31
1021.9	27
1023.03	28.5
1024.16	30
1025.29	28
1026.42	26
1027.54	29.5
1028.67	26.5
1029.8	29
1030.93	27.5
1032.06	33
1033.18	32
1034.31	27
1035.44	29
1036.56	29.5
1037.69	29.5
1038.82	27
1039.94	26.5
1041.07	30.5
1042.2	26
1043.32	24.5
1044.45	24
1045.57	28.5
1046.7	29
1047.82	31.5
1048.95	24.5
1050.07	27
1051.2	30
1052.32	31
1053.45	26
1054.57	26
1055.69	29
1056.82	34
1057.94	32
1059.06	31
1060.19	29
1061.31	27.5
1062.43	26
1063.55	28.5
1064.68	31
1065.8	25
1066.92	30
1068.04	28.5
1069.16	24
1070.28	27
1071.41	32
1072.53	27.5
1073.65	26
1074.77	31.5
1075.89	30
1077.01	29.5
1078.13	26.5
1079.25	28
1080.37	30
1081.49	30
1082.61	31
1083.73	27
1084.85	28.5
1085.96	26
1087.08	25.5
1088.2	26.5
1089.32	29.5
1090.44	29.5
1091.56	28
1092.67	28
1093.79	23
1094.91	26.5
1096.03	28.5
1097.14	33
1098.26	29
1099.38	31
1100.49	31.5
1101.61	30
1102.73	23
1103.84	30.5
1104.96	30
1106.07	26
1107.19	31
1108.3	32
1109.42	26.5
1110.53	31
1111.65	29.5
1112.76	29
1113.88	24.5
1114.99	29.5
1116.1	32
1117.22	30.5
1118.33	27.5
1119.44	27
1120.56	30.5
1121.67	24.5
1122.78	29
1123.9	28
1125.01	27.5
1126.12	27
1127.23	27
1128.34	26
1129.46	25
1130.57	31
1131.68	27
1132.79	26.5
1133.9	28
1135.01	26.5
1136.12	28
1137.23	23
1138.34	30.5
1139.45	26
1140.56	31
1141.67	28
1142.78	24.5
1143.89	22
1145	30.5
1146.11	28
1147.22	23.5
1148.33	27
1149.44	30.5
1150.54	24
1151.65	28.5
1152.76	29
1153.87	27.5
1154.97	30
1156.08	29
1157.19	25.5
1158.3	26.5
1159.4	27.5
1160.51	26
1161.62	27.5
1162.72	27
1163.83	31
1164.93	29.5
1166.04	29
1167.15	25
1168.25	30
1169.36	26.5
1170.46	31.5
1171.57	30
1172.67	24.5
1173.78	27
1174.88	29.5
1175.98	29.5
1177.09	29.5
1178.19	27
1179.3	25
1180.4	26
1181.5	30
1182.61	29
1183.71	29.5
1184.81	27
1185.91	31
1187.02	24.5
1188.12	27.5
1189.22	30.5
1190.32	23.5
1191.42	24
1192.53	27
1193.63	27.5
1194.73	29.4804
1195.83	24.976
1196.93	27.5068
1198.03	25.9935
1199.13	26.3371
1200.23	23.2128
1201.33	30.6214
1202.43	28.2164
1203.53	23.1109
1204.63	26.248
1205.73	27.5745
1206.83	26.9466
1207.93	29.1132
1209.02	29.0964
1210.12	22.3702
1211.22	25.2947
1212.32	30.8345
1213.42	29.3926
1214.52	27.3086
1215.61	28.0699
1216.71	28.8919
1217.81	25.2005
1218.91	24.9044
1220	26.1578
1221.1	27.2315
1222.2	23
1223.29	26.9342
1224.39	24.157
1225.49	27.1166
1226.58	26.2329
1227.68	27.8003
1228.77	25.0647
1229.87	25.4959
1230.96	27.3023
1232.06	26.2365
1233.15	25.7154
1234.25	28.9071
1235.34	26.6766
1236.44	26.6008
1237.53	25.9248
1238.63	29.217
1239.72	26.013
1240.81	23.2379
1241.91	25.5777
1243	25.839
1244.09	24.3543
1245.19	27.1019
1246.28	27.2694
1247.37	26.9989
1248.46	27.8602
1249.56	29.71
1250.65	27.2747
1251.74	24.019
1252.83	26.2302
1253.92	27.2354
1255.01	28.8237
1256.11	28.7671
1257.2	27.92
1258.29	28.7834
1259.38	26.8271
1260.47	29.6896
1261.56	26.9622
1262.65	28.6992
1263.74	28.4058
1264.83	27.57
1265.92	28.0898
1267.01	27.3494
1268.1	26.7815
1269.19	27.7984
1270.27	28.744
1271.36	24.2935
1272.45	27.3859
1273.54	23.5116
1274.63	24.8535
1275.72	26.2845
1276.8	25.9005
1277.89	23.4496
1278.98	26.0958
1280.07	27.4201
1281.15	26.8859
1282.24	24.9096
1283.33	24.9534
1284.41	24.6949
1285.5	26.5154
1286.59	28.712
1287.67	29.2548
1288.76	28.2526
1289.84	27.8878
1290.93	28.5368
1292.01	23.1997
1293.1	24.6273
1294.19	27.4717
1295.27	26.7877
1296.35	22.5531
1297.44	24.5663
1298.52	22.7533
1299.61	26.302
1300.69	26.5673
1301.78	26.1173
1302.86	24.6206
1303.94	27.0024
1305.03	27.2932
1306.11	22.9845
1306.4	21.5
1307.49	27
1308.57	25.5
1309.66	25.5
1310.75	24
1311.84	27.5
1312.92	25.5
1314.01	28
1315.1	29
1316.19	27.5
1317.27	25.5
1318.36	25
1319.45	27
1320.53	26.5
1321.62	27
1322.7	23
1323.79	22
1324.88	25.5
1325.96	27
1327.05	28
1328.13	25.5
1329.21	25.5
1330.3	28
1331.38	25.5
1332.47	25
1333.55	27
1334.64	27.5
1335.72	26.5
1336.8	30
1337.89	27.5
1338.97	29
1340.05	29.5
1341.14	26.5
1342.22	30.5
1343.3	27
1344.39	27.5
1345.47	26
1346.55	25
1347.63	28.5
1348.71	26
1349.79	25
1350.88	28
1351.96	30
1353.04	28.5
1354.12	26.5
1355.2	29
1356.28	28.5
1357.36	28
1358.44	26.5
1359.52	25.5
1360.6	23
1361.68	31.5
1362.76	26
1363.84	26.5
1364.92	25
1366	29
1367.08	23
1368.16	28.5
1369.23	28.5
1370.31	27
1371.39	26
1372.47	26.5
1373.55	25.5
1374.62	25
1375.7	26
1376.78	27
1377.85	27.5
1378.93	24.5
1380.01	26.5
1381.09	26.5
1382.16	25.5
1383.24	26
1384.31	28.5
1385.39	28
1386.47	26
1387.54	30
1388.62	28
1389.69	29
1390.77	27.5
1391.84	28
1392.92	27.5
1393.99	24
1395.06	26
1396.14	27
1397.21	29.5
1398.29	31
1399.36	32
1400.43	30.5
1401.51	33
1402.58	35
1403.65	32.5
1404.73	31
1405.8	36
1406.87	32
1407.94	31.5
1409.02	32.5
1410.09	36
1411.16	29.5
1412.23	32.5
1413.3	33
1414.37	37
1415.45	33
1416.52	29
1417.59	31
1418.66	30
1419.73	28
1420.8	26.5
1421.87	30.5
1422.94	29.5
1424.01	29
1425.08	27.5
1426.15	32
1427.22	29.5
1428.29	27.5
1429.35	26.5
1430.42	27
1431.49	29.5
1432.56	30.5
1433.63	26
1434.7	25
1435.77	26
1436.83	22.5
1437.9	27.5
1438.97	20.5
1440.04	26
1441.1	26.5
1442.17	25.5
1443.24	27.5
1444.3	29
1445.37	29
1446.44	25
1447.5	26
1448.57	27.5
1449.63	29.5
1450.7	29
1451.76	31
1452.83	27.5
1453.89	28.5
1454.96	30
1456.02	27.5
1457.09	21
1458.15	28.5
1459.22	29.5
1460.28	25
1461.34	29
1462.41	22
1463.47	26
1464.54	27
1465.6	27
1466.66	28
1467.72	28.5
1468.79	31
1469.85	26.5
1470.91	26.5
1471.97	24
1473.04	24.5
1474.1	33
1475.16	25
1476.22	32.5
1477.28	26
1478.34	30
1479.4	29
1480.47	27.5
1481.53	33
1482.59	26
1483.65	29
1484.71	25
1485.77	30
1486.83	25
1487.89	28.5
1488.95	28
1490.01	27.5
1491.07	29.5
1492.12	27.5
1493.18	28.5
1494.24	29.5
1495.3	29.5
1496.36	31
1497.42	27.5
1498.47	26
1499.53	29
1500.59	30.5
1501.65	26.5
1502.7	27
1503.76	28
1504.82	24
1505.88	26.5
1506.93	28
1507.99	28
1509.05	25.5
1510.1	27
1511.16	27.5
1512.21	28
1513.27	27
1514.32	27.5
1515.38	23
1516.43	30
1517.49	27
1518.54	27
1519.6	29.5
1520.65	32.5
1521.71	21
1522.76	26.5
1523.82	28.5
1524.87	29
1525.92	31.5
1526.98	30
1528.03	26.5
1529.08	27
1530.14	25
1531.19	25
1532.24	28
1533.3	29
1534.35	25
1535.4	27
1536.45	28.5
1537.5	25.5
1538.56	25.5
1539.61	28
1540.66	25.5
1541.71	27.5
1542.76	33
1543.81	23.5
1544.86	25.5
1545.91	23
1546.96	27
1548.01	28.5
1549.06	31
1550.11	29.5
1551.16	25
1552.21	30
1553.26	27
1554.31	25.5
1555.36	24.5
1556.41	27.5
1557.46	26.5
1558.51	29
1559.55	28
1560.6	27
1561.65	29.5
1562.7	26.5
1563.75	29
1564.79	30.5
1565.84	28.5
1566.89	28.5
1567.94	32
1568.98	27
1570.03	30
1571.07	26
1572.12	28
1573.17	25
1574.21	26
1575.26	25
1576.31	29
1577.35	25.5
1578.4	29
1579.44	28.5
1580.49	28
1581.53	27
1582.58	25
1583.62	24.5
1584.67	25.5
1585.71	30.5
1586.75	27
1587.8	24
1588.84	25.5
1589.89	25.5
1590.93	32.5
1591.97	27.5
1593.02	27
1594.06	28
1595.1	28
1596.14	27.5
1597.19	22
1598.23	27
1599.27	28.5
1600.31	25.5
1601.35	27
1602.4	27
1603.44	28
1604.48	28.5
1605.52	25.5
1606.56	26.5
1607.6	28.5
1608.64	28.5
1609.68	25
1610.72	24
1611.76	29
1612.8	26.5
1613.84	27
1614.88	26.5
1615.92	27
1616.96	29
1618	29
1619.04	27
1620.08	24.5
1621.12	29
1622.16	28
1623.19	28
1624.23	32
1625.27	26.5
1626.31	28
1627.35	23
1628.38	22
1629.42	26
1630.46	27.5
1631.5	26
1632.53	27
1633.57	29
1634.61	26
1635.64	28
1636.68	25
1637.71	27.5
1638.75	25.5
1639.79	28.5
1640.82	27
1641.86	27.5
1642.89	26
1643.93	26
1644.96	28
1646	27
1647.03	27
1648.07	27.5
1649.1	22
1650.14	25.5
1651.17	26
1652.2	28.5
1653.24	26
1654.27	25.5
1655.3	26.5
1656.34	23
1657.37	24
1658.4	28.5
1659.44	28
1660.47	27
1661.5	24
1662.53	25.5
1663.57	29
1664.6	27
1665.63	27.5
1666.66	29.5
1667.69	25
1668.72	28.5
1669.75	27
1670.79	30
1671.82	29
1672.85	24.5
1673.88	30.5
1674.91	27
1675.94	26
1676.97	26
1678	26.5
1679.03	27
1680.06	25.5
1681.09	28
1682.11	31
1683.14	26
1684.17	30.5
1685.2	29.5
1686.23	27.5
1687.26	28
1688.29	23
1689.32	26.5
1690.34	26
1691.37	27.5
1692.4	27
1693.43	27
1694.45	27
1695.48	28.5
1696.51	26
1697.53	24
1698.56	25
1699.59	28.5
1700.61	22.5
1701.64	29
1702.66	24.5
1703.69	28
1704.72	23
1705.74	29
1706.77	25
1707.79	29
1708.82	27
1709.84	29
1710.87	26
1711.89	28.5
1712.92	24
1713.94	27
1714.96	25
1715.99	27.5
1717.01	26.5
1718.04	28
1719.06	27
1720.08	29
1721.11	30
1722.13	31
1723.15	26
1724.17	26
1725.2	29.5
1726.22	33.5
1727.24	31
1728.26	28
1729.28	27.5
1730.31	27.5
1731.33	27
1732.35	24
1733.37	26
1734.39	21
1735.41	25
1736.43	24.5
1737.45	24.5
1738.47	25
1739.49	29
1740.51	25.5
1741.53	24
1742.55	29.5
1743.57	29.5
1744.59	24.5
1745.61	26
1746.63	26.5
1747.65	30.5
1748.67	25
1749.69	25
1750.71	29
1751.72	30.5
1752.74	28.5
1753.76	29
1754.78	26
1755.8	30
1756.81	26
1757.83	30
1758.85	22.5
1759.86	24
1760.88	28
1761.9	23
1762.91	24.5
1763.93	28.5
1764.95	27.5
1765.96	27.5
1766.98	28.5
1768	29.5
1769.01	27.5
1770.03	22
1771.04	29
1772.06	25
1773.07	22
1774.09	26
1775.1	26.5
1776.12	31.5
1777.13	27
1778.14	24
1779.16	25.5
1780.17	24
1781.19	29
1782.2	29.5
1783.21	27.5
1784.23	31
1785.24	27
1786.25	28
1787.27	27.5
1788.28	24
1789.29	26.5
1790.3	29
1791.32	28.5
1792.33	25
1793.34	29
1794.35	27.5
1795.36	24
1796.37	28
1797.38	27.5
1798.4	26
1799.41	21.5
1800.42	29
1801.43	28.5
1802.44	23.5
1803.45	24
1804.46	29
1805.47	27
1806.48	30.5
1807.49	28
1808.5	29.5
1809.51	25
1810.52	23.5
1811.53	27.5
1812.53	24.5
1813.54	28
1814.55	29
1815.56	25
1816.57	30
1817.58	26
1818.58	25.5
1819.59	26.5
1820.6	26
1821.61	29.5
1822.61	26
1823.62	27
1824.63	28
1825.64	29
1826.64	26
1827.65	23
1828.66	27.5
1829.66	25
1830.67	25.5
1831.67	24.5
1832.68	26
1833.68	28.5
1834.69	26
1835.7	24
1836.7	28
1837.71	26.5
1838.71	24.5
1839.71	30
1840.72	25
1841.72	27.5
1842.73	24.5
1843.73	29
1844.74	27
1845.74	27.5
1846.74	30
1847.75	26
1848.75	26.5
1849.75	26.5
1850.76	21.5
1851.76	25
1852.76	26
1853.76	26
1854.77	28
1855.77	25.5
1856.77	28.5
1857.77	28
1858.77	24
1859.78	29
1860.78	23
1861.78	23.5
1862.78	27.5
1863.78	27
1864.78	27.5
1865.78	29.5
1866.78	30.5
1867.78	24
1868.78	28
1869.78	31
1870.78	29.5
1871.78	28
1872.78	27
1873.78	23
1874.78	25.5
1875.78	23
1876.78	26.5
1877.78	29
1878.78	28
1879.77	26
1880.77	26
1881.77	28
1882.77	27
1883.77	28.5
1884.76	27.5
1885.76	24
1886.76	27.5
1887.76	25.5
1888.75	28
1889.75	29.5
1890.75	25.5
1891.74	25
1892.74	28.5
1893.74	27
1894.73	26
1895.73	27
1896.72	25.5
1897.72	23
1898.72	27.5
1899.71	25
1900.71	25
1901.7	23
1902.7	29
1903.69	24
1904.69	27.5
1905.68	25
1906.67	27.5
1907.67	26
1908.66	25
1909.66	24.5
1910.65	30.5
1911.64	26
1912.64	29
1913.63	26.5
1914.62	26
1915.62	25.5
1916.61	30
1917.6	25.5
1918.59	22
1919.59	23.5
1920.58	26
1921.57	24
1922.56	25
1923.55	25.5
1924.55	25
1925.54	28
1926.53	25.5
1927.52	29.5
1928.51	24.5
1929.5	26
1930.49	24
1931.48	26
1932.47	26.5
1933.46	22.5
1934.45	24
1935.44	25
1936.43	23
1937.42	26.5
1938.41	26
1939.4	26
1940.39	21.5
1941.38	26.5
1942.37	27.5
1943.36	25
1944.34	26.5
1945.33	24
1946.32	24
1947.31	25.5
1948.3	27.75
1949.28	29.5
1950.27	28
1951.26	29.5
1952.25	25
1953.23	27
1954.22	30.5
1955.21	24.5
1956.2	21
1957.18	28.5
1958.17	29.5
1959.15	27
1960.14	27.5
1961.13	26
1962.11	24.5
1963.1	23.5
1964.08	24
1965.07	23.5
1966.05	28
1967.04	22.5
1968.02	24
1969.01	31
1969.99	27.5
1970.98	24.5
1971.96	26.5
1972.94	24.5
1973.93	23.5
1974.91	27.5
1975.9	25.5
1976.88	23
1977.86	27
1978.85	21
1979.83	24
1980.81	27.5
1981.8	28
1982.78	23
1983.76	28.5
1984.74	24
1985.72	27.5
1986.71	25
1987.69	30.5
1988.67	23
1989.65	26
1990.63	22.5
1991.61	27
1992.6	26
1993.58	20
1994.56	26.5
1995.54	25
1996.52	23
1997.5	24
1998.48	23
1999.46	29
2000.44	22
2001.42	22
2002.4	25
2003.38	25.5
2004.36	23
2005.34	26
2006.32	29
2007.29	24
2008.27	26.5
2009.25	28
2010.23	26.5
2011.21	22
2012.19	24
2013.16	22
2014.14	25
2015.12	23
2016.1	23.5
2017.07	24
2018.05	27
2019.03	31
2020	26
2020.98	24
2021.96	27
2022.93	27
2023.91	28.5
2024.89	24.5
2025.86	26
2026.84	22
2027.81	25
2028.79	24.5
2029.77	27
2030.74	27
2031.72	28.5
2032.69	20
2033.67	28
2034.64	28.5
2035.61	24
2036.59	25
2037.56	22
2038.54	22
2039.51	27.5
2040.48	25.5
2041.46	25.5
2042.43	24
2043.41	25.5
2044.38	24
2045.35	28
2046.32	21
2047.3	26.5
2048.27	21
2049.24	24
2050.21	22
2051.19	23
2052.16	26
2053.13	25
2054.1	25
2055.07	24.5
2056.04	25
2057.02	25
2057.99	25.5
2058.96	25.5
2059.93	25
2060.9	27
2061.87	28
2062.84	22.5
2063.81	25
2064.78	24.5
2065.75	23.5
2066.72	27
2067.69	23
2068.66	27
2069.63	23
2070.6	22
2071.57	29
2072.53	23
2073.5	26
2074.47	24.5
2075.44	23
2076.41	21.5
2077.38	21.5
2078.34	24
2079.31	24
2080.28	24
2081.25	27.5
2082.21	23.5
2083.18	23
2084.15	25
2085.12	24
2086.08	23
2087.05	24.5
2088.02	25.5
2088.98	27.5
2089.95	22.5
2090.91	22.5
2091.88	25
2092.85	23.5
2093.81	24.5
2094.78	29
2095.74	24.5
2096.71	26
2097.67	25
2098.64	26
2099.6	25
2100.57	24.5
2101.53	25.5
2102.5	24
2103.46	25.5
2104.42	24
2105.39	25.5
2106.35	22.5
2107.31	25
2108.28	26
2109.24	27
2110.2	24.5
2111.17	25
2112.13	23.5
2113.09	26.5
2114.06	27
2115.02	22
2115.98	27
2116.94	25
2117.9	24.5
2118.86	26
2119.83	26.5
2120.79	25
2121.75	27.5
2122.71	22.5
2123.67	24.5
2124.63	21
2125.59	23.5
2126.55	22.5
2127.51	24.5
2128.48	24
2129.43	25
2130.4	21.5
2131.35	25
2132.31	21.5
2133.27	24
2134.23	20.5
2135.19	25.5
2136.15	27
2137.11	23
2138.07	23
2139.03	20.5
2139.99	23.5
2140.95	20.5
2141.9	25
2142.86	23.0035
2143.82	22.9583
2144.78	24.0284
2145.74	25.0678
2146.69	26.425
2147.65	23.1335
2148.61	22.6721
2149.56	24.0169
2150.52	26.6787
2151.48	22.9551
2152.44	23.8967
2153.39	21.8876
2154.35	28.3638
2155.3	20.4711
2156.26	24.3259
2157.22	25.907
2158.17	24.2047
2159.13	22.7289
2160.08	24.8576
2161.04	22.9378
2161.99	22.9264
2162.95	24.5837
2163.9	24.8486
2164.86	24.1432
2165.81	23.5485
2166.77	25.6325
2167.72	21.4326
2168.68	27.1202
2169.63	24.4204
2170.58	27.2962
2171.54	24.3714
2172.49	20.6122
2173.44	24.6217
2174.4	22.9082
2175.35	25.802
2176.3	22.0677
2177.26	25.1483
2178.21	21.9033
2179.16	25.1495
2180.11	26.0155
2181.07	23.6266
2182.02	23.8179
2182.97	24.2937
2183.92	25.1189
2184.88	24.1536
2185.83	23.7959
2186.78	23.7418
2187.73	25.0236
2188.68	24.5575
2189.63	26.1042
2190.58	24.5748
2191.53	25.7725
2192.48	23.3266
2193.43	25.4691
2194.38	23.9305
2195.33	25.4478
2196.28	23.9948
2197.23	24.8332
2198.18	24.0545
2199.13	23.9046
2200.08	24.8239
2201.03	23.3848
2201.98	23.5206
2202.93	24.0051
2203.88	21.1596
2204.83	23.7747
2205.78	22.5631
2206.72	22.4979
2207.67	21.3325
2208.62	23.9201
2209.57	24.0089
2210.52	22.1218
2211.46	22.2507
2212.41	23.2343
2213.36	24.4254
2214.31	25.4444
2215.25	21.8842
2216.2	23.3998
2217.15	24.4886
2218.09	23.968
2219.04	22.1811
2219.99	24.1231
2220.93	23
2221.88	20.196
2222.83	22.6913
2223.77	25.9731
2224.72	26.3537
2225.66	25.8382
2226.61	23.4226
2227.55	21.9593
2228.5	24.7683
2229.44	24.3638
2230.39	24.4154
2231.33	26.1738
2232.28	22.9756
2233.22	26.8919
2234.17	24.8564
2235.11	24.3825
2236.05	25.4544
2237	27.4198
2237.94	26.3948
2238.88	22.8807
2239.83	22.3842
2240.04	22.5
2240.98	25
2241.93	25
2242.88	26
2243.83	23.5
2244.78	21.5
2245.72	18
2246.67	26
2247.62	21
2248.56	23.5
2249.51	24
2250.46	21.5
2251.4	23.5
2252.35	20
2253.3	22.5
2254.24	26.5
2255.19	23
2256.14	23.5
2257.08	22.5
2258.03	23
2258.97	23
2259.92	24
2260.86	25
2261.81	23
2262.75	25.5
2263.7	24
2264.64	22.5
2265.59	26
2266.53	25
2267.48	22
2268.42	29.5
2269.36	22.5
2270.31	24
2271.25	26.5
2272.19	22.5
2273.14	22.5
2274.08	23.5
2275.02	25
2275.97	20.5
2276.91	21.5
2277.85	24
2278.8	24.5
2279.74	24.5
2280.68	22.5
2281.62	26
2282.56	19
2283.51	25
2284.45	24
2285.39	25
2286.33	21.5
2287.27	22.5
2288.21	24.5
2289.15	22.5
2290.09	23.5
2291.04	22
2291.98	23.5
2292.92	22.5
2293.86	21
2294.8	23.5
2295.74	24
2296.68	23
2297.62	23.5
2298.56	21
2299.5	23.5
2300.44	20
2301.37	23.5
2302.31	24
2303.25	22
2304.19	24.5
2305.13	20
2306.07	23.5
2307.01	26.5
2307.94	19.5
2308.88	25.5
2309.82	26.5
2310.76	26.5
2311.7	24
2312.63	24
2313.57	19
2314.51	20
2315.44	23.5
2316.38	26.5
2317.32	23
2318.26	25.5
2319.19	23
2320.13	22.5
2321.06	25.5
2322	24.5
2322.94	23
2323.87	24.5
2324.81	26
2325.74	27
2326.68	24.5
2327.61	23.5
2328.55	27.5
2329.48	25.5
2330.42	27.5
2331.35	22
2332.29	26
2333.22	24.5
2334.16	33
2335.09	23
2336.02	23
2336.96	23
2337.89	22
2338.83	22
2339.76	26
2340.69	23
2341.63	24
2342.56	22
2343.49	23.5
2344.42	25.5
2345.36	27.5
2346.29	24
2347.22	28.5
2348.15	24
2349.09	24
2350.02	24
2350.95	21.5
2351.88	20.5
2352.81	27
2353.74	24.5
2354.68	23
2355.61	25.5
2356.54	24.5
2357.47	23.5
2358.4	23.5
2359.33	27
2360.26	25.5
2361.19	26
2362.12	23.5
2363.05	26
2363.98	26
2364.91	25.5
2365.84	26.5
2366.77	21.5
2367.7	25.5
2368.63	26.5
2369.56	24
2370.49	25
2371.41	24.5
2372.34	25.5
2373.27	24
2374.2	27
2375.13	23
2376.06	27.5
2376.98	26
2377.91	28
2378.84	24
2379.77	21
2380.69	22
2381.62	26.5
2382.55	24
2383.47	23.5
2384.4	24.5
2385.33	24.5
2386.25	19.5
2387.18	25.5
2388.11	26.5
2389.03	25
2389.96	25
2390.89	25
2391.81	20
2392.74	28
2393.66	22
2394.59	25.5
2395.51	22.5
2396.44	25
2397.36	23.5
2398.29	26
2399.21	24
2400.14	29.5
2401.06	25.5
2401.99	23
2402.91	24
2403.83	25.5
2404.76	25.5
2405.68	27.5
2406.6	19.5
2407.53	25.5
2408.45	24
2409.37	24.5
2410.3	25
2411.22	22
2412.14	26.5
2413.06	24
2413.99	24
2414.91	24
2415.83	23
2416.75	23
2417.68	23.5
2418.6	25
2419.52	23.5
2420.44	24.5
2421.36	22
2422.28	28
2423.2	23
2424.12	24
2425.05	26.5
2425.97	20.5
2426.89	26
2427.81	21.5
2428.73	28.5
2429.65	29
2430.57	24
2431.49	25
2432.41	23.5
2433.33	25.5
2434.25	29.5
2435.17	25
2436.08	29
2437	32.5
2437.92	26
2438.84	22
2439.76	23
2440.68	28
2441.6	26.5
2442.51	24
2443.43	23
2444.35	22
2445.27	24
2446.19	25
2447.1	27.5
2448.02	23
2448.94	25
2449.85	28
2450.77	23.5
2451.69	25.5
2452.61	24
2453.52	22.5
2454.44	23
2455.35	27.5
2456.27	23
2457.19	23.5
2458.1	27
2459.02	23.5
2459.94	25.5
2460.85	25
2461.77	27
2462.68	24
2463.6	21
2464.51	25
2465.43	25
2466.34	24
2467.25	25
2468.17	26
2469.08	25.5
2470	24.5
2470.91	25.5
2471.83	20.5
2472.74	27
2473.65	25.5
2474.57	24
2475.48	22
2476.39	27
2477.31	25.5
2478.22	23.5
2479.13	25.5
2480.04	24
2480.96	24.5
2481.87	25
2482.78	24
2483.69	28.5
2484.6	26.5
2485.52	27.5
2486.43	25.5
2487.34	25.5
2488.25	23
2489.16	20.5
2490.07	23
2490.99	24.5
2491.9	25
2492.81	22
2493.72	26
2494.63	26.5
2495.54	26.5
2496.45	25.5
2497.36	26
2498.27	23.5
2499.18	29
2500.09	23.5
2501	23.5
2501.91	21.5
2502.82	24.5
2503.73	27.5
2504.63	24
2505.54	27
2506.45	23
2507.36	26
2508.27	25.5
2509.18	24.5
2510.09	24
2510.99	27
2511.9	30.5
2512.81	26
2513.72	29
2514.62	23.5
2515.53	25.5
2516.44	23
2517.35	25
2518.25	25
2519.16	26
2520.07	24.5
2520.97	23.5
2521.88	29
2522.79	25
2523.69	26
2524.6	23.5
2525.51	21
2526.41	27.5
2527.32	24.5
2528.22	27
2529.13	29
2530.03	26.5
2530.94	30.5
2531.84	23.5
2532.75	27.5
2533.65	20
2534.56	21.5
2535.46	25.5
2536.37	24
2537.27	26
2538.17	26.5
2539.08	24.5
2539.98	22
2540.89	24.5
2541.79	26
2542.69	27.5
2543.6	26
2544.5	27
2545.4	25.5
2546.31	25
2547.21	26
2548.11	25.5
2549.01	27
2549.92	25
2550.82	21
2551.72	25
2552.62	24.5
2553.52	26
2554.42	26
2555.33	25
2556.23	23
2557.13	26
2558.03	22.5
2558.93	24
2559.83	21.5
2560.73	26.5
2561.63	26
2562.53	25.5
2563.43	25
2564.33	28.5
2565.24	26
2566.13	25
2567.04	26.5
2567.93	29.5
2568.83	27.5
2569.73	24.5
2570.63	25
2571.53	21
2572.43	22
2573.33	26
2574.23	27.5
2575.13	25
2576.03	26
2576.92	30
2577.82	25.5
2578.72	25
2579.62	22.5
2580.52	24.5
2581.41	21.5
2582.31	25
2583.21	24.5
2584.11	24.5
2585	23
2585.9	23.5
2586.8	25
2587.69	28.5
2588.59	23.5
2589.49	19.5
2590.38	25
2591.28	26
2592.18	24
2593.07	28
2593.97	23.5
2594.86	18
2595.76	25
2596.66	26
2597.55	22
2598.45	21.5
2599.34	22
2600.24	21
2601.13	24
2602.03	26
2602.92	28.5
2603.81	26.5
2604.71	25
2605.6	23
2606.5	22
2607.39	23.5
2608.28	23
2609.18	22
2610.07	25.5
2610.97	22
2611.86	22
2612.75	23.5
2613.64	22.5
2614.54	27.5
2615.43	21.5
2616.32	24
2617.22	27.5
2618.11	24.5
2619	28
2619.89	28.5
2620.78	24.5
2621.68	24
2622.57	24.5
2623.46	27
2624.35	23
2625.24	24
2626.13	27
2627.02	25
2627.91	26.5
2628.81	25.5
2629.7	24.5
2630.59	28.5
2631.48	27.5
2632.37	25
2633.26	25
2634.15	26
2635.04	22
2635.93	29
2636.82	27
2637.71	26.5
2638.59	24
2639.48	21
2640.37	24.5
2641.26	24.5
2642.15	23.5
2643.04	26
2643.93	24
2644.82	28
2645.71	22
2646.59	21.5
2647.48	24
2648.37	25
2649.26	24.5
2650.15	26.5
2651.03	24
2651.92	26
2652.81	24.5
2653.69	25
2654.58	26
2655.47	26
2656.35	25
2657.24	25
2658.13	24
2659.01	24
2659.9	22.5
2660.79	25.5
2661.67	23
2662.56	21
2663.44	27
2664.33	29
2665.22	26
2666.1	20
2666.99	28
2667.87	24
2668.76	23
2669.64	24
2670.52	19
2671.41	23
2672.29	25.5
2673.18	22.5
2674.06	21
2674.95	27
2675.83	25.5
2676.71	26
2677.6	26
2678.48	27
2679.36	24.5
2680.25	19
2681.13	25
2682.01	26.5
2682.9	28
2683.78	23
2684.66	24
2685.55	27.5
2686.43	22.5
2687.31	24.5
2688.19	22.5
2689.07	27
2689.96	26
2690.84	26.5
2691.72	23
2692.6	23
2693.48	29
2694.36	25
2695.24	26
2696.12	26.5
2697	26
2697.89	23.5
2698.77	29
2699.65	26
2700.53	23.5
2701.41	26.5
2702.29	28.5
2703.17	25
2704.05	26.5
2704.93	26.5
2705.81	24.5
2706.69	26.5
2707.57	25.5
2708.44	22
2709.32	25
2710.2	25
2711.08	24
2711.96	27.5
2712.84	25.5
2713.72	20.5
2714.59	28.5
2715.47	23
2716.35	24.5
2717.23	24
2718.11	26
2718.98	30
2719.86	27
2720.74	27.5
2721.62	26.5
2722.49	25.5
2723.37	22.5
2724.25	24
2725.12	26.5
2726	23
2726.88	24.5
2727.75	28.5
2728.63	22.5
2729.51	26.5
2730.38	27.5
2731.26	22
2732.13	26.5
2733.01	25
2733.88	26.5
2734.76	22.5
2735.63	27
2736.51	24
2737.38	25.5
2738.26	24
2739.13	26.5
2740.01	26
2740.88	26.5
2741.76	29.5
2742.63	22
2743.5	26.5
2744.38	23
2745.25	25
2746.13	22.5
2747	23
2747.87	21.5
2748.75	27.5
2749.62	23
2750.49	29.5
2751.36	26.5
2752.24	25.5
2753.11	25.5
2753.98	24.5
2754.86	25
2755.73	26
2756.6	25.5
2757.47	25
2758.34	21
2759.22	25
2760.09	25.5
2760.96	28
2761.83	25.5
2762.7	27.5
2763.57	22
2764.44	24
2765.31	25
2766.18	28.5
2767.06	24
2767.93	22
2768.8	25.5
2769.67	26
2770.54	25
2771.41	26
2772.28	24.5
2773.15	26.5
2774.02	24.5
2774.89	23.5
2775.75	25
2776.62	27.5
2777.49	28
2778.36	26.5
2779.23	27
2780.1	25.5
2780.97	24.5
2781.84	24.5
2782.71	24.5
2783.57	26.5
2784.44	30
2785.31	24.5
2786.18	26.5
2787.04	26
2787.91	25
2788.78	27.5
2789.65	24
2790.51	27
2791.38	29.5
2792.25	27.5
2793.12	25
2793.98	27.5
2794.85	25
2795.72	27.5
2796.58	23
2797.45	24.5
2798.31	26.5
2799.18	29.5
2800.05	24.5
2800.91	23.75
2801.78	22.5
2802.64	29.5
2803.51	28.5
2804.37	26
2805.24	26
2806.1	26.5
2806.97	28
2807.83	25.5
2808.7	23.5
2809.56	30
2810.43	23.5
2811.29	27.5
2812.15	27
2813.02	28
2813.88	29
2814.75	27
2815.61	25.5
2816.47	28
2817.34	30
2818.2	27
2819.06	30
2819.92	27
2820.79	29
2821.65	29
2822.51	27
2823.37	26
2824.24	26
2825.1	28.5
2825.96	28
2826.82	25
2827.69	29.5
2828.55	27
2829.41	26.5
2830.27	29
2831.13	27
2831.99	28
2832.85	21
2833.71	27.5
2834.58	27.5
2835.44	27.5
2836.3	21.5
2837.16	26
2838.02	27.5
2838.88	26
2839.74	28
2840.6	24
2841.46	26.5
2842.32	28
2843.18	27.5
2844.04	25
2844.9	24
2845.75	28
2846.61	29
2847.47	27.5
2848.33	29
2849.19	27
2850.05	23
2850.91	28
2851.77	26.5
2852.62	26
2853.48	29.5
2854.34	26.5
2855.2	26
2856.06	26.5
2856.91	31
2857.77	27
2858.63	26.5
2859.48	23.5
2860.34	28
2861.2	23.5
2862.06	27.5
2862.91	25
2863.77	28
2864.63	28
2865.48	29.5
2866.34	28
2867.19	28.5
2868.05	29
2868.91	28.5
2869.76	33
2870.62	30.5
2871.47	31
2872.33	30
2873.18	31
2874.04	28.5
2874.89	31
2875.75	29
2876.6	32.5
2877.46	29
2878.31	32.5
2879.17	32.5
2880.02	32
2880.88	26
2881.73	35
2882.58	29.5
2883.44	30
2884.29	32.5
2885.14	36
2886	33
2886.85	32
2887.7	30.5
2888.56	37
2889.41	40
2890.26	37
2891.12	42.5
2891.97	40.5
2892.82	43.5
2893.67	42
2894.52	38
2895.38	47.5
2896.23	51
2897.08	55
2897.93	54
2898.78	52
2899.64	54.5
2900.49	55
2901.34	58
2902.19	63
2903.04	63.5
2903.89	68
2904.74	67
2905.59	68
2906.44	72.5
2907.29	74
2908.14	72
2908.99	62
2909.84	66
2910.69	63
2911.54	58.5
2912.39	57
2913.24	56
2914.09	46.5
2914.94	45
2915.79	48.5
2916.64	43.5
2917.49	43.5
2918.34	44
2919.18	41.5
2920.03	37
2920.88	36.5
2921.73	31.5
2922.58	38
2923.42	33.5
2924.27	32.5
2925.12	34.5
2925.97	33
2926.82	30.5
2927.66	32
2928.51	29
2929.36	32
2930.2	31.5
2931.05	27.5
2931.9	31
2932.74	29.5
2933.59	29
2934.44	28
2935.28	29
2936.13	28
2936.98	29.5
2937.82	26
2938.67	29
2939.51	32
2940.36	29
2941.2	32
2942.05	27.5
2942.9	30
2943.74	31
2944.58	25
2945.43	29.5
2946.27	25
2947.12	28
2947.96	29
2948.81	29.5
2949.65	32.5
2950.5	32.5
2951.34	31.5
2952.18	29
2953.03	31.5
2953.87	34
2954.71	29
2955.56	28.5
2956.4	33.5
2957.24	34.5
2958.09	38
2958.93	34
2959.77	40
2960.62	43
2961.46	41
2962.3	38.5
2963.14	40.5
2963.98	43.5
2964.83	44
2965.67	44
2966.51	43.5
2967.35	45.5
2968.19	42
2969.04	40
2969.88	35
2970.72	41.5
2971.56	38.4951
2972.4	38.9481
2973.24	39.4206
2974.08	36.5691
2974.92	33.652
2975.76	34.9299
2976.6	30.1641
2977.44	31.3995
2978.28	30.8437
2979.12	32.9558
2979.96	28.5742
2980.8	28.2154
2981.64	33.4356
2982.48	26.6279
2983.32	27.8061
2984.16	29.5298
2985	27.9014
2985.84	27.3833
2986.68	25.3723
2987.52	30.0871
2988.35	29.3206
2989.19	26.229
2990.03	25.7504
2990.87	24.2282
2991.71	26.2268
2992.55	25.3272
2993.38	26.9952
2994.22	26.4583
2995.06	24.7541
2995.9	25.4314
2996.73	26.3056
2997.57	25.6435
2998.41	25.7555
2999.25	22.4037
3000.08	21.9786
3000.92	24.8391
3001.76	21.5653
3002.59	23.4846
3003.43	23.0087
3004.27	22.6165
3005.1	24.5487
3005.94	24.0445
3006.78	24.8094
3007.61	23.9818
3008.45	25.5491
3009.28	23.5863
3010.12	24.761
3010.95	24.8871
3011.79	23.0224
3012.62	23.762
3013.46	22.6913
3014.29	24.228
3015.13	24.0503
3015.96	24.173
3016.8	25.1434
3017.63	25.0388
3018.47	25.5934
3019.3	24.8246
3020.14	25.3769
3020.97	26.7019
3021.8	25.1011
3022.64	22.9512
3023.47	22.1334
3024.3	22.5826
3025.14	20.933
3025.97	23.2873
3026.8	22.9025
3027.64	24.3535
3028.47	23.0923
3029.3	23.7924
3030.14	23.8018
3030.97	23.2821
3031.8	21.9179
3032.63	19.6462
3033.46	22.3176
3034.3	24.7568
3035.13	25.8983
3035.96	23.8486
3036.79	23.5426
3037.62	21.3714
3038.46	21.9745
3039.29	23.3968
3040.12	23.6743
3040.95	23.2243
3041.78	24.4988
3042.61	25.0047
3043.44	25.0801
3044.27	23.1617
3045.1	21.7874
3045.93	22.4206
3046.76	24.1326
3047.59	22.3482
3048.42	21.8489
3049.25	21.8347
3050.08	21.7579
3050.91	21.3095
3051.74	22.7594
3052.57	25.1592
3053.4	25.1432
3054.23	23.0505
3055.06	21.9272
3055.89	20.7657
3056.72	18.6426
3057.32	21.5
3058.15	23.5
3058.98	24
3059.82	26.5
3060.65	26
3061.48	22
3062.31	23
3063.15	20
3063.98	23.5
3064.81	25.5
3065.64	25.5
3066.48	25
3067.31	20
3068.14	23
3068.97	22.5
3069.8	24
3070.63	18.5
3071.47	18.5
3072.3	24.5
3073.13	25.5
3073.96	25
3074.79	28
3075.62	25
3076.45	25.5
3077.28	23.5
3078.11	26.5
3078.94	22.5
3079.77	25.5
3080.6	27
3081.43	25
3082.26	27
3083.09	21.5
3083.92	22
3084.75	27.5
3085.58	24
3086.41	24
3087.24	20.5
3088.07	24
3088.9	19.5
3089.73	23
3090.55	25.5
3091.38	21
3092.21	23
3093.04	24
3093.87	23
3094.7	23.5
3095.52	22
3096.35	25
3097.18	25.5
3098.01	23
3098.84	25.5
3099.66	24
3100.49	27.5
3101.32	23.5
3102.14	23
3102.97	20.5
3103.8	23.5
3104.62	21
3105.45	22.5
3106.28	21
3107.1	28.5
3107.93	20.5
3108.76	26
3109.58	24.5
3110.41	22
3111.23	22.5
3112.06	25
3112.89	24
3113.71	23.5
3114.54	23.5
3115.36	25
3116.19	23
3117.01	25
3117.84	26
3118.66	25.5
3119.49	22.5
3120.31	24
3121.13	25
3121.96	23
3122.78	28
3123.61	25
3124.43	27.5
3125.25	24.5
3126.08	23.5
3126.9	24
3127.73	24
3128.55	27
3129.37	21.5
3130.19	21.5
3131.02	23
3131.84	22.5
3132.66	20.5
3133.49	22.5
3134.31	22.5
3135.13	22.5
3135.95	21
3136.78	22.5
3137.6	24
3138.42	24.5
3139.24	23
3140.06	26
3140.88	27.5
3141.71	23
3142.53	23
3143.35	24
3144.17	23
3144.99	24.5
3145.81	24
3146.63	26.5
3147.45	26
3148.27	24
3149.09	22.5
3149.91	23.5
3150.73	24.5
3151.56	23
3152.37	24.5
3153.2	22.5
3154.01	20.5
3154.83	28
3155.65	22
3156.47	23.5
3157.29	25.5
3158.11	23.5
3158.93	24
3159.75	20
3160.57	24.5
3161.39	21
3162.21	23
3163.02	24.5
3163.84	22
3164.66	23
3165.48	25
3166.3	21
3167.11	24.5
3167.93	26
3168.75	23.5
3169.57	22
3170.39	25
3171.2	24.5
3172.02	22.5
3172.84	21
3173.65	23
3174.47	20.5
3175.29	22
3176.1	22
3176.92	25
3177.74	26
3178.55	22
3179.37	23
3180.19	23.5
3181	24
3181.82	25
3182.63	24
3183.45	23
3184.27	25
3185.08	24
3185.9	21.5
3186.71	26.5
3187.53	22.5
3188.34	25.5
3189.16	25
3189.97	22
3190.79	26.5
3191.6	23.5
3192.41	21
3193.23	25.5
3194.04	21.5
3194.86	24.5
3195.67	20
3196.48	25
3197.3	26.5
3198.11	23
3198.93	24
3199.74	22.5
3200.55	20
3201.36	21
3202.18	26
3202.99	26.5
3203.8	20
3204.62	25.5
3205.43	24.5
3206.24	26.5
3207.05	22.5
3207.87	23.5
3208.68	23
3209.49	23.5
3210.3	24
3211.11	22
3211.93	21
3212.74	26.5
3213.55	25.5
3214.36	25
3215.17	26
3215.98	24.5
3216.79	25
3217.6	25.5
3218.41	23.5
3219.22	21
3220.03	21.5
3220.85	23
3221.66	21.5
3222.47	24.5
3223.28	22.5
3224.09	22.5
3224.9	25
3225.71	24.5
3226.52	24
3227.33	25
3228.13	23
3228.94	28
3229.75	25.5
3230.56	26
3231.37	26.5
3232.18	24.5
3232.99	23
3233.8	24
3234.61	27.5
3235.41	22
3236.22	18
3237.03	23.5
3237.84	24
3238.65	17
3239.45	25
3240.26	19.5
3241.07	20.5
3241.88	26.5
3242.68	23
3243.49	25.5
3244.3	21.5
3245.1	22
3245.91	23
3246.72	22.5
3247.53	26
3248.33	19
3249.14	25.5
3249.95	24.5
3250.75	24.5
3251.56	25.5
3252.36	21
3253.17	29
3253.97	25.5
3254.78	22.5
3255.59	19
3256.39	21.5
3257.2	24
3258	27
3258.81	24.5
3259.61	28
3260.42	26
3261.22	21
3262.03	24
3262.83	19
3263.64	24
3264.44	23
3265.24	22
3266.05	24.5
3266.85	28
3267.66	27
3268.46	25
3269.26	23.5
3270.07	27
3270.87	27.5
3271.67	23.5
3272.48	23.5
3273.28	25.5
3274.08	23
3274.89	25
3275.69	23.5
3276.49	26
3277.29	25
3278.1	22
3278.9	22
3279.7	25
3280.5	21
3281.3	22.5
3282.11	19.5
3282.91	23.5
3283.71	24
3284.51	24
3285.31	25
3286.11	25.5
3286.91	29
3287.72	20
3288.52	24
3289.32	27
3290.12	24
3290.92	26
3291.72	23.5
3292.52	23.5
3293.32	25
3294.12	23
3294.92	23.5
3295.72	28
3296.52	25.5
3297.32	24.5
3298.12	25.5
3298.92	22.5
3299.72	27
3300.52	24
3301.32	26
3302.12	24.5
3302.92	26
3303.71	21.5
3304.51	23
3305.31	24.5
3306.11	23
3306.91	22
3307.71	22.5
3308.5	25
3309.3	22.5
3310.1	22
3310.9	24
3311.7	26
3312.49	27.5
3313.29	24
3314.09	26.5
3314.89	25
3315.68	24
3316.48	24.5
3317.28	24
3318.07	24.5
3318.87	26
3319.67	25
3320.46	26.5
3321.26	21.5
3322.06	24.5
3322.85	24
3323.65	21.5
3324.44	25
3325.24	23.5
3326.04	22
3326.83	26
3327.63	24.5
3328.42	21
3329.22	23.5
3330.01	23
3330.81	27.5
3331.6	23
3332.4	23
3333.19	23
3333.99	25
3334.78	22
3335.58	24
3336.37	20.5
3337.17	26
3337.96	24
3338.75	20
3339.55	25
3340.34	26
3341.13	24.5
3341.93	19
3342.72	27.5
3343.51	24.5
3344.31	27
3345.1	21
3345.89	27
3346.69	20
3347.48	26
3348.27	24
3349.06	20.5
3349.86	26.5
3350.65	23.5
3351.44	22.5
3352.23	23.5
3353.03	23
3353.82	25.5
3354.61	23
3355.4	24
3356.19	23
3356.98	26
3357.78	22
3358.57	25.5
3359.36	23.5
3360.15	26
3360.94	20
3361.73	23.5
3362.52	26
3363.31	22
3364.1	21.5
3364.89	25
3365.68	26
3366.47	24.5
3367.26	25
3368.05	25
3368.84	21
3369.63	25.5
3370.42	25.5
3371.21	24.5
3372	23
3372.79	23
3373.58	24.5
3374.37	22
3375.16	24.5
3375.95	26.5
3376.73	25.5
3377.52	25.5
3378.31	21.5
3379.1	22
3379.89	24.5
3380.68	24
3381.46	25.5
3382.25	25
3383.04	26.5
3383.83	24
3384.62	25.5
3385.4	25.5
3386.19	24
3386.98	21.5
3387.76	26.5
3388.55	22
3389.34	26
3390.13	22
3390.91	23.5
3391.7	24.5
3392.49	27
3393.27	23.5
3394.06	24.5
3394.84	25.5
3395.63	24.5
3396.42	25
3397.2	24.5
3397.99	24.5
3398.77	28
3399.56	24
3400.34	22
3401.13	23
3401.92	27.5
3402.7	24
3403.49	24
3404.27	25.5
3405.06	26
3405.84	22
3406.62	22
3407.41	27
3408.19	23
3408.98	26.5
3409.76	26
3410.55	24.5
3411.33	23.5
3412.11	27
3412.9	22
3413.68	24.5
3414.46	27
3415.25	25
3416.03	23.5
3416.81	25
3417.6	24.5
3418.38	25
3419.16	23
3419.95	28.5
3420.73	23.5
3421.51	20
3422.29	26.5
3423.08	23
3423.86	26.5
3424.64	25
3425.42	26.5
3426.2	24
3426.98	24.5
3427.77	25.5
3428.55	25.5
3429.33	26.5
3430.11	22
3430.89	28.5
3431.67	24
3432.45	29
3433.24	25
3434.02	25.5
3434.8	24.5
3435.58	22.5
3436.36	24
3437.14	23
3437.92	26
3438.7	23
3439.48	26.5
3440.26	26
3441.04	22.5
3441.82	22.5
3442.6	24.5
3443.38	23.5
3444.16	22
3444.94	25
3445.71	28.5
3446.49	25.5
3447.27	22.5
3448.05	22
3448.83	23
3449.61	23.5
3450.39	25.5
3451.17	24
3451.94	23.5
3452.72	23.5
3453.5	23
3454.28	24
3455.06	25.5
3455.83	26
3456.61	23
3457.39	25.5
3458.17	21.5
3458.94	23
3459.72	22
3460.5	23.5
3461.28	21
3462.05	22
3462.83	25.5
3463.61	20.5
3464.38	26.5
3465.16	23
3465.93	22.5
3466.71	25.5
3467.49	25.5
3468.26	24
3469.04	23
3469.82	21.5
3470.59	22.5
3471.37	19
3472.14	20
3472.92	23.5
3473.69	22
3474.47	22.5
3475.24	23.5
3476.02	25
3476.79	22
3477.57	25.5
3478.34	22
3479.12	23.5
3479.89	24
3480.67	24
3481.44	25
3482.21	23
3482.99	24.5
3483.76	25.5
3484.54	25
3485.31	25.5
3486.08	22
3486.86	25.5
3487.63	20.5
3488.4	22
3489.18	19.5
3489.95	23.5
3490.72	20
3491.5	25.5
3492.27	26
3493.04	24
3493.81	25
3494.59	27
3495.36	24
3496.13	19
3496.9	22
3497.67	26
3498.45	23.5
3499.22	26
3499.99	25.5
