#Acq. time (s)=	5
#Accumulations=	5
#Range (cm-¹)=	100...3500
#Windows=	4
#Autofocus=	Off
#AutoExposure=	Off
#Spike filter=	Multiple accum.
#Delay time (s)=	0
#Binning=	1
#Readout mode=	Signal
#DeNoise=	Off
#ICS correction=	Off
#Dark correction=	Off
#Inst. Process=	Off
#Instrument=	LabRAM HR Evol
#Detector=	Syncerity OE
#Objective=	x100_VIS
#Grating=	600 (500nm)
#ND Filter=	25%
#Laser=	633nm_Edge
#Hole=	100.021
#Range=	Visible
#Project=	verificaciones
#Sample=	a5
#Site=	lined
#Title=	bolusa5lined
#Remark=	
#Date=	09.01.2026 13:28
#Acquired=	09.01.2026 13:28:13
100.695	29
101.978	32
103.262	35.5
104.545	30
105.829	33
107.112	27
108.394	29
109.676	29
110.958	31
112.24	33
113.522	31.5
114.803	30.5
116.084	30
117.365	37
118.646	32.5
119.927	32.5
121.207	28.5
122.487	31
123.767	34
125.047	30.5
126.326	33
127.606	34
128.885	34.5
130.164	34
131.442	41.5
132.721	38.5
133.999	36.5
135.277	33
136.555	36.5
137.831	36
139.109	35
140.386	36.5
141.663	36
142.94	42
144.216	35
145.493	36.5
146.769	39.5
148.043	42
149.319	37
150.595	42.5
151.87	41.5
153.145	45
154.42	41
155.693	38
156.968	44
158.242	43.5
159.516	43
160.79	40.5
162.062	40
163.336	45.5
164.609	42.5
165.882	46
167.153	39.5
168.426	40.5
169.699	35
170.971	41
172.241	40
173.513	42.5
174.785	41
176.055	41
177.326	39.5
178.597	42
179.866	45.5
181.137	41
182.407	41
183.676	42.5
184.946	44
186.216	40.5
187.484	38.5
188.753	44.5
190.022	43
191.29	42.5
192.558	43.5
193.825	40
195.094	41
196.36	37
197.628	45
198.896	40.5
200.162	36
201.429	39
202.695	39
203.962	40.5
205.227	33
206.493	40.5
207.758	43
209.024	38.5
210.289	36.5
211.554	34
212.818	35
214.083	40
215.347	38.5
216.612	35.5
217.875	34.5
219.138	36.5
220.402	37
221.665	35.5
222.928	30
224.19	31.5
225.454	35
226.715	34.5
227.977	30
229.24	34.5
230.501	31.5
231.762	35.5
233.024	30.5
234.284	30.5
235.546	33
236.806	34
238.066	30
239.327	28
240.587	29.5
241.846	31
243.105	26
244.365	30
245.624	33
246.882	30.5
248.142	30
249.4	34.5
250.658	30
251.916	30
253.174	33
254.432	28
255.689	33.5
256.945	33
258.202	31.5
259.46	31
260.716	27.5
261.972	27.5
263.228	28.5
264.483	29.5
265.74	32
266.996	30.5
268.251	28.5
269.505	31.5
270.76	31.5
272.014	32.5
273.268	30.5
274.522	31.5
275.778	25
277.031	29
278.285	27
279.538	27.5
280.791	28.5
282.043	29.5
283.296	28.5
284.548	28.5
285.8	31
287.052	32.5
288.304	25
289.556	32
290.807	31.5
292.058	34.5
293.309	30
294.56	28
295.81	27.5
297.061	27.5
298.311	30
299.561	26
300.81	31
302.06	27.5
303.309	28
304.558	27
305.807	27.5
307.056	29.5
308.305	32
309.551	25.5
310.8	31
312.047	30
313.295	28
314.543	31.5
315.79	27
317.037	29
318.284	29
319.529	28
320.776	28
322.022	31.5
323.268	27.5
324.514	31.5
325.758	30
327.004	29
328.249	24
329.494	29
330.739	29
331.982	33
333.227	31
334.471	29.5
335.715	25.5
336.958	32
338.201	31
339.445	33
340.687	33.5
341.93	31.5
343.173	29.5
344.414	29
345.657	29.5
346.899	28.5
348.14	29
349.381	28.5
350.623	26.5
351.863	28.5
353.104	31.5
354.346	31
355.585	30.5
356.826	29.5
358.065	32
359.305	27
360.545	29
361.784	26.5
363.023	27.5
364.261	28.5
365.501	30
366.738	29
367.977	29.5
369.216	28.5
370.453	25.5
371.691	34.5
372.928	32.5
374.166	29
375.402	29
376.64	26
377.876	29.5
379.111	27
380.348	29
381.584	29
382.82	29
384.055	28
385.291	24
386.526	29.5
387.76	27
388.996	29
390.229	31
391.465	26
392.698	31
393.931	28.5
395.166	24
396.399	30
397.632	34
398.866	34
400.098	30
401.33	29.5
402.563	29
403.795	27.5
405.027	25.5
406.259	30
407.491	23.5
408.721	30.5
409.954	25
411.184	30
412.415	29.5
413.645	29
414.876	23.5
416.106	27.5
417.335	29.5
418.565	30
419.794	29
421.024	27
422.253	25
423.482	29
424.71	30.5
425.938	25
427.168	28
428.396	25
429.623	27
430.851	27
432.078	31.5
433.305	29
434.532	30
435.758	30.5
436.986	28.5
438.212	27
439.438	26.5
440.664	30.5
441.89	26
443.115	30.5
444.34	33.5
445.566	26.5
446.79	32.5
448.015	31.5
449.24	29.5
450.464	32.5
451.688	29
452.912	28.5
454.135	28.5
455.359	28.5
456.582	33
457.805	29
459.028	28
460.251	32.5
461.473	28
462.696	31.5
463.918	31
465.14	31.5
466.36	29
467.582	32
468.803	34.5
470.024	31.5
471.245	39
472.466	29
473.686	38.5
474.907	38
476.126	38
477.346	44
478.565	47.5
479.785	49.5
481.004	52
482.224	56.5
483.441	53
484.66	58.5
485.879	60
487.097	62.5
488.314	65
489.532	67
490.75	66
491.967	62
493.184	61.5
494.401	59.5
495.618	55.5
496.835	55.5
498.05	47
499.267	47
500.483	48
501.698	50.5
502.913	42
504.129	43
505.343	43.5
506.559	39
507.774	38
508.987	36.5
510.202	37.5
511.415	37.5
512.63	35.5
513.844	34
515.056	36
516.27	35.5
517.482	32.5
518.696	30.5
519.907	35
521.121	34
522.332	27
523.545	31
524.757	33
525.968	35
527.18	35.5
528.39	28
529.602	33
530.812	30.5
532.023	31.5
533.233	33
534.443	30
535.653	27.5
536.862	31
538.073	28
539.281	27.5
540.491	26.5
541.7	32.5
542.908	26.5
544.117	31.5
545.325	31.5
546.534	30.5
547.741	28
548.949	31
550.157	31
551.364	30.5
552.57	28.5
553.778	28
554.985	28
556.191	27.5
557.398	28.5
558.604	31.5
559.809	26
561.014	27
562.221	27
563.426	29
564.63	28.5
565.835	29
567.041	32
568.245	26.5
569.449	27.5
570.653	26
571.856	25.5
573.061	24
574.264	27
575.467	29
576.67	29
577.873	28
579.076	25.5
580.279	23.5
581.481	31.5
582.683	27
583.884	28
585.086	30.5
586.287	28
587.488	31
588.689	28
589.891	31
591.092	28.5
592.292	27
593.492	33
594.692	27
595.892	28
597.092	28.5
598.291	30.5
599.49	28
600.689	27
601.888	26.5
603.087	28.5
604.285	28
605.483	25
606.681	29
607.879	27.5
609.077	29
610.274	29.5
611.472	26.5
612.668	28
613.865	30.5
615.061	27
616.258	30
617.454	29
618.65	29
619.846	28
621.042	29.5
622.238	28.5
623.432	30
624.627	33
625.822	26
627.017	26.5
628.212	29.5
629.406	31.5
630.599	31
631.793	28
632.987	27
634.181	28.5
635.373	30
636.566	34
637.76	26
638.953	29
640.144	26.5
641.337	28.5
642.529	29.5
643.721	29
644.912	29
646.104	28
647.295	31
648.485	28.5
649.677	28.5
650.868	31.5
652.057	27.5
653.248	25
654.437	24.5
655.628	29
656.818	29.5
658.006	26
659.196	33.5
660.384	31
661.574	26.5
662.763	32
663.951	28.5
665.14	31.5
666.327	31
667.515	29
668.702	29.5
669.891	29.5
671.077	30
672.265	29.5
673.451	29
674.638	27.5
675.824	30.5
677.011	27
678.197	33.5
679.383	33
680.568	32.5
681.755	33
682.939	35.5
684.124	35
685.309	35.5
686.494	33
687.679	35.5
688.863	33.5
690.046	33.5
691.231	30.5
692.414	39
693.599	33.5
694.781	30.5
695.964	32.5
697.148	39
698.33	36.5
699.512	36
700.694	37
701.877	39.5
703.059	42.5
704.24	41.5
705.423	46.5
706.604	48.5
707.784	50
708.965	55
710.147	52
711.327	51
712.507	50.5
713.687	43.5
714.867	34
716.048	36.5
717.227	33
718.406	35.5
719.585	36
720.764	32
721.942	34.5
723.122	29.5
724.3	29.5
725.478	27.5
726.656	24
727.834	27.5
729.011	29
730.189	23.5
731.366	31
732.543	25
733.719	27.5
734.896	27
736.072	27
737.249	29.5
738.426	28
739.602	28
740.777	27
741.953	28
743.128	29
744.303	30
745.477	27.5
746.651	27
747.826	32
749	30
750.174	26
751.348	27
752.522	30
753.696	28.5
754.869	23.5
756.043	27
757.216	28
758.389	28.5
759.561	30.5
760.732	27
761.905	29
763.077	24
764.249	31
765.421	25
766.592	29
767.762	25
768.934	27
770.105	27
771.275	27
772.446	29.5
773.615	27.5
774.786	30.5
775.956	30
777.126	28.5
778.294	31
779.464	29.5
780.633	29.5
781.801	32.5
782.97	31
784.139	33
785.306	31
786.475	31.5
787.643	27
788.81	35.5
789.978	29
791.146	32.5
792.312	35
793.479	30
794.647	29
795.812	33
796.979	26
798.144	27.5
799.311	30
800.477	31
801.642	27
802.808	31
803.972	29.5
805.138	30
806.302	31
807.467	27
808.631	26.5
809.796	27
810.959	27
812.124	31
813.287	28
814.451	27.5
815.614	28
816.777	25.5
817.94	31.5
819.102	25
820.265	27.5
821.427	25
822.59	26
823.751	24
824.912	26
826.074	23.5
827.235	28.5
828.397	28
829.558	30.5
830.718	30.5
831.879	28
833.039	30
834.199	31
835.359	26.5
836.519	28
837.679	24
838.838	24
839.998	28
841.156	26
842.315	21.5
843.473	26.5
844.633	28
845.791	28
846.948	28
848.106	29.5
849.263	28
850.422	25.5
851.579	31.5
852.736	28.5
853.892	29
855.049	27
856.205	31
857.363	30
858.519	24.5
859.674	29.5
860.83	25
861.986	26
863.141	31
864.296	29
865.451	28.5
866.605	22.5
867.76	27.5
868.914	29.5
870.069	33
871.224	31
872.378	27
873.531	26.5
874.685	27.5
875.838	29.5
876.991	28.5
878.144	31
879.296	28
880.448	29
881.6	28
882.753	24
883.905	27.5
885.057	31.5
886.208	25.5
887.36	31
888.511	26
889.662	25
890.813	26
891.964	22
893.113	22.5
894.264	26
895.414	26.5
896.564	25.5
897.714	24
898.864	23.5
900.012	26.5
901.161	26.5
902.31	22
903.459	26
904.607	27.5
905.756	27
906.904	26
908.052	25
909.199	25
910.347	25
911.495	24
912.643	21
913.789	25.5
914.936	26.5
916.083	24.5
917.229	24
918.375	28.5
919.522	26.5
920.667	26.5
921.813	28
922.959	25
924.104	25.5
925.249	26.5
926.393	27.5
927.539	27.5
928.684	25.5
929.827	29.5
930.972	27.5
932.115	24.5
933.26	24
934.403	25
935.547	27
936.689	30
937.833	27
938.975	28
940.119	28
941.26	26
942.404	29
943.545	27.5
944.688	26.5
945.829	27
946.971	25.5
948.112	26
949.253	26.5
950.394	28
951.535	23.5
952.676	29
953.816	25.5
954.956	26
956.097	25.5
957.236	26.5
958.377	23
959.516	26.5
960.655	27
961.793	27
962.933	27
964.071	24
965.21	24.5
966.349	28
967.487	25
968.624	26.5
969.762	25
970.901	26.75
972.038	27.5
973.175	25.5
974.311	23.5
975.449	25.5
976.586	23.5
977.722	23
978.858	25
979.994	24.5
981.131	27
982.267	28.5
983.402	24.5
984.537	25.5
985.672	25
986.807	26
987.942	27
989.076	25.5
990.211	28.5
991.346	25
992.48	26
993.614	22
994.748	24.5
995.881	21
997.014	25
998.148	19
999.28	26
1000.41	21.5
1001.55	26
1002.68	24.5
1003.81	22
1004.94	28
1006.07	25.5
1007.21	28
1008.34	28
1009.47	25.5
1010.6	23
1011.73	29.5
1012.86	23.5
1013.99	27.5
1015.12	23.5
1016.25	23.5
1017.38	25
1018.51	26.5
1019.64	27
1020.77	24.5
1021.9	23.5
1023.03	27
1024.16	26.5
1025.29	24.5
1026.42	28
1027.54	24
1028.67	24.5
1029.8	24
1030.93	24.5
1032.06	23
1033.18	23
1034.31	25
1035.44	24.5
1036.56	24
1037.69	23
1038.82	26.5
1039.94	24
1041.07	24.5
1042.2	24.5
1043.32	26
1044.45	27.5
1045.57	27
1046.7	27.5
1047.82	25
1048.95	23
1050.07	27.5
1051.2	25.5
1052.32	23
1053.45	25
1054.57	26
1055.69	25.5
1056.82	24
1057.94	24
1059.06	26.5
1060.19	26.5
1061.31	23.5
1062.43	25
1063.55	24.5
1064.68	26.5
1065.8	24.5
1066.92	27
1068.04	26.5
1069.16	22.5
1070.28	24
1071.41	26.5
1072.53	28.5
1073.65	26
1074.77	26
1075.89	29
1077.01	22.5
1078.13	27
1079.25	22
1080.37	25.5
1081.49	20.5
1082.61	26.5
1083.73	23
1084.85	24.5
1085.96	25
1087.08	26
1088.2	25
1089.32	27
1090.44	26
1091.56	25
1092.67	25.5
1093.79	23
1094.91	20
1096.03	26
1097.14	25.5
1098.26	25.5
1099.38	22.5
1100.49	24
1101.61	25
1102.73	23
1103.84	23
1104.96	22
1106.07	24.5
1107.19	24
1108.3	24.5
1109.42	25.5
1110.53	28.5
1111.65	26.5
1112.76	24
1113.88	25
1114.99	23
1116.1	23.5
1117.22	20.5
1118.33	25.5
1119.44	23
1120.56	26
1121.67	23
1122.78	23.5
1123.9	23.5
1125.01	26
1126.12	22
1127.23	27.5
1128.34	28
1129.46	25
1130.57	25.5
1131.68	24
1132.79	26
1133.9	27
1135.01	22.5
1136.12	27
1137.23	23
1138.34	24
1139.45	27
1140.56	27
1141.67	22
1142.78	24
1143.89	25
1145	24
1146.11	23
1147.22	23.5
1148.33	22.5
1149.44	24.5
1150.54	25.5
1151.65	25
1152.76	27.5
1153.87	21
1154.97	22
1156.08	28.5
1157.19	26.5
1158.3	25
1159.4	27.5
1160.51	21.5
1161.62	24.5
1162.72	24
1163.83	27
1164.93	25
1166.04	28
1167.15	25.5
1168.25	23
1169.36	26
1170.46	20
1171.57	21.5
1172.67	27.5
1173.78	25.5
1174.88	29.5
1175.98	24
1177.09	25
1178.19	24
1179.3	22.5
1180.4	26
1181.5	29.5
1182.61	22
1183.71	22.5
1184.81	26
1185.91	25.5
1187.02	25
1188.12	23.5
1189.22	23.5
1190.32	24
1191.42	25
1192.53	26
1193.63	26
1194.73	22.4905
1195.83	21.9744
1196.93	25.465
1198.03	23.9674
1199.13	30.2412
1200.23	23.022
1201.33	24.4868
1202.43	24.7667
1203.53	24.7953
1204.63	22.3155
1205.73	26.3561
1206.83	24.1948
1207.93	23.021
1209.02	22.7628
1210.12	24.3532
1211.22	21.8164
1212.32	22.8091
1213.42	23.5889
1214.52	24.858
1215.61	23.1345
1216.71	26.9215
1217.81	25.6016
1218.91	24.686
1220	26.674
1221.1	21.8431
1222.2	23.6563
1223.29	22.7573
1224.39	25.658
1225.49	23.6203
1226.58	24.4831
1227.68	22.8754
1228.77	23.7302
1229.87	24.2747
1230.96	24.9887
1232.06	26.234
1233.15	20.4019
1234.25	26.1448
1235.34	25.6241
1236.44	21.6844
1237.53	20.7664
1238.63	23.9119
1239.72	22.6104
1240.81	24.9976
1241.91	26.9217
1243	18.971
1244.09	24.7968
1245.19	22.126
1246.28	22.9288
1247.37	23.0591
1248.46	24.0169
1249.56	24.4954
1250.65	21.7783
1251.74	23.2211
1252.83	24.2414
1253.92	24.9925
1255.01	26.4134
1256.11	27.0454
1257.2	22.1921
1258.29	26.7681
1259.38	24.6324
1260.47	24.4661
1261.56	26.5039
1262.65	27.3443
1263.74	29.8572
1264.83	28.5123
1265.92	24.8086
1267.01	29.0133
1268.1	26.2418
1269.19	22.2497
1270.27	24.5206
1271.36	25.4077
1272.45	25.4612
1273.54	21.4325
1274.63	22.4183
1275.72	22.969
1276.8	23.4064
1277.89	24.8262
1278.98	23.1056
1280.07	25.1903
1281.15	23.905
1282.24	25.5847
1283.33	23.193
1284.41	23.8627
1285.5	26.593
1286.59	24.2345
1287.67	27.1428
1288.76	24.2774
1289.84	23.4675
1290.93	24.416
1292.01	22.5207
1293.1	21.831
1294.19	22.2371
1295.27	24.6201
1296.35	22.6459
1297.44	23.7088
1298.52	23.2496
1299.61	23.4528
1300.69	26.0704
1301.78	22.5166
1302.86	22.4813
1303.94	24.8765
1305.03	25.1211
1306.11	22.7936
1306.4	22
1307.49	26
1308.57	27.5
1309.66	22
1310.75	24.5
1311.84	24.5
1312.92	27
1314.01	19
1315.1	23.5
1316.19	24
1317.27	26.5
1318.36	21.5
1319.45	26
1320.53	24
1321.62	27
1322.7	25.5
1323.79	24.5
1324.88	23
1325.96	25
1327.05	25.5
1328.13	27
1329.21	23
1330.3	25
1331.38	24
1332.47	24
1333.55	20.5
1334.64	26
1335.72	22
1336.8	25.5
1337.89	24.5
1338.97	27
1340.05	24
1341.14	28
1342.22	23
1343.3	25.5
1344.39	24
1345.47	23
1346.55	24.5
1347.63	26
1348.71	25.5
1349.79	24.5
1350.88	23
1351.96	24.5
1353.04	26
1354.12	27
1355.2	24
1356.28	22.5
1357.36	25.5
1358.44	24.5
1359.52	26
1360.6	24.5
1361.68	27.5
1362.76	22
1363.84	24.5
1364.92	24.5
1366	23.5
1367.08	27.5
1368.16	24
1369.23	24.5
1370.31	25
1371.39	24.5
1372.47	26
1373.55	26.5
1374.62	25
1375.7	24
1376.78	25
1377.85	24.5
1378.93	27.5
1380.01	25
1381.09	24
1382.16	27.5
1383.24	24.5
1384.31	23
1385.39	23
1386.47	28
1387.54	26.5
1388.62	25
1389.69	21
1390.77	25
1391.84	23.5
1392.92	25
1393.99	26
1395.06	27.5
1396.14	27.5
1397.21	24.5
1398.29	30
1399.36	30.5
1400.43	32.5
1401.51	32
1402.58	29.5
1403.65	29.5
1404.73	30.5
1405.8	26
1406.87	30.5
1407.94	29
1409.02	31.5
1410.09	32
1411.16	29
1412.23	33.5
1413.3	30
1414.37	36
1415.45	31.5
1416.52	33
1417.59	31.5
1418.66	29
1419.73	28.5
1420.8	27
1421.87	25.5
1422.94	24.5
1424.01	29.5
1425.08	28.5
1426.15	29
1427.22	29.5
1428.29	27
1429.35	27
1430.42	23.5
1431.49	23
1432.56	26
1433.63	26.5
1434.7	26
1435.77	26
1436.83	24
1437.9	24.5
1438.97	25.5
1440.04	27.5
1441.1	24
1442.17	25
1443.24	25
1444.3	26
1445.37	26
1446.44	27
1447.5	26
1448.57	27
1449.63	25.5
1450.7	23.5
1451.76	25
1452.83	23
1453.89	24.5
1454.96	26.5
1456.02	26.5
1457.09	23.5
1458.15	30
1459.22	24.5
1460.28	22
1461.34	29.5
1462.41	25
1463.47	25.5
1464.54	23.5
1465.6	25.5
1466.66	26.5
1467.72	28
1468.79	23.5
1469.85	28
1470.91	22
1471.97	26
1473.04	25.5
1474.1	21
1475.16	23
1476.22	24
1477.28	25.5
1478.34	27
1479.4	23.5
1480.47	28.5
1481.53	29
1482.59	23.5
1483.65	30
1484.71	23.5
1485.77	24
1486.83	30
1487.89	27.5
1488.95	26
1490.01	29
1491.07	25
1492.12	24
1493.18	25
1494.24	29.5
1495.3	27
1496.36	27.5
1497.42	28
1498.47	26
1499.53	28
1500.59	26
1501.65	25.5
1502.7	28.5
1503.76	23.5
1504.82	23.5
1505.88	27.5
1506.93	27
1507.99	30
1509.05	25
1510.1	22.5
1511.16	26
1512.21	26
1513.27	28.5
1514.32	25
1515.38	25
1516.43	24.5
1517.49	25.5
1518.54	23
1519.6	25
1520.65	28.5
1521.71	27.5
1522.76	26.5
1523.82	21
1524.87	26
1525.92	24
1526.98	23.5
1528.03	27
1529.08	24
1530.14	28.5
1531.19	23
1532.24	27
1533.3	24.5
1534.35	27
1535.4	23
1536.45	24.5
1537.5	28
1538.56	24
1539.61	25
1540.66	22
1541.71	23
1542.76	25.5
1543.81	26
1544.86	27
1545.91	27.5
1546.96	24
1548.01	22.5
1549.06	24.5
1550.11	24
1551.16	21.5
1552.21	24.5
1553.26	27
1554.31	27.5
1555.36	21.5
1556.41	25
1557.46	25.5
1558.51	23.5
1559.55	26.5
1560.6	24.5
1561.65	30
1562.7	24
1563.75	26.5
1564.79	28.5
1565.84	25
1566.89	26
1567.94	26
1568.98	22
1570.03	22.5
1571.07	26
1572.12	25.5
1573.17	26
1574.21	24.5
1575.26	25
1576.31	24
1577.35	25
1578.4	27.5
1579.44	25
1580.49	26.5
1581.53	27.5
1582.58	25
1583.62	25.5
1584.67	25
1585.71	24.5
1586.75	24.5
1587.8	23
1588.84	28
1589.89	21.5
1590.93	22
1591.97	24.5
1593.02	27.5
1594.06	23
1595.1	28.5
1596.14	24
1597.19	23
1598.23	25
1599.27	23.5
1600.31	20.5
1601.35	23.5
1602.4	26
1603.44	23
1604.48	27.5
1605.52	27.5
1606.56	27
1607.6	24
1608.64	23
1609.68	26.5
1610.72	23.5
1611.76	27
1612.8	25
1613.84	26.5
1614.88	23.5
1615.92	21.5
1616.96	27
1618	25
1619.04	26
1620.08	26
1621.12	23.5
1622.16	26
1623.19	26.5
1624.23	27
1625.27	26
1626.31	26
1627.35	27.5
1628.38	25.5
1629.42	28
1630.46	29
1631.5	25
1632.53	26.5
1633.57	25
1634.61	26
1635.64	27
1636.68	23.5
1637.71	27
1638.75	24.5
1639.79	29
1640.82	25.5
1641.86	24.5
1642.89	22.5
1643.93	27.5
1644.96	25
1646	26.5
1647.03	22.5
1648.07	30
1649.1	23.5
1650.14	22.5
1651.17	24
1652.2	21.5
1653.24	25.5
1654.27	26
1655.3	26
1656.34	27
1657.37	26
1658.4	25.5
1659.44	24.5
1660.47	25
1661.5	26
1662.53	24.5
1663.57	27
1664.6	24.5
1665.63	24.5
1666.66	25.5
1667.69	27
1668.72	27.5
1669.75	24
1670.79	25
1671.82	30
1672.85	22
1673.88	29.5
1674.91	25.5
1675.94	28.5
1676.97	21.5
1678	26.5
1679.03	30
1680.06	24.5
1681.09	24
1682.11	24.5
1683.14	24.5
1684.17	24.5
1685.2	24.5
1686.23	31.5
1687.26	27.5
1688.29	27
1689.32	29
1690.34	23
1691.37	24
1692.4	25.5
1693.43	24.5
1694.45	25
1695.48	27.5
1696.51	23.5
1697.53	25.5
1698.56	22.5
1699.59	28
1700.61	23.5
1701.64	24.5
1702.66	23.5
1703.69	26.5
1704.72	26.5
1705.74	25
1706.77	26
1707.79	24
1708.82	27
1709.84	26.5
1710.87	27.5
1711.89	24
1712.92	25
1713.94	24
1714.96	28
1715.99	24
1717.01	27.5
1718.04	25
1719.06	25
1720.08	22
1721.11	25.5
1722.13	24.5
1723.15	27.5
1724.17	26.5
1725.2	25.5
1726.22	28
1727.24	23.5
1728.26	23.5
1729.28	25
1730.31	21.5
1731.33	23
1732.35	24.5
1733.37	23.5
1734.39	22.5
1735.41	22
1736.43	22
1737.45	24
1738.47	22
1739.49	26.5
1740.51	26
1741.53	22.5
1742.55	28.5
1743.57	26.5
1744.59	24.5
1745.61	27.5
1746.63	24.5
1747.65	27.5
1748.67	23
1749.69	24.5
1750.71	24.5
1751.72	24.5
1752.74	22
1753.76	28.5
1754.78	25.5
1755.8	24
1756.81	24.5
1757.83	23.5
1758.85	24
1759.86	23.5
1760.88	23.5
1761.9	25
1762.91	21.5
1763.93	24
1764.95	24.5
1765.96	22.5
1766.98	19
1768	22
1769.01	24
1770.03	27
1771.04	26
1772.06	24.5
1773.07	26
1774.09	23
1775.1	26
1776.12	27.5
1777.13	22.5
1778.14	24
1779.16	27
1780.17	24.5
1781.19	27
1782.2	22
1783.21	26.5
1784.23	30.5
1785.24	26
1786.25	22
1787.27	25
1788.28	25
1789.29	22.5
1790.3	26.5
1791.32	26
1792.33	26.5
1793.34	27
1794.35	27.5
1795.36	28
1796.37	19.5
1797.38	29
1798.4	19.5
1799.41	25
1800.42	23
1801.43	25.5
1802.44	22.5
1803.45	24
1804.46	28.5
1805.47	25
1806.48	22.5
1807.49	25.5
1808.5	22.5
1809.51	30.5
1810.52	25.5
1811.53	28
1812.53	22
1813.54	25
1814.55	23.5
1815.56	25
1816.57	20
1817.58	23.5
1818.58	25
1819.59	25.5
1820.6	23
1821.61	24
1822.61	26.5
1823.62	25
1824.63	27.5
1825.64	23.5
1826.64	27.5
1827.65	26
1828.66	26.5
1829.66	23.5
1830.67	23
1831.67	26.5
1832.68	21
1833.68	21.5
1834.69	26.5
1835.7	23.5
1836.7	25
1837.71	27
1838.71	27.5
1839.71	22
1840.72	26
1841.72	21
1842.73	27
1843.73	22
1844.74	26.5
1845.74	24.5
1846.74	25.5
1847.75	25
1848.75	22.5
1849.75	24.5
1850.76	25
1851.76	25.5
1852.76	24
1853.76	20
1854.77	25.5
1855.77	28
1856.77	23.5
1857.77	26
1858.77	23
1859.78	22.5
1860.78	28
1861.78	23.5
1862.78	23
1863.78	24.5
1864.78	26.5
1865.78	25.5
1866.78	25
1867.78	21
1868.78	24.5
1869.78	23.5
1870.78	26.5
1871.78	28.5
1872.78	25.5
1873.78	26
1874.78	25.5
1875.78	26
1876.78	26.5
1877.78	26.5
1878.78	26
1879.77	23.5
1880.77	25.5
1881.77	26
1882.77	22.5
1883.77	27
1884.76	24
1885.76	25
1886.76	21
1887.76	26.5
1888.75	23
1889.75	25
1890.75	26
1891.74	24.5
1892.74	24.5
1893.74	23.5
1894.73	24.5
1895.73	23
1896.72	24.5
1897.72	25
1898.72	25.5
1899.71	25.5
1900.71	25
1901.7	28.5
1902.7	24.5
1903.69	26
1904.69	26
1905.68	26.5
1906.67	23
1907.67	23.5
1908.66	21.5
1909.66	24.5
1910.65	24
1911.64	24
1912.64	23
1913.63	22.5
1914.62	28
1915.62	24
1916.61	22
1917.6	21.5
1918.59	26
1919.59	25
1920.58	28
1921.57	25
1922.56	22
1923.55	23.5
1924.55	22.5
1925.54	23
1926.53	27
1927.52	25
1928.51	27.5
1929.5	23.5
1930.49	22
1931.48	25.5
1932.47	26.5
1933.46	25.5
1934.45	22
1935.44	23
1936.43	24.5
1937.42	26
1938.41	26
1939.4	22
1940.39	25
1941.38	26
1942.37	26.5
1943.36	25
1944.34	27.5
1945.33	24
1946.32	26
1947.31	26.5
1948.3	24.5
1949.28	21
1950.27	24.5
1951.26	22
1952.25	25.5
1953.23	24
1954.22	24
1955.21	21
1956.2	23.5
1957.18	23.5
1958.17	27.5
1959.15	21
1960.14	25.5
1961.13	21.5
1962.11	23
1963.1	23
1964.08	21
1965.07	22.5
1966.05	25
1967.04	20.5
1968.02	27.5
1969.01	26
1969.99	26
1970.98	25.5
1971.96	25.5
1972.94	23
1973.93	27
1974.91	25.5
1975.9	25.5
1976.88	20.5
1977.86	23
1978.85	26
1979.83	25
1980.81	27
1981.8	28
1982.78	26
1983.76	24
1984.74	26
1985.72	26
1986.71	23.5
1987.69	23.5
1988.67	21.5
1989.65	28.5
1990.63	22
1991.61	24
1992.6	24.5
1993.58	22
1994.56	22
1995.54	25
1996.52	23
1997.5	21
1998.48	22
1999.46	21.5
2000.44	26
2001.42	23.5
2002.4	26
2003.38	27
2004.36	21
2005.34	24.5
2006.32	22
2007.29	24
2008.27	22.5
2009.25	22
2010.23	21.5
2011.21	22.5
2012.19	24.5
2013.16	22.5
2014.14	26
2015.12	25
2016.1	26.5
2017.07	25
2018.05	23.5
2019.03	24.5
2020	25
2020.98	23.5
2021.96	25.5
2022.93	22
2023.91	22.5
2024.89	24
2025.86	27
2026.84	25
2027.81	23.5
2028.79	22.5
2029.77	24.5
2030.74	27
2031.72	22
2032.69	24
2033.67	22.5
2034.64	25.5
2035.61	23.5
2036.59	27
2037.56	26
2038.54	25
2039.51	23.5
2040.48	22
2041.46	18
2042.43	28.5
2043.41	23
2044.38	25.5
2045.35	20.5
2046.32	27.5
2047.3	22.5
2048.27	27
2049.24	25
2050.21	21
2051.19	21
2052.16	26.5
2053.13	23
2054.1	25.5
2055.07	21
2056.04	23
2057.02	22
2057.99	23.5
2058.96	24.5
2059.93	23.5
2060.9	26.5
2061.87	23
2062.84	26
2063.81	24
2064.78	24.5
2065.75	26.5
2066.72	22.5
2067.69	26
2068.66	24
2069.63	23.5
2070.6	25
2071.57	24
2072.53	25
2073.5	25.5
2074.47	28
2075.44	26.5
2076.41	25
2077.38	25
2078.34	27.5
2079.31	21.5
2080.28	22
2081.25	23
2082.21	23
2083.18	25
2084.15	23
2085.12	21
2086.08	24
2087.05	25.5
2088.02	28.5
2088.98	20.5
2089.95	25
2090.91	24
2091.88	23.5
2092.85	22.5
2093.81	18.5
2094.78	25.5
2095.74	25.5
2096.71	23.5
2097.67	22.5
2098.64	25.5
2099.6	23
2100.57	24
2101.53	23
2102.5	23.5
2103.46	24
2104.42	22
2105.39	21
2106.35	22.5
2107.31	23.5
2108.28	24.5
2109.24	23.5
2110.2	28
2111.17	24
2112.13	24
2113.09	27.5
2114.06	22
2115.02	21.5
2115.98	26
2116.94	24.5
2117.9	22
2118.86	23
2119.83	23
2120.79	24.5
2121.75	21
2122.71	19.5
2123.67	26.5
2124.63	20
2125.59	22
2126.55	22
2127.51	25
2128.48	19
2129.43	22
2130.4	23.5
2131.35	22
2132.31	24.5
2133.27	24
2134.23	21
2135.19	22
2136.15	22
2137.11	24
2138.07	24.5
2139.03	26.5
2139.99	27
2140.95	23
2141.9	20
2142.86	22.5121
2143.82	21.5065
2144.78	24.4636
2145.74	25.4248
2146.69	22.5161
2147.65	21.96
2148.61	23.5028
2149.56	24.2257
2150.52	22.8174
2151.48	23.0355
2152.44	23.1271
2153.39	23.0004
2154.35	18.8494
2155.3	22.506
2156.26	26.4277
2157.22	22.3427
2158.17	21.5621
2159.13	24.0324
2160.08	23.1796
2161.04	24.7911
2161.99	21.0162
2162.95	20.6881
2163.9	22.7853
2164.86	21.0307
2165.81	20.749
2166.77	25.4609
2167.72	24.9235
2168.68	24.388
2169.63	23.9653
2170.58	25.0314
2171.54	24.1386
2172.49	22.1509
2173.44	22.4509
2174.4	26.3959
2175.35	23.456
2176.3	24.8155
2177.26	21.7087
2178.21	21.7495
2179.16	21.8295
2180.11	22.2532
2181.07	23.7227
2182.02	23.6821
2182.97	23.4812
2183.92	22.8905
2184.88	23.2473
2185.83	21.7416
2186.78	22.065
2187.73	19.4306
2188.68	22.4819
2189.63	21.1502
2190.58	24.3953
2191.53	21.6825
2192.48	21.0022
2193.43	20.0923
2194.38	22.7915
2195.33	23.1998
2196.28	22.5188
2197.23	21.4457
2198.18	22.1723
2199.13	24.3035
2200.08	22.9151
2201.03	22.8184
2201.98	23.1724
2202.93	22.4949
2203.88	20.1007
2204.83	22.9942
2205.78	20.3962
2206.72	19.8938
2207.67	24.7385
2208.62	22.4089
2209.57	23.4287
2210.52	22.3451
2211.46	21.9442
2212.41	23.5452
2213.36	22.5746
2214.31	24.9375
2215.25	22.4204
2216.2	23.5855
2217.15	22.3577
2218.09	23.7985
2219.04	23.4593
2219.99	22.5863
2220.93	23.054
2221.88	21.4995
2222.83	22.384
2223.77	24.2201
2224.72	21.5338
2225.66	24.371
2226.61	22.3048
2227.55	23.9743
2228.5	23.0848
2229.44	20.4667
2230.39	21.2309
2231.33	23.9542
2232.28	20.0136
2233.22	21.6023
2234.17	21.0501
2235.11	20.7243
2236.05	20.2256
2237	23.1795
2237.94	20.826
2238.88	20.051
2239.83	22.7358
2240.04	23.5
2240.98	22
2241.93	23.5
2242.88	24
2243.83	20.5
2244.78	23
2245.72	23.5
2246.67	24.5
2247.62	21
2248.56	23.5
2249.51	19.5
2250.46	19
2251.4	21.5
2252.35	21
2253.3	24.5
2254.24	22.5
2255.19	21.5
2256.14	18
2257.08	23.5
2258.03	25.5
2258.97	23
2259.92	20
2260.86	25
2261.81	25.5
2262.75	21.5
2263.7	23.5
2264.64	23
2265.59	23.5
2266.53	25
2267.48	23.5
2268.42	28
2269.36	23
2270.31	24
2271.25	24
2272.19	23.5
2273.14	20
2274.08	22.5
2275.02	19.5
2275.97	22
2276.91	23
2277.85	22.5
2278.8	21.5
2279.74	22.5
2280.68	21.5
2281.62	21.5
2282.56	26
2283.51	24.5
2284.45	22
2285.39	23.5
2286.33	23
2287.27	24
2288.21	24
2289.15	25
2290.09	22
2291.04	23
2291.98	27
2292.92	24.5
2293.86	23.5
2294.8	22
2295.74	24
2296.68	19
2297.62	24
2298.56	22.5
2299.5	23
2300.44	20
2301.37	25
2302.31	27
2303.25	23.5
2304.19	22.5
2305.13	26.5
2306.07	22
2307.01	21.5
2307.94	21.5
2308.88	23.5
2309.82	21
2310.76	25
2311.7	22.5
2312.63	25
2313.57	24
2314.51	21.5
2315.44	21
2316.38	25.5
2317.32	22.5
2318.26	23
2319.19	19
2320.13	27.5
2321.06	24.5
2322	22
2322.94	23
2323.87	23
2324.81	24
2325.74	23.5
2326.68	23
2327.61	23.5
2328.55	22
2329.48	24
2330.42	22.5
2331.35	24
2332.29	24
2333.22	22
2334.16	29.5
2335.09	23.5
2336.02	25
2336.96	24.5
2337.89	21.5
2338.83	22
2339.76	25.5
2340.69	21
2341.63	26
2342.56	21.5
2343.49	21
2344.42	28
2345.36	21
2346.29	22
2347.22	23
2348.15	20.5
2349.09	22.5
2350.02	24.5
2350.95	24
2351.88	23
2352.81	25
2353.74	21
2354.68	20
2355.61	19.5
2356.54	23
2357.47	26
2358.4	21
2359.33	25
2360.26	22
2361.19	26.5
2362.12	23
2363.05	22.5
2363.98	26.5
2364.91	22.5
2365.84	24
2366.77	22.5
2367.7	23
2368.63	21.5
2369.56	22
2370.49	28
2371.41	22.5
2372.34	25
2373.27	21
2374.2	23
2375.13	24.5
2376.06	27
2376.98	21.5
2377.91	26.5
2378.84	21
2379.77	26
2380.69	26.5
2381.62	17
2382.55	23.5
2383.47	25.5
2384.4	22.5
2385.33	24
2386.25	22.5
2387.18	24
2388.11	22.5
2389.03	20
2389.96	22.5
2390.89	25
2391.81	22
2392.74	26.5
2393.66	22.5
2394.59	27
2395.51	19.5
2396.44	21
2397.36	23.5
2398.29	27
2399.21	25.5
2400.14	25.5
2401.06	23
2401.99	25.5
2402.91	20
2403.83	21
2404.76	24
2405.68	23.5
2406.6	25
2407.53	23
2408.45	21
2409.37	24
2410.3	23.5
2411.22	26.5
2412.14	24.5
2413.06	23.5
2413.99	22
2414.91	23
2415.83	22
2416.75	25.5
2417.68	23
2418.6	23
2419.52	26
2420.44	26
2421.36	25.5
2422.28	24
2423.2	25.5
2424.12	24.5
2425.05	25.5
2425.97	26
2426.89	23
2427.81	27.5
2428.73	21.5
2429.65	20.5
2430.57	22
2431.49	22
2432.41	25
2433.33	18.5
2434.25	23.5
2435.17	22
2436.08	25.5
2437	21.5
2437.92	25
2438.84	24.5
2439.76	24.5
2440.68	25.5
2441.6	24.5
2442.51	24
2443.43	23.5
2444.35	20.5
2445.27	24
2446.19	21.5
2447.1	23.5
2448.02	23
2448.94	22.5
2449.85	24.5
2450.77	24
2451.69	27.5
2452.61	23.5
2453.52	23.5
2454.44	27
2455.35	24
2456.27	24.5
2457.19	25
2458.1	24.5
2459.02	24.5
2459.94	24.5
2460.85	24
2461.77	24.5
2462.68	27
2463.6	22
2464.51	24
2465.43	24
2466.34	21
2467.25	24
2468.17	26
2469.08	21.5
2470	28.5
2470.91	22.5
2471.83	22.5
2472.74	23.5
2473.65	22.5
2474.57	25
2475.48	24.5
2476.39	25.5
2477.31	27.5
2478.22	21.5
2479.13	26.5
2480.04	22
2480.96	25.5
2481.87	23.5
2482.78	24
2483.69	21
2484.6	20
2485.52	23.5
2486.43	20.5
2487.34	23
2488.25	27
2489.16	24
2490.07	28
2490.99	27
2491.9	24.5
2492.81	22
2493.72	26
2494.63	23
2495.54	24.5
2496.45	24.5
2497.36	24.5
2498.27	26.5
2499.18	23
2500.09	27
2501	24.5
2501.91	25.5
2502.82	22
2503.73	27.5
2504.63	25.5
2505.54	20
2506.45	28
2507.36	20.5
2508.27	31
2509.18	25
2510.09	20
2510.99	26
2511.9	25
2512.81	22.5
2513.72	23
2514.62	22
2515.53	26.5
2516.44	26.5
2517.35	22.5
2518.25	25
2519.16	21
2520.07	27
2520.97	24
2521.88	23.5
2522.79	25.5
2523.69	25.5
2524.6	24
2525.51	25.5
2526.41	28
2527.32	24.5
2528.22	22
2529.13	26.5
2530.03	26
2530.94	26
2531.84	25.5
2532.75	25.5
2533.65	23
2534.56	20
2535.46	24
2536.37	26
2537.27	23.5
2538.17	23.5
2539.08	23
2539.98	19
2540.89	25.5
2541.79	23.5
2542.69	25.5
2543.6	22
2544.5	24.5
2545.4	23.5
2546.31	23
2547.21	25
2548.11	21
2549.01	25
2549.92	24
2550.82	25
2551.72	28
2552.62	25
2553.52	25.5
2554.42	27
2555.33	23
2556.23	20.5
2557.13	23.5
2558.03	25
2558.93	24
2559.83	26
2560.73	25
2561.63	25.5
2562.53	24.5
2563.43	25
2564.33	25
2565.24	27.5
2566.13	23
2567.04	22.5
2567.93	25.5
2568.83	24
2569.73	26
2570.63	25.5
2571.53	24
2572.43	23.5
2573.33	22
2574.23	24.5
2575.13	20
2576.03	27.5
2576.92	27
2577.82	25.5
2578.72	20
2579.62	25
2580.52	24.5
2581.41	21.5
2582.31	24.5
2583.21	22.5
2584.11	24
2585	27
2585.9	25
2586.8	27
2587.69	23.5
2588.59	24.5
2589.49	22
2590.38	25.5
2591.28	22.5
2592.18	23.5
2593.07	24.5
2593.97	21
2594.86	27.5
2595.76	29.5
2596.66	27.5
2597.55	25
2598.45	21
2599.34	22.5
2600.24	22.5
2601.13	26.5
2602.03	22
2602.92	26.5
2603.81	24.5
2604.71	24
2605.6	25.5
2606.5	26.5
2607.39	21
2608.28	28.5
2609.18	25
2610.07	25.5
2610.97	25
2611.86	23
2612.75	24
2613.64	27
2614.54	23.5
2615.43	22.5
2616.32	27
2617.22	24
2618.11	26
2619	22
2619.89	20
2620.78	23
2621.68	26.5
2622.57	21
2623.46	25
2624.35	23
2625.24	24
2626.13	27
2627.02	20.5
2627.91	27
2628.81	25
2629.7	22
2630.59	22.5
2631.48	25
2632.37	23
2633.26	24
2634.15	25
2635.04	27.5
2635.93	20.5
2636.82	28
2637.71	24
2638.59	23
2639.48	26.5
2640.37	25.5
2641.26	26
2642.15	25.5
2643.04	23
2643.93	23.5
2644.82	24
2645.71	22
2646.59	24
2647.48	25
2648.37	25.5
2649.26	18
2650.15	26
2651.03	23
2651.92	26
2652.81	22.5
2653.69	22.5
2654.58	21
2655.47	23
2656.35	22
2657.24	27.5
2658.13	28
2659.01	25.5
2659.9	23
2660.79	24
2661.67	25.5
2662.56	21.5
2663.44	26.5
2664.33	27
2665.22	26
2666.1	24
2666.99	26
2667.87	26
2668.76	23.5
2669.64	27.5
2670.52	22.5
2671.41	20
2672.29	21.5
2673.18	21
2674.06	24
2674.95	23
2675.83	25
2676.71	25
2677.6	26
2678.48	24
2679.36	22.5
2680.25	22
2681.13	26
2682.01	24.5
2682.9	28.5
2683.78	23.5
2684.66	22
2685.55	20
2686.43	23.5
2687.31	27
2688.19	26
2689.07	24.5
2689.96	26.5
2690.84	23
2691.72	25
2692.6	25
2693.48	27
2694.36	27
2695.24	25.5
2696.12	21.5
2697	25.5
2697.89	23
2698.77	24
2699.65	21
2700.53	24.5
2701.41	25
2702.29	25
2703.17	26.5
2704.05	24
2704.93	23
2705.81	25
2706.69	23.5
2707.57	24.5
2708.44	23.5
2709.32	22.5
2710.2	25
2711.08	20.5
2711.96	24.5
2712.84	23
2713.72	22
2714.59	18.5
2715.47	25
2716.35	21
2717.23	24.5
2718.11	24.5
2718.98	28
2719.86	28
2720.74	23
2721.62	25
2722.49	25
2723.37	25
2724.25	19.5
2725.12	27.5
2726	21.5
2726.88	20.5
2727.75	24
2728.63	27
2729.51	26.5
2730.38	25
2731.26	23
2732.13	21.5
2733.01	24.5
2733.88	24
2734.76	24.5
2735.63	23
2736.51	24
2737.38	22.5
2738.26	25
2739.13	26.5
2740.01	25
2740.88	22
2741.76	22
2742.63	25
2743.5	25.5
2744.38	24.5
2745.25	21
2746.13	27
2747	24
2747.87	25.5
2748.75	23.5
2749.62	25
2750.49	22.5
2751.36	23
2752.24	25.5
2753.11	26
2753.98	23
2754.86	24
2755.73	21
2756.6	25
2757.47	27
2758.34	27
2759.22	27
2760.09	20.5
2760.96	19
2761.83	30
2762.7	24.5
2763.57	25
2764.44	28
2765.31	29
2766.18	21
2767.06	23
2767.93	22.5
2768.8	26
2769.67	25
2770.54	24
2771.41	25.5
2772.28	25.5
2773.15	27
2774.02	27
2774.89	23
2775.75	27.5
2776.62	22
2777.49	27.5
2778.36	25.5
2779.23	28.5
2780.1	26.5
2780.97	24
2781.84	25
2782.71	28.5
2783.57	27
2784.44	25.5
2785.31	22.5
2786.18	24
2787.04	26
2787.91	25
2788.78	27.5
2789.65	24
2790.51	27
2791.38	27.5
2792.25	26
2793.12	26.5
2793.98	22.5
2794.85	25
2795.72	22
2796.58	26.5
2797.45	26
2798.31	23.5
2799.18	26.5
2800.05	27
2800.91	27.25
2801.78	25
2802.64	30
2803.51	25.5
2804.37	26
2805.24	24.5
2806.1	25
2806.97	25
2807.83	27.5
2808.7	25.5
2809.56	32
2810.43	28.5
2811.29	24
2812.15	25
2813.02	28.5
2813.88	24.5
2814.75	27.5
2815.61	27.5
2816.47	28
2817.34	22
2818.2	28
2819.06	31.5
2819.92	25.5
2820.79	23
2821.65	21.5
2822.51	24
2823.37	28
2824.24	25
2825.1	31
2825.96	23
2826.82	25.5
2827.69	26.5
2828.55	27.5
2829.41	28.5
2830.27	23
2831.13	23.5
2831.99	25
2832.85	25
2833.71	26.5
2834.58	26
2835.44	26.5
2836.3	28.5
2837.16	21.5
2838.02	24
2838.88	26.5
2839.74	27
2840.6	26
2841.46	28
2842.32	27
2843.18	26
2844.04	28.5
2844.9	28.5
2845.75	23
2846.61	25
2847.47	23.5
2848.33	29.5
2849.19	26.5
2850.05	24
2850.91	27.5
2851.77	26
2852.62	24.5
2853.48	27.5
2854.34	23.5
2855.2	26
2856.06	28.5
2856.91	28
2857.77	28.5
2858.63	28
2859.48	28
2860.34	26
2861.2	26.5
2862.06	29.5
2862.91	22
2863.77	28
2864.63	26.5
2865.48	25
2866.34	26.5
2867.19	28
2868.05	26
2868.91	30.5
2869.76	26
2870.62	30
2871.47	27
2872.33	29.5
2873.18	25.5
2874.04	30.5
2874.89	31
2875.75	33
2876.6	29
2877.46	28.5
2878.31	34
2879.17	30
2880.02	32.5
2880.88	28.5
2881.73	31
2882.58	30.5
2883.44	34
2884.29	34.5
2885.14	29.5
2886	32.5
2886.85	36
2887.7	36
2888.56	34
2889.41	33.5
2890.26	39.5
2891.12	38
2891.97	42.5
2892.82	40.5
2893.67	43
2894.52	45
2895.38	45
2896.23	47
2897.08	53
2897.93	55
2898.78	53.5
2899.64	60.5
2900.49	61.5
2901.34	63
2902.19	59
2903.04	69.5
2903.89	71
2904.74	74.5
2905.59	74.5
2906.44	73.5
2907.29	75.5
2908.14	71
2908.99	68.5
2909.84	70
2910.69	62.5
2911.54	62
2912.39	62.5
2913.24	49
2914.09	49
2914.94	47
2915.79	44
2916.64	44
2917.49	43
2918.34	43
2919.18	39.5
2920.03	37.5
2920.88	36
2921.73	36
2922.58	35.5
2923.42	32
2924.27	34
2925.12	33
2925.97	34
2926.82	31.5
2927.66	31
2928.51	31
2929.36	30.5
2930.2	31.5
2931.05	31
2931.9	30
2932.74	27.5
2933.59	25
2934.44	26
2935.28	25
2936.13	26
2936.98	29
2937.82	26.5
2938.67	31.5
2939.51	28.5
2940.36	26
2941.2	27
2942.05	28
2942.9	29
2943.74	29
2944.58	25
2945.43	28
2946.27	30
2947.12	28.5
2947.96	28.5
2948.81	30
2949.65	31
2950.5	29.5
2951.34	35
2952.18	31.5
2953.03	30.5
2953.87	32
2954.71	34
2955.56	27
2956.4	28
2957.24	33.5
2958.09	34.5
2958.93	40
2959.77	37
2960.62	44
2961.46	39.5
2962.3	41
2963.14	44.5
2963.98	46
2964.83	47
2965.67	44
2966.51	42
2967.35	42
2968.19	44.5
2969.04	44.5
2969.88	40.5
2970.72	42
2971.56	40
2972.4	33.0299
2973.24	38.8886
2974.08	37.9087
2974.92	34.8629
2975.76	34.033
2976.6	30.7399
2977.44	28.4961
2978.28	30.536
2979.12	29.7306
2979.96	35.8829
2980.8	26.102
2981.64	28.5894
2982.48	25.565
2983.32	27.4438
2984.16	27.2447
2985	28.4213
2985.84	27.3487
2986.68	24.9189
2987.52	29.7187
2988.35	28.5529
2989.19	27.927
2990.03	25.4851
2990.87	24.9
2991.71	25.3442
2992.55	25.3927
2993.38	25.5007
2994.22	25.2078
2995.06	25.5784
2995.9	27.7971
2996.73	26.519
2997.57	28.2767
2998.41	24.1311
2999.25	26.5832
3000.08	25.47
3000.92	24.7779
3001.76	23.1277
3002.59	25.7181
3003.43	22.6435
3004.27	22.5663
3005.1	25.0635
3005.94	23.6299
3006.78	21.4936
3007.61	26.1589
3008.45	21.7609
3009.28	22.9539
3010.12	23.1557
3010.95	22.8501
3011.79	23.2002
3012.62	21.9558
3013.46	24.4559
3014.29	23.6397
3015.13	23.552
3015.96	21.8356
3016.8	25.8964
3017.63	24.0882
3018.47	25.385
3019.3	23.8231
3020.14	21.0854
3020.97	21.8071
3021.8	21.5814
3022.64	23.361
3023.47	23.0192
3024.3	21.8459
3025.14	23.096
3025.97	24.5461
3026.8	23.5541
3027.64	25.1913
3028.47	24.2849
3029.3	24.2824
3030.14	23.0968
3030.97	23.4121
3031.8	23.8372
3032.63	24.2692
3033.46	22.1091
3034.3	20.6013
3035.13	25.1172
3035.96	23.9663
3036.79	21.9331
3037.62	22.9151
3038.46	22.5593
3039.29	21.2626
3040.12	23.2114
3040.95	22.6566
3041.78	22.0224
3042.61	22.4711
3043.44	23.2754
3044.27	22.0041
3045.1	23.3533
3045.93	24.3173
3046.76	23.2627
3047.59	24.9843
3048.42	23.6304
3049.25	21.647
3050.08	23.5566
3050.91	23.2213
3051.74	21.4494
3052.57	23.542
3053.4	22.0524
3054.23	23.3227
3055.06	24.3678
3055.89	23.0583
3056.72	23.2602
3057.32	24
3058.15	21
3058.98	21
3059.82	20.5
3060.65	22
3061.48	19.5
3062.31	21
3063.15	23.5
3063.98	19.5
3064.81	23.5
3065.64	26.5
3066.48	20.5
3067.31	19.5
3068.14	21.5
3068.97	27
3069.8	20.5
3070.63	23
3071.47	22.5
3072.3	25
3073.13	21.5
3073.96	24
3074.79	21.5
3075.62	27
3076.45	20
3077.28	20
3078.11	22.5
3078.94	23.5
3079.77	21
3080.6	21
3081.43	21
3082.26	25
3083.09	19
3083.92	26
3084.75	22.5
3085.58	25.5
3086.41	22
3087.24	24
3088.07	21
3088.9	21.5
3089.73	20.5
3090.55	21
3091.38	23.5
3092.21	24.5
3093.04	20
3093.87	24.5
3094.7	22
3095.52	21
3096.35	19
3097.18	25
3098.01	24.5
3098.84	24.5
3099.66	18
3100.49	25
3101.32	23.5
3102.14	22
3102.97	25.5
3103.8	22
3104.62	27
3105.45	24.5
3106.28	20
3107.1	21
3107.93	22.5
3108.76	22.5
3109.58	26
3110.41	26
3111.23	20.5
3112.06	18
3112.89	23
3113.71	24
3114.54	20.5
3115.36	24
3116.19	23.5
3117.01	25.5
3117.84	21
3118.66	21
3119.49	24
3120.31	24
3121.13	27
3121.96	26
3122.78	23
3123.61	24.5
3124.43	28
3125.25	20
3126.08	24
3126.9	24.5
3127.73	23
3128.55	21
3129.37	27.5
3130.19	27
3131.02	25
3131.84	23
3132.66	24.5
3133.49	23.5
3134.31	25
3135.13	24
3135.95	22
3136.78	24
3137.6	22.5
3138.42	23
3139.24	22
3140.06	22
3140.88	22
3141.71	22
3142.53	24
3143.35	21
3144.17	21.5
3144.99	23.5
3145.81	21
3146.63	22
3147.45	25
3148.27	27
3149.09	21.5
3149.91	23.5
3150.73	26.5
3151.56	25
3152.37	27
3153.2	19.5
3154.01	23.5
3154.83	27
3155.65	25
3156.47	25.5
3157.29	25
3158.11	23.5
3158.93	21.5
3159.75	21
3160.57	22.5
3161.39	23
3162.21	26.5
3163.02	26
3163.84	25
3164.66	23.5
3165.48	22.5
3166.3	25.5
3167.11	26
3167.93	19.5
3168.75	24.5
3169.57	28
3170.39	22.5
3171.2	21
3172.02	26
3172.84	24
3173.65	25
3174.47	23.5
3175.29	26
3176.1	23
3176.92	24
3177.74	23
3178.55	24
3179.37	22
3180.19	27.5
3181	25.5
3181.82	22.5
3182.63	22.5
3183.45	25.5
3184.27	22.5
3185.08	26.5
3185.9	21
3186.71	22.5
3187.53	21
3188.34	22.5
3189.16	23.5
3189.97	17.5
3190.79	26
3191.6	23
3192.41	24.5
3193.23	24.5
3194.04	22
3194.86	24.5
3195.67	25.5
3196.48	23.5
3197.3	25
3198.11	18
3198.93	24
3199.74	25.5
3200.55	22
3201.36	26.5
3202.18	22
3202.99	25
3203.8	23
3204.62	22
3205.43	25
3206.24	20.5
3207.05	21
3207.87	23
3208.68	22
3209.49	23.5
3210.3	24.5
3211.11	23.5
3211.93	24
3212.74	22
3213.55	26
3214.36	18
3215.17	22.5
3215.98	22
3216.79	24
3217.6	22.5
3218.41	22.5
3219.22	22
3220.03	25
3220.85	21.5
3221.66	26
3222.47	20
3223.28	22
3224.09	21.5
3224.9	26.5
3225.71	21.5
3226.52	22
3227.33	24
3228.13	25
3228.94	22
3229.75	23.5
3230.56	24.5
3231.37	26.5
3232.18	24
3232.99	25
3233.8	25
3234.61	25.5
3235.41	25
3236.22	23.5
3237.03	27.5
3237.84	23.5
3238.65	22.5
3239.45	24.5
3240.26	26
3241.07	29
3241.88	23.5
3242.68	22.5
3243.49	24
3244.3	24.5
3245.1	25.5
3245.91	23.5
3246.72	25.5
3247.53	25
3248.33	24
3249.14	21.5
3249.95	20.5
3250.75	19.5
3251.56	25.5
3252.36	23
3253.17	26.5
3253.97	24.5
3254.78	25.5
3255.59	21.5
3256.39	22.5
3257.2	23.5
3258	24
3258.81	24
3259.61	22
3260.42	18
3261.22	24
3262.03	24.5
3262.83	21
3263.64	21
3264.44	24.5
3265.24	26
3266.05	23.5
3266.85	21.5
3267.66	21
3268.46	23.5
3269.26	25
3270.07	22
3270.87	25.5
3271.67	25
3272.48	22.5
3273.28	23
3274.08	27.5
3274.89	23
3275.69	27.5
3276.49	21.5
3277.29	22.5
3278.1	19.5
3278.9	27
3279.7	24.5
3280.5	25.5
3281.3	23.5
3282.11	21
3282.91	25.5
3283.71	27
3284.51	24
3285.31	24.5
3286.11	25
3286.91	24
3287.72	22.5
3288.52	22
3289.32	23
3290.12	26.5
3290.92	22.5
3291.72	26
3292.52	23.5
3293.32	22.5
3294.12	25.5
3294.92	24
3295.72	21.5
3296.52	27
3297.32	27
3298.12	24
3298.92	21.5
3299.72	24
3300.52	19
3301.32	24
3302.12	18
3302.92	21.5
3303.71	21.5
3304.51	22.5
3305.31	22
3306.11	24.5
3306.91	25
3307.71	20.5
3308.5	21.5
3309.3	23
3310.1	24.5
3310.9	23.5
3311.7	27.5
3312.49	25.5
3313.29	28
3314.09	24
3314.89	23
3315.68	20
3316.48	22
3317.28	25
3318.07	23.5
3318.87	26
3319.67	25
3320.46	25
3321.26	26
3322.06	26.5
3322.85	26
3323.65	27
3324.44	23
3325.24	23
3326.04	25
3326.83	23
3327.63	21.5
3328.42	23.5
3329.22	24.5
3330.01	23.5
3330.81	20.5
3331.6	24
3332.4	22
3333.19	22.5
3333.99	26
3334.78	22
3335.58	22
3336.37	26
3337.17	17.5
3337.96	22.5
3338.75	25.5
3339.55	25
3340.34	25
3341.13	23.5
3341.93	24
3342.72	24.5
3343.51	25
3344.31	26.5
3345.1	26
3345.89	23
3346.69	26.5
3347.48	26.5
3348.27	22.5
3349.06	24
3349.86	22.5
3350.65	25
3351.44	21.5
3352.23	24
3353.03	26
3353.82	25
3354.61	21
3355.4	21
3356.19	20.5
3356.98	21.5
3357.78	24.5
3358.57	26
3359.36	25
3360.15	21
3360.94	25
3361.73	23
3362.52	23.5
3363.31	23.5
3364.1	20
3364.89	22
3365.68	24
3366.47	23
3367.26	23
3368.05	24.5
3368.84	24
3369.63	25
3370.42	21.5
3371.21	23.5
3372	23
3372.79	23
3373.58	24.5
3374.37	20.5
3375.16	24.5
3375.95	27.5
3376.73	22
3377.52	23
3378.31	23
3379.1	29.5
3379.89	21.5
3380.68	20
3381.46	27
3382.25	27
3383.04	24
3383.83	23
3384.62	26
3385.4	26
3386.19	24
3386.98	20
3387.76	25
3388.55	23.5
3389.34	23
3390.13	26.5
3390.91	23
3391.7	28
3392.49	21
3393.27	26
3394.06	22.5
3394.84	25.5
3395.63	22
3396.42	22.5
3397.2	22.5
3397.99	18
3398.77	22
3399.56	23
3400.34	24
3401.13	25
3401.92	25.5
3402.7	23
3403.49	24
3404.27	25.5
3405.06	20
3405.84	29.5
3406.62	24.5
3407.41	24
3408.19	22.5
3408.98	23
3409.76	24.5
3410.55	22
3411.33	22
3412.11	24
3412.9	23
3413.68	26.5
3414.46	24
3415.25	26
3416.03	23
3416.81	17.5
3417.6	25
3418.38	24
3419.16	25
3419.95	24
3420.73	17.5
3421.51	28
3422.29	20.5
3423.08	20
3423.86	21.5
3424.64	26.5
3425.42	20
3426.2	24
3426.98	23
3427.77	23.5
3428.55	25.5
3429.33	22.5
3430.11	20
3430.89	20.5
3431.67	27.5
3432.45	18.5
3433.24	24
3434.02	19.5
3434.8	22.5
3435.58	24.5
3436.36	28
3437.14	18.5
3437.92	25.5
3438.7	23.5
3439.48	23.5
3440.26	28
3441.04	24
3441.82	23.5
3442.6	23.5
3443.38	24
3444.16	22
3444.94	22
3445.71	22
3446.49	25
3447.27	28.5
3448.05	25.5
3448.83	26
3449.61	21.5
3450.39	21.5
3451.17	23.5
3451.94	21
3452.72	20
3453.5	20.5
3454.28	24.5
3455.06	23.5
3455.83	22
3456.61	25.5
3457.39	24
3458.17	23
3458.94	26
3459.72	26
3460.5	19
3461.28	23.5
3462.05	22.5
3462.83	29.5
3463.61	25
3464.38	23.5
3465.16	23
3465.93	22.5
3466.71	27
3467.49	25.5
3468.26	20
3469.04	24
3469.82	22
3470.59	23.5
3471.37	24.5
3472.14	23.5
3472.92	21.5
3473.69	24.5
3474.47	24.5
3475.24	21
3476.02	24.5
3476.79	26
3477.57	24
3478.34	22
3479.12	25
3479.89	25
3480.67	20.5
3481.44	23.5
3482.21	20.5
3482.99	22
3483.76	25
3484.54	22.5
3485.31	22
3486.08	24.5
3486.86	26.5
3487.63	24.5
3488.4	24.5
3489.18	23.5
3489.95	23
3490.72	23
3491.5	26
3492.27	23.5
3493.04	23.5
3493.81	25
3494.59	25
3495.36	22.5
3496.13	24
3496.9	24.5
3497.67	23.5
3498.45	26.5
3499.22	24.5
3499.99	23.5
