#Acq. time (s)=	5
#Accumulations=	5
#Range (cm-¹)=	100...3500
#Windows=	4
#Autofocus=	Off
#AutoExposure=	Off
#Spike filter=	Multiple accum.
#Delay time (s)=	0
#Binning=	1
#Readout mode=	Signal
#DeNoise=	Off
#ICS correction=	Off
#Dark correction=	Off
#Inst. Process=	Off
#Instrument=	LabRAM HR Evol
#Detector=	Syncerity OE
#Objective=	x100_VIS
#Grating=	600 (500nm)
#ND Filter=	25%
#Laser=	633nm_Edge
#Hole=	100.021
#Range=	Visible
#Project=	verificaciones
#Sample=	a5
#Site=	lined
#Title=	bolusa5lined
#Remark=	
#Date=	09.01.2026 13:23
#Acquired=	09.01.2026 13:23:32
100.695	29
101.978	34.5
103.262	36
104.545	29
105.829	27.5
107.112	28
108.394	32.5
109.676	32
110.958	30
112.24	31.5
113.522	29
114.803	28.5
116.084	25
117.365	34
118.646	29
119.927	33
121.207	32
122.487	31.5
123.767	35.5
125.047	31
126.326	31.5
127.606	33
128.885	37.5
130.164	36.5
131.442	32
132.721	33.5
133.999	32
135.277	35.5
136.555	32.5
137.831	38
139.109	37
140.386	35
141.663	38
142.94	37
144.216	33.5
145.493	39.5
146.769	38
148.043	39.5
149.319	37.5
150.595	39
151.87	42
153.145	44
154.42	44.5
155.693	43
156.968	40.5
158.242	43
159.516	41.5
160.79	44
162.062	43
163.336	43
164.609	40
165.882	40
167.153	41.5
168.426	38
169.699	37.5
170.971	44
172.241	37.5
173.513	47.5
174.785	39
176.055	41
177.326	42.5
178.597	43
179.866	43.5
181.137	42
182.407	46
183.676	42.5
184.946	41
186.216	41.5
187.484	47
188.753	41.5
190.022	44.5
191.29	43.5
192.558	37
193.825	39
195.094	42
196.36	40.5
197.628	41
198.896	41.5
200.162	41.5
201.429	40.5
202.695	40
203.962	38.5
205.227	38
206.493	40
207.758	38.5
209.024	35.5
210.289	35.5
211.554	38.5
212.818	32
214.083	37.5
215.347	32
216.612	38.5
217.875	30.5
219.138	33.5
220.402	38.5
221.665	36.5
222.928	33.5
224.19	32.5
225.454	32.5
226.715	34
227.977	35
229.24	32
230.501	32.5
231.762	36
233.024	31
234.284	28
235.546	28
236.806	31.5
238.066	30.5
239.327	35.5
240.587	31.5
241.846	31
243.105	34
244.365	31
245.624	31
246.882	31
248.142	30.5
249.4	30
250.658	30.5
251.916	30.5
253.174	33
254.432	30.5
255.689	33
256.945	28.5
258.202	26.5
259.46	33.5
260.716	28.5
261.972	30
263.228	26
264.483	30.5
265.74	32
266.996	30
268.251	27.5
269.505	28
270.76	32.5
272.014	31
273.268	25.5
274.522	27.5
275.778	30
277.031	27
278.285	27.5
279.538	28.5
280.791	29.5
282.043	26.5
283.296	28
284.548	28.5
285.8	30
287.052	23
288.304	28
289.556	28
290.807	27.5
292.058	29.5
293.309	26.5
294.56	30.5
295.81	26
297.061	30
298.311	29
299.561	26
300.81	29.5
302.06	29.5
303.309	26.5
304.558	29
305.807	27.5
307.056	29.5
308.305	29.5
309.551	32
310.8	29
312.047	27.5
313.295	28.5
314.543	28
315.79	30.5
317.037	29
318.284	28.5
319.529	28
320.776	30
322.022	26
323.268	29.5
324.514	30
325.758	30
327.004	29.5
328.249	31
329.494	25
330.739	28.5
331.982	26
333.227	30.5
334.471	26.5
335.715	28
336.958	28.5
338.201	28.5
339.445	31
340.687	28
341.93	28.5
343.173	29.5
344.414	27.5
345.657	27.5
346.899	27
348.14	31
349.381	26
350.623	27
351.863	27
353.104	26.5
354.346	28.5
355.585	25.5
356.826	30.5
358.065	28
359.305	29.5
360.545	29.5
361.784	29
363.023	29
364.261	27.5
365.501	32
366.738	29
367.977	28.5
369.216	32
370.453	26
371.691	27.5
372.928	28
374.166	28
375.402	29
376.64	29
377.876	26
379.111	30.5
380.348	30.5
381.584	30.5
382.82	26
384.055	25.5
385.291	30.5
386.526	25
387.76	29
388.996	27
390.229	30
391.465	29.5
392.698	24
393.931	27
395.166	25
396.399	30
397.632	29
398.866	29
400.098	31
401.33	26
402.563	29
403.795	27
405.027	25.5
406.259	25.5
407.491	30
408.721	26
409.954	26.5
411.184	28
412.415	26.5
413.645	26.5
414.876	28
416.106	27
417.335	26.5
418.565	26.5
419.794	29
421.024	32
422.253	25.5
423.482	25.5
424.71	28.5
425.938	26.5
427.168	22
428.396	29.5
429.623	24
430.851	28
432.078	28
433.305	27
434.532	28.5
435.758	28.5
436.986	29
438.212	29
439.438	29
440.664	26.5
441.89	27.5
443.115	27.5
444.34	27.5
445.566	28
446.79	32
448.015	23.5
449.24	32.5
450.464	31.5
451.688	30
452.912	30.5
454.135	31
455.359	29.5
456.582	27
457.805	27.5
459.028	29.5
460.251	29.5
461.473	28.5
462.696	31.5
463.918	31
465.14	32
466.36	35
467.582	30.5
468.803	31
470.024	31
471.245	35.5
472.466	34.5
473.686	37
474.907	39
476.126	41
477.346	44
478.565	43
479.785	44.5
481.004	50
482.224	54
483.441	59.5
484.66	55
485.879	61
487.097	60
488.314	59
489.532	65.5
490.75	66.5
491.967	59
493.184	60.5
494.401	56
495.618	53.5
496.835	47
498.05	51
499.267	47.5
500.483	43.5
501.698	45.5
502.913	46
504.129	45.5
505.343	38
506.559	39.5
507.774	38.5
508.987	35.5
510.202	37
511.415	36.5
512.63	35
513.844	31
515.056	35
516.27	34
517.482	35
518.696	31
519.907	33.5
521.121	29
522.332	32.5
523.545	32
524.757	32
525.968	33
527.18	30.5
528.39	31.5
529.602	32
530.812	31.5
532.023	32.5
533.233	30
534.443	29
535.653	29
536.862	29
538.073	32
539.281	31
540.491	31
541.7	29
542.908	30.5
544.117	29
545.325	26
546.534	28.5
547.741	33
548.949	31
550.157	27
551.364	32
552.57	29
553.778	27.5
554.985	31
556.191	29
557.398	29.5
558.604	26
559.809	29
561.014	30.5
562.221	28.5
563.426	31
564.63	28.5
565.835	28
567.041	27
568.245	23.5
569.449	30
570.653	29.5
571.856	27.5
573.061	26.5
574.264	32
575.467	28
576.67	27.5
577.873	28.5
579.076	25
580.279	25
581.481	29.5
582.683	25
583.884	25
585.086	28.5
586.287	29
587.488	29
588.689	31
589.891	30
591.092	25
592.292	32
593.492	23
594.692	29.5
595.892	30
597.092	26
598.291	27.5
599.49	26.5
600.689	28
601.888	31
603.087	29
604.285	28
605.483	25.5
606.681	26.5
607.879	25
609.077	29
610.274	30
611.472	31.5
612.668	28.5
613.865	27
615.061	26
616.258	32
617.454	30.5
618.65	32.5
619.846	30.5
621.042	24.5
622.238	33.5
623.432	30
624.627	33
625.822	29
627.017	28.5
628.212	27.5
629.406	28
630.599	28
631.793	30
632.987	25.5
634.181	30
635.373	28.5
636.566	25
637.76	28
638.953	29
640.144	32
641.337	30
642.529	26.5
643.721	33
644.912	31
646.104	33
647.295	28
648.485	27.5
649.677	24
650.868	28
652.057	30
653.248	25
654.437	30.5
655.628	26
656.818	32.5
658.006	25
659.196	30
660.384	34
661.574	31.5
662.763	31.5
663.951	30.5
665.14	29
666.327	30
667.515	28.5
668.702	30
669.891	30.5
671.077	29.5
672.265	34
673.451	27
674.638	29.5
675.824	34.5
677.011	34.5
678.197	32.5
679.383	33.5
680.568	32.5
681.755	31.5
682.939	33
684.124	34
685.309	33.5
686.494	32.5
687.679	34.5
688.863	34
690.046	35.5
691.231	36
692.414	33
693.599	35.5
694.781	31.5
695.964	34.5
697.148	38
698.33	40
699.512	39
700.694	38.5
701.877	37.5
703.059	37.5
704.24	44.5
705.423	44.5
706.604	52.5
707.784	49.5
708.965	53
710.147	56.5
711.327	51
712.507	43.5
713.687	43.5
714.867	39.5
716.048	37
717.227	32
718.406	32.5
719.585	33
720.764	29
721.942	32
723.122	28
724.3	27
725.478	29.5
726.656	28
727.834	29.5
729.011	28
730.189	26.5
731.366	27
732.543	29.5
733.719	29
734.896	27.5
736.072	26.5
737.249	31.5
738.426	28
739.602	32
740.777	30
741.953	25.5
743.128	31
744.303	31
745.477	31
746.651	28
747.826	32
749	25
750.174	26.5
751.348	27
752.522	28.5
753.696	31
754.869	30
756.043	31.5
757.216	25.5
758.389	26
759.561	31
760.732	31
761.905	28.5
763.077	31.5
764.249	29
765.421	29
766.592	27
767.762	27.5
768.934	29.5
770.105	30
771.275	24
772.446	28.5
773.615	29.5
774.786	24
775.956	27
777.126	30
778.294	32
779.464	33
780.633	28.5
781.801	27.5
782.97	29.5
784.139	31
785.306	34
786.475	31
787.643	34.5
788.81	33
789.978	28
791.146	27.5
792.312	35.5
793.479	28
794.647	27
795.812	29
796.979	30
798.144	32
799.311	28.5
800.477	27.5
801.642	28.5
802.808	31.5
803.972	27.5
805.138	27
806.302	26.5
807.467	27.5
808.631	30
809.796	30
810.959	26
812.124	29
813.287	29
814.451	26
815.614	30.5
816.777	28.5
817.94	27
819.102	29
820.265	27
821.427	27
822.59	27
823.751	28
824.912	29.5
826.074	27
827.235	29
828.397	29
829.558	29.5
830.718	27.5
831.879	26
833.039	26.5
834.199	26.5
835.359	25.5
836.519	27.5
837.679	30.5
838.838	25.5
839.998	27
841.156	27
842.315	27.5
843.473	29.5
844.633	29
845.791	27
846.948	26
848.106	27.5
849.263	28
850.422	32.5
851.579	28.5
852.736	26.5
853.892	27
855.049	27.5
856.205	26.5
857.363	30.5
858.519	29
859.674	31
860.83	30
861.986	27.5
863.141	28
864.296	28
865.451	27
866.605	28.5
867.76	29.5
868.914	30
870.069	29
871.224	27
872.378	28
873.531	31
874.685	28.5
875.838	24.5
876.991	26.5
878.144	28
879.296	27
880.448	27.5
881.6	32
882.753	26
883.905	27
885.057	31
886.208	29
887.36	28
888.511	21.5
889.662	28
890.813	27
891.964	28
893.113	25.5
894.264	20.5
895.414	24
896.564	27.5
897.714	27.5
898.864	30.5
900.012	27.5
901.161	26.5
902.31	27
903.459	29
904.607	26
905.756	25.5
906.904	26
908.052	26
909.199	25
910.347	28
911.495	26.5
912.643	27
913.789	24
914.936	26
916.083	25.5
917.229	26
918.375	29
919.522	25.5
920.667	26.5
921.813	29.5
922.959	31
924.104	26
925.249	26.5
926.393	24.5
927.539	26
928.684	26.5
929.827	29
930.972	28
932.115	28.5
933.26	29
934.403	27
935.547	24.5
936.689	25.5
937.833	22.5
938.975	24
940.119	27.5
941.26	26.5
942.404	25.5
943.545	30.5
944.688	24
945.829	27.5
946.971	27
948.112	26.5
949.253	24
950.394	26
951.535	26
952.676	25
953.816	23.5
954.956	26.5
956.097	25
957.236	27
958.377	29.5
959.516	27
960.655	25.5
961.793	25.5
962.933	28.5
964.071	28.5
965.21	24
966.349	24
967.487	26
968.624	24.5
969.762	23
970.901	25
972.038	27
973.175	25.5
974.311	28
975.449	22.5
976.586	26
977.722	27
978.858	27
979.994	25.5
981.131	26
982.267	28.5
983.402	28
984.537	24.5
985.672	27
986.807	29
987.942	22
989.076	25
990.211	31.5
991.346	26
992.48	25.5
993.614	28.5
994.748	28.5
995.881	22
997.014	27
998.148	22
999.28	26.5
1000.41	21
1001.55	25.5
1002.68	24
1003.81	26.5
1004.94	26
1006.07	27
1007.21	27
1008.34	31.5
1009.47	27
1010.6	25.5
1011.73	28
1012.86	26
1013.99	24.5
1015.12	27.5
1016.25	26
1017.38	21
1018.51	26
1019.64	24
1020.77	24
1021.9	26
1023.03	25.5
1024.16	24
1025.29	21
1026.42	23
1027.54	23
1028.67	22.5
1029.8	26
1030.93	29
1032.06	24.5
1033.18	27
1034.31	25.5
1035.44	24.5
1036.56	23
1037.69	26.5
1038.82	26.5
1039.94	26
1041.07	27
1042.2	21
1043.32	24.5
1044.45	26
1045.57	22
1046.7	20.5
1047.82	24
1048.95	29
1050.07	27.5
1051.2	26
1052.32	26.5
1053.45	22.5
1054.57	24.5
1055.69	26
1056.82	24.5
1057.94	24.5
1059.06	28
1060.19	22
1061.31	23.5
1062.43	28
1063.55	26
1064.68	27
1065.8	23
1066.92	28.5
1068.04	25.5
1069.16	24.5
1070.28	26.5
1071.41	27
1072.53	26
1073.65	24
1074.77	27
1075.89	23
1077.01	22
1078.13	29
1079.25	26.5
1080.37	23.5
1081.49	25.5
1082.61	23
1083.73	27
1084.85	27.5
1085.96	28
1087.08	21.5
1088.2	24
1089.32	25
1090.44	23
1091.56	26.5
1092.67	25.5
1093.79	27
1094.91	22
1096.03	24.5
1097.14	25
1098.26	23
1099.38	26.5
1100.49	25
1101.61	30.5
1102.73	23.5
1103.84	23
1104.96	31.5
1106.07	27
1107.19	26
1108.3	28
1109.42	28
1110.53	23
1111.65	26
1112.76	27
1113.88	26.5
1114.99	22
1116.1	27.5
1117.22	29.5
1118.33	25.5
1119.44	25
1120.56	22
1121.67	22.5
1122.78	26
1123.9	21
1125.01	26.5
1126.12	23.5
1127.23	22
1128.34	25
1129.46	23
1130.57	24.5
1131.68	26
1132.79	24
1133.9	24.5
1135.01	26.5
1136.12	22
1137.23	23.5
1138.34	26.5
1139.45	24
1140.56	24
1141.67	23
1142.78	26.5
1143.89	24
1145	22
1146.11	26.5
1147.22	25.5
1148.33	24
1149.44	21
1150.54	26.5
1151.65	26.5
1152.76	20.5
1153.87	24
1154.97	20
1156.08	25
1157.19	27
1158.3	23
1159.4	25
1160.51	27
1161.62	25
1162.72	23.5
1163.83	25
1164.93	25
1166.04	23
1167.15	26
1168.25	25
1169.36	25
1170.46	27.5
1171.57	25
1172.67	28
1173.78	26.5
1174.88	23
1175.98	27.5
1177.09	28
1178.19	19.5
1179.3	25
1180.4	21.5
1181.5	24
1182.61	25
1183.71	20
1184.81	25.5
1185.91	26
1187.02	26.5
1188.12	24
1189.22	28.5
1190.32	27.5
1191.42	25
1192.53	19
1193.63	24.5
1194.73	25.4957
1195.83	26.9129
1196.93	25.9876
1198.03	24.1441
1199.13	27.3849
1200.23	20.6013
1201.33	24.8618
1202.43	26.8624
1203.53	26.1428
1204.63	26.7896
1205.73	23.0884
1206.83	24.1873
1207.93	25.5583
1209.02	23.489
1210.12	23.9168
1211.22	22.5626
1212.32	23.9865
1213.42	21.8994
1214.52	24.6798
1215.61	25.6497
1216.71	24.349
1217.81	26.4664
1218.91	26.8721
1220	29.6773
1221.1	24.7741
1222.2	25.3949
1223.29	24
1224.39	26.1444
1225.49	22.4151
1226.58	25.7182
1227.68	24.3542
1228.77	26.7171
1229.87	23.9016
1230.96	24.1866
1232.06	24.0562
1233.15	23.1265
1234.25	22.2615
1235.34	22.6712
1236.44	24.8148
1237.53	25.908
1238.63	23.0974
1239.72	24.8261
1240.81	26.7633
1241.91	24.5568
1243	23.7212
1244.09	24.5785
1245.19	25.6047
1246.28	24.4302
1247.37	25.8517
1248.46	22.7217
1249.56	26.0726
1250.65	25.2359
1251.74	23.9754
1252.83	24.4306
1253.92	23.7354
1255.01	24.623
1256.11	25.4101
1257.2	27.1818
1258.29	24.7466
1259.38	24.5919
1260.47	25.4661
1261.56	28.8695
1262.65	24.9692
1263.74	25
1264.83	28.3465
1265.92	27.2782
1267.01	25.0795
1268.1	22.3228
1269.19	24.1081
1270.27	25.4449
1271.36	23.5923
1272.45	22.9199
1273.54	25.7271
1274.63	25.9272
1275.72	22.9827
1276.8	24.7386
1277.89	25.426
1278.98	24.1189
1280.07	23.8254
1281.15	26.5368
1282.24	26.7816
1283.33	26.9813
1284.41	25.7746
1285.5	24.2431
1286.59	22.9822
1287.67	26.7374
1288.76	26.129
1289.84	25.199
1290.93	22.8759
1292.01	24.5214
1293.1	22.9043
1294.19	24.6056
1295.27	21.8729
1296.35	22.2612
1297.44	24.9801
1298.52	24.1085
1299.61	20.0878
1300.69	23.9415
1301.78	21.4867
1302.86	25.2525
1303.94	26.4912
1305.03	25.7568
1306.11	25.4733
1306.4	25.5
1307.49	24.5
1308.57	26
1309.66	23
1310.75	20
1311.84	23
1312.92	26
1314.01	26
1315.1	22.5
1316.19	22
1317.27	22.5
1318.36	24.5
1319.45	25
1320.53	24
1321.62	23
1322.7	26
1323.79	24
1324.88	26
1325.96	24
1327.05	22
1328.13	25
1329.21	23.5
1330.3	24.5
1331.38	23
1332.47	24.5
1333.55	27
1334.64	25
1335.72	27
1336.8	22.5
1337.89	26.5
1338.97	30
1340.05	24.5
1341.14	25.5
1342.22	29.5
1343.3	24
1344.39	23
1345.47	23
1346.55	23
1347.63	24
1348.71	24
1349.79	23
1350.88	24.5
1351.96	21.5
1353.04	26
1354.12	22.5
1355.2	27
1356.28	23.5
1357.36	24.5
1358.44	25
1359.52	21
1360.6	28
1361.68	24
1362.76	23
1363.84	26
1364.92	24
1366	22
1367.08	23.5
1368.16	23
1369.23	27
1370.31	22.5
1371.39	24
1372.47	26.5
1373.55	24
1374.62	24
1375.7	24.5
1376.78	25
1377.85	25.5
1378.93	23
1380.01	26
1381.09	24
1382.16	24.5
1383.24	25
1384.31	29
1385.39	29.5
1386.47	23.5
1387.54	28
1388.62	25.5
1389.69	25
1390.77	28
1391.84	29
1392.92	24.5
1393.99	27.5
1395.06	25.5
1396.14	28.5
1397.21	25
1398.29	29.5
1399.36	28
1400.43	25.5
1401.51	31
1402.58	29
1403.65	28
1404.73	31
1405.8	27.5
1406.87	32.5
1407.94	31.5
1409.02	32.5
1410.09	27.5
1411.16	32
1412.23	26.5
1413.3	33
1414.37	31
1415.45	30.5
1416.52	29.5
1417.59	28
1418.66	31
1419.73	29.5
1420.8	27
1421.87	29
1422.94	27.5
1424.01	30
1425.08	33
1426.15	27
1427.22	25.5
1428.29	22.5
1429.35	27
1430.42	24
1431.49	28.5
1432.56	24.5
1433.63	28.5
1434.7	29
1435.77	28
1436.83	29
1437.9	24
1438.97	26
1440.04	28.5
1441.1	29
1442.17	29.5
1443.24	27.5
1444.3	24.5
1445.37	25.5
1446.44	25
1447.5	24
1448.57	28
1449.63	23
1450.7	28.5
1451.76	26
1452.83	26
1453.89	25.5
1454.96	25
1456.02	25
1457.09	27
1458.15	22.5
1459.22	27
1460.28	27.5
1461.34	27
1462.41	22
1463.47	26
1464.54	26.5
1465.6	21
1466.66	26.5
1467.72	27
1468.79	25.5
1469.85	25
1470.91	24
1471.97	24.5
1473.04	25.5
1474.1	24
1475.16	26
1476.22	23
1477.28	29
1478.34	27.5
1479.4	23
1480.47	26
1481.53	31
1482.59	27.5
1483.65	26
1484.71	23
1485.77	27
1486.83	30.5
1487.89	26
1488.95	25
1490.01	26
1491.07	24
1492.12	26
1493.18	23.5
1494.24	27.5
1495.3	23.5
1496.36	27
1497.42	24
1498.47	27.5
1499.53	27
1500.59	24
1501.65	22.5
1502.7	26
1503.76	23
1504.82	25.5
1505.88	25.5
1506.93	26.5
1507.99	22.5
1509.05	26.5
1510.1	23
1511.16	25.5
1512.21	31.5
1513.27	26.5
1514.32	23
1515.38	27
1516.43	24
1517.49	24.5
1518.54	28
1519.6	24
1520.65	26
1521.71	24
1522.76	24.5
1523.82	22
1524.87	23.5
1525.92	27
1526.98	26.5
1528.03	28
1529.08	21
1530.14	23.5
1531.19	26.5
1532.24	25.5
1533.3	25
1534.35	26
1535.4	25
1536.45	27
1537.5	24.5
1538.56	24.5
1539.61	22
1540.66	22.5
1541.71	25.5
1542.76	28
1543.81	23.5
1544.86	21.5
1545.91	23
1546.96	24.5
1548.01	25
1549.06	30
1550.11	27.5
1551.16	25.5
1552.21	22
1553.26	23
1554.31	31.5
1555.36	24
1556.41	24
1557.46	22.5
1558.51	26.5
1559.55	23
1560.6	28
1561.65	29
1562.7	29
1563.75	25.5
1564.79	29
1565.84	28
1566.89	25
1567.94	27
1568.98	24
1570.03	25
1571.07	26
1572.12	26.5
1573.17	27
1574.21	25.5
1575.26	26.5
1576.31	27
1577.35	27
1578.4	25
1579.44	28
1580.49	27.5
1581.53	26.5
1582.58	27.5
1583.62	22.5
1584.67	26.5
1585.71	22
1586.75	25
1587.8	26
1588.84	22
1589.89	28
1590.93	29
1591.97	25
1593.02	23
1594.06	27
1595.1	28.5
1596.14	29
1597.19	25.5
1598.23	24.5
1599.27	28
1600.31	23
1601.35	25.5
1602.4	24
1603.44	23.5
1604.48	22.5
1605.52	24
1606.56	28
1607.6	23
1608.64	28
1609.68	24
1610.72	25.5
1611.76	27
1612.8	24
1613.84	24
1614.88	27
1615.92	23
1616.96	22.5
1618	27
1619.04	25.5
1620.08	26
1621.12	24.5
1622.16	24.5
1623.19	23
1624.23	22
1625.27	22
1626.31	28.5
1627.35	27
1628.38	23
1629.42	25
1630.46	25.5
1631.5	25
1632.53	22.5
1633.57	26.5
1634.61	24.5
1635.64	27
1636.68	24
1637.71	27
1638.75	25.5
1639.79	23
1640.82	24.5
1641.86	27.5
1642.89	21
1643.93	26
1644.96	26
1646	27.5
1647.03	25.5
1648.07	25
1649.1	25.5
1650.14	25.5
1651.17	26
1652.2	25.5
1653.24	24.5
1654.27	22
1655.3	30.5
1656.34	25.5
1657.37	24
1658.4	23.5
1659.44	24
1660.47	24.5
1661.5	25.5
1662.53	27.5
1663.57	26
1664.6	22.5
1665.63	26
1666.66	26
1667.69	22
1668.72	27
1669.75	26.5
1670.79	24
1671.82	25
1672.85	18.5
1673.88	23.5
1674.91	24
1675.94	28.5
1676.97	20
1678	24.5
1679.03	23.5
1680.06	25.5
1681.09	26
1682.11	23.5
1683.14	26
1684.17	29
1685.2	26
1686.23	22
1687.26	26
1688.29	27
1689.32	26
1690.34	23.5
1691.37	25
1692.4	27
1693.43	25
1694.45	25.5
1695.48	27.5
1696.51	24
1697.53	27.5
1698.56	24.5
1699.59	26.5
1700.61	26
1701.64	25.5
1702.66	29
1703.69	24
1704.72	24.5
1705.74	23.5
1706.77	23.5
1707.79	27.5
1708.82	24
1709.84	27.5
1710.87	27
1711.89	23.5
1712.92	24
1713.94	24
1714.96	24
1715.99	26.5
1717.01	27
1718.04	22.5
1719.06	26.5
1720.08	23
1721.11	24
1722.13	23.5
1723.15	24
1724.17	27.5
1725.2	29.5
1726.22	24
1727.24	25.5
1728.26	24.5
1729.28	27
1730.31	26
1731.33	25.5
1732.35	25
1733.37	25
1734.39	23.5
1735.41	26
1736.43	23.5
1737.45	25
1738.47	26
1739.49	23.5
1740.51	27.5
1741.53	23.5
1742.55	26
1743.57	25.5
1744.59	25.5
1745.61	29
1746.63	23.5
1747.65	25
1748.67	27.5
1749.69	26
1750.71	25
1751.72	23
1752.74	27.5
1753.76	24.5
1754.78	25.5
1755.8	26.5
1756.81	25.5
1757.83	23.5
1758.85	22
1759.86	25
1760.88	29
1761.9	27
1762.91	24.5
1763.93	26
1764.95	24
1765.96	23.5
1766.98	24
1768	23
1769.01	28
1770.03	27
1771.04	25
1772.06	27
1773.07	25
1774.09	26
1775.1	22.5
1776.12	26.5
1777.13	27.5
1778.14	23
1779.16	25
1780.17	25
1781.19	25
1782.2	25
1783.21	26
1784.23	26
1785.24	25.5
1786.25	24
1787.27	23
1788.28	20.5
1789.29	26
1790.3	24
1791.32	23.5
1792.33	26.5
1793.34	27
1794.35	22
1795.36	20.5
1796.37	22
1797.38	24
1798.4	25
1799.41	26.5
1800.42	24
1801.43	24
1802.44	24
1803.45	27.5
1804.46	29.5
1805.47	24.5
1806.48	29.5
1807.49	22.5
1808.5	29
1809.51	25
1810.52	24
1811.53	21
1812.53	24
1813.54	28
1814.55	28.5
1815.56	24
1816.57	25
1817.58	24
1818.58	26.5
1819.59	26.5
1820.6	23.5
1821.61	23.5
1822.61	23.5
1823.62	26.5
1824.63	26.5
1825.64	20.5
1826.64	25.5
1827.65	24
1828.66	24
1829.66	24.5
1830.67	23.5
1831.67	23
1832.68	19.5
1833.68	24
1834.69	25
1835.7	24
1836.7	22.5
1837.71	29.5
1838.71	26.5
1839.71	26
1840.72	22.5
1841.72	24
1842.73	23
1843.73	21
1844.74	25.5
1845.74	24.5
1846.74	24
1847.75	24.5
1848.75	25
1849.75	21
1850.76	21.5
1851.76	30
1852.76	24
1853.76	24
1854.77	27.5
1855.77	25
1856.77	22.5
1857.77	21.5
1858.77	26
1859.78	22
1860.78	24
1861.78	25.5
1862.78	23
1863.78	29
1864.78	29.5
1865.78	24
1866.78	27
1867.78	28
1868.78	24.5
1869.78	27
1870.78	26
1871.78	25
1872.78	25.5
1873.78	25.5
1874.78	23
1875.78	25.5
1876.78	22
1877.78	28
1878.78	21.5
1879.77	26.5
1880.77	24
1881.77	25.5
1882.77	23
1883.77	22
1884.76	21
1885.76	24.5
1886.76	23.5
1887.76	24.5
1888.75	24
1889.75	26.5
1890.75	23.5
1891.74	30
1892.74	23
1893.74	23
1894.73	25
1895.73	28.5
1896.72	25.5
1897.72	24
1898.72	22
1899.71	25.5
1900.71	24
1901.7	27
1902.7	28.5
1903.69	21
1904.69	24
1905.68	21.5
1906.67	26.5
1907.67	25.5
1908.66	24
1909.66	24
1910.65	23.5
1911.64	22
1912.64	24
1913.63	21
1914.62	23.5
1915.62	24
1916.61	24
1917.6	23.5
1918.59	27.5
1919.59	26
1920.58	24
1921.57	27
1922.56	24.5
1923.55	25.5
1924.55	28
1925.54	23
1926.53	22.5
1927.52	22
1928.51	25.5
1929.5	25.5
1930.49	24
1931.48	25
1932.47	22.5
1933.46	21.5
1934.45	22
1935.44	24.5
1936.43	23
1937.42	22
1938.41	22.5
1939.4	24.5
1940.39	26.5
1941.38	23
1942.37	23.5
1943.36	24.5
1944.34	24
1945.33	22
1946.32	24.5
1947.31	25.5
1948.3	26
1949.28	25
1950.27	25.5
1951.26	21
1952.25	23.5
1953.23	25
1954.22	23
1955.21	25.5
1956.2	25.5
1957.18	25.5
1958.17	27.5
1959.15	24.5
1960.14	20.5
1961.13	23
1962.11	25
1963.1	26
1964.08	25
1965.07	22
1966.05	26
1967.04	24.5
1968.02	24
1969.01	27
1969.99	21
1970.98	20
1971.96	24.5
1972.94	19
1973.93	24
1974.91	22.5
1975.9	24.5
1976.88	25
1977.86	21
1978.85	26
1979.83	22.5
1980.81	25.5
1981.8	26
1982.78	25.5
1983.76	25
1984.74	25.5
1985.72	23.5
1986.71	23.5
1987.69	20
1988.67	24.5
1989.65	22
1990.63	22
1991.61	27.5
1992.6	26.5
1993.58	23
1994.56	24.5
1995.54	25.5
1996.52	25.5
1997.5	25
1998.48	22.5
1999.46	27
2000.44	22
2001.42	22
2002.4	24.5
2003.38	27
2004.36	23.5
2005.34	21.5
2006.32	27.5
2007.29	22
2008.27	23
2009.25	22
2010.23	24
2011.21	26
2012.19	22
2013.16	23
2014.14	22
2015.12	24
2016.1	21.5
2017.07	23.5
2018.05	27
2019.03	23.5
2020	23
2020.98	22
2021.96	26
2022.93	22.5
2023.91	22
2024.89	25.5
2025.86	23.5
2026.84	24
2027.81	18.5
2028.79	21.5
2029.77	23
2030.74	21
2031.72	20
2032.69	25.5
2033.67	29
2034.64	24.5
2035.61	26
2036.59	27
2037.56	26
2038.54	26
2039.51	20
2040.48	26
2041.46	28
2042.43	25
2043.41	20.5
2044.38	24.5
2045.35	25
2046.32	25.5
2047.3	27
2048.27	21.5
2049.24	25.5
2050.21	26
2051.19	21.5
2052.16	25
2053.13	27
2054.1	23
2055.07	22
2056.04	25
2057.02	23.5
2057.99	22
2058.96	23.5
2059.93	24.5
2060.9	24
2061.87	25
2062.84	23.5
2063.81	23
2064.78	25
2065.75	25
2066.72	27
2067.69	27
2068.66	21.5
2069.63	25
2070.6	23.5
2071.57	20.5
2072.53	24
2073.5	21.5
2074.47	29
2075.44	23.5
2076.41	27.5
2077.38	24.5
2078.34	28.5
2079.31	25.5
2080.28	24
2081.25	20
2082.21	27
2083.18	20
2084.15	21.5
2085.12	25
2086.08	23
2087.05	21
2088.02	21
2088.98	24
2089.95	23
2090.91	25
2091.88	27.5
2092.85	22
2093.81	27.5
2094.78	21
2095.74	22.5
2096.71	22.5
2097.67	24
2098.64	22
2099.6	24.5
2100.57	21
2101.53	23
2102.5	25
2103.46	23
2104.42	21.5
2105.39	24
2106.35	23.5
2107.31	23
2108.28	23
2109.24	24
2110.2	25.5
2111.17	22.5
2112.13	24
2113.09	22.5
2114.06	24
2115.02	26.5
2115.98	21.5
2116.94	26
2117.9	23.5
2118.86	22.5
2119.83	27
2120.79	24.5
2121.75	22.5
2122.71	24
2123.67	25.5
2124.63	24
2125.59	26
2126.55	21
2127.51	23
2128.48	23.5
2129.43	21
2130.4	25.5
2131.35	21
2132.31	24.5
2133.27	21.5
2134.23	28.5
2135.19	28
2136.15	25.5
2137.11	19
2138.07	19
2139.03	22.5
2139.99	23
2140.95	24
2141.9	23.5
2142.86	20.0004
2143.82	20.494
2144.78	21.6027
2145.74	26.0363
2146.69	20.2189
2147.65	22.0341
2148.61	23.4598
2149.56	22.8954
2150.52	23.6632
2151.48	22.9776
2152.44	22.6019
2153.39	23.0004
2154.35	21.0901
2155.3	21.5375
2156.26	23.0352
2157.22	22.8906
2158.17	21.9021
2159.13	20.963
2160.08	21.3447
2161.04	26.6873
2161.99	23.4781
2162.95	21.9356
2163.9	24.4905
2164.86	21.1104
2165.81	24.4704
2166.77	22.3853
2167.72	21.5445
2168.68	23.4203
2169.63	23.4931
2170.58	24.5985
2171.54	24.5245
2172.49	25.4756
2173.44	26.5278
2174.4	21.4436
2175.35	21.1015
2176.3	21.4634
2177.26	24.0808
2178.21	20.8968
2179.16	18.542
2180.11	21.1422
2181.07	23.517
2182.02	23.7526
2182.97	23.3871
2183.92	21.8723
2184.88	19.7241
2185.83	24.2209
2186.78	23.3717
2187.73	20.2303
2188.68	22.9417
2189.63	22.3502
2190.58	21.0341
2191.53	23.5337
2192.48	23.1939
2193.43	20.3132
2194.38	22.8015
2195.33	22.3391
2196.28	20.993
2197.23	24.496
2198.18	24.6373
2199.13	23.6965
2200.08	23.6408
2201.03	23.3272
2201.98	23.5888
2202.93	24.8291
2203.88	22.5618
2204.83	22.0922
2205.78	24.8337
2206.72	19.6565
2207.67	23.5735
2208.62	25.0911
2209.57	22.1603
2210.52	22.5624
2211.46	24.6714
2212.41	24.2626
2213.36	21.4624
2214.31	22.3498
2215.25	22.5382
2216.2	26.885
2217.15	23.4995
2218.09	23.2612
2219.04	24.8413
2219.99	23.2588
2220.93	22.3331
2221.88	22.8547
2222.83	25.8699
2223.77	25.8532
2224.72	25.3164
2225.66	24.1795
2226.61	19.751
2227.55	20.6709
2228.5	22.6038
2229.44	22.8883
2230.39	22.422
2231.33	20.6205
2232.28	22.0543
2233.22	21.0928
2234.17	22.5277
2235.11	19.9938
2236.05	22.771
2237	24.3677
2237.94	22.4965
2238.88	22.7889
2239.83	22.6036
2240.04	22.5
2240.98	23.5
2241.93	25.5
2242.88	25
2243.83	23
2244.78	23
2245.72	21
2246.67	22
2247.62	24.5
2248.56	27
2249.51	24
2250.46	26.5
2251.4	25
2252.35	23
2253.3	26.5
2254.24	18.5
2255.19	22
2256.14	25.5
2257.08	22.5
2258.03	22.5
2258.97	24
2259.92	24
2260.86	24.5
2261.81	23.5
2262.75	19.5
2263.7	18
2264.64	22.5
2265.59	23
2266.53	22.5
2267.48	27
2268.42	26.5
2269.36	23
2270.31	24
2271.25	24.5
2272.19	23
2273.14	25
2274.08	22
2275.02	26
2275.97	23.5
2276.91	25.5
2277.85	25
2278.8	20
2279.74	19.5
2280.68	20.5
2281.62	25.5
2282.56	26.5
2283.51	20
2284.45	19.5
2285.39	22
2286.33	25
2287.27	26.5
2288.21	21
2289.15	23
2290.09	24.5
2291.04	22.5
2291.98	23.5
2292.92	21
2293.86	19
2294.8	24
2295.74	28
2296.68	22
2297.62	22.5
2298.56	25
2299.5	21.5
2300.44	24
2301.37	22.5
2302.31	24
2303.25	25.5
2304.19	23.5
2305.13	25
2306.07	28.5
2307.01	25
2307.94	22
2308.88	26
2309.82	23.5
2310.76	21.5
2311.7	20
2312.63	24.5
2313.57	24
2314.51	22.5
2315.44	20
2316.38	25
2317.32	25
2318.26	24
2319.19	24.5
2320.13	20.5
2321.06	26
2322	22.5
2322.94	24.5
2323.87	24
2324.81	20
2325.74	25.5
2326.68	20
2327.61	24.5
2328.55	18
2329.48	22.5
2330.42	19.5
2331.35	22.5
2332.29	25
2333.22	30
2334.16	23.5
2335.09	22
2336.02	26
2336.96	24
2337.89	21.5
2338.83	24
2339.76	20.5
2340.69	22
2341.63	21.5
2342.56	21
2343.49	26
2344.42	23.5
2345.36	26
2346.29	25
2347.22	24
2348.15	18
2349.09	23
2350.02	24.5
2350.95	25.5
2351.88	20.5
2352.81	24
2353.74	24.5
2354.68	26
2355.61	25
2356.54	21
2357.47	23
2358.4	27
2359.33	24
2360.26	24.5
2361.19	28
2362.12	21
2363.05	20.5
2363.98	26.5
2364.91	20.5
2365.84	23
2366.77	23.5
2367.7	23
2368.63	25.5
2369.56	19.5
2370.49	21
2371.41	26
2372.34	20
2373.27	26.5
2374.2	20.5
2375.13	20
2376.06	21
2376.98	24.5
2377.91	22.5
2378.84	27.5
2379.77	22.5
2380.69	26.5
2381.62	19.5
2382.55	21.5
2383.47	27.5
2384.4	23.5
2385.33	23
2386.25	22
2387.18	24.5
2388.11	23.5
2389.03	23
2389.96	20
2390.89	23
2391.81	27.5
2392.74	24.5
2393.66	25.5
2394.59	21.5
2395.51	24
2396.44	28.5
2397.36	25.5
2398.29	25
2399.21	26
2400.14	26
2401.06	25.5
2401.99	21.5
2402.91	22
2403.83	20
2404.76	25
2405.68	24
2406.6	23
2407.53	22
2408.45	25
2409.37	21
2410.3	26.5
2411.22	22
2412.14	23
2413.06	19.5
2413.99	21.5
2414.91	25
2415.83	25.5
2416.75	26
2417.68	25
2418.6	26
2419.52	26
2420.44	23
2421.36	25.5
2422.28	30
2423.2	20
2424.12	25
2425.05	22
2425.97	27.5
2426.89	22
2427.81	23.5
2428.73	24.5
2429.65	23
2430.57	23.5
2431.49	22
2432.41	24
2433.33	24
2434.25	22
2435.17	24.5
2436.08	26
2437	23
2437.92	25.5
2438.84	23
2439.76	25
2440.68	26
2441.6	25
2442.51	25
2443.43	22
2444.35	26
2445.27	23.5
2446.19	24
2447.1	21
2448.02	26
2448.94	25.5
2449.85	23.5
2450.77	27
2451.69	24
2452.61	23
2453.52	26.5
2454.44	25
2455.35	24
2456.27	24
2457.19	22
2458.1	26
2459.02	22.5
2459.94	25
2460.85	25
2461.77	23
2462.68	25.5
2463.6	27.5
2464.51	25.5
2465.43	26
2466.34	23.5
2467.25	24.5
2468.17	26
2469.08	21.5
2470	26
2470.91	25.5
2471.83	23.5
2472.74	25.5
2473.65	26.5
2474.57	25.5
2475.48	21
2476.39	24.5
2477.31	23.5
2478.22	23.5
2479.13	24
2480.04	24.5
2480.96	26.5
2481.87	21.5
2482.78	28
2483.69	24
2484.6	25
2485.52	24
2486.43	24
2487.34	28
2488.25	24.5
2489.16	22
2490.07	21.5
2490.99	25
2491.9	23.5
2492.81	26
2493.72	24.5
2494.63	24
2495.54	25.5
2496.45	21.5
2497.36	23
2498.27	24.5
2499.18	22
2500.09	22
2501	24
2501.91	26
2502.82	23
2503.73	27.5
2504.63	20.5
2505.54	25
2506.45	24.5
2507.36	22
2508.27	24.5
2509.18	26
2510.09	23
2510.99	23.5
2511.9	23
2512.81	23
2513.72	27
2514.62	20.5
2515.53	20
2516.44	23
2517.35	26
2518.25	25.5
2519.16	24.5
2520.07	25
2520.97	23
2521.88	25.5
2522.79	25.5
2523.69	29.5
2524.6	26
2525.51	25
2526.41	20
2527.32	24.5
2528.22	26
2529.13	26
2530.03	26
2530.94	24.5
2531.84	25.5
2532.75	24.5
2533.65	24.5
2534.56	23.5
2535.46	27
2536.37	23.5
2537.27	25
2538.17	27
2539.08	24
2539.98	23
2540.89	24
2541.79	21
2542.69	23
2543.6	25
2544.5	23
2545.4	20.5
2546.31	29
2547.21	27
2548.11	21
2549.01	21
2549.92	23.5
2550.82	26
2551.72	24
2552.62	26.5
2553.52	23
2554.42	26
2555.33	25.5
2556.23	21.5
2557.13	20.5
2558.03	25
2558.93	24
2559.83	22.5
2560.73	27.5
2561.63	24.5
2562.53	28
2563.43	24.5
2564.33	27.5
2565.24	23.5
2566.13	21
2567.04	25
2567.93	23.5
2568.83	25
2569.73	25.5
2570.63	26.5
2571.53	23
2572.43	25.5
2573.33	27
2574.23	22.5
2575.13	26
2576.03	23.5
2576.92	26
2577.82	28
2578.72	24.5
2579.62	22.5
2580.52	21
2581.41	25.5
2582.31	26
2583.21	28
2584.11	25
2585	27
2585.9	20
2586.8	25
2587.69	23
2588.59	25.5
2589.49	23.5
2590.38	28
2591.28	21.5
2592.18	27
2593.07	25
2593.97	25.5
2594.86	22.5
2595.76	24
2596.66	22
2597.55	24
2598.45	20
2599.34	24
2600.24	25
2601.13	22
2602.03	24.5
2602.92	28.5
2603.81	22.5
2604.71	25
2605.6	26
2606.5	25
2607.39	21
2608.28	27
2609.18	23
2610.07	22
2610.97	21.5
2611.86	22
2612.75	23
2613.64	26
2614.54	26.5
2615.43	23
2616.32	21
2617.22	28.5
2618.11	28
2619	24
2619.89	25
2620.78	21.5
2621.68	23
2622.57	26
2623.46	26
2624.35	20.5
2625.24	25
2626.13	21.5
2627.02	23
2627.91	26.5
2628.81	22
2629.7	23.5
2630.59	20
2631.48	25.5
2632.37	20
2633.26	25.5
2634.15	22.5
2635.04	24.5
2635.93	27
2636.82	26
2637.71	23
2638.59	23
2639.48	27
2640.37	24.5
2641.26	25.5
2642.15	21.5
2643.04	25
2643.93	22
2644.82	23
2645.71	24
2646.59	19.5
2647.48	25.5
2648.37	27.5
2649.26	27
2650.15	28
2651.03	23.5
2651.92	25.5
2652.81	26.5
2653.69	22.5
2654.58	25
2655.47	24.5
2656.35	24.5
2657.24	22
2658.13	26
2659.01	25
2659.9	26
2660.79	25
2661.67	23
2662.56	20.5
2663.44	28
2664.33	23.5
2665.22	24
2666.1	25.5
2666.99	24.5
2667.87	24
2668.76	21
2669.64	27
2670.52	27
2671.41	19.5
2672.29	23
2673.18	25
2674.06	23.5
2674.95	27.5
2675.83	26
2676.71	22.5
2677.6	24.5
2678.48	25.5
2679.36	28
2680.25	21
2681.13	25
2682.01	24
2682.9	28
2683.78	28.5
2684.66	21
2685.55	23.5
2686.43	23
2687.31	23.5
2688.19	25
2689.07	22
2689.96	21
2690.84	25
2691.72	23
2692.6	24.5
2693.48	26.5
2694.36	22.5
2695.24	26.5
2696.12	24.5
2697	22.5
2697.89	25.5
2698.77	26.5
2699.65	23
2700.53	23
2701.41	22
2702.29	25.5
2703.17	24.5
2704.05	25
2704.93	23.5
2705.81	24
2706.69	25
2707.57	25
2708.44	22
2709.32	25.5
2710.2	22
2711.08	21.5
2711.96	26
2712.84	20.5
2713.72	22.5
2714.59	25.5
2715.47	22.5
2716.35	21
2717.23	22
2718.11	27.5
2718.98	28
2719.86	29.5
2720.74	26.5
2721.62	25
2722.49	25.5
2723.37	25
2724.25	26
2725.12	22.5
2726	23
2726.88	24
2727.75	24
2728.63	26.5
2729.51	24
2730.38	22
2731.26	26
2732.13	26
2733.01	23.5
2733.88	22.5
2734.76	27
2735.63	30.5
2736.51	24
2737.38	24.5
2738.26	25.5
2739.13	25
2740.01	23
2740.88	22.5
2741.76	23.5
2742.63	22
2743.5	25
2744.38	19.5
2745.25	22.5
2746.13	26.5
2747	25
2747.87	23.5
2748.75	26.5
2749.62	25
2750.49	23.5
2751.36	22
2752.24	22
2753.11	22.5
2753.98	20.5
2754.86	23.5
2755.73	24
2756.6	27.5
2757.47	23
2758.34	25
2759.22	27.5
2760.09	24.5
2760.96	20.5
2761.83	24.5
2762.7	23.5
2763.57	20.5
2764.44	21
2765.31	23.5
2766.18	26
2767.06	21
2767.93	26
2768.8	27
2769.67	24.5
2770.54	26
2771.41	23
2772.28	25.5
2773.15	22
2774.02	26
2774.89	26
2775.75	19
2776.62	27
2777.49	25.5
2778.36	21.5
2779.23	22
2780.1	22
2780.97	24
2781.84	24.5
2782.71	26
2783.57	23
2784.44	32.5
2785.31	25
2786.18	24
2787.04	26
2787.91	22
2788.78	28
2789.65	26.5
2790.51	24.5
2791.38	28.5
2792.25	25
2793.12	25.5
2793.98	27.5
2794.85	29
2795.72	26.5
2796.58	24.5
2797.45	27
2798.31	23.5
2799.18	24.5
2800.05	26.5
2800.91	25
2801.78	21
2802.64	23
2803.51	26
2804.37	31
2805.24	30
2806.1	26
2806.97	26.5
2807.83	27.5
2808.7	27
2809.56	23
2810.43	24.5
2811.29	28.5
2812.15	27
2813.02	28
2813.88	23
2814.75	24
2815.61	25
2816.47	25.5
2817.34	23.5
2818.2	24.5
2819.06	32.5
2819.92	23
2820.79	26
2821.65	28
2822.51	26.5
2823.37	26
2824.24	22.5
2825.1	29
2825.96	25.5
2826.82	25.5
2827.69	25
2828.55	24
2829.41	29.5
2830.27	25
2831.13	24
2831.99	22.5
2832.85	24.5
2833.71	28
2834.58	27
2835.44	27.5
2836.3	25
2837.16	25
2838.02	24
2838.88	26
2839.74	29
2840.6	26
2841.46	30
2842.32	27.5
2843.18	25.5
2844.04	25
2844.9	28
2845.75	25.5
2846.61	23.5
2847.47	30.5
2848.33	28
2849.19	25
2850.05	26
2850.91	25
2851.77	24
2852.62	26
2853.48	27
2854.34	26.5
2855.2	30.5
2856.06	28
2856.91	24.5
2857.77	27
2858.63	23.5
2859.48	28
2860.34	29
2861.2	25.5
2862.06	26
2862.91	27
2863.77	28
2864.63	27
2865.48	31.5
2866.34	28
2867.19	28.5
2868.05	30.5
2868.91	26
2869.76	31.5
2870.62	28.5
2871.47	28
2872.33	26
2873.18	31
2874.04	30
2874.89	28
2875.75	24.5
2876.6	30.5
2877.46	33.5
2878.31	36
2879.17	35.5
2880.02	37
2880.88	30.5
2881.73	30.5
2882.58	33
2883.44	35
2884.29	29.5
2885.14	35
2886	33
2886.85	33.5
2887.7	36.5
2888.56	35
2889.41	39
2890.26	35
2891.12	39.5
2891.97	44.5
2892.82	43.5
2893.67	44.5
2894.52	39.5
2895.38	41.5
2896.23	57.5
2897.08	54
2897.93	50.5
2898.78	57.5
2899.64	59
2900.49	61
2901.34	64.5
2902.19	66
2903.04	66.5
2903.89	66.5
2904.74	66
2905.59	71.5
2906.44	72.5
2907.29	70.5
2908.14	68.5
2908.99	69.5
2909.84	66
2910.69	64.5
2911.54	63
2912.39	59.5
2913.24	49
2914.09	50
2914.94	52.5
2915.79	48
2916.64	44.5
2917.49	42.5
2918.34	46.5
2919.18	37.5
2920.03	38
2920.88	36
2921.73	40.5
2922.58	38.5
2923.42	33
2924.27	34
2925.12	31
2925.97	33.5
2926.82	27.5
2927.66	34
2928.51	30
2929.36	32
2930.2	28
2931.05	29.5
2931.9	26
2932.74	27
2933.59	31
2934.44	28
2935.28	26.5
2936.13	29.5
2936.98	28
2937.82	27
2938.67	26.5
2939.51	25
2940.36	26.5
2941.2	27
2942.05	30.5
2942.9	26
2943.74	28.5
2944.58	26.5
2945.43	26.5
2946.27	28
2947.12	25.5
2947.96	25.5
2948.81	29
2949.65	31
2950.5	29.5
2951.34	30
2952.18	33
2953.03	34
2953.87	30
2954.71	32
2955.56	37
2956.4	28
2957.24	34.5
2958.09	37
2958.93	36
2959.77	39.5
2960.62	41.5
2961.46	39
2962.3	46.5
2963.14	40
2963.98	48
2964.83	47.5
2965.67	46.5
2966.51	38
2967.35	41.5
2968.19	42
2969.04	41
2969.88	44
2970.72	41
2971.56	43.4612
2972.4	38.3903
2973.24	39.9462
2974.08	35.5115
2974.92	36.8596
2975.76	32.5319
2976.6	36.5963
2977.44	38.0255
2978.28	29.1914
2979.12	30.7113
2979.96	27.2375
2980.8	31.4321
2981.64	30.5794
2982.48	27.6004
2983.32	25.7142
2984.16	27.8871
2985	26.8806
2985.84	25.6224
2986.68	28.1864
2987.52	28.6567
2988.35	26.6544
2989.19	26.4947
2990.03	25.7664
2990.87	25.5667
2991.71	25.7975
2992.55	28.3301
2993.38	24.2372
2994.22	24.0757
2995.06	27.3866
2995.9	24.5506
2996.73	23.3474
2997.57	23.8563
2998.41	25.2413
2999.25	23.0233
3000.08	25.8601
3000.92	22.0399
3001.76	20.9354
3002.59	24.3281
3003.43	21.1847
3004.27	24.0663
3005.1	26.3214
3005.94	24.397
3006.78	21.9556
3007.61	24.0648
3008.45	24.3589
3009.28	22.1667
3010.12	25.9662
3010.95	26.5376
3011.79	23.9644
3012.62	22.4331
3013.46	22.1261
3014.29	23.1691
3015.13	20.9191
3015.96	22.855
3016.8	21.7131
3017.63	21.9813
3018.47	24.9073
3019.3	23.6754
3020.14	24.0676
3020.97	22.1771
3021.8	23.1486
3022.64	23.4407
3023.47	22.9819
3024.3	23.923
3025.14	22.166
3025.97	21.8771
3026.8	23.9057
3027.64	21.9294
3028.47	24.4786
3029.3	24.2
3030.14	22.7499
3030.97	22.1723
3031.8	24.9096
3032.63	22.5142
3033.46	22.0125
3034.3	24.1734
3035.13	23.4279
3035.96	22.5049
3036.79	23.4374
3037.62	21.8294
3038.46	21.8172
3039.29	23.4175
3040.12	24.209
3040.95	23.531
3041.78	21.8992
3042.61	19.633
3043.44	20.6553
3044.27	23.8188
3045.1	23.0763
3045.93	22.2483
3046.76	23.1766
3047.59	22.6181
3048.42	24.1935
3049.25	22.5343
3050.08	22.6547
3050.91	22.8698
3051.74	22.5648
3052.57	22.8575
3053.4	20.17
3054.23	22.8894
3055.06	21.8679
3055.89	22.8952
3056.72	23.2063
3057.32	25
3058.15	20
3058.98	23
3059.82	22.5
3060.65	24.5
3061.48	24
3062.31	24
3063.15	26.5
3063.98	23.5
3064.81	25
3065.64	24
3066.48	21.5
3067.31	24
3068.14	23
3068.97	25.5
3069.8	24
3070.63	25
3071.47	18.5
3072.3	24
3073.13	25
3073.96	21
3074.79	24.5
3075.62	24
3076.45	24
3077.28	21
3078.11	24.5
3078.94	21
3079.77	19
3080.6	24
3081.43	21
3082.26	28.5
3083.09	24
3083.92	20
3084.75	30
3085.58	19
3086.41	21.5
3087.24	23.5
3088.07	24
3088.9	19
3089.73	25
3090.55	26.5
3091.38	23.5
3092.21	20.5
3093.04	25
3093.87	24
3094.7	22.5
3095.52	22.5
3096.35	23
3097.18	18
3098.01	24
3098.84	25.5
3099.66	24
3100.49	24
3101.32	25.5
3102.14	24
3102.97	21.5
3103.8	22
3104.62	23
3105.45	21
3106.28	23
3107.1	20.5
3107.93	27
3108.76	24
3109.58	23
3110.41	23
3111.23	21.5
3112.06	23.5
3112.89	23
3113.71	24.5
3114.54	22.5
3115.36	22.5
3116.19	22.5
3117.01	22
3117.84	24
3118.66	25
3119.49	25
3120.31	17.5
3121.13	24.5
3121.96	25.5
3122.78	23
3123.61	20.5
3124.43	22.5
3125.25	25
3126.08	24
3126.9	26.5
3127.73	25.5
3128.55	25.5
3129.37	22
3130.19	21.5
3131.02	24
3131.84	23.5
3132.66	21
3133.49	24
3134.31	26
3135.13	21
3135.95	21.5
3136.78	23.5
3137.6	23
3138.42	21.5
3139.24	25
3140.06	25
3140.88	24
3141.71	22
3142.53	22
3143.35	21
3144.17	24
3144.99	24.5
3145.81	20
3146.63	24.5
3147.45	25.5
3148.27	23.5
3149.09	21.5
3149.91	25
3150.73	24
3151.56	23.5
3152.37	26
3153.2	25
3154.01	24.5
3154.83	22.5
3155.65	25
3156.47	23.5
3157.29	22.5
3158.11	21
3158.93	25
3159.75	24.5
3160.57	27.5
3161.39	24
3162.21	24.5
3163.02	25
3163.84	26
3164.66	24.5
3165.48	22
3166.3	22
3167.11	23.5
3167.93	20.5
3168.75	22
3169.57	23.5
3170.39	29
3171.2	24
3172.02	28
3172.84	26
3173.65	25.5
3174.47	23
3175.29	26.5
3176.1	25
3176.92	23
3177.74	22.5
3178.55	27
3179.37	26
3180.19	25.5
3181	22
3181.82	25
3182.63	19
3183.45	25.5
3184.27	23
3185.08	23
3185.9	20.5
3186.71	27.5
3187.53	23.5
3188.34	23
3189.16	25
3189.97	25.5
3190.79	22
3191.6	20
3192.41	20.5
3193.23	19.5
3194.04	21
3194.86	22.5
3195.67	24
3196.48	23
3197.3	27.5
3198.11	25
3198.93	26.5
3199.74	24.5
3200.55	23
3201.36	23.5
3202.18	28
3202.99	21
3203.8	23.5
3204.62	24.5
3205.43	22.5
3206.24	24
3207.05	24
3207.87	21.5
3208.68	24
3209.49	22
3210.3	21
3211.11	26
3211.93	24
3212.74	25
3213.55	20
3214.36	18
3215.17	25
3215.98	22
3216.79	25.5
3217.6	26
3218.41	22
3219.22	25
3220.03	24
3220.85	18.5
3221.66	26
3222.47	22
3223.28	25.5
3224.09	23
3224.9	26
3225.71	22
3226.52	21
3227.33	23.5
3228.13	23.5
3228.94	21
3229.75	24
3230.56	23
3231.37	26.5
3232.18	25.5
3232.99	22
3233.8	26
3234.61	21.5
3235.41	24.5
3236.22	21
3237.03	24.5
3237.84	28.5
3238.65	22
3239.45	22.5
3240.26	25
3241.07	17.5
3241.88	24
3242.68	23.5
3243.49	24
3244.3	21.5
3245.1	23.5
3245.91	23.5
3246.72	22.5
3247.53	24.5
3248.33	24
3249.14	23.5
3249.95	22.5
3250.75	23
3251.56	23.5
3252.36	23
3253.17	21.5
3253.97	23
3254.78	25.5
3255.59	22
3256.39	23
3257.2	23
3258	25.5
3258.81	24
3259.61	24
3260.42	22.5
3261.22	24.5
3262.03	24
3262.83	29
3263.64	20.5
3264.44	20
3265.24	22
3266.05	27
3266.85	22.5
3267.66	20
3268.46	24
3269.26	26
3270.07	24.5
3270.87	25.5
3271.67	24
3272.48	23
3273.28	23
3274.08	19
3274.89	27
3275.69	24
3276.49	26.5
3277.29	20.5
3278.1	26.5
3278.9	21.5
3279.7	25
3280.5	25.5
3281.3	25.5
3282.11	22
3282.91	25
3283.71	22
3284.51	22.5
3285.31	24
3286.11	22
3286.91	21
3287.72	23
3288.52	23.5
3289.32	24
3290.12	23
3290.92	22
3291.72	23
3292.52	22
3293.32	25
3294.12	23
3294.92	20.5
3295.72	22.5
3296.52	28
3297.32	23
3298.12	25.5
3298.92	19
3299.72	21.5
3300.52	24.5
3301.32	24.5
3302.12	26
3302.92	23.5
3303.71	21
3304.51	25
3305.31	19
3306.11	24.5
3306.91	24.5
3307.71	24
3308.5	23
3309.3	23
3310.1	26
3310.9	25.5
3311.7	22
3312.49	27.5
3313.29	25
3314.09	22
3314.89	23
3315.68	25.5
3316.48	25.5
3317.28	25.5
3318.07	19
3318.87	23.5
3319.67	23
3320.46	22.5
3321.26	24
3322.06	25.5
3322.85	24.5
3323.65	26.5
3324.44	25
3325.24	22
3326.04	21
3326.83	23
3327.63	25.5
3328.42	24.5
3329.22	25.5
3330.01	24
3330.81	26
3331.6	21
3332.4	25.5
3333.19	24
3333.99	26
3334.78	25
3335.58	20
3336.37	23
3337.17	23.5
3337.96	24
3338.75	25
3339.55	26
3340.34	26
3341.13	23
3341.93	24
3342.72	23
3343.51	22.5
3344.31	24
3345.1	23
3345.89	24
3346.69	24
3347.48	23
3348.27	26.5
3349.06	28
3349.86	26
3350.65	20.5
3351.44	25.5
3352.23	23.5
3353.03	26
3353.82	24
3354.61	22
3355.4	25.5
3356.19	25.5
3356.98	26
3357.78	27
3358.57	21
3359.36	20
3360.15	25.5
3360.94	24
3361.73	23.5
3362.52	25.5
3363.31	24.5
3364.1	23.5
3364.89	22.5
3365.68	21
3366.47	22
3367.26	22
3368.05	24
3368.84	23
3369.63	25.5
3370.42	23.5
3371.21	22
3372	25.5
3372.79	22.5
3373.58	23.5
3374.37	25
3375.16	24.5
3375.95	26
3376.73	23
3377.52	25
3378.31	24.5
3379.1	27.5
3379.89	25.5
3380.68	22
3381.46	24.5
3382.25	25.5
3383.04	22.5
3383.83	21
3384.62	21.5
3385.4	22.5
3386.19	28
3386.98	22
3387.76	27
3388.55	22
3389.34	25
3390.13	25
3390.91	25
3391.7	21
3392.49	22.5
3393.27	23.5
3394.06	27
3394.84	23.5
3395.63	21.5
3396.42	25.5
3397.2	21
3397.99	27.5
3398.77	25.5
3399.56	21
3400.34	24
3401.13	19.5
3401.92	21
3402.7	25
3403.49	24
3404.27	22.5
3405.06	24.5
3405.84	23.5
3406.62	26.5
3407.41	29.5
3408.19	25
3408.98	24
3409.76	26
3410.55	21
3411.33	21
3412.11	24
3412.9	24
3413.68	23
3414.46	22
3415.25	25
3416.03	22
3416.81	24.5
3417.6	26
3418.38	23.5
3419.16	22
3419.95	24
3420.73	20
3421.51	19.5
3422.29	28
3423.08	21.5
3423.86	23
3424.64	20.5
3425.42	24
3426.2	20.5
3426.98	22.5
3427.77	25
3428.55	27
3429.33	24
3430.11	21
3430.89	23
3431.67	25.5
3432.45	25
3433.24	20
3434.02	22.5
3434.8	24
3435.58	27.5
3436.36	24.5
3437.14	23
3437.92	25.5
3438.7	24
3439.48	23.5
3440.26	24
3441.04	25
3441.82	24.5
3442.6	23
3443.38	24.5
3444.16	25
3444.94	22
3445.71	26.5
3446.49	24
3447.27	25.5
3448.05	23.5
3448.83	27.5
3449.61	22
3450.39	27
3451.17	25
3451.94	25
3452.72	19
3453.5	22
3454.28	21
3455.06	24
3455.83	26.5
3456.61	23
3457.39	21
3458.17	20.5
3458.94	25
3459.72	24
3460.5	29
3461.28	21.5
3462.05	24.5
3462.83	25
3463.61	24.5
3464.38	22.5
3465.16	24.5
3465.93	22.5
3466.71	25
3467.49	27
3468.26	23
3469.04	22
3469.82	22.5
3470.59	24.5
3471.37	22
3472.14	22.5
3472.92	21.5
3473.69	28.5
3474.47	23
3475.24	20.5
3476.02	24.5
3476.79	21.5
3477.57	24
3478.34	26
3479.12	26
3479.89	28
3480.67	20
3481.44	21
3482.21	24
3482.99	20
3483.76	20.5
3484.54	25
3485.31	26.5
3486.08	25
3486.86	25.5
3487.63	23.5
3488.4	22
3489.18	26.5
3489.95	23.5
3490.72	27
3491.5	23.5
3492.27	24
3493.04	21
3493.81	24
3494.59	23.5
3495.36	29.5
3496.13	22.5
3496.9	25.5
3497.67	21
3498.45	24
3499.22	23.5
3499.99	21
