#Acq. time (s)=	5
#Accumulations=	5
#Range (cm-¹)=	100...3500
#Windows=	4
#Autofocus=	Off
#AutoExposure=	Off
#Spike filter=	Multiple accum.
#Delay time (s)=	0
#Binning=	1
#Readout mode=	Signal
#DeNoise=	Off
#ICS correction=	Off
#Dark correction=	Off
#Inst. Process=	Off
#Instrument=	LabRAM HR Evol
#Detector=	Syncerity OE
#Objective=	x100_VIS
#Grating=	600 (500nm)
#ND Filter=	25%
#Laser=	633nm_Edge
#Hole=	100.021
#Range=	Visible
#Project=	verificaciones
#Sample=	a5
#Site=	plain
#Title=	bolusa5plain
#Remark=	
#Date=	09.01.2026 14:02
#Acquired=	09.01.2026 14:02:26
100.695	28.5
101.978	33.5
103.262	32.5
104.545	26
105.829	32.5
107.112	32.5
108.394	30.5
109.676	27
110.958	27.5
112.24	24
113.522	29.5
114.803	30.5
116.084	31
117.365	28.5
118.646	28
119.927	31.5
121.207	29
122.487	33.5
123.767	33
125.047	33.5
126.326	33
127.606	34
128.885	31.5
130.164	31.5
131.442	33.5
132.721	32.5
133.999	37
135.277	33
136.555	35.5
137.831	34
139.109	36.5
140.386	35.5
141.663	36
142.94	39
144.216	30
145.493	36.5
146.769	36.5
148.043	35
149.319	40
150.595	38.5
151.87	35
153.145	36.5
154.42	38
155.693	38.5
156.968	39.5
158.242	37.5
159.516	35.5
160.79	39
162.062	36
163.336	35
164.609	34
165.882	38.5
167.153	38.5
168.426	38
169.699	39
170.971	38
172.241	35.5
173.513	41
174.785	36.5
176.055	37.5
177.326	41
178.597	36
179.866	37
181.137	40
182.407	44.5
183.676	39.5
184.946	42
186.216	38.5
187.484	40
188.753	37
190.022	35
191.29	36.5
192.558	42.5
193.825	32
195.094	33
196.36	35
197.628	38.5
198.896	34
200.162	36.5
201.429	35.5
202.695	35.5
203.962	30.5
205.227	33.5
206.493	35.5
207.758	32
209.024	35.5
210.289	32.5
211.554	34.5
212.818	31.5
214.083	29
215.347	36
216.612	32
217.875	33.5
219.138	31
220.402	32
221.665	33
222.928	30.5
224.19	32.5
225.454	34
226.715	33
227.977	32
229.24	32.5
230.501	32
231.762	29.5
233.024	31
234.284	29.5
235.546	28
236.806	32
238.066	28.5
239.327	31
240.587	28
241.846	24
243.105	28
244.365	26
245.624	28.5
246.882	27.5
248.142	33.5
249.4	31.5
250.658	26.5
251.916	30
253.174	32
254.432	27.5
255.689	29.5
256.945	31.5
258.202	31.5
259.46	27.5
260.716	31.5
261.972	32
263.228	27.5
264.483	27
265.74	30
266.996	28
268.251	30
269.505	29
270.76	27.5
272.014	30.5
273.268	31
274.522	23.5
275.778	29.5
277.031	27.5
278.285	27.5
279.538	27
280.791	24.5
282.043	28
283.296	26
284.548	29
285.8	27
287.052	27
288.304	27.5
289.556	30
290.807	29
292.058	29
293.309	31
294.56	30
295.81	25.5
297.061	25
298.311	29
299.561	32.5
300.81	27.5
302.06	27.5
303.309	27.5
304.558	25
305.807	27.5
307.056	31
308.305	28.5
309.551	28
310.8	29
312.047	30
313.295	26.5
314.543	22
315.79	27.5
317.037	26.5
318.284	30
319.529	28
320.776	32.5
322.022	29.5
323.268	23
324.514	32
325.758	28
327.004	28
328.249	26.5
329.494	29.5
330.739	29
331.982	29.5
333.227	27
334.471	24.5
335.715	25.5
336.958	30
338.201	24.5
339.445	29
340.687	26.5
341.93	24
343.173	23.5
344.414	23
345.657	26.5
346.899	25
348.14	31
349.381	33
350.623	28
351.863	28.5
353.104	28.5
354.346	32
355.585	24.5
356.826	29.5
358.065	29
359.305	28.5
360.545	28.5
361.784	29.5
363.023	29.5
364.261	25
365.501	31.5
366.738	25
367.977	26
369.216	29
370.453	28.5
371.691	29
372.928	28
374.166	24.5
375.402	31.5
376.64	29.5
377.876	26
379.111	26.5
380.348	26
381.584	22.5
382.82	26
384.055	28
385.291	27.5
386.526	27
387.76	28
388.996	26
390.229	35.5
391.465	24.5
392.698	30.5
393.931	29.5
395.166	24.5
396.399	26.5
397.632	32.5
398.866	26.5
400.098	25
401.33	27
402.563	26
403.795	27
405.027	27.5
406.259	26
407.491	30.5
408.721	29
409.954	28.5
411.184	28.5
412.415	24
413.645	28
414.876	27.5
416.106	25.5
417.335	24.5
418.565	25
419.794	29
421.024	21
422.253	24
423.482	24
424.71	30.5
425.938	25.5
427.168	27.5
428.396	26
429.623	29.5
430.851	27
432.078	29.5
433.305	24.5
434.532	29
435.758	23
436.986	26
438.212	27
439.438	27.5
440.664	29
441.89	30
443.115	31.5
444.34	27.5
445.566	29.5
446.79	28
448.015	27
449.24	30
450.464	23.5
451.688	29.5
452.912	27
454.135	28
455.359	28
456.582	26
457.805	28
459.028	27.5
460.251	31
461.473	27
462.696	26.5
463.918	29
465.14	28
466.36	28
467.582	30.5
468.803	30.5
470.024	30
471.245	31.5
472.466	33.5
473.686	31
474.907	33.5
476.126	37
477.346	39
478.565	37.5
479.785	38
481.004	47
482.224	52.5
483.441	49.5
484.66	52
485.879	52.5
487.097	54.5
488.314	54
489.532	57
490.75	61
491.967	50
493.184	51
494.401	52.5
495.618	52.5
496.835	50
498.05	45
499.267	47.5
500.483	40
501.698	39
502.913	40.5
504.129	39
505.343	35
506.559	34
507.774	36
508.987	38
510.202	33
511.415	31
512.63	30
513.844	33.5
515.056	35
516.27	35.5
517.482	33.5
518.696	32
519.907	31
521.121	32.5
522.332	32.5
523.545	32
524.757	31.5
525.968	31
527.18	29.5
528.39	29.5
529.602	32.5
530.812	30
532.023	28.5
533.233	29.5
534.443	27
535.653	27
536.862	29
538.073	30
539.281	28.5
540.491	26.5
541.7	30.5
542.908	27.5
544.117	31
545.325	25
546.534	27.5
547.741	27.5
548.949	22
550.157	30
551.364	29.5
552.57	28
553.778	25
554.985	25
556.191	30
557.398	26.5
558.604	25
559.809	26
561.014	24
562.221	27
563.426	28
564.63	29
565.835	28.5
567.041	26
568.245	25.5
569.449	27
570.653	28
571.856	23
573.061	27
574.264	24
575.467	27.5
576.67	24.5
577.873	24
579.076	24
580.279	28.5
581.481	31
582.683	27
583.884	30
585.086	31
586.287	22.5
587.488	30
588.689	29
589.891	29
591.092	26.5
592.292	28
593.492	28.5
594.692	29.5
595.892	28
597.092	26
598.291	27
599.49	26.5
600.689	24.5
601.888	26.5
603.087	25
604.285	27
605.483	26
606.681	24.5
607.879	29.5
609.077	29
610.274	26
611.472	27
612.668	29.5
613.865	28
615.061	28
616.258	27
617.454	30
618.65	27
619.846	25.5
621.042	25.5
622.238	23
623.432	27.5
624.627	26.5
625.822	27
627.017	26
628.212	27
629.406	25
630.599	30
631.793	31
632.987	27
634.181	29.5
635.373	26.5
636.566	26
637.76	27.5
638.953	27
640.144	26
641.337	27
642.529	29
643.721	27.5
644.912	27.5
646.104	28.5
647.295	29
648.485	26
649.677	24
650.868	29
652.057	28.5
653.248	29
654.437	29.5
655.628	28
656.818	26.5
658.006	27.5
659.196	31
660.384	27.5
661.574	26
662.763	29.5
663.951	23.5
665.14	32
666.327	28
667.515	28.5
668.702	30
669.891	29.5
671.077	26.5
672.265	26.5
673.451	26.5
674.638	29
675.824	32.5
677.011	32
678.197	30
679.383	23
680.568	33
681.755	30.5
682.939	33
684.124	30
685.309	33
686.494	33.5
687.679	32
688.863	35.5
690.046	34.5
691.231	33
692.414	33
693.599	33
694.781	31.5
695.964	34.5
697.148	38.5
698.33	35
699.512	34.5
700.694	36.5
701.877	34.5
703.059	39.5
704.24	39.5
705.423	41
706.604	48
707.784	42.5
708.965	49.5
710.147	47.5
711.327	46
712.507	48
713.687	40
714.867	37
716.048	36
717.227	33
718.406	29.5
719.585	31
720.764	30
721.942	32
723.122	27.5
724.3	30
725.478	32
726.656	29.5
727.834	26
729.011	26.5
730.189	26.5
731.366	28.5
732.543	27.5
733.719	25
734.896	29
736.072	32
737.249	30
738.426	27.5
739.602	25.5
740.777	27
741.953	25.5
743.128	26.5
744.303	29
745.477	26.5
746.651	29
747.826	24
749	30.5
750.174	28
751.348	25.5
752.522	27
753.696	30.5
754.869	26.5
756.043	23.5
757.216	25
758.389	25.5
759.561	26
760.732	31
761.905	25
763.077	24
764.249	27.5
765.421	28
766.592	25
767.762	29.5
768.934	29.5
770.105	27
771.275	29
772.446	24.5
773.615	29
774.786	27.5
775.956	28
777.126	25
778.294	25.5
779.464	27
780.633	29
781.801	30
782.97	30.5
784.139	31.5
785.306	29.5
786.475	33.5
787.643	29.5
788.81	29
789.978	33
791.146	35
792.312	34
793.479	28
794.647	25
795.812	30
796.979	26
798.144	30.5
799.311	26.5
800.477	26.5
801.642	26
802.808	29.5
803.972	29.5
805.138	26
806.302	29.5
807.467	24
808.631	30
809.796	27
810.959	27
812.124	27
813.287	27
814.451	27.5
815.614	25.5
816.777	28.5
817.94	26.5
819.102	29.5
820.265	23.5
821.427	26.5
822.59	26.5
823.751	30.5
824.912	26
826.074	29
827.235	24
828.397	27
829.558	26.5
830.718	31.5
831.879	28
833.039	25.5
834.199	27
835.359	29
836.519	29
837.679	26.5
838.838	28
839.998	29
841.156	29
842.315	25
843.473	28.5
844.633	27
845.791	25.5
846.948	29
848.106	27
849.263	29.5
850.422	27.5
851.579	27
852.736	27
853.892	28
855.049	27
856.205	27
857.363	26
858.519	25
859.674	26
860.83	28
861.986	31
863.141	30
864.296	29
865.451	29.5
866.605	33
867.76	28
868.914	27.5
870.069	26
871.224	25
872.378	24
873.531	25.5
874.685	31
875.838	28.5
876.991	24.5
878.144	27.5
879.296	27.5
880.448	25.5
881.6	32
882.753	24.5
883.905	28
885.057	26
886.208	28
887.36	22.5
888.511	27
889.662	23
890.813	25
891.964	24.5
893.113	27
894.264	30
895.414	25
896.564	27
897.714	30
898.864	28
900.012	26.5
901.161	26.5
902.31	27.5
903.459	26
904.607	25
905.756	27.5
906.904	25
908.052	28.5
909.199	26
910.347	26.5
911.495	29.5
912.643	26
913.789	24.5
914.936	25
916.083	24.5
917.229	26.5
918.375	30.5
919.522	25
920.667	24.5
921.813	27
922.959	30.5
924.104	26
925.249	28
926.393	24.5
927.539	26
928.684	26
929.827	26.5
930.972	28
932.115	23
933.26	25.5
934.403	27
935.547	24
936.689	30
937.833	26
938.975	26.5
940.119	22
941.26	27
942.404	26
943.545	23
944.688	25
945.829	25.5
946.971	27
948.112	24.5
949.253	28
950.394	21.5
951.535	24
952.676	25.5
953.816	27.5
954.956	29
956.097	25.5
957.236	24.5
958.377	25
959.516	26
960.655	25
961.793	24.5
962.933	25
964.071	24
965.21	30
966.349	25.5
967.487	23.5
968.624	25.5
969.762	30.5
970.901	28.75
972.038	27
973.175	25
974.311	26
975.449	28.5
976.586	25.5
977.722	25
978.858	24.5
979.994	27
981.131	23.5
982.267	28
983.402	30
984.537	24
985.672	22.5
986.807	24
987.942	28
989.076	23
990.211	23.5
991.346	26
992.48	24
993.614	26.5
994.748	28.5
995.881	27
997.014	24.5
998.148	24.5
999.28	26
1000.41	23.5
1001.55	22.5
1002.68	25
1003.81	26
1004.94	22
1006.07	28
1007.21	25
1008.34	29
1009.47	27
1010.6	22.5
1011.73	23
1012.86	25
1013.99	25
1015.12	26.5
1016.25	24
1017.38	26.5
1018.51	25.5
1019.64	24
1020.77	23.5
1021.9	28
1023.03	24.5
1024.16	29
1025.29	23
1026.42	26.5
1027.54	25
1028.67	22.5
1029.8	24.5
1030.93	24.5
1032.06	23
1033.18	23.5
1034.31	20.5
1035.44	25.5
1036.56	25
1037.69	25.5
1038.82	25.5
1039.94	24
1041.07	25
1042.2	26
1043.32	24.5
1044.45	23
1045.57	25
1046.7	25.5
1047.82	26.5
1048.95	24
1050.07	27.5
1051.2	26.5
1052.32	28
1053.45	25
1054.57	19.5
1055.69	24
1056.82	20
1057.94	26
1059.06	26.5
1060.19	26
1061.31	22
1062.43	25.5
1063.55	25.5
1064.68	27.5
1065.8	25
1066.92	24
1068.04	21
1069.16	22
1070.28	24.5
1071.41	23
1072.53	27.5
1073.65	24
1074.77	26.5
1075.89	26
1077.01	23
1078.13	24
1079.25	28
1080.37	25
1081.49	25.5
1082.61	26
1083.73	24
1084.85	26
1085.96	26
1087.08	23
1088.2	23
1089.32	21
1090.44	26
1091.56	25
1092.67	22.5
1093.79	22.5
1094.91	23
1096.03	28
1097.14	24
1098.26	24
1099.38	23
1100.49	23
1101.61	25.5
1102.73	26
1103.84	23.5
1104.96	27
1106.07	25
1107.19	26
1108.3	25.5
1109.42	26
1110.53	27
1111.65	23
1112.76	22.5
1113.88	28.5
1114.99	28.5
1116.1	24.5
1117.22	21
1118.33	22.5
1119.44	27
1120.56	31.5
1121.67	29.5
1122.78	23
1123.9	24
1125.01	22.5
1126.12	23
1127.23	17.5
1128.34	23
1129.46	25.5
1130.57	21.5
1131.68	24
1132.79	18
1133.9	22
1135.01	25.5
1136.12	23.5
1137.23	20
1138.34	23.5
1139.45	24
1140.56	25
1141.67	23
1142.78	22.5
1143.89	24.5
1145	25
1146.11	24
1147.22	22.5
1148.33	28
1149.44	25
1150.54	21.5
1151.65	25
1152.76	23
1153.87	21
1154.97	27.5
1156.08	28
1157.19	26
1158.3	23.5
1159.4	23
1160.51	22
1161.62	25.5
1162.72	28.5
1163.83	28
1164.93	25
1166.04	24.5
1167.15	24.5
1168.25	26
1169.36	26
1170.46	24
1171.57	24.5
1172.67	22.5
1173.78	25
1174.88	26
1175.98	24.5
1177.09	22.5
1178.19	24
1179.3	25.5
1180.4	24
1181.5	26
1182.61	25.5
1183.71	20.5
1184.81	26.5
1185.91	22.5
1187.02	23.5
1188.12	25
1189.22	25.5
1190.32	25
1191.42	26
1192.53	25.5
1193.63	24
1194.73	20.5091
1195.83	24.9662
1196.93	21.1024
1198.03	25.0266
1199.13	25.4689
1200.23	24.5008
1201.33	23.2017
1202.43	23.5804
1203.53	26.2587
1204.63	20.467
1205.73	24.6297
1206.83	22.0918
1207.93	24.2386
1209.02	20.5463
1210.12	24.4091
1211.22	25.7892
1212.32	23.1231
1213.42	22.6015
1214.52	25.0743
1215.61	25.5252
1216.71	22.1963
1217.81	23.6044
1218.91	25.5222
1220	23.6578
1221.1	25.1812
1222.2	21.0912
1223.29	25.6584
1224.39	23.7744
1225.49	22.393
1226.58	24.5276
1227.68	22.0645
1228.77	23.0108
1229.87	23.9469
1230.96	21.4881
1232.06	24.4152
1233.15	24.9462
1234.25	20.8859
1235.34	23.8104
1236.44	24.1598
1237.53	23.2915
1238.63	25.3527
1239.72	25.4159
1240.81	22.6019
1241.91	23.0584
1243	23.6394
1244.09	24.3475
1245.19	22.522
1246.28	24.0858
1247.37	22.823
1248.46	22.7859
1249.56	23.7479
1250.65	24.5071
1251.74	23.9954
1252.83	25.1738
1253.92	25.0708
1255.01	22.0678
1256.11	23.0801
1257.2	25.2644
1258.29	25.3504
1259.38	26.0164
1260.47	25.4684
1261.56	23.6118
1262.65	23.5861
1263.74	25.8122
1264.83	24.9374
1265.92	26.437
1267.01	25.9354
1268.1	23.3219
1269.19	25.8093
1270.27	24.2299
1271.36	24.8999
1272.45	24.034
1273.54	23.0147
1274.63	24.9514
1275.72	25.7689
1276.8	23.0743
1277.89	24.7844
1278.98	26.4684
1280.07	24.0004
1281.15	21.9151
1282.24	24.209
1283.33	21.3316
1284.41	21.7995
1285.5	23.3019
1286.59	23.5542
1287.67	24.2645
1288.76	25.1066
1289.84	24.0174
1290.93	24.3519
1292.01	21.7847
1293.1	24.4321
1294.19	23.0283
1295.27	21.9022
1296.35	21.9461
1297.44	23.7088
1298.52	23.7886
1299.61	22.8785
1300.69	25.43
1301.78	22.6947
1302.86	24.4456
1303.94	24.7373
1305.03	24.7915
1306.11	25.6974
1306.4	26
1307.49	25.5
1308.57	24
1309.66	23
1310.75	22
1311.84	26
1312.92	26.5
1314.01	30
1315.1	24
1316.19	24
1317.27	24
1318.36	22.5
1319.45	20
1320.53	25.5
1321.62	23.5
1322.7	24.5
1323.79	23
1324.88	24.5
1325.96	24
1327.05	26
1328.13	25.5
1329.21	27.5
1330.3	24.5
1331.38	23
1332.47	24.5
1333.55	24
1334.64	24.5
1335.72	25.5
1336.8	25
1337.89	25
1338.97	30
1340.05	24
1341.14	22.5
1342.22	28.5
1343.3	24
1344.39	22.5
1345.47	24
1346.55	23.5
1347.63	25.5
1348.71	23
1349.79	24
1350.88	22.5
1351.96	23
1353.04	23.5
1354.12	23.5
1355.2	24.5
1356.28	26
1357.36	21.5
1358.44	24.5
1359.52	24
1360.6	24.5
1361.68	23
1362.76	25.5
1363.84	22
1364.92	24
1366	25.5
1367.08	25
1368.16	25
1369.23	24
1370.31	23
1371.39	24
1372.47	24.5
1373.55	23
1374.62	21.5
1375.7	27
1376.78	22.5
1377.85	25.5
1378.93	22
1380.01	24
1381.09	24.5
1382.16	25
1383.24	24
1384.31	25
1385.39	24
1386.47	25.5
1387.54	22
1388.62	25.5
1389.69	23
1390.77	28.5
1391.84	25.5
1392.92	23.5
1393.99	26
1395.06	27.5
1396.14	25.5
1397.21	29.5
1398.29	30
1399.36	27
1400.43	27
1401.51	25
1402.58	26
1403.65	27
1404.73	28.5
1405.8	28.5
1406.87	31.5
1407.94	27.5
1409.02	26.5
1410.09	27.5
1411.16	29.5
1412.23	28
1413.3	31
1414.37	33
1415.45	30.5
1416.52	31
1417.59	27
1418.66	25
1419.73	26.5
1420.8	32
1421.87	30
1422.94	27
1424.01	25
1425.08	29
1426.15	27.5
1427.22	25.5
1428.29	28
1429.35	29
1430.42	27
1431.49	28
1432.56	22.5
1433.63	26.5
1434.7	28
1435.77	20.5
1436.83	25.5
1437.9	23
1438.97	23
1440.04	23
1441.1	27
1442.17	28.5
1443.24	27.5
1444.3	25.5
1445.37	26
1446.44	30
1447.5	28
1448.57	31
1449.63	24
1450.7	21.5
1451.76	24
1452.83	23.5
1453.89	23.5
1454.96	24
1456.02	23
1457.09	24.5
1458.15	24.5
1459.22	23.5
1460.28	25
1461.34	24
1462.41	26
1463.47	27.5
1464.54	27.5
1465.6	24
1466.66	20.5
1467.72	23.5
1468.79	21
1469.85	28
1470.91	27
1471.97	24.5
1473.04	24.5
1474.1	23
1475.16	24
1476.22	22
1477.28	28.5
1478.34	27
1479.4	24.5
1480.47	26.5
1481.53	26.5
1482.59	23
1483.65	22
1484.71	25
1485.77	24.5
1486.83	24.5
1487.89	27
1488.95	24
1490.01	25.5
1491.07	27
1492.12	25.5
1493.18	26.5
1494.24	25.5
1495.3	25.5
1496.36	26.5
1497.42	25
1498.47	24.5
1499.53	26.5
1500.59	29.5
1501.65	19
1502.7	27
1503.76	24
1504.82	27
1505.88	25
1506.93	29
1507.99	25
1509.05	25
1510.1	27.5
1511.16	22.5
1512.21	26
1513.27	22
1514.32	24
1515.38	24
1516.43	24.5
1517.49	25.5
1518.54	27
1519.6	24.5
1520.65	24
1521.71	25
1522.76	25.5
1523.82	26
1524.87	25.5
1525.92	24
1526.98	27
1528.03	27.5
1529.08	25.5
1530.14	25
1531.19	29.5
1532.24	27
1533.3	22.5
1534.35	24
1535.4	25.5
1536.45	24
1537.5	27
1538.56	24.5
1539.61	25
1540.66	21.5
1541.71	27.5
1542.76	24.5
1543.81	27
1544.86	26
1545.91	23
1546.96	25
1548.01	25.5
1549.06	27.5
1550.11	24
1551.16	27.5
1552.21	21.5
1553.26	25.5
1554.31	27
1555.36	24.5
1556.41	27
1557.46	25.5
1558.51	24.5
1559.55	29.5
1560.6	30
1561.65	25
1562.7	23
1563.75	26.5
1564.79	26.5
1565.84	25
1566.89	28.5
1567.94	31
1568.98	25
1570.03	31
1571.07	28.5
1572.12	27
1573.17	24
1574.21	24.5
1575.26	22
1576.31	25
1577.35	22.5
1578.4	26.5
1579.44	26.5
1580.49	28
1581.53	28.5
1582.58	23
1583.62	22
1584.67	26
1585.71	26
1586.75	23
1587.8	23.5
1588.84	20
1589.89	25.5
1590.93	19.5
1591.97	23.5
1593.02	21
1594.06	24
1595.1	27.5
1596.14	23
1597.19	25
1598.23	25.5
1599.27	21.5
1600.31	22
1601.35	27
1602.4	22.5
1603.44	28
1604.48	27
1605.52	26
1606.56	26.5
1607.6	29
1608.64	24.5
1609.68	24
1610.72	21
1611.76	26
1612.8	30
1613.84	28
1614.88	23
1615.92	25
1616.96	21.5
1618	25.5
1619.04	22.5
1620.08	23.5
1621.12	24.5
1622.16	24
1623.19	28.5
1624.23	25.5
1625.27	22.5
1626.31	24.5
1627.35	22.5
1628.38	23.5
1629.42	24
1630.46	27
1631.5	23
1632.53	23.5
1633.57	25
1634.61	24
1635.64	22.5
1636.68	21
1637.71	29.5
1638.75	25.5
1639.79	26
1640.82	24.5
1641.86	24.5
1642.89	24
1643.93	25.5
1644.96	24.5
1646	24
1647.03	27.5
1648.07	27.5
1649.1	26.5
1650.14	25.5
1651.17	25
1652.2	28.5
1653.24	25
1654.27	24
1655.3	24.5
1656.34	26.5
1657.37	23.5
1658.4	27
1659.44	19
1660.47	27.5
1661.5	26
1662.53	24.5
1663.57	22
1664.6	25
1665.63	26
1666.66	26.5
1667.69	24
1668.72	28.5
1669.75	21.5
1670.79	27
1671.82	28
1672.85	26
1673.88	22.5
1674.91	26.5
1675.94	29
1676.97	24
1678	25.5
1679.03	24.5
1680.06	26
1681.09	28
1682.11	24.5
1683.14	28.5
1684.17	24.5
1685.2	27
1686.23	25
1687.26	28
1688.29	23.5
1689.32	21.5
1690.34	26.5
1691.37	26.5
1692.4	26.5
1693.43	27
1694.45	25
1695.48	24
1696.51	22.5
1697.53	25.5
1698.56	22
1699.59	24
1700.61	20.5
1701.64	25
1702.66	25
1703.69	25.5
1704.72	21.5
1705.74	22
1706.77	26.5
1707.79	26.5
1708.82	22.5
1709.84	22
1710.87	25
1711.89	24
1712.92	25
1713.94	22.5
1714.96	27
1715.99	26
1717.01	23
1718.04	23
1719.06	23
1720.08	27
1721.11	25.5
1722.13	23.5
1723.15	25
1724.17	25.5
1725.2	25
1726.22	23.5
1727.24	27.5
1728.26	27.5
1729.28	24.5
1730.31	24
1731.33	27
1732.35	24.5
1733.37	23.5
1734.39	24.5
1735.41	28
1736.43	29
1737.45	25.5
1738.47	27
1739.49	24.5
1740.51	24.5
1741.53	21.5
1742.55	25.5
1743.57	24
1744.59	24.5
1745.61	22.5
1746.63	24.5
1747.65	22
1748.67	29.5
1749.69	23
1750.71	25
1751.72	23
1752.74	27
1753.76	25
1754.78	27
1755.8	23
1756.81	29.5
1757.83	24.5
1758.85	25
1759.86	17
1760.88	28
1761.9	21.5
1762.91	25.5
1763.93	28
1764.95	23
1765.96	25
1766.98	26
1768	21.5
1769.01	26
1770.03	23
1771.04	20.5
1772.06	23
1773.07	24.5
1774.09	22.5
1775.1	24
1776.12	25
1777.13	26
1778.14	26.5
1779.16	27.5
1780.17	21
1781.19	24.5
1782.2	22.5
1783.21	26
1784.23	26.5
1785.24	22
1786.25	27.5
1787.27	26.5
1788.28	26
1789.29	25
1790.3	24
1791.32	20.5
1792.33	27
1793.34	28.5
1794.35	24
1795.36	25.5
1796.37	24
1797.38	25
1798.4	24
1799.41	22
1800.42	23
1801.43	21.5
1802.44	28
1803.45	22.5
1804.46	24.5
1805.47	23.5
1806.48	20.5
1807.49	21.5
1808.5	21
1809.51	27
1810.52	25
1811.53	23
1812.53	25.5
1813.54	26
1814.55	23.5
1815.56	25
1816.57	23
1817.58	23
1818.58	21.5
1819.59	24
1820.6	24
1821.61	17
1822.61	24.5
1823.62	25
1824.63	23.5
1825.64	22
1826.64	22.5
1827.65	25.5
1828.66	24
1829.66	25
1830.67	20
1831.67	20
1832.68	26
1833.68	22
1834.69	25
1835.7	28
1836.7	26
1837.71	25
1838.71	23
1839.71	28
1840.72	20.5
1841.72	24
1842.73	28.5
1843.73	26
1844.74	20
1845.74	24.5
1846.74	26
1847.75	23.5
1848.75	24.5
1849.75	25.5
1850.76	20.5
1851.76	22.5
1852.76	24
1853.76	26.5
1854.77	23
1855.77	27.5
1856.77	24.5
1857.77	27
1858.77	24.5
1859.78	19.5
1860.78	26.5
1861.78	25
1862.78	25
1863.78	23
1864.78	26
1865.78	22
1866.78	26
1867.78	27
1868.78	25
1869.78	24.5
1870.78	21
1871.78	22.5
1872.78	21
1873.78	25.5
1874.78	26
1875.78	20
1876.78	25.5
1877.78	27
1878.78	24.5
1879.77	27.5
1880.77	25
1881.77	25
1882.77	23
1883.77	26
1884.76	24
1885.76	22.5
1886.76	24.5
1887.76	22.5
1888.75	22
1889.75	26
1890.75	23.5
1891.74	24
1892.74	22
1893.74	27
1894.73	26
1895.73	20
1896.72	20
1897.72	27.5
1898.72	25
1899.71	23.5
1900.71	24.5
1901.7	27
1902.7	22
1903.69	25
1904.69	24
1905.68	24
1906.67	24.5
1907.67	27.5
1908.66	27
1909.66	22.5
1910.65	23
1911.64	22.5
1912.64	22.5
1913.63	25
1914.62	18.5
1915.62	27.5
1916.61	25
1917.6	24.5
1918.59	25
1919.59	21.5
1920.58	23
1921.57	25.5
1922.56	23.5
1923.55	26
1924.55	21
1925.54	25.5
1926.53	25.5
1927.52	24
1928.51	24
1929.5	22
1930.49	23
1931.48	24
1932.47	24.5
1933.46	23
1934.45	21.5
1935.44	24
1936.43	21
1937.42	26.5
1938.41	25.5
1939.4	23
1940.39	28.5
1941.38	26.5
1942.37	25.5
1943.36	21.5
1944.34	26.5
1945.33	24.5
1946.32	24.5
1947.31	23.5
1948.3	23.25
1949.28	21
1950.27	21.5
1951.26	21
1952.25	23
1953.23	23.5
1954.22	22.5
1955.21	24
1956.2	25.5
1957.18	22.5
1958.17	24
1959.15	22.5
1960.14	21.5
1961.13	24
1962.11	22.5
1963.1	24.5
1964.08	19
1965.07	21
1966.05	20.5
1967.04	24.5
1968.02	26
1969.01	31.5
1969.99	25.5
1970.98	24
1971.96	23.5
1972.94	28
1973.93	25
1974.91	22.5
1975.9	21
1976.88	21
1977.86	20
1978.85	27
1979.83	24.5
1980.81	23.5
1981.8	24.5
1982.78	22.5
1983.76	26
1984.74	22.5
1985.72	24.5
1986.71	26.5
1987.69	23
1988.67	26.5
1989.65	24
1990.63	24
1991.61	25
1992.6	21.5
1993.58	22
1994.56	26.5
1995.54	22
1996.52	22
1997.5	20.5
1998.48	26
1999.46	19.5
2000.44	24.5
2001.42	18
2002.4	26
2003.38	21.5
2004.36	21
2005.34	24.5
2006.32	22
2007.29	20
2008.27	26
2009.25	23.5
2010.23	23.5
2011.21	19
2012.19	22.5
2013.16	26
2014.14	22.5
2015.12	20.5
2016.1	24.5
2017.07	23
2018.05	24.5
2019.03	25
2020	22
2020.98	21
2021.96	20
2022.93	22.5
2023.91	23
2024.89	24
2025.86	24
2026.84	26
2027.81	25
2028.79	25.5
2029.77	21.5
2030.74	20.5
2031.72	25
2032.69	23
2033.67	25
2034.64	25.5
2035.61	19.5
2036.59	22.5
2037.56	23
2038.54	26
2039.51	23
2040.48	23.5
2041.46	22.5
2042.43	22
2043.41	24
2044.38	24.5
2045.35	21.5
2046.32	19.5
2047.3	24.5
2048.27	24.5
2049.24	23.5
2050.21	21.5
2051.19	26.5
2052.16	26.5
2053.13	22.5
2054.1	21.5
2055.07	20.5
2056.04	22
2057.02	20
2057.99	21
2058.96	22
2059.93	21
2060.9	24
2061.87	23.5
2062.84	25.5
2063.81	22.5
2064.78	24.5
2065.75	26
2066.72	21.5
2067.69	21
2068.66	19.5
2069.63	24
2070.6	26.5
2071.57	24.5
2072.53	23
2073.5	23
2074.47	23.5
2075.44	18
2076.41	25
2077.38	19
2078.34	25
2079.31	24
2080.28	25.5
2081.25	25.5
2082.21	25
2083.18	21
2084.15	22
2085.12	21
2086.08	24
2087.05	24
2088.02	21.5
2088.98	23.5
2089.95	21.5
2090.91	25
2091.88	20.5
2092.85	22
2093.81	20.5
2094.78	23.5
2095.74	26
2096.71	27.5
2097.67	21
2098.64	26
2099.6	25
2100.57	27
2101.53	20
2102.5	22.5
2103.46	25.5
2104.42	24.5
2105.39	23
2106.35	22.5
2107.31	21
2108.28	26
2109.24	22.5
2110.2	23.5
2111.17	24
2112.13	25
2113.09	21.5
2114.06	23
2115.02	21
2115.98	25.5
2116.94	27.5
2117.9	21
2118.86	21
2119.83	26
2120.79	22.5
2121.75	22.5
2122.71	24.5
2123.67	21
2124.63	22
2125.59	24
2126.55	21
2127.51	18.5
2128.48	20.5
2129.43	25
2130.4	23.5
2131.35	18
2132.31	17.5
2133.27	22
2134.23	25
2135.19	24
2136.15	21.5
2137.11	23.5
2138.07	24
2139.03	25
2139.99	23
2140.95	25
2141.9	22
2142.86	21.991
2143.82	21.0209
2144.78	24.0657
2145.74	22.5896
2146.69	23.4843
2147.65	20.675
2148.61	25.845
2149.56	24.2549
2150.52	22.8221
2151.48	22.2482
2152.44	22.8464
2153.39	24.0114
2154.35	23.239
2155.3	20.6022
2156.26	20.7675
2157.22	23.5965
2158.17	21.6442
2159.13	23.957
2160.08	22.0745
2161.04	21.3661
2161.99	21.6829
2162.95	22.8325
2163.9	23.3065
2164.86	18.7273
2165.81	22.3811
2166.77	22.3323
2167.72	20.5397
2168.68	23.4429
2169.63	21.1074
2170.58	22.3287
2171.54	19.3659
2172.49	22.2657
2173.44	23.1055
2174.4	22.4779
2175.35	21.7335
2176.3	23.0196
2177.26	22.9053
2178.21	20.1706
2179.16	23.979
2180.11	23.1917
2181.07	19.5756
2182.02	23.8648
2182.97	21.7312
2183.92	21.3494
2184.88	20.0706
2185.83	22.8039
2186.78	20.9199
2187.73	19.0999
2188.68	21.18
2189.63	21.1243
2190.58	22.0966
2191.53	21.8399
2192.48	23.9385
2193.43	20.9733
2194.38	21.4226
2195.33	23.1998
2196.28	22.2307
2197.23	17.4891
2198.18	22.7187
2199.13	22.3604
2200.08	20.8273
2201.03	22.502
2201.98	22.4092
2202.93	21.0124
2203.88	21.168
2204.83	23.2026
2205.78	20.5303
2206.72	21.517
2207.67	24.1875
2208.62	19.2274
2209.57	22.8396
2210.52	22.0614
2211.46	22.7624
2212.41	21.5245
2213.36	21.6015
2214.31	22.1433
2215.25	23.4746
2216.2	23.2239
2217.15	20.6418
2218.09	22.0854
2219.04	23.5265
2219.99	23.2375
2220.93	18.2966
2221.88	24.8734
2222.83	24.8971
2223.77	25.4053
2224.72	22.9771
2225.66	23.1546
2226.61	21.2423
2227.55	22.237
2228.5	20.5863
2229.44	21.6763
2230.39	21.1259
2231.33	24.9435
2232.28	25.2921
2233.22	24.9753
2234.17	23.0669
2235.11	22.8291
2236.05	20.567
2237	19.7852
2237.94	23.1329
2238.88	24.3872
2239.83	23.323
2240.04	23
2240.98	20
2241.93	29
2242.88	20.5
2243.83	22.5
2244.78	19.5
2245.72	22.5
2246.67	23
2247.62	20.5
2248.56	24
2249.51	21.5
2250.46	20.5
2251.4	24
2252.35	18
2253.3	19
2254.24	20
2255.19	19.5
2256.14	21.5
2257.08	23
2258.03	20.5
2258.97	27
2259.92	21.5
2260.86	25
2261.81	21.5
2262.75	21
2263.7	22
2264.64	21
2265.59	22.5
2266.53	24
2267.48	23
2268.42	23
2269.36	22
2270.31	22
2271.25	30.5
2272.19	21.5
2273.14	21
2274.08	21
2275.02	22.5
2275.97	19
2276.91	21
2277.85	23
2278.8	23
2279.74	25
2280.68	19
2281.62	22
2282.56	25
2283.51	22.5
2284.45	24.5
2285.39	22
2286.33	22.5
2287.27	19
2288.21	24.5
2289.15	24
2290.09	18.5
2291.04	19.5
2291.98	23.5
2292.92	21.5
2293.86	25.5
2294.8	21.5
2295.74	22
2296.68	22
2297.62	23.5
2298.56	24.5
2299.5	22.5
2300.44	22.5
2301.37	25
2302.31	19
2303.25	23.5
2304.19	23
2305.13	26
2306.07	23
2307.01	24.5
2307.94	22
2308.88	21.5
2309.82	24
2310.76	24.5
2311.7	26
2312.63	20
2313.57	21
2314.51	18
2315.44	22.5
2316.38	23
2317.32	26
2318.26	21
2319.19	23.5
2320.13	19.5
2321.06	24
2322	25.5
2322.94	26.5
2323.87	26
2324.81	22
2325.74	26
2326.68	22
2327.61	21
2328.55	22
2329.48	24
2330.42	24.5
2331.35	20.5
2332.29	26
2333.22	21
2334.16	25
2335.09	25.5
2336.02	23.5
2336.96	23.5
2337.89	18.5
2338.83	22
2339.76	23.5
2340.69	23
2341.63	21.5
2342.56	19
2343.49	25
2344.42	22.5
2345.36	25.5
2346.29	22.5
2347.22	22.5
2348.15	24.5
2349.09	23
2350.02	21
2350.95	25.5
2351.88	19.5
2352.81	21
2353.74	23.5
2354.68	23
2355.61	23
2356.54	26
2357.47	22
2358.4	25
2359.33	24
2360.26	23.5
2361.19	25
2362.12	20.5
2363.05	23
2363.98	22
2364.91	25
2365.84	22
2366.77	22.5
2367.7	22.5
2368.63	22
2369.56	23
2370.49	21.5
2371.41	24
2372.34	22.5
2373.27	23.5
2374.2	23
2375.13	20.5
2376.06	22.5
2376.98	23.5
2377.91	26
2378.84	22.5
2379.77	23.5
2380.69	21.5
2381.62	23
2382.55	23.5
2383.47	26
2384.4	28
2385.33	23
2386.25	23
2387.18	24.5
2388.11	19.5
2389.03	20.5
2389.96	22
2390.89	24.5
2391.81	22
2392.74	22.5
2393.66	26
2394.59	22.5
2395.51	24.5
2396.44	23.5
2397.36	23.5
2398.29	23
2399.21	22
2400.14	23
2401.06	23.5
2401.99	26.5
2402.91	23
2403.83	25
2404.76	23
2405.68	24
2406.6	26
2407.53	23
2408.45	21
2409.37	27
2410.3	26
2411.22	26.5
2412.14	22
2413.06	21
2413.99	22
2414.91	24.5
2415.83	23
2416.75	21.5
2417.68	26.5
2418.6	21.5
2419.52	22.5
2420.44	23
2421.36	25
2422.28	24.5
2423.2	24.5
2424.12	25
2425.05	24
2425.97	22
2426.89	23
2427.81	26
2428.73	23.5
2429.65	23.5
2430.57	21
2431.49	23.5
2432.41	22
2433.33	23.5
2434.25	22.5
2435.17	25
2436.08	25.5
2437	28
2437.92	23
2438.84	22
2439.76	24.5
2440.68	25.5
2441.6	25
2442.51	21.5
2443.43	23
2444.35	25
2445.27	25
2446.19	24.5
2447.1	18
2448.02	24
2448.94	21.5
2449.85	23
2450.77	24
2451.69	26
2452.61	20.5
2453.52	27
2454.44	23.5
2455.35	23
2456.27	24.5
2457.19	24.5
2458.1	23
2459.02	20
2459.94	21
2460.85	23
2461.77	22
2462.68	25
2463.6	23
2464.51	25.5
2465.43	23
2466.34	25.5
2467.25	24
2468.17	25.5
2469.08	24.5
2470	22.5
2470.91	21.5
2471.83	19.5
2472.74	23
2473.65	22
2474.57	22
2475.48	24
2476.39	24
2477.31	20.5
2478.22	23.5
2479.13	25.5
2480.04	22
2480.96	24
2481.87	24.5
2482.78	22
2483.69	24.5
2484.6	23
2485.52	26.5
2486.43	23
2487.34	26.5
2488.25	24
2489.16	22.5
2490.07	24.5
2490.99	21
2491.9	26
2492.81	20.5
2493.72	21
2494.63	24
2495.54	24
2496.45	26.5
2497.36	23
2498.27	20.5
2499.18	25
2500.09	24.5
2501	24
2501.91	24
2502.82	23
2503.73	24
2504.63	21.5
2505.54	27.5
2506.45	23.5
2507.36	19.5
2508.27	24.5
2509.18	22.5
2510.09	22.5
2510.99	22.5
2511.9	24.5
2512.81	22
2513.72	21
2514.62	27
2515.53	25
2516.44	22
2517.35	21.5
2518.25	20
2519.16	21
2520.07	25.5
2520.97	25.5
2521.88	23
2522.79	26
2523.69	22
2524.6	25
2525.51	20
2526.41	20.5
2527.32	26
2528.22	25.5
2529.13	25.5
2530.03	27
2530.94	24
2531.84	25
2532.75	24
2533.65	21
2534.56	25
2535.46	26
2536.37	24.5
2537.27	26.5
2538.17	24.5
2539.08	22
2539.98	24
2540.89	28.5
2541.79	21
2542.69	27
2543.6	21.5
2544.5	24
2545.4	22
2546.31	21.5
2547.21	25
2548.11	22.5
2549.01	24
2549.92	24.5
2550.82	26.5
2551.72	21.5
2552.62	24
2553.52	21.5
2554.42	25.5
2555.33	20
2556.23	24.5
2557.13	22
2558.03	27
2558.93	23
2559.83	22.5
2560.73	22
2561.63	26.5
2562.53	22
2563.43	28.5
2564.33	25.5
2565.24	22
2566.13	22
2567.04	20
2567.93	25
2568.83	25.5
2569.73	24
2570.63	26
2571.53	21
2572.43	26
2573.33	24.5
2574.23	26.5
2575.13	23
2576.03	22
2576.92	24.5
2577.82	24
2578.72	26.5
2579.62	20.5
2580.52	23.5
2581.41	27
2582.31	22
2583.21	23
2584.11	24
2585	22.5
2585.9	23
2586.8	22
2587.69	24
2588.59	21
2589.49	23.5
2590.38	24
2591.28	23.5
2592.18	25
2593.07	29
2593.97	24
2594.86	24.5
2595.76	21.5
2596.66	25
2597.55	21
2598.45	23
2599.34	22
2600.24	25.5
2601.13	22
2602.03	23.5
2602.92	28
2603.81	23
2604.71	23.5
2605.6	24
2606.5	23.5
2607.39	25
2608.28	22.5
2609.18	24.5
2610.07	26.5
2610.97	21
2611.86	21.5
2612.75	24
2613.64	26.5
2614.54	22.5
2615.43	21
2616.32	26
2617.22	22
2618.11	23.5
2619	24.5
2619.89	20.5
2620.78	22.5
2621.68	25.5
2622.57	24.5
2623.46	25.5
2624.35	23
2625.24	26
2626.13	27
2627.02	22
2627.91	23.5
2628.81	20.5
2629.7	24.5
2630.59	23.5
2631.48	23
2632.37	23
2633.26	21.5
2634.15	23
2635.04	25.5
2635.93	26.5
2636.82	24.5
2637.71	26
2638.59	24
2639.48	19
2640.37	25.5
2641.26	23
2642.15	23
2643.04	22
2643.93	24
2644.82	27
2645.71	23
2646.59	25
2647.48	19
2648.37	23.5
2649.26	20.5
2650.15	24
2651.03	23.5
2651.92	24
2652.81	25
2653.69	26
2654.58	22.5
2655.47	23.5
2656.35	20.5
2657.24	24.5
2658.13	24.5
2659.01	26
2659.9	21
2660.79	22.5
2661.67	24
2662.56	23
2663.44	22
2664.33	24
2665.22	20.5
2666.1	25.5
2666.99	22.5
2667.87	25
2668.76	21
2669.64	24
2670.52	23
2671.41	23
2672.29	26
2673.18	23
2674.06	22
2674.95	21.5
2675.83	22
2676.71	26.5
2677.6	21.5
2678.48	24
2679.36	22.5
2680.25	27
2681.13	26
2682.01	23
2682.9	28
2683.78	21
2684.66	26
2685.55	24
2686.43	23
2687.31	23.5
2688.19	24
2689.07	25
2689.96	24
2690.84	24.5
2691.72	24
2692.6	22
2693.48	23
2694.36	24
2695.24	25.5
2696.12	22
2697	25.5
2697.89	26.5
2698.77	26.5
2699.65	24
2700.53	23
2701.41	20.5
2702.29	20.5
2703.17	26
2704.05	27.5
2704.93	23
2705.81	23
2706.69	24
2707.57	25.5
2708.44	24.5
2709.32	23
2710.2	24
2711.08	26
2711.96	23
2712.84	21.5
2713.72	28.5
2714.59	26.5
2715.47	20.5
2716.35	25.5
2717.23	23.5
2718.11	21.5
2718.98	25
2719.86	25
2720.74	27.5
2721.62	21
2722.49	22.5
2723.37	25
2724.25	26.5
2725.12	28
2726	20.5
2726.88	30.5
2727.75	19.5
2728.63	25
2729.51	26.5
2730.38	25
2731.26	20.5
2732.13	26.5
2733.01	25
2733.88	22
2734.76	27.5
2735.63	25
2736.51	26
2737.38	21
2738.26	24.5
2739.13	20
2740.01	23
2740.88	22.5
2741.76	24
2742.63	22
2743.5	24
2744.38	23
2745.25	22
2746.13	23.5
2747	22.5
2747.87	23.5
2748.75	26
2749.62	24.5
2750.49	23.5
2751.36	21
2752.24	26
2753.11	22.5
2753.98	27
2754.86	24
2755.73	22
2756.6	25
2757.47	23
2758.34	22.5
2759.22	26
2760.09	22
2760.96	24.5
2761.83	23.5
2762.7	27
2763.57	25.5
2764.44	23
2765.31	24.5
2766.18	26.5
2767.06	20.5
2767.93	22.5
2768.8	23
2769.67	25.5
2770.54	20.5
2771.41	24
2772.28	21
2773.15	24
2774.02	23.5
2774.89	22
2775.75	23.5
2776.62	26
2777.49	25
2778.36	27
2779.23	27.5
2780.1	25.5
2780.97	28.5
2781.84	24.5
2782.71	24
2783.57	25
2784.44	26.5
2785.31	23.5
2786.18	29
2787.04	24
2787.91	24.5
2788.78	27
2789.65	22
2790.51	24
2791.38	26.5
2792.25	26.5
2793.12	25
2793.98	25
2794.85	25
2795.72	24.5
2796.58	24.5
2797.45	24.5
2798.31	25
2799.18	26
2800.05	22.5
2800.91	25
2801.78	24.5
2802.64	22.5
2803.51	26.5
2804.37	26
2805.24	23
2806.1	26
2806.97	26.5
2807.83	23.5
2808.7	25
2809.56	29
2810.43	22
2811.29	25
2812.15	25.5
2813.02	22
2813.88	25.5
2814.75	24
2815.61	21.5
2816.47	23.5
2817.34	21.5
2818.2	25
2819.06	27.5
2819.92	23
2820.79	23
2821.65	25.5
2822.51	24
2823.37	29.5
2824.24	19.5
2825.1	24.5
2825.96	25
2826.82	25.5
2827.69	25.5
2828.55	25.5
2829.41	27.5
2830.27	25.5
2831.13	24.5
2831.99	24
2832.85	23.5
2833.71	28
2834.58	26.5
2835.44	26
2836.3	26
2837.16	26
2838.02	22
2838.88	20.5
2839.74	25
2840.6	23.5
2841.46	28.5
2842.32	24
2843.18	26
2844.04	22
2844.9	26
2845.75	27
2846.61	23.5
2847.47	26.5
2848.33	27.5
2849.19	25.5
2850.05	25
2850.91	25.5
2851.77	26.5
2852.62	24.5
2853.48	20
2854.34	25
2855.2	28
2856.06	27
2856.91	28
2857.77	24
2858.63	23
2859.48	25
2860.34	28.5
2861.2	29.5
2862.06	24
2862.91	28
2863.77	26.5
2864.63	27.5
2865.48	24.5
2866.34	29
2867.19	28
2868.05	27.5
2868.91	27
2869.76	28.5
2870.62	29.5
2871.47	27.5
2872.33	27.5
2873.18	26.5
2874.04	26
2874.89	30.5
2875.75	28
2876.6	28.5
2877.46	29
2878.31	30.5
2879.17	29.5
2880.02	29.5
2880.88	33.5
2881.73	30
2882.58	30
2883.44	31
2884.29	32.5
2885.14	33.5
2886	29
2886.85	30
2887.7	33
2888.56	33.5
2889.41	30.5
2890.26	35
2891.12	35
2891.97	37.5
2892.82	41
2893.67	38.5
2894.52	42.5
2895.38	41
2896.23	43
2897.08	49.5
2897.93	51
2898.78	54
2899.64	49
2900.49	53
2901.34	56.5
2902.19	58.5
2903.04	62
2903.89	61
2904.74	64
2905.59	65
2906.44	66
2907.29	68
2908.14	68.5
2908.99	62.5
2909.84	61
2910.69	61.5
2911.54	52.5
2912.39	54.5
2913.24	55.5
2914.09	54.5
2914.94	42.5
2915.79	43
2916.64	38.5
2917.49	41.5
2918.34	39
2919.18	34.5
2920.03	38
2920.88	32
2921.73	31.5
2922.58	36
2923.42	31.5
2924.27	32
2925.12	33
2925.97	31.5
2926.82	28
2927.66	29
2928.51	27
2929.36	25.5
2930.2	27
2931.05	27
2931.9	29
2932.74	28.5
2933.59	31.5
2934.44	26
2935.28	29
2936.13	24.5
2936.98	24.5
2937.82	29
2938.67	23
2939.51	25.5
2940.36	26
2941.2	27.5
2942.05	26.5
2942.9	29.5
2943.74	26
2944.58	26.5
2945.43	27.5
2946.27	25
2947.12	25
2947.96	28.5
2948.81	26
2949.65	26.5
2950.5	29.5
2951.34	32.5
2952.18	28
2953.03	24
2953.87	30
2954.71	32.5
2955.56	28
2956.4	26.5
2957.24	36
2958.09	32
2958.93	33
2959.77	40
2960.62	34
2961.46	40
2962.3	37
2963.14	35.5
2963.98	44
2964.83	46
2965.67	40.5
2966.51	40
2967.35	43
2968.19	41.5
2969.04	44.5
2969.88	35
2970.72	36
2971.56	35.5243
2972.4	37.9464
2973.24	35.957
2974.08	34.4585
2974.92	30.6799
2975.76	30.0524
2976.6	35.1277
2977.44	32.8607
2978.28	26.6163
2979.12	29.4099
2979.96	27.1188
2980.8	30.2767
2981.64	29.0994
2982.48	27.153
2983.32	27.6623
2984.16	27.4168
2985	28.1393
2985.84	29.6628
2986.68	22.5757
2987.52	27.9491
2988.35	24.8627
2989.19	26.262
2990.03	25.6571
2990.87	23.8963
2991.71	25.3361
2992.55	24.785
2993.38	23.2871
2994.22	24.3252
2995.06	27.9971
2995.9	25.8373
2996.73	26.1644
2997.57	23.316
2998.41	23.7918
2999.25	23.5327
3000.08	23.5112
3000.92	22.7894
3001.76	22.9046
3002.59	23.9359
3003.43	24.714
3004.27	23.7729
3005.1	22.9935
3005.94	21.6109
3006.78	24.7714
3007.61	22.8082
3008.45	24.1811
3009.28	22.5542
3010.12	24.5211
3010.95	21.6405
3011.79	22.9004
3012.62	21.1486
3013.46	22.0124
3014.29	21.8309
3015.13	20.3207
3015.96	21.9853
3016.8	24.2536
3017.63	24.0807
3018.47	21.9115
3019.3	20.7202
3020.14	23.4146
3020.97	23.0656
3021.8	21.7557
3022.64	23.1573
3023.47	24.2871
3024.3	23.4927
3025.14	24.3131
3025.97	22.6665
3026.8	23.026
3027.64	23.2076
3028.47	23.5676
3029.3	23.3264
3030.14	21.6059
3030.97	20.7716
3031.8	21.4701
3032.63	22.8148
3033.46	23.0659
3034.3	22.7712
3035.13	22.2153
3035.96	22.9448
3036.79	21.9965
3037.62	22.1132
3038.46	22.4717
3039.29	23.9175
3040.12	23.0871
3040.95	22.5617
3041.78	21.9267
3042.61	22.0177
3043.44	22.2101
3044.27	21.4525
3045.1	24.4559
3045.93	24.4052
3046.76	22.6949
3047.59	21.3371
3048.42	21.2088
3049.25	22.5677
3050.08	21.5358
3050.91	24.4818
3051.74	21.3918
3052.57	19.4618
3053.4	25.051
3054.23	25.7278
3055.06	22.5228
3055.89	21.2249
3056.72	21.0616
3057.32	22.5
3058.15	25.5
3058.98	23
3059.82	22.5
3060.65	23
3061.48	23
3062.31	24.5
3063.15	27.5
3063.98	24
3064.81	23.5
3065.64	20.5
3066.48	22.5
3067.31	23
3068.14	23
3068.97	24.5
3069.8	25
3070.63	20
3071.47	19
3072.3	19
3073.13	18.5
3073.96	21
3074.79	25.5
3075.62	22.5
3076.45	23
3077.28	21.5
3078.11	25.5
3078.94	23
3079.77	24
3080.6	26
3081.43	21
3082.26	26.5
3083.09	23
3083.92	21
3084.75	24.5
3085.58	25.5
3086.41	22
3087.24	23.5
3088.07	25.5
3088.9	17
3089.73	23
3090.55	21
3091.38	21.5
3092.21	21
3093.04	22.5
3093.87	22
3094.7	18
3095.52	25.5
3096.35	22.5
3097.18	21
3098.01	23
3098.84	21.5
3099.66	24.5
3100.49	23
3101.32	21
3102.14	25
3102.97	21.5
3103.8	24
3104.62	18
3105.45	24
3106.28	21.5
3107.1	22
3107.93	21.5
3108.76	23.5
3109.58	22
3110.41	20
3111.23	26.5
3112.06	22
3112.89	23.5
3113.71	22.5
3114.54	24
3115.36	22.5
3116.19	23.5
3117.01	23
3117.84	27
3118.66	22
3119.49	23
3120.31	23.5
3121.13	23.5
3121.96	24.5
3122.78	24
3123.61	26.5
3124.43	21
3125.25	27
3126.08	23
3126.9	21
3127.73	21.5
3128.55	25
3129.37	23.5
3130.19	24
3131.02	21
3131.84	19
3132.66	20
3133.49	23
3134.31	23
3135.13	21
3135.95	21
3136.78	24
3137.6	20
3138.42	25
3139.24	23
3140.06	27
3140.88	20
3141.71	17.5
3142.53	20
3143.35	24.5
3144.17	20.5
3144.99	22
3145.81	19
3146.63	23
3147.45	23
3148.27	22
3149.09	23.5
3149.91	19
3150.73	24.5
3151.56	27
3152.37	22.5
3153.2	21
3154.01	24.5
3154.83	20
3155.65	23.5
3156.47	24
3157.29	25
3158.11	21
3158.93	20.5
3159.75	27.5
3160.57	22
3161.39	20
3162.21	21
3163.02	24
3163.84	26
3164.66	20
3165.48	22.5
3166.3	25
3167.11	23.5
3167.93	24.5
3168.75	25.5
3169.57	29
3170.39	19.5
3171.2	18
3172.02	24
3172.84	22
3173.65	23
3174.47	21.5
3175.29	24.5
3176.1	24.5
3176.92	24
3177.74	26.5
3178.55	19
3179.37	21
3180.19	23.5
3181	25.5
3181.82	23.5
3182.63	26.5
3183.45	22.5
3184.27	23
3185.08	23
3185.9	21.5
3186.71	18
3187.53	23
3188.34	24
3189.16	22.5
3189.97	22.5
3190.79	21
3191.6	21.5
3192.41	24.5
3193.23	22.5
3194.04	20
3194.86	22
3195.67	24.5
3196.48	24.5
3197.3	24.5
3198.11	25.5
3198.93	23.5
3199.74	19
3200.55	22.5
3201.36	25
3202.18	20.5
3202.99	23
3203.8	23
3204.62	26.5
3205.43	25
3206.24	27
3207.05	21.5
3207.87	27
3208.68	25.5
3209.49	24
3210.3	24
3211.11	25.5
3211.93	19
3212.74	23
3213.55	28
3214.36	26.5
3215.17	24
3215.98	27
3216.79	23.5
3217.6	22
3218.41	25.5
3219.22	24
3220.03	22.5
3220.85	20.5
3221.66	22
3222.47	27.5
3223.28	22.5
3224.09	23.5
3224.9	23
3225.71	23
3226.52	20
3227.33	25
3228.13	24
3228.94	20
3229.75	27
3230.56	20
3231.37	23
3232.18	28
3232.99	23
3233.8	24
3234.61	24.5
3235.41	22
3236.22	20
3237.03	23
3237.84	25.5
3238.65	23.5
3239.45	23.5
3240.26	27
3241.07	24
3241.88	24.5
3242.68	19
3243.49	23.5
3244.3	20
3245.1	24.5
3245.91	26.5
3246.72	24
3247.53	21
3248.33	25.5
3249.14	24
3249.95	22
3250.75	21
3251.56	21.5
3252.36	22.5
3253.17	26.5
3253.97	22
3254.78	23
3255.59	23.5
3256.39	23
3257.2	23
3258	22.5
3258.81	22.5
3259.61	19
3260.42	22.5
3261.22	23
3262.03	22
3262.83	22.5
3263.64	24
3264.44	24
3265.24	23.5
3266.05	23
3266.85	22
3267.66	25
3268.46	24.5
3269.26	22
3270.07	22.5
3270.87	22.5
3271.67	22.5
3272.48	22
3273.28	22
3274.08	23
3274.89	23.5
3275.69	23.5
3276.49	24.5
3277.29	25.5
3278.1	20
3278.9	24
3279.7	20.5
3280.5	21.5
3281.3	22
3282.11	26
3282.91	20.5
3283.71	22.5
3284.51	25
3285.31	24.5
3286.11	24
3286.91	24
3287.72	21
3288.52	19.5
3289.32	25
3290.12	25.5
3290.92	26
3291.72	24
3292.52	24
3293.32	29
3294.12	23.5
3294.92	21.5
3295.72	22.5
3296.52	22.5
3297.32	23
3298.12	23.5
3298.92	23
3299.72	22.5
3300.52	22.5
3301.32	23
3302.12	24.5
3302.92	24
3303.71	26
3304.51	26
3305.31	25
3306.11	21
3306.91	21.5
3307.71	27
3308.5	22
3309.3	27
3310.1	22.5
3310.9	21.5
3311.7	20
3312.49	24.5
3313.29	26
3314.09	21
3314.89	25
3315.68	20.5
3316.48	20
3317.28	23.5
3318.07	23
3318.87	26.5
3319.67	20
3320.46	27.5
3321.26	23
3322.06	24
3322.85	20.5
3323.65	23
3324.44	25.5
3325.24	24
3326.04	25
3326.83	29
3327.63	25.5
3328.42	21.5
3329.22	26.5
3330.01	26
3330.81	24
3331.6	24
3332.4	24.5
3333.19	25
3333.99	22.5
3334.78	22.5
3335.58	21
3336.37	22.5
3337.17	23.5
3337.96	22
3338.75	21
3339.55	24.5
3340.34	25.5
3341.13	25.5
3341.93	21.5
3342.72	25
3343.51	24
3344.31	25
3345.1	24.5
3345.89	24.5
3346.69	23.5
3347.48	20
3348.27	24.5
3349.06	25
3349.86	22.5
3350.65	23
3351.44	24
3352.23	26
3353.03	24
3353.82	24.5
3354.61	24.5
3355.4	21.5
3356.19	24
3356.98	22
3357.78	22
3358.57	20.5
3359.36	24
3360.15	24.5
3360.94	22.5
3361.73	21.5
3362.52	23.5
3363.31	22
3364.1	23.5
3364.89	22
3365.68	24.5
3366.47	20.5
3367.26	23.5
3368.05	23
3368.84	24.5
3369.63	21.5
3370.42	25
3371.21	20
3372	24
3372.79	21
3373.58	25
3374.37	26
3375.16	23
3375.95	24.5
3376.73	24
3377.52	19.5
3378.31	24
3379.1	23
3379.89	25
3380.68	25.5
3381.46	24.5
3382.25	23.5
3383.04	21
3383.83	24
3384.62	21.5
3385.4	25
3386.19	23
3386.98	23.5
3387.76	24.5
3388.55	25.5
3389.34	23.5
3390.13	19
3390.91	26
3391.7	23
3392.49	24
3393.27	25
3394.06	26.5
3394.84	23
3395.63	21.5
3396.42	24.5
3397.2	26
3397.99	26.5
3398.77	25.5
3399.56	21.5
3400.34	26
3401.13	26
3401.92	24.5
3402.7	21.5
3403.49	26.5
3404.27	26.5
3405.06	27.5
3405.84	24.5
3406.62	22.5
3407.41	23
3408.19	24.5
3408.98	20
3409.76	25.5
3410.55	24
3411.33	27
3412.11	25.5
3412.9	23.5
3413.68	22.5
3414.46	21.5
3415.25	21.5
3416.03	23
3416.81	21.5
3417.6	22.5
3418.38	23.5
3419.16	23.5
3419.95	23
3420.73	23.5
3421.51	21.5
3422.29	23.5
3423.08	25
3423.86	23.5
3424.64	26
3425.42	24.5
3426.2	23.5
3426.98	24.5
3427.77	24
3428.55	25
3429.33	21.5
3430.11	23.5
3430.89	20
3431.67	21
3432.45	25
3433.24	27.5
3434.02	21.5
3434.8	21.5
3435.58	17
3436.36	22
3437.14	24.5
3437.92	24
3438.7	26
3439.48	24
3440.26	24.5
3441.04	23.5
3441.82	23.5
3442.6	21.5
3443.38	23
3444.16	25
3444.94	25.5
3445.71	24.5
3446.49	25
3447.27	23
3448.05	24
3448.83	20
3449.61	25.5
3450.39	25
3451.17	18.5
3451.94	21.5
3452.72	22
3453.5	23
3454.28	26.5
3455.06	23.5
3455.83	21.5
3456.61	16
3457.39	21.5
3458.17	22.5
3458.94	20
3459.72	24.5
3460.5	21.5
3461.28	23
3462.05	21.5
3462.83	29.5
3463.61	23.5
3464.38	27
3465.16	26.5
3465.93	21
3466.71	24.5
3467.49	24
3468.26	24
3469.04	22
3469.82	24
3470.59	26
3471.37	22.5
3472.14	24
3472.92	21
3473.69	24.5
3474.47	21.5
3475.24	22
3476.02	21.5
3476.79	26
3477.57	25.5
3478.34	26.5
3479.12	25
3479.89	22.5
3480.67	24.5
3481.44	21
3482.21	27.5
3482.99	22
3483.76	26
3484.54	21.5
3485.31	22
3486.08	23.5
3486.86	20.5
3487.63	22.5
3488.4	24
3489.18	21.5
3489.95	22.5
3490.72	22.5
3491.5	26
3492.27	22.5
3493.04	23
3493.81	22
3494.59	21.5
3495.36	22
3496.13	22
3496.9	23
3497.67	24.5
3498.45	19
3499.22	24
3499.99	24
