#Acq. time (s)=	5
#Accumulations=	5
#Range (cm-¹)=	100...3500
#Windows=	4
#Autofocus=	Off
#AutoExposure=	Off
#Spike filter=	Multiple accum.
#Delay time (s)=	0
#Binning=	1
#Readout mode=	Signal
#DeNoise=	Off
#ICS correction=	Off
#Dark correction=	Off
#Inst. Process=	Off
#Instrument=	LabRAM HR Evol
#Detector=	Syncerity OE
#Objective=	x100_VIS
#Grating=	600 (500nm)
#ND Filter=	25%
#Laser=	633nm_Edge
#Hole=	100.021
#Range=	Visible
#Project=	verificaciones
#Sample=	a5
#Site=	plain
#Title=	bolusa5plain
#Remark=	
#Date=	09.01.2026 14:21
#Acquired=	09.01.2026 14:21:41
100.695	28
101.978	30.5
103.262	35
104.545	28.5
105.829	28
107.112	27
108.394	31
109.676	30
110.958	29
112.24	27
113.522	32.5
114.803	31
116.084	28.5
117.365	33
118.646	30.5
119.927	34
121.207	30
122.487	31
123.767	30.5
125.047	29.5
126.326	31
127.606	31
128.885	37.5
130.164	30.5
131.442	35
132.721	24
133.999	34
135.277	35
136.555	36.5
137.831	32
139.109	32
140.386	39
141.663	40.5
142.94	36.5
144.216	27.5
145.493	41
146.769	40.5
148.043	38
149.319	35
150.595	38
151.87	38.5
153.145	31
154.42	36
155.693	42.5
156.968	36
158.242	40
159.516	38
160.79	43
162.062	39.5
163.336	39
164.609	38.5
165.882	38
167.153	43
168.426	37
169.699	43
170.971	38.5
172.241	35.5
173.513	38.5
174.785	40.5
176.055	38
177.326	41
178.597	35.5
179.866	38
181.137	40.5
182.407	42
183.676	42
184.946	37
186.216	43
187.484	40
188.753	42
190.022	38
191.29	39
192.558	40.5
193.825	37.5
195.094	43
196.36	35
197.628	38
198.896	40
200.162	38
201.429	38.5
202.695	37.5
203.962	35
205.227	35
206.493	38.5
207.758	36
209.024	37
210.289	34.5
211.554	32.5
212.818	33.5
214.083	34.5
215.347	33.5
216.612	36.5
217.875	34
219.138	35
220.402	35
221.665	33.5
222.928	34.5
224.19	35.5
225.454	36
226.715	38.5
227.977	30.5
229.24	34.5
230.501	29
231.762	29
233.024	31
234.284	30.5
235.546	29
236.806	30.5
238.066	28.5
239.327	31.5
240.587	28.5
241.846	32
243.105	28
244.365	30
245.624	28.5
246.882	30
248.142	28
249.4	32
250.658	31
251.916	30.5
253.174	26.5
254.432	29
255.689	26.5
256.945	26.5
258.202	27.5
259.46	26
260.716	27
261.972	31.5
263.228	32
264.483	31
265.74	28
266.996	33
268.251	23.5
269.505	28
270.76	30
272.014	27.5
273.268	27.5
274.522	28
275.778	29
277.031	28
278.285	26.5
279.538	31.5
280.791	31.5
282.043	26.5
283.296	25
284.548	31.5
285.8	30
287.052	32
288.304	29
289.556	33
290.807	27.5
292.058	26
293.309	28
294.56	26
295.81	26
297.061	29
298.311	27.5
299.561	28
300.81	28.5
302.06	26.5
303.309	29
304.558	29
305.807	30.5
307.056	30
308.305	27.5
309.551	28
310.8	30
312.047	33.5
313.295	26
314.543	29
315.79	29.5
317.037	33
318.284	30.5
319.529	28.5
320.776	31.5
322.022	30.5
323.268	29
324.514	30
325.758	28.5
327.004	27
328.249	29.5
329.494	29.5
330.739	30
331.982	25.5
333.227	28
334.471	30
335.715	28.5
336.958	27
338.201	24.5
339.445	26
340.687	34
341.93	29
343.173	30.5
344.414	28.5
345.657	29
346.899	27.5
348.14	30
349.381	28.5
350.623	28.5
351.863	29.5
353.104	29
354.346	26
355.585	30.5
356.826	28.5
358.065	32
359.305	28.5
360.545	26
361.784	34
363.023	26.5
364.261	26
365.501	26.5
366.738	30
367.977	29
369.216	26
370.453	29.5
371.691	33
372.928	29
374.166	26
375.402	29
376.64	30
377.876	29.5
379.111	25.5
380.348	30
381.584	26.5
382.82	28.5
384.055	26
385.291	27
386.526	26
387.76	30
388.996	31.5
390.229	26
391.465	26.5
392.698	27
393.931	27
395.166	28.5
396.399	28.5
397.632	28
398.866	24
400.098	27.5
401.33	28
402.563	28.5
403.795	28
405.027	28
406.259	26
407.491	30
408.721	27
409.954	32
411.184	30.5
412.415	27
413.645	31
414.876	29.5
416.106	29.5
417.335	32
418.565	25.5
419.794	27.5
421.024	28
422.253	27
423.482	28.5
424.71	24.5
425.938	33
427.168	25
428.396	29
429.623	28.5
430.851	27
432.078	29.5
433.305	31
434.532	30.5
435.758	30.5
436.986	27
438.212	28
439.438	26
440.664	26.5
441.89	30
443.115	30.5
444.34	28
445.566	27.5
446.79	31
448.015	26.5
449.24	27
450.464	30
451.688	25
452.912	24.5
454.135	27.5
455.359	34
456.582	25
457.805	31
459.028	29
460.251	30.5
461.473	35
462.696	31.5
463.918	26
465.14	28
466.36	29
467.582	29
468.803	27.5
470.024	36.5
471.245	31
472.466	36.5
473.686	34
474.907	38
476.126	31.5
477.346	39
478.565	37.5
479.785	45.5
481.004	46.5
482.224	42
483.441	47
484.66	56
485.879	56
487.097	59
488.314	54.5
489.532	62.5
490.75	61
491.967	53
493.184	56.5
494.401	55
495.618	52
496.835	48
498.05	47
499.267	45.5
500.483	44.5
501.698	41
502.913	41.5
504.129	37
505.343	38
506.559	35.5
507.774	40.5
508.987	33
510.202	38
511.415	36
512.63	34
513.844	31.5
515.056	33
516.27	31.5
517.482	37
518.696	34
519.907	33
521.121	32
522.332	33
523.545	32
524.757	32
525.968	31
527.18	27.5
528.39	28
529.602	27
530.812	31
532.023	29
533.233	30.5
534.443	31.5
535.653	31
536.862	29.5
538.073	31.5
539.281	24
540.491	29
541.7	28
542.908	30.5
544.117	27
545.325	25
546.534	32
547.741	28
548.949	27
550.157	28
551.364	31
552.57	33.5
553.778	30
554.985	30
556.191	26
557.398	25.5
558.604	28
559.809	32
561.014	27
562.221	28
563.426	31.5
564.63	27
565.835	30
567.041	31
568.245	30
569.449	24
570.653	25
571.856	26.5
573.061	28
574.264	28
575.467	30
576.67	25.5
577.873	26.5
579.076	29
580.279	27
581.481	23
582.683	28.5
583.884	31.5
585.086	30
586.287	28
587.488	30.5
588.689	26.5
589.891	31
591.092	28.5
592.292	28
593.492	28
594.692	27.5
595.892	30
597.092	28.5
598.291	29
599.49	26.5
600.689	26
601.888	25.5
603.087	24.5
604.285	28.5
605.483	28
606.681	27
607.879	31
609.077	31
610.274	31.5
611.472	26
612.668	26.5
613.865	28.5
615.061	25
616.258	32
617.454	26
618.65	31.5
619.846	28
621.042	28
622.238	29
623.432	28.5
624.627	27
625.822	26.5
627.017	28.5
628.212	27.5
629.406	30
630.599	28.5
631.793	29
632.987	25.5
634.181	29
635.373	30.5
636.566	25.5
637.76	28.5
638.953	26.5
640.144	27
641.337	29.5
642.529	33
643.721	26
644.912	26.5
646.104	31
647.295	27
648.485	28.5
649.677	25.5
650.868	28
652.057	30.5
653.248	26
654.437	30.5
655.628	27.5
656.818	28.5
658.006	24.5
659.196	29
660.384	29.5
661.574	31
662.763	30
663.951	30
665.14	31.5
666.327	32
667.515	32
668.702	30.5
669.891	26.5
671.077	31.5
672.265	34
673.451	29
674.638	33.5
675.824	28
677.011	31.5
678.197	31
679.383	32
680.568	33
681.755	35.5
682.939	33
684.124	36
685.309	34
686.494	34
687.679	35
688.863	34.5
690.046	36
691.231	33
692.414	34
693.599	39.5
694.781	32
695.964	35
697.148	34.5
698.33	36
699.512	31
700.694	35
701.877	36
703.059	40
704.24	40.5
705.423	44
706.604	45.5
707.784	50.5
708.965	52
710.147	49
711.327	49
712.507	42.5
713.687	40
714.867	34.5
716.048	34
717.227	34
718.406	36
719.585	32
720.764	29
721.942	34
723.122	31
724.3	28.5
725.478	30.5
726.656	32
727.834	27.5
729.011	29
730.189	31.5
731.366	28.5
732.543	29
733.719	25
734.896	30.5
736.072	29
737.249	25
738.426	30.5
739.602	28.5
740.777	26
741.953	27.5
743.128	28.5
744.303	31.5
745.477	26.5
746.651	27.5
747.826	29
749	28
750.174	30
751.348	28.5
752.522	24
753.696	27.5
754.869	31.5
756.043	24
757.216	28
758.389	25
759.561	27.5
760.732	26.5
761.905	28.5
763.077	28.5
764.249	29
765.421	29.5
766.592	27
767.762	28
768.934	28.5
770.105	29
771.275	27
772.446	24
773.615	27.5
774.786	30
775.956	23
777.126	29
778.294	27
779.464	30
780.633	29
781.801	32.5
782.97	26
784.139	32
785.306	33.5
786.475	35
787.643	28.5
788.81	34
789.978	29
791.146	29
792.312	30.5
793.479	31.5
794.647	27
795.812	29.5
796.979	30.5
798.144	30
799.311	28
800.477	31
801.642	25
802.808	28
803.972	27
805.138	28
806.302	28
807.467	24
808.631	28
809.796	25
810.959	29
812.124	31.5
813.287	29
814.451	27
815.614	26
816.777	26.5
817.94	34
819.102	27.5
820.265	27
821.427	29
822.59	25
823.751	28
824.912	28
826.074	30.5
827.235	31.5
828.397	27.5
829.558	23.5
830.718	26.5
831.879	28
833.039	26
834.199	30.5
835.359	31
836.519	26.5
837.679	22
838.838	26
839.998	26.5
841.156	24
842.315	30.5
843.473	24.5
844.633	29
845.791	30
846.948	29
848.106	25
849.263	28
850.422	28.5
851.579	26
852.736	27.5
853.892	27
855.049	27.5
856.205	26
857.363	27
858.519	28
859.674	25
860.83	27
861.986	36.5
863.141	29
864.296	27.5
865.451	31.5
866.605	30
867.76	29
868.914	28.5
870.069	24
871.224	27
872.378	28
873.531	30
874.685	29.5
875.838	30
876.991	29
878.144	28
879.296	24
880.448	28
881.6	27.5
882.753	24.5
883.905	26
885.057	24.5
886.208	29
887.36	25
888.511	24.5
889.662	25
890.813	26
891.964	26
893.113	28
894.264	26
895.414	27
896.564	26.5
897.714	28.5
898.864	26
900.012	26.5
901.161	25.5
902.31	29.5
903.459	26.5
904.607	27.5
905.756	23.5
906.904	24
908.052	26.5
909.199	26
910.347	26.5
911.495	25
912.643	23.5
913.789	25
914.936	27.5
916.083	26.5
917.229	26
918.375	25
919.522	27.5
920.667	29
921.813	27
922.959	24
924.104	28
925.249	27.5
926.393	25
927.539	25.5
928.684	29
929.827	22
930.972	26
932.115	26
933.26	23
934.403	25
935.547	27
936.689	25.5
937.833	29
938.975	34
940.119	25.5
941.26	25
942.404	26
943.545	26
944.688	25
945.829	27
946.971	24.5
948.112	28.5
949.253	23.5
950.394	25.5
951.535	22.5
952.676	23.5
953.816	23.5
954.956	28
956.097	26.5
957.236	28
958.377	27
959.516	29
960.655	23
961.793	28.5
962.933	25
964.071	28.5
965.21	25
966.349	25
967.487	25.5
968.624	28
969.762	24
970.901	25
972.038	26
973.175	26.5
974.311	24
975.449	27
976.586	26.5
977.722	27
978.858	27
979.994	26.5
981.131	28
982.267	30
983.402	29
984.537	25
985.672	23.5
986.807	27.5
987.942	25
989.076	24.5
990.211	28
991.346	27
992.48	23.5
993.614	23
994.748	26
995.881	23.5
997.014	25
998.148	28.5
999.28	30
1000.41	25
1001.55	26
1002.68	26
1003.81	26
1004.94	25
1006.07	26
1007.21	29
1008.34	27.5
1009.47	26
1010.6	26.5
1011.73	25
1012.86	24.5
1013.99	25
1015.12	28
1016.25	26
1017.38	25.5
1018.51	27
1019.64	22.5
1020.77	22
1021.9	25.5
1023.03	25.5
1024.16	27
1025.29	25.5
1026.42	25
1027.54	26
1028.67	29.5
1029.8	22.5
1030.93	23.5
1032.06	25.5
1033.18	23
1034.31	22.5
1035.44	26
1036.56	26.5
1037.69	26.5
1038.82	24
1039.94	24.5
1041.07	26
1042.2	24.5
1043.32	25
1044.45	28
1045.57	26
1046.7	26
1047.82	25
1048.95	25.5
1050.07	23
1051.2	23.5
1052.32	24
1053.45	23
1054.57	25
1055.69	22
1056.82	29
1057.94	23.5
1059.06	29
1060.19	24.5
1061.31	27.5
1062.43	21.5
1063.55	25
1064.68	26.5
1065.8	23.5
1066.92	31.5
1068.04	23.5
1069.16	27.5
1070.28	23
1071.41	27
1072.53	23.5
1073.65	26
1074.77	28
1075.89	22
1077.01	26
1078.13	23
1079.25	25
1080.37	26
1081.49	24.5
1082.61	23
1083.73	26.5
1084.85	25
1085.96	27
1087.08	23
1088.2	22.5
1089.32	22
1090.44	27.5
1091.56	24.5
1092.67	24
1093.79	20.5
1094.91	21
1096.03	20.5
1097.14	22
1098.26	25
1099.38	23.5
1100.49	23.5
1101.61	21
1102.73	28.5
1103.84	26.5
1104.96	22
1106.07	27
1107.19	26
1108.3	25.5
1109.42	25
1110.53	25
1111.65	23.5
1112.76	28.5
1113.88	25
1114.99	25.5
1116.1	28
1117.22	24
1118.33	27
1119.44	22.5
1120.56	23
1121.67	21
1122.78	23
1123.9	25
1125.01	24.5
1126.12	22.5
1127.23	26
1128.34	27.5
1129.46	24.5
1130.57	27.5
1131.68	26
1132.79	24.5
1133.9	24
1135.01	24.5
1136.12	26.5
1137.23	24
1138.34	23
1139.45	25.5
1140.56	28
1141.67	24.5
1142.78	24
1143.89	25.5
1145	23
1146.11	25
1147.22	21
1148.33	25.5
1149.44	22.5
1150.54	25.5
1151.65	26.5
1152.76	19.5
1153.87	23.5
1154.97	29.5
1156.08	25
1157.19	27
1158.3	28
1159.4	23
1160.51	28.5
1161.62	25.5
1162.72	24
1163.83	25
1164.93	24.5
1166.04	23
1167.15	26
1168.25	24
1169.36	25
1170.46	26
1171.57	29
1172.67	25
1173.78	24.5
1174.88	25
1175.98	26
1177.09	24.5
1178.19	20.5
1179.3	24
1180.4	25.5
1181.5	26.5
1182.61	26.5
1183.71	24
1184.81	24
1185.91	26
1187.02	23
1188.12	24
1189.22	25
1190.32	26.5
1191.42	26.5
1192.53	27
1193.63	25
1194.73	25.9895
1195.83	25.9821
1196.93	23.0082
1198.03	21.5162
1199.13	24.047
1200.23	23.0102
1201.33	23.9761
1202.43	26.1833
1203.53	23.9079
1204.63	23.5318
1205.73	25.06
1206.83	21.5161
1207.93	26.5688
1209.02	21.7611
1210.12	26.7901
1211.22	23.4726
1212.32	23.2586
1213.42	25.0284
1214.52	26.4612
1215.61	23.1893
1216.71	21.1292
1217.81	23.0553
1218.91	27.3341
1220	25.1571
1221.1	21.1925
1222.2	27.7238
1223.29	23.7741
1224.39	23.8739
1225.49	27.3398
1226.58	23.832
1227.68	26.68
1228.77	22.3436
1229.87	24.879
1230.96	25.6152
1232.06	23.8651
1233.15	22.0826
1234.25	25.2921
1235.34	25.0609
1236.44	22.3492
1237.53	25.1996
1238.63	23.7898
1239.72	20.93
1240.81	23.0631
1241.91	23.1256
1243	23.5723
1244.09	23.7927
1245.19	25.7671
1246.28	25.0817
1247.37	25.5019
1248.46	27.4358
1249.56	26.7303
1250.65	27.0177
1251.74	27.471
1252.83	24.0572
1253.92	26.1772
1255.01	25.4013
1256.11	24.2257
1257.2	29.2375
1258.29	24.3391
1259.38	23.7123
1260.47	26.5561
1261.56	23.2123
1262.65	27.3825
1263.74	25.278
1264.83	24.3861
1265.92	24.3553
1267.01	23.4932
1268.1	24.4219
1269.19	26.6077
1270.27	22.228
1271.36	24.0954
1272.45	23.3883
1273.54	24.5922
1274.63	24.7702
1275.72	23.8741
1276.8	25.0736
1277.89	22.3064
1278.98	20.449
1280.07	23.4434
1281.15	23.0313
1282.24	24.5235
1283.33	24.9813
1284.41	23.9317
1285.5	22.0184
1286.59	23.9604
1287.67	23.056
1288.76	20.3693
1289.84	24.7206
1290.93	25.7184
1292.01	24.0207
1293.1	25.7316
1294.19	24.0439
1295.27	23.4022
1296.35	26.8158
1297.44	25.5812
1298.52	22.4283
1299.61	23.4167
1300.69	23.2808
1301.78	24.4216
1302.86	26.6732
1303.94	24.4369
1305.03	23.1211
1306.11	23.3778
1306.4	23.5
1307.49	21.5
1308.57	25
1309.66	25.5
1310.75	25.5
1311.84	22
1312.92	23.5
1314.01	22
1315.1	25
1316.19	26.5
1317.27	25
1318.36	23
1319.45	22
1320.53	21
1321.62	24.5
1322.7	26
1323.79	23
1324.88	25.5
1325.96	22.5
1327.05	23.5
1328.13	23
1329.21	21.5
1330.3	25
1331.38	25
1332.47	25.5
1333.55	23.5
1334.64	25.5
1335.72	19.5
1336.8	22
1337.89	25
1338.97	25
1340.05	23
1341.14	21.5
1342.22	23.5
1343.3	24
1344.39	23.5
1345.47	22.5
1346.55	27.5
1347.63	22
1348.71	25
1349.79	21
1350.88	28
1351.96	26
1353.04	21
1354.12	25
1355.2	25.5
1356.28	24
1357.36	27
1358.44	26
1359.52	23
1360.6	26
1361.68	21
1362.76	22
1363.84	23.5
1364.92	24.5
1366	21
1367.08	25
1368.16	20
1369.23	28
1370.31	21.5
1371.39	28.5
1372.47	22.5
1373.55	27
1374.62	26.5
1375.7	25
1376.78	22
1377.85	28.5
1378.93	25.5
1380.01	23.5
1381.09	27.5
1382.16	19.5
1383.24	23.5
1384.31	23.5
1385.39	24.5
1386.47	26.5
1387.54	24.5
1388.62	23
1389.69	25
1390.77	27
1391.84	25.5
1392.92	26
1393.99	30.5
1395.06	24.5
1396.14	27.5
1397.21	31
1398.29	26.5
1399.36	26
1400.43	31.5
1401.51	27
1402.58	30
1403.65	26
1404.73	33
1405.8	28
1406.87	29
1407.94	28.5
1409.02	29.5
1410.09	31.5
1411.16	26.5
1412.23	28.5
1413.3	30.5
1414.37	31.5
1415.45	30.5
1416.52	28
1417.59	29
1418.66	26.5
1419.73	28
1420.8	28
1421.87	28
1422.94	25.5
1424.01	29
1425.08	22
1426.15	29.5
1427.22	28.5
1428.29	31.5
1429.35	23
1430.42	23
1431.49	26.5
1432.56	24.5
1433.63	27
1434.7	24
1435.77	29
1436.83	27.5
1437.9	28.5
1438.97	24
1440.04	26.5
1441.1	22.5
1442.17	27.5
1443.24	27.5
1444.3	25.5
1445.37	24
1446.44	25
1447.5	25.5
1448.57	29
1449.63	25.5
1450.7	24
1451.76	25.5
1452.83	23.5
1453.89	26.5
1454.96	25
1456.02	25
1457.09	27
1458.15	24.5
1459.22	22
1460.28	26.5
1461.34	23
1462.41	22
1463.47	24
1464.54	25.5
1465.6	23
1466.66	23
1467.72	25.5
1468.79	24
1469.85	22.5
1470.91	29
1471.97	21
1473.04	25
1474.1	23.5
1475.16	26.5
1476.22	25
1477.28	23
1478.34	24
1479.4	27
1480.47	24
1481.53	26.5
1482.59	22.5
1483.65	27
1484.71	27
1485.77	25
1486.83	21
1487.89	26
1488.95	27.5
1490.01	24
1491.07	23
1492.12	25.5
1493.18	25
1494.24	27.5
1495.3	24
1496.36	26.5
1497.42	25
1498.47	26.5
1499.53	28
1500.59	26.5
1501.65	24
1502.7	27.5
1503.76	27
1504.82	23.5
1505.88	26
1506.93	22
1507.99	23
1509.05	25
1510.1	27
1511.16	24
1512.21	28
1513.27	28.5
1514.32	24
1515.38	22.5
1516.43	24
1517.49	21
1518.54	23
1519.6	26.5
1520.65	25
1521.71	27
1522.76	25
1523.82	26
1524.87	29.5
1525.92	22
1526.98	24
1528.03	26
1529.08	25.5
1530.14	26
1531.19	27.5
1532.24	27.5
1533.3	25.5
1534.35	24.5
1535.4	27
1536.45	24.5
1537.5	24.5
1538.56	26.5
1539.61	26
1540.66	25.5
1541.71	26.5
1542.76	26.5
1543.81	25
1544.86	26
1545.91	24.5
1546.96	24
1548.01	25
1549.06	27
1550.11	23
1551.16	24
1552.21	24.5
1553.26	26
1554.31	23.5
1555.36	24
1556.41	26
1557.46	23.5
1558.51	29.5
1559.55	24.5
1560.6	25.5
1561.65	28
1562.7	24
1563.75	27
1564.79	24.5
1565.84	27.5
1566.89	29
1567.94	27
1568.98	24
1570.03	25
1571.07	21
1572.12	25
1573.17	28.5
1574.21	22
1575.26	24
1576.31	27
1577.35	22
1578.4	26.5
1579.44	27
1580.49	27
1581.53	26
1582.58	26
1583.62	26
1584.67	25
1585.71	20.5
1586.75	22
1587.8	27
1588.84	21.5
1589.89	26
1590.93	21
1591.97	25.5
1593.02	22.5
1594.06	25.5
1595.1	23.5
1596.14	25.5
1597.19	25
1598.23	26
1599.27	25
1600.31	26
1601.35	22.5
1602.4	25
1603.44	23.5
1604.48	26.5
1605.52	27.5
1606.56	27.5
1607.6	24.5
1608.64	27
1609.68	28
1610.72	26
1611.76	24.5
1612.8	25
1613.84	26
1614.88	24
1615.92	23
1616.96	20.5
1618	28
1619.04	25.5
1620.08	25.5
1621.12	26
1622.16	24
1623.19	24
1624.23	24.5
1625.27	26
1626.31	25.5
1627.35	25
1628.38	25
1629.42	27
1630.46	23
1631.5	25.5
1632.53	26.5
1633.57	23
1634.61	27
1635.64	25.5
1636.68	23
1637.71	25
1638.75	24
1639.79	27
1640.82	28
1641.86	26.5
1642.89	24
1643.93	27
1644.96	21.5
1646	24.5
1647.03	27.5
1648.07	25.5
1649.1	28
1650.14	30.5
1651.17	25.5
1652.2	25.5
1653.24	27
1654.27	28
1655.3	28.5
1656.34	27.5
1657.37	23.5
1658.4	25
1659.44	28
1660.47	23.5
1661.5	23
1662.53	29
1663.57	26
1664.6	25.5
1665.63	27
1666.66	26
1667.69	24
1668.72	19
1669.75	24
1670.79	26
1671.82	25.5
1672.85	24
1673.88	25
1674.91	24.5
1675.94	29
1676.97	23.5
1678	24
1679.03	24
1680.06	25
1681.09	24.5
1682.11	28.5
1683.14	26
1684.17	23
1685.2	25
1686.23	24.5
1687.26	26
1688.29	24
1689.32	27.5
1690.34	23.5
1691.37	28.5
1692.4	25.5
1693.43	24
1694.45	26.5
1695.48	21.5
1696.51	22
1697.53	23
1698.56	24.5
1699.59	25.5
1700.61	25.5
1701.64	27
1702.66	26
1703.69	26.5
1704.72	26
1705.74	25
1706.77	26
1707.79	26
1708.82	23.5
1709.84	24.5
1710.87	20
1711.89	24
1712.92	23.5
1713.94	21
1714.96	26.5
1715.99	25
1717.01	25.5
1718.04	25
1719.06	27.5
1720.08	25.5
1721.11	25
1722.13	23
1723.15	27.5
1724.17	27
1725.2	30
1726.22	24
1727.24	23
1728.26	25
1729.28	21
1730.31	23.5
1731.33	26.5
1732.35	25.5
1733.37	24.5
1734.39	25.5
1735.41	24.5
1736.43	28.5
1737.45	26
1738.47	25
1739.49	22.5
1740.51	25.5
1741.53	23
1742.55	26
1743.57	29.5
1744.59	25.5
1745.61	28
1746.63	25.5
1747.65	24.5
1748.67	22
1749.69	24
1750.71	25.5
1751.72	25
1752.74	24
1753.76	25
1754.78	25
1755.8	25
1756.81	24.5
1757.83	24.5
1758.85	22
1759.86	23
1760.88	24
1761.9	24
1762.91	29
1763.93	25.5
1764.95	26.5
1765.96	23.5
1766.98	27
1768	25
1769.01	26
1770.03	22.5
1771.04	27.5
1772.06	25.5
1773.07	22
1774.09	23
1775.1	22.5
1776.12	27.5
1777.13	26
1778.14	26
1779.16	22.5
1780.17	24
1781.19	26
1782.2	21
1783.21	22
1784.23	24.5
1785.24	26.5
1786.25	25
1787.27	28.5
1788.28	24.5
1789.29	24
1790.3	26
1791.32	24.5
1792.33	24
1793.34	24.5
1794.35	23
1795.36	21.5
1796.37	26
1797.38	26.5
1798.4	26
1799.41	23
1800.42	26
1801.43	26
1802.44	26
1803.45	22.5
1804.46	24
1805.47	27
1806.48	22.5
1807.49	22.5
1808.5	20
1809.51	23
1810.52	25
1811.53	26.5
1812.53	23
1813.54	28.5
1814.55	25.5
1815.56	21.5
1816.57	24.5
1817.58	26
1818.58	25
1819.59	20.5
1820.6	22
1821.61	24.5
1822.61	22.5
1823.62	22.5
1824.63	22
1825.64	26.5
1826.64	24.5
1827.65	24
1828.66	23
1829.66	23.5
1830.67	29
1831.67	24
1832.68	25
1833.68	28
1834.69	25
1835.7	26.5
1836.7	24
1837.71	27.5
1838.71	28
1839.71	24.5
1840.72	26.5
1841.72	21.5
1842.73	25.5
1843.73	25.5
1844.74	27
1845.74	28.5
1846.74	26.5
1847.75	25.5
1848.75	25
1849.75	26
1850.76	22.5
1851.76	25
1852.76	26
1853.76	25
1854.77	24
1855.77	26
1856.77	24.5
1857.77	23.5
1858.77	25
1859.78	27
1860.78	25
1861.78	22.5
1862.78	27.5
1863.78	25
1864.78	25
1865.78	20
1866.78	21.5
1867.78	23.5
1868.78	24
1869.78	28.5
1870.78	25.5
1871.78	24.5
1872.78	27.5
1873.78	23.5
1874.78	19
1875.78	25
1876.78	25
1877.78	22
1878.78	23.5
1879.77	24
1880.77	21.5
1881.77	23
1882.77	24
1883.77	26
1884.76	23
1885.76	22
1886.76	22.5
1887.76	25.5
1888.75	26.5
1889.75	27
1890.75	25
1891.74	24.5
1892.74	22.5
1893.74	24.5
1894.73	23
1895.73	22
1896.72	19.5
1897.72	22.5
1898.72	25
1899.71	25.5
1900.71	22.5
1901.7	25
1902.7	25
1903.69	22.5
1904.69	23
1905.68	22
1906.67	27
1907.67	25.5
1908.66	25
1909.66	23.5
1910.65	24.5
1911.64	22
1912.64	22
1913.63	24
1914.62	19
1915.62	24.5
1916.61	25
1917.6	25
1918.59	20
1919.59	26.5
1920.58	24.5
1921.57	20
1922.56	27.5
1923.55	23.5
1924.55	22.5
1925.54	22
1926.53	23
1927.52	27
1928.51	23
1929.5	25.5
1930.49	22
1931.48	21.5
1932.47	29
1933.46	27.5
1934.45	23
1935.44	23.5
1936.43	27.5
1937.42	22
1938.41	24
1939.4	25
1940.39	21.5
1941.38	25
1942.37	21.5
1943.36	26
1944.34	23.5
1945.33	24
1946.32	22.5
1947.31	23
1948.3	23.75
1949.28	23.5
1950.27	22
1951.26	25.5
1952.25	24.5
1953.23	25
1954.22	21.5
1955.21	23
1956.2	22
1957.18	23
1958.17	29
1959.15	25
1960.14	25.5
1961.13	24
1962.11	25
1963.1	27.5
1964.08	25
1965.07	21
1966.05	22
1967.04	25
1968.02	22.5
1969.01	22
1969.99	24
1970.98	20
1971.96	23.5
1972.94	27
1973.93	22
1974.91	22
1975.9	23
1976.88	23.5
1977.86	25
1978.85	25.5
1979.83	27
1980.81	29
1981.8	22
1982.78	23.5
1983.76	26
1984.74	21
1985.72	25.5
1986.71	24.5
1987.69	24
1988.67	19
1989.65	22.5
1990.63	26
1991.61	23
1992.6	22
1993.58	24.5
1994.56	27.5
1995.54	21
1996.52	23
1997.5	23
1998.48	22.5
1999.46	23
2000.44	24
2001.42	23.5
2002.4	25.5
2003.38	25.5
2004.36	22
2005.34	24.5
2006.32	25
2007.29	24
2008.27	21
2009.25	23
2010.23	26.5
2011.21	22
2012.19	21
2013.16	24
2014.14	25.5
2015.12	24
2016.1	24
2017.07	23
2018.05	24.5
2019.03	25
2020	22.5
2020.98	25
2021.96	25.5
2022.93	22
2023.91	26
2024.89	24.5
2025.86	22.5
2026.84	24
2027.81	23
2028.79	22
2029.77	23
2030.74	19.5
2031.72	20.5
2032.69	23.5
2033.67	23.5
2034.64	21
2035.61	23
2036.59	23
2037.56	26
2038.54	25.5
2039.51	18
2040.48	23.5
2041.46	23
2042.43	24
2043.41	22.5
2044.38	23.5
2045.35	23.5
2046.32	20.5
2047.3	20
2048.27	22
2049.24	24
2050.21	26.5
2051.19	26
2052.16	23
2053.13	24
2054.1	22
2055.07	26
2056.04	25.5
2057.02	24
2057.99	22.5
2058.96	23
2059.93	26.5
2060.9	25
2061.87	24.5
2062.84	24.5
2063.81	23
2064.78	23
2065.75	22
2066.72	17
2067.69	21
2068.66	20.5
2069.63	27
2070.6	24
2071.57	20
2072.53	25.5
2073.5	21
2074.47	26
2075.44	21
2076.41	22.5
2077.38	23.5
2078.34	23
2079.31	23
2080.28	20.5
2081.25	19.5
2082.21	23
2083.18	25.5
2084.15	25
2085.12	21.5
2086.08	23.5
2087.05	22
2088.02	23
2088.98	24
2089.95	23
2090.91	22
2091.88	21
2092.85	23.5
2093.81	22
2094.78	24
2095.74	20.5
2096.71	27
2097.67	20
2098.64	27.5
2099.6	26
2100.57	20
2101.53	23
2102.5	20.5
2103.46	26.5
2104.42	26
2105.39	23
2106.35	24
2107.31	24
2108.28	27
2109.24	22
2110.2	26
2111.17	23
2112.13	22
2113.09	21.5
2114.06	23
2115.02	26
2115.98	26
2116.94	23.5
2117.9	23
2118.86	26
2119.83	26.5
2120.79	24
2121.75	23
2122.71	22.5
2123.67	21.5
2124.63	24.5
2125.59	25
2126.55	25
2127.51	24
2128.48	19
2129.43	21
2130.4	24
2131.35	23
2132.31	20
2133.27	24.5
2134.23	27
2135.19	23.5
2136.15	24.5
2137.11	24
2138.07	22
2139.03	25
2139.99	21
2140.95	18.5
2141.9	24
2142.86	21.0113
2143.82	23.9496
2144.78	22.5228
2145.74	24.4951
2146.69	23.0313
2147.65	24.8784
2148.61	20.109
2149.56	24.6601
2150.52	22.7261
2151.48	21.1134
2152.44	20.6039
2153.39	25.3895
2154.35	24.9061
2155.3	23.8502
2156.26	22.216
2157.22	24.5485
2158.17	20.6334
2159.13	22.4682
2160.08	22.1416
2161.04	20.359
2161.99	23.8422
2162.95	24.0801
2163.9	25.7144
2164.86	22.8645
2165.81	21.8357
2166.77	22.6859
2167.72	19.004
2168.68	23.0554
2169.63	20.602
2170.58	23.4439
2171.54	24.1924
2172.49	23.3847
2173.44	21.2794
2174.4	18.6748
2175.35	18.5085
2176.3	21.2355
2177.26	23.8046
2178.21	22.064
2179.16	22.4348
2180.11	22.7587
2181.07	22.0898
2182.02	25.4077
2182.97	22.5625
2183.92	22.8665
2184.88	21.0069
2185.83	20.7463
2186.78	24.7756
2187.73	20.2622
2188.68	23.13
2189.63	23.8053
2190.58	23.4903
2191.53	23.6263
2192.48	19.5524
2193.43	22.5073
2194.38	22.943
2195.33	20.3527
2196.28	20.5867
2197.23	21.4033
2198.18	22.7813
2199.13	22.7183
2200.08	25.1723
2201.03	22.3109
2201.98	21.1238
2202.93	23.855
2203.88	23.04
2204.83	22.4539
2205.78	23.3125
2206.72	20.0842
2207.67	24.5273
2208.62	22.7386
2209.57	22.0445
2210.52	23.328
2211.46	21.5091
2212.41	20.716
2213.36	21.8354
2214.31	22.7719
2215.25	22.2573
2216.2	23.1237
2217.15	22.4652
2218.09	20.8496
2219.04	22.3555
2219.99	22.1044
2220.93	23.662
2221.88	22.4293
2222.83	24.7801
2223.77	21.0731
2224.72	24.5557
2225.66	22.5467
2226.61	22.6481
2227.55	20.8946
2228.5	21.7939
2229.44	24.1803
2230.39	22.3813
2231.33	22.1065
2232.28	21.6634
2233.22	20.2384
2234.17	20.5462
2235.11	21.1869
2236.05	24.9021
2237	20.948
2237.94	18.3902
2238.88	23.8586
2239.83	23.5424
2240.04	23
2240.98	23.5
2241.93	26.5
2242.88	22
2243.83	17.5
2244.78	20
2245.72	19.5
2246.67	21.5
2247.62	25
2248.56	25
2249.51	23
2250.46	23
2251.4	23.5
2252.35	27
2253.3	27.5
2254.24	19.5
2255.19	23
2256.14	22.5
2257.08	22
2258.03	24
2258.97	23.5
2259.92	21.5
2260.86	25
2261.81	21
2262.75	25.5
2263.7	23.5
2264.64	22
2265.59	24
2266.53	21.5
2267.48	22
2268.42	23.5
2269.36	21
2270.31	26.5
2271.25	22.5
2272.19	24
2273.14	20.5
2274.08	22
2275.02	21
2275.97	23.5
2276.91	24
2277.85	21
2278.8	23.5
2279.74	21.5
2280.68	22.5
2281.62	19
2282.56	24
2283.51	25
2284.45	23
2285.39	23.5
2286.33	25.5
2287.27	25
2288.21	23.5
2289.15	28
2290.09	21.5
2291.04	22.5
2291.98	23
2292.92	24
2293.86	20
2294.8	22
2295.74	25.5
2296.68	24
2297.62	26.5
2298.56	19.5
2299.5	26
2300.44	18
2301.37	25.5
2302.31	21
2303.25	20.5
2304.19	23
2305.13	18.5
2306.07	23
2307.01	23
2307.94	23
2308.88	23
2309.82	21.5
2310.76	22.5
2311.7	20.5
2312.63	26
2313.57	19
2314.51	25
2315.44	22
2316.38	25
2317.32	24
2318.26	21
2319.19	20.5
2320.13	20
2321.06	22
2322	23
2322.94	18.5
2323.87	24
2324.81	23
2325.74	29
2326.68	16.5
2327.61	23
2328.55	21
2329.48	25
2330.42	19.5
2331.35	21
2332.29	20
2333.22	22
2334.16	27
2335.09	25
2336.02	22.5
2336.96	22
2337.89	25.5
2338.83	22
2339.76	23
2340.69	24
2341.63	27
2342.56	22.5
2343.49	24.5
2344.42	21.5
2345.36	27.5
2346.29	26
2347.22	27
2348.15	21
2349.09	24.5
2350.02	25
2350.95	26
2351.88	24
2352.81	25
2353.74	21
2354.68	18.5
2355.61	23
2356.54	20.5
2357.47	21.5
2358.4	23.5
2359.33	22
2360.26	23
2361.19	21.5
2362.12	25.5
2363.05	24
2363.98	25.5
2364.91	21
2365.84	20.5
2366.77	24.5
2367.7	27
2368.63	24
2369.56	21.5
2370.49	25.5
2371.41	21
2372.34	24
2373.27	22.5
2374.2	22
2375.13	24
2376.06	21
2376.98	24
2377.91	19.5
2378.84	20
2379.77	22.5
2380.69	24.5
2381.62	21
2382.55	23.5
2383.47	23.5
2384.4	24.5
2385.33	24.5
2386.25	22
2387.18	21
2388.11	24
2389.03	22.5
2389.96	19
2390.89	27.5
2391.81	23.5
2392.74	23
2393.66	24
2394.59	23
2395.51	22.5
2396.44	21.5
2397.36	23.5
2398.29	27
2399.21	22
2400.14	24
2401.06	20.5
2401.99	18.5
2402.91	23.5
2403.83	22.5
2404.76	27
2405.68	25.5
2406.6	20
2407.53	24.5
2408.45	21.5
2409.37	23.5
2410.3	22
2411.22	23
2412.14	24.5
2413.06	20.5
2413.99	22
2414.91	28
2415.83	23
2416.75	22
2417.68	22
2418.6	22.5
2419.52	25
2420.44	25.5
2421.36	22
2422.28	22
2423.2	23.5
2424.12	26
2425.05	23.5
2425.97	21
2426.89	23
2427.81	23.5
2428.73	19.5
2429.65	22.5
2430.57	23
2431.49	20
2432.41	21.5
2433.33	22
2434.25	25
2435.17	24.5
2436.08	24.5
2437	23
2437.92	23.5
2438.84	23
2439.76	23.5
2440.68	25
2441.6	22
2442.51	25
2443.43	25
2444.35	24
2445.27	25.5
2446.19	26
2447.1	24.5
2448.02	23
2448.94	22.5
2449.85	23.5
2450.77	21
2451.69	22
2452.61	21.5
2453.52	25
2454.44	22.5
2455.35	27.5
2456.27	23
2457.19	24.5
2458.1	23.5
2459.02	27
2459.94	20
2460.85	23.5
2461.77	26.5
2462.68	23.5
2463.6	26.5
2464.51	26
2465.43	24.5
2466.34	24.5
2467.25	25.5
2468.17	23
2469.08	23
2470	23
2470.91	21.5
2471.83	23.5
2472.74	27
2473.65	24
2474.57	25.5
2475.48	24
2476.39	22
2477.31	21
2478.22	25
2479.13	24
2480.04	25
2480.96	20.5
2481.87	22.5
2482.78	24
2483.69	25.5
2484.6	24.5
2485.52	19
2486.43	22.5
2487.34	24
2488.25	26.5
2489.16	26
2490.07	27
2490.99	22.5
2491.9	22
2492.81	27.5
2493.72	23
2494.63	24.5
2495.54	26
2496.45	26.5
2497.36	22.5
2498.27	22.5
2499.18	19.5
2500.09	21.5
2501	23
2501.91	25
2502.82	25.5
2503.73	25.5
2504.63	25.5
2505.54	25.5
2506.45	21.5
2507.36	24.5
2508.27	22
2509.18	26
2510.09	22.5
2510.99	23
2511.9	20.5
2512.81	23
2513.72	26.5
2514.62	25
2515.53	26
2516.44	23
2517.35	21
2518.25	25.5
2519.16	24.5
2520.07	20
2520.97	21.5
2521.88	23.5
2522.79	26
2523.69	25
2524.6	22
2525.51	20.5
2526.41	26
2527.32	26
2528.22	24.5
2529.13	21
2530.03	28.5
2530.94	21.5
2531.84	23
2532.75	23.5
2533.65	20
2534.56	23.5
2535.46	26
2536.37	24
2537.27	29
2538.17	26
2539.08	20.5
2539.98	24
2540.89	28.5
2541.79	24
2542.69	22
2543.6	21.5
2544.5	26.5
2545.4	21
2546.31	21
2547.21	26
2548.11	24.5
2549.01	22.5
2549.92	25.5
2550.82	24.5
2551.72	25
2552.62	24.5
2553.52	25.5
2554.42	24.5
2555.33	24.5
2556.23	21.5
2557.13	23
2558.03	22
2558.93	24
2559.83	21
2560.73	22
2561.63	26
2562.53	23
2563.43	23.5
2564.33	22
2565.24	24
2566.13	24
2567.04	23.5
2567.93	26.5
2568.83	24
2569.73	26
2570.63	23.5
2571.53	26
2572.43	24
2573.33	23
2574.23	25
2575.13	20
2576.03	21.5
2576.92	23.5
2577.82	23
2578.72	22
2579.62	25.5
2580.52	25.5
2581.41	23
2582.31	25
2583.21	25
2584.11	23
2585	28.5
2585.9	26
2586.8	20.5
2587.69	23
2588.59	26.5
2589.49	21.5
2590.38	25.5
2591.28	26.5
2592.18	23.5
2593.07	23
2593.97	24
2594.86	20.5
2595.76	26
2596.66	23
2597.55	23.5
2598.45	26.5
2599.34	25
2600.24	23
2601.13	23.5
2602.03	25
2602.92	27
2603.81	25.5
2604.71	24.5
2605.6	28
2606.5	23
2607.39	27
2608.28	25.5
2609.18	26
2610.07	26
2610.97	24
2611.86	24.5
2612.75	22
2613.64	24
2614.54	26
2615.43	24
2616.32	23.5
2617.22	24
2618.11	22
2619	23
2619.89	28.5
2620.78	20
2621.68	23
2622.57	22.5
2623.46	23.5
2624.35	26.5
2625.24	22
2626.13	24
2627.02	26
2627.91	22
2628.81	25.5
2629.7	24
2630.59	22.5
2631.48	23.5
2632.37	20.5
2633.26	23
2634.15	23
2635.04	23.5
2635.93	23
2636.82	26
2637.71	23
2638.59	25
2639.48	28
2640.37	24.5
2641.26	23
2642.15	22
2643.04	23
2643.93	23.5
2644.82	25
2645.71	26
2646.59	25
2647.48	20
2648.37	26
2649.26	22
2650.15	21.5
2651.03	24.5
2651.92	22
2652.81	23.5
2653.69	26.5
2654.58	26
2655.47	22.5
2656.35	27
2657.24	21.5
2658.13	26
2659.01	24.5
2659.9	25
2660.79	24.5
2661.67	26.5
2662.56	28.5
2663.44	24
2664.33	23.5
2665.22	23
2666.1	23
2666.99	23
2667.87	26
2668.76	21.5
2669.64	26
2670.52	25
2671.41	24.5
2672.29	22
2673.18	26.5
2674.06	21.5
2674.95	21
2675.83	23
2676.71	25
2677.6	24.5
2678.48	24
2679.36	27.5
2680.25	27
2681.13	29
2682.01	24.5
2682.9	26.5
2683.78	19
2684.66	24
2685.55	23.5
2686.43	24
2687.31	24.5
2688.19	23
2689.07	24.5
2689.96	23.5
2690.84	21
2691.72	27.5
2692.6	25
2693.48	22.5
2694.36	23
2695.24	21
2696.12	22
2697	24.5
2697.89	24.5
2698.77	26
2699.65	22
2700.53	22
2701.41	26
2702.29	22.5
2703.17	30
2704.05	25.5
2704.93	21.5
2705.81	26.5
2706.69	23.5
2707.57	26.5
2708.44	27
2709.32	22.5
2710.2	27
2711.08	27.5
2711.96	24
2712.84	25
2713.72	24.5
2714.59	24
2715.47	23.5
2716.35	23.5
2717.23	25.5
2718.11	24.5
2718.98	28
2719.86	22.5
2720.74	25.5
2721.62	22.5
2722.49	22.5
2723.37	25.5
2724.25	29.5
2725.12	24
2726	22.5
2726.88	20
2727.75	23
2728.63	26
2729.51	24
2730.38	24
2731.26	27
2732.13	25
2733.01	25.5
2733.88	22
2734.76	27
2735.63	23
2736.51	25
2737.38	27
2738.26	24
2739.13	21.5
2740.01	24
2740.88	24.5
2741.76	22.5
2742.63	22
2743.5	21.5
2744.38	21
2745.25	24.5
2746.13	23.5
2747	18.5
2747.87	23
2748.75	21.5
2749.62	26
2750.49	22.5
2751.36	25.5
2752.24	19
2753.11	25
2753.98	22.5
2754.86	21
2755.73	23
2756.6	24.5
2757.47	24
2758.34	23.5
2759.22	22
2760.09	25
2760.96	24
2761.83	26.5
2762.7	23.5
2763.57	23.5
2764.44	26
2765.31	25
2766.18	27
2767.06	23.5
2767.93	22
2768.8	24
2769.67	27
2770.54	24
2771.41	24.5
2772.28	23
2773.15	22.5
2774.02	26
2774.89	22
2775.75	21
2776.62	25
2777.49	23
2778.36	23
2779.23	27.5
2780.1	25.5
2780.97	26
2781.84	24.5
2782.71	25.5
2783.57	30.5
2784.44	26
2785.31	26.5
2786.18	26
2787.04	27
2787.91	26.5
2788.78	28
2789.65	22.5
2790.51	27
2791.38	25.5
2792.25	28.5
2793.12	25.5
2793.98	24
2794.85	18.5
2795.72	23.5
2796.58	25
2797.45	27.5
2798.31	25.5
2799.18	24.5
2800.05	28.5
2800.91	28
2801.78	27.5
2802.64	24.5
2803.51	22
2804.37	25.5
2805.24	24
2806.1	26
2806.97	25
2807.83	25
2808.7	23.5
2809.56	27
2810.43	25.5
2811.29	24
2812.15	21
2813.02	23
2813.88	26
2814.75	28.5
2815.61	24.5
2816.47	24.5
2817.34	24
2818.2	28
2819.06	28.5
2819.92	24
2820.79	28
2821.65	27
2822.51	25.5
2823.37	24
2824.24	24.5
2825.1	26
2825.96	28.5
2826.82	26
2827.69	24
2828.55	25.5
2829.41	29
2830.27	25
2831.13	28
2831.99	23
2832.85	26.5
2833.71	26
2834.58	29
2835.44	28.5
2836.3	27.5
2837.16	24.5
2838.02	24.5
2838.88	20
2839.74	25
2840.6	24
2841.46	28.5
2842.32	25.5
2843.18	22
2844.04	27
2844.9	24
2845.75	28.5
2846.61	24
2847.47	28.5
2848.33	24.5
2849.19	24.5
2850.05	24
2850.91	23.5
2851.77	26
2852.62	26.5
2853.48	25.5
2854.34	27
2855.2	26
2856.06	25
2856.91	23.5
2857.77	21
2858.63	25
2859.48	24
2860.34	27
2861.2	23
2862.06	24
2862.91	24.5
2863.77	27
2864.63	23.5
2865.48	28
2866.34	26
2867.19	30.5
2868.05	27.5
2868.91	29
2869.76	30
2870.62	28
2871.47	28.5
2872.33	26.5
2873.18	29.5
2874.04	28
2874.89	28.5
2875.75	25
2876.6	28
2877.46	32
2878.31	32.5
2879.17	28
2880.02	28
2880.88	29.5
2881.73	29
2882.58	30.5
2883.44	31
2884.29	29
2885.14	34
2886	34.5
2886.85	33.5
2887.7	32
2888.56	38
2889.41	32.5
2890.26	32.5
2891.12	34
2891.97	42.5
2892.82	36
2893.67	42.5
2894.52	42
2895.38	47
2896.23	42
2897.08	45.5
2897.93	49.5
2898.78	48.5
2899.64	55
2900.49	53
2901.34	60
2902.19	54
2903.04	60
2903.89	67.5
2904.74	64
2905.59	66
2906.44	71
2907.29	66
2908.14	65
2908.99	63.5
2909.84	62
2910.69	55
2911.54	62
2912.39	55.5
2913.24	53
2914.09	47
2914.94	46.5
2915.79	44.5
2916.64	40
2917.49	39.5
2918.34	40
2919.18	36
2920.03	37
2920.88	33.5
2921.73	36
2922.58	32
2923.42	36.5
2924.27	29
2925.12	29.5
2925.97	28
2926.82	30
2927.66	28
2928.51	29.5
2929.36	28
2930.2	28
2931.05	28.5
2931.9	29.5
2932.74	26
2933.59	27
2934.44	29.5
2935.28	24.5
2936.13	27
2936.98	31
2937.82	27
2938.67	28
2939.51	28.5
2940.36	26
2941.2	28
2942.05	30
2942.9	27.5
2943.74	26
2944.58	30
2945.43	28
2946.27	27
2947.12	27
2947.96	28.5
2948.81	31
2949.65	27.5
2950.5	27.5
2951.34	28.5
2952.18	26
2953.03	34.5
2953.87	32
2954.71	27
2955.56	30
2956.4	38.5
2957.24	33.5
2958.09	36.5
2958.93	34
2959.77	36
2960.62	33
2961.46	37
2962.3	41
2963.14	41.5
2963.98	42.5
2964.83	39.5
2965.67	41
2966.51	42.5
2967.35	39.5
2968.19	41.5
2969.04	40.5
2969.88	39
2970.72	33
2971.56	37.5073
2972.4	35.8997
2973.24	36.9362
2974.08	36.4415
2974.92	34.1102
2975.76	26.9319
2976.6	32.9118
2977.44	31.2903
2978.28	31.7998
2979.12	29.9639
2979.96	29.5792
2980.8	27.8914
2981.64	29.1218
2982.48	28.8222
2983.32	30.4713
2984.16	26.8602
2985	25.2957
2985.84	24.802
2986.68	27.2068
2987.52	26.0776
2988.35	28.1225
2989.19	24.5037
2990.03	26.5801
2990.87	24.1563
2991.71	28.1193
2992.55	22.9461
2993.38	24.936
2994.22	24.6495
2995.06	26.6099
2995.9	25.4205
2996.73	26.218
2997.57	26.6942
2998.41	27.5328
2999.25	24.0505
3000.08	24.8325
3000.92	24.0613
3001.76	22.6915
3002.59	22.0639
3003.43	26.5991
3004.27	23.7168
3005.1	21.6193
3005.94	26.1161
3006.78	24.4556
3007.61	22.9141
3008.45	24.0907
3009.28	24.3374
3010.12	23.245
3010.95	23.5143
3011.79	21.8124
3012.62	23.5054
3013.46	21.9057
3014.29	23.8089
3015.13	23.6006
3015.96	22.8938
3016.8	22.0583
3017.63	22.1635
3018.47	21.4239
3019.3	23.9708
3020.14	22.8892
3020.97	24.6583
3021.8	24.8074
3022.64	23.1044
3023.47	21.0336
3024.3	24.9211
3025.14	21.9058
3025.97	22.6922
3026.8	20.714
3027.64	22.4654
3028.47	21.1791
3029.3	23.9307
3030.14	22.4968
3030.97	19.3797
3031.8	21.0602
3032.63	21.587
3033.46	21.9341
3034.3	21.7807
3035.13	22.714
3035.96	22.3762
3036.79	22.2238
3037.62	22.4847
3038.46	22.6948
3039.29	24.4759
3040.12	24.3952
3040.95	24.8004
3041.78	22.9196
3042.61	23.21
3043.44	25.1891
3044.27	22.8551
3045.1	23.7374
3045.93	24.574
3046.76	23.2132
3047.59	23.2924
3048.42	23.1984
3049.25	24.0032
3050.08	22.1133
3050.91	21.4482
3051.74	22.5256
3052.57	21.673
3053.4	22.9224
3054.23	24.0505
3055.06	24.0123
3055.89	24.6208
3056.72	20.0049
3057.32	20
3058.15	22.5
3058.98	20.5
3059.82	23
3060.65	21.5
3061.48	21.5
3062.31	23
3063.15	20.5
3063.98	25.5
3064.81	24
3065.64	23.5
3066.48	25
3067.31	19
3068.14	21
3068.97	22.5
3069.8	26.5
3070.63	20
3071.47	23.5
3072.3	23
3073.13	25.5
3073.96	20.5
3074.79	21.5
3075.62	24
3076.45	23
3077.28	23
3078.11	24.5
3078.94	29
3079.77	25.5
3080.6	22
3081.43	24
3082.26	21
3083.09	26.5
3083.92	19
3084.75	28.5
3085.58	21.5
3086.41	22
3087.24	23
3088.07	24
3088.9	20.5
3089.73	21.5
3090.55	22
3091.38	22.5
3092.21	26
3093.04	25
3093.87	26
3094.7	29.5
3095.52	21.5
3096.35	22
3097.18	21.5
3098.01	22.5
3098.84	22.5
3099.66	24
3100.49	21
3101.32	22.5
3102.14	21.5
3102.97	24.5
3103.8	25.5
3104.62	24.5
3105.45	25
3106.28	25
3107.1	20.5
3107.93	27
3108.76	24
3109.58	24
3110.41	21
3111.23	23.5
3112.06	22
3112.89	23.5
3113.71	25.5
3114.54	21.5
3115.36	22
3116.19	25
3117.01	22.5
3117.84	26.5
3118.66	24.5
3119.49	21
3120.31	20
3121.13	21.5
3121.96	18.5
3122.78	20
3123.61	25
3124.43	26.5
3125.25	22.5
3126.08	20
3126.9	21
3127.73	23
3128.55	23
3129.37	21
3130.19	25
3131.02	21
3131.84	23
3132.66	26
3133.49	23.5
3134.31	24
3135.13	24
3135.95	26
3136.78	24
3137.6	23.5
3138.42	27.5
3139.24	22.5
3140.06	29.5
3140.88	23.5
3141.71	20
3142.53	21
3143.35	20
3144.17	19.5
3144.99	23.5
3145.81	21.5
3146.63	24
3147.45	27
3148.27	22
3149.09	25.5
3149.91	26
3150.73	24.5
3151.56	24.5
3152.37	22
3153.2	25.5
3154.01	18
3154.83	23
3155.65	22
3156.47	23.5
3157.29	19.5
3158.11	27
3158.93	25
3159.75	21.5
3160.57	25
3161.39	25
3162.21	19
3163.02	23.5
3163.84	25
3164.66	21
3165.48	25
3166.3	26
3167.11	25.5
3167.93	23.5
3168.75	24.5
3169.57	25
3170.39	19.5
3171.2	21.5
3172.02	27
3172.84	21.5
3173.65	23
3174.47	23
3175.29	22.5
3176.1	23.5
3176.92	21
3177.74	20.5
3178.55	20.5
3179.37	22
3180.19	28
3181	23
3181.82	21
3182.63	20.5
3183.45	19
3184.27	22.5
3185.08	21
3185.9	22
3186.71	20
3187.53	20
3188.34	23.5
3189.16	25
3189.97	22.5
3190.79	21
3191.6	21
3192.41	22.5
3193.23	26
3194.04	20.5
3194.86	24
3195.67	23
3196.48	23
3197.3	28
3198.11	24
3198.93	22.5
3199.74	20.5
3200.55	24
3201.36	24.5
3202.18	23.5
3202.99	18
3203.8	25
3204.62	21
3205.43	24
3206.24	25.5
3207.05	24
3207.87	22
3208.68	23.5
3209.49	21
3210.3	22.5
3211.11	22.5
3211.93	26.5
3212.74	18
3213.55	25
3214.36	21.5
3215.17	22
3215.98	25
3216.79	24
3217.6	20.5
3218.41	25
3219.22	23.5
3220.03	23.5
3220.85	22
3221.66	21
3222.47	22.5
3223.28	24
3224.09	22
3224.9	19
3225.71	22.5
3226.52	24.5
3227.33	22
3228.13	21
3228.94	25
3229.75	24.5
3230.56	24.5
3231.37	25
3232.18	24.5
3232.99	27
3233.8	27.5
3234.61	23.5
3235.41	23.5
3236.22	20
3237.03	20
3237.84	23.5
3238.65	27.5
3239.45	19.5
3240.26	25
3241.07	23.5
3241.88	24
3242.68	24
3243.49	27
3244.3	24
3245.1	23.5
3245.91	25
3246.72	21
3247.53	24
3248.33	21.5
3249.14	26
3249.95	24.5
3250.75	22
3251.56	22
3252.36	25.5
3253.17	24
3253.97	25.5
3254.78	25.5
3255.59	21
3256.39	19.5
3257.2	20.5
3258	23.5
3258.81	22.5
3259.61	24
3260.42	22
3261.22	25.5
3262.03	25
3262.83	21
3263.64	21.5
3264.44	23.5
3265.24	22.5
3266.05	20.5
3266.85	21
3267.66	26
3268.46	21
3269.26	22
3270.07	21.5
3270.87	24
3271.67	23
3272.48	20
3273.28	23.5
3274.08	21.5
3274.89	26
3275.69	27
3276.49	19.5
3277.29	25.5
3278.1	26
3278.9	24
3279.7	24.5
3280.5	24.5
3281.3	26
3282.11	26
3282.91	23
3283.71	23
3284.51	23
3285.31	20.5
3286.11	23.5
3286.91	23.5
3287.72	24
3288.52	25.5
3289.32	26.5
3290.12	26
3290.92	26.5
3291.72	24
3292.52	25
3293.32	23
3294.12	26
3294.92	20
3295.72	21
3296.52	26
3297.32	28
3298.12	25
3298.92	23
3299.72	22
3300.52	26
3301.32	21
3302.12	23.5
3302.92	20
3303.71	21
3304.51	24
3305.31	23.5
3306.11	22.5
3306.91	22
3307.71	22
3308.5	25.5
3309.3	22.5
3310.1	22
3310.9	22.5
3311.7	22
3312.49	28
3313.29	24.5
3314.09	23.5
3314.89	21.5
3315.68	22.5
3316.48	20
3317.28	23.5
3318.07	24.5
3318.87	26
3319.67	23
3320.46	26
3321.26	24
3322.06	23.5
3322.85	19.5
3323.65	23.5
3324.44	24.5
3325.24	24
3326.04	23
3326.83	25
3327.63	27
3328.42	26
3329.22	28.5
3330.01	24
3330.81	22
3331.6	26.5
3332.4	24
3333.19	25
3333.99	25
3334.78	26.5
3335.58	24.5
3336.37	24
3337.17	22.5
3337.96	23.5
3338.75	22
3339.55	22.5
3340.34	22
3341.13	27
3341.93	24
3342.72	25.5
3343.51	22
3344.31	23
3345.1	25
3345.89	23.5
3346.69	19.5
3347.48	23
3348.27	28
3349.06	24
3349.86	20
3350.65	23.5
3351.44	21
3352.23	17.5
3353.03	26
3353.82	25.5
3354.61	26
3355.4	20.5
3356.19	22
3356.98	23
3357.78	22
3358.57	24
3359.36	24
3360.15	26
3360.94	24.5
3361.73	17.5
3362.52	26
3363.31	28
3364.1	22
3364.89	24.5
3365.68	24
3366.47	28
3367.26	24.5
3368.05	26
3368.84	23.5
3369.63	25
3370.42	22
3371.21	23
3372	26
3372.79	23.5
3373.58	24
3374.37	24.5
3375.16	21
3375.95	26.5
3376.73	22.5
3377.52	22.5
3378.31	25
3379.1	25.5
3379.89	24
3380.68	26
3381.46	26
3382.25	22.5
3383.04	23
3383.83	22.5
3384.62	25
3385.4	22
3386.19	24
3386.98	25.5
3387.76	22
3388.55	20.5
3389.34	23
3390.13	23
3390.91	22
3391.7	24
3392.49	26
3393.27	23.5
3394.06	22.5
3394.84	25
3395.63	25.5
3396.42	23
3397.2	26
3397.99	26
3398.77	26
3399.56	23.5
3400.34	25.5
3401.13	21.5
3401.92	24
3402.7	28
3403.49	25
3404.27	23
3405.06	24
3405.84	24.5
3406.62	21.5
3407.41	24.5
3408.19	28
3408.98	22.5
3409.76	22.5
3410.55	22
3411.33	22
3412.11	29
3412.9	22.5
3413.68	25
3414.46	20.5
3415.25	23.5
3416.03	19
3416.81	22.5
3417.6	22
3418.38	21
3419.16	22
3419.95	22
3420.73	24.5
3421.51	24
3422.29	22
3423.08	25.5
3423.86	25.5
3424.64	26
3425.42	21.5
3426.2	23
3426.98	23.5
3427.77	23.5
3428.55	24
3429.33	25
3430.11	29
3430.89	22
3431.67	26
3432.45	26
3433.24	26
3434.02	17.5
3434.8	21
3435.58	21.5
3436.36	23
3437.14	22.5
3437.92	26.5
3438.7	25.5
3439.48	21
3440.26	28.5
3441.04	22
3441.82	25
3442.6	22.5
3443.38	23.5
3444.16	26.5
3444.94	24
3445.71	22
3446.49	23.5
3447.27	24
3448.05	28
3448.83	18.5
3449.61	23
3450.39	24
3451.17	22.5
3451.94	22
3452.72	24.5
3453.5	23.5
3454.28	25
3455.06	21
3455.83	22.5
3456.61	23.5
3457.39	24.5
3458.17	28
3458.94	22
3459.72	25
3460.5	22.5
3461.28	24
3462.05	24
3462.83	21
3463.61	24.5
3464.38	22.5
3465.16	23
3465.93	27
3466.71	22
3467.49	25
3468.26	26
3469.04	19.5
3469.82	27
3470.59	25.5
3471.37	24
3472.14	22
3472.92	20
3473.69	24.5
3474.47	21.5
3475.24	22.5
3476.02	26
3476.79	24
3477.57	25
3478.34	23
3479.12	27
3479.89	25.5
3480.67	25
3481.44	27
3482.21	22
3482.99	24
3483.76	19.5
3484.54	25
3485.31	23
3486.08	24.5
3486.86	28
3487.63	26
3488.4	23
3489.18	22.5
3489.95	19.5
3490.72	23.5
3491.5	25
3492.27	25
3493.04	25.5
3493.81	25
3494.59	23
3495.36	20
3496.13	19
3496.9	21
3497.67	23
3498.45	23.5
3499.22	25.5
3499.99	25
