#Acq. time (s)=	5
#Accumulations=	5
#Range (cm-¹)=	100...3500
#Windows=	4
#Autofocus=	Off
#AutoExposure=	Off
#Spike filter=	Multiple accum.
#Delay time (s)=	0
#Binning=	1
#Readout mode=	Signal
#DeNoise=	Off
#ICS correction=	Off
#Dark correction=	Off
#Inst. Process=	Off
#Instrument=	LabRAM HR Evol
#Detector=	Syncerity OE
#Objective=	x100_VIS
#Grating=	600 (500nm)
#ND Filter=	25%
#Laser=	633nm_Edge
#Hole=	100.021
#Range=	Visible
#Project=	verificaciones
#Sample=	a5
#Site=	plain
#Title=	bolusa5plain
#Remark=	
#Date=	09.01.2026 14:15
#Acquired=	09.01.2026 14:15:59
100.695	28
101.978	31.5
103.262	34.5
104.545	30
105.829	34
107.112	33
108.394	28.5
109.676	28
110.958	32
112.24	28
113.522	30.5
114.803	29.5
116.084	31
117.365	32.5
118.646	33
119.927	29
121.207	29
122.487	31
123.767	32
125.047	35
126.326	34
127.606	35.5
128.885	31.5
130.164	27.5
131.442	35
132.721	30
133.999	31
135.277	32
136.555	38
137.831	32
139.109	32
140.386	35.5
141.663	36
142.94	35.5
144.216	35
145.493	34
146.769	40.5
148.043	38.5
149.319	34
150.595	45.5
151.87	36.5
153.145	38.5
154.42	37.5
155.693	40
156.968	42.5
158.242	40
159.516	39.5
160.79	41
162.062	42
163.336	43
164.609	36.5
165.882	41
167.153	39.5
168.426	41.5
169.699	35.5
170.971	42.5
172.241	40
173.513	38.5
174.785	36.5
176.055	41
177.326	38
178.597	39.5
179.866	39
181.137	39.5
182.407	40
183.676	36.5
184.946	37
186.216	40.5
187.484	37.5
188.753	40
190.022	36.5
191.29	38
192.558	40
193.825	43
195.094	41
196.36	42
197.628	37
198.896	38.5
200.162	37
201.429	40.5
202.695	37
203.962	37.5
205.227	40
206.493	38.5
207.758	38
209.024	34
210.289	37.5
211.554	38
212.818	35.5
214.083	37
215.347	33
216.612	35.5
217.875	33
219.138	34
220.402	35
221.665	34.5
222.928	34.5
224.19	32.5
225.454	34.5
226.715	30.5
227.977	30
229.24	36.5
230.501	32
231.762	29.5
233.024	29.5
234.284	36.5
235.546	33.5
236.806	37
238.066	32
239.327	26.5
240.587	30
241.846	31
243.105	29
244.365	32.5
245.624	30.5
246.882	32
248.142	31
249.4	30.5
250.658	28
251.916	28
253.174	27
254.432	32.5
255.689	30.5
256.945	31.5
258.202	30
259.46	29
260.716	29
261.972	28.5
263.228	32.5
264.483	26
265.74	28
266.996	25.5
268.251	30
269.505	30
270.76	31.5
272.014	30
273.268	25
274.522	28.5
275.778	28.5
277.031	26.5
278.285	27
279.538	30
280.791	29
282.043	29.5
283.296	26
284.548	24.5
285.8	30.5
287.052	29
288.304	23.5
289.556	29.5
290.807	27
292.058	26
293.309	23
294.56	24
295.81	24.5
297.061	30.5
298.311	30.5
299.561	26.5
300.81	27.5
302.06	24
303.309	26.5
304.558	23
305.807	28.5
307.056	28.5
308.305	26.5
309.551	31
310.8	30.5
312.047	32
313.295	31.5
314.543	29
315.79	27.5
317.037	26
318.284	29.5
319.529	27.5
320.776	26
322.022	26.5
323.268	29.5
324.514	31.5
325.758	26
327.004	28
328.249	31
329.494	34.5
330.739	24.5
331.982	26.5
333.227	29
334.471	27
335.715	29
336.958	32.5
338.201	30
339.445	28
340.687	29
341.93	27.5
343.173	28.5
344.414	29
345.657	29
346.899	29
348.14	26.5
349.381	26.5
350.623	29
351.863	30.5
353.104	30.5
354.346	32
355.585	29.5
356.826	29
358.065	27.5
359.305	26
360.545	28.5
361.784	28.5
363.023	27.5
364.261	31.5
365.501	28.5
366.738	27
367.977	27
369.216	30
370.453	31.5
371.691	27.5
372.928	30.5
374.166	26
375.402	27
376.64	26
377.876	30
379.111	27.5
380.348	32
381.584	25
382.82	25
384.055	25
385.291	28
386.526	31
387.76	31
388.996	32.5
390.229	29
391.465	25.5
392.698	32.5
393.931	27.5
395.166	30
396.399	27.5
397.632	27.5
398.866	28
400.098	26.5
401.33	29
402.563	29.5
403.795	28
405.027	24
406.259	33
407.491	29
408.721	30
409.954	28.5
411.184	28
412.415	26.5
413.645	28.5
414.876	24.5
416.106	28.5
417.335	27
418.565	31
419.794	27.5
421.024	28.5
422.253	27
423.482	29.5
424.71	27
425.938	23
427.168	26
428.396	27
429.623	30
430.851	32
432.078	27.5
433.305	30
434.532	30
435.758	26.5
436.986	30
438.212	29.5
439.438	29
440.664	31
441.89	28.5
443.115	28
444.34	30
445.566	24
446.79	30.5
448.015	31
449.24	33
450.464	25.5
451.688	28
452.912	33.5
454.135	30.5
455.359	30
456.582	28
457.805	28
459.028	30
460.251	29
461.473	30
462.696	32
463.918	32.5
465.14	30
466.36	38
467.582	35
468.803	28
470.024	32
471.245	34
472.466	34
473.686	33
474.907	37.5
476.126	40.5
477.346	43
478.565	43
479.785	46
481.004	49.5
482.224	47
483.441	46
484.66	49.5
485.879	56.5
487.097	62
488.314	56
489.532	54
490.75	61
491.967	57
493.184	59.5
494.401	52.5
495.618	56
496.835	48
498.05	44.5
499.267	48.5
500.483	45
501.698	40.5
502.913	42
504.129	44
505.343	38
506.559	34
507.774	41.5
508.987	38
510.202	32.5
511.415	32.5
512.63	37
513.844	33.5
515.056	32.5
516.27	33.5
517.482	33
518.696	28.5
519.907	32
521.121	32.5
522.332	31
523.545	30
524.757	34
525.968	28
527.18	30.5
528.39	30
529.602	29.5
530.812	31.5
532.023	34.5
533.233	31
534.443	32.5
535.653	29.5
536.862	35
538.073	27.5
539.281	31.5
540.491	28.5
541.7	29.5
542.908	29.5
544.117	26.5
545.325	29
546.534	32
547.741	27
548.949	30.5
550.157	28
551.364	25
552.57	33
553.778	23
554.985	27
556.191	26
557.398	28.5
558.604	22
559.809	26
561.014	28
562.221	29.5
563.426	31.5
564.63	27
565.835	32
567.041	30.5
568.245	28.5
569.449	30
570.653	30.5
571.856	29
573.061	24
574.264	29.5
575.467	28
576.67	32.5
577.873	31
579.076	28.5
580.279	24.5
581.481	25.5
582.683	31
583.884	27
585.086	28
586.287	27
587.488	30.5
588.689	28.5
589.891	28.5
591.092	24
592.292	29
593.492	30
594.692	26.5
595.892	29.5
597.092	28
598.291	30
599.49	25
600.689	27
601.888	30
603.087	24
604.285	31.5
605.483	29
606.681	29
607.879	24
609.077	26.5
610.274	27.5
611.472	27.5
612.668	31
613.865	28
615.061	28
616.258	30
617.454	30
618.65	27
619.846	29
621.042	29
622.238	32
623.432	29.5
624.627	25
625.822	30
627.017	28.5
628.212	28.5
629.406	33.5
630.599	28.5
631.793	28
632.987	26
634.181	30
635.373	30
636.566	29
637.76	26
638.953	30
640.144	28
641.337	26
642.529	22
643.721	26
644.912	27
646.104	29.5
647.295	27.5
648.485	29.5
649.677	29.5
650.868	29.5
652.057	31
653.248	26
654.437	28.5
655.628	24.5
656.818	29
658.006	30
659.196	28
660.384	29.5
661.574	29
662.763	31
663.951	32
665.14	25
666.327	29
667.515	31
668.702	28
669.891	28
671.077	32
672.265	30.5
673.451	29
674.638	29.5
675.824	35
677.011	29.5
678.197	35
679.383	30.5
680.568	33.5
681.755	36
682.939	31.5
684.124	30.5
685.309	33.5
686.494	36.5
687.679	36.5
688.863	35.5
690.046	35
691.231	34.5
692.414	35
693.599	31
694.781	35.5
695.964	37.5
697.148	34.5
698.33	33
699.512	34
700.694	32
701.877	38.5
703.059	40
704.24	41.5
705.423	40.5
706.604	44
707.784	47.5
708.965	52.5
710.147	50
711.327	48.5
712.507	43.5
713.687	40.5
714.867	41
716.048	35
717.227	33.5
718.406	36.5
719.585	32
720.764	33.5
721.942	28.5
723.122	28
724.3	24
725.478	24
726.656	27.5
727.834	30
729.011	30
730.189	28.5
731.366	27.5
732.543	30
733.719	25.5
734.896	28.5
736.072	29.5
737.249	30.5
738.426	30
739.602	27.5
740.777	30
741.953	27
743.128	31
744.303	27.5
745.477	28
746.651	29
747.826	26.5
749	27
750.174	26.5
751.348	30
752.522	27.5
753.696	31.5
754.869	30
756.043	29
757.216	27.5
758.389	30
759.561	28
760.732	28.5
761.905	28.5
763.077	25.5
764.249	24
765.421	30
766.592	28
767.762	32
768.934	24
770.105	26.5
771.275	27.5
772.446	29
773.615	30
774.786	33
775.956	27.5
777.126	28
778.294	25
779.464	33
780.633	25
781.801	31
782.97	27.5
784.139	30
785.306	29.5
786.475	35
787.643	31
788.81	32
789.978	36
791.146	30
792.312	27
793.479	32.5
794.647	31
795.812	29
796.979	29.5
798.144	29
799.311	29
800.477	31.5
801.642	25.5
802.808	30
803.972	27.5
805.138	30
806.302	26.5
807.467	26
808.631	30
809.796	29
810.959	24
812.124	31
813.287	31
814.451	30
815.614	31
816.777	30.5
817.94	28
819.102	24
820.265	25.5
821.427	25.5
822.59	29
823.751	24.5
824.912	29
826.074	26.5
827.235	28.5
828.397	27.5
829.558	31
830.718	31
831.879	27
833.039	26.5
834.199	25.5
835.359	28
836.519	32
837.679	26
838.838	31
839.998	24.5
841.156	24
842.315	29.5
843.473	26.5
844.633	27
845.791	26
846.948	32
848.106	26
849.263	30.5
850.422	28
851.579	26.5
852.736	28
853.892	27
855.049	29
856.205	32
857.363	29.5
858.519	29.5
859.674	29
860.83	26.5
861.986	26.5
863.141	29.5
864.296	28
865.451	25.5
866.605	29
867.76	30.5
868.914	26.5
870.069	31
871.224	23
872.378	28
873.531	30.5
874.685	32.5
875.838	31
876.991	25
878.144	28.5
879.296	27
880.448	29.5
881.6	26.5
882.753	28
883.905	30
885.057	27
886.208	25
887.36	28.5
888.511	24
889.662	30
890.813	31
891.964	30
893.113	26.5
894.264	28.5
895.414	26.5
896.564	27.5
897.714	27
898.864	26.5
900.012	27.5
901.161	29
902.31	23.5
903.459	22
904.607	27
905.756	26.5
906.904	22.5
908.052	27.5
909.199	26
910.347	25
911.495	25
912.643	29
913.789	27
914.936	28
916.083	28.5
917.229	29
918.375	28.5
919.522	27.5
920.667	27
921.813	26.5
922.959	24
924.104	27
925.249	32.5
926.393	27.5
927.539	24.5
928.684	25.5
929.827	27.5
930.972	27
932.115	19.5
933.26	29.5
934.403	27
935.547	23
936.689	27
937.833	25.5
938.975	27
940.119	25
941.26	25.5
942.404	23
943.545	25.5
944.688	25.5
945.829	24.5
946.971	22.5
948.112	28.5
949.253	26
950.394	25
951.535	23
952.676	27
953.816	25.5
954.956	25
956.097	27.5
957.236	26.5
958.377	30
959.516	25
960.655	24.5
961.793	24
962.933	24.5
964.071	24
965.21	24.5
966.349	25
967.487	26.5
968.624	25
969.762	29
970.901	29.25
972.038	27.5
973.175	27
974.311	24.5
975.449	26
976.586	26
977.722	24
978.858	22
979.994	25.5
981.131	24.5
982.267	28.5
983.402	26.5
984.537	24
985.672	25.5
986.807	25
987.942	23
989.076	25
990.211	27.5
991.346	24
992.48	26
993.614	29
994.748	29
995.881	22.5
997.014	29.5
998.148	27.5
999.28	25
1000.41	22
1001.55	25.5
1002.68	26
1003.81	25.5
1004.94	23.5
1006.07	23
1007.21	26.5
1008.34	30.5
1009.47	26
1010.6	26
1011.73	25
1012.86	26
1013.99	28
1015.12	23
1016.25	23
1017.38	28
1018.51	23.5
1019.64	25.5
1020.77	30.5
1021.9	24
1023.03	25.5
1024.16	25.5
1025.29	23
1026.42	27
1027.54	25.5
1028.67	27
1029.8	22
1030.93	27.5
1032.06	26
1033.18	24
1034.31	21
1035.44	24.5
1036.56	25
1037.69	26.5
1038.82	26
1039.94	25.5
1041.07	27
1042.2	26
1043.32	22.5
1044.45	22
1045.57	24
1046.7	27.5
1047.82	23.5
1048.95	25
1050.07	24.5
1051.2	25.5
1052.32	26.5
1053.45	24
1054.57	27.5
1055.69	21
1056.82	24
1057.94	25
1059.06	25
1060.19	27.5
1061.31	25.5
1062.43	27
1063.55	28
1064.68	23.5
1065.8	27.5
1066.92	26
1068.04	30.5
1069.16	26
1070.28	21
1071.41	24
1072.53	28
1073.65	25
1074.77	26
1075.89	23
1077.01	25.5
1078.13	23.5
1079.25	21.5
1080.37	22
1081.49	24.5
1082.61	23.5
1083.73	27
1084.85	25.5
1085.96	26
1087.08	25
1088.2	25.5
1089.32	26
1090.44	27
1091.56	26
1092.67	24.5
1093.79	26
1094.91	26
1096.03	24.5
1097.14	25
1098.26	25
1099.38	27
1100.49	25.5
1101.61	26.5
1102.73	24.5
1103.84	25
1104.96	19
1106.07	21
1107.19	23.5
1108.3	25
1109.42	25.5
1110.53	26.5
1111.65	22
1112.76	24
1113.88	22
1114.99	27
1116.1	23
1117.22	25
1118.33	24
1119.44	25.5
1120.56	23
1121.67	25.5
1122.78	25
1123.9	24.5
1125.01	22.5
1126.12	21
1127.23	23.5
1128.34	22.5
1129.46	27.5
1130.57	26.5
1131.68	26
1132.79	24
1133.9	24
1135.01	25.5
1136.12	23.5
1137.23	24
1138.34	24
1139.45	24.5
1140.56	28
1141.67	24
1142.78	31
1143.89	22.5
1145	26.5
1146.11	25
1147.22	26.5
1148.33	25
1149.44	26.5
1150.54	22.5
1151.65	26.5
1152.76	21.5
1153.87	27.5
1154.97	25.5
1156.08	23.5
1157.19	22
1158.3	24.5
1159.4	28
1160.51	27
1161.62	23
1162.72	25
1163.83	26.5
1164.93	27.5
1166.04	24
1167.15	26.5
1168.25	26.5
1169.36	29.5
1170.46	24.5
1171.57	26.5
1172.67	23
1173.78	27
1174.88	24
1175.98	24
1177.09	24
1178.19	25
1179.3	21.5
1180.4	24
1181.5	22.5
1182.61	22.5
1183.71	20.5
1184.81	23.5
1185.91	27
1187.02	24.5
1188.12	21.5
1189.22	24.5
1190.32	25
1191.42	22
1192.53	27
1193.63	25.5
1194.73	23.9955
1195.83	21.4798
1196.93	22.958
1198.03	28.3434
1199.13	19.2105
1200.23	24.0589
1201.33	26.8989
1202.43	26.7896
1203.53	23.7983
1204.63	24.1413
1205.73	26.6151
1206.83	28.2085
1207.93	23.7596
1209.02	26.6393
1210.12	22.977
1211.22	26.7202
1212.32	23.9876
1213.42	22.2929
1214.52	24.1406
1215.61	23.9451
1216.71	21.2474
1217.81	22.3921
1218.91	24.268
1220	25.0263
1221.1	25.1157
1222.2	25.6612
1223.29	24
1224.39	23.1577
1225.49	23.3217
1226.58	26.5563
1227.68	23.6028
1228.77	26.0521
1229.87	20.8134
1230.96	25.8617
1232.06	26.814
1233.15	24.3967
1234.25	24.4379
1235.34	27.0172
1236.44	25.2385
1237.53	24.6751
1238.63	24.7705
1239.72	26.1727
1240.81	23.9042
1241.91	23.6684
1243	24.0086
1244.09	26.1097
1245.19	25.1043
1246.28	23.3392
1247.37	22.7088
1248.46	25.3953
1249.56	25.2687
1250.65	25.4894
1251.74	24.9899
1252.83	25.7568
1253.92	27.5649
1255.01	26.8649
1256.11	23.4055
1257.2	24.4052
1258.29	23.028
1259.38	26.0799
1260.47	25.2256
1261.56	24.2867
1262.65	24.5722
1263.74	25.1655
1264.83	28.6671
1265.92	26.1903
1267.01	25.3627
1268.1	25.5009
1269.19	23.8923
1270.27	25.5972
1271.36	22.4235
1272.45	24.2184
1273.54	23.5511
1274.63	24.254
1275.72	22.5502
1276.8	22.9033
1277.89	26.1488
1278.98	24.4721
1280.07	24.3573
1281.15	24.9855
1282.24	23.3061
1283.33	25.74
1284.41	23.8288
1285.5	26.1355
1286.59	22.4683
1287.67	23.4441
1288.76	24.1867
1289.84	24.6607
1290.93	27.0873
1292.01	25.1752
1293.1	22.4191
1294.19	22.9759
1295.27	23.4532
1296.35	22.3844
1297.44	23.8988
1298.52	25.8915
1299.61	27.4481
1300.69	25.855
1301.78	27.1514
1302.86	21.0063
1303.94	22.9915
1305.03	26.6859
1306.11	23.8235
1306.4	22.5
1307.49	25.5
1308.57	27.5
1309.66	20.5
1310.75	25.5
1311.84	25
1312.92	27
1314.01	24
1315.1	27.5
1316.19	21
1317.27	25
1318.36	26.5
1319.45	24
1320.53	22
1321.62	21.5
1322.7	25
1323.79	23
1324.88	25
1325.96	21.5
1327.05	24
1328.13	24.5
1329.21	21.5
1330.3	26.5
1331.38	24
1332.47	21.5
1333.55	26
1334.64	22.5
1335.72	22.5
1336.8	27.5
1337.89	22
1338.97	26
1340.05	22.5
1341.14	24.5
1342.22	22
1343.3	27
1344.39	19.5
1345.47	22.5
1346.55	25
1347.63	24.5
1348.71	24
1349.79	25
1350.88	20.5
1351.96	23.5
1353.04	20.5
1354.12	25
1355.2	22
1356.28	24
1357.36	27
1358.44	25
1359.52	30
1360.6	27.5
1361.68	25.5
1362.76	24.5
1363.84	22.5
1364.92	23
1366	23
1367.08	23
1368.16	23.5
1369.23	23
1370.31	22
1371.39	24
1372.47	22.5
1373.55	23
1374.62	25
1375.7	24.5
1376.78	26.5
1377.85	26
1378.93	27
1380.01	24
1381.09	24
1382.16	27.5
1383.24	27
1384.31	27
1385.39	28
1386.47	25.5
1387.54	23
1388.62	26
1389.69	24
1390.77	24.5
1391.84	26
1392.92	28.5
1393.99	24.5
1395.06	30
1396.14	28
1397.21	25
1398.29	31
1399.36	25
1400.43	30
1401.51	28.5
1402.58	32.5
1403.65	29.5
1404.73	29.5
1405.8	30
1406.87	27.5
1407.94	29
1409.02	31
1410.09	31.5
1411.16	30.5
1412.23	31.5
1413.3	31
1414.37	31.5
1415.45	31.5
1416.52	29.5
1417.59	27.5
1418.66	29.5
1419.73	26.5
1420.8	24
1421.87	26.5
1422.94	29
1424.01	28
1425.08	29.5
1426.15	24.5
1427.22	22
1428.29	27
1429.35	27.5
1430.42	28.5
1431.49	25
1432.56	27
1433.63	27
1434.7	22
1435.77	27.5
1436.83	24
1437.9	21
1438.97	29
1440.04	24.5
1441.1	23.5
1442.17	25
1443.24	28
1444.3	25
1445.37	27.5
1446.44	23
1447.5	28
1448.57	26
1449.63	26
1450.7	26
1451.76	25
1452.83	22.5
1453.89	26.5
1454.96	27.5
1456.02	25
1457.09	26
1458.15	25.5
1459.22	27.5
1460.28	23
1461.34	26.5
1462.41	24.5
1463.47	23
1464.54	26
1465.6	28.5
1466.66	20
1467.72	27.5
1468.79	25.5
1469.85	26.5
1470.91	22.5
1471.97	29.5
1473.04	26.5
1474.1	24.5
1475.16	24.5
1476.22	25.5
1477.28	27
1478.34	22.5
1479.4	24.5
1480.47	28
1481.53	24.5
1482.59	29
1483.65	26
1484.71	23
1485.77	20
1486.83	24.5
1487.89	28
1488.95	24
1490.01	25.5
1491.07	27
1492.12	20
1493.18	22
1494.24	26
1495.3	24
1496.36	27
1497.42	24.5
1498.47	33
1499.53	23.5
1500.59	25
1501.65	27
1502.7	26
1503.76	24.5
1504.82	27
1505.88	26.5
1506.93	27.5
1507.99	29
1509.05	25.5
1510.1	25
1511.16	28.5
1512.21	25
1513.27	24
1514.32	23
1515.38	29
1516.43	25
1517.49	25.5
1518.54	25.5
1519.6	23.5
1520.65	29
1521.71	20.5
1522.76	24.5
1523.82	24.5
1524.87	23
1525.92	28
1526.98	24.5
1528.03	23
1529.08	22
1530.14	25
1531.19	25.5
1532.24	26.5
1533.3	28
1534.35	26
1535.4	29
1536.45	24
1537.5	25.5
1538.56	25
1539.61	19.5
1540.66	27
1541.71	22
1542.76	26.5
1543.81	26
1544.86	26
1545.91	26
1546.96	22.5
1548.01	23
1549.06	27.5
1550.11	23.5
1551.16	24
1552.21	23
1553.26	22
1554.31	25
1555.36	23.5
1556.41	21.5
1557.46	27
1558.51	25.5
1559.55	27.5
1560.6	29.5
1561.65	26
1562.7	26
1563.75	26
1564.79	25
1565.84	24.5
1566.89	26
1567.94	30
1568.98	24.5
1570.03	30.5
1571.07	27
1572.12	23
1573.17	25
1574.21	26.5
1575.26	25
1576.31	27
1577.35	24
1578.4	26.5
1579.44	25.5
1580.49	27
1581.53	25
1582.58	24
1583.62	24
1584.67	25.5
1585.71	25.5
1586.75	26
1587.8	24
1588.84	24.5
1589.89	25
1590.93	26.5
1591.97	23.5
1593.02	26
1594.06	27
1595.1	23
1596.14	26
1597.19	26
1598.23	25.5
1599.27	25
1600.31	27.5
1601.35	26
1602.4	26
1603.44	28.5
1604.48	29
1605.52	23.5
1606.56	27
1607.6	24
1608.64	25
1609.68	27.5
1610.72	25
1611.76	26.5
1612.8	27.5
1613.84	27.5
1614.88	26
1615.92	23.5
1616.96	19
1618	27.5
1619.04	25
1620.08	26
1621.12	27
1622.16	24.5
1623.19	25
1624.23	25
1625.27	26
1626.31	26
1627.35	27
1628.38	22
1629.42	30.5
1630.46	23
1631.5	23
1632.53	22.5
1633.57	25.5
1634.61	26.5
1635.64	26
1636.68	24
1637.71	24
1638.75	24.5
1639.79	21.5
1640.82	23.5
1641.86	25
1642.89	26
1643.93	23
1644.96	24
1646	25.5
1647.03	29
1648.07	27.5
1649.1	25
1650.14	22
1651.17	23
1652.2	22.5
1653.24	25
1654.27	22
1655.3	27.5
1656.34	24.5
1657.37	24
1658.4	24
1659.44	25
1660.47	25
1661.5	24
1662.53	25.5
1663.57	23
1664.6	23
1665.63	27.5
1666.66	24.5
1667.69	25
1668.72	22
1669.75	27
1670.79	24
1671.82	23
1672.85	24
1673.88	27
1674.91	24
1675.94	25.5
1676.97	22.5
1678	25.5
1679.03	23.5
1680.06	29.5
1681.09	25
1682.11	24
1683.14	23
1684.17	25
1685.2	26.5
1686.23	26
1687.26	29
1688.29	19.5
1689.32	26.5
1690.34	24
1691.37	21.5
1692.4	27.5
1693.43	29
1694.45	26.5
1695.48	24
1696.51	24
1697.53	23.5
1698.56	26.5
1699.59	26
1700.61	24
1701.64	26
1702.66	29
1703.69	26.5
1704.72	27
1705.74	26
1706.77	24
1707.79	26.5
1708.82	26
1709.84	26
1710.87	23
1711.89	27.5
1712.92	26.5
1713.94	24
1714.96	28
1715.99	23.5
1717.01	30
1718.04	28
1719.06	26
1720.08	25
1721.11	28.5
1722.13	25
1723.15	27.5
1724.17	22.5
1725.2	27.5
1726.22	24
1727.24	25.5
1728.26	27
1729.28	21.5
1730.31	26
1731.33	27
1732.35	25.5
1733.37	28
1734.39	24
1735.41	24
1736.43	24.5
1737.45	24
1738.47	25.5
1739.49	22.5
1740.51	25.5
1741.53	24.5
1742.55	27
1743.57	25.5
1744.59	25.5
1745.61	25.5
1746.63	25
1747.65	26.5
1748.67	27.5
1749.69	26
1750.71	26.5
1751.72	25
1752.74	21.5
1753.76	22
1754.78	28.5
1755.8	29
1756.81	27
1757.83	27
1758.85	22
1759.86	27.5
1760.88	21.5
1761.9	22
1762.91	24.5
1763.93	29
1764.95	23
1765.96	23
1766.98	27.5
1768	28
1769.01	25
1770.03	24
1771.04	22
1772.06	22.5
1773.07	18
1774.09	27.5
1775.1	23
1776.12	27.5
1777.13	23
1778.14	21.5
1779.16	22
1780.17	25
1781.19	23.5
1782.2	23
1783.21	23.5
1784.23	25.5
1785.24	19.5
1786.25	28
1787.27	27.5
1788.28	22
1789.29	21
1790.3	25
1791.32	28
1792.33	23.5
1793.34	25
1794.35	24
1795.36	28
1796.37	27
1797.38	24
1798.4	26.5
1799.41	23.5
1800.42	21
1801.43	20
1802.44	25
1803.45	26
1804.46	25.5
1805.47	28
1806.48	25.5
1807.49	26
1808.5	21
1809.51	25
1810.52	27
1811.53	26.5
1812.53	24
1813.54	26.5
1814.55	22.5
1815.56	24.5
1816.57	27
1817.58	25.5
1818.58	26
1819.59	23
1820.6	24
1821.61	22
1822.61	25.5
1823.62	25.5
1824.63	28.5
1825.64	21.5
1826.64	26.5
1827.65	22.5
1828.66	19
1829.66	24
1830.67	27
1831.67	27.5
1832.68	21.5
1833.68	24
1834.69	25.5
1835.7	24
1836.7	25.5
1837.71	23.5
1838.71	28.5
1839.71	20.5
1840.72	25.5
1841.72	26
1842.73	25
1843.73	23
1844.74	23
1845.74	22
1846.74	27.5
1847.75	25
1848.75	27
1849.75	23
1850.76	28.5
1851.76	21
1852.76	27.5
1853.76	23
1854.77	25
1855.77	26.5
1856.77	26.5
1857.77	27
1858.77	26.5
1859.78	21.5
1860.78	24
1861.78	20
1862.78	25.5
1863.78	22
1864.78	21
1865.78	27
1866.78	24
1867.78	26.5
1868.78	28
1869.78	29
1870.78	25.5
1871.78	23.5
1872.78	27
1873.78	22
1874.78	22
1875.78	26.5
1876.78	25.5
1877.78	27.5
1878.78	25
1879.77	22.5
1880.77	19
1881.77	25.5
1882.77	23
1883.77	23
1884.76	25.5
1885.76	25
1886.76	27
1887.76	23
1888.75	21
1889.75	29
1890.75	24.5
1891.74	28
1892.74	24
1893.74	27
1894.73	24.5
1895.73	22
1896.72	19
1897.72	25
1898.72	21.5
1899.71	24
1900.71	27.5
1901.7	25.5
1902.7	23.5
1903.69	23.5
1904.69	22.5
1905.68	22
1906.67	23.5
1907.67	22
1908.66	23
1909.66	25.5
1910.65	22
1911.64	23
1912.64	25.5
1913.63	22
1914.62	23.5
1915.62	24
1916.61	26
1917.6	23.5
1918.59	25.5
1919.59	20.5
1920.58	21
1921.57	22
1922.56	22
1923.55	22
1924.55	26.5
1925.54	23
1926.53	26.5
1927.52	23.5
1928.51	24
1929.5	22.5
1930.49	21
1931.48	22
1932.47	23.5
1933.46	20
1934.45	24
1935.44	24.5
1936.43	21
1937.42	24
1938.41	24.5
1939.4	25
1940.39	25
1941.38	22
1942.37	25
1943.36	26.5
1944.34	21.5
1945.33	25.5
1946.32	25
1947.31	26
1948.3	27.25
1949.28	27
1950.27	24.5
1951.26	25.5
1952.25	23
1953.23	24
1954.22	25.5
1955.21	22
1956.2	25
1957.18	21.5
1958.17	27
1959.15	25.5
1960.14	23
1961.13	22.5
1962.11	21.5
1963.1	22.5
1964.08	20
1965.07	22
1966.05	24
1967.04	21.5
1968.02	23
1969.01	22
1969.99	25
1970.98	25
1971.96	22.5
1972.94	24
1973.93	22.5
1974.91	21
1975.9	23.5
1976.88	22.5
1977.86	19.5
1978.85	25
1979.83	22
1980.81	25
1981.8	23.5
1982.78	23
1983.76	23.5
1984.74	21.5
1985.72	25.5
1986.71	24
1987.69	22
1988.67	20
1989.65	21.5
1990.63	23
1991.61	21.5
1992.6	25.5
1993.58	20.5
1994.56	23.5
1995.54	19.5
1996.52	24
1997.5	24
1998.48	22
1999.46	24.5
2000.44	25
2001.42	24.5
2002.4	26.5
2003.38	23
2004.36	23
2005.34	26
2006.32	26
2007.29	20.5
2008.27	24
2009.25	22
2010.23	21.5
2011.21	25
2012.19	23.5
2013.16	24.5
2014.14	21
2015.12	27
2016.1	22.5
2017.07	26.5
2018.05	23
2019.03	21
2020	21
2020.98	23.5
2021.96	27
2022.93	20
2023.91	22
2024.89	30
2025.86	22.5
2026.84	21.5
2027.81	27
2028.79	24.5
2029.77	22.5
2030.74	24.5
2031.72	26.5
2032.69	24
2033.67	27
2034.64	24.5
2035.61	22.5
2036.59	22.5
2037.56	22.5
2038.54	22.5
2039.51	24.5
2040.48	25.5
2041.46	24.5
2042.43	26.5
2043.41	29
2044.38	24.5
2045.35	21.5
2046.32	24.5
2047.3	21
2048.27	23.5
2049.24	22.5
2050.21	25
2051.19	25.5
2052.16	24
2053.13	24.5
2054.1	25.5
2055.07	22
2056.04	25
2057.02	22.5
2057.99	21.5
2058.96	25
2059.93	21
2060.9	26
2061.87	26.5
2062.84	26
2063.81	22
2064.78	20
2065.75	24
2066.72	24
2067.69	22
2068.66	26
2069.63	23.5
2070.6	23
2071.57	19
2072.53	23
2073.5	27.5
2074.47	26.5
2075.44	26
2076.41	23.5
2077.38	22
2078.34	27
2079.31	21.5
2080.28	24.5
2081.25	18
2082.21	25
2083.18	20.5
2084.15	20.5
2085.12	23
2086.08	23.5
2087.05	26
2088.02	22.5
2088.98	24.5
2089.95	24.5
2090.91	22
2091.88	25
2092.85	26
2093.81	25
2094.78	25.5
2095.74	23.5
2096.71	23.5
2097.67	27.5
2098.64	24.5
2099.6	21.5
2100.57	27
2101.53	20
2102.5	17.5
2103.46	24
2104.42	24.5
2105.39	24.5
2106.35	22
2107.31	19.5
2108.28	24.5
2109.24	25.5
2110.2	22.5
2111.17	23.5
2112.13	24
2113.09	24
2114.06	19
2115.02	23
2115.98	26
2116.94	23.5
2117.9	25
2118.86	23.5
2119.83	25.5
2120.79	28
2121.75	25
2122.71	23
2123.67	24
2124.63	22.5
2125.59	21
2126.55	22
2127.51	20
2128.48	25
2129.43	26
2130.4	25.5
2131.35	24.5
2132.31	23.5
2133.27	22.5
2134.23	23
2135.19	21.5
2136.15	25.5
2137.11	22.5
2138.07	22.5
2139.03	21
2139.99	19
2140.95	25
2141.9	23.5
2142.86	23.9829
2143.82	19.4983
2144.78	23.0627
2145.74	23.0627
2146.69	24.331
2147.65	20.675
2148.61	22.5573
2149.56	23.7646
2150.52	24.7545
2151.48	23.8236
2152.44	20.8491
2153.39	21.238
2154.35	20.9688
2155.3	20.5531
2156.26	22.6172
2157.22	22.154
2158.17	20.2421
2159.13	21.6219
2160.08	21.2831
2161.04	21.1568
2161.99	22.4757
2162.95	21.9175
2163.9	23.3695
2164.86	24.0684
2165.81	23.1649
2166.77	21.0611
2167.72	25.5966
2168.68	23.7328
2169.63	23.1074
2170.58	19.8235
2171.54	22.3714
2172.49	22.8446
2173.44	21.4957
2174.4	22.8893
2175.35	22.4511
2176.3	21.2475
2177.26	21.742
2178.21	23.0754
2179.16	21.6682
2180.11	22.5761
2181.07	23.4667
2182.02	21.6628
2182.97	23.2743
2183.92	20.6813
2184.88	23.3181
2185.83	22.3501
2186.78	22.565
2187.73	19.5833
2188.68	23.1637
2189.63	20.7736
2190.58	25.138
2191.53	20.9438
2192.48	20.2662
2193.43	22.2728
2194.38	24.5056
2195.33	23.2225
2196.28	20.698
2197.23	21.8069
2198.18	24.8439
2199.13	23.5766
2200.08	23.7067
2201.03	18.7191
2201.98	21.4981
2202.93	22.2071
2203.88	22.3738
2204.83	24.9835
2205.78	22.3944
2206.72	22.512
2207.67	22.3001
2208.62	20.7623
2209.57	21.411
2210.52	19.5684
2211.46	21.8819
2212.41	20.2895
2213.36	23.4845
2214.31	23.4586
2215.25	22.826
2216.2	24.0619
2217.15	23.4637
2218.09	21.3923
2219.04	21.5183
2219.99	25.1513
2220.93	21.0005
2221.88	20.7111
2222.83	21.4359
2223.77	23.4847
2224.72	22.2502
2225.66	22.3649
2226.61	22.1329
2227.55	24.4331
2228.5	22.5863
2229.44	24.4594
2230.39	20.681
2231.33	24.6174
2232.28	23.4028
2233.22	21.2651
2234.17	22.87
2235.11	23.6956
2236.05	22.849
2237	22.2682
2237.94	22.4104
2238.88	21.3021
2239.83	22.1673
2240.04	22.5
2240.98	24
2241.93	25
2242.88	22
2243.83	20
2244.78	23
2245.72	20
2246.67	24
2247.62	21
2248.56	22
2249.51	22.5
2250.46	24.5
2251.4	24.5
2252.35	20.5
2253.3	23.5
2254.24	23
2255.19	22.5
2256.14	20
2257.08	23.5
2258.03	21
2258.97	24
2259.92	23
2260.86	21
2261.81	20.5
2262.75	23.5
2263.7	19.5
2264.64	20.5
2265.59	22.5
2266.53	23.5
2267.48	26
2268.42	22
2269.36	23
2270.31	22.5
2271.25	26
2272.19	24
2273.14	25
2274.08	20.5
2275.02	22.5
2275.97	24
2276.91	22.5
2277.85	24
2278.8	19
2279.74	21
2280.68	23
2281.62	25
2282.56	23
2283.51	21
2284.45	16
2285.39	21.5
2286.33	24
2287.27	21.5
2288.21	22
2289.15	24
2290.09	21.5
2291.04	24
2291.98	26
2292.92	23
2293.86	18
2294.8	26
2295.74	21
2296.68	22
2297.62	23.5
2298.56	21.5
2299.5	22.5
2300.44	25
2301.37	18
2302.31	21.5
2303.25	22
2304.19	23.5
2305.13	20
2306.07	23.5
2307.01	20.5
2307.94	24.5
2308.88	21
2309.82	23
2310.76	23.5
2311.7	22
2312.63	29
2313.57	28
2314.51	23
2315.44	25
2316.38	21
2317.32	18.5
2318.26	19.5
2319.19	25
2320.13	23
2321.06	24.5
2322	24.5
2322.94	23
2323.87	22.5
2324.81	22.5
2325.74	23
2326.68	22
2327.61	24.5
2328.55	23
2329.48	24
2330.42	23.5
2331.35	22
2332.29	19.5
2333.22	26.5
2334.16	23
2335.09	23.5
2336.02	24
2336.96	24
2337.89	20
2338.83	24
2339.76	24.5
2340.69	23
2341.63	22.5
2342.56	26
2343.49	23
2344.42	27
2345.36	22
2346.29	20.5
2347.22	23.5
2348.15	21.5
2349.09	25
2350.02	22
2350.95	24
2351.88	23
2352.81	23
2353.74	26
2354.68	24
2355.61	21.5
2356.54	20
2357.47	25.5
2358.4	23.5
2359.33	25
2360.26	22.5
2361.19	22
2362.12	23
2363.05	20
2363.98	26.5
2364.91	24.5
2365.84	24
2366.77	27
2367.7	25
2368.63	21
2369.56	21
2370.49	25
2371.41	20
2372.34	24.5
2373.27	24.5
2374.2	23
2375.13	20
2376.06	26.5
2376.98	21.5
2377.91	23.5
2378.84	21.5
2379.77	29
2380.69	20
2381.62	21.5
2382.55	25.5
2383.47	21
2384.4	27.5
2385.33	24.5
2386.25	21
2387.18	25
2388.11	22.5
2389.03	22
2389.96	20
2390.89	29
2391.81	25.5
2392.74	23
2393.66	24
2394.59	23
2395.51	22
2396.44	24.5
2397.36	20
2398.29	25
2399.21	26
2400.14	21.5
2401.06	26
2401.99	25
2402.91	20
2403.83	27
2404.76	20
2405.68	26
2406.6	23.5
2407.53	23
2408.45	23.5
2409.37	20.5
2410.3	25
2411.22	22
2412.14	20
2413.06	23
2413.99	21
2414.91	23
2415.83	22
2416.75	25.5
2417.68	25.5
2418.6	25
2419.52	21
2420.44	21.5
2421.36	25.5
2422.28	22
2423.2	25
2424.12	20
2425.05	26.5
2425.97	20.5
2426.89	24
2427.81	25
2428.73	24.5
2429.65	22.5
2430.57	20.5
2431.49	20.5
2432.41	25.5
2433.33	23
2434.25	25.5
2435.17	22
2436.08	24
2437	24
2437.92	26.5
2438.84	24
2439.76	26
2440.68	25
2441.6	22
2442.51	26.5
2443.43	21
2444.35	25
2445.27	23.5
2446.19	24.5
2447.1	23.5
2448.02	28
2448.94	24
2449.85	22.5
2450.77	24
2451.69	21
2452.61	22
2453.52	24
2454.44	26.5
2455.35	24
2456.27	26.5
2457.19	24
2458.1	23.5
2459.02	26
2459.94	22
2460.85	22.5
2461.77	25.5
2462.68	23.5
2463.6	23.5
2464.51	21.5
2465.43	26
2466.34	23
2467.25	26
2468.17	24.5
2469.08	22
2470	25
2470.91	23
2471.83	23.5
2472.74	26.5
2473.65	24.5
2474.57	27
2475.48	26
2476.39	22.5
2477.31	21
2478.22	26
2479.13	22
2480.04	24
2480.96	22
2481.87	26
2482.78	21.5
2483.69	24
2484.6	24
2485.52	23
2486.43	30.5
2487.34	22
2488.25	24.5
2489.16	23
2490.07	25
2490.99	27.5
2491.9	20
2492.81	23
2493.72	26
2494.63	24
2495.54	25
2496.45	25
2497.36	25.5
2498.27	24
2499.18	22.5
2500.09	21.5
2501	27
2501.91	24.5
2502.82	27
2503.73	27
2504.63	25.5
2505.54	27
2506.45	22
2507.36	25
2508.27	25
2509.18	24.5
2510.09	20.5
2510.99	20.5
2511.9	25
2512.81	22.5
2513.72	24
2514.62	22.5
2515.53	23.5
2516.44	23.5
2517.35	22
2518.25	23
2519.16	26
2520.07	21.5
2520.97	26.5
2521.88	21
2522.79	24
2523.69	20.5
2524.6	25.5
2525.51	26
2526.41	23
2527.32	21.5
2528.22	26.5
2529.13	25.5
2530.03	21
2530.94	18
2531.84	26
2532.75	28
2533.65	25
2534.56	22
2535.46	25
2536.37	23
2537.27	29
2538.17	24
2539.08	25.5
2539.98	25.5
2540.89	26.5
2541.79	28.5
2542.69	24.5
2543.6	24.5
2544.5	26
2545.4	25
2546.31	22
2547.21	21
2548.11	23
2549.01	22.5
2549.92	23
2550.82	26.5
2551.72	20
2552.62	25.5
2553.52	26
2554.42	23
2555.33	25
2556.23	22
2557.13	23
2558.03	23
2558.93	26.5
2559.83	22
2560.73	26
2561.63	24
2562.53	23
2563.43	22.5
2564.33	26.5
2565.24	26.5
2566.13	24
2567.04	24
2567.93	25.5
2568.83	22
2569.73	24
2570.63	22
2571.53	24
2572.43	21
2573.33	25.5
2574.23	25
2575.13	24.5
2576.03	20
2576.92	24
2577.82	24.5
2578.72	24
2579.62	26
2580.52	22.5
2581.41	22.5
2582.31	22.5
2583.21	24
2584.11	24
2585	25
2585.9	25.5
2586.8	23
2587.69	23.5
2588.59	22
2589.49	25
2590.38	24
2591.28	24
2592.18	24
2593.07	28.5
2593.97	26
2594.86	24.5
2595.76	27.5
2596.66	22
2597.55	24
2598.45	23.5
2599.34	26
2600.24	21.5
2601.13	23
2602.03	22
2602.92	25
2603.81	22.5
2604.71	24
2605.6	24.5
2606.5	25
2607.39	24
2608.28	29
2609.18	23
2610.07	24.5
2610.97	23
2611.86	22
2612.75	26.5
2613.64	21.5
2614.54	25
2615.43	26
2616.32	23
2617.22	22
2618.11	25.5
2619	24.5
2619.89	27
2620.78	24
2621.68	25.5
2622.57	24
2623.46	25.5
2624.35	24.5
2625.24	21.5
2626.13	26.5
2627.02	22
2627.91	21
2628.81	26
2629.7	24.5
2630.59	29
2631.48	23.5
2632.37	27
2633.26	21
2634.15	25
2635.04	22.5
2635.93	22.5
2636.82	25.5
2637.71	27
2638.59	23
2639.48	26
2640.37	24.5
2641.26	23
2642.15	24
2643.04	20
2643.93	24.5
2644.82	27
2645.71	23.5
2646.59	26.5
2647.48	18.5
2648.37	23.5
2649.26	25
2650.15	24
2651.03	21.5
2651.92	23.5
2652.81	23.5
2653.69	25
2654.58	22.5
2655.47	26
2656.35	28
2657.24	23
2658.13	20
2659.01	24.5
2659.9	23
2660.79	22
2661.67	27
2662.56	24
2663.44	26
2664.33	22.5
2665.22	28
2666.1	26.5
2666.99	23.5
2667.87	24
2668.76	26.5
2669.64	25.5
2670.52	22.5
2671.41	24
2672.29	25
2673.18	25
2674.06	23.5
2674.95	24.5
2675.83	24
2676.71	22
2677.6	26.5
2678.48	23
2679.36	22.5
2680.25	20.5
2681.13	27
2682.01	23
2682.9	25
2683.78	21
2684.66	23
2685.55	26
2686.43	20.5
2687.31	25
2688.19	23.5
2689.07	26
2689.96	23
2690.84	22.5
2691.72	25
2692.6	26
2693.48	25
2694.36	22.5
2695.24	25.5
2696.12	23
2697	23
2697.89	22.5
2698.77	26.5
2699.65	22
2700.53	22.5
2701.41	22
2702.29	22.5
2703.17	23
2704.05	21.5
2704.93	21
2705.81	21
2706.69	18
2707.57	23.5
2708.44	24
2709.32	25.5
2710.2	24.5
2711.08	23
2711.96	22
2712.84	22
2713.72	23
2714.59	24
2715.47	27
2716.35	20
2717.23	23
2718.11	25
2718.98	27
2719.86	23
2720.74	22
2721.62	23
2722.49	25
2723.37	23.5
2724.25	19.5
2725.12	25
2726	21
2726.88	26.5
2727.75	24.5
2728.63	27.5
2729.51	20
2730.38	25
2731.26	25
2732.13	22.5
2733.01	24
2733.88	25
2734.76	24.5
2735.63	22
2736.51	26
2737.38	30.5
2738.26	22.5
2739.13	24
2740.01	22
2740.88	24.5
2741.76	25.5
2742.63	24.5
2743.5	27
2744.38	22
2745.25	22.5
2746.13	24
2747	21.5
2747.87	25
2748.75	19.5
2749.62	21.5
2750.49	27
2751.36	24
2752.24	25.5
2753.11	27
2753.98	25
2754.86	25
2755.73	22
2756.6	23
2757.47	24.5
2758.34	24
2759.22	23.5
2760.09	25
2760.96	25
2761.83	21.5
2762.7	25
2763.57	26.5
2764.44	20.5
2765.31	26
2766.18	23.5
2767.06	20
2767.93	24
2768.8	26
2769.67	23.5
2770.54	23
2771.41	24.5
2772.28	29
2773.15	22.5
2774.02	22.5
2774.89	24
2775.75	27
2776.62	25.5
2777.49	24.5
2778.36	25
2779.23	22.5
2780.1	27.5
2780.97	24.5
2781.84	25
2782.71	25.5
2783.57	26
2784.44	24
2785.31	24.5
2786.18	23
2787.04	27.5
2787.91	28
2788.78	23
2789.65	22.5
2790.51	23
2791.38	22
2792.25	24.5
2793.12	24.5
2793.98	23.5
2794.85	28.5
2795.72	23.5
2796.58	21
2797.45	25
2798.31	26.5
2799.18	27.5
2800.05	26.5
2800.91	26.75
2801.78	26
2802.64	30
2803.51	26.5
2804.37	24
2805.24	25
2806.1	28.5
2806.97	25
2807.83	27.5
2808.7	24.5
2809.56	29
2810.43	23.5
2811.29	23.5
2812.15	23
2813.02	28
2813.88	23
2814.75	27
2815.61	26.5
2816.47	26
2817.34	23
2818.2	24.5
2819.06	25
2819.92	23
2820.79	21
2821.65	28
2822.51	26.5
2823.37	22
2824.24	28
2825.1	25
2825.96	25
2826.82	26
2827.69	26
2828.55	28
2829.41	27
2830.27	23.5
2831.13	25.5
2831.99	23
2832.85	23.5
2833.71	23
2834.58	23
2835.44	24
2836.3	24
2837.16	25
2838.02	26
2838.88	22
2839.74	23
2840.6	24
2841.46	23.5
2842.32	25
2843.18	25.5
2844.04	21.5
2844.9	25
2845.75	23.5
2846.61	25.5
2847.47	30.5
2848.33	26
2849.19	25.5
2850.05	25
2850.91	25
2851.77	27
2852.62	25.5
2853.48	27.5
2854.34	24.5
2855.2	25
2856.06	25.5
2856.91	26
2857.77	28
2858.63	25
2859.48	23
2860.34	26.5
2861.2	25.5
2862.06	27.5
2862.91	26
2863.77	27.5
2864.63	24
2865.48	25.5
2866.34	30
2867.19	28.5
2868.05	27.5
2868.91	27
2869.76	31
2870.62	28.5
2871.47	25
2872.33	28
2873.18	29
2874.04	24.5
2874.89	29
2875.75	30
2876.6	31
2877.46	27.5
2878.31	33
2879.17	29.5
2880.02	28
2880.88	28.5
2881.73	27.5
2882.58	30.5
2883.44	33.5
2884.29	31
2885.14	31.5
2886	33
2886.85	31
2887.7	27
2888.56	31.5
2889.41	36.5
2890.26	38
2891.12	37
2891.97	39.5
2892.82	41
2893.67	41.5
2894.52	43
2895.38	39
2896.23	47.5
2897.08	49
2897.93	48
2898.78	53
2899.64	53.5
2900.49	56
2901.34	60
2902.19	57
2903.04	58.5
2903.89	65.5
2904.74	63.5
2905.59	62.5
2906.44	70
2907.29	65.5
2908.14	69.5
2908.99	63
2909.84	67
2910.69	59.5
2911.54	60
2912.39	53.5
2913.24	53
2914.09	46
2914.94	47.5
2915.79	39
2916.64	42.5
2917.49	38
2918.34	34.5
2919.18	38.5
2920.03	35.5
2920.88	35
2921.73	32.5
2922.58	36.5
2923.42	32
2924.27	36
2925.12	30
2925.97	31
2926.82	30
2927.66	28
2928.51	29.5
2929.36	26
2930.2	30
2931.05	27
2931.9	29.5
2932.74	30
2933.59	26
2934.44	29.5
2935.28	26.5
2936.13	28
2936.98	26
2937.82	25.5
2938.67	23.5
2939.51	28
2940.36	27
2941.2	24
2942.05	25.5
2942.9	29.5
2943.74	27
2944.58	27
2945.43	27
2946.27	25.5
2947.12	26
2947.96	25.5
2948.81	30.5
2949.65	30
2950.5	24.5
2951.34	31
2952.18	29
2953.03	25
2953.87	28
2954.71	32.5
2955.56	32
2956.4	29
2957.24	37.5
2958.09	36
2958.93	39.5
2959.77	39
2960.62	36
2961.46	36
2962.3	41.5
2963.14	37.5
2963.98	42
2964.83	41.5
2965.67	43
2966.51	45
2967.35	41.5
2968.19	40.5
2969.04	38
2969.88	34.5
2970.72	42.5
2971.56	37.9903
2972.4	33.9151
2973.24	32.0554
2974.08	32.6328
2974.92	33.8973
2975.76	32.3932
2976.6	30.6261
2977.44	30.6243
2978.28	33.6076
2979.12	32.7502
2979.96	27.0619
2980.8	24.7743
2981.64	28.0041
2982.48	26.5124
2983.32	29.4858
2984.16	26.282
2985	28.019
2985.84	22.6893
2986.68	26.4111
2987.52	25.8723
2988.35	23.9015
2989.19	25.8626
2990.03	24.905
2990.87	24.1051
2991.71	23.7621
2992.55	27.1941
2993.38	20.4638
2994.22	26.0257
2995.06	23.6186
2995.9	27.0061
2996.73	23.396
2997.57	23.6525
2998.41	22.9466
2999.25	25.3374
3000.08	23.0049
3000.92	25.9609
3001.76	24.1034
3002.59	21.6409
3003.43	22.708
3004.27	23.8525
3005.1	23.0593
3005.94	22.0833
3006.78	22.5888
3007.61	24.9094
3008.45	21.5573
3009.28	25.4579
3010.12	24.6479
3010.95	21.1738
3011.79	23.4485
3012.62	22.6906
3013.46	23.1676
3014.29	23.0589
3015.13	23.7915
3015.96	25.632
3016.8	22.724
3017.63	22.7947
3018.47	21.9283
3019.3	24.4403
3020.14	22.3391
3020.97	21.4068
3021.8	21.5375
3022.64	22.1076
3023.47	22.983
3024.3	23.2239
3025.14	23.8209
3025.97	21.9898
3026.8	22.8315
3027.64	21.8466
3028.47	22.9954
3029.3	22.846
3030.14	22.0153
3030.97	21.2662
3031.8	21.0346
3032.63	22.9278
3033.46	25.7335
3034.3	25.2491
3035.13	24.6017
3035.96	23.6814
3036.79	21.2578
3037.62	24.699
3038.46	24.469
3039.29	24.1616
3040.12	22.5695
3040.95	24.0063
3041.78	21.2788
3042.61	21.9746
3043.44	23.4451
3044.27	22.1004
3045.1	22.3842
3045.93	21.2621
3046.76	21.9152
3047.59	22.7231
3048.42	22.8047
3049.25	24.2147
3050.08	23.7473
3050.91	24.6121
3051.74	23.5273
3052.57	24.4809
3053.4	23.3626
3054.23	21.8302
3055.06	21.0945
3055.89	22.9971
3056.72	20.6641
3057.32	21
3058.15	23
3058.98	23.5
3059.82	24.5
3060.65	23.5
3061.48	22
3062.31	26
3063.15	24.5
3063.98	23
3064.81	22
3065.64	22
3066.48	23
3067.31	20
3068.14	23.5
3068.97	24
3069.8	21.5
3070.63	22
3071.47	24
3072.3	23.5
3073.13	25
3073.96	21
3074.79	23
3075.62	25
3076.45	22
3077.28	25
3078.11	20.5
3078.94	24
3079.77	24
3080.6	21
3081.43	25
3082.26	23
3083.09	24
3083.92	24.5
3084.75	21
3085.58	25.5
3086.41	23.5
3087.24	20
3088.07	22.5
3088.9	22.5
3089.73	24
3090.55	20.5
3091.38	26
3092.21	21
3093.04	21
3093.87	23
3094.7	20.5
3095.52	24
3096.35	25.5
3097.18	20
3098.01	28
3098.84	22
3099.66	19.5
3100.49	24.5
3101.32	19
3102.14	24.5
3102.97	21
3103.8	22
3104.62	23
3105.45	20.5
3106.28	23
3107.1	22
3107.93	21.5
3108.76	25
3109.58	25.5
3110.41	24.5
3111.23	25.5
3112.06	22
3112.89	23
3113.71	25
3114.54	23
3115.36	26
3116.19	21.5
3117.01	21
3117.84	26.5
3118.66	21.5
3119.49	23
3120.31	25.5
3121.13	25.5
3121.96	23.5
3122.78	22
3123.61	22.5
3124.43	19
3125.25	26
3126.08	27
3126.9	20
3127.73	22
3128.55	21.5
3129.37	18
3130.19	26
3131.02	23
3131.84	22.5
3132.66	23
3133.49	27
3134.31	21.5
3135.13	25
3135.95	24
3136.78	25.5
3137.6	24.5
3138.42	22.5
3139.24	24.5
3140.06	25
3140.88	18
3141.71	24
3142.53	20
3143.35	21.5
3144.17	23
3144.99	23.5
3145.81	22
3146.63	24.5
3147.45	25
3148.27	22
3149.09	27
3149.91	24
3150.73	23
3151.56	23.5
3152.37	24
3153.2	18.5
3154.01	23
3154.83	23.5
3155.65	23
3156.47	24.5
3157.29	24.5
3158.11	24.5
3158.93	25.5
3159.75	23
3160.57	28
3161.39	22.5
3162.21	24
3163.02	22
3163.84	23
3164.66	26
3165.48	24
3166.3	21.5
3167.11	26
3167.93	21
3168.75	22
3169.57	20
3170.39	27
3171.2	28
3172.02	22.5
3172.84	23
3173.65	17.5
3174.47	23
3175.29	25
3176.1	20.5
3176.92	22
3177.74	22
3178.55	23.5
3179.37	24.5
3180.19	24
3181	26
3181.82	26
3182.63	22
3183.45	20.5
3184.27	21.5
3185.08	22
3185.9	23
3186.71	24
3187.53	23
3188.34	22
3189.16	24
3189.97	23
3190.79	21
3191.6	24.5
3192.41	25.5
3193.23	21.5
3194.04	24.5
3194.86	24.5
3195.67	25
3196.48	25
3197.3	23.5
3198.11	24
3198.93	20.5
3199.74	21.5
3200.55	24
3201.36	22
3202.18	24
3202.99	26
3203.8	22
3204.62	20.5
3205.43	21
3206.24	24
3207.05	23
3207.87	24.5
3208.68	24
3209.49	21
3210.3	24.5
3211.11	24
3211.93	23.5
3212.74	25
3213.55	22
3214.36	24.5
3215.17	23.5
3215.98	24
3216.79	21.5
3217.6	20
3218.41	20.5
3219.22	23
3220.03	22
3220.85	22
3221.66	22
3222.47	23.5
3223.28	23.5
3224.09	19
3224.9	24.5
3225.71	22.5
3226.52	25
3227.33	23
3228.13	21
3228.94	22
3229.75	27
3230.56	22.5
3231.37	23.5
3232.18	21
3232.99	27.5
3233.8	24
3234.61	25
3235.41	20.5
3236.22	23.5
3237.03	22
3237.84	21.5
3238.65	24
3239.45	23.5
3240.26	22
3241.07	23.5
3241.88	20
3242.68	21.5
3243.49	25
3244.3	22
3245.1	23.5
3245.91	22
3246.72	22
3247.53	22.5
3248.33	27
3249.14	24
3249.95	24.5
3250.75	23
3251.56	21.5
3252.36	21
3253.17	27.5
3253.97	24.5
3254.78	25
3255.59	27
3256.39	21
3257.2	22
3258	24.5
3258.81	25.5
3259.61	22
3260.42	22.5
3261.22	22.5
3262.03	26
3262.83	24
3263.64	23
3264.44	24.5
3265.24	21
3266.05	22
3266.85	22
3267.66	25
3268.46	25
3269.26	22.5
3270.07	23
3270.87	26
3271.67	21
3272.48	22.5
3273.28	23
3274.08	23.5
3274.89	21.5
3275.69	24.5
3276.49	22.5
3277.29	23.5
3278.1	20
3278.9	23.5
3279.7	27
3280.5	22.5
3281.3	25
3282.11	24
3282.91	22
3283.71	21.5
3284.51	19
3285.31	24.5
3286.11	24
3286.91	23
3287.72	28
3288.52	23.5
3289.32	21
3290.12	21.5
3290.92	22
3291.72	25
3292.52	25
3293.32	26
3294.12	24.5
3294.92	28
3295.72	22
3296.52	25.5
3297.32	26.5
3298.12	23.5
3298.92	22.5
3299.72	27
3300.52	22
3301.32	26.5
3302.12	25
3302.92	26.5
3303.71	24
3304.51	23
3305.31	22.5
3306.11	17.5
3306.91	23.5
3307.71	26.5
3308.5	24
3309.3	25.5
3310.1	25
3310.9	27
3311.7	26
3312.49	25
3313.29	26.5
3314.09	19.5
3314.89	26
3315.68	22.5
3316.48	22.5
3317.28	25
3318.07	21.5
3318.87	22
3319.67	23.5
3320.46	24.5
3321.26	26
3322.06	24
3322.85	23.5
3323.65	25
3324.44	25.5
3325.24	25.5
3326.04	19
3326.83	23.5
3327.63	18
3328.42	20.5
3329.22	21.5
3330.01	23.5
3330.81	25
3331.6	23
3332.4	21
3333.19	24
3333.99	25
3334.78	23
3335.58	21.5
3336.37	23
3337.17	26.5
3337.96	21.5
3338.75	19.5
3339.55	26
3340.34	27
3341.13	27
3341.93	23.5
3342.72	23
3343.51	24
3344.31	24
3345.1	21
3345.89	22
3346.69	23
3347.48	23
3348.27	26
3349.06	27
3349.86	26.5
3350.65	22.5
3351.44	20.5
3352.23	22.5
3353.03	22.5
3353.82	25.5
3354.61	21
3355.4	22.5
3356.19	24
3356.98	23.5
3357.78	23
3358.57	26
3359.36	23.5
3360.15	23
3360.94	27.5
3361.73	24.5
3362.52	27
3363.31	26
3364.1	20.5
3364.89	22
3365.68	24
3366.47	24
3367.26	24.5
3368.05	23
3368.84	23
3369.63	24.5
3370.42	23.5
3371.21	25.5
3372	20
3372.79	24
3373.58	23
3374.37	24
3375.16	20.5
3375.95	25.5
3376.73	25
3377.52	26.5
3378.31	24.5
3379.1	22
3379.89	22
3380.68	22
3381.46	29
3382.25	24.5
3383.04	20.5
3383.83	25
3384.62	24.5
3385.4	24
3386.19	23.5
3386.98	20.5
3387.76	24
3388.55	22.5
3389.34	25.5
3390.13	25
3390.91	24
3391.7	22
3392.49	23
3393.27	25
3394.06	25
3394.84	24.5
3395.63	25
3396.42	27
3397.2	25
3397.99	22.5
3398.77	27.5
3399.56	27
3400.34	23.5
3401.13	28
3401.92	29.5
3402.7	24
3403.49	23
3404.27	24.5
3405.06	23
3405.84	22
3406.62	22.5
3407.41	23.5
3408.19	24
3408.98	20.5
3409.76	25
3410.55	21.5
3411.33	22.5
3412.11	22
3412.9	17
3413.68	25
3414.46	22.5
3415.25	26.5
3416.03	23
3416.81	21
3417.6	20
3418.38	25
3419.16	22
3419.95	21
3420.73	19
3421.51	24
3422.29	19
3423.08	23
3423.86	25.5
3424.64	22
3425.42	23
3426.2	20.5
3426.98	22.5
3427.77	22.5
3428.55	22
3429.33	24
3430.11	23.5
3430.89	22.5
3431.67	26.5
3432.45	25
3433.24	20
3434.02	24
3434.8	21.5
3435.58	26
3436.36	25
3437.14	23
3437.92	21
3438.7	27.5
3439.48	28.5
3440.26	22
3441.04	23
3441.82	19.5
3442.6	23
3443.38	21
3444.16	25
3444.94	20
3445.71	25.5
3446.49	25
3447.27	26
3448.05	19.5
3448.83	23
3449.61	26.5
3450.39	24
3451.17	25
3451.94	22.5
3452.72	24
3453.5	22
3454.28	24
3455.06	21.5
3455.83	24.5
3456.61	22
3457.39	22
3458.17	25.5
3458.94	23.5
3459.72	25
3460.5	22.5
3461.28	28
3462.05	27
3462.83	24.5
3463.61	24
3464.38	24
3465.16	22
3465.93	18.5
3466.71	21
3467.49	24
3468.26	24.5
3469.04	23
3469.82	21.5
3470.59	24.5
3471.37	22
3472.14	20.5
3472.92	24
3473.69	25.5
3474.47	20
3475.24	26.5
3476.02	21
3476.79	26
3477.57	25
3478.34	25
3479.12	26
3479.89	21.5
3480.67	23.5
3481.44	26
3482.21	21
3482.99	27.5
3483.76	21.5
3484.54	23
3485.31	24
3486.08	22
3486.86	25.5
3487.63	26
3488.4	25
3489.18	23
3489.95	25.5
3490.72	22
3491.5	23
3492.27	22
3493.04	24
3493.81	21
3494.59	26
3495.36	24.5
3496.13	15.5
3496.9	23
3497.67	24
3498.45	22
3499.22	21
3499.99	20
