#Acq. time (s)=	5
#Accumulations=	5
#Range (cm-¹)=	100...3500
#Windows=	4
#Autofocus=	Off
#AutoExposure=	Off
#Spike filter=	Multiple accum.
#Delay time (s)=	0
#Binning=	1
#Readout mode=	Signal
#DeNoise=	Off
#ICS correction=	Off
#Dark correction=	Off
#Inst. Process=	Off
#Instrument=	LabRAM HR Evol
#Detector=	Syncerity OE
#Objective=	x100_VIS
#Grating=	600 (500nm)
#ND Filter=	25%
#Laser=	633nm_Edge
#Hole=	100.021
#Range=	Visible
#Project=	verificaciones
#Sample=	a5
#Site=	lined
#Title=	bolusa5lined
#Remark=	
#Date=	09.01.2026 13:25
#Acquired=	09.01.2026 13:25:45
100.695	28
101.978	33.5
103.262	35
104.545	32.5
105.829	30.5
107.112	31.5
108.394	32
109.676	30
110.958	32
112.24	29.5
113.522	30.5
114.803	29.5
116.084	29
117.365	30
118.646	28.5
119.927	29
121.207	33
122.487	34
123.767	33.5
125.047	33
126.326	34
127.606	32.5
128.885	35
130.164	38
131.442	32.5
132.721	40.5
133.999	36
135.277	34.5
136.555	34
137.831	37
139.109	36.5
140.386	39
141.663	41.5
142.94	37
144.216	39
145.493	40.5
146.769	38
148.043	45
149.319	39
150.595	41.5
151.87	37
153.145	42
154.42	45
155.693	45
156.968	44.5
158.242	42.5
159.516	43
160.79	41.5
162.062	42.5
163.336	40.5
164.609	41
165.882	41.5
167.153	40
168.426	41
169.699	39
170.971	39
172.241	38.5
173.513	37
174.785	40.5
176.055	41.5
177.326	42
178.597	41
179.866	39.5
181.137	42
182.407	44
183.676	43
184.946	49
186.216	45.5
187.484	42
188.753	42
190.022	45.5
191.29	45.5
192.558	39.5
193.825	40
195.094	44
196.36	40
197.628	42
198.896	36.5
200.162	40.5
201.429	38
202.695	36
203.962	33
205.227	36
206.493	40
207.758	42.5
209.024	35.5
210.289	39.5
211.554	37.5
212.818	38.5
214.083	39.5
215.347	37.5
216.612	37
217.875	34
219.138	39.5
220.402	36.5
221.665	30.5
222.928	34.5
224.19	33.5
225.454	33.5
226.715	36.5
227.977	34
229.24	37
230.501	33.5
231.762	34.5
233.024	31
234.284	33.5
235.546	29
236.806	30
238.066	30
239.327	31.5
240.587	31.5
241.846	30
243.105	26.5
244.365	27.5
245.624	31
246.882	26
248.142	31
249.4	33
250.658	32.5
251.916	29.5
253.174	29
254.432	29
255.689	27
256.945	32
258.202	31.5
259.46	27
260.716	30
261.972	31.5
263.228	32
264.483	31.5
265.74	29
266.996	29
268.251	29
269.505	26.5
270.76	28
272.014	28
273.268	28.5
274.522	30
275.778	28
277.031	29.5
278.285	24
279.538	33
280.791	27
282.043	33.5
283.296	25
284.548	26
285.8	29
287.052	32.5
288.304	23
289.556	28
290.807	27
292.058	26
293.309	29
294.56	29.5
295.81	26.5
297.061	27
298.311	32
299.561	28.5
300.81	29
302.06	28
303.309	25
304.558	28
305.807	29
307.056	30.5
308.305	26.5
309.551	28
310.8	30
312.047	29
313.295	28.5
314.543	27
315.79	28
317.037	25
318.284	29.5
319.529	26.5
320.776	27
322.022	26.5
323.268	31.5
324.514	29.5
325.758	26.5
327.004	29
328.249	28
329.494	31.5
330.739	27
331.982	28.5
333.227	30.5
334.471	30
335.715	28
336.958	26.5
338.201	30.5
339.445	26
340.687	28.5
341.93	29.5
343.173	31
344.414	27
345.657	27.5
346.899	28
348.14	30.5
349.381	28
350.623	27.5
351.863	31
353.104	30
354.346	30.5
355.585	24
356.826	32
358.065	27
359.305	25.5
360.545	25.5
361.784	30
363.023	29
364.261	27
365.501	27
366.738	28.5
367.977	31.5
369.216	25.5
370.453	32.5
371.691	29
372.928	26.5
374.166	25
375.402	28.5
376.64	29.5
377.876	27
379.111	26
380.348	29
381.584	26
382.82	29
384.055	26
385.291	26
386.526	24
387.76	27
388.996	28
390.229	27.5
391.465	28
392.698	24
393.931	26
395.166	32
396.399	26.5
397.632	26
398.866	27
400.098	29.5
401.33	26
402.563	25.5
403.795	30
405.027	25
406.259	26
407.491	29
408.721	24.5
409.954	27.5
411.184	28.5
412.415	26
413.645	23.5
414.876	29
416.106	30
417.335	28
418.565	27
419.794	26
421.024	30
422.253	26
423.482	29
424.71	28
425.938	26.5
427.168	30
428.396	27.5
429.623	24.5
430.851	28
432.078	25.5
433.305	27
434.532	29
435.758	32.5
436.986	26.5
438.212	27
439.438	28.5
440.664	27
441.89	32
443.115	30.5
444.34	27.5
445.566	28
446.79	29
448.015	29
449.24	34
450.464	28
451.688	28
452.912	32
454.135	29.5
455.359	27.5
456.582	30
457.805	31
459.028	30
460.251	31
461.473	28.5
462.696	30
463.918	26.5
465.14	32
466.36	29
467.582	28.5
468.803	36.5
470.024	30
471.245	37
472.466	36.5
473.686	36.5
474.907	34
476.126	37.5
477.346	40
478.565	41
479.785	49
481.004	46.5
482.224	48
483.441	53.5
484.66	57
485.879	59.5
487.097	61
488.314	62.5
489.532	61.5
490.75	66
491.967	55
493.184	63.5
494.401	55
495.618	54
496.835	52
498.05	47
499.267	51
500.483	45
501.698	42.5
502.913	38.5
504.129	44.5
505.343	41
506.559	39
507.774	41
508.987	39
510.202	35.5
511.415	39
512.63	36
513.844	31
515.056	35.5
516.27	31.5
517.482	31.5
518.696	31.5
519.907	31
521.121	37
522.332	31
523.545	34
524.757	31.5
525.968	29
527.18	29
528.39	30
529.602	31.5
530.812	31
532.023	29.5
533.233	27.5
534.443	32
535.653	31
536.862	31
538.073	28.5
539.281	29.5
540.491	30
541.7	30
542.908	35
544.117	32.5
545.325	30.5
546.534	31.5
547.741	27.5
548.949	31
550.157	28.5
551.364	28.5
552.57	28
553.778	30
554.985	31
556.191	30.5
557.398	29.5
558.604	29.5
559.809	29
561.014	29.5
562.221	26.5
563.426	29
564.63	29
565.835	25.5
567.041	27
568.245	24.5
569.449	29
570.653	27
571.856	28
573.061	27.5
574.264	30
575.467	28
576.67	28
577.873	30
579.076	30.5
580.279	24.5
581.481	28.5
582.683	23.5
583.884	29.5
585.086	26.5
586.287	29
587.488	27.5
588.689	30
589.891	29
591.092	30.5
592.292	28.5
593.492	28
594.692	29.5
595.892	27.5
597.092	25.5
598.291	27
599.49	27.5
600.689	32
601.888	30
603.087	28.5
604.285	26.5
605.483	31
606.681	32
607.879	28
609.077	29
610.274	30
611.472	23.5
612.668	28
613.865	27.5
615.061	25
616.258	27
617.454	29
618.65	28.5
619.846	26.5
621.042	27.5
622.238	33
623.432	31
624.627	30
625.822	26.5
627.017	28
628.212	28.5
629.406	25
630.599	22.5
631.793	28.5
632.987	32
634.181	28
635.373	28
636.566	27.5
637.76	26
638.953	31
640.144	27.5
641.337	28
642.529	32
643.721	26.5
644.912	29
646.104	28.5
647.295	26
648.485	30
649.677	28.5
650.868	26
652.057	32
653.248	28
654.437	26
655.628	29
656.818	31
658.006	28.5
659.196	28
660.384	26
661.574	29.5
662.763	28
663.951	30.5
665.14	26
666.327	31.5
667.515	31
668.702	31
669.891	29
671.077	29.5
672.265	32
673.451	29
674.638	29
675.824	28.5
677.011	33
678.197	32
679.383	27
680.568	33
681.755	36.5
682.939	34.5
684.124	36.5
685.309	37.5
686.494	36.5
687.679	36
688.863	33
690.046	34.5
691.231	34.5
692.414	33
693.599	33
694.781	35
695.964	36.5
697.148	37
698.33	35
699.512	38.5
700.694	43.5
701.877	39
703.059	34
704.24	41.5
705.423	44
706.604	48.5
707.784	51.5
708.965	54
710.147	51
711.327	54
712.507	53.5
713.687	43.5
714.867	42
716.048	35
717.227	36
718.406	33.5
719.585	28.5
720.764	33.5
721.942	30
723.122	28
724.3	28
725.478	28
726.656	26
727.834	25.5
729.011	27.5
730.189	27.5
731.366	29
732.543	26
733.719	26.5
734.896	30.5
736.072	27
737.249	29.5
738.426	28.5
739.602	27
740.777	25.5
741.953	24
743.128	31
744.303	25.5
745.477	34
746.651	24
747.826	27.5
749	28.5
750.174	30.5
751.348	29
752.522	28
753.696	27.5
754.869	31
756.043	26
757.216	28
758.389	28
759.561	29.5
760.732	29.5
761.905	28.5
763.077	27
764.249	27
765.421	30
766.592	27.5
767.762	26
768.934	30.5
770.105	27.5
771.275	32
772.446	29.5
773.615	28
774.786	33
775.956	28.5
777.126	25.5
778.294	29.5
779.464	31
780.633	27
781.801	29
782.97	33.5
784.139	36
785.306	30.5
786.475	31.5
787.643	31.5
788.81	33
789.978	33
791.146	33
792.312	31.5
793.479	32
794.647	28.5
795.812	30
796.979	29
798.144	30
799.311	29.5
800.477	26
801.642	28.5
802.808	25
803.972	30
805.138	33
806.302	30.5
807.467	27
808.631	26
809.796	29.5
810.959	25.5
812.124	28
813.287	28.5
814.451	29.5
815.614	28
816.777	28
817.94	26.5
819.102	30.5
820.265	23
821.427	26.5
822.59	25
823.751	27.5
824.912	27.5
826.074	26
827.235	25.5
828.397	26
829.558	29.5
830.718	28.5
831.879	28
833.039	27
834.199	28
835.359	28.5
836.519	23.5
837.679	26.5
838.838	29
839.998	30.5
841.156	22.5
842.315	25
843.473	26
844.633	29.5
845.791	31
846.948	26.5
848.106	29.5
849.263	27.5
850.422	31.5
851.579	30
852.736	26
853.892	32
855.049	29
856.205	26.5
857.363	28.5
858.519	33
859.674	27.5
860.83	31
861.986	31.5
863.141	32
864.296	27
865.451	29.5
866.605	28
867.76	26.5
868.914	26
870.069	24
871.224	28
872.378	29.5
873.531	31.5
874.685	31
875.838	29.5
876.991	30.5
878.144	32.5
879.296	28.5
880.448	20
881.6	27.5
882.753	28
883.905	28
885.057	30
886.208	22
887.36	29
888.511	29.5
889.662	26.5
890.813	24.5
891.964	27.5
893.113	24.5
894.264	23
895.414	26
896.564	25.5
897.714	25.5
898.864	25
900.012	29
901.161	25.5
902.31	24.5
903.459	26.5
904.607	25.5
905.756	25
906.904	24
908.052	24
909.199	26
910.347	27
911.495	25.5
912.643	25
913.789	25
914.936	22.5
916.083	23
917.229	30
918.375	21.5
919.522	28
920.667	29.5
921.813	23
922.959	25
924.104	25.5
925.249	27.5
926.393	28.5
927.539	23.5
928.684	21.5
929.827	28.5
930.972	24
932.115	26.5
933.26	23
934.403	24.5
935.547	27.5
936.689	24
937.833	25.5
938.975	25.5
940.119	26
941.26	25
942.404	21
943.545	28
944.688	22
945.829	24
946.971	29
948.112	25.5
949.253	26
950.394	24
951.535	30.5
952.676	25
953.816	25.5
954.956	22.5
956.097	28.5
957.236	26
958.377	27
959.516	28
960.655	24
961.793	27
962.933	26.5
964.071	28.5
965.21	23.5
966.349	23
967.487	25.5
968.624	27.5
969.762	25.5
970.901	26.5
972.038	26
973.175	20
974.311	33.5
975.449	22
976.586	27.5
977.722	26.5
978.858	26.5
979.994	25.5
981.131	23.5
982.267	28
983.402	25.5
984.537	29.5
985.672	25.5
986.807	26.5
987.942	24.5
989.076	27.5
990.211	25
991.346	27.5
992.48	28
993.614	22.5
994.748	29
995.881	23.5
997.014	28.5
998.148	25
999.28	23
1000.41	22
1001.55	24
1002.68	26
1003.81	25
1004.94	26.5
1006.07	28
1007.21	27.5
1008.34	27.5
1009.47	25
1010.6	28.5
1011.73	27
1012.86	23
1013.99	25
1015.12	26.5
1016.25	25
1017.38	21
1018.51	26
1019.64	23.5
1020.77	24
1021.9	30
1023.03	28
1024.16	31
1025.29	28.5
1026.42	26.5
1027.54	21
1028.67	24.5
1029.8	26.5
1030.93	27
1032.06	25
1033.18	23
1034.31	27
1035.44	27
1036.56	29
1037.69	23.5
1038.82	28
1039.94	27.5
1041.07	26
1042.2	25.5
1043.32	25.5
1044.45	25
1045.57	24.5
1046.7	24.5
1047.82	25
1048.95	27
1050.07	26
1051.2	26
1052.32	26
1053.45	23.5
1054.57	26
1055.69	28
1056.82	25.5
1057.94	28.5
1059.06	29.5
1060.19	23.5
1061.31	22
1062.43	23.5
1063.55	27.5
1064.68	25
1065.8	23.5
1066.92	29
1068.04	27
1069.16	25.5
1070.28	24
1071.41	24.5
1072.53	27
1073.65	26.5
1074.77	25
1075.89	26.5
1077.01	19.5
1078.13	22.5
1079.25	26
1080.37	26
1081.49	22.5
1082.61	23
1083.73	29
1084.85	24.5
1085.96	25
1087.08	23
1088.2	27
1089.32	27
1090.44	22
1091.56	27.5
1092.67	25.5
1093.79	26.5
1094.91	28.5
1096.03	25.5
1097.14	26
1098.26	24
1099.38	28.5
1100.49	28.5
1101.61	22.5
1102.73	28
1103.84	26
1104.96	25.5
1106.07	23
1107.19	22
1108.3	26
1109.42	27
1110.53	29.5
1111.65	23.5
1112.76	24.5
1113.88	27
1114.99	22
1116.1	25.5
1117.22	25
1118.33	28
1119.44	25
1120.56	28.5
1121.67	25.5
1122.78	21.5
1123.9	25.5
1125.01	22.5
1126.12	24.5
1127.23	23
1128.34	23.5
1129.46	28
1130.57	20
1131.68	23.5
1132.79	22.5
1133.9	25
1135.01	28
1136.12	24
1137.23	29
1138.34	24
1139.45	25.5
1140.56	25.5
1141.67	21
1142.78	28.5
1143.89	22
1145	25
1146.11	26
1147.22	22.5
1148.33	22.5
1149.44	23
1150.54	27
1151.65	23
1152.76	23
1153.87	25
1154.97	25
1156.08	23.5
1157.19	26.5
1158.3	26.5
1159.4	21
1160.51	27.5
1161.62	22.5
1162.72	23.5
1163.83	25
1164.93	23.5
1166.04	23.5
1167.15	26
1168.25	27.5
1169.36	29.5
1170.46	20
1171.57	24.5
1172.67	23.5
1173.78	24.5
1174.88	25.5
1175.98	26.5
1177.09	28
1178.19	28
1179.3	28
1180.4	25.5
1181.5	24
1182.61	25
1183.71	23.5
1184.81	24
1185.91	27.5
1187.02	23
1188.12	22.5
1189.22	20.5
1190.32	25.5
1191.42	23.5
1192.53	23.5
1193.63	25.5
1194.73	24.5035
1195.83	24.9648
1196.93	23.092
1198.03	24.421
1199.13	21.0648
1200.23	25.0831
1201.33	23.8618
1202.43	23.5804
1203.53	23.0792
1204.63	23.3316
1205.73	25.4113
1206.83	22.6825
1207.93	26.7969
1209.02	24.4449
1210.12	25.0534
1211.22	26.064
1212.32	22.8462
1213.42	21.6796
1214.52	24.5898
1215.61	24.5018
1216.71	23.5024
1217.81	21.8411
1218.91	27.0884
1220	26.1348
1221.1	24.7192
1222.2	24.4959
1223.29	22.1417
1224.39	25.6377
1225.49	25.7549
1226.58	25.1671
1227.68	24.6652
1228.77	22.8597
1229.87	23.5863
1230.96	20.7936
1232.06	23.5337
1233.15	24.3447
1234.25	24.5851
1235.34	19.6523
1236.44	24.3984
1237.53	23.092
1238.63	24.0745
1239.72	23.3823
1240.81	22.7755
1241.91	22.7957
1243	24.7065
1244.09	23.37
1245.19	23.8809
1246.28	24.236
1247.37	25.1752
1248.46	23.2657
1249.56	25.9741
1250.65	24.2783
1251.74	21.995
1252.83	26.1658
1253.92	27.2563
1255.01	26.317
1256.11	24.3926
1257.2	26.1601
1258.29	27.0801
1259.38	25.3282
1260.47	28.287
1261.56	24.6638
1262.65	24.3687
1263.74	25.5715
1264.83	26.9682
1265.92	25.8155
1267.01	26.1125
1268.1	25.4049
1269.19	25.9703
1270.27	26.7785
1271.36	22.619
1272.45	25.5
1273.54	23.9388
1274.63	21.8649
1275.72	26.2033
1276.8	26.4264
1277.89	24.319
1278.98	23.2245
1280.07	21.8492
1281.15	23.5244
1282.24	23.9256
1283.33	28.1715
1284.41	26.2317
1285.5	22.5697
1286.59	23.0502
1287.67	27.1525
1288.76	24.6196
1289.84	24.9131
1290.93	24.3151
1292.01	23.5
1293.1	24.3658
1294.19	25.3661
1295.27	21.8659
1296.35	23.3002
1297.44	25.42
1298.52	22.3209
1299.61	23.4325
1300.69	25.8513
1301.78	24.3566
1302.86	24.6025
1303.94	22.7239
1305.03	22.4007
1306.11	23.9555
1306.4	24.5
1307.49	28.5
1308.57	26
1309.66	25
1310.75	22
1311.84	21.5
1312.92	24
1314.01	24
1315.1	26.5
1316.19	22
1317.27	24.5
1318.36	24
1319.45	25.5
1320.53	28
1321.62	27
1322.7	20.5
1323.79	25
1324.88	26
1325.96	25.5
1327.05	24
1328.13	27
1329.21	26
1330.3	23
1331.38	26
1332.47	21
1333.55	22
1334.64	27.5
1335.72	23
1336.8	27
1337.89	27.5
1338.97	29
1340.05	24.5
1341.14	23
1342.22	24
1343.3	23
1344.39	24
1345.47	22.5
1346.55	22
1347.63	23.5
1348.71	27.5
1349.79	24
1350.88	20
1351.96	24
1353.04	24
1354.12	26
1355.2	23.5
1356.28	20.5
1357.36	22.5
1358.44	24
1359.52	24
1360.6	25.5
1361.68	25.5
1362.76	26.5
1363.84	24.5
1364.92	19.5
1366	26
1367.08	27.5
1368.16	25
1369.23	19
1370.31	28.5
1371.39	23
1372.47	23
1373.55	25.5
1374.62	27
1375.7	24
1376.78	25
1377.85	23.5
1378.93	21
1380.01	25
1381.09	28
1382.16	27.5
1383.24	27
1384.31	28
1385.39	25
1386.47	27.5
1387.54	27.5
1388.62	26
1389.69	22
1390.77	26
1391.84	30
1392.92	25
1393.99	26.5
1395.06	26.5
1396.14	25.5
1397.21	26.5
1398.29	28
1399.36	27
1400.43	26
1401.51	29.5
1402.58	30
1403.65	27
1404.73	30.5
1405.8	34
1406.87	30.5
1407.94	32
1409.02	31.5
1410.09	26.5
1411.16	30.5
1412.23	34
1413.3	33.5
1414.37	35.5
1415.45	30.5
1416.52	29.5
1417.59	32
1418.66	28
1419.73	28.5
1420.8	28.5
1421.87	25
1422.94	24
1424.01	25.5
1425.08	29.5
1426.15	24.5
1427.22	26
1428.29	28
1429.35	27.5
1430.42	27
1431.49	23
1432.56	24
1433.63	25
1434.7	31
1435.77	30
1436.83	27
1437.9	26
1438.97	24
1440.04	29.5
1441.1	26.5
1442.17	27.5
1443.24	28
1444.3	24
1445.37	27.5
1446.44	23.5
1447.5	29
1448.57	29
1449.63	28.5
1450.7	26.5
1451.76	29
1452.83	25
1453.89	27.5
1454.96	24
1456.02	26
1457.09	27
1458.15	21.5
1459.22	26
1460.28	24
1461.34	24.5
1462.41	28
1463.47	26
1464.54	26.5
1465.6	25.5
1466.66	23
1467.72	22
1468.79	23
1469.85	26.5
1470.91	22
1471.97	28.5
1473.04	29
1474.1	25.5
1475.16	18
1476.22	25.5
1477.28	23.5
1478.34	26
1479.4	25
1480.47	28.5
1481.53	23
1482.59	22.5
1483.65	28.5
1484.71	24
1485.77	28.5
1486.83	22
1487.89	27.5
1488.95	29.5
1490.01	25.5
1491.07	29.5
1492.12	27
1493.18	25.5
1494.24	25.5
1495.3	25.5
1496.36	22
1497.42	28.5
1498.47	23.5
1499.53	26
1500.59	28
1501.65	27
1502.7	22.5
1503.76	21
1504.82	27.5
1505.88	24.5
1506.93	24.5
1507.99	23
1509.05	28
1510.1	24
1511.16	28.5
1512.21	24
1513.27	25.5
1514.32	24.5
1515.38	28
1516.43	24.5
1517.49	25
1518.54	25
1519.6	27
1520.65	24.5
1521.71	24
1522.76	27
1523.82	28
1524.87	26
1525.92	26.5
1526.98	22.5
1528.03	22
1529.08	24
1530.14	25
1531.19	25.5
1532.24	27
1533.3	28.5
1534.35	23
1535.4	22
1536.45	25
1537.5	28
1538.56	27
1539.61	24
1540.66	28
1541.71	29
1542.76	26
1543.81	26
1544.86	23
1545.91	22
1546.96	21
1548.01	27
1549.06	23
1550.11	26
1551.16	23
1552.21	27.5
1553.26	21
1554.31	23
1555.36	25
1556.41	28
1557.46	22
1558.51	25
1559.55	25
1560.6	26.5
1561.65	28
1562.7	26
1563.75	25
1564.79	27.5
1565.84	22.5
1566.89	26
1567.94	28.5
1568.98	26.5
1570.03	24.5
1571.07	25
1572.12	26
1573.17	28.5
1574.21	25
1575.26	25
1576.31	25
1577.35	24.5
1578.4	24
1579.44	21
1580.49	24
1581.53	25
1582.58	26.5
1583.62	27.5
1584.67	27
1585.71	27.5
1586.75	24
1587.8	22
1588.84	27
1589.89	23
1590.93	25
1591.97	28
1593.02	27.5
1594.06	25
1595.1	23.5
1596.14	29.5
1597.19	23.5
1598.23	24.5
1599.27	23
1600.31	24.5
1601.35	25
1602.4	24.5
1603.44	25
1604.48	23.5
1605.52	24
1606.56	29
1607.6	26
1608.64	26
1609.68	31.5
1610.72	24
1611.76	23
1612.8	24
1613.84	24.5
1614.88	24.5
1615.92	26
1616.96	26
1618	23.5
1619.04	25.5
1620.08	25
1621.12	24
1622.16	21.5
1623.19	23
1624.23	27.5
1625.27	25.5
1626.31	25
1627.35	18
1628.38	21.5
1629.42	25.5
1630.46	27
1631.5	25
1632.53	27
1633.57	28
1634.61	23
1635.64	21.5
1636.68	22
1637.71	28
1638.75	25.5
1639.79	24.5
1640.82	24.5
1641.86	29.5
1642.89	25
1643.93	23.5
1644.96	23
1646	25
1647.03	24
1648.07	26
1649.1	24.5
1650.14	28
1651.17	27
1652.2	25.5
1653.24	22.5
1654.27	21
1655.3	21.5
1656.34	21
1657.37	24
1658.4	26.5
1659.44	29
1660.47	24
1661.5	23.5
1662.53	24
1663.57	26
1664.6	26.5
1665.63	24
1666.66	27.5
1667.69	26
1668.72	24
1669.75	29
1670.79	24.5
1671.82	26
1672.85	23
1673.88	25.5
1674.91	27
1675.94	24
1676.97	25.5
1678	23
1679.03	29
1680.06	23.5
1681.09	24
1682.11	25.5
1683.14	25
1684.17	22
1685.2	24
1686.23	24.5
1687.26	23.5
1688.29	28
1689.32	26
1690.34	24
1691.37	22.5
1692.4	27
1693.43	24.5
1694.45	23
1695.48	26
1696.51	25
1697.53	24.5
1698.56	26
1699.59	26
1700.61	21.5
1701.64	25.5
1702.66	27
1703.69	29
1704.72	27
1705.74	23
1706.77	24
1707.79	24.5
1708.82	24.5
1709.84	23.5
1710.87	26
1711.89	21
1712.92	24
1713.94	23
1714.96	23.5
1715.99	23.5
1717.01	23.5
1718.04	27
1719.06	28
1720.08	29
1721.11	24.5
1722.13	25.5
1723.15	28
1724.17	26
1725.2	29
1726.22	26.5
1727.24	25.5
1728.26	26.5
1729.28	23.5
1730.31	24
1731.33	23
1732.35	25
1733.37	28
1734.39	25
1735.41	25
1736.43	22
1737.45	25
1738.47	23.5
1739.49	26
1740.51	25
1741.53	21
1742.55	24
1743.57	28
1744.59	22
1745.61	25
1746.63	24
1747.65	25
1748.67	27.5
1749.69	27
1750.71	27
1751.72	26
1752.74	27.5
1753.76	26
1754.78	26.5
1755.8	23
1756.81	24.5
1757.83	24
1758.85	24
1759.86	25
1760.88	23.5
1761.9	27.5
1762.91	23.5
1763.93	22.5
1764.95	22.5
1765.96	23.5
1766.98	26
1768	27.5
1769.01	29.5
1770.03	25
1771.04	20
1772.06	26.5
1773.07	25
1774.09	22
1775.1	23.5
1776.12	30.5
1777.13	23.5
1778.14	26
1779.16	27.5
1780.17	27
1781.19	26.5
1782.2	21.5
1783.21	22.5
1784.23	25
1785.24	25.5
1786.25	23.5
1787.27	28.5
1788.28	27
1789.29	25
1790.3	24.5
1791.32	26.5
1792.33	27.5
1793.34	24
1794.35	24.5
1795.36	25
1796.37	26
1797.38	26
1798.4	23
1799.41	24
1800.42	24.5
1801.43	22.5
1802.44	25
1803.45	24.5
1804.46	27
1805.47	27
1806.48	25.5
1807.49	25.5
1808.5	23
1809.51	24
1810.52	28
1811.53	26
1812.53	25
1813.54	26.5
1814.55	28
1815.56	23
1816.57	25
1817.58	24.5
1818.58	24
1819.59	24
1820.6	25.5
1821.61	22
1822.61	25
1823.62	23.5
1824.63	21.5
1825.64	23.5
1826.64	25.5
1827.65	22
1828.66	24.5
1829.66	25.5
1830.67	26.5
1831.67	27
1832.68	22
1833.68	26
1834.69	27
1835.7	25
1836.7	21.5
1837.71	25.5
1838.71	26
1839.71	24.5
1840.72	21.5
1841.72	27.5
1842.73	26.5
1843.73	23.5
1844.74	28
1845.74	22
1846.74	21
1847.75	22
1848.75	28.5
1849.75	23.5
1850.76	25.5
1851.76	23
1852.76	25.5
1853.76	23.5
1854.77	27.5
1855.77	26.5
1856.77	23.5
1857.77	27.5
1858.77	25
1859.78	26.5
1860.78	24
1861.78	22
1862.78	20.5
1863.78	24.5
1864.78	29
1865.78	24
1866.78	26.5
1867.78	26.5
1868.78	24.5
1869.78	21
1870.78	25.5
1871.78	26.5
1872.78	24.5
1873.78	22.5
1874.78	27.5
1875.78	23
1876.78	23
1877.78	21
1878.78	22.5
1879.77	25.5
1880.77	26
1881.77	23
1882.77	27
1883.77	23
1884.76	24
1885.76	23.5
1886.76	24.5
1887.76	25.5
1888.75	27.5
1889.75	26.5
1890.75	24.5
1891.74	27
1892.74	22
1893.74	25.5
1894.73	26.5
1895.73	26.5
1896.72	24
1897.72	25.5
1898.72	24
1899.71	22
1900.71	22
1901.7	26
1902.7	28.5
1903.69	26
1904.69	27
1905.68	22
1906.67	26.5
1907.67	27.5
1908.66	27.5
1909.66	21.5
1910.65	27
1911.64	23
1912.64	24
1913.63	19
1914.62	24
1915.62	23
1916.61	24.5
1917.6	23.5
1918.59	24
1919.59	22.5
1920.58	27
1921.57	24.5
1922.56	22.5
1923.55	25.5
1924.55	24.5
1925.54	25
1926.53	24.5
1927.52	24.5
1928.51	27.5
1929.5	22.5
1930.49	17
1931.48	25.5
1932.47	23.5
1933.46	27
1934.45	26
1935.44	22
1936.43	21
1937.42	23.5
1938.41	24
1939.4	24
1940.39	24
1941.38	23.5
1942.37	26
1943.36	25
1944.34	22.5
1945.33	23.5
1946.32	26.5
1947.31	23.5
1948.3	25.25
1949.28	25.5
1950.27	23
1951.26	23
1952.25	24.5
1953.23	26.5
1954.22	25.5
1955.21	23.5
1956.2	24.5
1957.18	23.5
1958.17	20
1959.15	22
1960.14	25
1961.13	22
1962.11	25.5
1963.1	21
1964.08	26.5
1965.07	22
1966.05	23
1967.04	26.5
1968.02	24
1969.01	23.5
1969.99	24
1970.98	25.5
1971.96	25
1972.94	25
1973.93	27
1974.91	22
1975.9	22.5
1976.88	24.5
1977.86	18.5
1978.85	24
1979.83	23
1980.81	28.5
1981.8	24.5
1982.78	23.5
1983.76	22
1984.74	26
1985.72	26
1986.71	23.5
1987.69	25
1988.67	26.5
1989.65	23.5
1990.63	27
1991.61	23
1992.6	22
1993.58	25
1994.56	24.5
1995.54	22.5
1996.52	25
1997.5	24.5
1998.48	24
1999.46	22
2000.44	22
2001.42	23.5
2002.4	24
2003.38	25.5
2004.36	24
2005.34	24
2006.32	24
2007.29	22.5
2008.27	21.5
2009.25	26
2010.23	24.5
2011.21	23
2012.19	24
2013.16	25
2014.14	24.5
2015.12	24.5
2016.1	23.5
2017.07	25
2018.05	23
2019.03	23
2020	22
2020.98	21.5
2021.96	23.5
2022.93	24
2023.91	26
2024.89	24.5
2025.86	26
2026.84	18
2027.81	23
2028.79	24.5
2029.77	24.5
2030.74	24.5
2031.72	31
2032.69	23.5
2033.67	23.5
2034.64	26
2035.61	24
2036.59	27
2037.56	24.5
2038.54	22
2039.51	26
2040.48	23.5
2041.46	21
2042.43	22
2043.41	22.5
2044.38	22.5
2045.35	23.5
2046.32	22.5
2047.3	22
2048.27	22.5
2049.24	25
2050.21	24
2051.19	28
2052.16	24.5
2053.13	23
2054.1	23.5
2055.07	20
2056.04	25
2057.02	24.5
2057.99	23.5
2058.96	20
2059.93	26
2060.9	20.5
2061.87	20.5
2062.84	25
2063.81	24
2064.78	20.5
2065.75	22
2066.72	24
2067.69	24
2068.66	22
2069.63	20.5
2070.6	23
2071.57	21.5
2072.53	25
2073.5	22
2074.47	25
2075.44	21.5
2076.41	26
2077.38	23.5
2078.34	25.5
2079.31	24
2080.28	24.5
2081.25	27.5
2082.21	22
2083.18	26
2084.15	20.5
2085.12	18
2086.08	29
2087.05	24.5
2088.02	20
2088.98	27
2089.95	21.5
2090.91	20.5
2091.88	23
2092.85	25
2093.81	24.5
2094.78	24
2095.74	21
2096.71	20.5
2097.67	18.5
2098.64	20
2099.6	24
2100.57	23
2101.53	24
2102.5	24.5
2103.46	25.5
2104.42	23.5
2105.39	23
2106.35	26
2107.31	27
2108.28	23.5
2109.24	23
2110.2	23
2111.17	25
2112.13	23
2113.09	21
2114.06	21.5
2115.02	24
2115.98	27.5
2116.94	26
2117.9	24
2118.86	24
2119.83	23.5
2120.79	27
2121.75	22.5
2122.71	23
2123.67	23.5
2124.63	26
2125.59	21.5
2126.55	24
2127.51	23
2128.48	19.5
2129.43	29
2130.4	24.5
2131.35	26.5
2132.31	22
2133.27	24.5
2134.23	20.5
2135.19	25.5
2136.15	26
2137.11	23
2138.07	27
2139.03	20.5
2139.99	22
2140.95	19
2141.9	26
2142.86	23.9779
2143.82	24.4233
2144.78	23.0293
2145.74	26.8713
2146.69	23.9406
2147.65	22.9257
2148.61	21.8423
2149.56	22.5728
2150.52	22.55
2151.48	22
2152.44	22.0387
2153.39	25.7347
2154.35	20.8364
2155.3	23.6847
2156.26	21.3847
2157.22	23.0377
2158.17	23.2881
2159.13	19.8583
2160.08	22.8394
2161.04	21.2252
2161.99	23.9046
2162.95	21.5012
2163.9	23.6762
2164.86	22.5154
2165.81	24.4704
2166.77	22.3853
2167.72	24.82
2168.68	22.6453
2169.63	22.3563
2170.58	24.3511
2171.54	23.4014
2172.49	19.9108
2173.44	24.61
2174.4	21.5962
2175.35	24.9328
2176.3	21.4489
2177.26	23.2995
2178.21	20.3497
2179.16	22.6917
2180.11	21.2175
2181.07	22.0898
2182.02	23.453
2182.97	20.332
2183.92	23.3425
2184.88	21.7325
2185.83	21.4084
2186.78	23.1131
2187.73	21.0613
2188.68	21.9521
2189.63	23.8049
2190.58	21.2695
2191.53	21.7163
2192.48	20.0399
2193.43	22.7298
2194.38	21.7624
2195.33	20.4866
2196.28	20.6442
2197.23	22.5659
2198.18	24.8015
2199.13	23.8634
2200.08	22.5884
2201.03	22.7032
2201.98	23.016
2202.93	20.7377
2203.88	23.3926
2204.83	21.7801
2205.78	22.3435
2206.72	20.499
2207.67	25.4398
2208.62	24.4134
2209.57	22.5802
2210.52	23.1127
2211.46	24.1714
2212.41	23.4817
2213.36	22.4416
2214.31	24.4326
2215.25	21.482
2216.2	22.7378
2217.15	21.6053
2218.09	24.9533
2219.04	21.5257
2219.99	20.2082
2220.93	23.727
2221.88	20.3582
2222.83	21.3714
2223.77	27.0524
2224.72	21.398
2225.66	24.8307
2226.61	23.164
2227.55	21.3943
2228.5	20.9869
2229.44	20
2230.39	21.7003
2231.33	23.6489
2232.28	23.2839
2233.22	23.634
2234.17	24.0381
2235.11	20.1755
2236.05	23.0113
2237	23.5304
2237.94	21.9798
2238.88	22.6834
2239.83	26.4922
2240.04	27.5
2240.98	19
2241.93	24.5
2242.88	25
2243.83	23
2244.78	25
2245.72	23.5
2246.67	21
2247.62	21
2248.56	22.5
2249.51	26
2250.46	25
2251.4	23
2252.35	25
2253.3	26.5
2254.24	25
2255.19	21.5
2256.14	22.5
2257.08	24.5
2258.03	23.5
2258.97	23.5
2259.92	22
2260.86	24.5
2261.81	22
2262.75	20.5
2263.7	24.5
2264.64	24.5
2265.59	24
2266.53	24
2267.48	22
2268.42	22.5
2269.36	18.5
2270.31	21.5
2271.25	28
2272.19	20
2273.14	22
2274.08	18
2275.02	28.5
2275.97	27
2276.91	23.5
2277.85	22
2278.8	22.5
2279.74	24
2280.68	26
2281.62	23
2282.56	25.5
2283.51	20
2284.45	23.5
2285.39	22
2286.33	26
2287.27	21
2288.21	22
2289.15	22
2290.09	24
2291.04	24
2291.98	22.5
2292.92	22
2293.86	25.5
2294.8	23.5
2295.74	23.5
2296.68	21.5
2297.62	25.5
2298.56	21.5
2299.5	22
2300.44	22
2301.37	25
2302.31	24
2303.25	24.5
2304.19	22.5
2305.13	22
2306.07	20
2307.01	20
2307.94	21.5
2308.88	24.5
2309.82	25
2310.76	25
2311.7	26
2312.63	22.5
2313.57	24
2314.51	23
2315.44	27
2316.38	25
2317.32	19.5
2318.26	23
2319.19	17.5
2320.13	22
2321.06	27
2322	22.5
2322.94	24
2323.87	22
2324.81	24
2325.74	23
2326.68	25
2327.61	24
2328.55	25
2329.48	25
2330.42	27
2331.35	20.5
2332.29	21
2333.22	30.5
2334.16	27.5
2335.09	23.5
2336.02	24
2336.96	27
2337.89	23.5
2338.83	22.5
2339.76	25
2340.69	25
2341.63	20
2342.56	22.5
2343.49	25
2344.42	23
2345.36	24
2346.29	19
2347.22	22.5
2348.15	24
2349.09	23
2350.02	23.5
2350.95	22.5
2351.88	20
2352.81	22
2353.74	21
2354.68	21
2355.61	31
2356.54	22.5
2357.47	23
2358.4	23
2359.33	24
2360.26	20.5
2361.19	26.5
2362.12	23.5
2363.05	23.5
2363.98	22.5
2364.91	24.5
2365.84	24.5
2366.77	28
2367.7	21
2368.63	23.5
2369.56	25
2370.49	27.5
2371.41	23.5
2372.34	23
2373.27	21
2374.2	24
2375.13	22
2376.06	21.5
2376.98	22
2377.91	23
2378.84	24
2379.77	21
2380.69	23.5
2381.62	21
2382.55	24
2383.47	18
2384.4	19
2385.33	22
2386.25	24.5
2387.18	24
2388.11	23.5
2389.03	23
2389.96	21
2390.89	27
2391.81	22.5
2392.74	24
2393.66	20.5
2394.59	26
2395.51	23
2396.44	25.5
2397.36	19
2398.29	22.5
2399.21	24.5
2400.14	21
2401.06	23.5
2401.99	21.5
2402.91	22
2403.83	21.5
2404.76	28
2405.68	27.5
2406.6	23
2407.53	25
2408.45	24
2409.37	22.5
2410.3	26.5
2411.22	24.5
2412.14	22
2413.06	24
2413.99	25
2414.91	24
2415.83	23.5
2416.75	27.5
2417.68	25
2418.6	24
2419.52	24
2420.44	22
2421.36	25
2422.28	25.5
2423.2	25
2424.12	24
2425.05	25
2425.97	18.5
2426.89	22
2427.81	27
2428.73	22.5
2429.65	23
2430.57	23
2431.49	19
2432.41	23
2433.33	26
2434.25	25
2435.17	23.5
2436.08	27
2437	31
2437.92	24.5
2438.84	25.5
2439.76	25
2440.68	22
2441.6	24
2442.51	23
2443.43	20.5
2444.35	24
2445.27	23.5
2446.19	23
2447.1	22
2448.02	25.5
2448.94	25
2449.85	22
2450.77	26
2451.69	25
2452.61	22
2453.52	21.5
2454.44	24.5
2455.35	25.5
2456.27	24.5
2457.19	22.5
2458.1	21
2459.02	26
2459.94	22
2460.85	22.5
2461.77	21
2462.68	22.5
2463.6	27
2464.51	23
2465.43	24.5
2466.34	23
2467.25	26
2468.17	27
2469.08	24.5
2470	24
2470.91	23
2471.83	27
2472.74	20
2473.65	24
2474.57	23
2475.48	22
2476.39	22.5
2477.31	23
2478.22	26
2479.13	26
2480.04	20.5
2480.96	24
2481.87	25.5
2482.78	23.5
2483.69	24
2484.6	28
2485.52	21.5
2486.43	25.5
2487.34	23.5
2488.25	27
2489.16	25.5
2490.07	26.5
2490.99	24.5
2491.9	25
2492.81	28
2493.72	25
2494.63	24
2495.54	26.5
2496.45	20
2497.36	24
2498.27	24.5
2499.18	24
2500.09	23.5
2501	25
2501.91	19
2502.82	24
2503.73	29.5
2504.63	25.5
2505.54	22
2506.45	28
2507.36	27
2508.27	25
2509.18	24
2510.09	24.5
2510.99	22
2511.9	25.5
2512.81	25.5
2513.72	22.5
2514.62	23
2515.53	21
2516.44	24
2517.35	23.5
2518.25	21
2519.16	23
2520.07	24.5
2520.97	27
2521.88	25
2522.79	22.5
2523.69	20
2524.6	23.5
2525.51	17
2526.41	23
2527.32	26
2528.22	25
2529.13	23.5
2530.03	23
2530.94	26.5
2531.84	27
2532.75	25
2533.65	25
2534.56	27.5
2535.46	24
2536.37	26
2537.27	24.5
2538.17	25
2539.08	21
2539.98	23.5
2540.89	24
2541.79	25.5
2542.69	24
2543.6	23.5
2544.5	25
2545.4	22
2546.31	24
2547.21	24.5
2548.11	20.5
2549.01	22
2549.92	23.5
2550.82	22.5
2551.72	28
2552.62	23
2553.52	26.5
2554.42	22
2555.33	26
2556.23	23
2557.13	21
2558.03	24
2558.93	24.5
2559.83	27.5
2560.73	22
2561.63	23
2562.53	25.5
2563.43	25
2564.33	25
2565.24	22.5
2566.13	25.5
2567.04	25.5
2567.93	21.5
2568.83	27.5
2569.73	25
2570.63	25
2571.53	22
2572.43	26
2573.33	24
2574.23	24
2575.13	27
2576.03	25
2576.92	27
2577.82	23
2578.72	22
2579.62	21
2580.52	23
2581.41	25.5
2582.31	22
2583.21	27.5
2584.11	27.5
2585	25.5
2585.9	24
2586.8	24
2587.69	27.5
2588.59	24
2589.49	23
2590.38	25.5
2591.28	19.5
2592.18	28
2593.07	26.5
2593.97	23.5
2594.86	26
2595.76	24.5
2596.66	24.5
2597.55	24.5
2598.45	29.5
2599.34	26.5
2600.24	22.5
2601.13	27
2602.03	24.5
2602.92	22.5
2603.81	26.5
2604.71	22.5
2605.6	24.5
2606.5	23
2607.39	22.5
2608.28	25
2609.18	24
2610.07	31
2610.97	26
2611.86	25.5
2612.75	25
2613.64	24.5
2614.54	22.5
2615.43	25
2616.32	22
2617.22	23
2618.11	23
2619	23
2619.89	22.5
2620.78	24
2621.68	29
2622.57	21.5
2623.46	24
2624.35	23.5
2625.24	21.5
2626.13	25.5
2627.02	26
2627.91	25
2628.81	26.5
2629.7	25.5
2630.59	27
2631.48	29
2632.37	26.5
2633.26	25.5
2634.15	26
2635.04	24.5
2635.93	23
2636.82	25
2637.71	24
2638.59	23
2639.48	22.5
2640.37	23.5
2641.26	27
2642.15	24.5
2643.04	24
2643.93	24.5
2644.82	23
2645.71	26.5
2646.59	24
2647.48	21.5
2648.37	22.5
2649.26	25
2650.15	25.5
2651.03	24
2651.92	23
2652.81	24.5
2653.69	23
2654.58	21.5
2655.47	27
2656.35	22
2657.24	26.5
2658.13	24.5
2659.01	25.5
2659.9	25.5
2660.79	27.5
2661.67	26.5
2662.56	25
2663.44	25.5
2664.33	26.5
2665.22	23
2666.1	25
2666.99	24
2667.87	26
2668.76	26
2669.64	20
2670.52	26.5
2671.41	24.5
2672.29	25
2673.18	25
2674.06	23.5
2674.95	25.5
2675.83	21
2676.71	25
2677.6	25
2678.48	23
2679.36	24
2680.25	26.5
2681.13	24
2682.01	26
2682.9	21
2683.78	23
2684.66	25.5
2685.55	23.5
2686.43	23.5
2687.31	26
2688.19	25
2689.07	28
2689.96	24.5
2690.84	25.5
2691.72	21.5
2692.6	29.5
2693.48	26
2694.36	22
2695.24	21
2696.12	25.5
2697	22.5
2697.89	22
2698.77	22
2699.65	27
2700.53	23
2701.41	25
2702.29	24.5
2703.17	23
2704.05	23
2704.93	27.5
2705.81	25
2706.69	24
2707.57	27
2708.44	24.5
2709.32	23.5
2710.2	24.5
2711.08	29
2711.96	21
2712.84	29
2713.72	22
2714.59	25
2715.47	23.5
2716.35	24.5
2717.23	27
2718.11	23
2718.98	30.5
2719.86	27
2720.74	25
2721.62	25
2722.49	23
2723.37	23
2724.25	24
2725.12	24
2726	21
2726.88	22.5
2727.75	20
2728.63	23.5
2729.51	25.5
2730.38	22
2731.26	23.5
2732.13	27
2733.01	26.5
2733.88	25
2734.76	26
2735.63	22.5
2736.51	27.5
2737.38	22
2738.26	28
2739.13	26.5
2740.01	23.5
2740.88	21.5
2741.76	23.5
2742.63	20
2743.5	26
2744.38	24
2745.25	22.5
2746.13	23.5
2747	24
2747.87	27
2748.75	24.5
2749.62	20.5
2750.49	20
2751.36	23
2752.24	25
2753.11	22.5
2753.98	24
2754.86	22
2755.73	25
2756.6	20.5
2757.47	22
2758.34	24
2759.22	28
2760.09	25
2760.96	25
2761.83	23
2762.7	19.5
2763.57	25
2764.44	29
2765.31	22.5
2766.18	26
2767.06	26
2767.93	23.5
2768.8	22.5
2769.67	20
2770.54	25.5
2771.41	26
2772.28	23.5
2773.15	26.5
2774.02	28
2774.89	28.5
2775.75	22.5
2776.62	26
2777.49	26
2778.36	24
2779.23	25.5
2780.1	20.5
2780.97	26
2781.84	29.5
2782.71	26
2783.57	25.5
2784.44	26.5
2785.31	24
2786.18	25
2787.04	26.5
2787.91	24.5
2788.78	27
2789.65	26.5
2790.51	24.5
2791.38	25.5
2792.25	24
2793.12	23
2793.98	21
2794.85	22
2795.72	23.5
2796.58	29
2797.45	24.5
2798.31	24
2799.18	24
2800.05	25.5
2800.91	26
2801.78	23.5
2802.64	24
2803.51	28.5
2804.37	27
2805.24	27
2806.1	24
2806.97	27
2807.83	24
2808.7	28
2809.56	27
2810.43	24.5
2811.29	25
2812.15	26
2813.02	27
2813.88	28
2814.75	23.5
2815.61	26
2816.47	29
2817.34	25
2818.2	27
2819.06	29.5
2819.92	23
2820.79	30.5
2821.65	26.5
2822.51	22
2823.37	27
2824.24	27
2825.1	27
2825.96	23.5
2826.82	28.5
2827.69	28.5
2828.55	24.5
2829.41	27
2830.27	24.5
2831.13	26.5
2831.99	26.5
2832.85	22.5
2833.71	28
2834.58	25
2835.44	27
2836.3	27.5
2837.16	26
2838.02	24.5
2838.88	23
2839.74	28
2840.6	26.5
2841.46	23
2842.32	25.5
2843.18	26.5
2844.04	29
2844.9	25
2845.75	24
2846.61	27.5
2847.47	23.5
2848.33	25.5
2849.19	26
2850.05	22.5
2850.91	27
2851.77	24.5
2852.62	25.5
2853.48	26.5
2854.34	25.5
2855.2	28
2856.06	25
2856.91	26
2857.77	24.5
2858.63	30
2859.48	30.5
2860.34	25
2861.2	28.5
2862.06	28
2862.91	29
2863.77	25.5
2864.63	24.5
2865.48	26.5
2866.34	27.5
2867.19	30
2868.05	29.5
2868.91	24.5
2869.76	30.5
2870.62	25
2871.47	22.5
2872.33	29
2873.18	31.5
2874.04	28
2874.89	27.5
2875.75	27.5
2876.6	29.5
2877.46	32.5
2878.31	29
2879.17	35
2880.02	30
2880.88	29.5
2881.73	29
2882.58	28
2883.44	33.5
2884.29	35.5
2885.14	38
2886	38
2886.85	36.5
2887.7	34.5
2888.56	29
2889.41	40
2890.26	38.5
2891.12	39.5
2891.97	41
2892.82	44
2893.67	38.5
2894.52	45
2895.38	46.5
2896.23	52.5
2897.08	49
2897.93	53.5
2898.78	59
2899.64	61
2900.49	63.5
2901.34	62.5
2902.19	72
2903.04	69
2903.89	69.5
2904.74	65
2905.59	76
2906.44	69
2907.29	71.5
2908.14	70
2908.99	69
2909.84	66
2910.69	61
2911.54	56
2912.39	59
2913.24	57.5
2914.09	53.5
2914.94	51.5
2915.79	42.5
2916.64	38
2917.49	38
2918.34	39.5
2919.18	39
2920.03	40
2920.88	41
2921.73	31.5
2922.58	32.5
2923.42	35
2924.27	35.5
2925.12	32
2925.97	36
2926.82	31.5
2927.66	33.5
2928.51	33.5
2929.36	30.5
2930.2	26
2931.05	29.5
2931.9	28.5
2932.74	24
2933.59	29.5
2934.44	25.5
2935.28	31
2936.13	31
2936.98	29
2937.82	29.5
2938.67	27.5
2939.51	23.5
2940.36	29.5
2941.2	25.5
2942.05	30.5
2942.9	27
2943.74	30.5
2944.58	24.5
2945.43	32.5
2946.27	25.5
2947.12	26
2947.96	33.5
2948.81	29.5
2949.65	27
2950.5	28.5
2951.34	29.5
2952.18	30
2953.03	29
2953.87	35
2954.71	28
2955.56	31
2956.4	31.5
2957.24	35.5
2958.09	37.5
2958.93	41.5
2959.77	38.5
2960.62	37
2961.46	42.5
2962.3	45
2963.14	49
2963.98	40
2964.83	48
2965.67	37
2966.51	41
2967.35	41
2968.19	44.5
2969.04	41.5
2969.88	41
2970.72	38
2971.56	41.4757
2972.4	39.3843
2973.24	35.946
2974.08	31.2157
2974.92	33.0771
2975.76	33.4623
2976.6	33.7394
2977.44	32.1267
2978.28	33.1901
2979.12	32.7963
2979.96	32.9106
2980.8	30.3198
2981.64	28.5607
2982.48	29.2846
2983.32	32.2215
2984.16	27.3385
2985	28.0204
2985.84	28.2263
2986.68	28.617
2987.52	25.577
2988.35	25.9407
2989.19	28.4984
2990.03	26.7501
2990.87	25.6911
2991.71	28.5713
2992.55	25.4043
2993.38	23.8463
2994.22	21.517
2995.06	28.2717
2995.9	25.6676
2996.73	23.912
2997.57	23.4495
2998.41	22.7442
2999.25	27.3457
3000.08	23.6223
3000.92	24.1893
3001.76	22.9347
3002.59	26.2206
3003.43	24.2562
3004.27	23.7832
3005.1	24.0498
3005.94	24.9219
3006.78	24.538
3007.61	26.4241
3008.45	23.8968
3009.28	25.4981
3010.12	21.0645
3010.95	23.0598
3011.79	23.442
3012.62	23.9331
3013.46	25.2716
3014.29	24.1986
3015.13	22.7782
3015.96	24.5862
3016.8	25.3857
3017.63	25.0066
3018.47	25.3235
3019.3	22.4552
3020.14	23.1729
3020.97	24.003
3021.8	24.3193
3022.64	23.252
3023.47	24.1955
3024.3	24.2761
3025.14	22.318
3025.97	23.4257
3026.8	23.6827
3027.64	22.7394
3028.47	23.4784
3029.3	23.6198
3030.14	22.7591
3030.97	21.1098
3031.8	23.1293
3032.63	24.1798
3033.46	24.7832
3034.3	23.8945
3035.13	24.3439
3035.96	23.8653
3036.79	22.3568
3037.62	22.2282
3038.46	20.8513
3039.29	20.2984
3040.12	21.6514
3040.95	23.4076
3041.78	22.3702
3042.61	23.6746
3043.44	23.655
3044.27	22.7758
3045.1	21.8519
3045.93	21.1723
3046.76	22.1708
3047.59	23.0447
3048.42	20.8931
3049.25	19.3387
3050.08	20.9692
3050.91	21.5154
3051.74	20.3899
3052.57	21.1196
3053.4	21.8777
3054.23	22.1267
3055.06	22.3572
3055.89	23.5946
3056.72	21.3578
3057.32	21
3058.15	20
3058.98	24
3059.82	23
3060.65	21.5
3061.48	24
3062.31	24.5
3063.15	22.5
3063.98	22.5
3064.81	25
3065.64	23
3066.48	19.5
3067.31	23.5
3068.14	24
3068.97	21
3069.8	24.5
3070.63	22
3071.47	22
3072.3	21
3073.13	21.5
3073.96	21
3074.79	23
3075.62	22.5
3076.45	22.5
3077.28	23.5
3078.11	22
3078.94	21
3079.77	22
3080.6	20.5
3081.43	21
3082.26	23.5
3083.09	24
3083.92	24.5
3084.75	27
3085.58	22
3086.41	25.5
3087.24	25
3088.07	20.5
3088.9	25.5
3089.73	22
3090.55	21.5
3091.38	24
3092.21	21.5
3093.04	23.5
3093.87	25
3094.7	19.5
3095.52	25
3096.35	22
3097.18	21
3098.01	24
3098.84	25.5
3099.66	21.5
3100.49	26
3101.32	22
3102.14	23
3102.97	26.5
3103.8	21
3104.62	22.5
3105.45	21
3106.28	24.5
3107.1	23
3107.93	25
3108.76	25.5
3109.58	24
3110.41	24.5
3111.23	25.5
3112.06	27.5
3112.89	20.5
3113.71	26
3114.54	25.5
3115.36	20
3116.19	26
3117.01	23
3117.84	26.5
3118.66	25.5
3119.49	21.5
3120.31	25.5
3121.13	21
3121.96	22
3122.78	24
3123.61	25.5
3124.43	20.5
3125.25	25.5
3126.08	24
3126.9	23
3127.73	26
3128.55	23.5
3129.37	27
3130.19	24.5
3131.02	23
3131.84	22.5
3132.66	26
3133.49	25.5
3134.31	23
3135.13	23
3135.95	25
3136.78	24.5
3137.6	23.5
3138.42	26
3139.24	25
3140.06	30
3140.88	25.5
3141.71	20
3142.53	27
3143.35	27.5
3144.17	24.5
3144.99	25.5
3145.81	23.5
3146.63	22.5
3147.45	21
3148.27	25
3149.09	25.5
3149.91	24.5
3150.73	24
3151.56	26.5
3152.37	23
3153.2	27
3154.01	22.5
3154.83	22.5
3155.65	20
3156.47	25.5
3157.29	26.5
3158.11	21.5
3158.93	27
3159.75	24.5
3160.57	26
3161.39	25
3162.21	20
3163.02	23.5
3163.84	21.5
3164.66	24.5
3165.48	22.5
3166.3	25
3167.11	23
3167.93	22.5
3168.75	28.5
3169.57	24
3170.39	24
3171.2	22.5
3172.02	22.5
3172.84	25
3173.65	24
3174.47	20.5
3175.29	24
3176.1	25.5
3176.92	23.5
3177.74	22
3178.55	22
3179.37	25.5
3180.19	24
3181	22
3181.82	22
3182.63	28.5
3183.45	23
3184.27	26.5
3185.08	20
3185.9	26
3186.71	23
3187.53	24.5
3188.34	23.5
3189.16	22
3189.97	21
3190.79	21.5
3191.6	25.5
3192.41	23
3193.23	24
3194.04	24.5
3194.86	22.5
3195.67	23
3196.48	19
3197.3	27
3198.11	20
3198.93	28.5
3199.74	24.5
3200.55	25
3201.36	22
3202.18	25.5
3202.99	27.5
3203.8	22
3204.62	24.5
3205.43	22
3206.24	24.5
3207.05	24.5
3207.87	24.5
3208.68	21
3209.49	25
3210.3	23.5
3211.11	21
3211.93	23.5
3212.74	26
3213.55	22
3214.36	22
3215.17	26.5
3215.98	23
3216.79	22
3217.6	24
3218.41	22
3219.22	23
3220.03	24.5
3220.85	27
3221.66	23
3222.47	23.5
3223.28	24.5
3224.09	25
3224.9	19.5
3225.71	23.5
3226.52	23.5
3227.33	25
3228.13	26
3228.94	22.5
3229.75	28
3230.56	22.5
3231.37	26
3232.18	28
3232.99	26.5
3233.8	27
3234.61	22
3235.41	21
3236.22	21
3237.03	21
3237.84	24
3238.65	22.5
3239.45	24
3240.26	23.5
3241.07	24.5
3241.88	21.5
3242.68	25
3243.49	23.5
3244.3	22.5
3245.1	25
3245.91	23.5
3246.72	27
3247.53	22
3248.33	21
3249.14	19
3249.95	24.5
3250.75	25.5
3251.56	23.5
3252.36	26
3253.17	24.5
3253.97	22.5
3254.78	19.5
3255.59	23
3256.39	21
3257.2	26
3258	27
3258.81	26
3259.61	27.5
3260.42	20.5
3261.22	21
3262.03	25
3262.83	21
3263.64	24
3264.44	23.5
3265.24	25.5
3266.05	20.5
3266.85	23
3267.66	24
3268.46	23
3269.26	23
3270.07	26.5
3270.87	22.5
3271.67	26.5
3272.48	25.5
3273.28	23
3274.08	23.5
3274.89	25.5
3275.69	24.5
3276.49	24
3277.29	26
3278.1	24
3278.9	27.5
3279.7	25.5
3280.5	23
3281.3	26
3282.11	20
3282.91	25.5
3283.71	23
3284.51	23.5
3285.31	22.5
3286.11	18.5
3286.91	23
3287.72	23
3288.52	24
3289.32	26.5
3290.12	26.5
3290.92	21
3291.72	25
3292.52	23
3293.32	25
3294.12	21.5
3294.92	26
3295.72	23.5
3296.52	24.5
3297.32	22
3298.12	23.5
3298.92	26.5
3299.72	27
3300.52	20.5
3301.32	25.5
3302.12	19
3302.92	24
3303.71	28.5
3304.51	24
3305.31	21
3306.11	20
3306.91	22.5
3307.71	23
3308.5	25.5
3309.3	23.5
3310.1	26.5
3310.9	25
3311.7	27.5
3312.49	19.5
3313.29	24.5
3314.09	23
3314.89	24
3315.68	25
3316.48	22
3317.28	23
3318.07	22
3318.87	23.5
3319.67	29.5
3320.46	27
3321.26	21
3322.06	23
3322.85	26
3323.65	23
3324.44	22
3325.24	22
3326.04	24.5
3326.83	20.5
3327.63	23.5
3328.42	22
3329.22	21.5
3330.01	19.5
3330.81	24.5
3331.6	24
3332.4	25.5
3333.19	23
3333.99	24.5
3334.78	27.5
3335.58	25
3336.37	22.5
3337.17	25.5
3337.96	25
3338.75	21
3339.55	23.5
3340.34	23
3341.13	25
3341.93	22
3342.72	28.5
3343.51	25.5
3344.31	23.5
3345.1	21.5
3345.89	24
3346.69	26
3347.48	24
3348.27	26.5
3349.06	26.5
3349.86	21.5
3350.65	25.5
3351.44	23
3352.23	25.5
3353.03	24.5
3353.82	25.5
3354.61	26
3355.4	25
3356.19	24.5
3356.98	26.5
3357.78	20.5
3358.57	23
3359.36	21
3360.15	19
3360.94	20.5
3361.73	23.5
3362.52	23.5
3363.31	24.5
3364.1	25
3364.89	24.5
3365.68	27
3366.47	29.5
3367.26	26
3368.05	24.5
3368.84	26
3369.63	25.5
3370.42	25
3371.21	24
3372	20
3372.79	23.5
3373.58	21
3374.37	26.5
3375.16	21
3375.95	23.5
3376.73	22.5
3377.52	22
3378.31	25.5
3379.1	22.5
3379.89	25.5
3380.68	23
3381.46	24.5
3382.25	24
3383.04	20
3383.83	27
3384.62	28
3385.4	25
3386.19	26.5
3386.98	26.5
3387.76	22.5
3388.55	26.5
3389.34	23
3390.13	22
3390.91	26
3391.7	25
3392.49	24.5
3393.27	22
3394.06	22.5
3394.84	25.5
3395.63	23.5
3396.42	25
3397.2	24.5
3397.99	23.5
3398.77	26.5
3399.56	22.5
3400.34	26.5
3401.13	24
3401.92	26
3402.7	24.5
3403.49	24
3404.27	22
3405.06	21
3405.84	22.5
3406.62	22.5
3407.41	24.5
3408.19	21
3408.98	27.5
3409.76	23.5
3410.55	22
3411.33	22.5
3412.11	25
3412.9	24.5
3413.68	24
3414.46	25
3415.25	27.5
3416.03	25
3416.81	26.5
3417.6	22
3418.38	23
3419.16	24.5
3419.95	22
3420.73	21
3421.51	24.5
3422.29	24.5
3423.08	25.5
3423.86	24.5
3424.64	23
3425.42	21
3426.2	21.5
3426.98	22.5
3427.77	21.5
3428.55	21.5
3429.33	24
3430.11	24
3430.89	24
3431.67	23
3432.45	22
3433.24	21
3434.02	24.5
3434.8	22
3435.58	27
3436.36	24
3437.14	23
3437.92	26
3438.7	20
3439.48	25
3440.26	26
3441.04	25
3441.82	19
3442.6	27
3443.38	23
3444.16	27.5
3444.94	27
3445.71	23
3446.49	26
3447.27	24.5
3448.05	19.5
3448.83	25
3449.61	23
3450.39	21.5
3451.17	23.5
3451.94	21.5
3452.72	23.5
3453.5	26.5
3454.28	25
3455.06	24.5
3455.83	24.5
3456.61	25
3457.39	25.5
3458.17	24
3458.94	24
3459.72	23.5
3460.5	25
3461.28	23
3462.05	27
3462.83	24.5
3463.61	21.5
3464.38	25
3465.16	23
3465.93	22.5
3466.71	26
3467.49	24.5
3468.26	21.5
3469.04	21
3469.82	24
3470.59	22.5
3471.37	25
3472.14	27
3472.92	23
3473.69	19
3474.47	25
3475.24	20.5
3476.02	27.5
3476.79	20
3477.57	24
3478.34	25
3479.12	28
3479.89	21.5
3480.67	21
3481.44	22.5
3482.21	22.5
3482.99	23.5
3483.76	24.5
3484.54	25.5
3485.31	25
3486.08	26.5
3486.86	25
3487.63	24
3488.4	22
3489.18	23
3489.95	24
3490.72	24
3491.5	18
3492.27	21
3493.04	27
3493.81	18
3494.59	23
3495.36	25
3496.13	22
3496.9	21
3497.67	24
3498.45	19
3499.22	26
3499.99	22
