#Acq. time (s)=	5
#Accumulations=	5
#Range (cm-¹)=	100...3500
#Windows=	4
#Autofocus=	Off
#AutoExposure=	Off
#Spike filter=	Multiple accum.
#Delay time (s)=	0
#Binning=	1
#Readout mode=	Signal
#DeNoise=	Off
#ICS correction=	Off
#Dark correction=	Off
#Inst. Process=	Off
#Instrument=	LabRAM HR Evol
#Detector=	Syncerity OE
#Objective=	x100_VIS
#Grating=	600 (500nm)
#ND Filter=	25%
#Laser=	633nm_Edge
#Hole=	100.021
#Range=	Visible
#Project=	verificaciones
#Sample=	a5
#Site=	plain
#Title=	bolusa5plain
#Remark=	
#Date=	09.01.2026 14:00
#Acquired=	09.01.2026 14:00:12
100.695	24
101.978	29
103.262	31.5
104.545	31
105.829	30.5
107.112	32.5
108.394	32
109.676	30.5
110.958	33.5
112.24	28
113.522	30
114.803	28
116.084	31
117.365	32
118.646	32.5
119.927	31
121.207	28.5
122.487	35
123.767	29
125.047	35.5
126.326	36
127.606	33
128.885	31
130.164	31
131.442	33.5
132.721	35
133.999	34.5
135.277	30.5
136.555	36
137.831	37.5
139.109	38
140.386	36
141.663	35.5
142.94	38
144.216	40.5
145.493	35.5
146.769	36.5
148.043	40
149.319	37
150.595	40
151.87	41
153.145	41.5
154.42	39.5
155.693	37.5
156.968	38
158.242	41.5
159.516	37
160.79	43
162.062	41
163.336	40
164.609	38
165.882	37
167.153	39.5
168.426	38.5
169.699	36
170.971	34.5
172.241	40
173.513	36.5
174.785	39
176.055	41.5
177.326	34.5
178.597	39.5
179.866	38
181.137	42.5
182.407	37
183.676	44
184.946	36
186.216	39
187.484	37
188.753	40
190.022	36.5
191.29	40
192.558	41.5
193.825	37
195.094	38
196.36	34
197.628	37.5
198.896	40
200.162	35.5
201.429	37
202.695	39
203.962	40.5
205.227	37.5
206.493	38.5
207.758	40
209.024	38
210.289	35
211.554	32
212.818	31.5
214.083	32.5
215.347	30.5
216.612	30
217.875	35.5
219.138	36.5
220.402	35.5
221.665	33.5
222.928	31
224.19	36.5
225.454	29
226.715	34.5
227.977	31.5
229.24	30.5
230.501	31
231.762	29
233.024	34
234.284	29.5
235.546	29.5
236.806	29.5
238.066	31
239.327	30.5
240.587	29.5
241.846	32.5
243.105	31
244.365	30
245.624	28.5
246.882	32.5
248.142	27
249.4	29.5
250.658	31
251.916	27
253.174	29
254.432	31.5
255.689	31.5
256.945	31
258.202	28.5
259.46	25
260.716	32
261.972	29.5
263.228	26.5
264.483	29
265.74	30.5
266.996	36
268.251	30
269.505	29
270.76	28.5
272.014	29
273.268	27
274.522	27.5
275.778	24.5
277.031	29
278.285	31
279.538	27
280.791	26
282.043	28
283.296	30
284.548	32.5
285.8	32
287.052	30.5
288.304	30.5
289.556	25
290.807	29
292.058	28.5
293.309	28.5
294.56	25
295.81	27
297.061	30
298.311	29
299.561	27.5
300.81	25.5
302.06	27
303.309	31
304.558	29.5
305.807	28.5
307.056	27.5
308.305	25
309.551	30.5
310.8	28
312.047	27.5
313.295	26
314.543	29.5
315.79	26.5
317.037	33
318.284	26.5
319.529	28.5
320.776	31.5
322.022	26.5
323.268	30
324.514	27.5
325.758	32
327.004	24.5
328.249	26.5
329.494	27.5
330.739	28.5
331.982	27
333.227	28
334.471	26
335.715	26
336.958	30
338.201	30.5
339.445	33
340.687	29
341.93	28
343.173	26.5
344.414	28
345.657	27.5
346.899	30.5
348.14	24.5
349.381	25
350.623	26.5
351.863	27
353.104	30
354.346	28
355.585	28.5
356.826	25.5
358.065	28.5
359.305	27
360.545	31
361.784	27
363.023	27
364.261	30.5
365.501	27.5
366.738	28
367.977	31
369.216	26.5
370.453	28
371.691	27
372.928	30.5
374.166	29
375.402	27
376.64	25
377.876	22
379.111	29
380.348	31.5
381.584	27.5
382.82	29
384.055	29
385.291	27.5
386.526	32
387.76	31.5
388.996	30.5
390.229	32.5
391.465	29
392.698	31
393.931	25
395.166	26.5
396.399	26.5
397.632	28
398.866	33
400.098	28.5
401.33	27
402.563	29
403.795	27
405.027	25.5
406.259	32.5
407.491	31.5
408.721	28.5
409.954	26
411.184	29.5
412.415	28.5
413.645	31
414.876	28
416.106	29.5
417.335	27.5
418.565	28.5
419.794	28.5
421.024	26
422.253	29.5
423.482	32
424.71	30
425.938	28.5
427.168	28
428.396	26.5
429.623	27.5
430.851	25
432.078	26
433.305	25
434.532	31.5
435.758	28.5
436.986	32
438.212	30.5
439.438	30.5
440.664	29.5
441.89	24.5
443.115	30.5
444.34	28.5
445.566	27.5
446.79	26
448.015	24.5
449.24	28
450.464	31.5
451.688	26
452.912	28.5
454.135	28
455.359	22
456.582	30.5
457.805	25.5
459.028	32.5
460.251	29.5
461.473	29.5
462.696	28
463.918	27
465.14	29.5
466.36	33
467.582	28
468.803	34.5
470.024	34
471.245	35.5
472.466	37
473.686	33
474.907	33.5
476.126	38
477.346	36.5
478.565	45.5
479.785	44.5
481.004	42.5
482.224	47.5
483.441	50.5
484.66	47.5
485.879	57
487.097	58.5
488.314	59.5
489.532	55
490.75	52
491.967	57
493.184	55
494.401	52.5
495.618	55
496.835	51.5
498.05	46.5
499.267	46.5
500.483	42
501.698	45
502.913	42
504.129	39
505.343	37.5
506.559	43
507.774	34
508.987	37.5
510.202	35
511.415	32
512.63	37
513.844	34.5
515.056	34
516.27	34
517.482	32.5
518.696	32
519.907	33.5
521.121	33.5
522.332	33.5
523.545	30.5
524.757	32.5
525.968	31.5
527.18	27.5
528.39	30
529.602	30
530.812	32
532.023	29.5
533.233	30
534.443	30.5
535.653	26.5
536.862	26.5
538.073	28.5
539.281	27
540.491	29
541.7	27
542.908	31
544.117	29
545.325	29
546.534	33
547.741	27.5
548.949	27.5
550.157	26.5
551.364	24.5
552.57	28.5
553.778	32
554.985	24.5
556.191	29
557.398	27
558.604	29
559.809	26.5
561.014	30
562.221	30.5
563.426	26
564.63	30
565.835	28
567.041	28
568.245	30
569.449	24
570.653	26
571.856	29.5
573.061	25
574.264	24
575.467	28
576.67	29
577.873	27
579.076	28
580.279	31
581.481	29.5
582.683	26
583.884	28
585.086	27
586.287	30.5
587.488	29.5
588.689	25.5
589.891	27.5
591.092	28.5
592.292	28.5
593.492	31.5
594.692	26.5
595.892	27
597.092	25
598.291	27.5
599.49	27.5
600.689	29.5
601.888	27.5
603.087	27
604.285	29.5
605.483	28
606.681	25.5
607.879	31
609.077	26.5
610.274	28
611.472	29
612.668	27.5
613.865	26.5
615.061	28
616.258	27
617.454	29
618.65	28
619.846	30.5
621.042	28
622.238	25.5
623.432	25
624.627	28.5
625.822	28
627.017	26.5
628.212	32
629.406	28.5
630.599	28.5
631.793	23
632.987	27
634.181	30
635.373	26
636.566	29
637.76	26.5
638.953	27.5
640.144	27
641.337	26
642.529	28
643.721	29.5
644.912	27.5
646.104	31.5
647.295	27.5
648.485	27.5
649.677	31
650.868	30
652.057	26
653.248	26.5
654.437	24
655.628	25.5
656.818	32.5
658.006	25
659.196	26.5
660.384	25
661.574	30.5
662.763	27.5
663.951	32
665.14	28.5
666.327	29.5
667.515	26
668.702	31.5
669.891	27.5
671.077	33.5
672.265	29.5
673.451	33
674.638	32
675.824	31
677.011	31
678.197	32
679.383	32.5
680.568	27
681.755	28.5
682.939	33
684.124	28
685.309	37
686.494	33
687.679	35.5
688.863	32.5
690.046	34
691.231	35
692.414	32.5
693.599	37.5
694.781	36
695.964	33
697.148	33
698.33	33.5
699.512	33.5
700.694	29
701.877	35.5
703.059	40
704.24	43.5
705.423	46.5
706.604	45.5
707.784	48.5
708.965	51
710.147	50.5
711.327	50
712.507	44
713.687	42
714.867	36
716.048	34
717.227	37
718.406	34
719.585	31.5
720.764	27
721.942	31
723.122	31
724.3	28
725.478	30
726.656	30
727.834	25.5
729.011	27
730.189	29
731.366	25
732.543	30.5
733.719	29.5
734.896	28
736.072	26
737.249	31
738.426	27
739.602	32
740.777	28.5
741.953	27.5
743.128	21.5
744.303	28.5
745.477	30
746.651	29
747.826	28
749	25
750.174	29
751.348	23.5
752.522	27
753.696	27.5
754.869	27.5
756.043	31.5
757.216	25
758.389	28
759.561	28
760.732	28
761.905	32
763.077	29
764.249	28.5
765.421	26
766.592	24.5
767.762	28.5
768.934	31
770.105	31.5
771.275	29.5
772.446	28.5
773.615	28.5
774.786	28
775.956	28.5
777.126	31.5
778.294	30
779.464	25
780.633	27
781.801	28
782.97	28.5
784.139	30.5
785.306	33
786.475	34
787.643	29.5
788.81	26.5
789.978	31
791.146	31
792.312	33
793.479	29.5
794.647	29
795.812	24
796.979	29
798.144	26.5
799.311	26
800.477	28
801.642	26
802.808	25
803.972	28.5
805.138	25.5
806.302	31
807.467	27.5
808.631	30
809.796	27
810.959	28.5
812.124	27
813.287	27
814.451	26.5
815.614	28.5
816.777	30
817.94	27.5
819.102	29.5
820.265	27.5
821.427	28
822.59	26
823.751	27.5
824.912	27.5
826.074	26
827.235	24.5
828.397	24.5
829.558	28.5
830.718	28
831.879	26.5
833.039	25.5
834.199	27
835.359	22.5
836.519	31
837.679	25
838.838	28
839.998	27
841.156	26
842.315	26.5
843.473	30
844.633	27.5
845.791	24
846.948	28
848.106	24
849.263	23.5
850.422	25.5
851.579	26.5
852.736	31.5
853.892	26
855.049	28.5
856.205	29
857.363	28.5
858.519	30.5
859.674	28.5
860.83	28
861.986	30.5
863.141	29.5
864.296	31.5
865.451	28.5
866.605	23
867.76	29
868.914	31
870.069	28.5
871.224	28.5
872.378	28
873.531	28
874.685	28
875.838	25
876.991	26
878.144	31
879.296	25.5
880.448	26.5
881.6	29
882.753	30.5
883.905	26
885.057	29.5
886.208	24.5
887.36	25.5
888.511	28
889.662	25
890.813	27.5
891.964	27
893.113	26
894.264	30.5
895.414	24
896.564	28.5
897.714	24
898.864	24.5
900.012	28
901.161	23.5
902.31	25
903.459	26
904.607	24.5
905.756	25
906.904	25.5
908.052	26
909.199	26
910.347	21
911.495	28.5
912.643	24
913.789	28
914.936	26.5
916.083	24.5
917.229	25
918.375	26.5
919.522	24
920.667	28.5
921.813	30.5
922.959	23.5
924.104	28
925.249	27.5
926.393	27
927.539	24
928.684	25.5
929.827	28
930.972	22.5
932.115	22.5
933.26	26.5
934.403	28
935.547	24
936.689	22
937.833	25.5
938.975	27.5
940.119	28.5
941.26	27.5
942.404	26
943.545	24
944.688	27
945.829	27
946.971	27.5
948.112	31
949.253	26
950.394	24.5
951.535	24.5
952.676	28.5
953.816	28.5
954.956	25
956.097	25
957.236	28
958.377	30
959.516	27.5
960.655	24.5
961.793	23
962.933	23
964.071	26.5
965.21	27
966.349	27.5
967.487	30
968.624	23
969.762	25.5
970.901	28
972.038	29.5
973.175	27
974.311	25.5
975.449	24
976.586	23.5
977.722	24
978.858	28
979.994	27
981.131	30
982.267	28.5
983.402	25
984.537	27
985.672	28.5
986.807	24.5
987.942	26
989.076	27
990.211	24.5
991.346	30
992.48	25
993.614	25.5
994.748	30
995.881	27
997.014	29
998.148	25
999.28	20
1000.41	24
1001.55	21
1002.68	25
1003.81	24
1004.94	22
1006.07	26.5
1007.21	26
1008.34	25.5
1009.47	26
1010.6	23
1011.73	24
1012.86	22
1013.99	27
1015.12	25
1016.25	22
1017.38	26
1018.51	28
1019.64	23.5
1020.77	25
1021.9	27
1023.03	27
1024.16	27.5
1025.29	27.5
1026.42	32
1027.54	25
1028.67	24
1029.8	26
1030.93	22
1032.06	24.5
1033.18	26
1034.31	29
1035.44	26.5
1036.56	28.5
1037.69	29
1038.82	24
1039.94	22
1041.07	19.5
1042.2	25
1043.32	28
1044.45	27
1045.57	23
1046.7	24
1047.82	26
1048.95	28.5
1050.07	26
1051.2	22
1052.32	25
1053.45	25
1054.57	27.5
1055.69	28
1056.82	27
1057.94	24
1059.06	23
1060.19	27
1061.31	26
1062.43	24.5
1063.55	31
1064.68	21
1065.8	24.5
1066.92	27
1068.04	26
1069.16	25
1070.28	24.5
1071.41	29.5
1072.53	27
1073.65	23
1074.77	26
1075.89	24.5
1077.01	26
1078.13	23.5
1079.25	26
1080.37	27
1081.49	21
1082.61	27.5
1083.73	25
1084.85	26
1085.96	28.5
1087.08	25.5
1088.2	24
1089.32	26
1090.44	25
1091.56	24
1092.67	28
1093.79	28
1094.91	25.5
1096.03	22.5
1097.14	25.5
1098.26	28
1099.38	21.5
1100.49	24
1101.61	23
1102.73	23.5
1103.84	24
1104.96	24
1106.07	25
1107.19	26
1108.3	24
1109.42	23
1110.53	25.5
1111.65	25
1112.76	22.5
1113.88	27
1114.99	23
1116.1	25.5
1117.22	26.5
1118.33	23.5
1119.44	28
1120.56	25
1121.67	24
1122.78	26.5
1123.9	26
1125.01	28.5
1126.12	20
1127.23	23
1128.34	23
1129.46	26
1130.57	26.5
1131.68	24.5
1132.79	22
1133.9	24
1135.01	28.5
1136.12	26.5
1137.23	28
1138.34	22.5
1139.45	29.5
1140.56	25
1141.67	22.5
1142.78	25
1143.89	26
1145	28
1146.11	28.5
1147.22	23
1148.33	25
1149.44	21
1150.54	24
1151.65	27.5
1152.76	26
1153.87	27
1154.97	26
1156.08	25.5
1157.19	30
1158.3	28.5
1159.4	23.5
1160.51	27
1161.62	21
1162.72	28
1163.83	27
1164.93	27.5
1166.04	23
1167.15	22
1168.25	29
1169.36	24
1170.46	20.5
1171.57	27
1172.67	22.5
1173.78	23.5
1174.88	21
1175.98	23
1177.09	24
1178.19	23
1179.3	26
1180.4	25
1181.5	24
1182.61	24.5
1183.71	24.5
1184.81	23.5
1185.91	29.5
1187.02	22
1188.12	22
1189.22	27.5
1190.32	24
1191.42	27.5
1192.53	25
1193.63	24.5
1194.73	23.0026
1195.83	23.4814
1196.93	23.9757
1198.03	22.5354
1199.13	23.1092
1200.23	22.6602
1201.33	22.1825
1202.43	27.6283
1203.53	25.4016
1204.63	21.2392
1205.73	23.9906
1206.83	23.5298
1207.93	25.4498
1209.02	25.9455
1210.12	24.2239
1211.22	22.2377
1212.32	26.5441
1213.42	25.7793
1214.52	26.8088
1215.61	23.6795
1216.71	22.2419
1217.81	22.4727
1218.91	23.1858
1220	23.2711
1221.1	24.1555
1222.2	22.8078
1223.29	22.8859
1224.39	26.199
1225.49	26.9066
1226.58	28.28
1227.68	21.5281
1228.77	24.3776
1229.87	25.0719
1230.96	24.1192
1232.06	23.5824
1233.15	25.6582
1234.25	25.7504
1235.34	26.6914
1236.44	25.1508
1237.53	25.3579
1238.63	25.2365
1239.72	23.091
1240.81	24.5874
1241.91	23.7112
1243	24.3013
1244.09	24.6077
1245.19	26.2138
1246.28	23.7319
1247.37	25.8236
1248.46	24.1795
1249.56	24.9325
1250.65	22.3065
1251.74	24.9569
1252.83	22.55
1253.92	25.4193
1255.01	24.4102
1256.11	20.9267
1257.2	25.8879
1258.29	26.3373
1259.38	25.7823
1260.47	25.3957
1261.56	24.2833
1262.65	25.2487
1263.74	24.3647
1264.83	23.8663
1265.92	25.2282
1267.01	25.44
1268.1	24.5375
1269.19	23.8667
1270.27	24.8149
1271.36	23.7945
1272.45	23.233
1273.54	25.3209
1274.63	25.4296
1275.72	23.7357
1276.8	26.0792
1277.89	23.5346
1278.98	21.9539
1280.07	22.5709
1281.15	21.5313
1282.24	23.3493
1283.33	22.4782
1284.41	23.732
1285.5	23.216
1286.59	25.5292
1287.67	25.1409
1288.76	21.0201
1289.84	23.8133
1290.93	23.0671
1292.01	23.8221
1293.1	26.7923
1294.19	25.2672
1295.27	22.2821
1296.35	22.4845
1297.44	23.3587
1298.52	23.5045
1299.61	25.0539
1300.69	26.3062
1301.78	22.7384
1302.86	21.9128
1303.94	22.4603
1305.03	21.4144
1306.11	22.4774
1306.4	23
1307.49	22
1308.57	22.5
1309.66	24.5
1310.75	24
1311.84	24.5
1312.92	25
1314.01	26
1315.1	24.5
1316.19	27
1317.27	24
1318.36	21
1319.45	23.5
1320.53	24
1321.62	26.5
1322.7	24.5
1323.79	25
1324.88	25.5
1325.96	23.5
1327.05	24
1328.13	23.5
1329.21	22.5
1330.3	25
1331.38	24.5
1332.47	26
1333.55	25
1334.64	25
1335.72	21
1336.8	25
1337.89	25
1338.97	29.5
1340.05	22.5
1341.14	23.5
1342.22	27
1343.3	24
1344.39	21.5
1345.47	22.5
1346.55	24
1347.63	26
1348.71	23.5
1349.79	24.5
1350.88	24
1351.96	23
1353.04	24
1354.12	25
1355.2	22
1356.28	21.5
1357.36	24
1358.44	20
1359.52	24
1360.6	25.5
1361.68	21.5
1362.76	21.5
1363.84	24.5
1364.92	20.5
1366	22.5
1367.08	23
1368.16	22.5
1369.23	24
1370.31	26.5
1371.39	24.5
1372.47	24
1373.55	25.5
1374.62	24
1375.7	24
1376.78	23.5
1377.85	23
1378.93	25.5
1380.01	21
1381.09	23.5
1382.16	26.5
1383.24	24
1384.31	20.5
1385.39	26.5
1386.47	22.5
1387.54	24
1388.62	26.5
1389.69	24
1390.77	25.5
1391.84	26
1392.92	27.5
1393.99	26.5
1395.06	24.5
1396.14	25
1397.21	28.5
1398.29	27.5
1399.36	30
1400.43	26
1401.51	28.5
1402.58	29.5
1403.65	27
1404.73	25
1405.8	32
1406.87	24
1407.94	30.5
1409.02	27
1410.09	30
1411.16	30.5
1412.23	26.5
1413.3	30.5
1414.37	31.5
1415.45	30
1416.52	29
1417.59	30.5
1418.66	28.5
1419.73	27
1420.8	28
1421.87	26
1422.94	18.5
1424.01	28
1425.08	26.5
1426.15	26.5
1427.22	28.5
1428.29	26.5
1429.35	26.5
1430.42	27
1431.49	27
1432.56	28
1433.63	24.5
1434.7	27.5
1435.77	25
1436.83	27
1437.9	26
1438.97	23
1440.04	24
1441.1	25
1442.17	26
1443.24	27.5
1444.3	28
1445.37	25
1446.44	23.5
1447.5	26.5
1448.57	26.5
1449.63	23
1450.7	25.5
1451.76	22
1452.83	26
1453.89	24.5
1454.96	18.5
1456.02	25
1457.09	19.5
1458.15	26
1459.22	23
1460.28	27.5
1461.34	26
1462.41	26.5
1463.47	27
1464.54	27
1465.6	24
1466.66	25.5
1467.72	26.5
1468.79	24
1469.85	24
1470.91	25
1471.97	24
1473.04	23.5
1474.1	25.5
1475.16	26.5
1476.22	24.5
1477.28	22
1478.34	24.5
1479.4	26
1480.47	24.5
1481.53	24.5
1482.59	22.5
1483.65	25.5
1484.71	26
1485.77	31.5
1486.83	25.5
1487.89	27.5
1488.95	25.5
1490.01	23.5
1491.07	25.5
1492.12	28
1493.18	27.5
1494.24	26
1495.3	24.5
1496.36	25
1497.42	24.5
1498.47	26.5
1499.53	24.5
1500.59	24
1501.65	24
1502.7	24.5
1503.76	24.5
1504.82	28
1505.88	26.5
1506.93	22.5
1507.99	19.5
1509.05	22.5
1510.1	22
1511.16	27.5
1512.21	21
1513.27	26
1514.32	24
1515.38	28
1516.43	23
1517.49	25
1518.54	25
1519.6	26
1520.65	26
1521.71	23.5
1522.76	30
1523.82	28
1524.87	24
1525.92	27
1526.98	27.5
1528.03	26.5
1529.08	25
1530.14	22.5
1531.19	22
1532.24	26
1533.3	24
1534.35	22
1535.4	22.5
1536.45	27.5
1537.5	23
1538.56	20.5
1539.61	26.5
1540.66	21
1541.71	27
1542.76	23.5
1543.81	26
1544.86	27
1545.91	26.5
1546.96	25
1548.01	24.5
1549.06	24.5
1550.11	24
1551.16	23.5
1552.21	26
1553.26	24.5
1554.31	24
1555.36	25
1556.41	23
1557.46	26
1558.51	26
1559.55	25
1560.6	25
1561.65	23.5
1562.7	25.5
1563.75	23
1564.79	25
1565.84	26
1566.89	23.5
1567.94	25
1568.98	24
1570.03	22
1571.07	25
1572.12	24.5
1573.17	24.5
1574.21	24.5
1575.26	19
1576.31	28
1577.35	25
1578.4	23.5
1579.44	25
1580.49	27.5
1581.53	25
1582.58	28.5
1583.62	26
1584.67	25
1585.71	27
1586.75	25
1587.8	24.5
1588.84	26
1589.89	22
1590.93	27
1591.97	26
1593.02	24.5
1594.06	20.5
1595.1	21
1596.14	28.5
1597.19	26.5
1598.23	23.5
1599.27	25.5
1600.31	25
1601.35	24.5
1602.4	28
1603.44	24
1604.48	27
1605.52	26.5
1606.56	24
1607.6	26.5
1608.64	25
1609.68	22
1610.72	29
1611.76	21.5
1612.8	23
1613.84	22
1614.88	26.5
1615.92	23.5
1616.96	25
1618	25
1619.04	26
1620.08	23
1621.12	25
1622.16	28.5
1623.19	24
1624.23	24
1625.27	22
1626.31	21.5
1627.35	25
1628.38	24.5
1629.42	28
1630.46	19
1631.5	23.5
1632.53	26
1633.57	29.5
1634.61	23.5
1635.64	23
1636.68	25
1637.71	17.5
1638.75	27
1639.79	24.5
1640.82	24.5
1641.86	22
1642.89	24
1643.93	23
1644.96	23
1646	23.5
1647.03	23
1648.07	27
1649.1	27
1650.14	26
1651.17	24
1652.2	28
1653.24	26
1654.27	28
1655.3	28
1656.34	25
1657.37	23.5
1658.4	25
1659.44	26.5
1660.47	24.5
1661.5	22
1662.53	26
1663.57	24.5
1664.6	23.5
1665.63	28.5
1666.66	24
1667.69	29
1668.72	25
1669.75	22.5
1670.79	27
1671.82	26
1672.85	29
1673.88	25
1674.91	23
1675.94	26.5
1676.97	22.5
1678	27.5
1679.03	25.5
1680.06	25
1681.09	26
1682.11	23
1683.14	23
1684.17	24
1685.2	27
1686.23	26.5
1687.26	27
1688.29	24.5
1689.32	24.5
1690.34	24.5
1691.37	23.5
1692.4	23.5
1693.43	27.5
1694.45	25
1695.48	24.5
1696.51	24.5
1697.53	23.5
1698.56	26.5
1699.59	19
1700.61	26
1701.64	20.5
1702.66	22.5
1703.69	24.5
1704.72	23.5
1705.74	25
1706.77	22
1707.79	26.5
1708.82	24
1709.84	25.5
1710.87	22
1711.89	24.5
1712.92	27.5
1713.94	23
1714.96	24
1715.99	26
1717.01	26
1718.04	24
1719.06	27
1720.08	21.5
1721.11	30.5
1722.13	22
1723.15	25
1724.17	28
1725.2	25
1726.22	24
1727.24	24
1728.26	31.5
1729.28	26
1730.31	23
1731.33	27
1732.35	25.5
1733.37	26
1734.39	24
1735.41	27.5
1736.43	27.5
1737.45	20.5
1738.47	22
1739.49	23
1740.51	24.5
1741.53	21.5
1742.55	23
1743.57	20
1744.59	27
1745.61	29
1746.63	25
1747.65	28.5
1748.67	24.5
1749.69	24
1750.71	25.5
1751.72	25.5
1752.74	26.5
1753.76	25
1754.78	24
1755.8	25
1756.81	26
1757.83	27.5
1758.85	24.5
1759.86	22.5
1760.88	27
1761.9	25.5
1762.91	24
1763.93	26
1764.95	25
1765.96	26
1766.98	23
1768	23.5
1769.01	26
1770.03	25
1771.04	26
1772.06	27
1773.07	27
1774.09	24
1775.1	26
1776.12	24
1777.13	27
1778.14	26
1779.16	24.5
1780.17	22.5
1781.19	24
1782.2	25
1783.21	22
1784.23	20
1785.24	25
1786.25	26.5
1787.27	25
1788.28	27
1789.29	24
1790.3	25
1791.32	27
1792.33	25
1793.34	27.5
1794.35	24
1795.36	26
1796.37	24.5
1797.38	25
1798.4	24
1799.41	26.5
1800.42	25.5
1801.43	26
1802.44	26
1803.45	21.5
1804.46	24.5
1805.47	27
1806.48	23
1807.49	23
1808.5	24.5
1809.51	24
1810.52	22
1811.53	25
1812.53	27
1813.54	28
1814.55	24
1815.56	20
1816.57	26
1817.58	18
1818.58	25
1819.59	26
1820.6	25.5
1821.61	23.5
1822.61	27.5
1823.62	25.5
1824.63	23.5
1825.64	26
1826.64	26
1827.65	23.5
1828.66	22
1829.66	23
1830.67	26
1831.67	23.5
1832.68	24.5
1833.68	26
1834.69	24
1835.7	24.5
1836.7	28.5
1837.71	21
1838.71	21.5
1839.71	24
1840.72	24.5
1841.72	23
1842.73	29.5
1843.73	30.5
1844.74	25.5
1845.74	21.5
1846.74	22
1847.75	27
1848.75	27
1849.75	21.5
1850.76	23.5
1851.76	25
1852.76	20.5
1853.76	22
1854.77	28
1855.77	24
1856.77	23
1857.77	20.5
1858.77	26
1859.78	21
1860.78	23
1861.78	22.5
1862.78	25
1863.78	27
1864.78	24
1865.78	28
1866.78	26
1867.78	23.5
1868.78	21
1869.78	22.5
1870.78	25.5
1871.78	26.5
1872.78	26
1873.78	24.5
1874.78	23.5
1875.78	25
1876.78	22
1877.78	24.5
1878.78	23
1879.77	26
1880.77	21.5
1881.77	22
1882.77	25.5
1883.77	25.5
1884.76	22.5
1885.76	21
1886.76	25
1887.76	23
1888.75	25
1889.75	22.5
1890.75	25
1891.74	21.5
1892.74	22
1893.74	26
1894.73	21.5
1895.73	26.5
1896.72	23.5
1897.72	24.5
1898.72	27.5
1899.71	25.5
1900.71	20.5
1901.7	23.5
1902.7	28
1903.69	25.5
1904.69	24.5
1905.68	25.5
1906.67	24.5
1907.67	24.5
1908.66	29.5
1909.66	20
1910.65	24
1911.64	26.5
1912.64	24
1913.63	23.5
1914.62	24.5
1915.62	23.5
1916.61	25.5
1917.6	20.5
1918.59	24
1919.59	21
1920.58	24.5
1921.57	24
1922.56	30
1923.55	28
1924.55	26.5
1925.54	23.5
1926.53	24
1927.52	24
1928.51	26
1929.5	21
1930.49	27
1931.48	22
1932.47	21
1933.46	23.5
1934.45	23.5
1935.44	26
1936.43	25
1937.42	24
1938.41	22.5
1939.4	28.5
1940.39	24
1941.38	23
1942.37	25.5
1943.36	28.5
1944.34	23.5
1945.33	24.5
1946.32	25
1947.31	24.5
1948.3	23.5
1949.28	19.5
1950.27	23
1951.26	24
1952.25	26.5
1953.23	28
1954.22	22
1955.21	26.5
1956.2	25
1957.18	27
1958.17	29
1959.15	20.5
1960.14	25
1961.13	24
1962.11	21
1963.1	21.5
1964.08	26
1965.07	25
1966.05	22.5
1967.04	24.5
1968.02	23.5
1969.01	24
1969.99	20
1970.98	22.5
1971.96	23
1972.94	22.5
1973.93	26.5
1974.91	22
1975.9	22.5
1976.88	22.5
1977.86	22
1978.85	26
1979.83	23
1980.81	23
1981.8	24
1982.78	26
1983.76	25.5
1984.74	22.5
1985.72	24
1986.71	22.5
1987.69	26
1988.67	26
1989.65	26.5
1990.63	20
1991.61	28
1992.6	26.5
1993.58	26
1994.56	24
1995.54	20
1996.52	23
1997.5	21.5
1998.48	22
1999.46	24
2000.44	25
2001.42	23
2002.4	27.5
2003.38	22.5
2004.36	26
2005.34	26.5
2006.32	25.5
2007.29	21
2008.27	24
2009.25	21.5
2010.23	24
2011.21	23.5
2012.19	18
2013.16	21
2014.14	20
2015.12	22.5
2016.1	25
2017.07	18.5
2018.05	24.5
2019.03	25
2020	26.5
2020.98	27
2021.96	23.5
2022.93	22
2023.91	21
2024.89	25.5
2025.86	22.5
2026.84	26.5
2027.81	24.5
2028.79	24
2029.77	25
2030.74	26
2031.72	21
2032.69	26.5
2033.67	25
2034.64	25
2035.61	24
2036.59	22
2037.56	24
2038.54	22.5
2039.51	21.5
2040.48	25.5
2041.46	22.5
2042.43	25
2043.41	25
2044.38	21
2045.35	23.5
2046.32	21
2047.3	19.5
2048.27	23
2049.24	24
2050.21	21
2051.19	24.5
2052.16	22.5
2053.13	23
2054.1	25.5
2055.07	23
2056.04	20.5
2057.02	25.5
2057.99	20
2058.96	24.5
2059.93	25
2060.9	23
2061.87	27
2062.84	23.5
2063.81	26.5
2064.78	24
2065.75	22.5
2066.72	23
2067.69	26.5
2068.66	24
2069.63	22
2070.6	26
2071.57	21
2072.53	24
2073.5	27
2074.47	23
2075.44	20.5
2076.41	22.5
2077.38	25.5
2078.34	27
2079.31	24
2080.28	24
2081.25	25
2082.21	23
2083.18	22
2084.15	21.5
2085.12	19
2086.08	24
2087.05	23
2088.02	22
2088.98	24
2089.95	24.5
2090.91	22.5
2091.88	23
2092.85	23.5
2093.81	18
2094.78	21.5
2095.74	20
2096.71	22
2097.67	22
2098.64	23
2099.6	25
2100.57	26
2101.53	23
2102.5	24.5
2103.46	23.5
2104.42	23
2105.39	22
2106.35	23
2107.31	20.5
2108.28	18
2109.24	25
2110.2	23.5
2111.17	22.5
2112.13	24.5
2113.09	24
2114.06	21
2115.02	23.5
2115.98	24
2116.94	26
2117.9	23
2118.86	23
2119.83	26
2120.79	24.5
2121.75	22.5
2122.71	21.5
2123.67	25.5
2124.63	22.5
2125.59	23
2126.55	24.5
2127.51	21
2128.48	24
2129.43	24
2130.4	23
2131.35	24.5
2132.31	22.5
2133.27	25
2134.23	18
2135.19	23.5
2136.15	22.5
2137.11	22
2138.07	25.5
2139.03	24
2139.99	23.5
2140.95	22
2141.9	24
2142.86	27.4629
2143.82	24.451
2144.78	25.9544
2145.74	22.5074
2146.69	23.0717
2147.65	22.5815
2148.61	21.0057
2149.56	22.8595
2150.52	20.2651
2151.48	21.0474
2152.44	19.24
2153.39	22.8709
2154.35	23.2444
2155.3	21.6879
2156.26	21.784
2157.22	23.5794
2158.17	20.6173
2159.13	23.9991
2160.08	22.1324
2161.04	25.6214
2161.99	23.1181
2162.95	20.4794
2163.9	25.3275
2164.86	22.4725
2165.81	22.3272
2166.77	19.9903
2167.72	23.3047
2168.68	20.767
2169.63	21.9289
2170.58	27.2144
2171.54	21.8295
2172.49	24.4933
2173.44	23.1664
2174.4	22.1648
2175.35	21.9951
2176.3	20.8517
2177.26	23.7464
2178.21	21.0888
2179.16	22.8741
2180.11	21.1469
2181.07	25.2627
2182.02	20.155
2182.97	22.2124
2183.92	21.4953
2184.88	21.8534
2185.83	20.075
2186.78	22.4043
2187.73	20.0996
2188.68	21.2393
2189.63	24.1304
2190.58	23.065
2191.53	20.9438
2192.48	19.5928
2193.43	22.8253
2194.38	25.9239
2195.33	23.1717
2196.28	22.344
2197.23	22.4455
2198.18	22.4213
2199.13	19.1594
2200.08	21.3797
2201.03	18.8308
2201.98	22.5539
2202.93	21.9196
2203.88	22.5674
2204.83	21.818
2205.78	19.8125
2206.72	24.1542
2207.67	21.9476
2208.62	23.4201
2209.57	22.5623
2210.52	21.8853
2211.46	23.0598
2212.41	22.4731
2213.36	19.8506
2214.31	21.7212
2215.25	21.8788
2216.2	23.7377
2217.15	24.4886
2218.09	21.5351
2219.04	22.4003
2219.99	23.4963
2220.93	19.7535
2221.88	22.8529
2222.83	22.7447
2223.77	21.1081
2224.72	24.4289
2225.66	20.4435
2226.61	22.5471
2227.55	21.435
2228.5	21.7427
2229.44	23.2321
2230.39	24.8195
2231.33	24.3793
2232.28	20.1374
2233.22	21.6023
2234.17	22.5397
2235.11	20.4116
2236.05	21.7312
2237	22.8543
2237.94	21.4191
2238.88	23.7539
2239.83	24.4927
2240.04	24.5
2240.98	20
2241.93	23.5
2242.88	25
2243.83	23.5
2244.78	22
2245.72	21
2246.67	24.5
2247.62	21
2248.56	23
2249.51	21
2250.46	22.5
2251.4	20
2252.35	24
2253.3	22
2254.24	21
2255.19	20.5
2256.14	22.5
2257.08	23
2258.03	24
2258.97	24
2259.92	21.5
2260.86	25
2261.81	20.5
2262.75	24.5
2263.7	23
2264.64	22
2265.59	21
2266.53	21
2267.48	21
2268.42	22.5
2269.36	22.5
2270.31	17
2271.25	28.5
2272.19	20.5
2273.14	26
2274.08	19.5
2275.02	19
2275.97	24
2276.91	20
2277.85	16
2278.8	17.5
2279.74	20
2280.68	26
2281.62	25
2282.56	24
2283.51	22
2284.45	20
2285.39	25
2286.33	22.5
2287.27	28
2288.21	21
2289.15	26
2290.09	23.5
2291.04	23
2291.98	21.5
2292.92	23
2293.86	19
2294.8	22
2295.74	18
2296.68	23.5
2297.62	19.5
2298.56	19
2299.5	18.5
2300.44	26
2301.37	22
2302.31	23.5
2303.25	23
2304.19	24.5
2305.13	20.5
2306.07	22
2307.01	26.5
2307.94	23.5
2308.88	24
2309.82	22.5
2310.76	20.5
2311.7	23.5
2312.63	18
2313.57	22
2314.51	21.5
2315.44	23.5
2316.38	25.5
2317.32	24.5
2318.26	20.5
2319.19	25
2320.13	22.5
2321.06	21.5
2322	24
2322.94	20
2323.87	25.5
2324.81	19.5
2325.74	24
2326.68	22.5
2327.61	18.5
2328.55	24
2329.48	20
2330.42	24.5
2331.35	25
2332.29	23
2333.22	23
2334.16	26.5
2335.09	21.5
2336.02	25
2336.96	25
2337.89	24.5
2338.83	23.5
2339.76	21.5
2340.69	22.5
2341.63	18.5
2342.56	19.5
2343.49	24
2344.42	20.5
2345.36	21
2346.29	22.5
2347.22	20.5
2348.15	23
2349.09	24
2350.02	26.5
2350.95	23
2351.88	21.5
2352.81	25.5
2353.74	24.5
2354.68	22
2355.61	23
2356.54	19.5
2357.47	19.5
2358.4	16
2359.33	27.5
2360.26	25
2361.19	22
2362.12	22
2363.05	24.5
2363.98	21
2364.91	22.5
2365.84	20.5
2366.77	25
2367.7	24.5
2368.63	19
2369.56	24
2370.49	23.5
2371.41	24
2372.34	21
2373.27	26.5
2374.2	23
2375.13	25.5
2376.06	25
2376.98	22.5
2377.91	23
2378.84	23
2379.77	22
2380.69	28
2381.62	21
2382.55	23
2383.47	24.5
2384.4	24.5
2385.33	25.5
2386.25	26.5
2387.18	21
2388.11	23.5
2389.03	22.5
2389.96	23.5
2390.89	20.5
2391.81	22.5
2392.74	19.5
2393.66	24
2394.59	27.5
2395.51	23.5
2396.44	22
2397.36	20
2398.29	21.5
2399.21	24
2400.14	24
2401.06	19.5
2401.99	26
2402.91	22
2403.83	24.5
2404.76	23.5
2405.68	27
2406.6	18
2407.53	21
2408.45	20
2409.37	27.5
2410.3	26
2411.22	21.5
2412.14	20.5
2413.06	21
2413.99	22
2414.91	19.5
2415.83	25.5
2416.75	23
2417.68	21
2418.6	25.5
2419.52	26.5
2420.44	24
2421.36	27.5
2422.28	26
2423.2	22
2424.12	22
2425.05	21.5
2425.97	22
2426.89	23.5
2427.81	24.5
2428.73	23
2429.65	27.5
2430.57	22.5
2431.49	24
2432.41	25
2433.33	24
2434.25	25.5
2435.17	25
2436.08	28.5
2437	22
2437.92	24.5
2438.84	22.5
2439.76	27.5
2440.68	28
2441.6	22
2442.51	23.5
2443.43	24.5
2444.35	23.5
2445.27	22
2446.19	20
2447.1	25
2448.02	24.5
2448.94	21.5
2449.85	21.5
2450.77	22.5
2451.69	27
2452.61	21.5
2453.52	22
2454.44	22.5
2455.35	24.5
2456.27	20
2457.19	23.5
2458.1	25.5
2459.02	26
2459.94	21.5
2460.85	24
2461.77	25
2462.68	23.5
2463.6	27
2464.51	24.5
2465.43	22
2466.34	23
2467.25	24.5
2468.17	27.5
2469.08	22.5
2470	24
2470.91	21
2471.83	20.5
2472.74	21
2473.65	23
2474.57	25
2475.48	23.5
2476.39	29
2477.31	18.5
2478.22	25.5
2479.13	25.5
2480.04	25.5
2480.96	23
2481.87	24.5
2482.78	23
2483.69	23
2484.6	24
2485.52	21
2486.43	26
2487.34	22
2488.25	26.5
2489.16	27
2490.07	23
2490.99	24
2491.9	22
2492.81	24.5
2493.72	24.5
2494.63	24.5
2495.54	24.5
2496.45	18.5
2497.36	25
2498.27	26
2499.18	22.5
2500.09	20.5
2501	25.5
2501.91	25.5
2502.82	26
2503.73	22.5
2504.63	25
2505.54	26
2506.45	23
2507.36	24
2508.27	25.5
2509.18	25.5
2510.09	24
2510.99	22.5
2511.9	28
2512.81	21.5
2513.72	23
2514.62	24.5
2515.53	20.5
2516.44	20.5
2517.35	23
2518.25	25
2519.16	23
2520.07	25
2520.97	26
2521.88	20
2522.79	26
2523.69	21.5
2524.6	23.5
2525.51	21.5
2526.41	23.5
2527.32	20
2528.22	18
2529.13	23
2530.03	21
2530.94	23
2531.84	23
2532.75	25
2533.65	22.5
2534.56	26.5
2535.46	24
2536.37	24
2537.27	27.5
2538.17	22
2539.08	24
2539.98	26
2540.89	19
2541.79	24.5
2542.69	27
2543.6	24.5
2544.5	22
2545.4	22
2546.31	22.5
2547.21	26
2548.11	20
2549.01	25.5
2549.92	24.5
2550.82	23.5
2551.72	24.5
2552.62	23.5
2553.52	25
2554.42	23
2555.33	24
2556.23	20
2557.13	22
2558.03	22
2558.93	24
2559.83	20.5
2560.73	25.5
2561.63	23
2562.53	21
2563.43	26
2564.33	25.5
2565.24	25.5
2566.13	21
2567.04	21
2567.93	25.5
2568.83	24
2569.73	26
2570.63	24.5
2571.53	27
2572.43	27
2573.33	26
2574.23	23
2575.13	24
2576.03	23
2576.92	29
2577.82	22.5
2578.72	25
2579.62	25
2580.52	23
2581.41	19
2582.31	25
2583.21	22.5
2584.11	22
2585	23
2585.9	24
2586.8	24.5
2587.69	23.5
2588.59	24.5
2589.49	24
2590.38	24
2591.28	25.5
2592.18	22
2593.07	29
2593.97	24
2594.86	24
2595.76	26
2596.66	25
2597.55	23
2598.45	24
2599.34	23.5
2600.24	26.5
2601.13	23.5
2602.03	23.5
2602.92	27.5
2603.81	26.5
2604.71	23
2605.6	23
2606.5	25.5
2607.39	20
2608.28	24.5
2609.18	21
2610.07	24
2610.97	21
2611.86	26.5
2612.75	21.5
2613.64	23
2614.54	20
2615.43	25
2616.32	23.5
2617.22	23.5
2618.11	22.5
2619	23
2619.89	23
2620.78	25
2621.68	25.5
2622.57	24.5
2623.46	26.5
2624.35	22.5
2625.24	18.5
2626.13	23.5
2627.02	25.5
2627.91	24
2628.81	24.5
2629.7	23
2630.59	24.5
2631.48	27
2632.37	24.5
2633.26	21.5
2634.15	22.5
2635.04	21
2635.93	21
2636.82	25
2637.71	22.5
2638.59	23.5
2639.48	25
2640.37	25
2641.26	19.5
2642.15	27
2643.04	23.5
2643.93	24
2644.82	23.5
2645.71	24
2646.59	23
2647.48	23
2648.37	26.5
2649.26	23.5
2650.15	24.5
2651.03	25
2651.92	25.5
2652.81	25
2653.69	23.5
2654.58	23
2655.47	24.5
2656.35	28
2657.24	23
2658.13	25.5
2659.01	22.5
2659.9	20
2660.79	26.5
2661.67	22
2662.56	21.5
2663.44	20
2664.33	23.5
2665.22	25.5
2666.1	23.5
2666.99	28
2667.87	24
2668.76	24
2669.64	23
2670.52	25
2671.41	24
2672.29	21
2673.18	23.5
2674.06	22
2674.95	25
2675.83	21
2676.71	24.5
2677.6	25.5
2678.48	22.5
2679.36	24
2680.25	22.5
2681.13	27.5
2682.01	25.5
2682.9	25
2683.78	28
2684.66	21.5
2685.55	24
2686.43	22
2687.31	23
2688.19	27
2689.07	23
2689.96	23.5
2690.84	21
2691.72	23
2692.6	21.5
2693.48	19.5
2694.36	23.5
2695.24	25
2696.12	22
2697	22.5
2697.89	25
2698.77	25.5
2699.65	26.5
2700.53	28.5
2701.41	24.5
2702.29	24.5
2703.17	24.5
2704.05	24.5
2704.93	28.5
2705.81	21
2706.69	24.5
2707.57	21.5
2708.44	25
2709.32	24
2710.2	23
2711.08	22
2711.96	26
2712.84	23
2713.72	22
2714.59	24.5
2715.47	22.5
2716.35	27
2717.23	21
2718.11	26.5
2718.98	27.5
2719.86	21
2720.74	23.5
2721.62	24.5
2722.49	28
2723.37	23.5
2724.25	23.5
2725.12	24
2726	20
2726.88	25
2727.75	25.5
2728.63	22
2729.51	25
2730.38	23
2731.26	24.5
2732.13	23.5
2733.01	26
2733.88	26
2734.76	21
2735.63	21
2736.51	23
2737.38	20.5
2738.26	21
2739.13	23
2740.01	23
2740.88	26
2741.76	23.5
2742.63	25
2743.5	25
2744.38	23.5
2745.25	25
2746.13	22.5
2747	21.5
2747.87	26
2748.75	23
2749.62	20.5
2750.49	24
2751.36	23.5
2752.24	21
2753.11	22
2753.98	25.5
2754.86	28
2755.73	23.5
2756.6	24
2757.47	22.5
2758.34	28.5
2759.22	25
2760.09	23
2760.96	24
2761.83	20.5
2762.7	25.5
2763.57	22.5
2764.44	21
2765.31	25
2766.18	24
2767.06	29
2767.93	23.5
2768.8	23
2769.67	25.5
2770.54	24
2771.41	24
2772.28	22.5
2773.15	27
2774.02	25
2774.89	24
2775.75	25
2776.62	22.5
2777.49	25.5
2778.36	22
2779.23	24
2780.1	26.5
2780.97	22.5
2781.84	22.5
2782.71	24.5
2783.57	23
2784.44	21.5
2785.31	27
2786.18	22
2787.04	26
2787.91	24
2788.78	25.5
2789.65	24.5
2790.51	26.5
2791.38	26.5
2792.25	28
2793.12	26
2793.98	23
2794.85	23.5
2795.72	24.5
2796.58	28
2797.45	26.5
2798.31	24.5
2799.18	23
2800.05	29
2800.91	27.25
2801.78	24
2802.64	27
2803.51	25
2804.37	25.5
2805.24	28
2806.1	29
2806.97	27.5
2807.83	25
2808.7	27
2809.56	31
2810.43	26.5
2811.29	26
2812.15	28.5
2813.02	24
2813.88	25
2814.75	27
2815.61	23
2816.47	24
2817.34	29
2818.2	27
2819.06	27
2819.92	26
2820.79	28
2821.65	25.5
2822.51	22
2823.37	24
2824.24	19
2825.1	24.5
2825.96	24
2826.82	22
2827.69	27.5
2828.55	28
2829.41	27
2830.27	24.5
2831.13	25
2831.99	26
2832.85	25
2833.71	29
2834.58	23
2835.44	26.5
2836.3	27.5
2837.16	23
2838.02	24.5
2838.88	21
2839.74	21
2840.6	26
2841.46	24.5
2842.32	25
2843.18	25
2844.04	24.5
2844.9	26
2845.75	24
2846.61	21.5
2847.47	23.5
2848.33	25.5
2849.19	23.5
2850.05	27
2850.91	24.5
2851.77	25
2852.62	21
2853.48	22.5
2854.34	30
2855.2	21.5
2856.06	24.5
2856.91	26
2857.77	26.5
2858.63	24
2859.48	26
2860.34	26
2861.2	21
2862.06	26
2862.91	26.5
2863.77	26
2864.63	25
2865.48	27.5
2866.34	27.5
2867.19	31
2868.05	21.5
2868.91	24.5
2869.76	25.5
2870.62	28.5
2871.47	25.5
2872.33	23.5
2873.18	29
2874.04	27
2874.89	30
2875.75	29
2876.6	26.5
2877.46	27
2878.31	30.5
2879.17	30
2880.02	31.5
2880.88	30
2881.73	32.5
2882.58	28
2883.44	31
2884.29	33.5
2885.14	35
2886	30.5
2886.85	28
2887.7	33.5
2888.56	37.5
2889.41	37
2890.26	30.5
2891.12	37
2891.97	38
2892.82	37
2893.67	38.5
2894.52	35.5
2895.38	39
2896.23	45.5
2897.08	43
2897.93	50
2898.78	50.5
2899.64	54.5
2900.49	56
2901.34	57
2902.19	58
2903.04	59
2903.89	62
2904.74	62.5
2905.59	63
2906.44	66.5
2907.29	62
2908.14	69.5
2908.99	63
2909.84	59.5
2910.69	53.5
2911.54	55
2912.39	54
2913.24	52
2914.09	52.5
2914.94	48
2915.79	43.5
2916.64	41
2917.49	46
2918.34	37.5
2919.18	40
2920.03	39
2920.88	40
2921.73	35
2922.58	29
2923.42	32
2924.27	35
2925.12	28
2925.97	29.5
2926.82	27
2927.66	30.5
2928.51	28.5
2929.36	31
2930.2	27
2931.05	25.5
2931.9	30
2932.74	24.5
2933.59	26.5
2934.44	35
2935.28	26.5
2936.13	26
2936.98	28
2937.82	24
2938.67	25
2939.51	25.5
2940.36	26
2941.2	31.5
2942.05	30
2942.9	31.5
2943.74	28.5
2944.58	25.5
2945.43	28
2946.27	27
2947.12	27
2947.96	30.5
2948.81	29
2949.65	30
2950.5	30.5
2951.34	28
2952.18	32.5
2953.03	31
2953.87	30
2954.71	32
2955.56	32
2956.4	30.5
2957.24	30.5
2958.09	32
2958.93	30
2959.77	36.5
2960.62	37
2961.46	34
2962.3	36.5
2963.14	40
2963.98	39
2964.83	41.5
2965.67	40.5
2966.51	43
2967.35	40.5
2968.19	43
2969.04	41.5
2969.88	39
2970.72	41
2971.56	37.9806
2972.4	39.3659
2973.24	31.5509
2974.08	31.1466
2974.92	29.6738
2975.76	34.7644
2976.6	31.2541
2977.44	30.157
2978.28	30.9465
2979.12	32.3524
2979.96	29.6487
2980.8	29.5789
2981.64	28.6154
2982.48	31.3689
2983.32	25.0788
2984.16	26.0187
2985	25.3806
2985.84	25.2042
2986.68	28.0782
2987.52	24.2673
2988.35	28.022
2989.19	23.5788
2990.03	30.6133
2990.87	22.6207
2991.71	24.1465
2992.55	24.8204
2993.38	25.2227
2994.22	24.7665
2995.06	24.2856
2995.9	23.2727
2996.73	25.2548
2997.57	27.105
2998.41	23.7048
2999.25	23.3906
3000.08	21.5888
3000.92	23.5383
3001.76	23.4182
3002.59	24.2589
3003.43	22.9371
3004.27	23.4026
3005.1	22.9672
3005.94	22.5643
3006.78	22.9226
3007.61	23.8554
3008.45	22.5349
3009.28	23.7931
3010.12	22.1538
3010.95	24.0549
3011.79	22.9417
3012.62	25.4634
3013.46	23.6304
3014.29	22.8309
3015.13	23.5751
3015.96	22.8529
3016.8	23.8003
3017.63	23.8098
3018.47	23.8986
3019.3	22.147
3020.14	21.3521
3020.97	22.2796
3021.8	21.6807
3022.64	21.7425
3023.47	20.9376
3024.3	22.3422
3025.14	21.1199
3025.97	23.2461
3026.8	23.603
3027.64	23.865
3028.47	22.4976
3029.3	22.2394
3030.14	21.8233
3030.97	23.8848
3031.8	23.3818
3032.63	21.7414
3033.46	22.7744
3034.3	24.267
3035.13	22.1401
3035.96	20.9748
3036.79	24.4757
3037.62	22.3739
3038.46	19.5368
3039.29	19.5049
3040.12	23.1571
3040.95	21.5657
3041.78	23.4918
3042.61	22.3027
3043.44	22.1109
3044.27	22.9985
3045.1	23.6599
3045.93	21.4742
3046.76	22.4206
3047.59	25.0022
3048.42	22.185
3049.25	19.9442
3050.08	23.4328
3050.91	25
3051.74	24.2834
3052.57	22.9733
3053.4	23.3995
3054.23	24.3475
3055.06	24.8921
3055.89	23.6339
3056.72	23.5782
3057.32	22.5
3058.15	18
3058.98	21.5
3059.82	21
3060.65	24.5
3061.48	23.5
3062.31	22
3063.15	22
3063.98	25
3064.81	20
3065.64	22
3066.48	19
3067.31	24
3068.14	21
3068.97	20
3069.8	16
3070.63	27
3071.47	23
3072.3	20.5
3073.13	23
3073.96	21
3074.79	21.5
3075.62	25.5
3076.45	22
3077.28	22.5
3078.11	21.5
3078.94	25
3079.77	23.5
3080.6	25
3081.43	19.5
3082.26	24.5
3083.09	22
3083.92	20
3084.75	25
3085.58	23
3086.41	24.5
3087.24	24.5
3088.07	17
3088.9	24.5
3089.73	19
3090.55	21
3091.38	18.5
3092.21	19.5
3093.04	23.5
3093.87	27.5
3094.7	24.5
3095.52	22
3096.35	20
3097.18	22.5
3098.01	22.5
3098.84	26.5
3099.66	24
3100.49	24
3101.32	20
3102.14	19
3102.97	24
3103.8	25
3104.62	22
3105.45	20.5
3106.28	22
3107.1	23
3107.93	23
3108.76	23
3109.58	22
3110.41	19
3111.23	20.5
3112.06	19.5
3112.89	20
3113.71	21
3114.54	24
3115.36	23
3116.19	22
3117.01	25
3117.84	24.5
3118.66	22
3119.49	24
3120.31	22.5
3121.13	19
3121.96	25.5
3122.78	25.5
3123.61	25
3124.43	23.5
3125.25	23
3126.08	24.5
3126.9	21
3127.73	19
3128.55	21.5
3129.37	23
3130.19	21
3131.02	23
3131.84	22
3132.66	24
3133.49	25.5
3134.31	27
3135.13	22.5
3135.95	18
3136.78	22.5
3137.6	21
3138.42	23
3139.24	24
3140.06	25.5
3140.88	22
3141.71	23.5
3142.53	26
3143.35	23.5
3144.17	22.5
3144.99	20
3145.81	20
3146.63	25
3147.45	20
3148.27	22
3149.09	23
3149.91	22.5
3150.73	24.5
3151.56	25
3152.37	23.5
3153.2	19
3154.01	22.5
3154.83	27
3155.65	22.5
3156.47	23
3157.29	23
3158.11	23.5
3158.93	27
3159.75	22
3160.57	20
3161.39	24.5
3162.21	23.5
3163.02	24
3163.84	23.5
3164.66	24.5
3165.48	21.5
3166.3	24.5
3167.11	21.5
3167.93	23
3168.75	23.5
3169.57	22
3170.39	19
3171.2	18.5
3172.02	23.5
3172.84	23
3173.65	21
3174.47	24
3175.29	25.5
3176.1	24
3176.92	24
3177.74	26.5
3178.55	21.5
3179.37	24.5
3180.19	24
3181	21
3181.82	22
3182.63	21
3183.45	19.5
3184.27	23
3185.08	24
3185.9	21.5
3186.71	20.5
3187.53	22.5
3188.34	19
3189.16	25
3189.97	26
3190.79	22.5
3191.6	25
3192.41	23
3193.23	24
3194.04	22
3194.86	23.5
3195.67	22
3196.48	25
3197.3	24.5
3198.11	23
3198.93	23.5
3199.74	20
3200.55	23
3201.36	23.5
3202.18	25.5
3202.99	27
3203.8	26
3204.62	22
3205.43	23
3206.24	22.5
3207.05	25
3207.87	26
3208.68	24.5
3209.49	25.5
3210.3	21
3211.11	23.5
3211.93	23
3212.74	22
3213.55	19.5
3214.36	18
3215.17	21.5
3215.98	24
3216.79	23
3217.6	25.5
3218.41	20
3219.22	23.5
3220.03	24.5
3220.85	24.5
3221.66	19.5
3222.47	25
3223.28	25
3224.09	27.5
3224.9	20
3225.71	23
3226.52	23
3227.33	25
3228.13	25
3228.94	27
3229.75	24.5
3230.56	23
3231.37	25
3232.18	19
3232.99	24
3233.8	20
3234.61	25
3235.41	21
3236.22	23
3237.03	23.5
3237.84	25
3238.65	21.5
3239.45	24
3240.26	25.5
3241.07	24.5
3241.88	20
3242.68	23
3243.49	24
3244.3	24
3245.1	25
3245.91	23.5
3246.72	19
3247.53	25
3248.33	21
3249.14	24
3249.95	23.5
3250.75	23
3251.56	20.5
3252.36	27
3253.17	26.5
3253.97	24
3254.78	26
3255.59	22.5
3256.39	22.5
3257.2	23.5
3258	25.5
3258.81	21.5
3259.61	25
3260.42	24.5
3261.22	24.5
3262.03	24
3262.83	25.5
3263.64	22
3264.44	28.5
3265.24	28
3266.05	24
3266.85	22
3267.66	20.5
3268.46	19.5
3269.26	23.5
3270.07	22
3270.87	21
3271.67	24
3272.48	22.5
3273.28	25
3274.08	23.5
3274.89	22.5
3275.69	23
3276.49	25
3277.29	24
3278.1	23.5
3278.9	24
3279.7	24.5
3280.5	24.5
3281.3	22
3282.11	20
3282.91	27
3283.71	24.5
3284.51	19.5
3285.31	23
3286.11	21.5
3286.91	22.5
3287.72	21.5
3288.52	24
3289.32	21
3290.12	22.5
3290.92	23
3291.72	22
3292.52	26.5
3293.32	21
3294.12	25
3294.92	24.5
3295.72	23
3296.52	28
3297.32	21.5
3298.12	23
3298.92	21
3299.72	24.5
3300.52	23
3301.32	21
3302.12	25.5
3302.92	24
3303.71	20.5
3304.51	23.5
3305.31	26.5
3306.11	22
3306.91	22.5
3307.71	26
3308.5	23
3309.3	20
3310.1	23
3310.9	22.5
3311.7	20.5
3312.49	26.5
3313.29	26
3314.09	22.5
3314.89	21
3315.68	24.5
3316.48	23
3317.28	23.5
3318.07	23.5
3318.87	22
3319.67	23
3320.46	27.5
3321.26	19
3322.06	24.5
3322.85	29
3323.65	23
3324.44	27.5
3325.24	23.5
3326.04	22
3326.83	25.5
3327.63	25
3328.42	21.5
3329.22	26
3330.01	22.5
3330.81	20
3331.6	22.5
3332.4	23.5
3333.19	25
3333.99	25
3334.78	19.5
3335.58	23
3336.37	20
3337.17	29
3337.96	22
3338.75	21
3339.55	23
3340.34	23.5
3341.13	21
3341.93	25.5
3342.72	24.5
3343.51	25.5
3344.31	23.5
3345.1	22.5
3345.89	23.5
3346.69	25
3347.48	22.5
3348.27	24
3349.06	27.5
3349.86	24
3350.65	26
3351.44	23
3352.23	21.5
3353.03	22
3353.82	23.5
3354.61	25
3355.4	25
3356.19	20.5
3356.98	24.5
3357.78	23
3358.57	23
3359.36	22
3360.15	23
3360.94	25.5
3361.73	22.5
3362.52	23.5
3363.31	22.5
3364.1	25
3364.89	22
3365.68	21.5
3366.47	22.5
3367.26	26
3368.05	25
3368.84	21
3369.63	25
3370.42	21.5
3371.21	22.5
3372	24.5
3372.79	26
3373.58	20
3374.37	24.5
3375.16	21
3375.95	24
3376.73	23
3377.52	23.5
3378.31	20.5
3379.1	24
3379.89	22.5
3380.68	21.5
3381.46	24
3382.25	25
3383.04	23
3383.83	26.5
3384.62	24
3385.4	25
3386.19	24
3386.98	20.5
3387.76	21.5
3388.55	21
3389.34	19
3390.13	22
3390.91	23.5
3391.7	23
3392.49	24.5
3393.27	24.5
3394.06	21
3394.84	26
3395.63	23
3396.42	20.5
3397.2	26
3397.99	22.5
3398.77	24.5
3399.56	27
3400.34	20
3401.13	26.5
3401.92	28
3402.7	24
3403.49	25.5
3404.27	21
3405.06	23.5
3405.84	24
3406.62	21
3407.41	25.5
3408.19	21.5
3408.98	28
3409.76	21.5
3410.55	25
3411.33	22
3412.11	19.5
3412.9	24
3413.68	21.5
3414.46	24
3415.25	22
3416.03	24
3416.81	24
3417.6	24.5
3418.38	24.5
3419.16	24.5
3419.95	19.5
3420.73	21
3421.51	23
3422.29	23.5
3423.08	24
3423.86	22
3424.64	25
3425.42	23
3426.2	21
3426.98	21.5
3427.77	19.5
3428.55	24.5
3429.33	21
3430.11	18.5
3430.89	20.5
3431.67	25
3432.45	21
3433.24	23
3434.02	23
3434.8	23
3435.58	22.5
3436.36	19
3437.14	23.5
3437.92	19.5
3438.7	26
3439.48	22
3440.26	20.5
3441.04	25.5
3441.82	25.5
3442.6	23
3443.38	20.5
3444.16	21.5
3444.94	21.5
3445.71	25
3446.49	21.5
3447.27	25
3448.05	23
3448.83	20.5
3449.61	27
3450.39	21.5
3451.17	20
3451.94	26.5
3452.72	24.5
3453.5	20.5
3454.28	22
3455.06	23
3455.83	21.5
3456.61	24
3457.39	23.5
3458.17	24
3458.94	23
3459.72	22
3460.5	23.5
3461.28	23.5
3462.05	22.5
3462.83	20
3463.61	21.5
3464.38	26.5
3465.16	24.5
3465.93	22
3466.71	22
3467.49	24
3468.26	19
3469.04	25
3469.82	17
3470.59	23
3471.37	25.5
3472.14	23
3472.92	23
3473.69	21.5
3474.47	26.5
3475.24	21
3476.02	17
3476.79	22
3477.57	28
3478.34	21.5
3479.12	27.5
3479.89	24
3480.67	22
3481.44	23.5
3482.21	24.5
3482.99	22.5
3483.76	20.5
3484.54	22
3485.31	21.5
3486.08	24
3486.86	24
3487.63	25.5
3488.4	19.5
3489.18	25
3489.95	25
3490.72	22
3491.5	26
3492.27	29.5
3493.04	26
3493.81	20
3494.59	24
3495.36	26.5
3496.13	24
3496.9	21.5
3497.67	19.5
3498.45	22
3499.22	25.5
3499.99	24.5
