#Acq. time (s)=	5
#Accumulations=	5
#Range (cm-¹)=	100...3500
#Windows=	4
#Autofocus=	Off
#AutoExposure=	Off
#Spike filter=	Multiple accum.
#Delay time (s)=	0
#Binning=	1
#Readout mode=	Signal
#DeNoise=	Off
#ICS correction=	Off
#Dark correction=	Off
#Inst. Process=	Off
#Instrument=	LabRAM HR Evol
#Detector=	Syncerity OE
#Objective=	x100_VIS
#Grating=	600 (500nm)
#ND Filter=	25%
#Laser=	633nm_Edge
#Hole=	100.021
#Range=	Visible
#Project=	verificaciones
#Sample=	a5
#Site=	lined
#Title=	bolusa5lined
#Remark=	
#Date=	09.01.2026 13:10
#Acquired=	09.01.2026 13:10:58
100.695	27.5
101.978	29
103.262	32
104.545	32.5
105.829	32.5
107.112	33
108.394	30
109.676	34.5
110.958	31.5
112.24	31.5
113.522	32.5
114.803	32
116.084	31
117.365	29.5
118.646	35
119.927	30
121.207	32
122.487	33.5
123.767	39.5
125.047	32
126.326	38
127.606	35.5
128.885	36.5
130.164	33
131.442	32.5
132.721	36.5
133.999	34
135.277	36.5
136.555	37.5
137.831	38.5
139.109	34
140.386	40
141.663	37.5
142.94	35
144.216	40
145.493	41.5
146.769	35.5
148.043	41.5
149.319	40
150.595	40.5
151.87	39
153.145	44
154.42	38.5
155.693	42
156.968	45
158.242	43.5
159.516	39
160.79	49
162.062	41.5
163.336	43.5
164.609	42
165.882	40.5
167.153	37
168.426	41.5
169.699	40
170.971	43
172.241	39
173.513	40
174.785	42
176.055	42
177.326	36.5
178.597	44
179.866	40.5
181.137	43.5
182.407	46
183.676	42
184.946	42.5
186.216	42
187.484	43
188.753	46
190.022	41.5
191.29	40
192.558	41
193.825	38.5
195.094	42
196.36	40
197.628	39.5
198.896	42
200.162	36
201.429	36
202.695	38
203.962	40
205.227	38.5
206.493	40
207.758	35.5
209.024	36
210.289	41.5
211.554	36
212.818	33
214.083	34
215.347	37.5
216.612	35
217.875	33
219.138	36.5
220.402	35
221.665	40
222.928	35
224.19	36.5
225.454	30
226.715	33
227.977	36.5
229.24	36
230.501	32.5
231.762	33
233.024	30
234.284	34.5
235.546	29
236.806	31
238.066	35
239.327	29
240.587	35.5
241.846	29
243.105	29.5
244.365	29.5
245.624	35
246.882	30.5
248.142	31.5
249.4	31
250.658	29.5
251.916	29.5
253.174	34.5
254.432	29.5
255.689	29
256.945	34
258.202	30
259.46	31
260.716	34
261.972	28
263.228	31
264.483	30
265.74	31.5
266.996	31
268.251	31.5
269.505	28
270.76	31
272.014	31
273.268	30.5
274.522	28
275.778	30
277.031	27.5
278.285	31.5
279.538	30
280.791	26.5
282.043	31.5
283.296	33.5
284.548	27.5
285.8	29
287.052	27.5
288.304	29
289.556	33
290.807	30
292.058	28.5
293.309	29.5
294.56	32
295.81	28
297.061	25.5
298.311	28
299.561	29.5
300.81	29
302.06	26
303.309	29.5
304.558	29
305.807	30
307.056	30
308.305	29
309.551	28
310.8	28
312.047	31.5
313.295	31
314.543	32
315.79	26
317.037	28
318.284	29
319.529	24.5
320.776	29
322.022	28
323.268	29
324.514	27.5
325.758	33.5
327.004	28.5
328.249	27
329.494	22.5
330.739	31
331.982	30
333.227	28.5
334.471	29
335.715	26.5
336.958	26
338.201	31.5
339.445	31.5
340.687	33.5
341.93	28
343.173	24
344.414	28.5
345.657	30.5
346.899	29
348.14	27.5
349.381	30
350.623	29
351.863	29.5
353.104	32
354.346	35.5
355.585	29
356.826	33
358.065	27
359.305	34
360.545	30.5
361.784	30
363.023	30
364.261	26
365.501	28.5
366.738	29
367.977	32.5
369.216	31.5
370.453	27
371.691	30
372.928	27.5
374.166	30
375.402	32
376.64	31
377.876	33
379.111	28
380.348	31
381.584	27
382.82	26.5
384.055	24.5
385.291	33.5
386.526	27.5
387.76	31.5
388.996	28.5
390.229	30.5
391.465	25
392.698	31.5
393.931	28.5
395.166	31
396.399	29
397.632	32.5
398.866	31.5
400.098	29
401.33	27
402.563	35.5
403.795	27
405.027	27.5
406.259	26
407.491	26.5
408.721	31
409.954	30
411.184	25
412.415	28.5
413.645	25
414.876	29
416.106	28
417.335	27.5
418.565	30.5
419.794	31
421.024	30
422.253	30
423.482	31.5
424.71	29.5
425.938	24
427.168	29.5
428.396	28
429.623	28.5
430.851	23
432.078	25
433.305	25.5
434.532	26
435.758	28
436.986	30
438.212	28.5
439.438	30
440.664	29
441.89	32
443.115	29
444.34	30
445.566	31.5
446.79	30
448.015	26.5
449.24	28.5
450.464	30
451.688	30.5
452.912	33.5
454.135	31
455.359	30
456.582	31
457.805	29
459.028	26.5
460.251	30.5
461.473	32
462.696	30
463.918	37
465.14	28.5
466.36	35.5
467.582	35.5
468.803	30
470.024	33.5
471.245	38
472.466	36.5
473.686	37
474.907	35
476.126	37
477.346	44.5
478.565	49
479.785	48
481.004	50
482.224	47
483.441	53
484.66	53.5
485.879	58
487.097	57.5
488.314	63
489.532	66.5
490.75	66.5
491.967	59
493.184	60.5
494.401	55
495.618	54
496.835	51.5
498.05	49.5
499.267	47
500.483	43.5
501.698	50.5
502.913	41
504.129	44.5
505.343	40
506.559	41.5
507.774	36.5
508.987	38.5
510.202	38.5
511.415	34.5
512.63	37
513.844	36.5
515.056	35
516.27	35.5
517.482	34
518.696	38
519.907	34.5
521.121	34.5
522.332	31.5
523.545	32.5
524.757	31.5
525.968	31.5
527.18	31.5
528.39	29.5
529.602	32
530.812	29.5
532.023	33
533.233	34.5
534.443	32
535.653	30
536.862	30.5
538.073	30.5
539.281	29.5
540.491	30.5
541.7	28.5
542.908	30
544.117	32.5
545.325	28.5
546.534	31
547.741	25
548.949	32
550.157	30.5
551.364	30.5
552.57	28.5
553.778	23
554.985	27
556.191	28.5
557.398	29.5
558.604	27.5
559.809	24
561.014	32
562.221	30
563.426	33
564.63	31
565.835	28
567.041	34.5
568.245	29
569.449	30
570.653	26
571.856	29
573.061	29
574.264	29.5
575.467	32.5
576.67	25.5
577.873	34.5
579.076	30
580.279	31
581.481	30
582.683	29.5
583.884	30.5
585.086	28.5
586.287	27.5
587.488	31
588.689	29
589.891	28
591.092	25
592.292	28.5
593.492	27
594.692	28.5
595.892	31.5
597.092	30.5
598.291	25.5
599.49	23
600.689	26.5
601.888	26
603.087	26
604.285	30
605.483	29
606.681	29
607.879	28.5
609.077	25
610.274	31
611.472	29
612.668	31
613.865	30.5
615.061	28.5
616.258	26.5
617.454	27
618.65	28
619.846	29.5
621.042	25.5
622.238	27
623.432	28.5
624.627	30
625.822	29
627.017	28
628.212	30
629.406	30
630.599	27
631.793	29
632.987	22
634.181	28.5
635.373	29.5
636.566	28
637.76	29
638.953	31.5
640.144	27
641.337	33
642.529	34.5
643.721	29
644.912	29.5
646.104	27
647.295	28.5
648.485	28
649.677	29
650.868	27
652.057	28
653.248	24
654.437	30
655.628	33.5
656.818	29
658.006	27.5
659.196	29
660.384	32
661.574	32
662.763	27
663.951	30.5
665.14	35
666.327	32
667.515	30
668.702	32
669.891	32
671.077	30
672.265	33
673.451	29
674.638	30.5
675.824	33
677.011	30.5
678.197	35
679.383	33
680.568	36
681.755	31.5
682.939	38.5
684.124	38.5
685.309	35
686.494	38
687.679	38
688.863	35
690.046	30.5
691.231	35
692.414	33
693.599	36.5
694.781	36
695.964	37.5
697.148	37
698.33	37
699.512	38.5
700.694	36.5
701.877	41
703.059	40
704.24	46.5
705.423	50.5
706.604	48
707.784	53.5
708.965	58
710.147	53
711.327	49
712.507	43.5
713.687	44.5
714.867	37
716.048	40.5
717.227	35
718.406	36
719.585	34.5
720.764	32.5
721.942	33
723.122	29
724.3	34
725.478	32
726.656	30.5
727.834	25.5
729.011	30
730.189	27
731.366	29.5
732.543	27
733.719	29
734.896	26.5
736.072	30
737.249	34
738.426	30.5
739.602	32
740.777	30
741.953	25.5
743.128	26.5
744.303	24
745.477	28.5
746.651	30
747.826	32
749	28
750.174	26.5
751.348	29.5
752.522	27
753.696	29.5
754.869	25.5
756.043	29.5
757.216	33
758.389	30
759.561	28
760.732	27
761.905	27
763.077	29
764.249	26
765.421	23
766.592	26.5
767.762	29.5
768.934	29
770.105	28
771.275	32.5
772.446	22
773.615	28.5
774.786	28.5
775.956	28
777.126	27
778.294	26.5
779.464	26.5
780.633	29.5
781.801	31
782.97	26
784.139	32
785.306	32.5
786.475	32
787.643	28.5
788.81	33.5
789.978	35.5
791.146	26
792.312	34
793.479	29
794.647	33.5
795.812	32
796.979	27
798.144	30
799.311	28
800.477	29.5
801.642	32
802.808	30
803.972	28.5
805.138	30
806.302	29
807.467	31.5
808.631	27.5
809.796	26.5
810.959	28.5
812.124	32
813.287	27.5
814.451	26
815.614	31.5
816.777	28
817.94	22
819.102	28.5
820.265	30.5
821.427	29.5
822.59	32
823.751	28.5
824.912	26
826.074	27.5
827.235	29.5
828.397	30
829.558	27.5
830.718	29
831.879	31
833.039	27
834.199	25.5
835.359	29
836.519	23.5
837.679	28
838.838	29.5
839.998	28
841.156	27
842.315	31
843.473	32
844.633	30
845.791	31.5
846.948	27
848.106	27
849.263	28.5
850.422	27
851.579	28.5
852.736	33.5
853.892	32
855.049	29
856.205	28
857.363	32
858.519	31
859.674	28
860.83	30
861.986	33
863.141	33.5
864.296	31.5
865.451	30.5
866.605	32.5
867.76	31.5
868.914	25
870.069	30
871.224	22.5
872.378	26
873.531	31
874.685	30
875.838	28.5
876.991	26
878.144	30
879.296	28
880.448	26
881.6	31
882.753	30.5
883.905	26.5
885.057	24
886.208	29
887.36	27.5
888.511	25.5
889.662	28.5
890.813	26
891.964	26
893.113	24.5
894.264	29
895.414	28.5
896.564	25.5
897.714	24.5
898.864	29
900.012	24
901.161	28
902.31	31
903.459	25.5
904.607	26.5
905.756	25
906.904	27.5
908.052	24.5
909.199	27
910.347	26
911.495	30
912.643	30
913.789	23.5
914.936	25
916.083	25
917.229	29.5
918.375	28.5
919.522	28.5
920.667	27
921.813	26
922.959	30
924.104	30.5
925.249	31
926.393	28
927.539	27.5
928.684	26.5
929.827	28
930.972	28.5
932.115	30.5
933.26	27.5
934.403	29
935.547	23
936.689	23.5
937.833	24.5
938.975	26
940.119	26.5
941.26	26
942.404	27
943.545	28.5
944.688	23.5
945.829	27.5
946.971	26
948.112	28
949.253	23.5
950.394	26
951.535	26.5
952.676	27
953.816	25
954.956	30
956.097	25
957.236	28.5
958.377	24
959.516	25
960.655	26
961.793	26.5
962.933	26.5
964.071	27
965.21	28.5
966.349	26.5
967.487	28.5
968.624	28.5
969.762	24.5
970.901	25.5
972.038	25.5
973.175	28.5
974.311	26.5
975.449	28
976.586	25
977.722	28
978.858	27
979.994	22
981.131	28.5
982.267	33
983.402	29.5
984.537	23.5
985.672	25.5
986.807	26
987.942	24.5
989.076	26.5
990.211	23
991.346	25.5
992.48	27
993.614	27.5
994.748	28.5
995.881	28
997.014	25
998.148	26.5
999.28	27.5
1000.41	26
1001.55	24
1002.68	29
1003.81	25
1004.94	26.5
1006.07	29
1007.21	22.5
1008.34	27.5
1009.47	25.5
1010.6	24
1011.73	24
1012.86	26
1013.99	23
1015.12	27.5
1016.25	25
1017.38	24.5
1018.51	25
1019.64	23
1020.77	26
1021.9	23
1023.03	29.5
1024.16	25
1025.29	24.5
1026.42	27.5
1027.54	25.5
1028.67	24
1029.8	28
1030.93	27
1032.06	27.5
1033.18	28
1034.31	24
1035.44	28.5
1036.56	26.5
1037.69	24.5
1038.82	28
1039.94	25
1041.07	25
1042.2	24.5
1043.32	21
1044.45	25.5
1045.57	27.5
1046.7	25
1047.82	25
1048.95	27
1050.07	25.5
1051.2	26
1052.32	24.5
1053.45	26
1054.57	23
1055.69	20.5
1056.82	31
1057.94	27
1059.06	29
1060.19	28
1061.31	29
1062.43	26.5
1063.55	23
1064.68	28
1065.8	28.5
1066.92	24
1068.04	22
1069.16	25
1070.28	22
1071.41	21
1072.53	24
1073.65	27
1074.77	29.5
1075.89	25
1077.01	29
1078.13	25
1079.25	24
1080.37	25
1081.49	29.5
1082.61	23
1083.73	29.5
1084.85	25
1085.96	26
1087.08	24
1088.2	26
1089.32	23.5
1090.44	29
1091.56	25
1092.67	25
1093.79	25.5
1094.91	28
1096.03	31.5
1097.14	26
1098.26	24
1099.38	24.5
1100.49	26
1101.61	29
1102.73	26
1103.84	22.5
1104.96	23.5
1106.07	27.5
1107.19	26.5
1108.3	27.5
1109.42	23.5
1110.53	30
1111.65	25
1112.76	25
1113.88	26
1114.99	22
1116.1	28
1117.22	24
1118.33	25.5
1119.44	23
1120.56	27
1121.67	28
1122.78	31
1123.9	22
1125.01	27.5
1126.12	23
1127.23	24
1128.34	25.5
1129.46	28.5
1130.57	27
1131.68	24
1132.79	28.5
1133.9	27
1135.01	25
1136.12	27
1137.23	28.5
1138.34	23
1139.45	24.5
1140.56	27
1141.67	26.5
1142.78	20
1143.89	24.5
1145	21
1146.11	26
1147.22	25
1148.33	26
1149.44	24
1150.54	26.5
1151.65	26
1152.76	23
1153.87	27
1154.97	22.5
1156.08	23.5
1157.19	27
1158.3	23.5
1159.4	26.5
1160.51	25.5
1161.62	22.5
1162.72	28.5
1163.83	26.5
1164.93	28.5
1166.04	23
1167.15	23
1168.25	26
1169.36	27.5
1170.46	23.5
1171.57	22
1172.67	21.5
1173.78	23.5
1174.88	25.5
1175.98	26.5
1177.09	24.5
1178.19	26
1179.3	24
1180.4	20
1181.5	25.5
1182.61	21
1183.71	24
1184.81	23.5
1185.91	22.5
1187.02	25
1188.12	25.5
1189.22	26
1190.32	24.5
1191.42	24.5
1192.53	26.5
1193.63	23
1194.73	27.4778
1195.83	23.9826
1196.93	21.6767
1198.03	29.4159
1199.13	25.8908
1200.23	22.5534
1201.33	23.4872
1202.43	23.9196
1203.53	25.8208
1204.63	24.1858
1205.73	25.9996
1206.83	22.9777
1207.93	23.3302
1209.02	24.2936
1210.12	24.3199
1211.22	21.8067
1212.32	24.8828
1213.42	22.2207
1214.52	23.2942
1215.61	21.7955
1216.71	26.7792
1217.81	27.1841
1218.91	24.2679
1220	23.3722
1221.1	23.6432
1222.2	22.8347
1223.29	24.3974
1224.39	25.5792
1225.49	24.6785
1226.58	28.3614
1227.68	23.4313
1228.77	25.3505
1229.87	25.9469
1230.96	25.2225
1232.06	24.9663
1233.15	21.8724
1234.25	24.9071
1235.34	19.815
1236.44	24.8287
1237.53	23.9749
1238.63	27.1983
1239.72	23.2294
1240.81	23.2694
1241.91	26.7627
1243	24.284
1244.09	24.5718
1245.19	24.6334
1246.28	23.4949
1247.37	23.8843
1248.46	27.2377
1249.56	27.488
1250.65	24.2747
1251.74	25.0295
1252.83	27.5122
1253.92	26.7504
1255.01	28.0332
1256.11	27.3053
1257.2	27.6748
1258.29	28.2971
1259.38	26.5383
1260.47	26.1555
1261.56	27.0412
1262.65	26.4798
1263.74	27.1957
1264.83	26.8206
1265.92	25.5285
1267.01	24.9319
1268.1	23.0413
1269.19	24.4451
1270.27	25.6767
1271.36	22.3301
1272.45	24.7621
1273.54	23.0527
1274.63	24.8835
1275.72	23.9337
1276.8	23.5396
1277.89	26.6322
1278.98	25.7573
1280.07	25.9681
1281.15	23.8468
1282.24	21.8522
1283.33	24.7354
1284.41	23.194
1285.5	23.6017
1286.59	26.026
1287.67	26.5656
1288.76	23.1561
1289.84	24.0889
1290.93	26.2858
1292.01	23.1762
1293.1	24.7336
1294.19	24.5979
1295.27	23.7493
1296.35	24.7001
1297.44	23.3076
1298.52	22.9662
1299.61	26.5494
1300.69	25.9885
1301.78	23.2037
1302.86	22.9128
1303.94	23.7385
1305.03	23.2423
1306.11	25.2015
1306.4	26
1307.49	23
1308.57	27
1309.66	26
1310.75	27.5
1311.84	21.5
1312.92	26
1314.01	27
1315.1	20
1316.19	25
1317.27	22
1318.36	24
1319.45	25
1320.53	23.5
1321.62	25.5
1322.7	21
1323.79	27.5
1324.88	23.5
1325.96	22.5
1327.05	26.5
1328.13	25
1329.21	25.5
1330.3	27.5
1331.38	22.5
1332.47	27
1333.55	27
1334.64	22
1335.72	26
1336.8	20.5
1337.89	23.5
1338.97	25
1340.05	24.5
1341.14	24
1342.22	28
1343.3	24.5
1344.39	26.5
1345.47	24.5
1346.55	25
1347.63	23
1348.71	28.5
1349.79	25
1350.88	24
1351.96	22
1353.04	26
1354.12	26
1355.2	24
1356.28	26.5
1357.36	24
1358.44	25
1359.52	25
1360.6	21.5
1361.68	21
1362.76	24.5
1363.84	25
1364.92	24
1366	20
1367.08	25
1368.16	21
1369.23	26.5
1370.31	25
1371.39	22
1372.47	25.5
1373.55	27.5
1374.62	27.5
1375.7	22
1376.78	25
1377.85	26
1378.93	24
1380.01	24
1381.09	24
1382.16	23.5
1383.24	28
1384.31	27
1385.39	26.5
1386.47	28
1387.54	28.5
1388.62	29
1389.69	28.5
1390.77	21.5
1391.84	27
1392.92	23
1393.99	27.5
1395.06	24
1396.14	26
1397.21	27.5
1398.29	26.5
1399.36	31
1400.43	31
1401.51	28.5
1402.58	31
1403.65	29.5
1404.73	31.5
1405.8	32
1406.87	27.5
1407.94	29
1409.02	29.5
1410.09	30
1411.16	29.5
1412.23	31.5
1413.3	36
1414.37	32
1415.45	30
1416.52	28
1417.59	33.5
1418.66	27.5
1419.73	24.5
1420.8	34.5
1421.87	28.5
1422.94	26
1424.01	27
1425.08	29.5
1426.15	27
1427.22	29
1428.29	29
1429.35	30
1430.42	23
1431.49	27.5
1432.56	27.5
1433.63	29.5
1434.7	28.5
1435.77	25
1436.83	25
1437.9	27
1438.97	26.5
1440.04	26
1441.1	24
1442.17	26.5
1443.24	26.5
1444.3	23
1445.37	22
1446.44	25
1447.5	26.5
1448.57	25
1449.63	27.5
1450.7	28
1451.76	26
1452.83	29
1453.89	30
1454.96	23
1456.02	24.5
1457.09	27.5
1458.15	26.5
1459.22	25.5
1460.28	20
1461.34	24.5
1462.41	22.5
1463.47	27
1464.54	27
1465.6	25
1466.66	26.5
1467.72	25.5
1468.79	25.5
1469.85	29
1470.91	25
1471.97	28
1473.04	25.5
1474.1	27
1475.16	24
1476.22	26
1477.28	28.5
1478.34	27
1479.4	22.5
1480.47	25
1481.53	28
1482.59	27
1483.65	31
1484.71	25
1485.77	23.5
1486.83	26
1487.89	26
1488.95	25
1490.01	24
1491.07	23.5
1492.12	26.5
1493.18	28
1494.24	28.5
1495.3	28
1496.36	28
1497.42	23.5
1498.47	23
1499.53	23.5
1500.59	26.5
1501.65	28.5
1502.7	27
1503.76	24.5
1504.82	24.5
1505.88	22.5
1506.93	26
1507.99	24
1509.05	28
1510.1	27.5
1511.16	24
1512.21	23
1513.27	25
1514.32	28.5
1515.38	23
1516.43	28.5
1517.49	25
1518.54	24
1519.6	25
1520.65	25.5
1521.71	25.5
1522.76	25.5
1523.82	22.5
1524.87	27.5
1525.92	27
1526.98	26
1528.03	23.5
1529.08	22.5
1530.14	26
1531.19	28.5
1532.24	26
1533.3	25
1534.35	25.5
1535.4	23.5
1536.45	26
1537.5	21
1538.56	22.5
1539.61	25.5
1540.66	25.5
1541.71	22.5
1542.76	27
1543.81	22
1544.86	23.5
1545.91	26
1546.96	25
1548.01	28
1549.06	27
1550.11	26.5
1551.16	29
1552.21	22
1553.26	28.5
1554.31	24
1555.36	25.5
1556.41	19
1557.46	23
1558.51	28
1559.55	23
1560.6	19
1561.65	30
1562.7	24.5
1563.75	29
1564.79	21
1565.84	30
1566.89	27.5
1567.94	24.5
1568.98	24.5
1570.03	21.5
1571.07	24.5
1572.12	24.5
1573.17	27.5
1574.21	27
1575.26	23
1576.31	27
1577.35	23
1578.4	24
1579.44	25
1580.49	26.5
1581.53	28.5
1582.58	23
1583.62	26.5
1584.67	27
1585.71	19
1586.75	26
1587.8	24.5
1588.84	27.5
1589.89	25.5
1590.93	24
1591.97	28
1593.02	21
1594.06	26.5
1595.1	26.5
1596.14	28
1597.19	24.5
1598.23	27
1599.27	24
1600.31	27
1601.35	24
1602.4	26
1603.44	23
1604.48	24
1605.52	25.5
1606.56	24
1607.6	25
1608.64	24.5
1609.68	21
1610.72	22
1611.76	24
1612.8	26
1613.84	23.5
1614.88	25.5
1615.92	22.5
1616.96	27
1618	25.5
1619.04	30
1620.08	23.5
1621.12	22.5
1622.16	23
1623.19	23.5
1624.23	26
1625.27	24
1626.31	25.5
1627.35	25.5
1628.38	24
1629.42	21
1630.46	26
1631.5	26.5
1632.53	26
1633.57	23
1634.61	25.5
1635.64	25
1636.68	27
1637.71	26
1638.75	27.5
1639.79	25
1640.82	21
1641.86	21.5
1642.89	25.5
1643.93	22
1644.96	24
1646	27
1647.03	22
1648.07	24.5
1649.1	25
1650.14	26
1651.17	26.5
1652.2	24.5
1653.24	23.5
1654.27	25
1655.3	25.5
1656.34	22
1657.37	25.5
1658.4	27
1659.44	25.5
1660.47	26
1661.5	19.5
1662.53	25
1663.57	26
1664.6	22
1665.63	29
1666.66	29.5
1667.69	25
1668.72	24
1669.75	26.5
1670.79	22.5
1671.82	26.5
1672.85	29
1673.88	27
1674.91	24.5
1675.94	26.5
1676.97	24.5
1678	23
1679.03	27
1680.06	26.5
1681.09	21
1682.11	25.5
1683.14	26.5
1684.17	25
1685.2	29
1686.23	28.5
1687.26	25
1688.29	24
1689.32	26
1690.34	24
1691.37	30.5
1692.4	24.5
1693.43	26
1694.45	25.5
1695.48	27.5
1696.51	24.5
1697.53	26
1698.56	24.5
1699.59	28
1700.61	26
1701.64	25
1702.66	22.5
1703.69	24
1704.72	27.5
1705.74	27
1706.77	24
1707.79	26
1708.82	22.5
1709.84	28
1710.87	23.5
1711.89	23.5
1712.92	27
1713.94	22
1714.96	25
1715.99	26.5
1717.01	24
1718.04	28
1719.06	27
1720.08	23
1721.11	29.5
1722.13	22
1723.15	24.5
1724.17	24
1725.2	25
1726.22	22
1727.24	30
1728.26	25
1729.28	25
1730.31	23
1731.33	24
1732.35	26.5
1733.37	25
1734.39	26.5
1735.41	22
1736.43	26.5
1737.45	23.5
1738.47	26.5
1739.49	29
1740.51	25
1741.53	28.5
1742.55	27
1743.57	29.5
1744.59	24.5
1745.61	20
1746.63	22.5
1747.65	26
1748.67	28.5
1749.69	25.5
1750.71	24.5
1751.72	24.5
1752.74	23
1753.76	25
1754.78	29
1755.8	26
1756.81	26
1757.83	28.5
1758.85	23.5
1759.86	24
1760.88	24
1761.9	25
1762.91	25
1763.93	26.5
1764.95	27.5
1765.96	24
1766.98	25.5
1768	29.5
1769.01	25.5
1770.03	27.5
1771.04	23
1772.06	25.5
1773.07	27.5
1774.09	23
1775.1	23
1776.12	25.5
1777.13	24.5
1778.14	30
1779.16	25.5
1780.17	24.5
1781.19	25
1782.2	23.5
1783.21	25.5
1784.23	26.5
1785.24	26.5
1786.25	27
1787.27	23.5
1788.28	24.5
1789.29	26
1790.3	28
1791.32	27
1792.33	27.5
1793.34	27
1794.35	22.5
1795.36	28.5
1796.37	25.5
1797.38	25
1798.4	24.5
1799.41	26
1800.42	23
1801.43	29
1802.44	26.5
1803.45	21.5
1804.46	26.5
1805.47	25
1806.48	20
1807.49	23
1808.5	20.5
1809.51	19.5
1810.52	24
1811.53	25
1812.53	23
1813.54	26.5
1814.55	23
1815.56	26.5
1816.57	25
1817.58	25.5
1818.58	24
1819.59	25.5
1820.6	28
1821.61	30
1822.61	25
1823.62	21.5
1824.63	26.5
1825.64	27.5
1826.64	23
1827.65	24
1828.66	23.5
1829.66	25
1830.67	26
1831.67	25
1832.68	25
1833.68	26
1834.69	22.5
1835.7	22
1836.7	26
1837.71	26.5
1838.71	23.5
1839.71	25.5
1840.72	27
1841.72	26
1842.73	25
1843.73	24
1844.74	24.5
1845.74	26.5
1846.74	21
1847.75	22.5
1848.75	24
1849.75	27.5
1850.76	22.5
1851.76	23.5
1852.76	25
1853.76	22
1854.77	26
1855.77	27.5
1856.77	27
1857.77	29
1858.77	24
1859.78	21.5
1860.78	28
1861.78	22
1862.78	25.5
1863.78	25.5
1864.78	25.5
1865.78	25
1866.78	23
1867.78	19.5
1868.78	29
1869.78	23
1870.78	26.5
1871.78	27
1872.78	24
1873.78	23.5
1874.78	28
1875.78	23
1876.78	23
1877.78	24
1878.78	22
1879.77	26
1880.77	29
1881.77	22
1882.77	27
1883.77	24.5
1884.76	23.5
1885.76	24
1886.76	24
1887.76	26
1888.75	25
1889.75	21.5
1890.75	28
1891.74	21
1892.74	21.5
1893.74	25
1894.73	24.5
1895.73	26
1896.72	20
1897.72	22
1898.72	24.5
1899.71	23
1900.71	26
1901.7	27.5
1902.7	29
1903.69	26
1904.69	25
1905.68	22
1906.67	24
1907.67	24.5
1908.66	26.5
1909.66	25.5
1910.65	23.5
1911.64	27.5
1912.64	19.5
1913.63	21
1914.62	24
1915.62	24.5
1916.61	26
1917.6	24
1918.59	22
1919.59	24.5
1920.58	27
1921.57	23
1922.56	24.5
1923.55	25.5
1924.55	23
1925.54	26.5
1926.53	26.5
1927.52	24.5
1928.51	24.5
1929.5	24
1930.49	27
1931.48	28.5
1932.47	22
1933.46	24
1934.45	23
1935.44	28.5
1936.43	27
1937.42	29
1938.41	26
1939.4	21.5
1940.39	23
1941.38	25.5
1942.37	23.5
1943.36	23
1944.34	27.5
1945.33	26.5
1946.32	27
1947.31	24
1948.3	26.5
1949.28	27
1950.27	25
1951.26	24
1952.25	24.5
1953.23	26.5
1954.22	24.5
1955.21	26.5
1956.2	18
1957.18	26
1958.17	25.5
1959.15	25
1960.14	23
1961.13	24.5
1962.11	26.5
1963.1	23
1964.08	23
1965.07	24.5
1966.05	25.5
1967.04	24.5
1968.02	22.5
1969.01	24.5
1969.99	22.5
1970.98	24
1971.96	22.5
1972.94	25
1973.93	24.5
1974.91	24
1975.9	25
1976.88	27.5
1977.86	25.5
1978.85	20.5
1979.83	25.5
1980.81	26.5
1981.8	27
1982.78	25
1983.76	26
1984.74	20.5
1985.72	27.5
1986.71	25.5
1987.69	23
1988.67	21.5
1989.65	31
1990.63	24
1991.61	24
1992.6	27
1993.58	26.5
1994.56	28
1995.54	23
1996.52	28
1997.5	20
1998.48	21.5
1999.46	27
2000.44	28.5
2001.42	25
2002.4	23.5
2003.38	22.5
2004.36	28
2005.34	22.5
2006.32	27
2007.29	23.5
2008.27	23.5
2009.25	25
2010.23	25.5
2011.21	27.5
2012.19	28.5
2013.16	23
2014.14	23.5
2015.12	21.5
2016.1	24.5
2017.07	21
2018.05	28
2019.03	21
2020	27.5
2020.98	25.5
2021.96	23
2022.93	23
2023.91	26.5
2024.89	22.5
2025.86	19
2026.84	25.5
2027.81	26
2028.79	27.5
2029.77	24
2030.74	25
2031.72	24
2032.69	25
2033.67	23.5
2034.64	26
2035.61	22
2036.59	27
2037.56	25.5
2038.54	22.5
2039.51	25
2040.48	24.5
2041.46	22
2042.43	21.5
2043.41	26
2044.38	23
2045.35	22
2046.32	25.5
2047.3	24
2048.27	20
2049.24	22
2050.21	28
2051.19	25
2052.16	25
2053.13	22.5
2054.1	19
2055.07	19.5
2056.04	21.5
2057.02	22.5
2057.99	21.5
2058.96	24
2059.93	25.5
2060.9	24
2061.87	19
2062.84	22
2063.81	22.5
2064.78	23.5
2065.75	21
2066.72	20
2067.69	26
2068.66	23
2069.63	25
2070.6	24.5
2071.57	26
2072.53	26
2073.5	23
2074.47	23.5
2075.44	24.5
2076.41	23
2077.38	22.5
2078.34	24.5
2079.31	27
2080.28	22
2081.25	20.5
2082.21	20
2083.18	27
2084.15	23
2085.12	25.5
2086.08	23.5
2087.05	20.5
2088.02	26.5
2088.98	23.5
2089.95	25.5
2090.91	22
2091.88	22.5
2092.85	23
2093.81	26
2094.78	24
2095.74	22.5
2096.71	21.5
2097.67	21
2098.64	24
2099.6	26
2100.57	21
2101.53	24.5
2102.5	22.5
2103.46	26.5
2104.42	25.5
2105.39	27
2106.35	27.5
2107.31	25
2108.28	27
2109.24	23
2110.2	23.5
2111.17	24.5
2112.13	22.5
2113.09	24.5
2114.06	21
2115.02	26.5
2115.98	22
2116.94	26.5
2117.9	22
2118.86	22
2119.83	25.5
2120.79	26.5
2121.75	24
2122.71	26.5
2123.67	22
2124.63	22
2125.59	23.5
2126.55	22
2127.51	24
2128.48	24.5
2129.43	22
2130.4	27
2131.35	24
2132.31	25
2133.27	28
2134.23	25
2135.19	24
2136.15	21
2137.11	22
2138.07	25
2139.03	20
2139.99	21
2140.95	23.5
2141.9	24
2142.86	21.4803
2143.82	25.3926
2144.78	24.047
2145.74	20.6672
2146.69	24.3936
2147.65	24.4466
2148.61	21.175
2149.56	26.3641
2150.52	24.0825
2151.48	17.2011
2152.44	25.9645
2153.39	20.1113
2154.35	22.5147
2155.3	22.1622
2156.26	20.9108
2157.22	24.6614
2158.17	25.6155
2159.13	23.8781
2160.08	24.9421
2161.04	23.6214
2161.99	23.2015
2162.95	20.8956
2163.9	24.7183
2164.86	24.7512
2165.81	24.8757
2166.77	23.1426
2167.72	22.9486
2168.68	22.2
2169.63	22.2281
2170.58	23.3401
2171.54	24.1924
2172.49	22.4108
2173.44	24.6025
2174.4	22.3816
2175.35	21.9364
2176.3	23.2475
2177.26	22.0415
2178.21	24.4752
2179.16	23.582
2180.11	24.4358
2181.07	26.4102
2182.02	23.8721
2182.97	21.2129
2183.92	23.8494
2184.88	22.9798
2185.83	22.0375
2186.78	21.7092
2187.73	24.9234
2188.68	24.2279
2189.63	21.9159
2190.58	22.9975
2191.53	20.7612
2192.48	24.6961
2193.43	22.7209
2194.38	22.8948
2195.33	20.4371
2196.28	23.4307
2197.23	21.9033
2198.18	21.9825
2199.13	23.3467
2200.08	21.8488
2201.03	22.2176
2201.98	26.3475
2202.93	24.6969
2203.88	23.3938
2204.83	22.6907
2205.78	22.0941
2206.72	25.506
2207.67	23.399
2208.62	24.9642
2209.57	21.327
2210.52	24.2052
2211.46	23.8389
2212.41	23.0496
2213.36	23.8136
2214.31	20.6837
2215.25	24.5471
2216.2	24.5
2217.15	23.9167
2218.09	21.2302
2219.04	24.1283
2219.99	22.4675
2220.93	22.4545
2221.88	24.6413
2222.83	22.6296
2223.77	22.6159
2224.72	24.0756
2225.66	22.8104
2226.61	21.477
2227.55	22.2616
2228.5	24.4057
2229.44	23.3418
2230.39	23.6463
2231.33	22.2127
2232.28	24.31
2233.22	21.7487
2234.17	20.0169
2235.11	22.6397
2236.05	23.84
2237	23.1457
2237.94	21.4919
2238.88	21.7889
2239.83	23.5564
2240.04	24
2240.98	21
2241.93	22
2242.88	20
2243.83	25
2244.78	23.5
2245.72	23
2246.67	20
2247.62	25.5
2248.56	24.5
2249.51	23
2250.46	20
2251.4	21
2252.35	23.5
2253.3	22
2254.24	27
2255.19	21.5
2256.14	22
2257.08	21.5
2258.03	25.5
2258.97	22
2259.92	23
2260.86	25
2261.81	23
2262.75	24
2263.7	24
2264.64	22.5
2265.59	26
2266.53	28
2267.48	21
2268.42	22.5
2269.36	20.5
2270.31	18
2271.25	24.5
2272.19	23
2273.14	23.5
2274.08	23
2275.02	23
2275.97	26
2276.91	23
2277.85	25.5
2278.8	22
2279.74	26
2280.68	23.5
2281.62	22.5
2282.56	21.5
2283.51	22.5
2284.45	23
2285.39	23
2286.33	23.5
2287.27	24
2288.21	23.5
2289.15	24.5
2290.09	19
2291.04	27
2291.98	20.5
2292.92	24
2293.86	18.5
2294.8	22.5
2295.74	22.5
2296.68	23.5
2297.62	22.5
2298.56	21
2299.5	25.5
2300.44	23
2301.37	23.5
2302.31	19.5
2303.25	23
2304.19	20
2305.13	19.5
2306.07	23
2307.01	21
2307.94	26
2308.88	21
2309.82	24
2310.76	24.5
2311.7	22
2312.63	23.5
2313.57	22.5
2314.51	23.5
2315.44	22
2316.38	25
2317.32	24
2318.26	24.5
2319.19	26.5
2320.13	25
2321.06	24
2322	22.5
2322.94	22
2323.87	29
2324.81	23
2325.74	20
2326.68	21
2327.61	25
2328.55	20.5
2329.48	21.5
2330.42	20.5
2331.35	25
2332.29	24.5
2333.22	24
2334.16	26
2335.09	25
2336.02	23.5
2336.96	18
2337.89	23
2338.83	23
2339.76	22
2340.69	22
2341.63	25
2342.56	24.5
2343.49	26.5
2344.42	25
2345.36	23
2346.29	26.5
2347.22	25.5
2348.15	22.5
2349.09	26.5
2350.02	24
2350.95	25
2351.88	25.5
2352.81	22
2353.74	22.5
2354.68	22.5
2355.61	23.5
2356.54	22.5
2357.47	23.5
2358.4	23.5
2359.33	23.5
2360.26	18
2361.19	22
2362.12	24.5
2363.05	23.5
2363.98	23.5
2364.91	23
2365.84	24
2366.77	22.5
2367.7	24.5
2368.63	19
2369.56	23.5
2370.49	22
2371.41	22
2372.34	22
2373.27	24.5
2374.2	27
2375.13	22.5
2376.06	24.5
2376.98	24.5
2377.91	26
2378.84	25
2379.77	23
2380.69	20
2381.62	25
2382.55	23.5
2383.47	21.5
2384.4	27
2385.33	27
2386.25	21.5
2387.18	27
2388.11	20.5
2389.03	21.5
2389.96	23
2390.89	22
2391.81	24
2392.74	27
2393.66	24.5
2394.59	24
2395.51	23.5
2396.44	24
2397.36	24.5
2398.29	23.5
2399.21	25
2400.14	24.5
2401.06	24
2401.99	22.5
2402.91	23.5
2403.83	28
2404.76	27
2405.68	24.5
2406.6	25
2407.53	22
2408.45	22
2409.37	25
2410.3	24.5
2411.22	22.5
2412.14	19
2413.06	24
2413.99	21
2414.91	22.5
2415.83	22.5
2416.75	21.5
2417.68	20
2418.6	25.5
2419.52	25.5
2420.44	24.5
2421.36	22.5
2422.28	26.5
2423.2	22
2424.12	21
2425.05	26.5
2425.97	24
2426.89	24
2427.81	22.5
2428.73	26
2429.65	22
2430.57	23
2431.49	25
2432.41	23
2433.33	24
2434.25	22
2435.17	25.5
2436.08	30
2437	24.5
2437.92	24.5
2438.84	23.5
2439.76	24.5
2440.68	28
2441.6	23
2442.51	23.5
2443.43	22.5
2444.35	23.5
2445.27	24.5
2446.19	26
2447.1	22.5
2448.02	20.5
2448.94	26
2449.85	26
2450.77	25
2451.69	28
2452.61	24
2453.52	22
2454.44	24.5
2455.35	25
2456.27	22.5
2457.19	23
2458.1	26.5
2459.02	27
2459.94	24.5
2460.85	24
2461.77	21
2462.68	24
2463.6	26
2464.51	25.5
2465.43	23
2466.34	25
2467.25	23
2468.17	26
2469.08	24
2470	24
2470.91	25
2471.83	24.5
2472.74	26.5
2473.65	23
2474.57	26.5
2475.48	24
2476.39	24.5
2477.31	24.5
2478.22	26.5
2479.13	28.5
2480.04	22
2480.96	26
2481.87	23
2482.78	21
2483.69	27.5
2484.6	21
2485.52	25.5
2486.43	25.5
2487.34	24
2488.25	24
2489.16	25.5
2490.07	25
2490.99	26
2491.9	23.5
2492.81	28.5
2493.72	20
2494.63	22.5
2495.54	25
2496.45	22.5
2497.36	22
2498.27	23
2499.18	23
2500.09	27
2501	24
2501.91	25
2502.82	24.5
2503.73	22.5
2504.63	25
2505.54	26
2506.45	23
2507.36	23.5
2508.27	25.5
2509.18	26
2510.09	23
2510.99	27
2511.9	27.5
2512.81	23.5
2513.72	24
2514.62	21.5
2515.53	27.5
2516.44	24.5
2517.35	23
2518.25	23.5
2519.16	24.5
2520.07	21
2520.97	24
2521.88	27
2522.79	26
2523.69	23.5
2524.6	24
2525.51	27
2526.41	24.5
2527.32	26
2528.22	24.5
2529.13	24
2530.03	25.5
2530.94	22
2531.84	23.5
2532.75	28
2533.65	22
2534.56	22
2535.46	25
2536.37	27.5
2537.27	24.5
2538.17	27.5
2539.08	25
2539.98	23.5
2540.89	27.5
2541.79	25.5
2542.69	26
2543.6	25.5
2544.5	24
2545.4	25
2546.31	26.5
2547.21	25
2548.11	24.5
2549.01	23
2549.92	24
2550.82	26.5
2551.72	26
2552.62	25.5
2553.52	25
2554.42	26
2555.33	22
2556.23	22.5
2557.13	24.5
2558.03	22.5
2558.93	22.5
2559.83	24
2560.73	26.5
2561.63	26.5
2562.53	26
2563.43	25
2564.33	24.5
2565.24	27
2566.13	23
2567.04	24.5
2567.93	24
2568.83	22
2569.73	21
2570.63	27.5
2571.53	24
2572.43	20
2573.33	23
2574.23	24
2575.13	25.5
2576.03	24
2576.92	26
2577.82	21.5
2578.72	27
2579.62	28
2580.52	23
2581.41	24
2582.31	24.5
2583.21	24.5
2584.11	25
2585	26
2585.9	23.5
2586.8	26
2587.69	23
2588.59	23.5
2589.49	28
2590.38	26
2591.28	26
2592.18	25.5
2593.07	28
2593.97	26.5
2594.86	27.5
2595.76	25
2596.66	26.5
2597.55	22.5
2598.45	26.5
2599.34	24
2600.24	25.5
2601.13	24.5
2602.03	24.5
2602.92	20.5
2603.81	26
2604.71	24.5
2605.6	28
2606.5	28
2607.39	26.5
2608.28	22
2609.18	23.5
2610.07	20
2610.97	23
2611.86	26.5
2612.75	19
2613.64	24.5
2614.54	24
2615.43	24
2616.32	22.5
2617.22	25
2618.11	27.5
2619	23
2619.89	25.5
2620.78	20.5
2621.68	26.5
2622.57	24.5
2623.46	24
2624.35	24.5
2625.24	21.5
2626.13	22
2627.02	25.5
2627.91	28
2628.81	25
2629.7	25.5
2630.59	22
2631.48	25
2632.37	22.5
2633.26	24
2634.15	26
2635.04	26.5
2635.93	22
2636.82	23
2637.71	21
2638.59	22.5
2639.48	27.5
2640.37	24.5
2641.26	21
2642.15	21.5
2643.04	23
2643.93	27.5
2644.82	24.5
2645.71	20.5
2646.59	24
2647.48	25.5
2648.37	22.5
2649.26	22.5
2650.15	24.5
2651.03	24.5
2651.92	23.5
2652.81	19
2653.69	25.5
2654.58	24.5
2655.47	27
2656.35	26.5
2657.24	21.5
2658.13	24
2659.01	24
2659.9	21
2660.79	26.5
2661.67	27.5
2662.56	24.5
2663.44	29.5
2664.33	25.5
2665.22	23.5
2666.1	25.5
2666.99	25
2667.87	25
2668.76	24.5
2669.64	23.5
2670.52	25.5
2671.41	21
2672.29	24.5
2673.18	24
2674.06	25.5
2674.95	24
2675.83	25.5
2676.71	22.5
2677.6	24
2678.48	24
2679.36	26
2680.25	26.5
2681.13	24
2682.01	23
2682.9	25
2683.78	21.5
2684.66	21
2685.55	28.5
2686.43	24.5
2687.31	20.5
2688.19	26
2689.07	24.5
2689.96	25.5
2690.84	22.5
2691.72	23
2692.6	18.5
2693.48	25.5
2694.36	21
2695.24	24.5
2696.12	20.5
2697	25
2697.89	29
2698.77	24.5
2699.65	24
2700.53	24
2701.41	26
2702.29	23.5
2703.17	26.5
2704.05	27
2704.93	28
2705.81	25.5
2706.69	25.5
2707.57	22.5
2708.44	23.5
2709.32	21.5
2710.2	25.5
2711.08	25.5
2711.96	22.5
2712.84	26.5
2713.72	23
2714.59	27.5
2715.47	22
2716.35	25
2717.23	21.5
2718.11	26.5
2718.98	22.5
2719.86	26
2720.74	24
2721.62	24
2722.49	23
2723.37	26.5
2724.25	22.5
2725.12	26
2726	26
2726.88	29.5
2727.75	26
2728.63	26
2729.51	21.5
2730.38	26.5
2731.26	24
2732.13	24
2733.01	23
2733.88	26
2734.76	23.5
2735.63	27
2736.51	23
2737.38	22
2738.26	26
2739.13	21.5
2740.01	24.5
2740.88	27.5
2741.76	24
2742.63	25.5
2743.5	24.5
2744.38	24
2745.25	24.5
2746.13	26
2747	22
2747.87	22.5
2748.75	27
2749.62	27.5
2750.49	24
2751.36	25
2752.24	26.5
2753.11	25
2753.98	23
2754.86	23
2755.73	24
2756.6	23
2757.47	25.5
2758.34	25
2759.22	21.5
2760.09	28.5
2760.96	23.5
2761.83	25.5
2762.7	25.5
2763.57	22.5
2764.44	27
2765.31	24.5
2766.18	26
2767.06	25
2767.93	30.5
2768.8	25
2769.67	22
2770.54	23
2771.41	25.5
2772.28	23.5
2773.15	23
2774.02	26
2774.89	28
2775.75	26.5
2776.62	26.5
2777.49	24
2778.36	25
2779.23	22.5
2780.1	25.5
2780.97	24
2781.84	22.5
2782.71	24
2783.57	24
2784.44	25
2785.31	28
2786.18	30
2787.04	26.5
2787.91	21
2788.78	26.5
2789.65	30
2790.51	21
2791.38	25
2792.25	22.5
2793.12	26.5
2793.98	24
2794.85	29.5
2795.72	25.5
2796.58	26.5
2797.45	25.5
2798.31	27
2799.18	27.5
2800.05	26
2800.91	27.5
2801.78	29
2802.64	24
2803.51	27
2804.37	26.5
2805.24	25.5
2806.1	25.5
2806.97	26.5
2807.83	29.5
2808.7	27.5
2809.56	30.5
2810.43	29
2811.29	24
2812.15	28.5
2813.02	25.5
2813.88	29.5
2814.75	25.5
2815.61	25.5
2816.47	26.5
2817.34	25
2818.2	24.5
2819.06	23
2819.92	24
2820.79	23
2821.65	27.5
2822.51	23
2823.37	25
2824.24	25
2825.1	27
2825.96	23.5
2826.82	24
2827.69	27.5
2828.55	26.5
2829.41	25
2830.27	24
2831.13	25
2831.99	31
2832.85	23
2833.71	29.5
2834.58	23
2835.44	22
2836.3	24
2837.16	26
2838.02	26
2838.88	26
2839.74	28.5
2840.6	26
2841.46	27.5
2842.32	24.5
2843.18	28.5
2844.04	26
2844.9	25
2845.75	21
2846.61	26
2847.47	21
2848.33	25
2849.19	25.5
2850.05	26
2850.91	24
2851.77	25
2852.62	27
2853.48	29
2854.34	26
2855.2	29.5
2856.06	25
2856.91	23.5
2857.77	27
2858.63	26
2859.48	27.5
2860.34	26
2861.2	29.5
2862.06	19
2862.91	28
2863.77	26.5
2864.63	26
2865.48	28
2866.34	29
2867.19	28
2868.05	27.5
2868.91	27.5
2869.76	32.5
2870.62	28.5
2871.47	31
2872.33	27.5
2873.18	30.5
2874.04	30
2874.89	33
2875.75	31
2876.6	27.5
2877.46	33
2878.31	29.5
2879.17	33.5
2880.02	32.5
2880.88	30.5
2881.73	34
2882.58	28
2883.44	33
2884.29	33
2885.14	33
2886	32.5
2886.85	36
2887.7	36
2888.56	34.5
2889.41	41
2890.26	37
2891.12	37
2891.97	40
2892.82	40.5
2893.67	40
2894.52	46
2895.38	43
2896.23	46.5
2897.08	47
2897.93	50.5
2898.78	50.5
2899.64	57
2900.49	63
2901.34	54.5
2902.19	65
2903.04	62.5
2903.89	67
2904.74	63
2905.59	68.5
2906.44	70
2907.29	63
2908.14	70
2908.99	66
2909.84	63.5
2910.69	63.5
2911.54	56
2912.39	60
2913.24	51
2914.09	49
2914.94	48
2915.79	46.5
2916.64	44
2917.49	44.5
2918.34	44.5
2919.18	39
2920.03	39.5
2920.88	36.5
2921.73	35.5
2922.58	31.5
2923.42	34.5
2924.27	30.5
2925.12	36.5
2925.97	31
2926.82	30.5
2927.66	34
2928.51	28.5
2929.36	27.5
2930.2	31
2931.05	29.5
2931.9	28.5
2932.74	31
2933.59	26.5
2934.44	30
2935.28	29.5
2936.13	26.5
2936.98	29
2937.82	30
2938.67	29.5
2939.51	26.5
2940.36	29.5
2941.2	29
2942.05	29
2942.9	29
2943.74	28
2944.58	29
2945.43	29.5
2946.27	27.5
2947.12	27.5
2947.96	31
2948.81	33
2949.65	32
2950.5	25
2951.34	31
2952.18	34
2953.03	33
2953.87	35
2954.71	31.5
2955.56	31.5
2956.4	34
2957.24	36
2958.09	36.5
2958.93	35.5
2959.77	40
2960.62	41
2961.46	40
2962.3	41
2963.14	45.5
2963.98	43.5
2964.83	48
2965.67	45
2966.51	44
2967.35	43.5
2968.19	41
2969.04	38
2969.88	40
2970.72	39
2971.56	37
2972.4	34.9631
2973.24	38.9472
2974.08	31.2793
2974.92	33.6562
2975.76	34.7582
2976.6	30.5566
2977.44	34.1158
2978.28	30.335
2979.12	29.1704
2979.96	29.2153
2980.8	29.1936
2981.64	27.7431
2982.48	29.7905
2983.32	25.8776
2984.16	24.8679
2985	26.1355
2985.84	24.324
2986.68	24.2976
2987.52	24.6016
2988.35	23.9211
2989.19	28.7146
2990.03	26.1394
2990.87	26.7525
2991.71	26.3442
2992.55	27.2009
2993.38	23.7279
2994.22	25.8403
2995.06	22.9863
2995.9	26.7806
2996.73	27.0604
2997.57	24.6947
2998.41	24.8956
2999.25	22.0206
3000.08	28.2038
3000.92	24.2178
3001.76	25.7388
3002.59	23.2718
3003.43	25.0531
3004.27	23.3776
3005.1	24.5487
3005.94	26.0307
3006.78	24.3811
3007.61	22.7605
3008.45	23.4059
3009.28	23.9558
3010.12	24.1204
3010.95	22.6141
3011.79	22.3642
3012.62	22.3072
3013.46	23.5943
3014.29	22.7794
3015.13	23.0676
3015.96	24.7036
3016.8	24.433
3017.63	22.5979
3018.47	23.1107
3019.3	23.0894
3020.14	22.7834
3020.97	24.0245
3021.8	24.4007
3022.64	23.5538
3023.47	22.9715
3024.3	21.3679
3025.14	20.7476
3025.97	22.3102
3026.8	22.8974
3027.64	24.0691
3028.47	23.2671
3029.3	23.5934
3030.14	23.7142
3030.97	23.9657
3031.8	24.2125
3032.63	22.123
3033.46	21.9281
3034.3	22.2295
3035.13	21.7162
3035.96	22.3701
3036.79	21.3145
3037.62	23.8404
3038.46	25.4163
3039.29	23.321
3040.12	23.4428
3040.95	22.749
3041.78	23.2612
3042.61	22.0015
3043.44	22.0648
3044.27	25.6924
3045.1	22.8842
3045.93	21.3018
3046.76	20.6396
3047.59	21.0762
3048.42	19.2549
3049.25	20.5127
3050.08	23.5049
3050.91	25.0364
3051.74	23.2738
3052.57	22.3422
3053.4	21.2564
3054.23	23.1607
3055.06	23.5729
3055.89	25.8661
3056.72	24.6612
3057.32	22.5
3058.15	26.5
3058.98	21.5
3059.82	27
3060.65	24
3061.48	24
3062.31	21
3063.15	24.5
3063.98	24.5
3064.81	23
3065.64	25
3066.48	24
3067.31	23.5
3068.14	23.5
3068.97	22.5
3069.8	21.5
3070.63	20.5
3071.47	22.5
3072.3	25
3073.13	27
3073.96	24.5
3074.79	26.5
3075.62	22
3076.45	23.5
3077.28	22.5
3078.11	25
3078.94	24
3079.77	25.5
3080.6	19
3081.43	27
3082.26	26.5
3083.09	22.5
3083.92	23
3084.75	24.5
3085.58	28
3086.41	23
3087.24	24
3088.07	22.5
3088.9	27.5
3089.73	23.5
3090.55	26.5
3091.38	25.5
3092.21	24
3093.04	22
3093.87	22.5
3094.7	25.5
3095.52	22.5
3096.35	25
3097.18	24.5
3098.01	23
3098.84	20
3099.66	21
3100.49	25.5
3101.32	20.5
3102.14	23.5
3102.97	20
3103.8	22
3104.62	19
3105.45	24
3106.28	18.5
3107.1	27.5
3107.93	21.5
3108.76	24.5
3109.58	23.5
3110.41	22.5
3111.23	24.5
3112.06	23.5
3112.89	23.5
3113.71	25
3114.54	22.5
3115.36	24.5
3116.19	22.5
3117.01	23
3117.84	21
3118.66	21
3119.49	24.5
3120.31	20.5
3121.13	21.5
3121.96	21.5
3122.78	23
3123.61	25.5
3124.43	29
3125.25	24
3126.08	27
3126.9	25
3127.73	24
3128.55	25
3129.37	24
3130.19	22.5
3131.02	24.5
3131.84	25
3132.66	23
3133.49	26
3134.31	24
3135.13	24
3135.95	24
3136.78	21
3137.6	25.5
3138.42	23.5
3139.24	25
3140.06	26
3140.88	20.5
3141.71	25.5
3142.53	24
3143.35	20
3144.17	24
3144.99	25.5
3145.81	22.5
3146.63	24
3147.45	24.5
3148.27	24.5
3149.09	24
3149.91	23
3150.73	24
3151.56	24
3152.37	20.5
3153.2	23
3154.01	24
3154.83	24
3155.65	26
3156.47	27
3157.29	23
3158.11	23.5
3158.93	25
3159.75	20.5
3160.57	22
3161.39	23
3162.21	21.5
3163.02	25.5
3163.84	20
3164.66	24
3165.48	22
3166.3	28.5
3167.11	22.5
3167.93	23
3168.75	22
3169.57	20.5
3170.39	23
3171.2	24
3172.02	20
3172.84	21
3173.65	29
3174.47	23
3175.29	24
3176.1	25
3176.92	24.5
3177.74	23.5
3178.55	23
3179.37	24
3180.19	23
3181	22.5
3181.82	24.5
3182.63	27
3183.45	24
3184.27	23.5
3185.08	20.5
3185.9	22
3186.71	25
3187.53	27.5
3188.34	26.5
3189.16	23
3189.97	20
3190.79	25
3191.6	28.5
3192.41	24.5
3193.23	23.5
3194.04	22.5
3194.86	26.5
3195.67	22
3196.48	24
3197.3	25
3198.11	24
3198.93	28.5
3199.74	24.5
3200.55	22
3201.36	24
3202.18	22.5
3202.99	26.5
3203.8	21
3204.62	26.5
3205.43	24.5
3206.24	24.5
3207.05	22
3207.87	22
3208.68	25.5
3209.49	24.5
3210.3	25
3211.11	21
3211.93	24
3212.74	24
3213.55	24
3214.36	26
3215.17	20
3215.98	25.5
3216.79	22
3217.6	25
3218.41	26.5
3219.22	23
3220.03	22.5
3220.85	24.5
3221.66	25.5
3222.47	25
3223.28	22
3224.09	27
3224.9	26
3225.71	23.5
3226.52	25.5
3227.33	24.5
3228.13	28
3228.94	22.5
3229.75	24
3230.56	24
3231.37	22
3232.18	23.5
3232.99	21
3233.8	29.5
3234.61	24.5
3235.41	23.5
3236.22	22.5
3237.03	24.5
3237.84	22
3238.65	20.5
3239.45	24
3240.26	21.5
3241.07	23.5
3241.88	22.5
3242.68	25
3243.49	23
3244.3	27
3245.1	28
3245.91	18
3246.72	24
3247.53	26
3248.33	23.5
3249.14	25
3249.95	23.5
3250.75	23
3251.56	21.5
3252.36	25
3253.17	20.5
3253.97	24
3254.78	23
3255.59	25
3256.39	21.5
3257.2	19.5
3258	21.5
3258.81	26.5
3259.61	24
3260.42	23
3261.22	24
3262.03	25
3262.83	26.5
3263.64	23.5
3264.44	27
3265.24	26.5
3266.05	23
3266.85	22
3267.66	25
3268.46	22.5
3269.26	22
3270.07	26.5
3270.87	23.5
3271.67	26.5
3272.48	27
3273.28	22.5
3274.08	23
3274.89	21
3275.69	23.5
3276.49	21
3277.29	25
3278.1	24
3278.9	23
3279.7	22
3280.5	26.5
3281.3	21.5
3282.11	26.5
3282.91	21
3283.71	24
3284.51	21
3285.31	27.5
3286.11	20
3286.91	25.5
3287.72	25.5
3288.52	24
3289.32	22.5
3290.12	23.5
3290.92	23.5
3291.72	24
3292.52	26
3293.32	19
3294.12	21.5
3294.92	27.5
3295.72	23
3296.52	21
3297.32	24.5
3298.12	22.5
3298.92	26.5
3299.72	21
3300.52	25
3301.32	21
3302.12	21.5
3302.92	24
3303.71	22
3304.51	23.5
3305.31	25
3306.11	24
3306.91	23.5
3307.71	28
3308.5	25
3309.3	25.5
3310.1	23.5
3310.9	25
3311.7	23.5
3312.49	23.5
3313.29	25.5
3314.09	23
3314.89	27
3315.68	26
3316.48	21.5
3317.28	23
3318.07	26.5
3318.87	27.5
3319.67	22.5
3320.46	26
3321.26	21.5
3322.06	27.5
3322.85	28.5
3323.65	24
3324.44	24
3325.24	27
3326.04	24.5
3326.83	26.5
3327.63	24.5
3328.42	24.5
3329.22	25.5
3330.01	25.5
3330.81	23.5
3331.6	25.5
3332.4	26
3333.19	26.5
3333.99	26.5
3334.78	24.5
3335.58	24
3336.37	21.5
3337.17	24.5
3337.96	25.5
3338.75	26
3339.55	25.5
3340.34	25
3341.13	26
3341.93	23.5
3342.72	24.5
3343.51	24
3344.31	25.5
3345.1	26
3345.89	23.5
3346.69	23
3347.48	23
3348.27	25
3349.06	26
3349.86	24.5
3350.65	24
3351.44	27.5
3352.23	24.5
3353.03	20.5
3353.82	26.5
3354.61	22
3355.4	22.5
3356.19	25.5
3356.98	23
3357.78	24.5
3358.57	24
3359.36	26.5
3360.15	25
3360.94	22
3361.73	25
3362.52	24
3363.31	28
3364.1	26.5
3364.89	21.5
3365.68	23
3366.47	25
3367.26	23
3368.05	25.5
3368.84	25
3369.63	25.5
3370.42	23.5
3371.21	24
3372	25
3372.79	26
3373.58	26.5
3374.37	25
3375.16	30.5
3375.95	24.5
3376.73	25.5
3377.52	25
3378.31	22
3379.1	25
3379.89	28
3380.68	23
3381.46	24.5
3382.25	25
3383.04	28.5
3383.83	21.5
3384.62	25.5
3385.4	19.5
3386.19	24
3386.98	23.5
3387.76	27.5
3388.55	24
3389.34	23.5
3390.13	22
3390.91	23
3391.7	23
3392.49	20
3393.27	20
3394.06	24
3394.84	28
3395.63	26.5
3396.42	23.5
3397.2	23
3397.99	25
3398.77	25.5
3399.56	25
3400.34	26
3401.13	26.5
3401.92	24
3402.7	24.5
3403.49	22.5
3404.27	28.5
3405.06	24
3405.84	26.5
3406.62	24
3407.41	22
3408.19	24
3408.98	28
3409.76	24.5
3410.55	21.5
3411.33	25
3412.11	26.5
3412.9	20
3413.68	22.5
3414.46	22
3415.25	23.5
3416.03	26.5
3416.81	25.5
3417.6	24.5
3418.38	23.5
3419.16	21
3419.95	22
3420.73	24
3421.51	26
3422.29	22
3423.08	24.5
3423.86	20.5
3424.64	24
3425.42	24.5
3426.2	27
3426.98	24
3427.77	23
3428.55	23.5
3429.33	25.5
3430.11	27
3430.89	24
3431.67	25
3432.45	21
3433.24	27
3434.02	24
3434.8	22.5
3435.58	22
3436.36	19
3437.14	22.5
3437.92	24.5
3438.7	25
3439.48	26.5
3440.26	24
3441.04	27
3441.82	25.5
3442.6	23.5
3443.38	20.5
3444.16	28.5
3444.94	26.5
3445.71	24
3446.49	23
3447.27	21
3448.05	22.5
3448.83	25.5
3449.61	25.5
3450.39	21.5
3451.17	27
3451.94	25
3452.72	21
3453.5	24.5
3454.28	26
3455.06	21.5
3455.83	24.5
3456.61	23
3457.39	28
3458.17	23
3458.94	24
3459.72	26
3460.5	18
3461.28	23
3462.05	25
3462.83	25
3463.61	26
3464.38	24.5
3465.16	26
3465.93	24
3466.71	22
3467.49	24.5
3468.26	26
3469.04	24
3469.82	29
3470.59	22
3471.37	23.5
3472.14	21
3472.92	26
3473.69	25.5
3474.47	23
3475.24	24.5
3476.02	25.5
3476.79	25
3477.57	22
3478.34	27
3479.12	26.5
3479.89	21
3480.67	23
3481.44	22
3482.21	24.5
3482.99	25
3483.76	24
3484.54	26
3485.31	24.5
3486.08	21
3486.86	27.5
3487.63	26
3488.4	24
3489.18	24.5
3489.95	22
3490.72	24.5
3491.5	22.5
3492.27	27
3493.04	25
3493.81	24
3494.59	23
3495.36	23
3496.13	24
3496.9	21.5
3497.67	22
3498.45	26.5
3499.22	24
3499.99	24
