#Acq. time (s)=	5
#Accumulations=	5
#Range (cm-¹)=	100...3500
#Windows=	4
#Autofocus=	Off
#AutoExposure=	Off
#Spike filter=	Multiple accum.
#Delay time (s)=	0
#Binning=	1
#Readout mode=	Signal
#DeNoise=	Off
#ICS correction=	Off
#Dark correction=	Off
#Inst. Process=	Off
#Instrument=	LabRAM HR Evol
#Detector=	Syncerity OE
#Objective=	x100_VIS
#Grating=	600 (500nm)
#ND Filter=	25%
#Laser=	633nm_Edge
#Hole=	100.021
#Range=	Visible
#Project=	verificaciones
#Sample=	a5
#Site=	lined
#Title=	bolusa5lined
#Remark=	
#Date=	09.01.2026 13:15
#Acquired=	09.01.2026 13:15:41
100.695	25.5
101.978	32.5
103.262	35
104.545	29
105.829	28.5
107.112	32
108.394	34.5
109.676	29
110.958	30.5
112.24	25.5
113.522	29.5
114.803	28.5
116.084	33
117.365	32
118.646	28
119.927	31.5
121.207	27
122.487	31.5
123.767	33.5
125.047	28
126.326	33
127.606	30
128.885	30.5
130.164	30.5
131.442	32
132.721	38
133.999	34
135.277	32
136.555	34
137.831	34.5
139.109	29
140.386	40
141.663	34
142.94	37
144.216	40
145.493	40
146.769	40
148.043	38.5
149.319	37
150.595	39
151.87	36
153.145	39
154.42	39.5
155.693	42
156.968	38.5
158.242	40
159.516	41.5
160.79	38.5
162.062	40
163.336	41.5
164.609	38
165.882	40.5
167.153	36.5
168.426	37
169.699	41.5
170.971	41
172.241	39.5
173.513	38.5
174.785	41.5
176.055	42
177.326	39
178.597	45
179.866	42
181.137	36
182.407	42
183.676	43.5
184.946	40
186.216	40.5
187.484	42.5
188.753	41
190.022	39
191.29	42
192.558	42.5
193.825	39.5
195.094	36
196.36	40
197.628	44.5
198.896	39.5
200.162	38.5
201.429	37
202.695	40
203.962	37
205.227	36.5
206.493	35
207.758	35.5
209.024	35.5
210.289	33
211.554	39
212.818	34.5
214.083	31.5
215.347	35
216.612	29.5
217.875	34.5
219.138	35
220.402	31
221.665	34
222.928	32.5
224.19	31.5
225.454	34
226.715	31
227.977	29.5
229.24	29
230.501	35
231.762	30
233.024	34.5
234.284	31.5
235.546	31
236.806	27
238.066	32.5
239.327	29.5
240.587	29.5
241.846	35.5
243.105	30
244.365	29.5
245.624	30
246.882	32
248.142	26
249.4	34.5
250.658	30
251.916	30.5
253.174	29
254.432	33.5
255.689	30
256.945	28
258.202	29.5
259.46	28
260.716	35
261.972	31.5
263.228	28.5
264.483	27.5
265.74	29.5
266.996	29
268.251	30.5
269.505	29
270.76	31
272.014	29.5
273.268	34
274.522	28.5
275.778	29
277.031	30
278.285	30.5
279.538	28.5
280.791	33.5
282.043	25
283.296	27
284.548	30
285.8	25
287.052	30.5
288.304	27
289.556	31
290.807	24.5
292.058	28.5
293.309	28.5
294.56	26.5
295.81	30
297.061	28.5
298.311	30
299.561	29
300.81	27.5
302.06	25
303.309	26.5
304.558	27.5
305.807	30.5
307.056	28.5
308.305	28
309.551	34
310.8	29.5
312.047	31.5
313.295	31
314.543	32.5
315.79	23
317.037	29
318.284	32
319.529	30.5
320.776	30
322.022	28
323.268	31.5
324.514	28
325.758	34
327.004	26.5
328.249	27.5
329.494	29.5
330.739	25.5
331.982	26
333.227	30.5
334.471	26.5
335.715	34
336.958	28.5
338.201	29
339.445	30
340.687	27
341.93	27.5
343.173	30.5
344.414	26.5
345.657	29
346.899	26.5
348.14	25.5
349.381	22
350.623	28.5
351.863	31
353.104	29.5
354.346	32
355.585	28.5
356.826	31
358.065	28.5
359.305	30.5
360.545	32
361.784	30.5
363.023	28.5
364.261	30.5
365.501	27.5
366.738	31
367.977	31
369.216	29
370.453	28
371.691	28
372.928	27
374.166	30.5
375.402	30
376.64	29.5
377.876	30
379.111	31
380.348	25
381.584	30.5
382.82	28.5
384.055	27
385.291	26
386.526	30.5
387.76	28.5
388.996	26
390.229	24.5
391.465	29
392.698	27
393.931	29.5
395.166	33
396.399	26
397.632	21
398.866	29.5
400.098	28
401.33	23.5
402.563	27
403.795	27
405.027	27
406.259	29.5
407.491	29.5
408.721	29.5
409.954	29.5
411.184	30
412.415	32.5
413.645	28
414.876	31.5
416.106	32
417.335	28.5
418.565	25.5
419.794	29
421.024	29.5
422.253	28.5
423.482	25.5
424.71	32
425.938	24.5
427.168	27
428.396	30
429.623	23
430.851	27.5
432.078	31
433.305	28
434.532	28.5
435.758	26
436.986	29.5
438.212	28.5
439.438	30.5
440.664	28
441.89	28.5
443.115	29.5
444.34	25.5
445.566	26
446.79	27
448.015	28
449.24	28.5
450.464	31.5
451.688	30.5
452.912	32.5
454.135	24.5
455.359	29.5
456.582	30
457.805	28.5
459.028	28.5
460.251	32.5
461.473	30.5
462.696	34.5
463.918	33
465.14	30.5
466.36	32
467.582	35
468.803	33
470.024	29
471.245	34.5
472.466	33.5
473.686	38
474.907	38.5
476.126	35
477.346	41
478.565	39.5
479.785	44.5
481.004	48.5
482.224	50.5
483.441	52
484.66	50.5
485.879	56
487.097	60.5
488.314	54
489.532	59
490.75	63
491.967	56
493.184	57.5
494.401	56
495.618	58
496.835	49
498.05	44.5
499.267	47
500.483	40.5
501.698	49
502.913	42.5
504.129	36
505.343	41.5
506.559	40.5
507.774	37.5
508.987	35
510.202	38
511.415	35.5
512.63	32
513.844	35.5
515.056	34
516.27	33.5
517.482	31
518.696	36
519.907	34.5
521.121	29.5
522.332	32.5
523.545	31
524.757	31.5
525.968	32
527.18	28.5
528.39	30
529.602	33.5
530.812	31
532.023	31.5
533.233	31.5
534.443	29
535.653	28
536.862	32
538.073	33
539.281	28
540.491	31
541.7	27
542.908	34.5
544.117	32
545.325	28
546.534	28.5
547.741	33
548.949	28
550.157	28
551.364	30
552.57	28.5
553.778	31.5
554.985	30
556.191	29.5
557.398	29
558.604	26.5
559.809	29
561.014	26
562.221	27
563.426	28
564.63	30.5
565.835	26
567.041	28.5
568.245	26
569.449	32
570.653	30
571.856	30
573.061	27
574.264	25.5
575.467	31.5
576.67	28
577.873	26
579.076	29.5
580.279	27
581.481	29
582.683	32.5
583.884	27.5
585.086	29
586.287	27
587.488	25.5
588.689	31.5
589.891	33.5
591.092	26.5
592.292	29
593.492	28
594.692	29.5
595.892	26
597.092	31
598.291	30.5
599.49	27.5
600.689	31.5
601.888	30
603.087	31
604.285	29
605.483	27
606.681	29
607.879	29.5
609.077	29
610.274	30
611.472	27
612.668	29.5
613.865	32.5
615.061	26
616.258	28.5
617.454	31.5
618.65	30.5
619.846	24
621.042	26.5
622.238	29
623.432	25.5
624.627	28.5
625.822	28.5
627.017	27
628.212	30
629.406	31.5
630.599	29
631.793	28
632.987	29.5
634.181	29.5
635.373	24
636.566	26
637.76	29
638.953	28
640.144	31.5
641.337	28.5
642.529	28.5
643.721	27
644.912	32.5
646.104	30
647.295	26
648.485	30
649.677	30.5
650.868	29
652.057	30.5
653.248	27
654.437	31
655.628	32.5
656.818	29
658.006	30
659.196	31.5
660.384	26.5
661.574	28.5
662.763	32
663.951	31.5
665.14	30
666.327	33.5
667.515	33
668.702	31.5
669.891	28.5
671.077	27
672.265	35
673.451	33
674.638	33
675.824	32
677.011	30.5
678.197	31.5
679.383	33.5
680.568	32.5
681.755	34
682.939	37
684.124	29
685.309	38
686.494	34
687.679	37.5
688.863	34
690.046	37.5
691.231	35
692.414	34.5
693.599	32
694.781	36
695.964	33.5
697.148	35.5
698.33	30.5
699.512	37
700.694	40.5
701.877	42
703.059	36.5
704.24	37.5
705.423	42
706.604	50.5
707.784	49.5
708.965	46.5
710.147	47.5
711.327	48.5
712.507	45
713.687	43.5
714.867	34.5
716.048	36.5
717.227	34
718.406	32
719.585	31
720.764	34
721.942	30
723.122	32.5
724.3	28
725.478	25
726.656	28.5
727.834	30.5
729.011	30
730.189	29
731.366	24
732.543	27
733.719	32
734.896	26
736.072	25.5
737.249	27.5
738.426	25
739.602	27
740.777	32.5
741.953	30
743.128	30
744.303	29.5
745.477	26.5
746.651	29
747.826	29
749	29.5
750.174	23
751.348	31
752.522	30.5
753.696	32
754.869	29
756.043	25
757.216	29
758.389	27.5
759.561	32
760.732	28.5
761.905	24
763.077	27
764.249	31.5
765.421	33.5
766.592	32
767.762	28.5
768.934	28.5
770.105	31
771.275	25.5
772.446	29
773.615	31
774.786	26
775.956	26.5
777.126	29
778.294	30.5
779.464	29.5
780.633	31.5
781.801	30.5
782.97	28
784.139	30
785.306	28
786.475	31.5
787.643	29.5
788.81	32
789.978	32
791.146	34
792.312	30.5
793.479	29
794.647	30
795.812	32
796.979	32.5
798.144	28.5
799.311	30
800.477	28
801.642	25
802.808	31.5
803.972	34
805.138	28.5
806.302	25.5
807.467	32.5
808.631	27
809.796	26
810.959	26.5
812.124	27.5
813.287	27
814.451	28
815.614	31
816.777	28
817.94	29
819.102	24
820.265	25
821.427	28.5
822.59	28
823.751	31
824.912	27
826.074	29
827.235	31
828.397	28
829.558	27.5
830.718	26
831.879	30
833.039	24.5
834.199	28
835.359	29.5
836.519	25
837.679	30
838.838	25.5
839.998	28
841.156	27
842.315	30.5
843.473	26
844.633	26
845.791	26
846.948	28
848.106	27.5
849.263	25
850.422	30
851.579	30
852.736	26.5
853.892	32.5
855.049	27
856.205	25
857.363	29
858.519	28.5
859.674	25
860.83	29
861.986	30.5
863.141	31
864.296	32
865.451	29.5
866.605	27
867.76	27
868.914	32.5
870.069	28
871.224	34.5
872.378	31
873.531	24.5
874.685	27.5
875.838	27.5
876.991	27
878.144	27
879.296	29
880.448	30.5
881.6	30.5
882.753	25.5
883.905	26
885.057	24
886.208	27.5
887.36	30
888.511	33
889.662	25
890.813	26
891.964	27.5
893.113	27.5
894.264	28.5
895.414	25.5
896.564	25.5
897.714	25.5
898.864	27.5
900.012	26.5
901.161	27.5
902.31	24.5
903.459	28
904.607	27.5
905.756	24
906.904	25.5
908.052	29.5
909.199	24.5
910.347	26.5
911.495	27
912.643	29
913.789	26
914.936	26.5
916.083	26
917.229	27
918.375	26
919.522	29.5
920.667	29
921.813	27.5
922.959	27
924.104	30
925.249	22.5
926.393	29
927.539	24
928.684	29
929.827	28.5
930.972	23
932.115	19
933.26	26.5
934.403	27
935.547	26
936.689	27.5
937.833	25.5
938.975	28.5
940.119	27.5
941.26	28
942.404	25
943.545	25.5
944.688	27.5
945.829	29.5
946.971	27.5
948.112	29.5
949.253	25
950.394	28
951.535	27.5
952.676	26
953.816	27
954.956	26.5
956.097	25.5
957.236	30
958.377	23.5
959.516	25.5
960.655	25
961.793	29
962.933	29.5
964.071	25.5
965.21	27
966.349	28.5
967.487	28
968.624	23.5
969.762	24
970.901	26
972.038	27
973.175	26
974.311	24
975.449	27.5
976.586	28.5
977.722	27
978.858	25.5
979.994	25.5
981.131	25.5
982.267	30
983.402	26.5
984.537	26
985.672	22.5
986.807	26
987.942	23
989.076	23
990.211	27
991.346	29
992.48	27
993.614	28
994.748	29
995.881	25
997.014	26.5
998.148	26.5
999.28	28
1000.41	25.5
1001.55	23
1002.68	30
1003.81	29.5
1004.94	29
1006.07	26
1007.21	25
1008.34	26.5
1009.47	28
1010.6	25.5
1011.73	29
1012.86	26
1013.99	26.5
1015.12	28.5
1016.25	26
1017.38	28
1018.51	26.5
1019.64	28.5
1020.77	24
1021.9	24.5
1023.03	21
1024.16	25
1025.29	25
1026.42	27.5
1027.54	25.5
1028.67	29.5
1029.8	24
1030.93	28
1032.06	27.5
1033.18	27.5
1034.31	21.5
1035.44	27
1036.56	27
1037.69	25.5
1038.82	25.5
1039.94	23
1041.07	26
1042.2	27.5
1043.32	30.5
1044.45	26
1045.57	24.5
1046.7	23.5
1047.82	26.5
1048.95	26.5
1050.07	26.5
1051.2	21.5
1052.32	26
1053.45	28
1054.57	28
1055.69	26
1056.82	23.5
1057.94	20
1059.06	22
1060.19	24.5
1061.31	26
1062.43	26.5
1063.55	23.5
1064.68	29
1065.8	27.5
1066.92	28
1068.04	26
1069.16	26.5
1070.28	25.5
1071.41	26
1072.53	26
1073.65	24
1074.77	29
1075.89	28
1077.01	26
1078.13	25.5
1079.25	26
1080.37	25
1081.49	25.5
1082.61	27
1083.73	27
1084.85	27.5
1085.96	25
1087.08	23.5
1088.2	26.5
1089.32	27.5
1090.44	23
1091.56	23
1092.67	23.5
1093.79	25.5
1094.91	27
1096.03	25
1097.14	29
1098.26	25.5
1099.38	23
1100.49	25.5
1101.61	28
1102.73	23.5
1103.84	24.5
1104.96	25
1106.07	27
1107.19	24.5
1108.3	22
1109.42	27
1110.53	25.5
1111.65	26
1112.76	25
1113.88	25.5
1114.99	25.5
1116.1	28
1117.22	25
1118.33	27.5
1119.44	27
1120.56	28
1121.67	26.5
1122.78	23
1123.9	25
1125.01	23
1126.12	27
1127.23	27
1128.34	26
1129.46	24
1130.57	24
1131.68	27
1132.79	22.5
1133.9	27
1135.01	26.5
1136.12	23
1137.23	29
1138.34	23
1139.45	25.5
1140.56	26.5
1141.67	21.5
1142.78	30
1143.89	25
1145	24
1146.11	25.5
1147.22	24
1148.33	26.5
1149.44	23
1150.54	25
1151.65	26.5
1152.76	21
1153.87	24.5
1154.97	26.5
1156.08	28
1157.19	28
1158.3	23
1159.4	22
1160.51	23
1161.62	24.5
1162.72	26
1163.83	24.5
1164.93	29.5
1166.04	26
1167.15	27
1168.25	27
1169.36	27
1170.46	28
1171.57	23
1172.67	24
1173.78	25.5
1174.88	23.5
1175.98	25
1177.09	25.5
1178.19	23
1179.3	25
1180.4	25.5
1181.5	27.5
1182.61	25.5
1183.71	21.5
1184.81	26
1185.91	19
1187.02	30.5
1188.12	24
1189.22	25.5
1190.32	23
1191.42	25
1192.53	26
1193.63	28
1194.73	24.9983
1195.83	29.9185
1196.93	24.0662
1198.03	25.9504
1199.13	20.7205
1200.23	24.8673
1201.33	25.4689
1202.43	25.5876
1203.53	21.3318
1204.63	23.9682
1205.73	24.6945
1206.83	23.2654
1207.93	26.5484
1209.02	25.6746
1210.12	21.6808
1211.22	24.1625
1212.32	23.4128
1213.42	25.1572
1214.52	25.1679
1215.61	25.4901
1216.71	24.7495
1217.81	21.637
1218.91	27.9707
1220	26.3448
1221.1	25.166
1222.2	23.7166
1223.29	23.2573
1224.39	24.733
1225.49	26.5182
1226.58	25.6145
1227.68	27.4401
1228.77	25.1077
1229.87	25.4303
1230.96	24.1502
1232.06	26.29
1233.15	25.3599
1234.25	25.5725
1235.34	27.4786
1236.44	23.1033
1237.53	25.5413
1238.63	23.3856
1239.72	24.4163
1240.81	24.9392
1241.91	23.4712
1243	25.3709
1244.09	23.5224
1245.19	22.2886
1246.28	21.2173
1247.37	24.4415
1248.46	24.2141
1249.56	26.457
1250.65	26.25
1251.74	26.5242
1252.83	24.7504
1253.92	24.8477
1255.01	23.2727
1256.11	25.5072
1257.2	25.8252
1258.29	26.4467
1259.38	25.3271
1260.47	29.367
1261.56	28.153
1262.65	25.0835
1263.74	26.6469
1264.83	26.2843
1265.92	27.2765
1267.01	24.9601
1268.1	23.5733
1269.19	29.8805
1270.27	26.1382
1271.36	25.1367
1272.45	25.0388
1273.54	24.8519
1274.63	23.568
1275.72	25.1383
1276.8	24.3949
1277.89	22.4854
1278.98	24.0461
1280.07	26.9525
1281.15	22.0717
1282.24	23.949
1283.33	21.7974
1284.41	23.2649
1285.5	22.9053
1286.59	25.2776
1287.67	29.7279
1288.76	24.9329
1289.84	26.7924
1290.93	25.2424
1292.01	22.2847
1293.1	24.7042
1294.19	22.718
1295.27	23.7744
1296.35	26.1923
1297.44	23.0987
1298.52	23.7192
1299.61	24.4638
1300.69	26.7979
1301.78	25.1382
1302.86	25.8964
1303.94	25.3013
1305.03	26.4645
1306.11	26.9854
1306.4	27
1307.49	27
1308.57	20
1309.66	25.5
1310.75	22
1311.84	21.5
1312.92	24
1314.01	24.5
1315.1	24.5
1316.19	25.5
1317.27	26.5
1318.36	23.5
1319.45	23.5
1320.53	25
1321.62	19.5
1322.7	27
1323.79	20.5
1324.88	27
1325.96	26
1327.05	26.5
1328.13	22
1329.21	23
1330.3	30
1331.38	24.5
1332.47	24
1333.55	26
1334.64	24.5
1335.72	26
1336.8	23.5
1337.89	27
1338.97	25
1340.05	27.5
1341.14	25.5
1342.22	26
1343.3	26
1344.39	23
1345.47	23.5
1346.55	26
1347.63	26
1348.71	20.5
1349.79	26
1350.88	22
1351.96	23
1353.04	26
1354.12	25.5
1355.2	25
1356.28	26.5
1357.36	26
1358.44	25
1359.52	27
1360.6	25.5
1361.68	24.5
1362.76	24
1363.84	23
1364.92	25
1366	21
1367.08	24.5
1368.16	27
1369.23	24.5
1370.31	22
1371.39	25
1372.47	23.5
1373.55	26
1374.62	26.5
1375.7	29
1376.78	25
1377.85	26.5
1378.93	27.5
1380.01	28
1381.09	25
1382.16	21.5
1383.24	23.5
1384.31	25
1385.39	25
1386.47	27
1387.54	27
1388.62	29
1389.69	26.5
1390.77	22.5
1391.84	25.5
1392.92	26.5
1393.99	28.5
1395.06	25
1396.14	27
1397.21	28
1398.29	29.5
1399.36	30.5
1400.43	27
1401.51	29
1402.58	29.5
1403.65	33.5
1404.73	27
1405.8	28.5
1406.87	29.5
1407.94	25.5
1409.02	29
1410.09	32
1411.16	31
1412.23	32.5
1413.3	33
1414.37	31
1415.45	28.5
1416.52	35.5
1417.59	32.5
1418.66	31
1419.73	30.5
1420.8	25.5
1421.87	28
1422.94	25.5
1424.01	25.5
1425.08	31
1426.15	29
1427.22	27.5
1428.29	26.5
1429.35	28
1430.42	27
1431.49	25.5
1432.56	24.5
1433.63	28.5
1434.7	26
1435.77	26
1436.83	24
1437.9	26
1438.97	27
1440.04	27
1441.1	28
1442.17	24.5
1443.24	26.5
1444.3	28
1445.37	26
1446.44	23
1447.5	27.5
1448.57	27
1449.63	25
1450.7	21
1451.76	29.5
1452.83	28
1453.89	21
1454.96	26.5
1456.02	26.5
1457.09	28
1458.15	28.5
1459.22	23.5
1460.28	23.5
1461.34	27
1462.41	20.5
1463.47	27.5
1464.54	24.5
1465.6	27.5
1466.66	27
1467.72	27.5
1468.79	28
1469.85	26.5
1470.91	27.5
1471.97	26
1473.04	28
1474.1	23
1475.16	23
1476.22	22.5
1477.28	25.5
1478.34	26.5
1479.4	25
1480.47	28
1481.53	27
1482.59	23.5
1483.65	28
1484.71	26
1485.77	25
1486.83	26
1487.89	28.5
1488.95	24.5
1490.01	28.5
1491.07	26
1492.12	26.5
1493.18	30
1494.24	25.5
1495.3	25
1496.36	28
1497.42	25
1498.47	25.5
1499.53	24
1500.59	28.5
1501.65	27
1502.7	21
1503.76	26
1504.82	26
1505.88	24
1506.93	28.5
1507.99	24.5
1509.05	28
1510.1	26
1511.16	24
1512.21	26.5
1513.27	29
1514.32	23.5
1515.38	27
1516.43	26.5
1517.49	24.5
1518.54	26
1519.6	28
1520.65	25.5
1521.71	25.5
1522.76	25
1523.82	26
1524.87	28
1525.92	29
1526.98	25
1528.03	24.5
1529.08	22
1530.14	26
1531.19	27.5
1532.24	28
1533.3	28.5
1534.35	28.5
1535.4	25.5
1536.45	24.5
1537.5	29.5
1538.56	31.5
1539.61	25.5
1540.66	26.5
1541.71	25
1542.76	22
1543.81	25.5
1544.86	25
1545.91	23
1546.96	25
1548.01	25
1549.06	25.5
1550.11	28
1551.16	25
1552.21	26
1553.26	26
1554.31	26
1555.36	23.5
1556.41	27
1557.46	26
1558.51	27
1559.55	25
1560.6	26.5
1561.65	30
1562.7	22
1563.75	24.5
1564.79	27.5
1565.84	27.5
1566.89	24
1567.94	29.5
1568.98	23
1570.03	26
1571.07	25
1572.12	26.5
1573.17	28
1574.21	25
1575.26	26.5
1576.31	23
1577.35	27
1578.4	27.5
1579.44	28
1580.49	29
1581.53	27.5
1582.58	28
1583.62	25
1584.67	27
1585.71	27
1586.75	27
1587.8	27.5
1588.84	24
1589.89	27
1590.93	24
1591.97	26
1593.02	26
1594.06	25
1595.1	24.5
1596.14	26
1597.19	28
1598.23	26.5
1599.27	25
1600.31	24
1601.35	26.5
1602.4	26.5
1603.44	26
1604.48	25
1605.52	30
1606.56	27.5
1607.6	26.5
1608.64	27
1609.68	26.5
1610.72	25
1611.76	23
1612.8	26
1613.84	30.5
1614.88	18
1615.92	23.5
1616.96	25
1618	29.5
1619.04	27.5
1620.08	26
1621.12	25.5
1622.16	25.5
1623.19	27.5
1624.23	26.5
1625.27	24
1626.31	23.5
1627.35	24.5
1628.38	29.5
1629.42	27
1630.46	26
1631.5	26.5
1632.53	24.5
1633.57	28
1634.61	26.5
1635.64	29.5
1636.68	27.5
1637.71	22.5
1638.75	23
1639.79	24.5
1640.82	25.5
1641.86	25.5
1642.89	25.5
1643.93	29
1644.96	25
1646	28.5
1647.03	26.5
1648.07	24.5
1649.1	24.5
1650.14	27.5
1651.17	24
1652.2	25.5
1653.24	25
1654.27	26.5
1655.3	26
1656.34	28.5
1657.37	26
1658.4	22
1659.44	21
1660.47	26
1661.5	27.5
1662.53	28
1663.57	23
1664.6	29.5
1665.63	23.5
1666.66	25.5
1667.69	20
1668.72	25.5
1669.75	23
1670.79	26
1671.82	27
1672.85	26.5
1673.88	27
1674.91	27
1675.94	29.5
1676.97	25.5
1678	25.5
1679.03	24.5
1680.06	26.5
1681.09	21
1682.11	28
1683.14	25
1684.17	29.5
1685.2	25
1686.23	27.5
1687.26	28.5
1688.29	27.5
1689.32	24
1690.34	24
1691.37	23
1692.4	30.5
1693.43	27.5
1694.45	26.5
1695.48	25.5
1696.51	23
1697.53	27.5
1698.56	25
1699.59	25.5
1700.61	19
1701.64	28.5
1702.66	26
1703.69	27.5
1704.72	25
1705.74	26.5
1706.77	25
1707.79	25.5
1708.82	27.5
1709.84	25.5
1710.87	26
1711.89	26.5
1712.92	22.5
1713.94	21
1714.96	30.5
1715.99	25
1717.01	25.5
1718.04	30.5
1719.06	20.5
1720.08	22.5
1721.11	20
1722.13	25
1723.15	30
1724.17	27
1725.2	28
1726.22	24.5
1727.24	27.5
1728.26	24.5
1729.28	21
1730.31	28
1731.33	27.5
1732.35	26
1733.37	25
1734.39	27
1735.41	24.5
1736.43	26
1737.45	25
1738.47	26.5
1739.49	26.5
1740.51	25
1741.53	25.5
1742.55	29.5
1743.57	26.5
1744.59	23.5
1745.61	25
1746.63	24
1747.65	24.5
1748.67	27
1749.69	23.5
1750.71	30.5
1751.72	27
1752.74	24
1753.76	27.5
1754.78	24.5
1755.8	23
1756.81	26.5
1757.83	23
1758.85	24
1759.86	24.5
1760.88	27
1761.9	26
1762.91	25.5
1763.93	24.5
1764.95	30
1765.96	27
1766.98	25
1768	24.5
1769.01	26.5
1770.03	28
1771.04	24.5
1772.06	27.5
1773.07	25
1774.09	27
1775.1	29
1776.12	27.5
1777.13	25.5
1778.14	28
1779.16	26.5
1780.17	24
1781.19	23.5
1782.2	29.5
1783.21	26
1784.23	25
1785.24	23
1786.25	28.5
1787.27	24
1788.28	28
1789.29	24.5
1790.3	27
1791.32	22.5
1792.33	28
1793.34	26.5
1794.35	26
1795.36	23.5
1796.37	28
1797.38	29
1798.4	26
1799.41	23.5
1800.42	20
1801.43	22.5
1802.44	27.5
1803.45	23.5
1804.46	25
1805.47	26.5
1806.48	28.5
1807.49	26
1808.5	24.5
1809.51	26
1810.52	28
1811.53	25
1812.53	24
1813.54	28.5
1814.55	26
1815.56	26.5
1816.57	28
1817.58	23.5
1818.58	21
1819.59	25.5
1820.6	27
1821.61	29.5
1822.61	25
1823.62	27
1824.63	27
1825.64	24.5
1826.64	26
1827.65	20
1828.66	25
1829.66	23
1830.67	26.5
1831.67	24.5
1832.68	26
1833.68	25
1834.69	24.5
1835.7	24.5
1836.7	27.5
1837.71	26.5
1838.71	27
1839.71	24
1840.72	29.5
1841.72	27
1842.73	22
1843.73	26
1844.74	26
1845.74	28
1846.74	24.5
1847.75	28.5
1848.75	22
1849.75	28
1850.76	29
1851.76	23
1852.76	26
1853.76	25
1854.77	25.5
1855.77	28
1856.77	24.5
1857.77	23.5
1858.77	25.5
1859.78	24.5
1860.78	25
1861.78	25
1862.78	25
1863.78	25
1864.78	25.5
1865.78	22.5
1866.78	27.5
1867.78	28
1868.78	23
1869.78	25.5
1870.78	26
1871.78	22.5
1872.78	25
1873.78	27
1874.78	23
1875.78	23.5
1876.78	26.5
1877.78	23
1878.78	26.5
1879.77	24
1880.77	25.5
1881.77	27
1882.77	24.5
1883.77	31
1884.76	26.5
1885.76	21.5
1886.76	21
1887.76	28
1888.75	27
1889.75	26.5
1890.75	24
1891.74	25.5
1892.74	25.5
1893.74	22.5
1894.73	24.5
1895.73	24
1896.72	26
1897.72	23.5
1898.72	22
1899.71	25.5
1900.71	23.5
1901.7	24
1902.7	29.5
1903.69	25.5
1904.69	24.5
1905.68	26.5
1906.67	24.5
1907.67	29
1908.66	26
1909.66	24
1910.65	23.5
1911.64	24.5
1912.64	26
1913.63	23.5
1914.62	26.5
1915.62	28
1916.61	24
1917.6	24
1918.59	20
1919.59	25.5
1920.58	23
1921.57	25
1922.56	29.5
1923.55	23.5
1924.55	24.5
1925.54	25
1926.53	28
1927.52	27
1928.51	25
1929.5	26
1930.49	22.5
1931.48	22
1932.47	27
1933.46	25.5
1934.45	25
1935.44	25.5
1936.43	27
1937.42	24
1938.41	25
1939.4	25
1940.39	22.5
1941.38	23
1942.37	22.5
1943.36	24
1944.34	29.5
1945.33	26.5
1946.32	24
1947.31	22.5
1948.3	25.25
1949.28	27
1950.27	26
1951.26	24.5
1952.25	24.5
1953.23	23.5
1954.22	25.5
1955.21	27.5
1956.2	27.5
1957.18	27
1958.17	28.5
1959.15	22.5
1960.14	25.5
1961.13	26
1962.11	23
1963.1	24
1964.08	22.5
1965.07	21.5
1966.05	27.5
1967.04	24
1968.02	26.5
1969.01	22.5
1969.99	23.5
1970.98	24
1971.96	27
1972.94	25.5
1973.93	27
1974.91	24
1975.9	24.5
1976.88	25
1977.86	23.5
1978.85	24
1979.83	24
1980.81	25.5
1981.8	29
1982.78	23
1983.76	22.5
1984.74	23.5
1985.72	25.5
1986.71	24
1987.69	25
1988.67	23.5
1989.65	23
1990.63	23
1991.61	21
1992.6	23.5
1993.58	23.5
1994.56	23.5
1995.54	22.5
1996.52	22.5
1997.5	24.5
1998.48	29
1999.46	24.5
2000.44	28.5
2001.42	21.5
2002.4	27.5
2003.38	25
2004.36	27
2005.34	25.5
2006.32	25.5
2007.29	28
2008.27	26
2009.25	22
2010.23	23.5
2011.21	23.5
2012.19	25.5
2013.16	23.5
2014.14	26.5
2015.12	22
2016.1	22.5
2017.07	22
2018.05	24
2019.03	20.5
2020	28.5
2020.98	25
2021.96	23
2022.93	24.5
2023.91	27.5
2024.89	26
2025.86	22.5
2026.84	27
2027.81	26
2028.79	26.5
2029.77	27
2030.74	22
2031.72	25
2032.69	23.5
2033.67	22
2034.64	25.5
2035.61	21
2036.59	25.5
2037.56	20
2038.54	25
2039.51	25
2040.48	26.5
2041.46	20.5
2042.43	24
2043.41	25
2044.38	23
2045.35	25.5
2046.32	26.5
2047.3	22.5
2048.27	24.5
2049.24	23
2050.21	25
2051.19	23
2052.16	25
2053.13	23
2054.1	24.5
2055.07	29
2056.04	25
2057.02	26
2057.99	24
2058.96	23
2059.93	26
2060.9	27.5
2061.87	26
2062.84	24.5
2063.81	22
2064.78	25
2065.75	20
2066.72	27.5
2067.69	28
2068.66	23.5
2069.63	25.5
2070.6	25
2071.57	22
2072.53	23
2073.5	24
2074.47	25
2075.44	23.5
2076.41	26
2077.38	22
2078.34	24
2079.31	22.5
2080.28	22
2081.25	25
2082.21	25
2083.18	26.5
2084.15	22.5
2085.12	18.5
2086.08	25.5
2087.05	19.5
2088.02	24
2088.98	25
2089.95	28
2090.91	21.5
2091.88	24
2092.85	23
2093.81	21
2094.78	25
2095.74	22.5
2096.71	22.5
2097.67	24.5
2098.64	22
2099.6	27
2100.57	24
2101.53	26.5
2102.5	24
2103.46	26
2104.42	27
2105.39	20
2106.35	25
2107.31	20.5
2108.28	21.5
2109.24	24
2110.2	24
2111.17	23
2112.13	26.5
2113.09	26.5
2114.06	22.5
2115.02	21.5
2115.98	28
2116.94	21
2117.9	24.5
2118.86	22.5
2119.83	26
2120.79	25
2121.75	25
2122.71	22
2123.67	24.5
2124.63	22
2125.59	26.5
2126.55	23
2127.51	25.5
2128.48	21.5
2129.43	26.5
2130.4	24
2131.35	27
2132.31	22
2133.27	23.5
2134.23	25
2135.19	21
2136.15	25
2137.11	23
2138.07	25
2139.03	23
2139.99	27
2140.95	22.5
2141.9	21.5
2142.86	20.4893
2143.82	22.9548
2144.78	23.0041
2145.74	24.5656
2146.69	24.5755
2147.65	27.178
2148.61	23.6415
2149.56	26.5559
2150.52	23.3546
2151.48	22.3735
2152.44	22.9504
2153.39	23.5293
2154.35	22.1765
2155.3	22.2933
2156.26	22.3732
2157.22	23.0752
2158.17	21.7135
2159.13	20.5554
2160.08	23.9939
2161.04	21.7748
2161.99	24.5243
2162.95	24.1469
2163.9	22.3277
2164.86	25.7298
2165.81	21.2273
2166.77	22.1409
2167.72	24.2175
2168.68	25.6774
2169.63	21.29
2170.58	24.3625
2171.54	23.9103
2172.49	21.1263
2173.44	23.3349
2174.4	23.219
2175.35	25.5391
2176.3	23.7134
2177.26	27.1052
2178.21	22.1607
2179.16	24.1917
2180.11	24.5064
2181.07	23.5277
2182.02	22.31
2182.97	23.8684
2183.92	22.2877
2184.88	24.0937
2185.83	24.4585
2186.78	23.4358
2187.73	20.568
2188.68	23.6637
2189.63	21.5726
2190.58	24.7833
2191.53	22.8062
2192.48	23.4277
2193.43	22.0382
2194.38	25.2445
2195.33	21.2828
2196.28	22.6894
2197.23	21.4811
2198.18	24.6225
2199.13	22.9918
2200.08	18.5902
2201.03	22.5938
2201.98	24.6885
2202.93	21.2688
2203.88	23.906
2204.83	22.9535
2205.78	25.2087
2206.72	24.7375
2207.67	23.3301
2208.62	20.9332
2209.57	22.2977
2210.52	22.8682
2211.46	21.0636
2212.41	21.1249
2213.36	23.8461
2214.31	21.6113
2215.25	24.6033
2216.2	21.6718
2217.15	22.3227
2218.09	23.1524
2219.04	23.9186
2219.99	23.1256
2220.93	23.4436
2221.88	20.9316
2222.83	21.6675
2223.77	24.4076
2224.72	23.0901
2225.66	23.9443
2226.61	23.6803
2227.55	24.065
2228.5	25.4283
2229.44	24.5068
2230.39	20.8782
2231.33	23.1456
2232.28	23.2856
2233.22	21.4472
2234.17	23.7568
2235.11	25.2115
2236.05	24.9853
2237	20.033
2237.94	22.1087
2238.88	23.4163
2239.83	21.5375
2240.04	21
2240.98	22
2241.93	26.5
2242.88	21
2243.83	20.5
2244.78	25.5
2245.72	24
2246.67	23
2247.62	24
2248.56	22.5
2249.51	24
2250.46	22.5
2251.4	22.5
2252.35	24
2253.3	21.5
2254.24	25
2255.19	23
2256.14	26
2257.08	22
2258.03	26
2258.97	24
2259.92	24
2260.86	22
2261.81	23.5
2262.75	20.5
2263.7	25.5
2264.64	23
2265.59	25
2266.53	24.5
2267.48	24.5
2268.42	26
2269.36	24.5
2270.31	25.5
2271.25	26.5
2272.19	24
2273.14	25.5
2274.08	26
2275.02	24
2275.97	24.5
2276.91	19
2277.85	21
2278.8	24.5
2279.74	21.5
2280.68	22
2281.62	26.5
2282.56	22
2283.51	20
2284.45	24
2285.39	20
2286.33	25
2287.27	24
2288.21	26.5
2289.15	20
2290.09	22.5
2291.04	22
2291.98	23
2292.92	26
2293.86	21.5
2294.8	21
2295.74	22.5
2296.68	24.5
2297.62	22.5
2298.56	23.5
2299.5	22
2300.44	26
2301.37	23
2302.31	23.5
2303.25	26
2304.19	19.5
2305.13	24.5
2306.07	24.5
2307.01	24.5
2307.94	24
2308.88	25
2309.82	23.5
2310.76	25.5
2311.7	25.5
2312.63	26.5
2313.57	23
2314.51	22
2315.44	24.5
2316.38	23
2317.32	23
2318.26	23.5
2319.19	22.5
2320.13	26.5
2321.06	24
2322	21
2322.94	24.5
2323.87	24
2324.81	18.5
2325.74	23
2326.68	24
2327.61	23
2328.55	27
2329.48	23.5
2330.42	23.5
2331.35	26
2332.29	25
2333.22	21.5
2334.16	25.5
2335.09	24
2336.02	21
2336.96	23.5
2337.89	22.5
2338.83	23
2339.76	25.5
2340.69	25
2341.63	23
2342.56	22
2343.49	25
2344.42	24
2345.36	20.5
2346.29	23
2347.22	25
2348.15	20
2349.09	23.5
2350.02	23
2350.95	24
2351.88	24.5
2352.81	25.5
2353.74	26
2354.68	24.5
2355.61	21.5
2356.54	24
2357.47	27.5
2358.4	25.5
2359.33	24
2360.26	19.5
2361.19	23
2362.12	24
2363.05	26
2363.98	28
2364.91	26.5
2365.84	26
2366.77	27
2367.7	23
2368.63	21.5
2369.56	24.5
2370.49	22.5
2371.41	23
2372.34	23.5
2373.27	24
2374.2	22
2375.13	26.5
2376.06	25
2376.98	25
2377.91	27
2378.84	22.5
2379.77	24
2380.69	21
2381.62	24
2382.55	23
2383.47	26.5
2384.4	26.5
2385.33	22
2386.25	21.5
2387.18	26
2388.11	23.5
2389.03	25
2389.96	23.5
2390.89	22
2391.81	24.5
2392.74	24
2393.66	21.5
2394.59	25.5
2395.51	22
2396.44	28
2397.36	22
2398.29	27
2399.21	23
2400.14	24.5
2401.06	21
2401.99	22.5
2402.91	24
2403.83	26.5
2404.76	22
2405.68	26
2406.6	24
2407.53	24
2408.45	26
2409.37	21
2410.3	23
2411.22	25
2412.14	26.5
2413.06	23.5
2413.99	25
2414.91	25.5
2415.83	22.5
2416.75	23.5
2417.68	27
2418.6	25
2419.52	20.5
2420.44	19
2421.36	23.5
2422.28	23
2423.2	28.5
2424.12	23
2425.05	23.5
2425.97	25
2426.89	25.5
2427.81	26
2428.73	25
2429.65	24.5
2430.57	25.5
2431.49	24.5
2432.41	20.5
2433.33	22.5
2434.25	25.5
2435.17	23.5
2436.08	25
2437	30
2437.92	25
2438.84	19.5
2439.76	23.5
2440.68	24.5
2441.6	25.5
2442.51	22.5
2443.43	23
2444.35	24.5
2445.27	22
2446.19	26
2447.1	25
2448.02	27
2448.94	26
2449.85	24
2450.77	21
2451.69	21.5
2452.61	24.5
2453.52	27.5
2454.44	25.5
2455.35	27
2456.27	25
2457.19	22.5
2458.1	26
2459.02	24.5
2459.94	25.5
2460.85	25.5
2461.77	22.5
2462.68	27
2463.6	25
2464.51	26
2465.43	24.5
2466.34	24
2467.25	25
2468.17	28.5
2469.08	23
2470	24.5
2470.91	24
2471.83	26
2472.74	26
2473.65	26
2474.57	27.5
2475.48	23
2476.39	22.5
2477.31	21.5
2478.22	24
2479.13	27
2480.04	26
2480.96	24.5
2481.87	26
2482.78	26
2483.69	28.5
2484.6	23.5
2485.52	28
2486.43	22
2487.34	25.5
2488.25	26.5
2489.16	28
2490.07	24
2490.99	22
2491.9	25
2492.81	26
2493.72	24.5
2494.63	23.5
2495.54	23.5
2496.45	22
2497.36	25
2498.27	24
2499.18	21.5
2500.09	24
2501	26.5
2501.91	23.5
2502.82	26
2503.73	28.5
2504.63	22.5
2505.54	24
2506.45	24.5
2507.36	26.5
2508.27	26.5
2509.18	27
2510.09	25
2510.99	23
2511.9	26.5
2512.81	24
2513.72	25.5
2514.62	24
2515.53	23
2516.44	25
2517.35	24
2518.25	25.5
2519.16	26
2520.07	27.5
2520.97	24
2521.88	27.5
2522.79	25.5
2523.69	24
2524.6	23
2525.51	22
2526.41	28
2527.32	23.5
2528.22	28
2529.13	25
2530.03	24
2530.94	26
2531.84	26
2532.75	23.5
2533.65	28
2534.56	24.5
2535.46	24
2536.37	24
2537.27	22
2538.17	26
2539.08	24
2539.98	26.5
2540.89	23
2541.79	25
2542.69	23
2543.6	22
2544.5	22
2545.4	24
2546.31	23
2547.21	23.5
2548.11	26
2549.01	22
2549.92	26
2550.82	26
2551.72	21
2552.62	24.5
2553.52	23.5
2554.42	21.5
2555.33	24
2556.23	23
2557.13	23
2558.03	22
2558.93	24.5
2559.83	24.5
2560.73	25.5
2561.63	21.5
2562.53	23
2563.43	22
2564.33	24.5
2565.24	27.5
2566.13	25.5
2567.04	22.5
2567.93	26
2568.83	24.5
2569.73	23.5
2570.63	24.5
2571.53	25.5
2572.43	25.5
2573.33	28
2574.23	25
2575.13	22
2576.03	24
2576.92	24.5
2577.82	21
2578.72	23
2579.62	24
2580.52	25
2581.41	24.5
2582.31	28
2583.21	26.5
2584.11	20.5
2585	23
2585.9	24.5
2586.8	25
2587.69	23
2588.59	20
2589.49	21
2590.38	24
2591.28	22
2592.18	24
2593.07	27
2593.97	22.5
2594.86	24
2595.76	22.5
2596.66	27.5
2597.55	22.5
2598.45	23.5
2599.34	23
2600.24	24
2601.13	27
2602.03	24
2602.92	27
2603.81	24
2604.71	24.5
2605.6	24
2606.5	23
2607.39	26
2608.28	28.5
2609.18	25.5
2610.07	25
2610.97	26
2611.86	28
2612.75	24.5
2613.64	25
2614.54	21
2615.43	24.5
2616.32	20
2617.22	24.5
2618.11	25.5
2619	23
2619.89	22
2620.78	25.5
2621.68	26
2622.57	28.5
2623.46	23.5
2624.35	26
2625.24	24
2626.13	27
2627.02	19.5
2627.91	21.5
2628.81	28.5
2629.7	23.5
2630.59	26
2631.48	25
2632.37	27
2633.26	23
2634.15	21.5
2635.04	25.5
2635.93	25.5
2636.82	25.5
2637.71	19.5
2638.59	25.5
2639.48	24
2640.37	23.5
2641.26	25
2642.15	22
2643.04	26.5
2643.93	24.5
2644.82	21.5
2645.71	26.5
2646.59	25
2647.48	24
2648.37	24.5
2649.26	22
2650.15	22.5
2651.03	24.5
2651.92	28
2652.81	23.5
2653.69	25
2654.58	26.5
2655.47	24.5
2656.35	22
2657.24	21
2658.13	24.5
2659.01	24
2659.9	25.5
2660.79	24.5
2661.67	26
2662.56	25.5
2663.44	25.5
2664.33	23.5
2665.22	27.5
2666.1	26
2666.99	26
2667.87	23
2668.76	25
2669.64	25
2670.52	20.5
2671.41	24.5
2672.29	28.5
2673.18	26
2674.06	24.5
2674.95	28.5
2675.83	18
2676.71	24.5
2677.6	27
2678.48	23.5
2679.36	23.5
2680.25	27
2681.13	26
2682.01	25.5
2682.9	24.5
2683.78	26
2684.66	27
2685.55	25.5
2686.43	24.5
2687.31	25
2688.19	25.5
2689.07	24.5
2689.96	26.5
2690.84	24
2691.72	23
2692.6	28
2693.48	26
2694.36	25
2695.24	24.5
2696.12	24.5
2697	20
2697.89	25.5
2698.77	23
2699.65	25
2700.53	24
2701.41	21.5
2702.29	22
2703.17	27.5
2704.05	18.5
2704.93	21
2705.81	26.5
2706.69	23
2707.57	27.5
2708.44	24.5
2709.32	23
2710.2	26
2711.08	22.5
2711.96	25
2712.84	26.5
2713.72	27.5
2714.59	22
2715.47	27
2716.35	29
2717.23	27.5
2718.11	24
2718.98	32
2719.86	24
2720.74	22.5
2721.62	26.5
2722.49	24.5
2723.37	26.5
2724.25	25.5
2725.12	21.5
2726	23
2726.88	23
2727.75	21.5
2728.63	23
2729.51	26
2730.38	21
2731.26	23.5
2732.13	26.5
2733.01	25
2733.88	23.5
2734.76	24
2735.63	24
2736.51	23
2737.38	25.5
2738.26	23.5
2739.13	24.5
2740.01	19.5
2740.88	27.5
2741.76	23
2742.63	27
2743.5	24.5
2744.38	27.5
2745.25	25
2746.13	28.5
2747	30
2747.87	24.5
2748.75	24.5
2749.62	24
2750.49	25
2751.36	26
2752.24	26
2753.11	16
2753.98	26
2754.86	27
2755.73	24.5
2756.6	26.5
2757.47	26
2758.34	24
2759.22	26
2760.09	23.5
2760.96	27
2761.83	23
2762.7	23.5
2763.57	25.5
2764.44	24
2765.31	26
2766.18	27
2767.06	23.5
2767.93	26
2768.8	25
2769.67	23.5
2770.54	28
2771.41	22
2772.28	26
2773.15	23
2774.02	22
2774.89	23
2775.75	24
2776.62	27
2777.49	27
2778.36	25
2779.23	26
2780.1	24.5
2780.97	25
2781.84	27
2782.71	28.5
2783.57	26
2784.44	25
2785.31	29
2786.18	26.5
2787.04	25
2787.91	26
2788.78	25.5
2789.65	24.5
2790.51	28.5
2791.38	25
2792.25	27
2793.12	27
2793.98	27
2794.85	26
2795.72	24.5
2796.58	26.5
2797.45	30
2798.31	26
2799.18	27.5
2800.05	23
2800.91	25
2801.78	27
2802.64	27
2803.51	28.5
2804.37	23.5
2805.24	30
2806.1	28
2806.97	22.5
2807.83	26.5
2808.7	29
2809.56	30
2810.43	24
2811.29	27
2812.15	24
2813.02	25
2813.88	28.5
2814.75	23
2815.61	26
2816.47	27.5
2817.34	28
2818.2	26
2819.06	27
2819.92	26
2820.79	26
2821.65	25
2822.51	27.5
2823.37	22
2824.24	23.5
2825.1	22.5
2825.96	29
2826.82	23.5
2827.69	21
2828.55	29
2829.41	26
2830.27	26.5
2831.13	22.5
2831.99	25
2832.85	27.5
2833.71	27
2834.58	26
2835.44	27
2836.3	26
2837.16	24.5
2838.02	22
2838.88	26
2839.74	27.5
2840.6	24
2841.46	24
2842.32	28
2843.18	28.5
2844.04	26
2844.9	28.5
2845.75	23.5
2846.61	32.5
2847.47	25
2848.33	29
2849.19	26.5
2850.05	22.5
2850.91	26
2851.77	29.5
2852.62	25
2853.48	25
2854.34	25
2855.2	29
2856.06	24
2856.91	29
2857.77	27
2858.63	29
2859.48	25
2860.34	26.5
2861.2	25
2862.06	31
2862.91	29.5
2863.77	27.5
2864.63	24
2865.48	26.5
2866.34	27.5
2867.19	29
2868.05	28.5
2868.91	29.5
2869.76	27
2870.62	29
2871.47	30
2872.33	25.5
2873.18	25
2874.04	30.5
2874.89	29
2875.75	26
2876.6	31
2877.46	27
2878.31	30.5
2879.17	34
2880.02	34.5
2880.88	30
2881.73	29
2882.58	33
2883.44	34.5
2884.29	32.5
2885.14	32
2886	32.5
2886.85	32.5
2887.7	31
2888.56	34
2889.41	39.5
2890.26	36.5
2891.12	38
2891.97	38
2892.82	43
2893.67	43
2894.52	45
2895.38	49.5
2896.23	51
2897.08	49.5
2897.93	55.5
2898.78	59.5
2899.64	62
2900.49	55
2901.34	62.5
2902.19	62.5
2903.04	58.5
2903.89	66
2904.74	62.5
2905.59	64
2906.44	71
2907.29	61
2908.14	68
2908.99	62.5
2909.84	62.5
2910.69	59.5
2911.54	59
2912.39	53
2913.24	51.5
2914.09	50
2914.94	49.5
2915.79	47
2916.64	45.5
2917.49	43
2918.34	39.5
2919.18	37
2920.03	36
2920.88	38.5
2921.73	39
2922.58	37
2923.42	34
2924.27	32.5
2925.12	29
2925.97	34.5
2926.82	29.5
2927.66	32.5
2928.51	28.5
2929.36	28
2930.2	32
2931.05	30.5
2931.9	28.5
2932.74	26
2933.59	28
2934.44	33
2935.28	28.5
2936.13	29
2936.98	28.5
2937.82	29
2938.67	25.5
2939.51	28
2940.36	26
2941.2	28
2942.05	30
2942.9	26.5
2943.74	32
2944.58	24
2945.43	25
2946.27	25
2947.12	31.5
2947.96	28.5
2948.81	35
2949.65	25
2950.5	32
2951.34	29
2952.18	29
2953.03	34
2953.87	32.5
2954.71	36
2955.56	27.5
2956.4	31.5
2957.24	35.5
2958.09	36
2958.93	39
2959.77	40
2960.62	41.5
2961.46	40
2962.3	40.5
2963.14	42
2963.98	39.5
2964.83	45
2965.67	42.5
2966.51	37
2967.35	45
2968.19	41.5
2969.04	42
2969.88	38
2970.72	41
2971.56	37.9903
2972.4	33.5004
2973.24	36.0266
2974.08	36.5233
2974.92	30.7487
2975.76	34.4513
2976.6	30.5065
2977.44	33.4184
2978.28	32.8051
2979.12	28.8036
2979.96	29.5131
2980.8	28.4108
2981.64	27.9006
2982.48	28.6435
2983.32	28.4109
2984.16	30.6158
2985	29.4379
2985.84	27.6788
2986.68	25.9937
2987.52	23.2423
2988.35	27.3583
2989.19	24.8003
2990.03	28.6891
2990.87	24.5615
2991.71	28.465
2992.55	19.7582
2993.38	23.3522
2994.22	23.4825
2995.06	25.2804
2995.9	28.0329
2996.73	25.42
2997.57	25.8878
2998.41	26.1041
2999.25	26.7308
3000.08	26.3515
3000.92	24.2435
3001.76	25.2884
3002.59	22.2307
3003.43	23.9009
3004.27	23.2921
3005.1	25.4567
3005.94	24.6299
3006.78	24.6318
3007.61	23.3447
3008.45	26.4357
3009.28	24.4879
3010.12	22.5485
3010.95	25.2257
3011.79	22.5414
3012.62	24.6951
3013.46	24.3528
3014.29	22.9337
3015.13	24.1193
3015.96	22.3132
3016.8	23.7847
3017.63	21.4329
3018.47	21.9474
3019.3	22.5158
3020.14	23.0055
3020.97	21.7577
3021.8	22.962
3022.64	23.8555
3023.47	23.8326
3024.3	21.5752
3025.14	23.3961
3025.97	23.8102
3026.8	22.2771
3027.64	23.1906
3028.47	22.3087
3029.3	22.3879
3030.14	23.0671
3030.97	24.2284
3031.8	23.5472
3032.63	23.5142
3033.46	23.4276
3034.3	24.1055
3035.13	24.2706
3035.96	22.8365
3036.79	20.8851
3037.62	20.1132
3038.46	21.6468
3039.29	23.133
3040.12	22.5971
3040.95	23.0413
3041.78	22.4212
3042.61	24.1891
3043.44	23.1047
3044.27	22.394
3045.1	23.846
3045.93	24.8655
3046.76	24.8674
3047.59	26.029
3048.42	24.6407
3049.25	23.3379
3050.08	22.6907
3050.91	24.9243
3051.74	27.2143
3052.57	24.2684
3053.4	22.7466
3054.23	24.28
3055.06	25.0806
3055.89	21.6128
3056.72	21.4931
3057.32	24
3058.15	21
3058.98	24
3059.82	22.5
3060.65	23
3061.48	19
3062.31	23
3063.15	25.5
3063.98	20
3064.81	21.5
3065.64	23
3066.48	22.5
3067.31	21
3068.14	24
3068.97	25
3069.8	23
3070.63	20.5
3071.47	24
3072.3	24.5
3073.13	21
3073.96	25
3074.79	26.5
3075.62	21
3076.45	26.5
3077.28	22
3078.11	23.5
3078.94	24
3079.77	25
3080.6	24
3081.43	21.5
3082.26	25
3083.09	28
3083.92	22.5
3084.75	24.5
3085.58	27
3086.41	25.5
3087.24	21.5
3088.07	23
3088.9	24.5
3089.73	25
3090.55	25
3091.38	24
3092.21	21.5
3093.04	25.5
3093.87	26
3094.7	21
3095.52	23
3096.35	22.5
3097.18	28.5
3098.01	23.5
3098.84	26
3099.66	23
3100.49	23
3101.32	23
3102.14	25.5
3102.97	22.5
3103.8	21.5
3104.62	25.5
3105.45	21.5
3106.28	25.5
3107.1	25
3107.93	23.5
3108.76	24
3109.58	25
3110.41	25
3111.23	25.5
3112.06	27.5
3112.89	19
3113.71	25
3114.54	23.5
3115.36	23
3116.19	20.5
3117.01	24
3117.84	25.5
3118.66	24
3119.49	28.5
3120.31	28
3121.13	24
3121.96	18
3122.78	24
3123.61	22.5
3124.43	24.5
3125.25	25
3126.08	25.5
3126.9	23
3127.73	23
3128.55	23
3129.37	22
3130.19	23
3131.02	25.5
3131.84	24.5
3132.66	22.5
3133.49	22.5
3134.31	27
3135.13	25.5
3135.95	24
3136.78	26
3137.6	24.5
3138.42	20
3139.24	25
3140.06	23.5
3140.88	24
3141.71	23.5
3142.53	28
3143.35	24
3144.17	21
3144.99	26.5
3145.81	26.5
3146.63	27
3147.45	24
3148.27	26.5
3149.09	21
3149.91	22.5
3150.73	23.5
3151.56	24
3152.37	23.5
3153.2	23.5
3154.01	23
3154.83	26
3155.65	24
3156.47	24
3157.29	24
3158.11	27.5
3158.93	20.5
3159.75	21
3160.57	18.5
3161.39	22
3162.21	25
3163.02	25
3163.84	19
3164.66	25
3165.48	29
3166.3	27.5
3167.11	24
3167.93	19.5
3168.75	26.5
3169.57	17.5
3170.39	21
3171.2	27
3172.02	23
3172.84	25
3173.65	23
3174.47	19
3175.29	23
3176.1	23.5
3176.92	23
3177.74	26
3178.55	21
3179.37	24.5
3180.19	26
3181	23
3181.82	24
3182.63	23
3183.45	24
3184.27	23.5
3185.08	25.5
3185.9	24
3186.71	22
3187.53	22
3188.34	23.5
3189.16	23.5
3189.97	20
3190.79	24
3191.6	20.5
3192.41	23
3193.23	23.5
3194.04	22.5
3194.86	24.5
3195.67	26.5
3196.48	26
3197.3	25
3198.11	25
3198.93	23
3199.74	24.5
3200.55	23
3201.36	24
3202.18	26
3202.99	21.5
3203.8	21.5
3204.62	25.5
3205.43	20
3206.24	23.5
3207.05	20.5
3207.87	25
3208.68	25.5
3209.49	21
3210.3	23
3211.11	23
3211.93	23.5
3212.74	20
3213.55	25.5
3214.36	24.5
3215.17	20.5
3215.98	21
3216.79	23
3217.6	23
3218.41	26
3219.22	25
3220.03	23.5
3220.85	21.5
3221.66	24
3222.47	22.5
3223.28	25.5
3224.09	23.5
3224.9	20.5
3225.71	22.5
3226.52	23
3227.33	24
3228.13	26
3228.94	23
3229.75	23.5
3230.56	24.5
3231.37	23.5
3232.18	21.5
3232.99	25
3233.8	26
3234.61	20.5
3235.41	23.5
3236.22	22
3237.03	26
3237.84	23
3238.65	26
3239.45	23
3240.26	24
3241.07	22
3241.88	26
3242.68	22.5
3243.49	26.5
3244.3	23
3245.1	26
3245.91	22
3246.72	28.5
3247.53	24.5
3248.33	23.5
3249.14	24.5
3249.95	20.5
3250.75	21
3251.56	21
3252.36	27
3253.17	24
3253.97	26
3254.78	25.5
3255.59	26
3256.39	24
3257.2	23.5
3258	27
3258.81	23
3259.61	25.5
3260.42	24
3261.22	25
3262.03	23.5
3262.83	22.5
3263.64	25.5
3264.44	23.5
3265.24	25.5
3266.05	22
3266.85	28.5
3267.66	27
3268.46	26
3269.26	23
3270.07	25.5
3270.87	23
3271.67	27
3272.48	24
3273.28	25
3274.08	22
3274.89	22
3275.69	22.5
3276.49	24.5
3277.29	22
3278.1	22.5
3278.9	25
3279.7	24.5
3280.5	23.5
3281.3	24
3282.11	24
3282.91	24.5
3283.71	25.5
3284.51	26
3285.31	25.5
3286.11	19
3286.91	22.5
3287.72	24
3288.52	24
3289.32	26
3290.12	23.5
3290.92	22.5
3291.72	24.5
3292.52	23.5
3293.32	25
3294.12	27
3294.92	25
3295.72	25.5
3296.52	26
3297.32	18.5
3298.12	25
3298.92	24
3299.72	20.5
3300.52	19.5
3301.32	25
3302.12	23.5
3302.92	26.5
3303.71	24.5
3304.51	24
3305.31	26
3306.11	25.5
3306.91	26.5
3307.71	25
3308.5	23
3309.3	23.5
3310.1	25
3310.9	23.5
3311.7	25.5
3312.49	25
3313.29	23
3314.09	23.5
3314.89	25
3315.68	24
3316.48	23
3317.28	23
3318.07	23
3318.87	25
3319.67	23
3320.46	19
3321.26	20
3322.06	25.5
3322.85	27.5
3323.65	25
3324.44	24.5
3325.24	19
3326.04	25
3326.83	26
3327.63	26
3328.42	24
3329.22	25
3330.01	25.5
3330.81	26.5
3331.6	23.5
3332.4	25
3333.19	21
3333.99	27
3334.78	23
3335.58	23.5
3336.37	23.5
3337.17	21.5
3337.96	23.5
3338.75	24.5
3339.55	23
3340.34	27
3341.13	25.5
3341.93	23
3342.72	23
3343.51	24.5
3344.31	22
3345.1	26.5
3345.89	28
3346.69	26
3347.48	26
3348.27	26
3349.06	27.5
3349.86	26.5
3350.65	24
3351.44	24
3352.23	26
3353.03	22
3353.82	26
3354.61	23
3355.4	30
3356.19	23.5
3356.98	21.5
3357.78	26
3358.57	24.5
3359.36	24.5
3360.15	25
3360.94	21.5
3361.73	29
3362.52	25
3363.31	22.5
3364.1	19.5
3364.89	27
3365.68	22.5
3366.47	27.5
3367.26	26
3368.05	26.5
3368.84	25
3369.63	26.5
3370.42	25
3371.21	27
3372	25.5
3372.79	27
3373.58	23
3374.37	22
3375.16	24.5
3375.95	29.5
3376.73	22.5
3377.52	24
3378.31	24.5
3379.1	21.5
3379.89	27.5
3380.68	27.5
3381.46	23.5
3382.25	24
3383.04	28
3383.83	22.5
3384.62	24
3385.4	22
3386.19	24.5
3386.98	25.5
3387.76	25
3388.55	19.5
3389.34	23.5
3390.13	21
3390.91	24.5
3391.7	19
3392.49	24.5
3393.27	25
3394.06	25
3394.84	25
3395.63	27
3396.42	23
3397.2	25.5
3397.99	22.5
3398.77	23.5
3399.56	20
3400.34	25
3401.13	26
3401.92	24
3402.7	21.5
3403.49	27.5
3404.27	20.5
3405.06	27.5
3405.84	26
3406.62	20.5
3407.41	24.5
3408.19	25
3408.98	22
3409.76	26.5
3410.55	24
3411.33	24
3412.11	25
3412.9	25.5
3413.68	27
3414.46	25.5
3415.25	24
3416.03	24
3416.81	26
3417.6	22
3418.38	25
3419.16	25.5
3419.95	23
3420.73	23
3421.51	21.5
3422.29	27
3423.08	26.5
3423.86	21
3424.64	24.5
3425.42	23
3426.2	25.5
3426.98	24
3427.77	25
3428.55	24
3429.33	28
3430.11	26
3430.89	23.5
3431.67	23
3432.45	24
3433.24	28.5
3434.02	23.5
3434.8	21.5
3435.58	23.5
3436.36	25.5
3437.14	24.5
3437.92	25.5
3438.7	28
3439.48	25.5
3440.26	21
3441.04	23.5
3441.82	25.5
3442.6	22
3443.38	23
3444.16	25
3444.94	27
3445.71	27
3446.49	25
3447.27	26
3448.05	24.5
3448.83	23
3449.61	28
3450.39	26
3451.17	26
3451.94	19.5
3452.72	21
3453.5	26
3454.28	22.5
3455.06	25
3455.83	22.5
3456.61	21
3457.39	20
3458.17	23
3458.94	26.5
3459.72	25
3460.5	26
3461.28	22
3462.05	20.5
3462.83	26
3463.61	24
3464.38	24
3465.16	22
3465.93	25.5
3466.71	26.5
3467.49	26
3468.26	22.5
3469.04	23.5
3469.82	22.5
3470.59	26.5
3471.37	21.5
3472.14	25
3472.92	22.5
3473.69	25.5
3474.47	20
3475.24	23
3476.02	27
3476.79	23
3477.57	23
3478.34	26
3479.12	29.5
3479.89	22.5
3480.67	19
3481.44	24
3482.21	21
3482.99	24
3483.76	23.5
3484.54	23
3485.31	23
3486.08	23.5
3486.86	26
3487.63	23
3488.4	23.5
3489.18	21
3489.95	21.5
3490.72	26.5
3491.5	24
3492.27	22.5
3493.04	22
3493.81	20
3494.59	25.5
3495.36	20.5
3496.13	23
3496.9	23.5
3497.67	23.5
3498.45	21.5
3499.22	23.5
3499.99	27.5
