#Acq. time (s)=	5
#Accumulations=	5
#Range (cm-ｹ)=	100...3500
#Windows=	4
#Autofocus=	Off
#AutoExposure=	Off
#Spike filter=	Multiple accum.
#Delay time (s)=	0
#Binning=	1
#Readout mode=	Signal
#DeNoise=	Off
#ICS correction=	Off
#Dark correction=	Off
#Inst. Process=	Off
#Instrument=	LabRAM HR Evol
#Detector=	Syncerity OE
#Objective=	x100_VIS
#Grating=	600 (500nm)
#ND Filter=	25%
#Laser=	633nm_Edge
#Hole=	100.021
#Range=	Visible
#Project=	verificaciones
#Sample=	a5
#Site=	lined
#Title=	bolusa5lined
#Remark=	
#Date=	09.01.2026 13:13
#Acquired=	09.01.2026 13:13:18
100.695	26
101.978	32
103.262	32
104.545	33
105.829	30
107.112	31
108.394	32.5
109.676	28.5
110.958	36.5
112.24	30.5
113.522	35.5
114.803	28.5
116.084	28
117.365	31
118.646	33
119.927	32.5
121.207	31
122.487	29.5
123.767	36
125.047	33.5
126.326	29.5
127.606	26.5
128.885	34.5
130.164	37.5
131.442	33.5
132.721	35
133.999	39.5
135.277	34
136.555	34
137.831	37.5
139.109	30.5
140.386	35.5
141.663	34.5
142.94	39
144.216	35
145.493	42
146.769	40.5
148.043	37
149.319	40
150.595	36.5
151.87	38
153.145	41
154.42	40
155.693	42.5
156.968	37
158.242	46.5
159.516	35
160.79	45.5
162.062	42
163.336	41
164.609	42.5
165.882	38
167.153	36
168.426	38.5
169.699	38.5
170.971	42
172.241	40.5
173.513	35
174.785	36.5
176.055	39
177.326	36
178.597	44
179.866	41
181.137	39
182.407	41.5
183.676	39.5
184.946	42
186.216	45
187.484	39
188.753	40
190.022	38.5
191.29	41
192.558	43
193.825	42
195.094	44.5
196.36	39
197.628	37
198.896	40.5
200.162	38.5
201.429	39
202.695	40.5
203.962	37.5
205.227	37.5
206.493	36
207.758	37.5
209.024	32.5
210.289	38
211.554	36.5
212.818	37
214.083	38.5
215.347	36
216.612	29.5
217.875	35
219.138	33
220.402	36
221.665	33
222.928	38
224.19	34
225.454	32.5
226.715	34
227.977	33.5
229.24	34
230.501	30
231.762	33
233.024	29
234.284	31
235.546	34
236.806	30.5
238.066	35.5
239.327	28.5
240.587	30.5
241.846	29.5
243.105	30.5
244.365	31.5
245.624	29
246.882	32
248.142	29
249.4	28.5
250.658	31
251.916	27.5
253.174	30.5
254.432	28
255.689	29
256.945	32
258.202	27
259.46	31.5
260.716	28
261.972	33.5
263.228	29.5
264.483	27
265.74	30
266.996	31
268.251	30
269.505	30
270.76	32.5
272.014	26
273.268	25.5
274.522	28
275.778	24.5
277.031	28
278.285	30
279.538	28.5
280.791	29
282.043	29
283.296	29.5
284.548	28
285.8	27.5
287.052	28.5
288.304	34
289.556	25.5
290.807	27
292.058	29
293.309	30
294.56	31
295.81	31
297.061	26
298.311	30
299.561	31.5
300.81	29
302.06	31.5
303.309	30
304.558	31
305.807	28.5
307.056	26.5
308.305	32.5
309.551	30
310.8	27.5
312.047	27
313.295	29
314.543	27.5
315.79	27
317.037	29.5
318.284	27
319.529	26
320.776	25
322.022	29.5
323.268	32
324.514	32
325.758	27.5
327.004	29
328.249	28
329.494	26
330.739	33
331.982	28
333.227	29.5
334.471	31
335.715	28
336.958	32
338.201	28
339.445	29
340.687	29.5
341.93	30
343.173	26.5
344.414	31.5
345.657	28
346.899	30.5
348.14	27
349.381	32.5
350.623	28
351.863	30.5
353.104	26
354.346	29.5
355.585	27
356.826	27
358.065	30
359.305	27
360.545	31.5
361.784	28
363.023	26.5
364.261	29
365.501	28.5
366.738	29.5
367.977	28.5
369.216	30
370.453	29
371.691	26.5
372.928	29.5
374.166	29
375.402	32
376.64	26.5
377.876	25.5
379.111	30
380.348	25
381.584	29.5
382.82	28.5
384.055	28.5
385.291	25.5
386.526	31.5
387.76	29
388.996	29
390.229	27
391.465	28.5
392.698	28.5
393.931	29.5
395.166	31
396.399	27
397.632	30
398.866	31
400.098	31
401.33	28.5
402.563	28.5
403.795	26.5
405.027	31
406.259	28
407.491	26.5
408.721	30
409.954	33
411.184	30.5
412.415	29.5
413.645	27.5
414.876	26.5
416.106	26
417.335	27
418.565	28.5
419.794	29.5
421.024	26.5
422.253	31
423.482	28
424.71	30
425.938	30.5
427.168	32
428.396	27.5
429.623	29
430.851	27
432.078	29
433.305	30.5
434.532	27
435.758	29
436.986	29
438.212	24.5
439.438	28
440.664	26.5
441.89	28
443.115	26
444.34	27
445.566	30
446.79	29.5
448.015	26
449.24	30.5
450.464	28.5
451.688	28
452.912	28.5
454.135	29.5
455.359	31.5
456.582	22.5
457.805	30.5
459.028	31
460.251	27
461.473	30.5
462.696	30.5
463.918	24
465.14	32.5
466.36	33
467.582	33
468.803	33.5
470.024	33.5
471.245	35
472.466	36
473.686	37.5
474.907	40
476.126	42.5
477.346	45
478.565	46
479.785	43.5
481.004	49.5
482.224	53
483.441	52
484.66	58.5
485.879	52
487.097	59.5
488.314	56.5
489.532	64.5
490.75	59
491.967	57
493.184	55
494.401	53.5
495.618	53
496.835	52
498.05	49.5
499.267	48.5
500.483	43.5
501.698	40.5
502.913	41
504.129	46
505.343	43
506.559	39.5
507.774	37
508.987	35.5
510.202	36
511.415	38
512.63	33.5
513.844	32.5
515.056	36.5
516.27	36
517.482	32.5
518.696	32
519.907	33
521.121	34
522.332	29
523.545	28.5
524.757	36.5
525.968	31
527.18	29.5
528.39	32
529.602	32.5
530.812	28
532.023	34.5
533.233	26.5
534.443	32
535.653	28
536.862	32
538.073	31.5
539.281	29
540.491	30.5
541.7	30.5
542.908	28
544.117	28
545.325	30
546.534	29
547.741	29.5
548.949	25
550.157	25
551.364	31.5
552.57	29
553.778	27.5
554.985	28
556.191	26
557.398	28
558.604	30.5
559.809	31
561.014	30.5
562.221	27.5
563.426	30
564.63	27
565.835	28
567.041	29
568.245	28
569.449	30
570.653	29
571.856	24
573.061	28.5
574.264	24
575.467	28
576.67	31.5
577.873	27.5
579.076	27.5
580.279	25
581.481	28.5
582.683	29
583.884	26.5
585.086	26.5
586.287	29.5
587.488	28.5
588.689	27.5
589.891	29.5
591.092	26.5
592.292	27
593.492	30.5
594.692	26
595.892	22
597.092	24.5
598.291	28
599.49	31
600.689	29.5
601.888	31.5
603.087	26
604.285	28
605.483	27.5
606.681	26
607.879	31
609.077	26.5
610.274	27
611.472	23.5
612.668	30.5
613.865	28.5
615.061	31
616.258	27
617.454	28.5
618.65	30
619.846	31.5
621.042	27.5
622.238	31.5
623.432	26.5
624.627	31.5
625.822	31
627.017	28.5
628.212	30
629.406	30
630.599	30
631.793	27
632.987	27
634.181	30.5
635.373	30
636.566	31.5
637.76	32.5
638.953	27.5
640.144	30.5
641.337	27
642.529	29.5
643.721	28.5
644.912	24
646.104	32
647.295	30.5
648.485	26.5
649.677	31
650.868	30.5
652.057	24.5
653.248	28.5
654.437	29.5
655.628	27.5
656.818	30
658.006	23
659.196	33
660.384	34.5
661.574	31
662.763	29
663.951	30.5
665.14	31.5
666.327	29
667.515	29.5
668.702	33.5
669.891	32.5
671.077	30
672.265	31.5
673.451	30.5
674.638	36
675.824	28
677.011	34
678.197	30
679.383	30
680.568	34.5
681.755	32.5
682.939	30.5
684.124	34
685.309	37
686.494	37.5
687.679	33
688.863	31
690.046	31.5
691.231	34
692.414	35.5
693.599	35.5
694.781	34
695.964	34
697.148	33
698.33	37.5
699.512	36
700.694	32.5
701.877	40.5
703.059	39.5
704.24	43.5
705.423	46.5
706.604	49
707.784	55.5
708.965	49
710.147	46
711.327	44
712.507	40
713.687	38.5
714.867	39
716.048	40
717.227	32
718.406	31.5
719.585	33.5
720.764	28
721.942	24
723.122	28.5
724.3	28.5
725.478	29
726.656	25.5
727.834	29
729.011	31
730.189	31
731.366	23.5
732.543	27
733.719	26.5
734.896	28.5
736.072	27.5
737.249	34
738.426	29
739.602	30.5
740.777	28.5
741.953	29.5
743.128	30.5
744.303	27
745.477	28
746.651	29
747.826	28
749	31.5
750.174	29
751.348	32.5
752.522	28.5
753.696	27
754.869	29.5
756.043	27
757.216	25
758.389	26.5
759.561	32
760.732	26.5
761.905	32
763.077	30
764.249	26
765.421	28.5
766.592	28
767.762	26.5
768.934	31
770.105	32
771.275	28
772.446	27
773.615	29
774.786	30
775.956	23.5
777.126	28.5
778.294	31
779.464	27.5
780.633	31
781.801	29
782.97	28.5
784.139	29
785.306	31
786.475	34
787.643	30.5
788.81	33
789.978	31
791.146	33
792.312	33
793.479	30
794.647	32.5
795.812	32.5
796.979	35.5
798.144	31
799.311	30.5
800.477	30.5
801.642	29
802.808	27
803.972	29
805.138	30
806.302	30.5
807.467	29
808.631	28.5
809.796	29
810.959	28.5
812.124	28
813.287	30
814.451	25
815.614	29
816.777	27
817.94	30
819.102	24.5
820.265	32.5
821.427	27.5
822.59	27
823.751	25.5
824.912	30.5
826.074	29
827.235	29
828.397	30
829.558	25.5
830.718	28
831.879	28
833.039	27.5
834.199	25
835.359	23
836.519	30
837.679	26
838.838	27.5
839.998	29
841.156	27.5
842.315	29.5
843.473	29.5
844.633	29
845.791	25
846.948	23
848.106	25.5
849.263	28
850.422	29
851.579	26
852.736	25.5
853.892	25
855.049	25.5
856.205	28.5
857.363	28.5
858.519	29
859.674	33
860.83	31
861.986	29.5
863.141	28
864.296	30
865.451	32.5
866.605	26
867.76	28.5
868.914	27
870.069	27
871.224	32.5
872.378	31
873.531	28.5
874.685	29
875.838	28
876.991	27.5
878.144	30.5
879.296	27.5
880.448	29
881.6	29
882.753	26.5
883.905	27
885.057	29
886.208	32
887.36	27.5
888.511	26.5
889.662	25.5
890.813	28.5
891.964	27
893.113	26.5
894.264	25.5
895.414	28.5
896.564	28.5
897.714	28
898.864	27
900.012	27
901.161	28
902.31	26.5
903.459	26
904.607	28
905.756	27
906.904	22.5
908.052	23
909.199	28
910.347	26
911.495	29
912.643	26.5
913.789	25
914.936	27
916.083	25.5
917.229	29.5
918.375	29.5
919.522	28
920.667	23.5
921.813	27.5
922.959	25.5
924.104	29
925.249	27
926.393	26
927.539	28.5
928.684	26
929.827	28
930.972	22
932.115	27.5
933.26	23.5
934.403	23.5
935.547	27.5
936.689	26.5
937.833	24
938.975	29
940.119	26.5
941.26	25
942.404	24
943.545	24
944.688	26.5
945.829	28.5
946.971	21
948.112	28
949.253	29
950.394	28
951.535	27
952.676	28
953.816	27
954.956	26.5
956.097	28.5
957.236	28
958.377	30
959.516	24
960.655	27.5
961.793	26
962.933	24
964.071	27
965.21	29
966.349	29
967.487	27.5
968.624	25.5
969.762	24.5
970.901	26.5
972.038	25
973.175	27
974.311	27
975.449	28.5
976.586	27
977.722	31
978.858	27.5
979.994	24.5
981.131	25.5
982.267	33
983.402	28.5
984.537	27.5
985.672	27.5
986.807	24
987.942	26.5
989.076	20
990.211	26
991.346	29
992.48	26.5
993.614	25.5
994.748	28.5
995.881	23.5
997.014	27
998.148	27.5
999.28	26
1000.41	28
1001.55	27
1002.68	27
1003.81	26
1004.94	27.5
1006.07	27.5
1007.21	31
1008.34	26.5
1009.47	21
1010.6	30
1011.73	25.5
1012.86	26
1013.99	30.5
1015.12	22
1016.25	24.5
1017.38	24.5
1018.51	24.5
1019.64	24.5
1020.77	29
1021.9	22
1023.03	25
1024.16	25.5
1025.29	27
1026.42	24
1027.54	21.5
1028.67	29.5
1029.8	29
1030.93	26
1032.06	22
1033.18	25
1034.31	26.5
1035.44	27.5
1036.56	27
1037.69	26.5
1038.82	25.5
1039.94	27
1041.07	24
1042.2	25.5
1043.32	21
1044.45	27
1045.57	27
1046.7	25
1047.82	26.5
1048.95	28.5
1050.07	26.5
1051.2	23.5
1052.32	29
1053.45	28
1054.57	26
1055.69	27.5
1056.82	24.5
1057.94	28
1059.06	26
1060.19	26
1061.31	26
1062.43	22
1063.55	26
1064.68	25.5
1065.8	24.5
1066.92	24
1068.04	26.5
1069.16	28
1070.28	26
1071.41	26.5
1072.53	28.5
1073.65	22.5
1074.77	24
1075.89	28.5
1077.01	24
1078.13	28
1079.25	24.5
1080.37	27
1081.49	29
1082.61	26
1083.73	24
1084.85	25.5
1085.96	21
1087.08	25
1088.2	23.5
1089.32	24.5
1090.44	24.5
1091.56	26
1092.67	28.5
1093.79	23.5
1094.91	24.5
1096.03	24
1097.14	27.5
1098.26	25.5
1099.38	25
1100.49	24.5
1101.61	23
1102.73	25.5
1103.84	27
1104.96	27
1106.07	27.5
1107.19	25
1108.3	28.5
1109.42	26.5
1110.53	24
1111.65	26
1112.76	25
1113.88	25
1114.99	27
1116.1	27.5
1117.22	23.5
1118.33	27.5
1119.44	25
1120.56	24.5
1121.67	24
1122.78	27.5
1123.9	25
1125.01	21
1126.12	23.5
1127.23	21.5
1128.34	21
1129.46	28.5
1130.57	26
1131.68	27.5
1132.79	25
1133.9	20
1135.01	25.5
1136.12	28.5
1137.23	22.5
1138.34	27.5
1139.45	24.5
1140.56	23.5
1141.67	26.5
1142.78	23.5
1143.89	25
1145	23.5
1146.11	26
1147.22	28.5
1148.33	23.5
1149.44	28
1150.54	19
1151.65	23
1152.76	27
1153.87	26
1154.97	28.5
1156.08	24
1157.19	26.5
1158.3	23.5
1159.4	26.5
1160.51	24
1161.62	23.5
1162.72	28
1163.83	26
1164.93	28.5
1166.04	26.5
1167.15	27.5
1168.25	24
1169.36	25.5
1170.46	28
1171.57	24
1172.67	23
1173.78	24.5
1174.88	26.5
1175.98	26
1177.09	26.5
1178.19	22.5
1179.3	25.5
1180.4	25.5
1181.5	18
1182.61	21
1183.71	28.5
1184.81	25
1185.91	28
1187.02	23.5
1188.12	26.5
1189.22	26
1190.32	23.5
1191.42	25.5
1192.53	24
1193.63	24
1194.73	23.003
1195.83	20.5592
1196.93	23.5648
1198.03	23.551
1199.13	27.8551
1200.23	22.5534
1201.33	25.8742
1202.43	23.6748
1203.53	22.708
1204.63	24.353
1205.73	23.9219
1206.83	25.1278
1207.93	25.7969
1209.02	24.0006
1210.12	24.9922
1211.22	23.0782
1212.32	24.6242
1213.42	23.9277
1214.52	25.1785
1215.61	22.4319
1216.71	26.2982
1217.81	24.4673
1218.91	27.1673
1220	27.1403
1221.1	24.1587
1222.2	25.9356
1223.29	24.2833
1224.39	23.7155
1225.49	21.7765
1226.58	25.0037
1227.68	24.7297
1228.77	26.3127
1229.87	25.1905
1230.96	25.4048
1232.06	23.0562
1233.15	24.0925
1234.25	23.3722
1235.34	27.0684
1236.44	21.1936
1237.53	25.6918
1238.63	24.328
1239.72	23.3192
1240.81	23.0559
1241.91	27.3195
1243	23.1532
1244.09	26.7811
1245.19	23.8857
1246.28	25.2279
1247.37	26.0865
1248.46	23.0025
1249.56	24.5652
1250.65	23.9965
1251.74	24.7211
1252.83	21.9907
1253.92	27.8012
1255.01	25.1885
1256.11	27.8027
1257.2	24.3643
1258.29	24.5517
1259.38	24.1346
1260.47	27.3813
1261.56	29.3809
1262.65	23.5075
1263.74	25.3837
1264.83	25.6674
1265.92	24.5216
1267.01	27.124
1268.1	23.3773
1269.19	27.8508
1270.27	24.171
1271.36	24.2888
1272.45	23.3447
1273.54	24.1992
1274.63	23.0162
1275.72	22.5596
1276.8	23.9229
1277.89	24.7337
1278.98	26.2409
1280.07	25.2226
1281.15	23.0046
1282.24	24.9736
1283.33	24.1277
1284.41	25.0658
1285.5	25.2415
1286.59	24.1472
1287.67	22.6507
1288.76	24.1354
1289.84	21.3799
1290.93	26.2473
1292.01	22.3963
1293.1	24.1438
1294.19	24.5558
1295.27	23.6927
1296.35	23.3767
1297.44	25.9637
1298.52	25.3607
1299.61	19.676
1300.69	22.6818
1301.78	25.3998
1302.86	27.2774
1303.94	25.4335
1305.03	24.4927
1306.11	24.1173
1306.4	24
1307.49	25
1308.57	25.5
1309.66	25
1310.75	25.5
1311.84	22
1312.92	24.5
1314.01	27
1315.1	26.5
1316.19	24.5
1317.27	24
1318.36	23.5
1319.45	25
1320.53	26
1321.62	24
1322.7	25.5
1323.79	25.5
1324.88	24
1325.96	26.5
1327.05	25
1328.13	23.5
1329.21	23
1330.3	25
1331.38	24
1332.47	23
1333.55	26
1334.64	25
1335.72	26.5
1336.8	21
1337.89	25.5
1338.97	28.5
1340.05	24
1341.14	28
1342.22	27
1343.3	27
1344.39	28.5
1345.47	24
1346.55	28.5
1347.63	23.5
1348.71	22
1349.79	24
1350.88	20
1351.96	27.5
1353.04	24
1354.12	25
1355.2	26.5
1356.28	28
1357.36	25.5
1358.44	25.5
1359.52	24
1360.6	24
1361.68	23
1362.76	21
1363.84	25.5
1364.92	24
1366	24
1367.08	21
1368.16	24
1369.23	24.5
1370.31	28.5
1371.39	21.5
1372.47	23.5
1373.55	29.5
1374.62	23
1375.7	24
1376.78	23.5
1377.85	24.5
1378.93	29
1380.01	27
1381.09	24.5
1382.16	23
1383.24	28.5
1384.31	29
1385.39	21
1386.47	28.5
1387.54	28
1388.62	26.5
1389.69	24
1390.77	23
1391.84	23
1392.92	26.5
1393.99	30
1395.06	27.5
1396.14	29.5
1397.21	24
1398.29	28.5
1399.36	30.5
1400.43	29.5
1401.51	30
1402.58	28.5
1403.65	30
1404.73	31.5
1405.8	29
1406.87	27
1407.94	25
1409.02	33
1410.09	30
1411.16	28
1412.23	27
1413.3	29
1414.37	31
1415.45	30
1416.52	30
1417.59	27
1418.66	29
1419.73	27
1420.8	29.5
1421.87	26
1422.94	28
1424.01	31.5
1425.08	26
1426.15	30.5
1427.22	25
1428.29	23
1429.35	28
1430.42	24.5
1431.49	27
1432.56	24.5
1433.63	28.5
1434.7	23.5
1435.77	26.5
1436.83	28
1437.9	20
1438.97	21
1440.04	27
1441.1	21
1442.17	25.5
1443.24	23
1444.3	28
1445.37	25
1446.44	24.5
1447.5	25
1448.57	27
1449.63	26.5
1450.7	26
1451.76	25.5
1452.83	26.5
1453.89	25
1454.96	24.5
1456.02	28.5
1457.09	26
1458.15	25.5
1459.22	24.5
1460.28	24.5
1461.34	22
1462.41	25
1463.47	25.5
1464.54	25
1465.6	28.5
1466.66	25
1467.72	23.5
1468.79	28
1469.85	19
1470.91	23
1471.97	24.5
1473.04	30
1474.1	26.5
1475.16	24
1476.22	29
1477.28	22.5
1478.34	24.5
1479.4	26.5
1480.47	25.5
1481.53	24.5
1482.59	25.5
1483.65	25.5
1484.71	22.5
1485.77	28
1486.83	26.5
1487.89	25
1488.95	24.5
1490.01	26
1491.07	28
1492.12	23.5
1493.18	23.5
1494.24	26.5
1495.3	24
1496.36	26.5
1497.42	28
1498.47	26.5
1499.53	23.5
1500.59	23.5
1501.65	26.5
1502.7	26.5
1503.76	25
1504.82	25
1505.88	24
1506.93	26.5
1507.99	27
1509.05	26.5
1510.1	25
1511.16	28.5
1512.21	26
1513.27	23.5
1514.32	27.5
1515.38	28
1516.43	26.5
1517.49	23.5
1518.54	25.5
1519.6	25
1520.65	25
1521.71	27
1522.76	23.5
1523.82	25
1524.87	25
1525.92	27
1526.98	29.5
1528.03	22
1529.08	24
1530.14	23.5
1531.19	28
1532.24	26.5
1533.3	29.5
1534.35	25
1535.4	25.5
1536.45	26
1537.5	25
1538.56	24.5
1539.61	23.5
1540.66	29
1541.71	21.5
1542.76	26.5
1543.81	24.5
1544.86	27.5
1545.91	27
1546.96	25.5
1548.01	26
1549.06	23.5
1550.11	24
1551.16	25
1552.21	25.5
1553.26	25
1554.31	24.5
1555.36	28.5
1556.41	24.5
1557.46	28.5
1558.51	26
1559.55	27
1560.6	28
1561.65	28
1562.7	28.5
1563.75	27.5
1564.79	29.5
1565.84	27
1566.89	28
1567.94	26.5
1568.98	27
1570.03	24
1571.07	22.5
1572.12	27.5
1573.17	26
1574.21	25.5
1575.26	24.5
1576.31	26
1577.35	29
1578.4	25
1579.44	26.5
1580.49	28
1581.53	23
1582.58	27.5
1583.62	22.5
1584.67	26
1585.71	25.5
1586.75	28.5
1587.8	26
1588.84	25.5
1589.89	26.5
1590.93	27.5
1591.97	27
1593.02	25
1594.06	26
1595.1	26
1596.14	22
1597.19	27
1598.23	27.5
1599.27	26
1600.31	23.5
1601.35	30
1602.4	27
1603.44	24
1604.48	25.5
1605.52	28
1606.56	24
1607.6	26
1608.64	29.5
1609.68	28
1610.72	28
1611.76	25.5
1612.8	24
1613.84	23.5
1614.88	26.5
1615.92	27.5
1616.96	27
1618	28.5
1619.04	30
1620.08	25
1621.12	25
1622.16	27
1623.19	24
1624.23	25
1625.27	25.5
1626.31	27
1627.35	26
1628.38	21
1629.42	24
1630.46	28.5
1631.5	26.5
1632.53	25
1633.57	26.5
1634.61	26
1635.64	25.5
1636.68	24
1637.71	26.5
1638.75	25
1639.79	27
1640.82	28.5
1641.86	23.5
1642.89	24.5
1643.93	24
1644.96	23.5
1646	29
1647.03	29.5
1648.07	23.5
1649.1	28.5
1650.14	28.5
1651.17	26.5
1652.2	25
1653.24	24.5
1654.27	27.5
1655.3	27.5
1656.34	27.5
1657.37	23.5
1658.4	25
1659.44	26
1660.47	22
1661.5	27
1662.53	23.5
1663.57	28.5
1664.6	25.5
1665.63	26
1666.66	26
1667.69	23
1668.72	25
1669.75	24.5
1670.79	24
1671.82	30.5
1672.85	27
1673.88	21
1674.91	27
1675.94	28.5
1676.97	24
1678	24
1679.03	25.5
1680.06	23
1681.09	27
1682.11	25.5
1683.14	24
1684.17	26
1685.2	22
1686.23	28
1687.26	26
1688.29	26
1689.32	23
1690.34	23
1691.37	26.5
1692.4	22
1693.43	25.5
1694.45	27.5
1695.48	28.5
1696.51	25.5
1697.53	22.5
1698.56	22.5
1699.59	25.5
1700.61	24.5
1701.64	27.5
1702.66	26.5
1703.69	25
1704.72	24.5
1705.74	24.5
1706.77	22.5
1707.79	27
1708.82	25
1709.84	26.5
1710.87	22.5
1711.89	24.5
1712.92	28.5
1713.94	24.5
1714.96	22
1715.99	26.5
1717.01	27
1718.04	22
1719.06	25.5
1720.08	23.5
1721.11	20.5
1722.13	24
1723.15	25.5
1724.17	22.5
1725.2	28
1726.22	27.5
1727.24	27
1728.26	26.5
1729.28	24.5
1730.31	26
1731.33	24.5
1732.35	28
1733.37	27.5
1734.39	29
1735.41	26.5
1736.43	23
1737.45	26
1738.47	23.5
1739.49	21
1740.51	26.5
1741.53	25.5
1742.55	23
1743.57	29
1744.59	24
1745.61	28
1746.63	26.5
1747.65	27
1748.67	23
1749.69	24
1750.71	23
1751.72	28
1752.74	27.5
1753.76	26
1754.78	26
1755.8	26.5
1756.81	25.5
1757.83	25
1758.85	25
1759.86	22
1760.88	24.5
1761.9	25
1762.91	23.5
1763.93	27.5
1764.95	22
1765.96	23.5
1766.98	27
1768	27
1769.01	23
1770.03	26.5
1771.04	24.5
1772.06	23
1773.07	24.5
1774.09	22
1775.1	24
1776.12	26.5
1777.13	27
1778.14	24.5
1779.16	23
1780.17	21.5
1781.19	25
1782.2	24.5
1783.21	28.5
1784.23	22.5
1785.24	25.5
1786.25	26
1787.27	23.5
1788.28	25.5
1789.29	26
1790.3	25.5
1791.32	26
1792.33	24.5
1793.34	21
1794.35	25
1795.36	24
1796.37	24
1797.38	23
1798.4	23.5
1799.41	27.5
1800.42	23.5
1801.43	22.5
1802.44	23
1803.45	23
1804.46	23
1805.47	27.5
1806.48	25.5
1807.49	26.5
1808.5	22
1809.51	26.5
1810.52	25.5
1811.53	25
1812.53	28
1813.54	26
1814.55	24.5
1815.56	22
1816.57	25.5
1817.58	25
1818.58	26
1819.59	27
1820.6	22.5
1821.61	26
1822.61	23
1823.62	26
1824.63	26.5
1825.64	24.5
1826.64	27
1827.65	24
1828.66	24.5
1829.66	26.5
1830.67	26
1831.67	27
1832.68	25.5
1833.68	26
1834.69	25
1835.7	24.5
1836.7	27
1837.71	25.5
1838.71	26
1839.71	26
1840.72	24.5
1841.72	27.5
1842.73	27
1843.73	23
1844.74	25.5
1845.74	23.5
1846.74	24
1847.75	23.5
1848.75	27.5
1849.75	26.5
1850.76	27.5
1851.76	24
1852.76	22.5
1853.76	24
1854.77	25
1855.77	25
1856.77	25.5
1857.77	25.5
1858.77	23.5
1859.78	27
1860.78	24
1861.78	27
1862.78	22.5
1863.78	25
1864.78	26.5
1865.78	25.5
1866.78	24.5
1867.78	24
1868.78	26
1869.78	22
1870.78	28
1871.78	27
1872.78	26.5
1873.78	21
1874.78	26
1875.78	23.5
1876.78	25
1877.78	26
1878.78	30
1879.77	21.5
1880.77	25.5
1881.77	23
1882.77	24
1883.77	28.5
1884.76	23.5
1885.76	24
1886.76	26
1887.76	26
1888.75	24.5
1889.75	27
1890.75	23.5
1891.74	24.5
1892.74	24
1893.74	26.5
1894.73	26
1895.73	24
1896.72	25
1897.72	28
1898.72	27.5
1899.71	27
1900.71	25
1901.7	22.5
1902.7	22.5
1903.69	22
1904.69	27
1905.68	25.5
1906.67	25.5
1907.67	27
1908.66	27
1909.66	26.5
1910.65	24
1911.64	24
1912.64	24.5
1913.63	24.5
1914.62	25.5
1915.62	20.5
1916.61	26.5
1917.6	27
1918.59	24
1919.59	25.5
1920.58	24
1921.57	24.5
1922.56	22
1923.55	26
1924.55	24
1925.54	23
1926.53	23.5
1927.52	26
1928.51	25
1929.5	24
1930.49	22
1931.48	23
1932.47	26.5
1933.46	24
1934.45	23.5
1935.44	21.5
1936.43	21
1937.42	26
1938.41	22
1939.4	22.5
1940.39	27
1941.38	28.5
1942.37	22.5
1943.36	20.5
1944.34	26
1945.33	26
1946.32	23.5
1947.31	26.5
1948.3	25.25
1949.28	24
1950.27	29
1951.26	22.5
1952.25	26
1953.23	25.5
1954.22	26
1955.21	24
1956.2	26
1957.18	26
1958.17	25
1959.15	27
1960.14	23.5
1961.13	24.5
1962.11	23
1963.1	25.5
1964.08	20
1965.07	23.5
1966.05	23
1967.04	24
1968.02	22.5
1969.01	23
1969.99	21
1970.98	22.5
1971.96	21.5
1972.94	24
1973.93	21.5
1974.91	25.5
1975.9	25.5
1976.88	24.5
1977.86	23
1978.85	24.5
1979.83	24
1980.81	24.5
1981.8	24.5
1982.78	25.5
1983.76	22.5
1984.74	26
1985.72	24.5
1986.71	23.5
1987.69	24.5
1988.67	23
1989.65	23
1990.63	24
1991.61	22
1992.6	26
1993.58	22
1994.56	24
1995.54	22
1996.52	24
1997.5	21.5
1998.48	25.5
1999.46	24
2000.44	20.5
2001.42	21
2002.4	27.5
2003.38	21
2004.36	21.5
2005.34	21.5
2006.32	26
2007.29	23
2008.27	23.5
2009.25	22.5
2010.23	26
2011.21	26
2012.19	24.5
2013.16	26
2014.14	26
2015.12	25.5
2016.1	23.5
2017.07	26.5
2018.05	23
2019.03	23.5
2020	25.5
2020.98	22.5
2021.96	24
2022.93	25.5
2023.91	25.5
2024.89	25.5
2025.86	25
2026.84	20
2027.81	27
2028.79	25
2029.77	21
2030.74	23
2031.72	21
2032.69	23.5
2033.67	24
2034.64	25
2035.61	25
2036.59	23
2037.56	26
2038.54	24
2039.51	20
2040.48	20
2041.46	27
2042.43	24
2043.41	24
2044.38	25.5
2045.35	25
2046.32	22
2047.3	25.5
2048.27	22
2049.24	26.5
2050.21	22
2051.19	25.5
2052.16	24.5
2053.13	22
2054.1	20
2055.07	26.5
2056.04	25
2057.02	22.5
2057.99	24.5
2058.96	23
2059.93	22
2060.9	26.5
2061.87	21
2062.84	24
2063.81	26
2064.78	21
2065.75	22.5
2066.72	25.5
2067.69	21
2068.66	22.5
2069.63	25
2070.6	24.5
2071.57	25
2072.53	26
2073.5	25
2074.47	26.5
2075.44	21.5
2076.41	24
2077.38	22
2078.34	25
2079.31	24
2080.28	24
2081.25	23
2082.21	23.5
2083.18	23
2084.15	23.5
2085.12	25.5
2086.08	21
2087.05	26
2088.02	22
2088.98	28.5
2089.95	22
2090.91	23
2091.88	26
2092.85	23
2093.81	25
2094.78	25
2095.74	23
2096.71	21
2097.67	24.5
2098.64	19.5
2099.6	23
2100.57	23.5
2101.53	29
2102.5	24
2103.46	24
2104.42	27
2105.39	22.5
2106.35	24
2107.31	25.5
2108.28	22.5
2109.24	22
2110.2	26.5
2111.17	25
2112.13	25
2113.09	22
2114.06	26
2115.02	23
2115.98	22
2116.94	22.5
2117.9	24
2118.86	24
2119.83	26.5
2120.79	26.5
2121.75	21
2122.71	25.5
2123.67	26
2124.63	21.5
2125.59	26
2126.55	23
2127.51	22
2128.48	19.5
2129.43	24.5
2130.4	23
2131.35	24
2132.31	23.5
2133.27	24.5
2134.23	23.5
2135.19	21
2136.15	22.5
2137.11	24.5
2138.07	23
2139.03	22
2139.99	23
2140.95	24
2141.9	25
2142.86	22.9874
2143.82	21.9802
2144.78	24.4965
2145.74	22.5607
2146.69	23.0688
2147.65	23.5148
2148.61	23.0085
2149.56	20.0512
2150.52	25.3329
2151.48	23.3143
2152.44	23.169
2153.39	23.6373
2154.35	26.6045
2155.3	20.5312
2156.26	26.5208
2157.22	25.4857
2158.17	23.8949
2159.13	20.7253
2160.08	21.3402
2161.04	24.5463
2161.99	24.1205
2162.95	26.5595
2163.9	25.7564
2164.86	22.5797
2165.81	21.0598
2166.77	23.2266
2167.72	24.258
2168.68	21.4552
2169.63	23.6876
2170.58	22.9695
2171.54	24.7098
2172.49	20.1784
2173.44	23.9639
2174.4	21.5044
2175.35	23.61
2176.3	23.9685
2177.26	21.5947
2178.21	25.0293
2179.16	23.3993
2180.11	23.8376
2181.07	24.5249
2182.02	21.7333
2182.97	23.6995
2183.92	24
2184.88	23.3262
2185.83	21.0335
2186.78	23.3393
2187.73	21.6457
2188.68	24.0933
2189.63	21.3703
2190.58	20.7964
2191.53	22.4325
2192.48	22.5324
2193.43	24.4717
2194.38	22.7389
2195.33	19.5857
2196.28	22.3766
2197.23	24.8756
2198.18	22.5518
2199.13	20.6468
2200.08	25.8765
2201.03	24.6024
2201.98	25.3932
2202.93	20.9295
2203.88	22.6754
2204.83	22.2372
2205.78	23
2206.72	24.2916
2207.67	24.165
2208.62	20.6316
2209.57	26.6016
2210.52	22.0262
2211.46	23.8676
2212.41	24.1946
2213.36	22.0316
2214.31	21.9877
2215.25	20.781
2216.2	23.6042
2217.15	24.4287
2218.09	22.6535
2219.04	21.7774
2219.99	20.4388
2220.93	24.292
2221.88	22.8152
2222.83	24.5248
2223.77	25.2549
2224.72	23.3443
2225.66	18.9898
2226.61	22.8825
2227.55	21.9353
2228.5	22.0607
2229.44	22.1494
2230.39	19.7284
2231.33	20.8264
2232.28	25.1086
2233.22	23.1642
2234.17	24.9711
2235.11	23.9969
2236.05	22.5019
2237	25.1115
2237.94	23.9359
2238.88	21.9294
2239.83	24.6225
2240.04	25.5
2240.98	22.5
2241.93	22.5
2242.88	23.5
2243.83	25.5
2244.78	21
2245.72	26.5
2246.67	24.5
2247.62	25.5
2248.56	26
2249.51	20
2250.46	20.5
2251.4	22.5
2252.35	24
2253.3	25.5
2254.24	19
2255.19	22
2256.14	26
2257.08	28
2258.03	23.5
2258.97	22
2259.92	23
2260.86	23
2261.81	20.5
2262.75	22.5
2263.7	21.5
2264.64	20.5
2265.59	23
2266.53	22
2267.48	22
2268.42	21.5
2269.36	25.5
2270.31	23.5
2271.25	28
2272.19	24.5
2273.14	21.5
2274.08	23
2275.02	22
2275.97	22.5
2276.91	19
2277.85	23
2278.8	23
2279.74	22.5
2280.68	24.5
2281.62	24
2282.56	22.5
2283.51	24
2284.45	27
2285.39	22
2286.33	20
2287.27	22.5
2288.21	23
2289.15	20.5
2290.09	25.5
2291.04	24
2291.98	27
2292.92	24.5
2293.86	26
2294.8	22.5
2295.74	22
2296.68	23
2297.62	22
2298.56	21
2299.5	22.5
2300.44	21
2301.37	21
2302.31	21.5
2303.25	26
2304.19	24
2305.13	24.5
2306.07	24.5
2307.01	19
2307.94	25
2308.88	21
2309.82	23
2310.76	22.5
2311.7	21
2312.63	26
2313.57	24.5
2314.51	24
2315.44	25
2316.38	23
2317.32	23
2318.26	23
2319.19	21
2320.13	27
2321.06	23.5
2322	23.5
2322.94	22
2323.87	23
2324.81	19.5
2325.74	26
2326.68	25.5
2327.61	23.5
2328.55	20
2329.48	21
2330.42	19
2331.35	23
2332.29	24.5
2333.22	18.5
2334.16	24.5
2335.09	24
2336.02	24
2336.96	23.5
2337.89	22.5
2338.83	23
2339.76	24
2340.69	22
2341.63	23.5
2342.56	26
2343.49	25
2344.42	21.5
2345.36	23
2346.29	21.5
2347.22	23.5
2348.15	24
2349.09	22
2350.02	22.5
2350.95	23
2351.88	26.5
2352.81	26
2353.74	22
2354.68	22
2355.61	24
2356.54	22.5
2357.47	22
2358.4	21.5
2359.33	25
2360.26	25.5
2361.19	22
2362.12	23
2363.05	22
2363.98	27
2364.91	24
2365.84	27.5
2366.77	20
2367.7	23.5
2368.63	22
2369.56	22
2370.49	26.5
2371.41	23
2372.34	20.5
2373.27	26
2374.2	24.5
2375.13	23.5
2376.06	22.5
2376.98	25
2377.91	24.5
2378.84	24.5
2379.77	23
2380.69	22
2381.62	23.5
2382.55	20.5
2383.47	23.5
2384.4	24
2385.33	27.5
2386.25	23
2387.18	23.5
2388.11	22.5
2389.03	22.5
2389.96	22.5
2390.89	22
2391.81	23.5
2392.74	24.5
2393.66	27
2394.59	28
2395.51	21
2396.44	24
2397.36	23
2398.29	22.5
2399.21	26.5
2400.14	28.5
2401.06	21.5
2401.99	22
2402.91	24
2403.83	24.5
2404.76	25.5
2405.68	27.5
2406.6	21.5
2407.53	20
2408.45	25.5
2409.37	24.5
2410.3	26
2411.22	25
2412.14	20.5
2413.06	28
2413.99	19.5
2414.91	23.5
2415.83	23
2416.75	25.5
2417.68	23
2418.6	24
2419.52	23.5
2420.44	23
2421.36	21
2422.28	24
2423.2	23
2424.12	24
2425.05	20.5
2425.97	24
2426.89	25
2427.81	26
2428.73	24.5
2429.65	23
2430.57	23
2431.49	24
2432.41	27.5
2433.33	20
2434.25	21.5
2435.17	21.5
2436.08	28.5
2437	23.5
2437.92	25
2438.84	21
2439.76	20.5
2440.68	27
2441.6	24
2442.51	26.5
2443.43	24.5
2444.35	22
2445.27	27.5
2446.19	25
2447.1	25.5
2448.02	25.5
2448.94	26
2449.85	23.5
2450.77	24
2451.69	22
2452.61	24
2453.52	24.5
2454.44	23
2455.35	24
2456.27	26.5
2457.19	22.5
2458.1	21.5
2459.02	24
2459.94	22
2460.85	23
2461.77	19.5
2462.68	27.5
2463.6	22
2464.51	25
2465.43	23.5
2466.34	25
2467.25	26.5
2468.17	22.5
2469.08	25.5
2470	23
2470.91	24.5
2471.83	23
2472.74	26
2473.65	25
2474.57	27
2475.48	28
2476.39	26.5
2477.31	23.5
2478.22	24
2479.13	26.5
2480.04	24
2480.96	26.5
2481.87	25.5
2482.78	28.5
2483.69	23
2484.6	21.5
2485.52	26
2486.43	24.5
2487.34	25.5
2488.25	26.5
2489.16	22
2490.07	23
2490.99	24
2491.9	25.5
2492.81	22
2493.72	25.5
2494.63	23.5
2495.54	23
2496.45	28
2497.36	22.5
2498.27	25
2499.18	23.5
2500.09	26.5
2501	22.5
2501.91	23
2502.82	22.5
2503.73	21
2504.63	25
2505.54	18
2506.45	25.5
2507.36	24
2508.27	23.5
2509.18	22.5
2510.09	26
2510.99	26.5
2511.9	23
2512.81	23
2513.72	23
2514.62	27
2515.53	21
2516.44	24
2517.35	21
2518.25	23.5
2519.16	24.5
2520.07	19
2520.97	26
2521.88	28
2522.79	26.5
2523.69	29
2524.6	28
2525.51	21.5
2526.41	24
2527.32	24
2528.22	25.5
2529.13	21
2530.03	25.5
2530.94	30.5
2531.84	24
2532.75	28
2533.65	24.5
2534.56	24.5
2535.46	25.5
2536.37	23
2537.27	23
2538.17	26
2539.08	25
2539.98	25
2540.89	24
2541.79	24
2542.69	23
2543.6	24
2544.5	26
2545.4	27.5
2546.31	25.5
2547.21	28
2548.11	23
2549.01	29
2549.92	20
2550.82	28
2551.72	24
2552.62	25.5
2553.52	22
2554.42	27
2555.33	22.5
2556.23	22
2557.13	30
2558.03	23
2558.93	23
2559.83	21
2560.73	24.5
2561.63	27
2562.53	26.5
2563.43	24.5
2564.33	26
2565.24	29
2566.13	23.5
2567.04	25
2567.93	25
2568.83	25
2569.73	28.5
2570.63	24.5
2571.53	26.5
2572.43	23
2573.33	28
2574.23	26.5
2575.13	24.5
2576.03	27
2576.92	24.5
2577.82	26.5
2578.72	23.5
2579.62	26
2580.52	24
2581.41	27
2582.31	26
2583.21	23.5
2584.11	22.5
2585	21
2585.9	24
2586.8	24
2587.69	20
2588.59	23.5
2589.49	21.5
2590.38	25
2591.28	27.5
2592.18	21.5
2593.07	22
2593.97	27.5
2594.86	26
2595.76	26
2596.66	26
2597.55	24.5
2598.45	25
2599.34	26.5
2600.24	27.5
2601.13	26
2602.03	24
2602.92	27.5
2603.81	23.5
2604.71	23.5
2605.6	28
2606.5	26.5
2607.39	26
2608.28	24.5
2609.18	28.5
2610.07	22
2610.97	21
2611.86	23.5
2612.75	22.5
2613.64	25
2614.54	26.5
2615.43	25
2616.32	21.5
2617.22	25
2618.11	24
2619	24
2619.89	22.5
2620.78	26
2621.68	21
2622.57	21.5
2623.46	27
2624.35	26
2625.24	23
2626.13	27.5
2627.02	23
2627.91	22
2628.81	28
2629.7	26.5
2630.59	24
2631.48	22.5
2632.37	26
2633.26	25
2634.15	26
2635.04	23
2635.93	29
2636.82	25
2637.71	25
2638.59	22.5
2639.48	28.5
2640.37	28
2641.26	23
2642.15	26.5
2643.04	22.5
2643.93	25
2644.82	27
2645.71	21
2646.59	24
2647.48	25.5
2648.37	21
2649.26	20.5
2650.15	26
2651.03	25
2651.92	25
2652.81	24
2653.69	21.5
2654.58	22
2655.47	26
2656.35	28
2657.24	25
2658.13	26
2659.01	19
2659.9	25
2660.79	21
2661.67	24
2662.56	22.5
2663.44	26
2664.33	26.5
2665.22	27.5
2666.1	24.5
2666.99	23
2667.87	23.5
2668.76	26
2669.64	27
2670.52	24
2671.41	25.5
2672.29	25
2673.18	23
2674.06	23.5
2674.95	25.5
2675.83	23.5
2676.71	25
2677.6	23
2678.48	26
2679.36	24
2680.25	24
2681.13	25.5
2682.01	28.5
2682.9	23.5
2683.78	27
2684.66	22.5
2685.55	24.5
2686.43	25
2687.31	24.5
2688.19	26
2689.07	25
2689.96	24
2690.84	24
2691.72	23.5
2692.6	29.5
2693.48	25.5
2694.36	23.5
2695.24	24
2696.12	20.5
2697	24.5
2697.89	22.5
2698.77	25
2699.65	23.5
2700.53	23
2701.41	24.5
2702.29	25.5
2703.17	27
2704.05	24
2704.93	24
2705.81	23
2706.69	19.5
2707.57	25
2708.44	27
2709.32	26.5
2710.2	21
2711.08	21
2711.96	22
2712.84	25
2713.72	28
2714.59	22.5
2715.47	27
2716.35	26.5
2717.23	24
2718.11	22
2718.98	29
2719.86	24
2720.74	26.5
2721.62	20.5
2722.49	22.5
2723.37	23
2724.25	24.5
2725.12	22
2726	24.5
2726.88	28
2727.75	24.5
2728.63	26.5
2729.51	25
2730.38	23
2731.26	24
2732.13	25
2733.01	27
2733.88	27
2734.76	26
2735.63	25
2736.51	27.5
2737.38	26
2738.26	22.5
2739.13	19
2740.01	22
2740.88	22
2741.76	22.5
2742.63	26
2743.5	24.5
2744.38	23.5
2745.25	26
2746.13	22
2747	26
2747.87	25
2748.75	23.5
2749.62	26.5
2750.49	24.5
2751.36	31
2752.24	23.5
2753.11	21.5
2753.98	24.5
2754.86	26
2755.73	21.5
2756.6	23
2757.47	23.5
2758.34	23
2759.22	23
2760.09	25
2760.96	24
2761.83	25
2762.7	22.5
2763.57	28
2764.44	24.5
2765.31	25
2766.18	22
2767.06	25
2767.93	27.5
2768.8	24
2769.67	23.5
2770.54	24
2771.41	19.5
2772.28	21
2773.15	22
2774.02	26
2774.89	27
2775.75	23
2776.62	27
2777.49	24.5
2778.36	25
2779.23	24.5
2780.1	23.5
2780.97	28
2781.84	26
2782.71	21
2783.57	23.5
2784.44	27
2785.31	28
2786.18	23
2787.04	27.5
2787.91	25
2788.78	31.5
2789.65	25.5
2790.51	27.5
2791.38	24.5
2792.25	28.5
2793.12	24
2793.98	26.5
2794.85	24
2795.72	27
2796.58	25.5
2797.45	24
2798.31	21.5
2799.18	24
2800.05	27.5
2800.91	27.75
2801.78	27
2802.64	21.5
2803.51	25.5
2804.37	33
2805.24	24.5
2806.1	28
2806.97	25
2807.83	27.5
2808.7	26
2809.56	32.5
2810.43	27
2811.29	25
2812.15	27
2813.02	25.5
2813.88	29
2814.75	24.5
2815.61	24.5
2816.47	27
2817.34	28
2818.2	26.5
2819.06	28
2819.92	27
2820.79	26.5
2821.65	26
2822.51	26.5
2823.37	25
2824.24	23.5
2825.1	25.5
2825.96	25.5
2826.82	27
2827.69	26
2828.55	26
2829.41	27.5
2830.27	25.5
2831.13	23.5
2831.99	28.5
2832.85	21.5
2833.71	26
2834.58	26.5
2835.44	23
2836.3	27
2837.16	27
2838.02	23
2838.88	24
2839.74	24.5
2840.6	26
2841.46	25
2842.32	29
2843.18	25.5
2844.04	28.5
2844.9	26.5
2845.75	24.5
2846.61	26.5
2847.47	27.5
2848.33	26
2849.19	22.5
2850.05	22
2850.91	21.5
2851.77	24.5
2852.62	24
2853.48	25.5
2854.34	24
2855.2	27
2856.06	26
2856.91	25
2857.77	23.5
2858.63	25.5
2859.48	29
2860.34	31
2861.2	26.5
2862.06	26
2862.91	27
2863.77	26.5
2864.63	28.5
2865.48	28
2866.34	30
2867.19	28.5
2868.05	26
2868.91	26
2869.76	26
2870.62	26.5
2871.47	29.5
2872.33	30.5
2873.18	30
2874.04	29.5
2874.89	26.5
2875.75	30.5
2876.6	27.5
2877.46	29.5
2878.31	31.5
2879.17	29
2880.02	27
2880.88	30.5
2881.73	31.5
2882.58	30.5
2883.44	34
2884.29	33
2885.14	35
2886	35
2886.85	35.5
2887.7	35.5
2888.56	35.5
2889.41	29.5
2890.26	37
2891.12	40
2891.97	43
2892.82	36.5
2893.67	43.5
2894.52	43.5
2895.38	46.5
2896.23	47.5
2897.08	57.5
2897.93	44.5
2898.78	52
2899.64	60
2900.49	56.5
2901.34	61.5
2902.19	64.5
2903.04	58
2903.89	62
2904.74	67.5
2905.59	62
2906.44	68
2907.29	68.5
2908.14	69
2908.99	67
2909.84	58.5
2910.69	63.5
2911.54	55
2912.39	54
2913.24	55.5
2914.09	52
2914.94	45.5
2915.79	46.5
2916.64	43.5
2917.49	41.5
2918.34	36
2919.18	42.5
2920.03	41
2920.88	33.5
2921.73	35.5
2922.58	35.5
2923.42	33
2924.27	32.5
2925.12	33
2925.97	32.5
2926.82	33
2927.66	27
2928.51	31
2929.36	28
2930.2	31
2931.05	28.5
2931.9	31.5
2932.74	25
2933.59	29
2934.44	26.5
2935.28	28
2936.13	23.5
2936.98	30
2937.82	24.5
2938.67	29
2939.51	24.5
2940.36	25.5
2941.2	28
2942.05	24
2942.9	28
2943.74	27
2944.58	24
2945.43	32.5
2946.27	24.5
2947.12	25
2947.96	27
2948.81	33.5
2949.65	32.5
2950.5	32.5
2951.34	30.5
2952.18	35
2953.03	29
2953.87	31.5
2954.71	35
2955.56	38
2956.4	30
2957.24	35
2958.09	38
2958.93	36.5
2959.77	38.5
2960.62	38
2961.46	39
2962.3	41.5
2963.14	45.5
2963.98	39.5
2964.83	42
2965.67	45
2966.51	44
2967.35	43.5
2968.19	46.5
2969.04	38
2969.88	38.5
2970.72	39
2971.56	42.4539
2972.4	40.8475
2973.24	37.9848
2974.08	32.1964
2974.92	34.1176
2975.76	36.3069
2976.6	32.0252
2977.44	31.4573
2978.28	34.4338
2979.12	30.9298
2979.96	30.9208
2980.8	29.4266
2981.64	31.3891
2982.48	28.5724
2983.32	28.2372
2984.16	26.4328
2985	28.0611
2985.84	29.4714
2986.68	27.5325
2987.52	30.5454
2988.35	25.9108
2989.19	27.8243
2990.03	28.8606
2990.87	26.1207
2991.71	24.8586
2992.55	24.7408
2993.38	25.6239
2994.22	23.0752
2995.06	24.9532
2995.9	23.3525
2996.73	22.0945
2997.57	25.3883
2998.41	23.5238
2999.25	25.9944
3000.08	24.1723
3000.92	24.7396
3001.76	25.9398
3002.59	23.2283
3003.43	27.33
3004.27	25.6195
3005.1	21.8614
3005.94	25.5833
3006.78	24.4126
3007.61	25.1965
3008.45	23.4739
3009.28	24.6084
3010.12	22.027
3010.95	22.3607
3011.79	23.7998
3012.62	21.8997
3013.46	22.4445
3014.29	22.3603
3015.13	23.8839
3015.96	21.5048
3016.8	24.1616
3017.63	23.5671
3018.47	22.7081
3019.3	22.7365
3020.14	24.8334
3020.97	25.4409
3021.8	24.5387
3022.64	23.3058
3023.47	24.5887
3024.3	22.522
3025.14	21.6951
3025.97	20.3821
3026.8	22.9889
3027.64	22.6214
3028.47	22.5165
3029.3	22.4793
3030.14	24.0756
3030.97	24.1985
3031.8	21.8113
3032.63	23.9894
3033.46	24.5872
3034.3	23.5715
3035.13	26.1154
3035.96	23.6875
3036.79	23.4331
3037.62	25.1569
3038.46	24.4473
3039.29	23.4405
3040.12	23.6567
3040.95	23.2512
3041.78	21.109
3042.61	23.7997
3043.44	24.5295
3044.27	21.411
3045.1	21.8914
3045.93	21.7725
3046.76	21.6209
3047.59	25.4732
3048.42	24.2409
3049.25	24.0429
3050.08	25.1907
3050.91	24.8726
3051.74	23.5684
3052.57	23.1807
3053.4	21.9053
3054.23	21.0518
3055.06	23.4044
3055.89	24.254
3056.72	24.0373
3057.32	25.5
3058.15	25.5
3058.98	23.5
3059.82	22.5
3060.65	24
3061.48	23
3062.31	26
3063.15	25.5
3063.98	22
3064.81	22.5
3065.64	25
3066.48	24.5
3067.31	24
3068.14	21
3068.97	24
3069.8	23
3070.63	22
3071.47	22.5
3072.3	26.5
3073.13	24
3073.96	24.5
3074.79	24
3075.62	22
3076.45	20.5
3077.28	23.5
3078.11	24
3078.94	23
3079.77	21.5
3080.6	21
3081.43	20.5
3082.26	26.5
3083.09	23.5
3083.92	24.5
3084.75	25
3085.58	23
3086.41	23.5
3087.24	22
3088.07	21
3088.9	25
3089.73	22.5
3090.55	26
3091.38	24
3092.21	19.5
3093.04	22
3093.87	24.5
3094.7	20.5
3095.52	22.5
3096.35	23.5
3097.18	22
3098.01	25.5
3098.84	25.5
3099.66	22
3100.49	22.5
3101.32	22.5
3102.14	21
3102.97	23
3103.8	23.5
3104.62	23.5
3105.45	25.5
3106.28	23.5
3107.1	22
3107.93	23.5
3108.76	19.5
3109.58	26.5
3110.41	26
3111.23	18.5
3112.06	25
3112.89	24
3113.71	24
3114.54	25.5
3115.36	21
3116.19	20.5
3117.01	25
3117.84	26.5
3118.66	23
3119.49	24.5
3120.31	24.5
3121.13	24.5
3121.96	25
3122.78	21.5
3123.61	28
3124.43	22
3125.25	22
3126.08	26.5
3126.9	22.5
3127.73	21.5
3128.55	23
3129.37	25
3130.19	19
3131.02	18.5
3131.84	23
3132.66	25
3133.49	24
3134.31	25.5
3135.13	23
3135.95	18
3136.78	23.5
3137.6	25
3138.42	25.5
3139.24	23
3140.06	30.5
3140.88	24
3141.71	27.5
3142.53	26.5
3143.35	23
3144.17	22
3144.99	24.5
3145.81	24.5
3146.63	27.5
3147.45	24
3148.27	24.5
3149.09	23.5
3149.91	23
3150.73	21
3151.56	26.5
3152.37	23
3153.2	24
3154.01	21
3154.83	19.5
3155.65	21
3156.47	27
3157.29	21
3158.11	27.5
3158.93	22
3159.75	22
3160.57	22
3161.39	21
3162.21	25
3163.02	22
3163.84	28
3164.66	21.5
3165.48	25
3166.3	22
3167.11	25.5
3167.93	26
3168.75	25.5
3169.57	25
3170.39	26
3171.2	20
3172.02	25.5
3172.84	22.5
3173.65	25.5
3174.47	23
3175.29	25.5
3176.1	24.5
3176.92	24
3177.74	22
3178.55	22.5
3179.37	29.5
3180.19	22
3181	22
3181.82	23
3182.63	19
3183.45	26
3184.27	25
3185.08	23
3185.9	22.5
3186.71	22
3187.53	21
3188.34	21
3189.16	25.5
3189.97	24
3190.79	27.5
3191.6	22
3192.41	23.5
3193.23	25
3194.04	20
3194.86	23.5
3195.67	20.5
3196.48	25
3197.3	22
3198.11	27
3198.93	22.5
3199.74	24
3200.55	24.5
3201.36	22
3202.18	23
3202.99	23
3203.8	27.5
3204.62	22
3205.43	25.5
3206.24	25.5
3207.05	25
3207.87	23.5
3208.68	20
3209.49	24.5
3210.3	21.5
3211.11	24.5
3211.93	21
3212.74	22.5
3213.55	22
3214.36	21
3215.17	24.5
3215.98	23.5
3216.79	24.5
3217.6	22.5
3218.41	24.5
3219.22	25
3220.03	21
3220.85	25.5
3221.66	23
3222.47	22
3223.28	23
3224.09	26
3224.9	26
3225.71	25.5
3226.52	23.5
3227.33	23
3228.13	25.5
3228.94	25
3229.75	23
3230.56	26.5
3231.37	23
3232.18	27
3232.99	25
3233.8	28
3234.61	24
3235.41	21.5
3236.22	21.5
3237.03	26
3237.84	21.5
3238.65	26
3239.45	18.5
3240.26	23
3241.07	24
3241.88	24
3242.68	24
3243.49	25
3244.3	21
3245.1	22
3245.91	23
3246.72	27
3247.53	25.5
3248.33	26
3249.14	21
3249.95	24
3250.75	24.5
3251.56	20
3252.36	23.5
3253.17	23.5
3253.97	23
3254.78	26
3255.59	20.5
3256.39	21.5
3257.2	21.5
3258	26.5
3258.81	19
3259.61	27
3260.42	23
3261.22	28
3262.03	24
3262.83	25.5
3263.64	28
3264.44	27.5
3265.24	23
3266.05	22
3266.85	23
3267.66	23.5
3268.46	20
3269.26	21.5
3270.07	25.5
3270.87	25
3271.67	25.5
3272.48	24.5
3273.28	22
3274.08	21.5
3274.89	21
3275.69	23
3276.49	23.5
3277.29	28
3278.1	23
3278.9	24
3279.7	24.5
3280.5	26
3281.3	21.5
3282.11	22.5
3282.91	27
3283.71	24
3284.51	25.5
3285.31	25
3286.11	25.5
3286.91	25
3287.72	26
3288.52	23.5
3289.32	24.5
3290.12	24
3290.92	26.5
3291.72	24.5
3292.52	23.5
3293.32	22
3294.12	25
3294.92	26
3295.72	23
3296.52	24.5
3297.32	23
3298.12	25.5
3298.92	22.5
3299.72	21
3300.52	28
3301.32	24.5
3302.12	26.5
3302.92	26
3303.71	23.5
3304.51	23.5
3305.31	26.5
3306.11	23.5
3306.91	21
3307.71	23
3308.5	26.5
3309.3	25.5
3310.1	24.5
3310.9	21
3311.7	22
3312.49	26.5
3313.29	25.5
3314.09	23
3314.89	29
3315.68	28
3316.48	24
3317.28	20
3318.07	24
3318.87	26
3319.67	24.5
3320.46	26.5
3321.26	24
3322.06	26
3322.85	21.5
3323.65	24.5
3324.44	21
3325.24	20.5
3326.04	26
3326.83	22.5
3327.63	25.5
3328.42	23
3329.22	23.5
3330.01	26
3330.81	22.5
3331.6	21
3332.4	26
3333.19	28.5
3333.99	28.5
3334.78	24
3335.58	26
3336.37	25
3337.17	23
3337.96	25
3338.75	19
3339.55	25.5
3340.34	23.5
3341.13	24
3341.93	21.5
3342.72	26
3343.51	26.5
3344.31	23.5
3345.1	24.5
3345.89	25
3346.69	26
3347.48	27.5
3348.27	25
3349.06	25
3349.86	25.5
3350.65	24
3351.44	25
3352.23	24
3353.03	25
3353.82	21.5
3354.61	23
3355.4	24
3356.19	27.5
3356.98	24.5
3357.78	28.5
3358.57	18
3359.36	22.5
3360.15	24.5
3360.94	23
3361.73	25
3362.52	26.5
3363.31	24
3364.1	23.5
3364.89	19.5
3365.68	24.5
3366.47	25.5
3367.26	25
3368.05	28.5
3368.84	18
3369.63	22.5
3370.42	24
3371.21	27
3372	24
3372.79	25.5
3373.58	22.5
3374.37	26.5
3375.16	26.5
3375.95	28
3376.73	25
3377.52	23
3378.31	27
3379.1	24.5
3379.89	21.5
3380.68	24
3381.46	25
3382.25	22
3383.04	26
3383.83	25
3384.62	24
3385.4	25.5
3386.19	24.5
3386.98	21.5
3387.76	23
3388.55	23.5
3389.34	26
3390.13	25.5
3390.91	24
3391.7	22.5
3392.49	21
3393.27	23.5
3394.06	24
3394.84	27.5
3395.63	25
3396.42	26.5
3397.2	19.5
3397.99	22.5
3398.77	24
3399.56	22.5
3400.34	25
3401.13	21.5
3401.92	25
3402.7	19.5
3403.49	23.5
3404.27	24
3405.06	23.5
3405.84	26
3406.62	25.5
3407.41	24.5
3408.19	21.5
3408.98	21.5
3409.76	22
3410.55	22
3411.33	22
3412.11	25.5
3412.9	22.5
3413.68	30.5
3414.46	21
3415.25	24.5
3416.03	24.5
3416.81	29
3417.6	23
3418.38	28
3419.16	25
3419.95	25
3420.73	26.5
3421.51	26.5
3422.29	23
3423.08	24
3423.86	20.5
3424.64	23.5
3425.42	27
3426.2	24
3426.98	21.5
3427.77	20
3428.55	26
3429.33	22.5
3430.11	23
3430.89	23.5
3431.67	22.5
3432.45	23
3433.24	24.5
3434.02	25.5
3434.8	23
3435.58	24.5
3436.36	24
3437.14	22
3437.92	27
3438.7	20.5
3439.48	24
3440.26	25
3441.04	22.5
3441.82	26.5
3442.6	22
3443.38	22
3444.16	24
3444.94	23.5
3445.71	27
3446.49	27.5
3447.27	25
3448.05	23.5
3448.83	25
3449.61	24.5
3450.39	24
3451.17	25.5
3451.94	27
3452.72	26
3453.5	25
3454.28	23
3455.06	23
3455.83	24.5
3456.61	20
3457.39	22.5
3458.17	20
3458.94	21.5
3459.72	22
3460.5	24
3461.28	27.5
3462.05	23.5
3462.83	24
3463.61	28.5
3464.38	28.5
3465.16	25
3465.93	24.5
3466.71	25
3467.49	27.5
3468.26	27.5
3469.04	25.5
3469.82	23
3470.59	29.5
3471.37	20.5
3472.14	25
3472.92	24
3473.69	23
3474.47	24.5
3475.24	25
3476.02	26
3476.79	23
3477.57	25.5
3478.34	23
3479.12	24
3479.89	26
3480.67	22
3481.44	22
3482.21	24
3482.99	22
3483.76	20
3484.54	27
3485.31	26
3486.08	21.5
3486.86	27
3487.63	21
3488.4	26.5
3489.18	24
3489.95	27.5
3490.72	22.5
3491.5	23
3492.27	24.5
3493.04	22.5
3493.81	25
3494.59	22.5
3495.36	23
3496.13	23
3496.9	21.5
3497.67	22
3498.45	22
3499.22	20
3499.99	23.5
