#Acq. time (s)=	5
#Accumulations=	5
#Range (cm-¹)=	100...3500
#Windows=	4
#Autofocus=	Off
#AutoExposure=	Off
#Spike filter=	Multiple accum.
#Delay time (s)=	0
#Binning=	1
#Readout mode=	Signal
#DeNoise=	Off
#ICS correction=	Off
#Dark correction=	Off
#Inst. Process=	Off
#Instrument=	LabRAM HR Evol
#Detector=	Syncerity OE
#Objective=	x100_VIS
#Grating=	600 (500nm)
#ND Filter=	25%
#Laser=	633nm_Edge
#Hole=	100.021
#Range=	Visible
#Project=	verificaciones
#Sample=	a5
#Site=	plain
#Title=	bolusa5plain
#Remark=	
#Date=	09.01.2026 14:18
#Acquired=	09.01.2026 14:18:42
100.695	32
101.978	27.5
103.262	35
104.545	34
105.829	29
107.112	30
108.394	27
109.676	32.5
110.958	32
112.24	34
113.522	32.5
114.803	32
116.084	29
117.365	32.5
118.646	30
119.927	28
121.207	36
122.487	34
123.767	32.5
125.047	31
126.326	30.5
127.606	31
128.885	34
130.164	32.5
131.442	34
132.721	34.5
133.999	35.5
135.277	32.5
136.555	37
137.831	39
139.109	33.5
140.386	38.5
141.663	34.5
142.94	40
144.216	40
145.493	37.5
146.769	38
148.043	41
149.319	36
150.595	40.5
151.87	34
153.145	40.5
154.42	37
155.693	42
156.968	39.5
158.242	39
159.516	40.5
160.79	35.5
162.062	42
163.336	39
164.609	41.5
165.882	46
167.153	34
168.426	37.5
169.699	35
170.971	37.5
172.241	38.5
173.513	42
174.785	36.5
176.055	35.5
177.326	43
178.597	40.5
179.866	38.5
181.137	39
182.407	39.5
183.676	40.5
184.946	39
186.216	42
187.484	43.5
188.753	43.5
190.022	39.5
191.29	41.5
192.558	41
193.825	39
195.094	38.5
196.36	40
197.628	38
198.896	38
200.162	35.5
201.429	35
202.695	39
203.962	34
205.227	35.5
206.493	35.5
207.758	34.5
209.024	33
210.289	36
211.554	37.5
212.818	28
214.083	33.5
215.347	34
216.612	34.5
217.875	30
219.138	35.5
220.402	34
221.665	35
222.928	27.5
224.19	35.5
225.454	37.5
226.715	32
227.977	33
229.24	27.5
230.501	31
231.762	32.5
233.024	29
234.284	32
235.546	34
236.806	31.5
238.066	33.5
239.327	28
240.587	30
241.846	27
243.105	30
244.365	35
245.624	28
246.882	31
248.142	27
249.4	32.5
250.658	30.5
251.916	29.5
253.174	27
254.432	29
255.689	28
256.945	26.5
258.202	30.5
259.46	29
260.716	30.5
261.972	29
263.228	27.5
264.483	28
265.74	28
266.996	32.5
268.251	31
269.505	27.5
270.76	33.5
272.014	28
273.268	28.5
274.522	29
275.778	28.5
277.031	26.5
278.285	27.5
279.538	32.5
280.791	28
282.043	27
283.296	32.5
284.548	28
285.8	29.5
287.052	32
288.304	27
289.556	26.5
290.807	27.5
292.058	28
293.309	25
294.56	27.5
295.81	24.5
297.061	26.5
298.311	30
299.561	28
300.81	24
302.06	25.5
303.309	26
304.558	27.5
305.807	29.5
307.056	31
308.305	27
309.551	31
310.8	26
312.047	29.5
313.295	28.5
314.543	27.5
315.79	30
317.037	30
318.284	28
319.529	34
320.776	27
322.022	31
323.268	26.5
324.514	26
325.758	28
327.004	29.5
328.249	30
329.494	33
330.739	26
331.982	24
333.227	25
334.471	28.5
335.715	31.5
336.958	27.5
338.201	29
339.445	28
340.687	30
341.93	31
343.173	29.5
344.414	27
345.657	27
346.899	25
348.14	25
349.381	31.5
350.623	28.5
351.863	31
353.104	29.5
354.346	28
355.585	32
356.826	26
358.065	32
359.305	28
360.545	26.5
361.784	27
363.023	23
364.261	26
365.501	29
366.738	29.5
367.977	31
369.216	23.5
370.453	27.5
371.691	32
372.928	26.5
374.166	23.5
375.402	28.5
376.64	24.5
377.876	29
379.111	30
380.348	26
381.584	28
382.82	28
384.055	30
385.291	29
386.526	26
387.76	29.5
388.996	29.5
390.229	28
391.465	26.5
392.698	28
393.931	27.5
395.166	28
396.399	28.5
397.632	28
398.866	26
400.098	28.5
401.33	26
402.563	27
403.795	29
405.027	25.5
406.259	31
407.491	21
408.721	29.5
409.954	31.5
411.184	26
412.415	27
413.645	26
414.876	28.5
416.106	26.5
417.335	28
418.565	29
419.794	30
421.024	26
422.253	27
423.482	27
424.71	28
425.938	29.5
427.168	27
428.396	27.5
429.623	29.5
430.851	28.5
432.078	27
433.305	30.5
434.532	27.5
435.758	30
436.986	24.5
438.212	27
439.438	29
440.664	26.5
441.89	29
443.115	30
444.34	32
445.566	27
446.79	33
448.015	26.5
449.24	29.5
450.464	28.5
451.688	28
452.912	30.5
454.135	28
455.359	26
456.582	31
457.805	30
459.028	27
460.251	32.5
461.473	32
462.696	31
463.918	30.5
465.14	30.5
466.36	34
467.582	32
468.803	35
470.024	31.5
471.245	32
472.466	31
473.686	36
474.907	35
476.126	37
477.346	38
478.565	36
479.785	41.5
481.004	45
482.224	50
483.441	52
484.66	53
485.879	51.5
487.097	52.5
488.314	58
489.532	61.5
490.75	55.5
491.967	55.5
493.184	51
494.401	53.5
495.618	52.5
496.835	50.5
498.05	49.5
499.267	43.5
500.483	44
501.698	42
502.913	45
504.129	45
505.343	35
506.559	40.5
507.774	35
508.987	31.5
510.202	33.5
511.415	33
512.63	35
513.844	29
515.056	35
516.27	31
517.482	32.5
518.696	37.5
519.907	32
521.121	28
522.332	33
523.545	28
524.757	35.5
525.968	30.5
527.18	29.5
528.39	31.5
529.602	29
530.812	28
532.023	32.5
533.233	27
534.443	32.5
535.653	28
536.862	28.5
538.073	29.5
539.281	27.5
540.491	27.5
541.7	26.5
542.908	28.5
544.117	30.5
545.325	29
546.534	34
547.741	29
548.949	31
550.157	25
551.364	27
552.57	29
553.778	28.5
554.985	29.5
556.191	26.5
557.398	32.5
558.604	26
559.809	23.5
561.014	27
562.221	26.5
563.426	30.5
564.63	29.5
565.835	31
567.041	28.5
568.245	24.5
569.449	32.5
570.653	29
571.856	26.5
573.061	25
574.264	31.5
575.467	29.5
576.67	28.5
577.873	29.5
579.076	29
580.279	31
581.481	28
582.683	29.5
583.884	30.5
585.086	26.5
586.287	25.5
587.488	29.5
588.689	31
589.891	31
591.092	30
592.292	25.5
593.492	31
594.692	26.5
595.892	24.5
597.092	30.5
598.291	28.5
599.49	32
600.689	30
601.888	29.5
603.087	31.5
604.285	27.5
605.483	30
606.681	28
607.879	26
609.077	24.5
610.274	27
611.472	31.5
612.668	30
613.865	23.5
615.061	29.5
616.258	29.5
617.454	30.5
618.65	27.5
619.846	26.5
621.042	25
622.238	28
623.432	26.5
624.627	27.5
625.822	28.5
627.017	33
628.212	29.5
629.406	30.5
630.599	25.5
631.793	23
632.987	23
634.181	28
635.373	29
636.566	25
637.76	30.5
638.953	30.5
640.144	34
641.337	31
642.529	30.5
643.721	27
644.912	26.5
646.104	27.5
647.295	25
648.485	28
649.677	31.5
650.868	25.5
652.057	33.5
653.248	26.5
654.437	31
655.628	24.5
656.818	30.5
658.006	27
659.196	29.5
660.384	30.5
661.574	32
662.763	30
663.951	28.5
665.14	29.5
666.327	35
667.515	28
668.702	30.5
669.891	29
671.077	27.5
672.265	31.5
673.451	25
674.638	33.5
675.824	31
677.011	32.5
678.197	32
679.383	34.5
680.568	31
681.755	33.5
682.939	33
684.124	36.5
685.309	35.5
686.494	33
687.679	35
688.863	35.5
690.046	35
691.231	32
692.414	32
693.599	31.5
694.781	30.5
695.964	39.5
697.148	35.5
698.33	34
699.512	36.5
700.694	37
701.877	37
703.059	36.5
704.24	38.5
705.423	46
706.604	48
707.784	44.5
708.965	48.5
710.147	48.5
711.327	52
712.507	44.5
713.687	42
714.867	33.5
716.048	30
717.227	40
718.406	37
719.585	31
720.764	28
721.942	30.5
723.122	31
724.3	28.5
725.478	27
726.656	28.5
727.834	30
729.011	25.5
730.189	30
731.366	29
732.543	24.5
733.719	29.5
734.896	29
736.072	25
737.249	27.5
738.426	26
739.602	27
740.777	29
741.953	27.5
743.128	27
744.303	26
745.477	29
746.651	32
747.826	28.5
749	30
750.174	26.5
751.348	29
752.522	26.5
753.696	27
754.869	29.5
756.043	24
757.216	25
758.389	27
759.561	28.5
760.732	27.5
761.905	30
763.077	27
764.249	26
765.421	26.5
766.592	25
767.762	28.5
768.934	30
770.105	29
771.275	22
772.446	25
773.615	28
774.786	25.5
775.956	29
777.126	33.5
778.294	32
779.464	28
780.633	26
781.801	27
782.97	32.5
784.139	31.5
785.306	28.5
786.475	33.5
787.643	29
788.81	33
789.978	28
791.146	28
792.312	29
793.479	29.5
794.647	29.5
795.812	31.5
796.979	25
798.144	28
799.311	22.5
800.477	29
801.642	28.5
802.808	29.5
803.972	26
805.138	28
806.302	26
807.467	27.5
808.631	26
809.796	27
810.959	29.5
812.124	30
813.287	29.5
814.451	25
815.614	28.5
816.777	24
817.94	25
819.102	27
820.265	25
821.427	29
822.59	28
823.751	25.5
824.912	30
826.074	28.5
827.235	27
828.397	27
829.558	22.5
830.718	28
831.879	24
833.039	27
834.199	26.5
835.359	25.5
836.519	27.5
837.679	27.5
838.838	26
839.998	29.5
841.156	28.5
842.315	24
843.473	31.5
844.633	32.5
845.791	31
846.948	24
848.106	31.5
849.263	27.5
850.422	29
851.579	27
852.736	31.5
853.892	27.5
855.049	24.5
856.205	29
857.363	27
858.519	26
859.674	31
860.83	30.5
861.986	28.5
863.141	35
864.296	31
865.451	28
866.605	31
867.76	29
868.914	29
870.069	29.5
871.224	27
872.378	26
873.531	29.5
874.685	28.5
875.838	25
876.991	29.5
878.144	26
879.296	25.5
880.448	28.5
881.6	29.5
882.753	24
883.905	28
885.057	26
886.208	26.5
887.36	24
888.511	25.5
889.662	29.5
890.813	27
891.964	25.5
893.113	25
894.264	25.5
895.414	28.5
896.564	25
897.714	27.5
898.864	26
900.012	24.5
901.161	25.5
902.31	28
903.459	26.5
904.607	26
905.756	23
906.904	31
908.052	24.5
909.199	28
910.347	26
911.495	28.5
912.643	25
913.789	24
914.936	25.5
916.083	25
917.229	24
918.375	28
919.522	29.5
920.667	27
921.813	28
922.959	30.5
924.104	26.5
925.249	29.5
926.393	28
927.539	26.5
928.684	24
929.827	28
930.972	28
932.115	27
933.26	24
934.403	25
935.547	22.5
936.689	30
937.833	25
938.975	26
940.119	29
941.26	24
942.404	29
943.545	28
944.688	25
945.829	26.5
946.971	23
948.112	20
949.253	28.5
950.394	26.5
951.535	24
952.676	26.5
953.816	25
954.956	25
956.097	24
957.236	27
958.377	26
959.516	28.5
960.655	28
961.793	26
962.933	25.5
964.071	27.5
965.21	22
966.349	27
967.487	24
968.624	27
969.762	23
970.901	24.5
972.038	24.5
973.175	25.5
974.311	22.5
975.449	27.5
976.586	24.5
977.722	26
978.858	25.5
979.994	27
981.131	22.5
982.267	27.5
983.402	27.5
984.537	26
985.672	25
986.807	28.5
987.942	27
989.076	28.5
990.211	28.5
991.346	25
992.48	22.5
993.614	28
994.748	26
995.881	22
997.014	26.5
998.148	28.5
999.28	24
1000.41	27
1001.55	26.5
1002.68	23
1003.81	26
1004.94	25.5
1006.07	28.5
1007.21	25
1008.34	30
1009.47	23.5
1010.6	24.5
1011.73	22.5
1012.86	25
1013.99	23
1015.12	23.5
1016.25	26
1017.38	30.5
1018.51	25.5
1019.64	24
1020.77	27
1021.9	27
1023.03	23
1024.16	22
1025.29	26.5
1026.42	25
1027.54	25
1028.67	26.5
1029.8	24
1030.93	24.5
1032.06	26.5
1033.18	29.5
1034.31	28
1035.44	26
1036.56	28
1037.69	25
1038.82	25.5
1039.94	24.5
1041.07	24
1042.2	20.5
1043.32	23
1044.45	28.5
1045.57	22
1046.7	26
1047.82	27
1048.95	27
1050.07	25
1051.2	27
1052.32	26.5
1053.45	27
1054.57	26.5
1055.69	28
1056.82	28
1057.94	23
1059.06	23.5
1060.19	22
1061.31	26.5
1062.43	27.5
1063.55	28
1064.68	27
1065.8	30.5
1066.92	27
1068.04	24
1069.16	30.5
1070.28	27
1071.41	23.5
1072.53	27.5
1073.65	25.5
1074.77	24
1075.89	25
1077.01	23
1078.13	24
1079.25	26.5
1080.37	28.5
1081.49	24
1082.61	24
1083.73	25
1084.85	25
1085.96	25
1087.08	25.5
1088.2	28
1089.32	24.5
1090.44	24
1091.56	26
1092.67	29
1093.79	24
1094.91	22.5
1096.03	26
1097.14	25.5
1098.26	25.5
1099.38	24.5
1100.49	27
1101.61	23
1102.73	21.5
1103.84	24
1104.96	23
1106.07	24
1107.19	25
1108.3	29
1109.42	24
1110.53	26
1111.65	28.5
1112.76	23
1113.88	19.5
1114.99	24
1116.1	25.5
1117.22	20
1118.33	27
1119.44	25
1120.56	26
1121.67	25
1122.78	25
1123.9	28.5
1125.01	28
1126.12	23.5
1127.23	25.5
1128.34	24
1129.46	24.5
1130.57	25.5
1131.68	23
1132.79	27.5
1133.9	24.5
1135.01	26
1136.12	22.5
1137.23	26
1138.34	24
1139.45	25
1140.56	25
1141.67	30
1142.78	25
1143.89	22
1145	26.5
1146.11	23.5
1147.22	25.5
1148.33	21.5
1149.44	26
1150.54	25
1151.65	23
1152.76	25.5
1153.87	24.5
1154.97	23
1156.08	26
1157.19	26.5
1158.3	21
1159.4	25
1160.51	27
1161.62	21.5
1162.72	24.5
1163.83	29
1164.93	30
1166.04	25.5
1167.15	25
1168.25	27
1169.36	25.5
1170.46	24
1171.57	25.5
1172.67	24
1173.78	24.5
1174.88	24
1175.98	27
1177.09	27.5
1178.19	24.5
1179.3	22.5
1180.4	26
1181.5	26
1182.61	21.5
1183.71	24
1184.81	24
1185.91	25
1187.02	30
1188.12	21
1189.22	22
1190.32	27
1191.42	25.5
1192.53	21
1193.63	24
1194.73	24.9851
1195.83	24.9453
1196.93	23.5405
1198.03	24.9734
1199.13	23.092
1200.23	26.4356
1201.33	23.1202
1202.43	25.0517
1203.53	23.9396
1204.63	25.977
1205.73	22.079
1206.83	20.9206
1207.93	24.5898
1209.02	24.4345
1210.12	26.5085
1211.22	25.1758
1212.32	20.7295
1213.42	25.9707
1214.52	24.5132
1215.61	23.9867
1216.71	25.4889
1217.81	24.5416
1218.91	25.894
1220	25.7033
1221.1	23.7256
1222.2	27.088
1223.29	26.5053
1224.39	24.2193
1225.49	23.0535
1226.58	26.0967
1227.68	24.5406
1228.77	24.732
1229.87	25.8545
1230.96	24.4963
1232.06	23.6252
1233.15	24.5062
1234.25	22.4277
1235.34	23.2067
1236.44	24.1556
1237.53	23.1159
1238.63	21.6737
1239.72	21.4369
1240.81	25.2864
1241.91	23.1371
1243	22.1996
1244.09	23.3529
1245.19	21.3348
1246.28	23.5456
1247.37	24.4395
1248.46	25.4024
1249.56	24.0485
1250.65	22.4965
1251.74	26.192
1252.83	24.4335
1253.92	21.8079
1255.01	26.9499
1256.11	23.5
1257.2	20.2139
1258.29	23.2671
1259.38	25.7211
1260.47	26.0947
1261.56	25.1491
1262.65	26.3273
1263.74	24.7065
1264.83	25.2888
1265.92	24.8092
1267.01	25.9703
1268.1	24.3578
1269.19	25.3667
1270.27	23.4271
1271.36	25.4277
1272.45	23.6942
1273.54	25.6612
1274.63	24.8163
1275.72	24.8757
1276.8	24.6675
1277.89	25.9257
1278.98	25.1056
1280.07	24.5557
1281.15	23.0605
1282.24	24.6459
1283.33	24.0233
1284.41	25.0658
1285.5	21.8707
1286.59	21.9095
1287.67	24.5483
1288.76	23.4517
1289.84	25.0667
1290.93	27.8897
1292.01	24.3009
1293.1	23.8014
1294.19	23.7389
1295.27	24.6543
1296.35	27.1235
1297.44	23.0137
1298.52	27.3938
1299.61	24.4346
1300.69	22.4677
1301.78	24.887
1302.86	25.6552
1303.94	24.4105
1305.03	26.9145
1306.11	26.1375
1306.4	25.5
1307.49	25
1308.57	24.5
1309.66	25
1310.75	19.5
1311.84	27
1312.92	25.5
1314.01	24
1315.1	23
1316.19	23
1317.27	25.5
1318.36	25
1319.45	23.5
1320.53	22
1321.62	23
1322.7	22
1323.79	24
1324.88	23
1325.96	24
1327.05	22.5
1328.13	21
1329.21	23
1330.3	22.5
1331.38	24.5
1332.47	26.5
1333.55	26
1334.64	21
1335.72	23.5
1336.8	21
1337.89	29
1338.97	31
1340.05	28.5
1341.14	25
1342.22	25
1343.3	27
1344.39	23
1345.47	27
1346.55	24
1347.63	24
1348.71	24
1349.79	23.5
1350.88	23
1351.96	24
1353.04	24.5
1354.12	19
1355.2	23.5
1356.28	24.5
1357.36	25
1358.44	24.5
1359.52	22
1360.6	26
1361.68	22.5
1362.76	26.5
1363.84	24.5
1364.92	24.5
1366	25
1367.08	22
1368.16	22.5
1369.23	24
1370.31	25.5
1371.39	24
1372.47	23.5
1373.55	26
1374.62	21.5
1375.7	24.5
1376.78	22.5
1377.85	26.5
1378.93	25.5
1380.01	26
1381.09	25
1382.16	27
1383.24	23
1384.31	22
1385.39	22
1386.47	24
1387.54	28.5
1388.62	25.5
1389.69	27
1390.77	23
1391.84	28.5
1392.92	28
1393.99	25
1395.06	23.5
1396.14	27
1397.21	26
1398.29	30.5
1399.36	29
1400.43	26.5
1401.51	30
1402.58	30
1403.65	27
1404.73	23.5
1405.8	28.5
1406.87	29
1407.94	32
1409.02	29
1410.09	31
1411.16	33
1412.23	33
1413.3	31
1414.37	35
1415.45	31
1416.52	29.5
1417.59	26.5
1418.66	27
1419.73	30
1420.8	23.5
1421.87	27
1422.94	25
1424.01	26.5
1425.08	29
1426.15	29
1427.22	26
1428.29	22.5
1429.35	29
1430.42	26
1431.49	28
1432.56	29
1433.63	28
1434.7	26.5
1435.77	28
1436.83	24
1437.9	23
1438.97	25.5
1440.04	25
1441.1	24
1442.17	24.5
1443.24	27
1444.3	26.5
1445.37	27
1446.44	26.5
1447.5	23
1448.57	27
1449.63	26
1450.7	26.5
1451.76	22.5
1452.83	27.5
1453.89	28.5
1454.96	24.5
1456.02	26
1457.09	27
1458.15	24
1459.22	26
1460.28	25
1461.34	24
1462.41	27
1463.47	24
1464.54	26.5
1465.6	26.5
1466.66	24
1467.72	25
1468.79	23
1469.85	27.5
1470.91	23.5
1471.97	23.5
1473.04	24.5
1474.1	20
1475.16	25
1476.22	23
1477.28	28
1478.34	24.5
1479.4	25
1480.47	19.5
1481.53	23.5
1482.59	25.5
1483.65	27
1484.71	27
1485.77	25.5
1486.83	24
1487.89	26
1488.95	27.5
1490.01	27
1491.07	25
1492.12	25
1493.18	25
1494.24	26.5
1495.3	25.5
1496.36	24.5
1497.42	28
1498.47	25.5
1499.53	26.5
1500.59	24
1501.65	24.5
1502.7	26.5
1503.76	22
1504.82	26.5
1505.88	25
1506.93	23.5
1507.99	27
1509.05	24
1510.1	25
1511.16	27
1512.21	26
1513.27	29
1514.32	20
1515.38	24.5
1516.43	26.5
1517.49	27
1518.54	27
1519.6	24
1520.65	26
1521.71	24
1522.76	26
1523.82	23.5
1524.87	25
1525.92	26
1526.98	25.5
1528.03	27
1529.08	24.5
1530.14	30
1531.19	27
1532.24	29.5
1533.3	30
1534.35	25.5
1535.4	26
1536.45	24.5
1537.5	28
1538.56	25
1539.61	24
1540.66	22
1541.71	27
1542.76	28.5
1543.81	29.5
1544.86	24
1545.91	25
1546.96	28.5
1548.01	26.5
1549.06	23
1550.11	26
1551.16	23.5
1552.21	28
1553.26	20
1554.31	26.5
1555.36	28.5
1556.41	25
1557.46	26
1558.51	27
1559.55	27.5
1560.6	29.5
1561.65	28
1562.7	30
1563.75	29
1564.79	24.5
1565.84	26.5
1566.89	25.5
1567.94	24.5
1568.98	32
1570.03	23.5
1571.07	27
1572.12	24.5
1573.17	24
1574.21	24
1575.26	24.5
1576.31	23
1577.35	26.5
1578.4	24
1579.44	23
1580.49	27.5
1581.53	27
1582.58	26
1583.62	26
1584.67	23.5
1585.71	23.5
1586.75	26.5
1587.8	28
1588.84	24
1589.89	26
1590.93	25
1591.97	24.5
1593.02	27
1594.06	26
1595.1	28
1596.14	26.5
1597.19	25
1598.23	30
1599.27	20.5
1600.31	28.5
1601.35	25.5
1602.4	23
1603.44	23
1604.48	28.5
1605.52	30
1606.56	30
1607.6	25.5
1608.64	25
1609.68	25
1610.72	27.5
1611.76	26.5
1612.8	23
1613.84	23.5
1614.88	25.5
1615.92	23
1616.96	25.5
1618	25.5
1619.04	26
1620.08	27.5
1621.12	26.5
1622.16	25
1623.19	27
1624.23	25.5
1625.27	26.5
1626.31	22
1627.35	23.5
1628.38	28
1629.42	25.5
1630.46	26.5
1631.5	25.5
1632.53	25.5
1633.57	25
1634.61	23.5
1635.64	26
1636.68	25
1637.71	26
1638.75	24.5
1639.79	25.5
1640.82	21.5
1641.86	27
1642.89	29.5
1643.93	26
1644.96	27.5
1646	26.5
1647.03	22.5
1648.07	26
1649.1	23.5
1650.14	22.5
1651.17	27
1652.2	25.5
1653.24	28
1654.27	27.5
1655.3	24
1656.34	25
1657.37	24
1658.4	25.5
1659.44	23
1660.47	26
1661.5	23.5
1662.53	25
1663.57	23
1664.6	24.5
1665.63	23.5
1666.66	24
1667.69	26.5
1668.72	23
1669.75	25
1670.79	21
1671.82	23
1672.85	20
1673.88	27
1674.91	19
1675.94	30
1676.97	26
1678	26
1679.03	27
1680.06	21.5
1681.09	26.5
1682.11	26.5
1683.14	26.5
1684.17	23.5
1685.2	26.5
1686.23	21
1687.26	29
1688.29	25
1689.32	20
1690.34	18.5
1691.37	28
1692.4	24
1693.43	24
1694.45	26
1695.48	21.5
1696.51	22.5
1697.53	23.5
1698.56	26
1699.59	24
1700.61	29
1701.64	22
1702.66	23.5
1703.69	24
1704.72	27
1705.74	26.5
1706.77	26
1707.79	25
1708.82	24
1709.84	24
1710.87	28.5
1711.89	24.5
1712.92	26
1713.94	26
1714.96	22.5
1715.99	24
1717.01	28.5
1718.04	24
1719.06	27.5
1720.08	24
1721.11	25.5
1722.13	26.5
1723.15	28
1724.17	26.5
1725.2	27.5
1726.22	26.5
1727.24	25
1728.26	22.5
1729.28	25
1730.31	22
1731.33	26
1732.35	24.5
1733.37	22
1734.39	26
1735.41	22
1736.43	24.5
1737.45	23
1738.47	29
1739.49	24.5
1740.51	20.5
1741.53	23
1742.55	27.5
1743.57	26
1744.59	26
1745.61	25.5
1746.63	22.5
1747.65	28.5
1748.67	26
1749.69	20.5
1750.71	24
1751.72	22.5
1752.74	29.5
1753.76	25.5
1754.78	30
1755.8	23
1756.81	27
1757.83	25
1758.85	26
1759.86	22
1760.88	24.5
1761.9	27.5
1762.91	25
1763.93	24.5
1764.95	19.5
1765.96	24
1766.98	27
1768	25.5
1769.01	27.5
1770.03	26.5
1771.04	20.5
1772.06	22.5
1773.07	25.5
1774.09	23
1775.1	26
1776.12	25
1777.13	24.5
1778.14	25.5
1779.16	27
1780.17	24.5
1781.19	23
1782.2	25
1783.21	23.5
1784.23	24.5
1785.24	22.5
1786.25	22.5
1787.27	25
1788.28	25.5
1789.29	22.5
1790.3	21.5
1791.32	20.5
1792.33	24
1793.34	27
1794.35	23
1795.36	21
1796.37	23
1797.38	21.5
1798.4	23
1799.41	23
1800.42	25
1801.43	21
1802.44	28
1803.45	23
1804.46	25
1805.47	24.5
1806.48	23.5
1807.49	23
1808.5	28.5
1809.51	26
1810.52	24
1811.53	28
1812.53	23
1813.54	25.5
1814.55	22
1815.56	22
1816.57	23
1817.58	23.5
1818.58	26
1819.59	24.5
1820.6	21
1821.61	26
1822.61	24.5
1823.62	28
1824.63	23.5
1825.64	21.5
1826.64	23.5
1827.65	21
1828.66	25
1829.66	24
1830.67	22
1831.67	27
1832.68	26
1833.68	24
1834.69	25
1835.7	22.5
1836.7	25
1837.71	23
1838.71	25
1839.71	25
1840.72	23
1841.72	23
1842.73	26
1843.73	23
1844.74	22.5
1845.74	24
1846.74	27
1847.75	27
1848.75	20
1849.75	25
1850.76	27.5
1851.76	22
1852.76	23
1853.76	22
1854.77	26.5
1855.77	25
1856.77	29.5
1857.77	27.5
1858.77	23
1859.78	25.5
1860.78	23
1861.78	21
1862.78	21
1863.78	25
1864.78	29
1865.78	26.5
1866.78	27.5
1867.78	24
1868.78	24
1869.78	23.5
1870.78	29
1871.78	28
1872.78	22
1873.78	24
1874.78	27.5
1875.78	20
1876.78	25
1877.78	24
1878.78	24
1879.77	27
1880.77	26
1881.77	22
1882.77	24
1883.77	23
1884.76	25.5
1885.76	24.5
1886.76	25.5
1887.76	22
1888.75	21.5
1889.75	24.5
1890.75	24
1891.74	26.5
1892.74	25
1893.74	24
1894.73	24.5
1895.73	29
1896.72	22
1897.72	23
1898.72	24.5
1899.71	23
1900.71	23.5
1901.7	24
1902.7	27
1903.69	25.5
1904.69	22
1905.68	25.5
1906.67	26.5
1907.67	26.5
1908.66	27.5
1909.66	22.5
1910.65	21
1911.64	23
1912.64	24.5
1913.63	23.5
1914.62	28
1915.62	24.5
1916.61	25
1917.6	25
1918.59	27
1919.59	27.5
1920.58	21
1921.57	22.5
1922.56	22.5
1923.55	24.5
1924.55	26
1925.54	25.5
1926.53	23.5
1927.52	25
1928.51	27
1929.5	22.5
1930.49	27
1931.48	23.5
1932.47	25.5
1933.46	29
1934.45	26
1935.44	23.5
1936.43	24
1937.42	23.5
1938.41	23
1939.4	25
1940.39	21
1941.38	21
1942.37	25
1943.36	24
1944.34	22
1945.33	24.5
1946.32	25
1947.31	23
1948.3	25.5
1949.28	26.5
1950.27	23
1951.26	28.5
1952.25	27.5
1953.23	21
1954.22	24
1955.21	24
1956.2	22
1957.18	24
1958.17	21
1959.15	20
1960.14	24
1961.13	21
1962.11	23.5
1963.1	22
1964.08	25
1965.07	28
1966.05	24.5
1967.04	23
1968.02	26
1969.01	27.5
1969.99	26
1970.98	26.5
1971.96	28.5
1972.94	23
1973.93	23.5
1974.91	24.5
1975.9	25
1976.88	25
1977.86	22.5
1978.85	25.5
1979.83	26
1980.81	24.5
1981.8	28
1982.78	21
1983.76	20
1984.74	24
1985.72	20
1986.71	25
1987.69	26
1988.67	24
1989.65	19
1990.63	27
1991.61	23
1992.6	23
1993.58	23.5
1994.56	23
1995.54	24.5
1996.52	27
1997.5	24.5
1998.48	23
1999.46	23.5
2000.44	26.5
2001.42	21.5
2002.4	26
2003.38	24.5
2004.36	23
2005.34	25.5
2006.32	26
2007.29	23
2008.27	24
2009.25	25
2010.23	27.5
2011.21	23
2012.19	23.5
2013.16	21
2014.14	20.5
2015.12	26.5
2016.1	22
2017.07	24.5
2018.05	23.5
2019.03	24.5
2020	25.5
2020.98	24
2021.96	23
2022.93	26
2023.91	25
2024.89	26
2025.86	22.5
2026.84	25.5
2027.81	22.5
2028.79	23.5
2029.77	22
2030.74	26
2031.72	26
2032.69	27.5
2033.67	24.5
2034.64	25.5
2035.61	27
2036.59	25.5
2037.56	24.5
2038.54	22
2039.51	22
2040.48	24
2041.46	22
2042.43	23
2043.41	25
2044.38	24
2045.35	25
2046.32	24.5
2047.3	29
2048.27	20
2049.24	23.5
2050.21	23
2051.19	22.5
2052.16	17.5
2053.13	24.5
2054.1	22
2055.07	25
2056.04	22.5
2057.02	25
2057.99	23
2058.96	22.5
2059.93	26
2060.9	26.5
2061.87	23.5
2062.84	25.5
2063.81	25
2064.78	25.5
2065.75	24
2066.72	25.5
2067.69	25.5
2068.66	22.5
2069.63	22.5
2070.6	24.5
2071.57	24
2072.53	24.5
2073.5	25
2074.47	23
2075.44	23.5
2076.41	19.5
2077.38	21.5
2078.34	24
2079.31	25.5
2080.28	22.5
2081.25	24
2082.21	24
2083.18	23.5
2084.15	25
2085.12	23
2086.08	23
2087.05	22.5
2088.02	24.5
2088.98	22.5
2089.95	25
2090.91	23
2091.88	25
2092.85	25
2093.81	25
2094.78	22.5
2095.74	25
2096.71	28
2097.67	22
2098.64	23.5
2099.6	24
2100.57	22
2101.53	19
2102.5	23.5
2103.46	24
2104.42	24
2105.39	21
2106.35	25.5
2107.31	19
2108.28	22.5
2109.24	22
2110.2	24.5
2111.17	22
2112.13	23
2113.09	25.5
2114.06	23.5
2115.02	25
2115.98	21.5
2116.94	24.5
2117.9	24
2118.86	22
2119.83	23
2120.79	23.5
2121.75	22
2122.71	23
2123.67	21.5
2124.63	22
2125.59	20.5
2126.55	23.5
2127.51	23
2128.48	24
2129.43	26.5
2130.4	22
2131.35	22
2132.31	25.5
2133.27	24
2134.23	25
2135.19	20.5
2136.15	24.5
2137.11	25
2138.07	20
2139.03	24
2139.99	20
2140.95	22
2141.9	19
2142.86	19.5101
2143.82	22.44
2144.78	23.5334
2145.74	24.5459
2146.69	18.2184
2147.65	22.046
2148.61	21.5373
2149.56	23.3764
2150.52	22.0568
2151.48	21.6996
2152.44	20.6942
2153.39	22.9414
2154.35	23.6176
2155.3	21.3588
2156.26	24.418
2157.22	21.541
2158.17	23.1708
2159.13	22.0221
2160.08	22.92
2161.04	22.045
2161.99	18.7759
2162.95	23.8325
2163.9	22.5382
2164.86	21.6853
2165.81	24.7003
2166.77	23.6736
2167.72	20.1509
2168.68	20.4766
2169.63	22.6304
2170.58	24.107
2171.54	23.5892
2172.49	23.844
2173.44	19.1896
2174.4	23.1361
2175.35	22.3301
2176.3	23.7305
2177.26	25.4153
2178.21	23.2966
2179.16	22.6662
2180.11	20.5413
2181.07	22.1724
2182.02	21.8643
2182.97	21.6128
2183.92	24.2294
2184.88	24.3262
2185.83	19.7503
2186.78	21.2578
2187.73	21.7375
2188.68	24.1367
2189.63	20.8901
2190.58	23.7646
2191.53	23.705
2192.48	22.5016
2193.43	21.5121
2194.38	22.2085
2195.33	22.0643
2196.28	23.5697
2197.23	21.8795
2198.18	22.4522
2199.13	23.0538
2200.08	22.2386
2201.03	23.1944
2201.98	23.919
2202.93	21.4397
2203.88	23.1602
2204.83	24.8929
2205.78	22.5212
2206.72	21.3036
2207.67	25.0387
2208.62	21.6476
2209.57	22.771
2210.52	20.1419
2211.46	20.7961
2212.41	21.5428
2213.36	22.915
2214.31	25.1291
2215.25	22.3297
2216.2	23.1571
2217.15	23.2015
2218.09	21.5608
2219.04	22.4506
2219.99	22.1294
2220.93	21.1341
2221.88	22.5684
2222.83	19.9505
2223.77	22.9076
2224.72	22.4338
2225.66	24.4906
2226.61	22.8278
2227.55	23.1721
2228.5	26.2156
2229.44	25.1743
2230.39	24.7961
2231.33	24.2482
2232.28	23.4223
2233.22	21.8496
2234.17	21.5947
2235.11	21.1709
2236.05	22.5346
2237	20.9066
2237.94	22.1173
2238.88	20.1624
2239.83	23.0116
2240.04	24
2240.98	19
2241.93	24
2242.88	25
2243.83	23.5
2244.78	23
2245.72	18
2246.67	18.5
2247.62	20.5
2248.56	26
2249.51	25
2250.46	24.5
2251.4	21.5
2252.35	20
2253.3	25
2254.24	20.5
2255.19	22
2256.14	23.5
2257.08	25.5
2258.03	22
2258.97	20
2259.92	22.5
2260.86	22
2261.81	22.5
2262.75	24.5
2263.7	22
2264.64	21.5
2265.59	22.5
2266.53	21.5
2267.48	26.5
2268.42	23
2269.36	26.5
2270.31	24
2271.25	21.5
2272.19	18.5
2273.14	25
2274.08	23
2275.02	25
2275.97	25
2276.91	25.5
2277.85	22
2278.8	22.5
2279.74	23.5
2280.68	23
2281.62	18.5
2282.56	21.5
2283.51	22
2284.45	23
2285.39	23
2286.33	24
2287.27	23.5
2288.21	20
2289.15	22
2290.09	20.5
2291.04	27
2291.98	24.5
2292.92	23
2293.86	24.5
2294.8	23.5
2295.74	19
2296.68	23.5
2297.62	23
2298.56	23.5
2299.5	21
2300.44	20
2301.37	24
2302.31	21
2303.25	23
2304.19	27.5
2305.13	23.5
2306.07	23
2307.01	22.5
2307.94	26
2308.88	22.5
2309.82	25
2310.76	25
2311.7	22
2312.63	25
2313.57	20
2314.51	22
2315.44	24
2316.38	22
2317.32	19
2318.26	21.5
2319.19	21
2320.13	23.5
2321.06	22
2322	22
2322.94	24.5
2323.87	24
2324.81	22.5
2325.74	22
2326.68	23
2327.61	24
2328.55	23
2329.48	19.5
2330.42	24.5
2331.35	21.5
2332.29	25
2333.22	25.5
2334.16	28
2335.09	25
2336.02	24
2336.96	24.5
2337.89	23
2338.83	22.5
2339.76	23
2340.69	21
2341.63	22.5
2342.56	21
2343.49	25
2344.42	22.5
2345.36	22
2346.29	25.5
2347.22	24
2348.15	22
2349.09	23.5
2350.02	22
2350.95	20.5
2351.88	18
2352.81	27
2353.74	21
2354.68	24
2355.61	22
2356.54	22
2357.47	21.5
2358.4	26
2359.33	21
2360.26	29.5
2361.19	24.5
2362.12	24
2363.05	22.5
2363.98	21
2364.91	19
2365.84	23
2366.77	22
2367.7	27.5
2368.63	27
2369.56	24.5
2370.49	24.5
2371.41	26
2372.34	21.5
2373.27	23.5
2374.2	22
2375.13	26.5
2376.06	18
2376.98	23
2377.91	25
2378.84	25.5
2379.77	26.5
2380.69	23
2381.62	25
2382.55	22
2383.47	24
2384.4	20.5
2385.33	28.5
2386.25	23
2387.18	25.5
2388.11	22
2389.03	19
2389.96	22
2390.89	23
2391.81	26.5
2392.74	23
2393.66	24.5
2394.59	25
2395.51	26.5
2396.44	20
2397.36	21.5
2398.29	25.5
2399.21	23.5
2400.14	23.5
2401.06	20
2401.99	25.5
2402.91	21.5
2403.83	20.5
2404.76	24.5
2405.68	27.5
2406.6	25
2407.53	23.5
2408.45	22
2409.37	21
2410.3	23
2411.22	26
2412.14	25.5
2413.06	20.5
2413.99	22.5
2414.91	22
2415.83	24.5
2416.75	26
2417.68	28
2418.6	23.5
2419.52	25
2420.44	25.5
2421.36	25
2422.28	29.5
2423.2	27
2424.12	22.5
2425.05	24
2425.97	23
2426.89	23.5
2427.81	25
2428.73	25.5
2429.65	21.5
2430.57	23
2431.49	25
2432.41	20.5
2433.33	25
2434.25	23.5
2435.17	24
2436.08	25.5
2437	25.5
2437.92	23
2438.84	20
2439.76	21.5
2440.68	23
2441.6	23
2442.51	24
2443.43	19.5
2444.35	26
2445.27	23.5
2446.19	24
2447.1	23
2448.02	22
2448.94	27.5
2449.85	25.5
2450.77	24
2451.69	23.5
2452.61	25.5
2453.52	24.5
2454.44	25.5
2455.35	26.5
2456.27	23
2457.19	19.5
2458.1	23
2459.02	22
2459.94	22
2460.85	21.5
2461.77	24
2462.68	22
2463.6	24.5
2464.51	22.5
2465.43	27
2466.34	24
2467.25	24
2468.17	21.5
2469.08	18.5
2470	22
2470.91	23
2471.83	24
2472.74	28
2473.65	20.5
2474.57	24
2475.48	26
2476.39	23
2477.31	21.5
2478.22	24.5
2479.13	24.5
2480.04	23
2480.96	21.5
2481.87	27
2482.78	21.5
2483.69	27
2484.6	22
2485.52	21
2486.43	25
2487.34	23.5
2488.25	25
2489.16	23
2490.07	23.5
2490.99	24
2491.9	20.5
2492.81	26.5
2493.72	26.5
2494.63	26
2495.54	19
2496.45	22
2497.36	22.5
2498.27	26.5
2499.18	25
2500.09	23
2501	25.5
2501.91	26.5
2502.82	25.5
2503.73	24
2504.63	20.5
2505.54	24.5
2506.45	21
2507.36	23.5
2508.27	25.5
2509.18	25
2510.09	22.5
2510.99	20.5
2511.9	23
2512.81	20.5
2513.72	22
2514.62	21
2515.53	24
2516.44	22.5
2517.35	27
2518.25	23.5
2519.16	22
2520.07	21.5
2520.97	26.5
2521.88	21.5
2522.79	22.5
2523.69	23
2524.6	26.5
2525.51	28
2526.41	25
2527.32	26.5
2528.22	26
2529.13	28
2530.03	30.5
2530.94	28
2531.84	20.5
2532.75	25
2533.65	22
2534.56	22.5
2535.46	25.5
2536.37	23.5
2537.27	24
2538.17	23.5
2539.08	23.5
2539.98	21.5
2540.89	24
2541.79	25.5
2542.69	26
2543.6	24.5
2544.5	20
2545.4	24.5
2546.31	20.5
2547.21	22.5
2548.11	28
2549.01	22.5
2549.92	25.5
2550.82	25.5
2551.72	24
2552.62	21.5
2553.52	26
2554.42	23
2555.33	21.5
2556.23	25
2557.13	24.5
2558.03	25
2558.93	24.5
2559.83	21.5
2560.73	19
2561.63	24.5
2562.53	23.5
2563.43	25
2564.33	22
2565.24	25.5
2566.13	20
2567.04	25
2567.93	21.5
2568.83	23
2569.73	24
2570.63	25
2571.53	21.5
2572.43	25
2573.33	26
2574.23	25
2575.13	22.5
2576.03	20.5
2576.92	27
2577.82	23
2578.72	22
2579.62	25
2580.52	24.5
2581.41	22.5
2582.31	25.5
2583.21	24
2584.11	23
2585	25
2585.9	23.5
2586.8	24
2587.69	25
2588.59	26.5
2589.49	25.5
2590.38	23.5
2591.28	26
2592.18	26
2593.07	23
2593.97	24
2594.86	24.5
2595.76	29.5
2596.66	23
2597.55	26
2598.45	23.5
2599.34	26.5
2600.24	23.5
2601.13	21.5
2602.03	24
2602.92	22
2603.81	25
2604.71	25.5
2605.6	27
2606.5	21.5
2607.39	23.5
2608.28	25.5
2609.18	24
2610.07	25
2610.97	24.5
2611.86	23
2612.75	26
2613.64	27.5
2614.54	24
2615.43	23
2616.32	23.5
2617.22	22
2618.11	24
2619	25.5
2619.89	21
2620.78	22.5
2621.68	20.5
2622.57	24
2623.46	21
2624.35	22
2625.24	21.5
2626.13	24
2627.02	23
2627.91	23.5
2628.81	18.5
2629.7	25
2630.59	23.5
2631.48	29
2632.37	21.5
2633.26	19.5
2634.15	22
2635.04	26
2635.93	23.5
2636.82	22
2637.71	21
2638.59	25.5
2639.48	23.5
2640.37	28.5
2641.26	20.5
2642.15	21
2643.04	27
2643.93	24
2644.82	24
2645.71	26.5
2646.59	24.5
2647.48	23.5
2648.37	22
2649.26	22.5
2650.15	30.5
2651.03	23
2651.92	24
2652.81	24.5
2653.69	24.5
2654.58	24
2655.47	24.5
2656.35	23
2657.24	27.5
2658.13	26.5
2659.01	26.5
2659.9	22.5
2660.79	28
2661.67	24
2662.56	25.5
2663.44	24
2664.33	23
2665.22	20.5
2666.1	26
2666.99	28
2667.87	26.5
2668.76	24.5
2669.64	19.5
2670.52	24
2671.41	23
2672.29	24.5
2673.18	26
2674.06	21
2674.95	26.5
2675.83	22
2676.71	26
2677.6	23
2678.48	26
2679.36	25
2680.25	24
2681.13	27
2682.01	20.5
2682.9	20.5
2683.78	26
2684.66	26.5
2685.55	19.5
2686.43	27
2687.31	23.5
2688.19	24
2689.07	21
2689.96	25.5
2690.84	26
2691.72	23
2692.6	23.5
2693.48	24
2694.36	21.5
2695.24	23.5
2696.12	25
2697	23.5
2697.89	24
2698.77	27.5
2699.65	23
2700.53	24.5
2701.41	22.5
2702.29	24
2703.17	21.5
2704.05	26.5
2704.93	25
2705.81	23.5
2706.69	20.5
2707.57	25.5
2708.44	24.5
2709.32	23.5
2710.2	19.5
2711.08	21
2711.96	24.5
2712.84	21
2713.72	22.5
2714.59	23.5
2715.47	24
2716.35	24.5
2717.23	23
2718.11	26.5
2718.98	21
2719.86	27.5
2720.74	24.5
2721.62	24
2722.49	24.5
2723.37	22
2724.25	25.5
2725.12	27
2726	25
2726.88	27.5
2727.75	26.5
2728.63	22.5
2729.51	23
2730.38	21
2731.26	22
2732.13	28
2733.01	23
2733.88	26
2734.76	25
2735.63	27
2736.51	22
2737.38	20.5
2738.26	24.5
2739.13	25.5
2740.01	27.5
2740.88	28
2741.76	26
2742.63	26
2743.5	23.5
2744.38	23
2745.25	26
2746.13	23
2747	24
2747.87	26
2748.75	23.5
2749.62	23
2750.49	21.5
2751.36	22.5
2752.24	29
2753.11	17
2753.98	23.5
2754.86	24
2755.73	24
2756.6	21
2757.47	24.5
2758.34	25
2759.22	22
2760.09	22
2760.96	24.5
2761.83	23
2762.7	25
2763.57	24.5
2764.44	30
2765.31	28
2766.18	27.5
2767.06	25
2767.93	22
2768.8	20
2769.67	22
2770.54	28
2771.41	26.5
2772.28	22.5
2773.15	24.5
2774.02	28.5
2774.89	23
2775.75	26
2776.62	23
2777.49	26
2778.36	25
2779.23	22
2780.1	26
2780.97	24.5
2781.84	26
2782.71	25
2783.57	25
2784.44	23.5
2785.31	23
2786.18	23.5
2787.04	25.5
2787.91	25.5
2788.78	24
2789.65	19.5
2790.51	21
2791.38	24
2792.25	26
2793.12	24
2793.98	24
2794.85	25.5
2795.72	26
2796.58	27.5
2797.45	24.5
2798.31	25.5
2799.18	18
2800.05	28.5
2800.91	26
2801.78	23
2802.64	23.5
2803.51	30
2804.37	25.5
2805.24	23
2806.1	29.5
2806.97	24
2807.83	28
2808.7	23
2809.56	26.5
2810.43	28
2811.29	20.5
2812.15	26
2813.02	29
2813.88	24.5
2814.75	29.5
2815.61	27
2816.47	21
2817.34	30.5
2818.2	25
2819.06	31.5
2819.92	25
2820.79	23
2821.65	24
2822.51	21
2823.37	25.5
2824.24	24
2825.1	28.5
2825.96	24
2826.82	23.5
2827.69	26
2828.55	22
2829.41	25.5
2830.27	22
2831.13	23
2831.99	25
2832.85	25.5
2833.71	24.5
2834.58	22
2835.44	25.5
2836.3	27.5
2837.16	24.5
2838.02	26.5
2838.88	28
2839.74	26.5
2840.6	27.5
2841.46	30.5
2842.32	29.5
2843.18	24.5
2844.04	25.5
2844.9	30
2845.75	27
2846.61	25.5
2847.47	24.5
2848.33	22
2849.19	28
2850.05	26
2850.91	26.5
2851.77	25
2852.62	25.5
2853.48	29
2854.34	23.5
2855.2	30
2856.06	20.5
2856.91	27
2857.77	26.5
2858.63	26.5
2859.48	26
2860.34	30
2861.2	25.5
2862.06	26
2862.91	25
2863.77	23.5
2864.63	23
2865.48	25
2866.34	27
2867.19	24.5
2868.05	24
2868.91	28.5
2869.76	21.5
2870.62	29.5
2871.47	27.5
2872.33	27
2873.18	31
2874.04	30
2874.89	29.5
2875.75	26
2876.6	30.5
2877.46	30
2878.31	34
2879.17	31
2880.02	31
2880.88	32
2881.73	31
2882.58	28
2883.44	32
2884.29	36
2885.14	33
2886	28.5
2886.85	27
2887.7	27.5
2888.56	39
2889.41	37
2890.26	34
2891.12	40
2891.97	37
2892.82	41
2893.67	34.5
2894.52	42.5
2895.38	42.5
2896.23	46
2897.08	47.5
2897.93	52.5
2898.78	50
2899.64	52
2900.49	57
2901.34	58.5
2902.19	56
2903.04	54.5
2903.89	64
2904.74	71.5
2905.59	70
2906.44	62
2907.29	59
2908.14	60.5
2908.99	61
2909.84	61
2910.69	62.5
2911.54	63.5
2912.39	57.5
2913.24	52
2914.09	50
2914.94	53
2915.79	43.5
2916.64	44.5
2917.49	40.5
2918.34	37.5
2919.18	33
2920.03	34.5
2920.88	39
2921.73	32.5
2922.58	36.5
2923.42	28
2924.27	30
2925.12	31
2925.97	31
2926.82	32
2927.66	28.5
2928.51	29
2929.36	30
2930.2	30.5
2931.05	29
2931.9	28
2932.74	29
2933.59	26.5
2934.44	31
2935.28	27
2936.13	28
2936.98	23.5
2937.82	29
2938.67	26
2939.51	29
2940.36	25.5
2941.2	26.5
2942.05	26
2942.9	27.5
2943.74	28
2944.58	24
2945.43	26
2946.27	23.5
2947.12	27.5
2947.96	28
2948.81	30
2949.65	28
2950.5	30.5
2951.34	34.5
2952.18	34
2953.03	28.5
2953.87	29
2954.71	24
2955.56	31
2956.4	32.5
2957.24	34
2958.09	37.5
2958.93	33.5
2959.77	37.5
2960.62	39.5
2961.46	38.5
2962.3	43
2963.14	45
2963.98	44.5
2964.83	43.5
2965.67	38
2966.51	42.5
2967.35	42.5
2968.19	38
2969.04	42
2969.88	38
2970.72	35.5
2971.56	36.4782
2972.4	36.3865
2973.24	34.0234
2974.08	32.6497
2974.92	31.9888
2975.76	30.5215
2976.6	32.899
2977.44	30.0226
2978.28	33.8648
2979.12	26.7387
2979.96	29.7169
2980.8	30.1954
2981.64	29.4781
2982.48	27.2374
2983.32	27.5861
2984.16	24.5832
2985	25.9621
2985.84	24.5475
2986.68	28.5043
2987.52	27.5797
2988.35	27.3686
2989.19	27.0149
2990.03	26.517
2990.87	28.4386
2991.71	27.1642
2992.55	25.3743
2993.38	25.0203
2994.22	25.249
2995.06	26.7549
2995.9	28.8166
2996.73	23.3352
2997.57	22.9079
2998.41	26.208
2999.25	23.1888
3000.08	24.1199
3000.92	23.1285
3001.76	21.8551
3002.59	23.9667
3003.43	22.6994
3004.27	24.6637
3005.1	24.1353
3005.94	23.9154
3006.78	22.778
3007.61	25.04
3008.45	24.1356
3009.28	22.6486
3010.12	23.2198
3010.95	24.9791
3011.79	24.8581
3012.62	24.0194
3013.46	23.2672
3014.29	24.7206
3015.13	21.8149
3015.96	23.1091
3016.8	23.7692
3017.63	21.7694
3018.47	23.0489
3019.3	22.0596
3020.14	21.9269
3020.97	21.6245
3021.8	24.0553
3022.64	23.8419
3023.47	21.8666
3024.3	21.2707
3025.14	20.6999
3025.97	24.1718
3026.8	22.7968
3027.64	22.7571
3028.47	24.8325
3029.3	23.8879
3030.14	22.2187
3030.97	20.8058
3031.8	22.616
3032.63	21.9692
3033.46	22.6867
3034.3	22.7015
3035.13	21.2727
3035.96	22.7427
3036.79	22.0423
3037.62	19.9443
3038.46	21.1844
3039.29	22.5422
3040.12	21.8952
3040.95	21.4899
3041.78	20.3428
3042.61	22.8094
3043.44	24.5896
3044.27	21.3122
3045.1	20.7638
3045.93	23.2309
3046.76	22.7739
3047.59	22.9041
3048.42	23.4576
3049.25	22.6934
3050.08	20.9534
3050.91	25.0211
3051.74	21.762
3052.57	20.2788
3053.4	21.8558
3054.23	23.0344
3055.06	23.6778
3055.89	22.3624
3056.72	21.5616
3057.32	23
3058.15	22.5
3058.98	24.5
3059.82	20.5
3060.65	24.5
3061.48	19
3062.31	24
3063.15	16.5
3063.98	25.5
3064.81	24
3065.64	23
3066.48	22
3067.31	26.5
3068.14	18.5
3068.97	26
3069.8	21.5
3070.63	23.5
3071.47	20
3072.3	20.5
3073.13	19
3073.96	24.5
3074.79	21.5
3075.62	22.5
3076.45	23.5
3077.28	21.5
3078.11	24
3078.94	22
3079.77	26
3080.6	20.5
3081.43	23.5
3082.26	21.5
3083.09	25
3083.92	23.5
3084.75	28
3085.58	22.5
3086.41	22
3087.24	22
3088.07	20.5
3088.9	23.5
3089.73	24
3090.55	21.5
3091.38	22
3092.21	22
3093.04	23
3093.87	26
3094.7	25
3095.52	29
3096.35	24
3097.18	22
3098.01	22
3098.84	21
3099.66	24.5
3100.49	23
3101.32	22
3102.14	21.5
3102.97	28.5
3103.8	19.5
3104.62	20
3105.45	22
3106.28	24
3107.1	23.5
3107.93	20.5
3108.76	26.5
3109.58	19.5
3110.41	23.5
3111.23	21
3112.06	20.5
3112.89	24
3113.71	23.5
3114.54	21
3115.36	23.5
3116.19	25.5
3117.01	27
3117.84	25
3118.66	23.5
3119.49	22
3120.31	20
3121.13	23.5
3121.96	21
3122.78	26.5
3123.61	21
3124.43	24.5
3125.25	24.5
3126.08	22
3126.9	22
3127.73	21.5
3128.55	25
3129.37	20
3130.19	22.5
3131.02	22.5
3131.84	23.5
3132.66	25
3133.49	21
3134.31	23.5
3135.13	21
3135.95	23.5
3136.78	22
3137.6	23.5
3138.42	27
3139.24	25
3140.06	26
3140.88	22
3141.71	22
3142.53	22
3143.35	22.5
3144.17	23
3144.99	27
3145.81	19
3146.63	23
3147.45	23
3148.27	25
3149.09	26.5
3149.91	24.5
3150.73	21.5
3151.56	27.5
3152.37	24
3153.2	23.5
3154.01	22
3154.83	21.5
3155.65	23
3156.47	20
3157.29	26.5
3158.11	22.5
3158.93	21.5
3159.75	21
3160.57	27.5
3161.39	25
3162.21	23.5
3163.02	20
3163.84	21
3164.66	24
3165.48	21
3166.3	25
3167.11	24.5
3167.93	23
3168.75	23
3169.57	23
3170.39	23
3171.2	21.5
3172.02	20
3172.84	20.5
3173.65	22.5
3174.47	20
3175.29	22
3176.1	20
3176.92	25
3177.74	23
3178.55	20.5
3179.37	26
3180.19	23.5
3181	24
3181.82	25.5
3182.63	22
3183.45	24.5
3184.27	23.5
3185.08	24
3185.9	22.5
3186.71	24.5
3187.53	25
3188.34	25
3189.16	24.5
3189.97	23
3190.79	22.5
3191.6	22.5
3192.41	20.5
3193.23	20
3194.04	22.5
3194.86	22
3195.67	24.5
3196.48	23.5
3197.3	24.5
3198.11	21
3198.93	22
3199.74	26
3200.55	24.5
3201.36	20
3202.18	25.5
3202.99	25.5
3203.8	26
3204.62	21.5
3205.43	22.5
3206.24	23.5
3207.05	21
3207.87	24
3208.68	22.5
3209.49	22
3210.3	21.5
3211.11	22.5
3211.93	21.5
3212.74	23.5
3213.55	22
3214.36	23
3215.17	22.5
3215.98	24
3216.79	24
3217.6	25.5
3218.41	22
3219.22	21.5
3220.03	24
3220.85	19.5
3221.66	23
3222.47	21.5
3223.28	24
3224.09	22.5
3224.9	26.5
3225.71	24.5
3226.52	24.5
3227.33	22
3228.13	23.5
3228.94	20.5
3229.75	25.5
3230.56	23.5
3231.37	26.5
3232.18	21.5
3232.99	27.5
3233.8	19
3234.61	25.5
3235.41	21.5
3236.22	27
3237.03	23.5
3237.84	23.5
3238.65	22.5
3239.45	23.5
3240.26	21
3241.07	26
3241.88	24.5
3242.68	22
3243.49	21.5
3244.3	21
3245.1	23
3245.91	24
3246.72	23
3247.53	21.5
3248.33	24
3249.14	25
3249.95	20
3250.75	22.5
3251.56	21
3252.36	22.5
3253.17	26.5
3253.97	23
3254.78	21
3255.59	22.5
3256.39	23.5
3257.2	27.5
3258	27.5
3258.81	24
3259.61	23
3260.42	26
3261.22	22
3262.03	25.5
3262.83	22.5
3263.64	22.5
3264.44	26.5
3265.24	20
3266.05	30
3266.85	25
3267.66	23.5
3268.46	23.5
3269.26	22.5
3270.07	21
3270.87	24
3271.67	19.5
3272.48	22
3273.28	23.5
3274.08	24
3274.89	25
3275.69	20
3276.49	23.5
3277.29	24.5
3278.1	23.5
3278.9	23.5
3279.7	22
3280.5	24
3281.3	23.5
3282.11	22
3282.91	22
3283.71	23
3284.51	23
3285.31	21.5
3286.11	26
3286.91	25
3287.72	26
3288.52	24
3289.32	26
3290.12	23
3290.92	22.5
3291.72	23
3292.52	22.5
3293.32	23
3294.12	24
3294.92	24
3295.72	23.5
3296.52	23
3297.32	21
3298.12	26.5
3298.92	25
3299.72	23
3300.52	26
3301.32	24.5
3302.12	21.5
3302.92	23.5
3303.71	22.5
3304.51	25
3305.31	21.5
3306.11	26.5
3306.91	23
3307.71	22
3308.5	22
3309.3	23
3310.1	19.5
3310.9	23.5
3311.7	25
3312.49	25
3313.29	25.5
3314.09	22
3314.89	23
3315.68	20
3316.48	22
3317.28	23.5
3318.07	23.5
3318.87	21.5
3319.67	22
3320.46	23.5
3321.26	26
3322.06	22
3322.85	28
3323.65	25
3324.44	22
3325.24	20
3326.04	23
3326.83	22
3327.63	27
3328.42	24.5
3329.22	27
3330.01	23
3330.81	26
3331.6	22.5
3332.4	23
3333.19	20.5
3333.99	22
3334.78	20.5
3335.58	24.5
3336.37	23
3337.17	25.5
3337.96	23
3338.75	24
3339.55	24
3340.34	23.5
3341.13	25.5
3341.93	26
3342.72	27.5
3343.51	27.5
3344.31	23
3345.1	22.5
3345.89	21
3346.69	23.5
3347.48	26
3348.27	26.5
3349.06	27
3349.86	25.5
3350.65	21.5
3351.44	23
3352.23	27
3353.03	23.5
3353.82	26.5
3354.61	20
3355.4	24.5
3356.19	25.5
3356.98	25
3357.78	24.5
3358.57	22.5
3359.36	25
3360.15	26
3360.94	23.5
3361.73	23
3362.52	21
3363.31	25
3364.1	23
3364.89	22
3365.68	23.5
3366.47	23
3367.26	19
3368.05	24.5
3368.84	26
3369.63	23
3370.42	27
3371.21	25
3372	23.5
3372.79	21
3373.58	26.5
3374.37	23
3375.16	25
3375.95	24.5
3376.73	22
3377.52	26.5
3378.31	21.5
3379.1	27.5
3379.89	25
3380.68	24
3381.46	26
3382.25	27
3383.04	26
3383.83	26.5
3384.62	21
3385.4	26
3386.19	24.5
3386.98	24
3387.76	21
3388.55	21.5
3389.34	24
3390.13	26
3390.91	28
3391.7	22.5
3392.49	23.5
3393.27	23.5
3394.06	24
3394.84	23
3395.63	21.5
3396.42	23
3397.2	24
3397.99	24
3398.77	23.5
3399.56	21.5
3400.34	26.5
3401.13	22.5
3401.92	26
3402.7	24.5
3403.49	26
3404.27	21
3405.06	26
3405.84	21.5
3406.62	23
3407.41	24
3408.19	24
3408.98	23
3409.76	23
3410.55	19
3411.33	23
3412.11	22
3412.9	25.5
3413.68	26
3414.46	27.5
3415.25	22.5
3416.03	25.5
3416.81	19.5
3417.6	28.5
3418.38	23
3419.16	21.5
3419.95	25
3420.73	20
3421.51	23.5
3422.29	24
3423.08	20.5
3423.86	23.5
3424.64	23
3425.42	22
3426.2	20
3426.98	23
3427.77	23
3428.55	25
3429.33	21.5
3430.11	23
3430.89	24.5
3431.67	23.5
3432.45	21.5
3433.24	21.5
3434.02	24
3434.8	22.5
3435.58	22.5
3436.36	21
3437.14	22.5
3437.92	22
3438.7	25
3439.48	24
3440.26	23
3441.04	24.5
3441.82	23
3442.6	19.5
3443.38	26
3444.16	25.5
3444.94	26.5
3445.71	26.5
3446.49	24
3447.27	24.5
3448.05	23.5
3448.83	26
3449.61	21
3450.39	21.5
3451.17	25
3451.94	24.5
3452.72	22
3453.5	27
3454.28	24
3455.06	24.5
3455.83	25
3456.61	23
3457.39	21.5
3458.17	22.5
3458.94	20.5
3459.72	23
3460.5	23.5
3461.28	25.5
3462.05	27
3462.83	24
3463.61	18
3464.38	22.5
3465.16	24
3465.93	20.5
3466.71	25
3467.49	24.5
3468.26	24
3469.04	23.5
3469.82	27
3470.59	23
3471.37	19
3472.14	25.5
3472.92	23.5
3473.69	23
3474.47	23.5
3475.24	20.5
3476.02	21.5
3476.79	24.5
3477.57	22
3478.34	22
3479.12	25
3479.89	24
3480.67	19.5
3481.44	26
3482.21	29.5
3482.99	24.5
3483.76	23
3484.54	23
3485.31	19
3486.08	27
3486.86	23
3487.63	27
3488.4	25
3489.18	22
3489.95	21.5
3490.72	24
3491.5	31.5
3492.27	24
3493.04	25.5
3493.81	28
3494.59	22.5
3495.36	24
3496.13	22.5
3496.9	25
3497.67	21.5
3498.45	26
3499.22	22.5
3499.99	26.5
