#Acq. time (s)=	5
#Accumulations=	5
#Range (cm-¹)=	100...3500
#Windows=	4
#Autofocus=	Off
#AutoExposure=	Off
#Spike filter=	Multiple accum.
#Delay time (s)=	0
#Binning=	1
#Readout mode=	Signal
#DeNoise=	Off
#ICS correction=	Off
#Dark correction=	Off
#Inst. Process=	Off
#Instrument=	LabRAM HR Evol
#Detector=	Syncerity OE
#Objective=	x100_VIS
#Grating=	600 (500nm)
#ND Filter=	25%
#Laser=	633nm_Edge
#Hole=	100.021
#Range=	Visible
#Project=	verificaciones
#Sample=	a5
#Site=	plain
#Title=	bolusa5plain
#Remark=	
#Date=	09.01.2026 13:57
#Acquired=	09.01.2026 13:57:55
100.695	30.5
101.978	31.5
103.262	35
104.545	32
105.829	29
107.112	33
108.394	32.5
109.676	27
110.958	31
112.24	29.5
113.522	32
114.803	24
116.084	31
117.365	28
118.646	29.5
119.927	31.5
121.207	30
122.487	34
123.767	28.5
125.047	34
126.326	32
127.606	31.5
128.885	33
130.164	31
131.442	37
132.721	34.5
133.999	34
135.277	32
136.555	34
137.831	35
139.109	36
140.386	37
141.663	31
142.94	34
144.216	35.5
145.493	36
146.769	37
148.043	36
149.319	40.5
150.595	37.5
151.87	40
153.145	37.5
154.42	40.5
155.693	39
156.968	40
158.242	41.5
159.516	42.5
160.79	44
162.062	39
163.336	38.5
164.609	39
165.882	39
167.153	39
168.426	40
169.699	38
170.971	41.5
172.241	40.5
173.513	38
174.785	38
176.055	37.5
177.326	40.5
178.597	43
179.866	36.5
181.137	39
182.407	41
183.676	43
184.946	40
186.216	39
187.484	41.5
188.753	40
190.022	43
191.29	38.5
192.558	40.5
193.825	40
195.094	37
196.36	37.5
197.628	38
198.896	39
200.162	36
201.429	37.5
202.695	35.5
203.962	39
205.227	34
206.493	38
207.758	37.5
209.024	36
210.289	35.5
211.554	34.5
212.818	34
214.083	37.5
215.347	34
216.612	33
217.875	39
219.138	31
220.402	36.5
221.665	37
222.928	33.5
224.19	30
225.454	27.5
226.715	30
227.977	30
229.24	30
230.501	29.5
231.762	28.5
233.024	29
234.284	29
235.546	30.5
236.806	32.5
238.066	30
239.327	31
240.587	27
241.846	32.5
243.105	26
244.365	29
245.624	31.5
246.882	33.5
248.142	29
249.4	33
250.658	31
251.916	32.5
253.174	31
254.432	29.5
255.689	31.5
256.945	26
258.202	27.5
259.46	31.5
260.716	31
261.972	30.5
263.228	30.5
264.483	31.5
265.74	31.5
266.996	32.5
268.251	26.5
269.505	27
270.76	32.5
272.014	29
273.268	27
274.522	31
275.778	28.5
277.031	31.5
278.285	30
279.538	26
280.791	27
282.043	31
283.296	33
284.548	28.5
285.8	31.5
287.052	27.5
288.304	27
289.556	29.5
290.807	25
292.058	30
293.309	29.5
294.56	26.5
295.81	30.5
297.061	27.5
298.311	28.5
299.561	29
300.81	30.5
302.06	31
303.309	24.5
304.558	30.5
305.807	32
307.056	31
308.305	28.5
309.551	31.5
310.8	28
312.047	30.5
313.295	27.5
314.543	26.5
315.79	28
317.037	28.5
318.284	28.5
319.529	27.5
320.776	29.5
322.022	28
323.268	30.5
324.514	29.5
325.758	25
327.004	28.5
328.249	25
329.494	30.5
330.739	28
331.982	30
333.227	26.5
334.471	29
335.715	28.5
336.958	28.5
338.201	28.5
339.445	27
340.687	29
341.93	28
343.173	29.5
344.414	29
345.657	26
346.899	24
348.14	27
349.381	26
350.623	27
351.863	25
353.104	29
354.346	34.5
355.585	30.5
356.826	27
358.065	26.5
359.305	30
360.545	28.5
361.784	26.5
363.023	29.5
364.261	25.5
365.501	28.5
366.738	29.5
367.977	23
369.216	30
370.453	29
371.691	25.5
372.928	29
374.166	25
375.402	24
376.64	30.5
377.876	30
379.111	29.5
380.348	27
381.584	30
382.82	29
384.055	28
385.291	24
386.526	28.5
387.76	26
388.996	28
390.229	29.5
391.465	25
392.698	27
393.931	31.5
395.166	30
396.399	24.5
397.632	30.5
398.866	28
400.098	28
401.33	27.5
402.563	28.5
403.795	30.5
405.027	30
406.259	30
407.491	26.5
408.721	26
409.954	28
411.184	29.5
412.415	32
413.645	29
414.876	23.5
416.106	29
417.335	28.5
418.565	28
419.794	26.5
421.024	28
422.253	27
423.482	29.5
424.71	28
425.938	31.5
427.168	29.5
428.396	28.5
429.623	27
430.851	27
432.078	28
433.305	29
434.532	29.5
435.758	26
436.986	27
438.212	30
439.438	32.5
440.664	27.5
441.89	26.5
443.115	27
444.34	31
445.566	26
446.79	30
448.015	29
449.24	33.5
450.464	28
451.688	29
452.912	26
454.135	31
455.359	25.5
456.582	28.5
457.805	29
459.028	30.5
460.251	25.5
461.473	29
462.696	30
463.918	31
465.14	34.5
466.36	30.5
467.582	32
468.803	28
470.024	33.5
471.245	36
472.466	38.5
473.686	32.5
474.907	35
476.126	34
477.346	42
478.565	41.5
479.785	39.5
481.004	42
482.224	49.5
483.441	52
484.66	53.5
485.879	59
487.097	54
488.314	57.5
489.532	58
490.75	57.5
491.967	55.5
493.184	52
494.401	49
495.618	52
496.835	48.5
498.05	41.5
499.267	45.5
500.483	41.5
501.698	44
502.913	42.5
504.129	42
505.343	41
506.559	37
507.774	37
508.987	36.5
510.202	36
511.415	38
512.63	34.5
513.844	32.5
515.056	36.5
516.27	34
517.482	32
518.696	33.5
519.907	33.5
521.121	31.5
522.332	32
523.545	28.5
524.757	33
525.968	33
527.18	31.5
528.39	31
529.602	31.5
530.812	32
532.023	33
533.233	30
534.443	28.5
535.653	32.5
536.862	32.5
538.073	29
539.281	29
540.491	25
541.7	29.5
542.908	29.5
544.117	34
545.325	30
546.534	27
547.741	28.5
548.949	28
550.157	28
551.364	29
552.57	31
553.778	25.5
554.985	28
556.191	28.5
557.398	31
558.604	31
559.809	28.5
561.014	25
562.221	29.5
563.426	30
564.63	29.5
565.835	31
567.041	26.5
568.245	29.5
569.449	28
570.653	26.5
571.856	29
573.061	28
574.264	27.5
575.467	30
576.67	28
577.873	27.5
579.076	29
580.279	27.5
581.481	30.5
582.683	27
583.884	27.5
585.086	27
586.287	25
587.488	29
588.689	28
589.891	27.5
591.092	28
592.292	23.5
593.492	29
594.692	26
595.892	26.5
597.092	26.5
598.291	30
599.49	29
600.689	28
601.888	29.5
603.087	28
604.285	30
605.483	27
606.681	27.5
607.879	30
609.077	24.5
610.274	28
611.472	30
612.668	30.5
613.865	28.5
615.061	28.5
616.258	31
617.454	30.5
618.65	27
619.846	25
621.042	23
622.238	31
623.432	31
624.627	30.5
625.822	27
627.017	29
628.212	25
629.406	30.5
630.599	26.5
631.793	30.5
632.987	26.5
634.181	25.5
635.373	27.5
636.566	30
637.76	28
638.953	28
640.144	32.5
641.337	30.5
642.529	28
643.721	26.5
644.912	31.5
646.104	29.5
647.295	27.5
648.485	29.5
649.677	30
650.868	28
652.057	29
653.248	24
654.437	26
655.628	28.5
656.818	29.5
658.006	28.5
659.196	28
660.384	31
661.574	30.5
662.763	30.5
663.951	30.5
665.14	31.5
666.327	31
667.515	29
668.702	30
669.891	31.5
671.077	31.5
672.265	29
673.451	30
674.638	29.5
675.824	31
677.011	29
678.197	31.5
679.383	32
680.568	33.5
681.755	33.5
682.939	35.5
684.124	33.5
685.309	35
686.494	39
687.679	37
688.863	36.5
690.046	35
691.231	33
692.414	35.5
693.599	32.5
694.781	38
695.964	35.5
697.148	37.5
698.33	33.5
699.512	34
700.694	35
701.877	41
703.059	41
704.24	43.5
705.423	44.5
706.604	40
707.784	48
708.965	46
710.147	48.5
711.327	42.5
712.507	41
713.687	40.5
714.867	41
716.048	34
717.227	36
718.406	30.5
719.585	31
720.764	33
721.942	34.5
723.122	31
724.3	29.5
725.478	27.5
726.656	32
727.834	27
729.011	26.5
730.189	26
731.366	25
732.543	28
733.719	30
734.896	33
736.072	31
737.249	24.5
738.426	28.5
739.602	29
740.777	30
741.953	28.5
743.128	31.5
744.303	23
745.477	27.5
746.651	28
747.826	27
749	30
750.174	32.5
751.348	31
752.522	29
753.696	29
754.869	30
756.043	26.5
757.216	27.5
758.389	30
759.561	28.5
760.732	30
761.905	28
763.077	25
764.249	30
765.421	28
766.592	29
767.762	27
768.934	24
770.105	28
771.275	30
772.446	29
773.615	28.5
774.786	25.5
775.956	29.5
777.126	31
778.294	28
779.464	27
780.633	27.5
781.801	29
782.97	28.5
784.139	31
785.306	32.5
786.475	29
787.643	30
788.81	33
789.978	33.5
791.146	31
792.312	33
793.479	33.5
794.647	35.5
795.812	35.5
796.979	28.5
798.144	32
799.311	26.5
800.477	31.5
801.642	33
802.808	29.5
803.972	30.5
805.138	27
806.302	29
807.467	29
808.631	26
809.796	27
810.959	27.5
812.124	25
813.287	22
814.451	30.5
815.614	30.5
816.777	25.5
817.94	30.5
819.102	29
820.265	26.5
821.427	26.5
822.59	27.5
823.751	26.5
824.912	25
826.074	28
827.235	28
828.397	25
829.558	28.5
830.718	31
831.879	28
833.039	26.5
834.199	23
835.359	26
836.519	29
837.679	23
838.838	29
839.998	24
841.156	29
842.315	33.5
843.473	27
844.633	27
845.791	29
846.948	27.5
848.106	27.5
849.263	26
850.422	28
851.579	29
852.736	26
853.892	26
855.049	29.5
856.205	33.5
857.363	34
858.519	28
859.674	27
860.83	28.5
861.986	29
863.141	32
864.296	30.5
865.451	28
866.605	33.5
867.76	29
868.914	28.5
870.069	29.5
871.224	26
872.378	28.5
873.531	29.5
874.685	27.5
875.838	27.5
876.991	28
878.144	31.5
879.296	28.5
880.448	28
881.6	30.5
882.753	30
883.905	27
885.057	32.5
886.208	29.5
887.36	24
888.511	26.5
889.662	26
890.813	24.5
891.964	28
893.113	26
894.264	28.5
895.414	26.5
896.564	29
897.714	26.5
898.864	25
900.012	25
901.161	24.5
902.31	25.5
903.459	30
904.607	23
905.756	25.5
906.904	24.5
908.052	28
909.199	27
910.347	28.5
911.495	24.5
912.643	23.5
913.789	27.5
914.936	26
916.083	26
917.229	26
918.375	28.5
919.522	25
920.667	26.5
921.813	30.5
922.959	28
924.104	29
925.249	23
926.393	28
927.539	25.5
928.684	26
929.827	30
930.972	27
932.115	27
933.26	25.5
934.403	26
935.547	26
936.689	25
937.833	23.5
938.975	29.5
940.119	28.5
941.26	25
942.404	26.5
943.545	26.5
944.688	23.5
945.829	26
946.971	34
948.112	26
949.253	28
950.394	26
951.535	18
952.676	26.5
953.816	25
954.956	29.5
956.097	27
957.236	26
958.377	24.5
959.516	27.5
960.655	28.5
961.793	25
962.933	29
964.071	25.5
965.21	24
966.349	26
967.487	27
968.624	28
969.762	20.5
970.901	24.5
972.038	26.5
973.175	23
974.311	25
975.449	31
976.586	26
977.722	26.5
978.858	28
979.994	29.5
981.131	28
982.267	26
983.402	24.5
984.537	23
985.672	26
986.807	25
987.942	26
989.076	26
990.211	28
991.346	25.5
992.48	31.5
993.614	27
994.748	29
995.881	29
997.014	28
998.148	28.5
999.28	28.5
1000.41	29
1001.55	27.5
1002.68	24.5
1003.81	26.5
1004.94	26.5
1006.07	27
1007.21	26.5
1008.34	29
1009.47	31
1010.6	24
1011.73	25.5
1012.86	24.5
1013.99	25
1015.12	27
1016.25	25.5
1017.38	30.5
1018.51	28
1019.64	26
1020.77	23.5
1021.9	27.5
1023.03	29
1024.16	26
1025.29	26
1026.42	27
1027.54	27.5
1028.67	24
1029.8	27
1030.93	22.5
1032.06	23.5
1033.18	25
1034.31	29
1035.44	25.5
1036.56	22.5
1037.69	25
1038.82	27
1039.94	28.5
1041.07	24.5
1042.2	23.5
1043.32	26
1044.45	24
1045.57	24.5
1046.7	24
1047.82	27
1048.95	25.5
1050.07	27
1051.2	26.5
1052.32	28
1053.45	26
1054.57	24.5
1055.69	30.5
1056.82	29.5
1057.94	22.5
1059.06	26
1060.19	26.5
1061.31	23
1062.43	25
1063.55	26.5
1064.68	28
1065.8	31
1066.92	27
1068.04	24
1069.16	25
1070.28	29
1071.41	26
1072.53	26.5
1073.65	24.5
1074.77	24
1075.89	26
1077.01	26
1078.13	29
1079.25	21.5
1080.37	26
1081.49	25.5
1082.61	24
1083.73	22.5
1084.85	27
1085.96	23.5
1087.08	26.5
1088.2	29.5
1089.32	24
1090.44	25.5
1091.56	24.5
1092.67	26
1093.79	27
1094.91	25.5
1096.03	27.5
1097.14	24
1098.26	26
1099.38	25.5
1100.49	27
1101.61	23.5
1102.73	27
1103.84	28
1104.96	24.5
1106.07	25
1107.19	21.5
1108.3	29
1109.42	25.5
1110.53	26
1111.65	27.5
1112.76	25.5
1113.88	23
1114.99	28.5
1116.1	26.5
1117.22	26
1118.33	26
1119.44	26.5
1120.56	25.5
1121.67	23
1122.78	26.5
1123.9	25.5
1125.01	23
1126.12	25
1127.23	22
1128.34	22
1129.46	24.5
1130.57	24
1131.68	26
1132.79	26
1133.9	25.5
1135.01	26.5
1136.12	24
1137.23	24.5
1138.34	22.5
1139.45	22
1140.56	25.5
1141.67	22
1142.78	27.5
1143.89	24
1145	24
1146.11	24.5
1147.22	27
1148.33	29
1149.44	24.5
1150.54	24
1151.65	22
1152.76	26.5
1153.87	24
1154.97	25.5
1156.08	24.5
1157.19	26.5
1158.3	25
1159.4	24
1160.51	28.5
1161.62	26.5
1162.72	23.5
1163.83	27.5
1164.93	23
1166.04	23
1167.15	26
1168.25	24.5
1169.36	25
1170.46	29
1171.57	23.5
1172.67	28
1173.78	22
1174.88	31.5
1175.98	27.5
1177.09	19.5
1178.19	23.5
1179.3	24
1180.4	27
1181.5	27.5
1182.61	26.5
1183.71	23
1184.81	23
1185.91	24
1187.02	27.5
1188.12	23.5
1189.22	22.5
1190.32	18.5
1191.42	26.5
1192.53	25.5
1193.63	26
1194.73	23.9929
1195.83	26.4429
1196.93	26.5204
1198.03	25.4904
1199.13	20.731
1200.23	24.0259
1201.33	25.3426
1202.43	23.5732
1203.53	21.5746
1204.63	25.657
1205.73	24.8752
1206.83	24.0223
1207.93	23.7013
1209.02	23.9153
1210.12	24.9223
1211.22	22.6841
1212.32	23.7478
1213.42	27.3731
1214.52	24.629
1215.61	22.2307
1216.71	23.7125
1217.81	24.1815
1218.91	27.0989
1220	23.4407
1221.1	24.1418
1222.2	23.8127
1223.29	22.4273
1224.39	23.1675
1225.49	22.0667
1226.58	27.4774
1227.68	25.4613
1228.77	25.401
1229.87	24.0229
1230.96	23.8656
1232.06	23.5575
1233.15	25.3718
1234.25	25.3339
1235.34	23.6799
1236.44	25.0049
1237.53	23.7664
1238.63	24.7958
1239.72	24.2504
1240.81	23.204
1241.91	27.795
1243	24.8433
1244.09	21.6145
1245.19	23.6963
1246.28	25.2493
1247.37	22.2662
1248.46	24.9949
1249.56	26.469
1250.65	24.2853
1251.74	25.6967
1252.83	26.4766
1253.92	25.4358
1255.01	25.3537
1256.11	26.4825
1257.2	23.7817
1258.29	27.2808
1259.38	28.5887
1260.47	26.7037
1261.56	26.5598
1262.65	27.848
1263.74	25.7291
1264.83	27.4607
1265.92	24.3984
1267.01	27.2118
1268.1	26.1034
1269.19	25.9976
1270.27	25.5467
1271.36	25.0734
1272.45	22.534
1273.54	22.7171
1274.63	25.6565
1275.72	22.9906
1276.8	25.9629
1277.89	25.0491
1278.98	25.1699
1280.07	23.8658
1281.15	22.7035
1282.24	23.9161
1283.33	22.0513
1284.41	21.2944
1285.5	23.678
1286.59	25.6401
1287.67	23.9613
1288.76	25.2061
1289.84	23.4761
1290.93	25.5328
1292.01	21.2633
1293.1	26.4232
1294.19	24.8675
1295.27	23.0551
1296.35	25.3774
1297.44	28.0274
1298.52	23.7473
1299.61	25.2544
1300.69	23.1837
1301.78	24.1652
1302.86	23.5187
1303.94	22.9636
1305.03	24.1221
1306.11	26.3213
1306.4	27
1307.49	25
1308.57	26.5
1309.66	24
1310.75	25
1311.84	26
1312.92	21.5
1314.01	25
1315.1	23
1316.19	21
1317.27	27
1318.36	27.5
1319.45	26
1320.53	21
1321.62	23
1322.7	24
1323.79	24.5
1324.88	19
1325.96	24
1327.05	22.5
1328.13	24
1329.21	25.5
1330.3	24
1331.38	25
1332.47	25.5
1333.55	26.5
1334.64	25.5
1335.72	23.5
1336.8	24.5
1337.89	24.5
1338.97	28
1340.05	25.5
1341.14	29
1342.22	27.5
1343.3	23
1344.39	24
1345.47	21
1346.55	24
1347.63	21.5
1348.71	25
1349.79	23
1350.88	26
1351.96	27
1353.04	25
1354.12	20.5
1355.2	24.5
1356.28	24
1357.36	22
1358.44	22.5
1359.52	29.5
1360.6	27
1361.68	26.5
1362.76	25
1363.84	26.5
1364.92	23.5
1366	27.5
1367.08	21.5
1368.16	23.5
1369.23	25
1370.31	28
1371.39	24
1372.47	25
1373.55	23
1374.62	26
1375.7	26.5
1376.78	26.5
1377.85	25.5
1378.93	24.5
1380.01	24
1381.09	24.5
1382.16	25
1383.24	25
1384.31	24.5
1385.39	26
1386.47	27
1387.54	24.5
1388.62	24.5
1389.69	26
1390.77	26
1391.84	25
1392.92	24
1393.99	31
1395.06	24
1396.14	25.5
1397.21	26.5
1398.29	27
1399.36	28
1400.43	26.5
1401.51	26.5
1402.58	31.5
1403.65	26.5
1404.73	29
1405.8	31
1406.87	31
1407.94	30
1409.02	30.5
1410.09	30
1411.16	29.5
1412.23	30
1413.3	27.5
1414.37	31
1415.45	29.5
1416.52	29.5
1417.59	30.5
1418.66	28.5
1419.73	22
1420.8	28.5
1421.87	28
1422.94	28
1424.01	27.5
1425.08	29
1426.15	26.5
1427.22	22
1428.29	25.5
1429.35	26
1430.42	26
1431.49	24
1432.56	27
1433.63	26
1434.7	26
1435.77	26
1436.83	24
1437.9	27.5
1438.97	25
1440.04	25
1441.1	26.5
1442.17	23.5
1443.24	24
1444.3	25.5
1445.37	25.5
1446.44	27
1447.5	26
1448.57	25
1449.63	31
1450.7	22
1451.76	28
1452.83	25.5
1453.89	24
1454.96	25.5
1456.02	28.5
1457.09	24.5
1458.15	26
1459.22	25
1460.28	24
1461.34	28.5
1462.41	24
1463.47	25.5
1464.54	22
1465.6	24.5
1466.66	28.5
1467.72	24
1468.79	22
1469.85	27.5
1470.91	22.5
1471.97	27.5
1473.04	24
1474.1	22.5
1475.16	24
1476.22	25
1477.28	23
1478.34	23
1479.4	23
1480.47	22.5
1481.53	21.5
1482.59	27
1483.65	23
1484.71	23
1485.77	25
1486.83	26
1487.89	22
1488.95	29
1490.01	29
1491.07	25.5
1492.12	25.5
1493.18	27.5
1494.24	28
1495.3	23
1496.36	26.5
1497.42	28
1498.47	25
1499.53	29.5
1500.59	26
1501.65	20.5
1502.7	26.5
1503.76	27.5
1504.82	26
1505.88	22.5
1506.93	27
1507.99	24.5
1509.05	28
1510.1	25
1511.16	25.5
1512.21	28.5
1513.27	24.5
1514.32	24.5
1515.38	26.5
1516.43	25
1517.49	22
1518.54	28.5
1519.6	25
1520.65	25.5
1521.71	27
1522.76	28
1523.82	27
1524.87	25
1525.92	26.5
1526.98	25
1528.03	23
1529.08	22
1530.14	24
1531.19	28
1532.24	25
1533.3	23
1534.35	28
1535.4	25
1536.45	25.5
1537.5	27
1538.56	26.5
1539.61	24
1540.66	23.5
1541.71	28.5
1542.76	27.5
1543.81	27
1544.86	27.5
1545.91	23
1546.96	19
1548.01	23.5
1549.06	27
1550.11	26
1551.16	27
1552.21	24
1553.26	23.5
1554.31	25
1555.36	26
1556.41	27
1557.46	23
1558.51	22
1559.55	21.5
1560.6	22.5
1561.65	23.5
1562.7	26.5
1563.75	27.5
1564.79	23.5
1565.84	23.5
1566.89	28.5
1567.94	24.5
1568.98	27
1570.03	26
1571.07	26
1572.12	26.5
1573.17	25
1574.21	25.5
1575.26	23
1576.31	25
1577.35	27
1578.4	24
1579.44	26
1580.49	24
1581.53	26
1582.58	24.5
1583.62	27
1584.67	24.5
1585.71	28.5
1586.75	27
1587.8	23
1588.84	25
1589.89	23.5
1590.93	22
1591.97	23.5
1593.02	25
1594.06	26
1595.1	26
1596.14	27
1597.19	23.5
1598.23	29.5
1599.27	26
1600.31	25
1601.35	25
1602.4	21
1603.44	27
1604.48	22.5
1605.52	25
1606.56	25
1607.6	27
1608.64	25.5
1609.68	26
1610.72	24
1611.76	26
1612.8	23
1613.84	27.5
1614.88	22
1615.92	26.5
1616.96	25
1618	24
1619.04	26.5
1620.08	23.5
1621.12	26
1622.16	24
1623.19	24.5
1624.23	28.5
1625.27	26
1626.31	29
1627.35	26
1628.38	28
1629.42	27.5
1630.46	25.5
1631.5	24.5
1632.53	23.5
1633.57	22
1634.61	27.5
1635.64	26
1636.68	24.5
1637.71	30
1638.75	20.5
1639.79	24
1640.82	26
1641.86	26.5
1642.89	24
1643.93	25.5
1644.96	26
1646	25
1647.03	28.5
1648.07	21.5
1649.1	21
1650.14	28
1651.17	24
1652.2	24
1653.24	26
1654.27	27
1655.3	24.5
1656.34	27
1657.37	22
1658.4	26.5
1659.44	26
1660.47	25
1661.5	26
1662.53	22
1663.57	25
1664.6	26.5
1665.63	25
1666.66	23
1667.69	28.5
1668.72	25
1669.75	27.5
1670.79	22
1671.82	25
1672.85	28.5
1673.88	25
1674.91	28
1675.94	30
1676.97	23
1678	25.5
1679.03	21.5
1680.06	25
1681.09	21
1682.11	28.5
1683.14	22
1684.17	24
1685.2	23
1686.23	27.5
1687.26	24.5
1688.29	26.5
1689.32	26
1690.34	26
1691.37	25.5
1692.4	26
1693.43	22
1694.45	22
1695.48	24.5
1696.51	22
1697.53	23.5
1698.56	26
1699.59	27
1700.61	25.5
1701.64	30.5
1702.66	29
1703.69	22.5
1704.72	25.5
1705.74	24.5
1706.77	23.5
1707.79	28
1708.82	22.5
1709.84	22
1710.87	24
1711.89	25.5
1712.92	22
1713.94	22
1714.96	24
1715.99	26.5
1717.01	25
1718.04	26
1719.06	27
1720.08	20
1721.11	26
1722.13	26.5
1723.15	27.5
1724.17	25.5
1725.2	26
1726.22	26
1727.24	22.5
1728.26	26.5
1729.28	25
1730.31	25
1731.33	23
1732.35	23.5
1733.37	27.5
1734.39	24.5
1735.41	24.5
1736.43	25
1737.45	27
1738.47	29
1739.49	28
1740.51	27.5
1741.53	28
1742.55	25
1743.57	26.5
1744.59	24
1745.61	26
1746.63	27
1747.65	26.5
1748.67	24
1749.69	28
1750.71	25.5
1751.72	24.5
1752.74	24.5
1753.76	26
1754.78	21.5
1755.8	25
1756.81	23
1757.83	27.5
1758.85	22
1759.86	28
1760.88	23.5
1761.9	22
1762.91	26.5
1763.93	24.5
1764.95	23
1765.96	24
1766.98	24.5
1768	23.5
1769.01	24
1770.03	26
1771.04	25.5
1772.06	23.5
1773.07	25
1774.09	27
1775.1	23
1776.12	26
1777.13	27.5
1778.14	27
1779.16	25
1780.17	25.5
1781.19	24
1782.2	22
1783.21	27.5
1784.23	20.5
1785.24	23
1786.25	27.5
1787.27	22.5
1788.28	20.5
1789.29	30
1790.3	24
1791.32	27
1792.33	25
1793.34	25
1794.35	29.5
1795.36	25.5
1796.37	24.5
1797.38	21
1798.4	24.5
1799.41	23
1800.42	25.5
1801.43	27.5
1802.44	25.5
1803.45	24.5
1804.46	22
1805.47	23
1806.48	22.5
1807.49	27.5
1808.5	24.5
1809.51	31.5
1810.52	28
1811.53	19
1812.53	27
1813.54	24.5
1814.55	26
1815.56	24
1816.57	21
1817.58	26.5
1818.58	25.5
1819.59	21
1820.6	24
1821.61	24.5
1822.61	25.5
1823.62	26
1824.63	25.5
1825.64	25
1826.64	26.5
1827.65	26
1828.66	26.5
1829.66	23
1830.67	24.5
1831.67	25.5
1832.68	22
1833.68	25
1834.69	20
1835.7	24
1836.7	25
1837.71	32.5
1838.71	20
1839.71	23.5
1840.72	23.5
1841.72	27
1842.73	28
1843.73	23.5
1844.74	25.5
1845.74	25.5
1846.74	25.5
1847.75	26
1848.75	22.5
1849.75	28
1850.76	28
1851.76	24.5
1852.76	24
1853.76	26.5
1854.77	26
1855.77	26
1856.77	20
1857.77	26.5
1858.77	27
1859.78	29.5
1860.78	20.5
1861.78	25.5
1862.78	24.5
1863.78	27
1864.78	26
1865.78	25
1866.78	29
1867.78	25.5
1868.78	25
1869.78	27
1870.78	30
1871.78	28.5
1872.78	23
1873.78	22.5
1874.78	26
1875.78	24.5
1876.78	25.5
1877.78	25
1878.78	23
1879.77	23
1880.77	26
1881.77	24.5
1882.77	25
1883.77	24.5
1884.76	23
1885.76	24.5
1886.76	25
1887.76	26
1888.75	22.5
1889.75	23
1890.75	25
1891.74	26
1892.74	24
1893.74	24.5
1894.73	24
1895.73	23.5
1896.72	22.5
1897.72	25.5
1898.72	25.5
1899.71	28
1900.71	26
1901.7	26.5
1902.7	26
1903.69	24.5
1904.69	22
1905.68	22.5
1906.67	24.5
1907.67	21.5
1908.66	22
1909.66	26.5
1910.65	24
1911.64	25
1912.64	21.5
1913.63	24.5
1914.62	23.5
1915.62	23
1916.61	23
1917.6	28.5
1918.59	26
1919.59	25
1920.58	26
1921.57	20
1922.56	28
1923.55	23.5
1924.55	26
1925.54	24.5
1926.53	23.5
1927.52	24
1928.51	26.5
1929.5	26.5
1930.49	26
1931.48	27
1932.47	24.5
1933.46	26.5
1934.45	27.5
1935.44	24.5
1936.43	25.5
1937.42	23
1938.41	25
1939.4	23
1940.39	26
1941.38	22
1942.37	23.5
1943.36	26
1944.34	22
1945.33	22
1946.32	25
1947.31	24
1948.3	24.75
1949.28	23
1950.27	25
1951.26	25.5
1952.25	24.5
1953.23	22.5
1954.22	26.5
1955.21	23.5
1956.2	24.5
1957.18	19
1958.17	25
1959.15	25
1960.14	24
1961.13	25
1962.11	26
1963.1	24
1964.08	24
1965.07	24
1966.05	24
1967.04	26
1968.02	26.5
1969.01	24.5
1969.99	25.5
1970.98	24
1971.96	25
1972.94	24
1973.93	24.5
1974.91	29
1975.9	25
1976.88	24.5
1977.86	21.5
1978.85	23.5
1979.83	21.5
1980.81	26.5
1981.8	25
1982.78	21
1983.76	25
1984.74	24.5
1985.72	25.5
1986.71	24.5
1987.69	26.5
1988.67	24.5
1989.65	24
1990.63	22
1991.61	25
1992.6	24.5
1993.58	25
1994.56	25.5
1995.54	22
1996.52	26
1997.5	23.5
1998.48	25.5
1999.46	25.5
2000.44	22.5
2001.42	22
2002.4	19
2003.38	23.5
2004.36	24.5
2005.34	24.5
2006.32	24
2007.29	25.5
2008.27	23.5
2009.25	25
2010.23	24
2011.21	21
2012.19	25
2013.16	23
2014.14	23.5
2015.12	23.5
2016.1	26.5
2017.07	24
2018.05	27
2019.03	26
2020	22
2020.98	23.5
2021.96	24
2022.93	23
2023.91	27.5
2024.89	22
2025.86	20.5
2026.84	26.5
2027.81	21.5
2028.79	25
2029.77	24.5
2030.74	24
2031.72	24.5
2032.69	22
2033.67	22.5
2034.64	20
2035.61	23
2036.59	27
2037.56	25.5
2038.54	25
2039.51	21
2040.48	25.5
2041.46	26
2042.43	21.5
2043.41	21
2044.38	21
2045.35	25
2046.32	23
2047.3	24.5
2048.27	25
2049.24	22.5
2050.21	20
2051.19	20.5
2052.16	24
2053.13	21.5
2054.1	23.5
2055.07	20.5
2056.04	23.5
2057.02	23
2057.99	25.5
2058.96	22
2059.93	23.5
2060.9	23.5
2061.87	22.5
2062.84	22
2063.81	24
2064.78	24.5
2065.75	23.5
2066.72	22.5
2067.69	25
2068.66	21.5
2069.63	24
2070.6	21.5
2071.57	22.5
2072.53	23
2073.5	22.5
2074.47	25
2075.44	22.5
2076.41	26
2077.38	22.5
2078.34	22
2079.31	23
2080.28	29
2081.25	20
2082.21	23
2083.18	23.5
2084.15	25
2085.12	22
2086.08	26
2087.05	21.5
2088.02	23.5
2088.98	23.5
2089.95	27.5
2090.91	23.5
2091.88	23
2092.85	23.5
2093.81	23.5
2094.78	24.5
2095.74	23.5
2096.71	20.5
2097.67	23.5
2098.64	24
2099.6	25
2100.57	24.5
2101.53	23.5
2102.5	25.5
2103.46	26
2104.42	21
2105.39	25.5
2106.35	22
2107.31	24
2108.28	26
2109.24	23.5
2110.2	28
2111.17	25
2112.13	25.5
2113.09	23.5
2114.06	21
2115.02	24
2115.98	28
2116.94	23.5
2117.9	25.5
2118.86	20
2119.83	23
2120.79	23.5
2121.75	20.5
2122.71	25
2123.67	23.5
2124.63	25.5
2125.59	24.5
2126.55	22.5
2127.51	20
2128.48	23
2129.43	19.5
2130.4	26.5
2131.35	25
2132.31	23.5
2133.27	22
2134.23	25.5
2135.19	24
2136.15	21
2137.11	22
2138.07	23
2139.03	23.5
2139.99	23
2140.95	28
2141.9	23
2142.86	23.4883
2143.82	25.4292
2144.78	27.8938
2145.74	24.4225
2146.69	22.5223
2147.65	23.325
2148.61	20.4627
2149.56	23.7621
2150.52	23.6374
2151.48	20.8405
2152.44	22.9504
2153.39	24.1398
2154.35	25.305
2155.3	24.5444
2156.26	19.7015
2157.22	26.6998
2158.17	21.7082
2159.13	22.6589
2160.08	20.7459
2161.04	23.0071
2161.99	22.2031
2162.95	21.8131
2163.9	22.1763
2164.86	22.7718
2165.81	22.4461
2166.77	24.4748
2167.72	23.0598
2168.68	19.5465
2169.63	25.0663
2170.58	21.3792
2171.54	23.484
2172.49	22.4352
2173.44	25.3595
2174.4	22.7997
2175.35	24.4572
2176.3	20.92
2177.26	22.3777
2178.21	24.1652
2179.16	21.4603
2180.11	20.4643
2181.07	25.1831
2182.02	23.7484
2182.97	23.1432
2183.92	23.8231
2184.88	22.7785
2185.83	24.4746
2186.78	23.6461
2187.73	22.3385
2188.68	23.784
2189.63	23.2922
2190.58	23.7524
2191.53	22.4101
2192.48	20.2673
2193.43	22.8332
2194.38	17.5535
2195.33	24.2413
2196.28	21.6113
2197.23	22.1205
2198.18	22.6305
2199.13	20.3955
2200.08	23.1092
2201.03	21.8127
2201.98	22
2202.93	23.1012
2203.88	23.2458
2204.83	23.7455
2205.78	24.6978
2206.72	18.3377
2207.67	21.6535
2208.62	20.3853
2209.57	21.9465
2210.52	24.336
2211.46	23.1818
2212.41	23.6432
2213.36	20.5639
2214.31	23.6878
2215.25	22.6994
2216.2	21.4381
2217.15	19.9637
2218.09	21.5694
2219.04	22.5095
2219.99	21.1981
2220.93	22.9691
2221.88	24.2333
2222.83	24.0884
2223.77	23.6312
2224.72	25.193
2225.66	24.0929
2226.61	23.3435
2227.55	21.198
2228.5	25.9328
2229.44	21.7462
2230.39	24.1967
2231.33	24.3474
2232.28	25.9289
2233.22	23.555
2234.17	21.7013
2235.11	25.4046
2236.05	21.4688
2237	19.7852
2237.94	23.0844
2238.88	25.5414
2239.83	24.0302
2240.04	23.5
2240.98	24.5
2241.93	25
2242.88	24
2243.83	24.5
2244.78	25
2245.72	20
2246.67	24.5
2247.62	19
2248.56	23
2249.51	24
2250.46	23.5
2251.4	21
2252.35	21.5
2253.3	21
2254.24	23.5
2255.19	22
2256.14	22.5
2257.08	26
2258.03	27
2258.97	22.5
2259.92	26
2260.86	23
2261.81	21
2262.75	20
2263.7	26.5
2264.64	18.5
2265.59	25
2266.53	24
2267.48	20.5
2268.42	29.5
2269.36	23
2270.31	22.5
2271.25	27.5
2272.19	23
2273.14	20.5
2274.08	24
2275.02	23.5
2275.97	19
2276.91	24
2277.85	22
2278.8	22
2279.74	24.5
2280.68	25
2281.62	25
2282.56	20
2283.51	18
2284.45	24.5
2285.39	25
2286.33	21
2287.27	22
2288.21	19.5
2289.15	23
2290.09	21
2291.04	22
2291.98	24
2292.92	22.5
2293.86	21
2294.8	26
2295.74	23.5
2296.68	19
2297.62	23
2298.56	26.5
2299.5	19.5
2300.44	24.5
2301.37	24
2302.31	21
2303.25	20
2304.19	21
2305.13	25
2306.07	21
2307.01	21.5
2307.94	23
2308.88	20
2309.82	23
2310.76	23
2311.7	26
2312.63	21
2313.57	21.5
2314.51	23
2315.44	22
2316.38	23.5
2317.32	21.5
2318.26	26
2319.19	23
2320.13	24
2321.06	26
2322	26
2322.94	20.5
2323.87	24
2324.81	22.5
2325.74	23.5
2326.68	20.5
2327.61	25
2328.55	23.5
2329.48	24.5
2330.42	22
2331.35	27
2332.29	25
2333.22	23
2334.16	24
2335.09	23
2336.02	24
2336.96	26.5
2337.89	18.5
2338.83	25.5
2339.76	21.5
2340.69	23
2341.63	23.5
2342.56	27.5
2343.49	21.5
2344.42	24.5
2345.36	29.5
2346.29	24
2347.22	25.5
2348.15	22.5
2349.09	19
2350.02	23
2350.95	22.5
2351.88	26
2352.81	25.5
2353.74	29
2354.68	24
2355.61	22
2356.54	24.5
2357.47	17.5
2358.4	25
2359.33	23
2360.26	26.5
2361.19	22
2362.12	23.5
2363.05	27
2363.98	23.5
2364.91	24
2365.84	26.5
2366.77	26.5
2367.7	25
2368.63	22.5
2369.56	21.5
2370.49	28
2371.41	25.5
2372.34	21
2373.27	23.5
2374.2	22.5
2375.13	24
2376.06	23.5
2376.98	24
2377.91	24
2378.84	21.5
2379.77	20
2380.69	23
2381.62	19.5
2382.55	26.5
2383.47	23
2384.4	20
2385.33	22
2386.25	25.5
2387.18	22
2388.11	24.5
2389.03	24
2389.96	24
2390.89	23
2391.81	26
2392.74	22
2393.66	23
2394.59	25
2395.51	21.5
2396.44	25
2397.36	25
2398.29	28
2399.21	24
2400.14	26
2401.06	20
2401.99	25
2402.91	20.5
2403.83	24
2404.76	26.5
2405.68	26
2406.6	19.5
2407.53	22.5
2408.45	25
2409.37	28
2410.3	26
2411.22	23
2412.14	24.5
2413.06	25.5
2413.99	23.5
2414.91	24
2415.83	22
2416.75	20
2417.68	18
2418.6	21.5
2419.52	24
2420.44	21
2421.36	25
2422.28	26.5
2423.2	24
2424.12	24
2425.05	24
2425.97	24
2426.89	27.5
2427.81	23
2428.73	23.5
2429.65	21.5
2430.57	22.5
2431.49	22
2432.41	26.5
2433.33	24.5
2434.25	25.5
2435.17	19
2436.08	25.5
2437	20
2437.92	25
2438.84	22
2439.76	25.5
2440.68	22.5
2441.6	22
2442.51	21
2443.43	21.5
2444.35	23.5
2445.27	23
2446.19	23
2447.1	24
2448.02	25.5
2448.94	23
2449.85	22
2450.77	23
2451.69	19
2452.61	26
2453.52	28.5
2454.44	25
2455.35	21.5
2456.27	20.5
2457.19	21
2458.1	24
2459.02	22.5
2459.94	21
2460.85	24
2461.77	22
2462.68	26.5
2463.6	22.5
2464.51	24
2465.43	20
2466.34	22
2467.25	25
2468.17	24
2469.08	26.5
2470	24
2470.91	24
2471.83	23.5
2472.74	27.5
2473.65	19.5
2474.57	22
2475.48	21.5
2476.39	25
2477.31	23.5
2478.22	21
2479.13	27
2480.04	22.5
2480.96	24.5
2481.87	22
2482.78	23
2483.69	24.5
2484.6	23
2485.52	24.5
2486.43	27
2487.34	22
2488.25	23.5
2489.16	26.5
2490.07	25
2490.99	23.5
2491.9	23.5
2492.81	26
2493.72	26.5
2494.63	27
2495.54	27
2496.45	23
2497.36	23.5
2498.27	22
2499.18	26.5
2500.09	23
2501	27.5
2501.91	23.5
2502.82	19
2503.73	18
2504.63	25.5
2505.54	26
2506.45	25
2507.36	24
2508.27	25.5
2509.18	28
2510.09	26
2510.99	26.5
2511.9	24
2512.81	24.5
2513.72	22
2514.62	24
2515.53	24
2516.44	24.5
2517.35	24.5
2518.25	22.5
2519.16	21.5
2520.07	24
2520.97	22
2521.88	23.5
2522.79	22.5
2523.69	26.5
2524.6	21.5
2525.51	26.5
2526.41	26.5
2527.32	20.5
2528.22	26
2529.13	26.5
2530.03	22
2530.94	26.5
2531.84	26.5
2532.75	25
2533.65	21.5
2534.56	24
2535.46	25
2536.37	26.5
2537.27	24.5
2538.17	24
2539.08	24.5
2539.98	28
2540.89	24
2541.79	23.5
2542.69	24
2543.6	26
2544.5	22
2545.4	22.5
2546.31	26.5
2547.21	23
2548.11	23
2549.01	22
2549.92	23.5
2550.82	24
2551.72	25.5
2552.62	23
2553.52	26
2554.42	27
2555.33	25.5
2556.23	23
2557.13	25
2558.03	26
2558.93	24
2559.83	25
2560.73	25
2561.63	24.5
2562.53	26
2563.43	24
2564.33	25
2565.24	25
2566.13	28.5
2567.04	25.5
2567.93	24.5
2568.83	23.5
2569.73	22.5
2570.63	25
2571.53	22
2572.43	22
2573.33	27.5
2574.23	27.5
2575.13	26
2576.03	23
2576.92	22.5
2577.82	21
2578.72	23
2579.62	24.5
2580.52	23
2581.41	24
2582.31	26.5
2583.21	22
2584.11	25
2585	23
2585.9	27.5
2586.8	24
2587.69	23.5
2588.59	23.5
2589.49	27
2590.38	23.5
2591.28	23.5
2592.18	26
2593.07	25.5
2593.97	22.5
2594.86	25
2595.76	23
2596.66	21.5
2597.55	23.5
2598.45	24
2599.34	25.5
2600.24	23
2601.13	23.5
2602.03	27
2602.92	23
2603.81	24
2604.71	24
2605.6	24.5
2606.5	25
2607.39	26.5
2608.28	22.5
2609.18	21.5
2610.07	25
2610.97	25
2611.86	23.5
2612.75	23
2613.64	23.5
2614.54	24
2615.43	23
2616.32	21.5
2617.22	25
2618.11	27
2619	25
2619.89	27
2620.78	21.5
2621.68	23.5
2622.57	23.5
2623.46	23
2624.35	22
2625.24	25
2626.13	23
2627.02	20.5
2627.91	25
2628.81	24
2629.7	23
2630.59	26.5
2631.48	26.5
2632.37	21.5
2633.26	22
2634.15	28
2635.04	24.5
2635.93	24
2636.82	24.5
2637.71	26.5
2638.59	24
2639.48	25.5
2640.37	23
2641.26	21.5
2642.15	23.5
2643.04	26.5
2643.93	26
2644.82	20
2645.71	27
2646.59	27.5
2647.48	25.5
2648.37	23
2649.26	25
2650.15	27
2651.03	24
2651.92	21
2652.81	22
2653.69	26.5
2654.58	21
2655.47	24
2656.35	26
2657.24	24.5
2658.13	24.5
2659.01	24.5
2659.9	27.5
2660.79	24.5
2661.67	24
2662.56	25.5
2663.44	21.5
2664.33	26
2665.22	24.5
2666.1	26.5
2666.99	26.5
2667.87	20
2668.76	25.5
2669.64	23.5
2670.52	25.5
2671.41	25
2672.29	24.5
2673.18	23
2674.06	25
2674.95	22
2675.83	23
2676.71	25.5
2677.6	24
2678.48	24.5
2679.36	24
2680.25	26
2681.13	23
2682.01	25.5
2682.9	28
2683.78	22.5
2684.66	22
2685.55	24.5
2686.43	23.5
2687.31	23.5
2688.19	23.5
2689.07	21.5
2689.96	23
2690.84	23.5
2691.72	20.5
2692.6	22.5
2693.48	22
2694.36	26.5
2695.24	26
2696.12	26
2697	27
2697.89	27.5
2698.77	20
2699.65	23.5
2700.53	24.5
2701.41	27
2702.29	24.5
2703.17	22.5
2704.05	19.5
2704.93	27
2705.81	27
2706.69	24
2707.57	22.5
2708.44	23
2709.32	25.5
2710.2	20
2711.08	27
2711.96	25
2712.84	29
2713.72	23.5
2714.59	23.5
2715.47	22
2716.35	23
2717.23	22
2718.11	25.5
2718.98	27.5
2719.86	26.5
2720.74	23.5
2721.62	25.5
2722.49	22.5
2723.37	26
2724.25	25.5
2725.12	22
2726	26.5
2726.88	24.5
2727.75	26
2728.63	20.5
2729.51	26
2730.38	23.5
2731.26	24.5
2732.13	21
2733.01	25.5
2733.88	22
2734.76	24.5
2735.63	22
2736.51	24.5
2737.38	21.5
2738.26	22.5
2739.13	24
2740.01	25
2740.88	25
2741.76	22
2742.63	24
2743.5	22.5
2744.38	22.5
2745.25	26
2746.13	26
2747	23.5
2747.87	26
2748.75	22
2749.62	24.5
2750.49	22
2751.36	26.5
2752.24	25.5
2753.11	21
2753.98	25.5
2754.86	27
2755.73	24
2756.6	28.5
2757.47	24
2758.34	23
2759.22	25.5
2760.09	24.5
2760.96	25
2761.83	20
2762.7	24.5
2763.57	22.5
2764.44	26.5
2765.31	23
2766.18	26
2767.06	26.5
2767.93	22
2768.8	24
2769.67	20
2770.54	25.5
2771.41	25.5
2772.28	22.5
2773.15	25.5
2774.02	24.5
2774.89	26
2775.75	21
2776.62	22.5
2777.49	23.5
2778.36	26
2779.23	22.5
2780.1	22.5
2780.97	26
2781.84	24
2782.71	23
2783.57	24.5
2784.44	24
2785.31	26
2786.18	25
2787.04	22
2787.91	24.5
2788.78	18
2789.65	25.5
2790.51	23
2791.38	26
2792.25	27
2793.12	22
2793.98	27
2794.85	25
2795.72	20.5
2796.58	25.5
2797.45	29
2798.31	28
2799.18	25.5
2800.05	24
2800.91	24.75
2801.78	23.5
2802.64	26
2803.51	25
2804.37	24
2805.24	26
2806.1	25
2806.97	25
2807.83	19.5
2808.7	25
2809.56	27
2810.43	27.5
2811.29	24
2812.15	26
2813.02	23
2813.88	25
2814.75	25
2815.61	25
2816.47	24.5
2817.34	26
2818.2	28
2819.06	28
2819.92	26
2820.79	27
2821.65	23
2822.51	26.5
2823.37	23.5
2824.24	24
2825.1	23.5
2825.96	24.5
2826.82	25.5
2827.69	28.5
2828.55	28.5
2829.41	26
2830.27	25.5
2831.13	27
2831.99	26.5
2832.85	24
2833.71	24
2834.58	25.5
2835.44	22.5
2836.3	24
2837.16	25.5
2838.02	26.5
2838.88	26
2839.74	29
2840.6	25
2841.46	23.5
2842.32	25
2843.18	27
2844.04	26
2844.9	24.5
2845.75	27
2846.61	24
2847.47	26
2848.33	30
2849.19	23
2850.05	25
2850.91	22
2851.77	21.5
2852.62	25
2853.48	24
2854.34	22.5
2855.2	25
2856.06	26
2856.91	28.5
2857.77	27.5
2858.63	21
2859.48	25.5
2860.34	23
2861.2	24.5
2862.06	27
2862.91	26
2863.77	28.5
2864.63	25
2865.48	29.5
2866.34	26
2867.19	23
2868.05	25
2868.91	24
2869.76	28.5
2870.62	25
2871.47	29
2872.33	28.5
2873.18	30
2874.04	28
2874.89	28.5
2875.75	29.5
2876.6	25
2877.46	27
2878.31	28
2879.17	25.5
2880.02	26
2880.88	32
2881.73	30
2882.58	33
2883.44	30.5
2884.29	32.5
2885.14	30.5
2886	33
2886.85	35
2887.7	36
2888.56	32.5
2889.41	32.5
2890.26	36.5
2891.12	37.5
2891.97	37.5
2892.82	40.5
2893.67	42
2894.52	42
2895.38	38.5
2896.23	48.5
2897.08	45.5
2897.93	48.5
2898.78	51.5
2899.64	53
2900.49	57
2901.34	60.5
2902.19	60
2903.04	56.5
2903.89	64
2904.74	64
2905.59	64
2906.44	69.5
2907.29	65
2908.14	59
2908.99	61
2909.84	58
2910.69	61.5
2911.54	56.5
2912.39	54.5
2913.24	51
2914.09	51
2914.94	44
2915.79	46.5
2916.64	43.5
2917.49	36.5
2918.34	36
2919.18	37
2920.03	40.5
2920.88	41.5
2921.73	33
2922.58	34.5
2923.42	30.5
2924.27	32
2925.12	29.5
2925.97	32.5
2926.82	29
2927.66	30.5
2928.51	32
2929.36	27
2930.2	23.5
2931.05	26
2931.9	28
2932.74	29
2933.59	30
2934.44	25.5
2935.28	30
2936.13	28
2936.98	24
2937.82	26.5
2938.67	26.5
2939.51	30
2940.36	29
2941.2	23.5
2942.05	27
2942.9	25.5
2943.74	23
2944.58	26
2945.43	27
2946.27	27.5
2947.12	25.5
2947.96	32
2948.81	31
2949.65	30.5
2950.5	33.5
2951.34	31.5
2952.18	34.5
2953.03	31
2953.87	28.5
2954.71	35.5
2955.56	35.5
2956.4	34.5
2957.24	31
2958.09	33
2958.93	36
2959.77	32
2960.62	38.5
2961.46	40
2962.3	37
2963.14	44
2963.98	41.5
2964.83	37
2965.67	44
2966.51	39
2967.35	37
2968.19	39
2969.04	36.5
2969.88	36.5
2970.72	40.5
2971.56	41.9879
2972.4	32.9686
2973.24	33.53
2974.08	37.8215
2974.92	32.5311
2975.76	29.133
2976.6	33.4683
2977.44	33.7036
2978.28	32.1462
2979.12	27.4018
2979.96	27.7961
2980.8	30.7002
2981.64	27.3097
2982.48	26.9876
2983.32	30.2372
2984.16	27.387
2985	26.3621
2985.84	27.2068
2986.68	23.9136
2987.52	26.4331
2988.35	27.647
2989.19	22.4744
2990.03	25.2192
2990.87	25.3977
2991.71	24.1704
2992.55	23.8107
2993.38	26.7776
2994.22	25.4578
2995.06	27.1326
2995.9	25.5661
2996.73	21.1845
2997.57	23.6944
2998.41	24.6575
2999.25	23.3196
3000.08	26.3864
3000.92	23.4557
3001.76	22.8687
3002.59	26.8718
3003.43	24.552
3004.27	23.6947
3005.1	19.3424
3005.94	23.0819
3006.78	23.457
3007.61	23.437
3008.45	24.9163
3009.28	25.972
3010.12	21.3736
3010.95	23.9563
3011.79	22.7416
3012.62	21.3803
3013.46	20.9374
3014.29	24
3015.13	23.9439
3015.96	22.6764
3016.8	22.8134
3017.63	23.7008
3018.47	23.6147
3019.3	23.8976
3020.14	23.0498
3020.97	21.6648
3021.8	22.0356
3022.64	23.5401
3023.47	22.4556
3024.3	21.8477
3025.14	22.2141
3025.97	22.6155
3026.8	24.0458
3027.64	20.8303
3028.47	21.2389
3029.3	21.668
3030.14	22.0921
3030.97	22.6003
3031.8	23.4802
3032.63	21.4888
3033.46	23.7313
3034.3	24.568
3035.13	23.2153
3035.96	22.9326
3036.79	22.9898
3037.62	22.3714
3038.46	22.5856
3039.29	24.6341
3040.12	23.1048
3040.95	23.7653
3041.78	25.2929
3042.61	23.6938
3043.44	23.1497
3044.27	22.6091
3045.1	21.563
3045.93	21.6638
3046.76	20.5349
3047.59	21.8593
3048.42	21.2402
3049.25	19.7241
3050.08	22.5462
3050.91	24.339
3051.74	23.7577
3052.57	22.6883
3053.4	21.2903
3054.23	21.6437
3055.06	20.4528
3055.89	19.6158
3056.72	21.5883
3057.32	23
3058.15	28
3058.98	26.5
3059.82	27
3060.65	21.5
3061.48	22
3062.31	28.5
3063.15	21.5
3063.98	22.5
3064.81	22.5
3065.64	23
3066.48	22
3067.31	22.5
3068.14	21
3068.97	25
3069.8	22
3070.63	25
3071.47	20.5
3072.3	22
3073.13	23
3073.96	23.5
3074.79	26
3075.62	23.5
3076.45	24.5
3077.28	25.5
3078.11	24
3078.94	25
3079.77	27
3080.6	20
3081.43	22.5
3082.26	28.5
3083.09	24.5
3083.92	25
3084.75	25
3085.58	26.5
3086.41	20.5
3087.24	25
3088.07	23.5
3088.9	25.5
3089.73	24.5
3090.55	21.5
3091.38	24.5
3092.21	22
3093.04	21
3093.87	23
3094.7	18
3095.52	26
3096.35	22.5
3097.18	25
3098.01	21
3098.84	19
3099.66	21.5
3100.49	23
3101.32	26.5
3102.14	23.5
3102.97	24
3103.8	27
3104.62	21
3105.45	21
3106.28	21.5
3107.1	23
3107.93	21
3108.76	21.5
3109.58	20
3110.41	21.5
3111.23	22.5
3112.06	22
3112.89	22.5
3113.71	22.5
3114.54	26
3115.36	23
3116.19	23
3117.01	21
3117.84	25.5
3118.66	20.5
3119.49	26
3120.31	21.5
3121.13	26
3121.96	23.5
3122.78	22.5
3123.61	20.5
3124.43	26.5
3125.25	24.5
3126.08	22.5
3126.9	21.5
3127.73	22.5
3128.55	25.5
3129.37	23.5
3130.19	20
3131.02	22.5
3131.84	24.5
3132.66	23
3133.49	20
3134.31	24.5
3135.13	19
3135.95	22
3136.78	19
3137.6	22
3138.42	21.5
3139.24	26
3140.06	27.5
3140.88	24
3141.71	26
3142.53	18
3143.35	26
3144.17	19
3144.99	26
3145.81	26
3146.63	21
3147.45	21.5
3148.27	24.5
3149.09	20
3149.91	25
3150.73	26
3151.56	18.5
3152.37	22
3153.2	21
3154.01	21
3154.83	22.5
3155.65	23
3156.47	24.5
3157.29	22.5
3158.11	22.5
3158.93	18.5
3159.75	20.5
3160.57	23
3161.39	24.5
3162.21	24
3163.02	26.5
3163.84	23.5
3164.66	23.5
3165.48	24.5
3166.3	23
3167.11	22.5
3167.93	26
3168.75	21
3169.57	20
3170.39	26.5
3171.2	23.5
3172.02	23
3172.84	22.5
3173.65	21.5
3174.47	22.5
3175.29	24
3176.1	24.5
3176.92	22
3177.74	25.5
3178.55	19
3179.37	26.5
3180.19	25
3181	23
3181.82	23
3182.63	25.5
3183.45	25
3184.27	21
3185.08	24.5
3185.9	22
3186.71	26.5
3187.53	22.5
3188.34	23.5
3189.16	24.5
3189.97	25.5
3190.79	22.5
3191.6	23.5
3192.41	21.5
3193.23	23
3194.04	21
3194.86	25
3195.67	22.5
3196.48	27.5
3197.3	23.5
3198.11	27
3198.93	29
3199.74	26
3200.55	25.5
3201.36	23.5
3202.18	27
3202.99	27
3203.8	21
3204.62	24
3205.43	24
3206.24	23.5
3207.05	26
3207.87	21.5
3208.68	23
3209.49	24
3210.3	25
3211.11	22.5
3211.93	25
3212.74	24
3213.55	23
3214.36	26
3215.17	22.5
3215.98	22
3216.79	24
3217.6	23
3218.41	20
3219.22	22
3220.03	23
3220.85	22.5
3221.66	21
3222.47	23.5
3223.28	24.5
3224.09	20
3224.9	23
3225.71	20
3226.52	20.5
3227.33	23.5
3228.13	21.5
3228.94	23.5
3229.75	27.5
3230.56	22
3231.37	23
3232.18	22.5
3232.99	24
3233.8	23.5
3234.61	25
3235.41	22.5
3236.22	27
3237.03	22.5
3237.84	23
3238.65	23.5
3239.45	20.5
3240.26	22.5
3241.07	24
3241.88	22
3242.68	22.5
3243.49	26
3244.3	24
3245.1	24
3245.91	24.5
3246.72	24.5
3247.53	21
3248.33	25
3249.14	24
3249.95	25
3250.75	27.5
3251.56	19
3252.36	20
3253.17	25.5
3253.97	22.5
3254.78	21.5
3255.59	26
3256.39	22
3257.2	26
3258	22
3258.81	25.5
3259.61	23
3260.42	24
3261.22	21
3262.03	20.5
3262.83	24.5
3263.64	22.5
3264.44	22.5
3265.24	26
3266.05	24
3266.85	25.5
3267.66	24
3268.46	23.5
3269.26	24
3270.07	22.5
3270.87	25
3271.67	22.5
3272.48	23.5
3273.28	24
3274.08	23
3274.89	26.5
3275.69	25
3276.49	22.5
3277.29	22
3278.1	22
3278.9	28
3279.7	27.5
3280.5	25
3281.3	24
3282.11	20.5
3282.91	24.5
3283.71	23.5
3284.51	21.5
3285.31	21
3286.11	24.5
3286.91	25
3287.72	22.5
3288.52	21.5
3289.32	23.5
3290.12	24.5
3290.92	25
3291.72	27
3292.52	23.5
3293.32	25.5
3294.12	26
3294.92	21
3295.72	24
3296.52	20
3297.32	27
3298.12	25
3298.92	28.5
3299.72	23.5
3300.52	23
3301.32	22.5
3302.12	22.5
3302.92	25.5
3303.71	23.5
3304.51	26
3305.31	24
3306.11	25
3306.91	23.5
3307.71	24
3308.5	26
3309.3	23
3310.1	21.5
3310.9	29.5
3311.7	26.5
3312.49	24.5
3313.29	23.5
3314.09	25
3314.89	22.5
3315.68	21
3316.48	24
3317.28	23
3318.07	21.5
3318.87	24.5
3319.67	22.5
3320.46	24
3321.26	21.5
3322.06	23
3322.85	23
3323.65	24
3324.44	25
3325.24	25
3326.04	23
3326.83	22.5
3327.63	24.5
3328.42	22.5
3329.22	24.5
3330.01	24
3330.81	23.5
3331.6	24.5
3332.4	24.5
3333.19	22
3333.99	26
3334.78	25.5
3335.58	25.5
3336.37	21.5
3337.17	23.5
3337.96	23.5
3338.75	23
3339.55	20.5
3340.34	25
3341.13	21
3341.93	24
3342.72	22.5
3343.51	24.5
3344.31	20
3345.1	23.5
3345.89	24
3346.69	22
3347.48	23
3348.27	19.5
3349.06	26
3349.86	25
3350.65	24.5
3351.44	22
3352.23	22.5
3353.03	22.5
3353.82	23.5
3354.61	23
3355.4	23
3356.19	23
3356.98	22
3357.78	21.5
3358.57	21.5
3359.36	21
3360.15	26.5
3360.94	21
3361.73	25
3362.52	22
3363.31	21
3364.1	21
3364.89	21
3365.68	25
3366.47	25
3367.26	21
3368.05	26
3368.84	29
3369.63	26
3370.42	25
3371.21	25
3372	22.5
3372.79	21.5
3373.58	23.5
3374.37	24
3375.16	20.5
3375.95	28
3376.73	20.5
3377.52	26
3378.31	26
3379.1	23
3379.89	28.5
3380.68	24
3381.46	23
3382.25	24.5
3383.04	24
3383.83	27.5
3384.62	27
3385.4	21
3386.19	24.5
3386.98	23
3387.76	22.5
3388.55	25.5
3389.34	23.5
3390.13	23
3390.91	24.5
3391.7	24
3392.49	27
3393.27	22.5
3394.06	23
3394.84	23.5
3395.63	28
3396.42	21.5
3397.2	22
3397.99	26
3398.77	22
3399.56	26
3400.34	19.5
3401.13	22.5
3401.92	21
3402.7	26
3403.49	26.5
3404.27	25
3405.06	25.5
3405.84	24.5
3406.62	22
3407.41	24
3408.19	23.5
3408.98	25
3409.76	28
3410.55	24.5
3411.33	25
3412.11	21
3412.9	24.5
3413.68	21
3414.46	26
3415.25	24
3416.03	25
3416.81	25
3417.6	22
3418.38	22
3419.16	25
3419.95	24
3420.73	28.5
3421.51	26
3422.29	21.5
3423.08	24
3423.86	20
3424.64	21
3425.42	21
3426.2	21.5
3426.98	21
3427.77	23.5
3428.55	20.5
3429.33	20
3430.11	24
3430.89	24.5
3431.67	25
3432.45	23
3433.24	24
3434.02	26
3434.8	20
3435.58	26.5
3436.36	22
3437.14	26.5
3437.92	25.5
3438.7	25
3439.48	25.5
3440.26	27.5
3441.04	23.5
3441.82	25
3442.6	21.5
3443.38	25.5
3444.16	22
3444.94	26
3445.71	22
3446.49	25
3447.27	24
3448.05	23.5
3448.83	25.5
3449.61	22
3450.39	25.5
3451.17	24.5
3451.94	25
3452.72	19.5
3453.5	22
3454.28	21
3455.06	23.5
3455.83	22.5
3456.61	23
3457.39	27
3458.17	24.5
3458.94	21.5
3459.72	25.5
3460.5	25
3461.28	20
3462.05	25
3462.83	23
3463.61	18
3464.38	19
3465.16	23
3465.93	24.5
3466.71	22.5
3467.49	23.5
3468.26	20
3469.04	24.5
3469.82	27
3470.59	27
3471.37	23.5
3472.14	25.5
3472.92	22
3473.69	23.5
3474.47	23.5
3475.24	24.5
3476.02	27
3476.79	25
3477.57	23
3478.34	22.5
3479.12	27
3479.89	23.5
3480.67	23
3481.44	25
3482.21	24
3482.99	23
3483.76	21
3484.54	18
3485.31	21
3486.08	22
3486.86	24.5
3487.63	24
3488.4	23
3489.18	22
3489.95	21.5
3490.72	23.5
3491.5	26
3492.27	21
3493.04	22
3493.81	28.5
3494.59	19.5
3495.36	23.5
3496.13	25.5
3496.9	24.5
3497.67	25
3498.45	25.5
3499.22	26
3499.99	23.5
