#Acq. time (s)=	5
#Accumulations=	5
#Range (cm-¹)=	100...3500
#Windows=	4
#Autofocus=	Off
#AutoExposure=	Off
#Spike filter=	Multiple accum.
#Delay time (s)=	0
#Binning=	1
#Readout mode=	Signal
#DeNoise=	Off
#ICS correction=	Off
#Dark correction=	Off
#Inst. Process=	Off
#Instrument=	LabRAM HR Evol
#Detector=	Syncerity OE
#Objective=	x100_VIS
#Grating=	600 (500nm)
#ND Filter=	25%
#Laser=	633nm_Edge
#Hole=	100.021
#Range=	Visible
#Project=	verificaciones
#Sample=	a5
#Site=	lined
#Title=	bolusa5lined
#Remark=	
#Date=	09.01.2026 13:06
#Acquired=	09.01.2026 13:06:17
100.695	28.5
101.978	34.5
103.262	34
104.545	35
105.829	32
107.112	31
108.394	29.5
109.676	31.5
110.958	29.5
112.24	30
113.522	32.5
114.803	30
116.084	32
117.365	35
118.646	30.5
119.927	30.5
121.207	32
122.487	34
123.767	33.5
125.047	31
126.326	34.5
127.606	35.5
128.885	34
130.164	35
131.442	33
132.721	31
133.999	38.5
135.277	38.5
136.555	30.5
137.831	34
139.109	33
140.386	39.5
141.663	41
142.94	41
144.216	36
145.493	38.5
146.769	40.5
148.043	40
149.319	40
150.595	41
151.87	38
153.145	43.5
154.42	49.5
155.693	41
156.968	38
158.242	41.5
159.516	44
160.79	44.5
162.062	44.5
163.336	41.5
164.609	45.5
165.882	43
167.153	38
168.426	41
169.699	42
170.971	42
172.241	42.5
173.513	39.5
174.785	45
176.055	42.5
177.326	42
178.597	42
179.866	46.5
181.137	37.5
182.407	39
183.676	41.5
184.946	40.5
186.216	43.5
187.484	46.5
188.753	38.5
190.022	44
191.29	42
192.558	43
193.825	44.5
195.094	45
196.36	43.5
197.628	42
198.896	36.5
200.162	40.5
201.429	41
202.695	42
203.962	39
205.227	36
206.493	43
207.758	37.5
209.024	37
210.289	34
211.554	40.5
212.818	33
214.083	33
215.347	33.5
216.612	39
217.875	31
219.138	33
220.402	36.5
221.665	34
222.928	35.5
224.19	35.5
225.454	35
226.715	35
227.977	34
229.24	35
230.501	30
231.762	32
233.024	34
234.284	28.5
235.546	30
236.806	27.5
238.066	33
239.327	32
240.587	32
241.846	33
243.105	30.5
244.365	31
245.624	32
246.882	30.5
248.142	31.5
249.4	28.5
250.658	29.5
251.916	31
253.174	31
254.432	29
255.689	32
256.945	26.5
258.202	35
259.46	34.5
260.716	30
261.972	31.5
263.228	29.5
264.483	34.5
265.74	27
266.996	36.5
268.251	30.5
269.505	33
270.76	33
272.014	30
273.268	31
274.522	27.5
275.778	31
277.031	29
278.285	30
279.538	29
280.791	28.5
282.043	27.5
283.296	34.5
284.548	29
285.8	28.5
287.052	30
288.304	29
289.556	29
290.807	28
292.058	28
293.309	29.5
294.56	30
295.81	29.5
297.061	30
298.311	28
299.561	26
300.81	31
302.06	29.5
303.309	29.5
304.558	29
305.807	29
307.056	26
308.305	29
309.551	28.5
310.8	26.5
312.047	29
313.295	29
314.543	29
315.79	30
317.037	27
318.284	28.5
319.529	31.5
320.776	31
322.022	29
323.268	30.5
324.514	28.5
325.758	29.5
327.004	23.5
328.249	30
329.494	28.5
330.739	27.5
331.982	33
333.227	30.5
334.471	28.5
335.715	33
336.958	29
338.201	29
339.445	30
340.687	33.5
341.93	25.5
343.173	31
344.414	29
345.657	30.5
346.899	25.5
348.14	29
349.381	29
350.623	28.5
351.863	29
353.104	27
354.346	33.5
355.585	32
356.826	27
358.065	29.5
359.305	30
360.545	30
361.784	32
363.023	28
364.261	29
365.501	26.5
366.738	32.5
367.977	29
369.216	30.5
370.453	29
371.691	32
372.928	32
374.166	27
375.402	32.5
376.64	27.5
377.876	27
379.111	30
380.348	29.5
381.584	29.5
382.82	31
384.055	27
385.291	30.5
386.526	29
387.76	29.5
388.996	29
390.229	29
391.465	29.5
392.698	29.5
393.931	30
395.166	30
396.399	27.5
397.632	26
398.866	30
400.098	27
401.33	32
402.563	32.5
403.795	30.5
405.027	25.5
406.259	25.5
407.491	30
408.721	35
409.954	28
411.184	27.5
412.415	25.5
413.645	29.5
414.876	27.5
416.106	28.5
417.335	31.5
418.565	27.5
419.794	30
421.024	30.5
422.253	27
423.482	31.5
424.71	29.5
425.938	24.5
427.168	28.5
428.396	29
429.623	31.5
430.851	34.5
432.078	28
433.305	31.5
434.532	25.5
435.758	30.5
436.986	27
438.212	31.5
439.438	30.5
440.664	29
441.89	32.5
443.115	31.5
444.34	34
445.566	31
446.79	29
448.015	30.5
449.24	31.5
450.464	33
451.688	28.5
452.912	31.5
454.135	27
455.359	29
456.582	27
457.805	30.5
459.028	28
460.251	29.5
461.473	30
462.696	31.5
463.918	31
465.14	32.5
466.36	34
467.582	29.5
468.803	32.5
470.024	36
471.245	38
472.466	34
473.686	36.5
474.907	43.5
476.126	42
477.346	39.5
478.565	46.5
479.785	47
481.004	53
482.224	54
483.441	56
484.66	65
485.879	62.5
487.097	63
488.314	65
489.532	66
490.75	67
491.967	56.5
493.184	57.5
494.401	58
495.618	61
496.835	51.5
498.05	54
499.267	51
500.483	47.5
501.698	44.5
502.913	44.5
504.129	42
505.343	48
506.559	40.5
507.774	37
508.987	37
510.202	35
511.415	37.5
512.63	36
513.844	35.5
515.056	30.5
516.27	33.5
517.482	33
518.696	34.5
519.907	33.5
521.121	33.5
522.332	36
523.545	35.5
524.757	30.5
525.968	34
527.18	32.5
528.39	29
529.602	28.5
530.812	27.5
532.023	37.5
533.233	34.5
534.443	34
535.653	31.5
536.862	32
538.073	30
539.281	30.5
540.491	29
541.7	32
542.908	34
544.117	32
545.325	30.5
546.534	33
547.741	31
548.949	28
550.157	31
551.364	30
552.57	23
553.778	27.5
554.985	29
556.191	28
557.398	28.5
558.604	28.5
559.809	30
561.014	27.5
562.221	31
563.426	32
564.63	28.5
565.835	30
567.041	29
568.245	29
569.449	27
570.653	30.5
571.856	27
573.061	27.5
574.264	29
575.467	33.5
576.67	28.5
577.873	29
579.076	29
580.279	32
581.481	26.5
582.683	29
583.884	25
585.086	27
586.287	27
587.488	29
588.689	30
589.891	29.5
591.092	31.5
592.292	29.5
593.492	30.5
594.692	25
595.892	25
597.092	28.5
598.291	28
599.49	28.5
600.689	29
601.888	30
603.087	29.5
604.285	31
605.483	31
606.681	26.5
607.879	28.5
609.077	27
610.274	27.5
611.472	31.5
612.668	25.5
613.865	29.5
615.061	28.5
616.258	27.5
617.454	34.5
618.65	26
619.846	29
621.042	29.5
622.238	30.5
623.432	30
624.627	30
625.822	30
627.017	28
628.212	27
629.406	30
630.599	31
631.793	30.5
632.987	31
634.181	28
635.373	33
636.566	30
637.76	27.5
638.953	31.5
640.144	28.5
641.337	33.5
642.529	27
643.721	30
644.912	31.5
646.104	32.5
647.295	31
648.485	29
649.677	28.5
650.868	28
652.057	30.5
653.248	28
654.437	27
655.628	30.5
656.818	30
658.006	32
659.196	30.5
660.384	30.5
661.574	29.5
662.763	31
663.951	31
665.14	33
666.327	31
667.515	28
668.702	30
669.891	29.5
671.077	29
672.265	27.5
673.451	34
674.638	32.5
675.824	32.5
677.011	29.5
678.197	27
679.383	28.5
680.568	37.5
681.755	36.5
682.939	33
684.124	38
685.309	36
686.494	39
687.679	36.5
688.863	38.5
690.046	38
691.231	37
692.414	35.5
693.599	36
694.781	38
695.964	35.5
697.148	40
698.33	38
699.512	37
700.694	41.5
701.877	40
703.059	44
704.24	42
705.423	52
706.604	48.5
707.784	53
708.965	61
710.147	52.5
711.327	50.5
712.507	46
713.687	41
714.867	44
716.048	36.5
717.227	40.5
718.406	32.5
719.585	35
720.764	29
721.942	32.5
723.122	30.5
724.3	32.5
725.478	29
726.656	31.5
727.834	29
729.011	29.5
730.189	30.5
731.366	27
732.543	31.5
733.719	28.5
734.896	29
736.072	26
737.249	30
738.426	29
739.602	27.5
740.777	27.5
741.953	28.5
743.128	29
744.303	30
745.477	31
746.651	24
747.826	27
749	27
750.174	30.5
751.348	25.5
752.522	30
753.696	31
754.869	31.5
756.043	27
757.216	29
758.389	30
759.561	26.5
760.732	32.5
761.905	27.5
763.077	28
764.249	29.5
765.421	29.5
766.592	29.5
767.762	27
768.934	29.5
770.105	29.5
771.275	27
772.446	30
773.615	33.5
774.786	25.5
775.956	29.5
777.126	33.5
778.294	28
779.464	32
780.633	29
781.801	34
782.97	32.5
784.139	33
785.306	36
786.475	34
787.643	28.5
788.81	35.5
789.978	33.5
791.146	30
792.312	32
793.479	32
794.647	32
795.812	32
796.979	25.5
798.144	30
799.311	31.5
800.477	34.5
801.642	32
802.808	29
803.972	29.5
805.138	28
806.302	31.5
807.467	28.5
808.631	25
809.796	30
810.959	28
812.124	31
813.287	32.5
814.451	28
815.614	26.5
816.777	32
817.94	29.5
819.102	26
820.265	26.5
821.427	26.5
822.59	29
823.751	26
824.912	30.5
826.074	29
827.235	26.5
828.397	30
829.558	27
830.718	26.5
831.879	25.5
833.039	30.5
834.199	32
835.359	28.5
836.519	27.5
837.679	26.5
838.838	29.5
839.998	28
841.156	26.5
842.315	26
843.473	26.5
844.633	33
845.791	27.5
846.948	28.5
848.106	28
849.263	26.5
850.422	29
851.579	26.5
852.736	29.5
853.892	31
855.049	28.5
856.205	29.5
857.363	30.5
858.519	32
859.674	29.5
860.83	28.5
861.986	31
863.141	32.5
864.296	33
865.451	34
866.605	22
867.76	29
868.914	25
870.069	27.5
871.224	31
872.378	30
873.531	27
874.685	28.5
875.838	32
876.991	26
878.144	29
879.296	29
880.448	29
881.6	30
882.753	27
883.905	29
885.057	26.5
886.208	25
887.36	26.5
888.511	30.5
889.662	29.5
890.813	29
891.964	27.5
893.113	28
894.264	24.5
895.414	30
896.564	29
897.714	23.5
898.864	27.5
900.012	27
901.161	30
902.31	24
903.459	26.5
904.607	27.5
905.756	28.5
906.904	27
908.052	29
909.199	27
910.347	27
911.495	24.5
912.643	24.5
913.789	28.5
914.936	27.5
916.083	28
917.229	28.5
918.375	26.5
919.522	25
920.667	25.5
921.813	27
922.959	29
924.104	27
925.249	26
926.393	24
927.539	29
928.684	29.5
929.827	29
930.972	25.5
932.115	31.5
933.26	30
934.403	26.5
935.547	30
936.689	27
937.833	25
938.975	28.5
940.119	28.5
941.26	28.5
942.404	28.5
943.545	26
944.688	29.5
945.829	27
946.971	25.5
948.112	28
949.253	25
950.394	28
951.535	28.5
952.676	25
953.816	29
954.956	25
956.097	28.5
957.236	29
958.377	27.5
959.516	28.5
960.655	27
961.793	28
962.933	27.5
964.071	27
965.21	29
966.349	27
967.487	27.5
968.624	24.5
969.762	23.5
970.901	25.75
972.038	24
973.175	26
974.311	28.5
975.449	25
976.586	27
977.722	28.5
978.858	27.5
979.994	24
981.131	22.5
982.267	30.5
983.402	26
984.537	24
985.672	22.5
986.807	28
987.942	29
989.076	28
990.211	28.5
991.346	25.5
992.48	25
993.614	23
994.748	29
995.881	28
997.014	29
998.148	26.5
999.28	27
1000.41	25.5
1001.55	25.5
1002.68	30.5
1003.81	28
1004.94	23
1006.07	25
1007.21	27.5
1008.34	26
1009.47	29
1010.6	25.5
1011.73	27
1012.86	26
1013.99	23
1015.12	29
1016.25	28.5
1017.38	28
1018.51	21
1019.64	28
1020.77	28.5
1021.9	26
1023.03	28
1024.16	28
1025.29	30.5
1026.42	29
1027.54	21
1028.67	30
1029.8	27.5
1030.93	25.5
1032.06	25.5
1033.18	26
1034.31	27
1035.44	25
1036.56	24
1037.69	26
1038.82	24.5
1039.94	28.5
1041.07	25.5
1042.2	26.5
1043.32	20
1044.45	26
1045.57	24
1046.7	26.5
1047.82	27.5
1048.95	25.5
1050.07	28
1051.2	27.5
1052.32	30
1053.45	29
1054.57	25
1055.69	25.5
1056.82	25
1057.94	29.5
1059.06	26
1060.19	25
1061.31	25
1062.43	27.5
1063.55	23.5
1064.68	27
1065.8	24
1066.92	25
1068.04	22
1069.16	25
1070.28	25.5
1071.41	27.5
1072.53	26
1073.65	26.5
1074.77	27.5
1075.89	25.5
1077.01	24.5
1078.13	22
1079.25	27.5
1080.37	28
1081.49	22.5
1082.61	25
1083.73	25
1084.85	26.5
1085.96	23
1087.08	23.5
1088.2	29
1089.32	25.5
1090.44	24
1091.56	23
1092.67	24
1093.79	28
1094.91	30
1096.03	25.5
1097.14	27
1098.26	26
1099.38	24
1100.49	24.5
1101.61	25.5
1102.73	26
1103.84	25.5
1104.96	24.5
1106.07	26.5
1107.19	26
1108.3	25
1109.42	23
1110.53	23
1111.65	28
1112.76	26
1113.88	26
1114.99	27
1116.1	23.5
1117.22	22
1118.33	25
1119.44	26
1120.56	26.5
1121.67	27.5
1122.78	27.5
1123.9	26
1125.01	27
1126.12	25
1127.23	29.5
1128.34	28
1129.46	25
1130.57	29.5
1131.68	28
1132.79	25.5
1133.9	21.5
1135.01	22.5
1136.12	28.5
1137.23	26.5
1138.34	28.5
1139.45	28
1140.56	28
1141.67	25
1142.78	25
1143.89	24.5
1145	24
1146.11	27
1147.22	26
1148.33	27.5
1149.44	26
1150.54	28.5
1151.65	28
1152.76	27
1153.87	24
1154.97	27.5
1156.08	24.5
1157.19	27.5
1158.3	27.5
1159.4	24
1160.51	25
1161.62	25
1162.72	28
1163.83	28.5
1164.93	29
1166.04	26
1167.15	19
1168.25	28.5
1169.36	23
1170.46	25
1171.57	25
1172.67	24.5
1173.78	29
1174.88	27.5
1175.98	19
1177.09	28.5
1178.19	24.5
1179.3	22.5
1180.4	25
1181.5	24
1182.61	26.5
1183.71	23.5
1184.81	28
1185.91	27
1187.02	26
1188.12	22
1189.22	27
1190.32	23.5
1191.42	23
1192.53	25.5
1193.63	25.5
1194.73	21.0207
1195.83	25.5035
1196.93	24.1136
1198.03	22.0864
1199.13	26.955
1200.23	23.9945
1201.33	23.9748
1202.43	26.7816
1203.53	24.5063
1204.63	25.0981
1205.73	21.1019
1206.83	23.7568
1207.93	25.9061
1209.02	25.7924
1210.12	27.9126
1211.22	24.277
1212.32	26.6796
1213.42	19.0878
1214.52	22.7319
1215.61	28.5534
1216.71	26.9703
1217.81	24.8992
1218.91	24.1177
1220	24.5548
1221.1	23.6815
1222.2	24.4829
1223.29	22.3822
1224.39	25.8935
1225.49	25.8883
1226.58	26.3436
1227.68	23.3238
1228.77	24.0413
1229.87	26.1537
1230.96	25.3134
1232.06	27.1176
1233.15	23.8599
1234.25	23.719
1235.34	25.8083
1236.44	27.1286
1237.53	23.408
1238.63	24.9694
1239.72	26.3528
1240.81	25.5958
1241.91	23.7627
1243	25.277
1244.09	20.7771
1245.19	25.3109
1246.28	24.1648
1247.37	26.5566
1248.46	24.5828
1249.56	25.7049
1250.65	23.2677
1251.74	23.2645
1252.83	25.7158
1253.92	24.8153
1255.01	23.7151
1256.11	26.1916
1257.2	25.6991
1258.29	27.1069
1259.38	24.9212
1260.47	26.4103
1261.56	28.4373
1262.65	27.9729
1263.74	23.3718
1264.83	24.2914
1265.92	26.3361
1267.01	26.2369
1268.1	26.9097
1269.19	26.798
1270.27	22.7055
1271.36	22.7988
1272.45	22.4272
1273.54	25.1729
1274.63	24.5085
1275.72	27.2907
1276.8	25.2302
1277.89	25.3245
1278.98	24.3186
1280.07	24.9135
1281.15	24.9319
1282.24	24.404
1283.33	23.0498
1284.41	23.6629
1285.5	25.9207
1286.59	23.6835
1287.67	24.4441
1288.76	23.5801
1289.84	21.3198
1290.93	21.8111
1292.01	22.8959
1293.1	21.149
1294.19	26.3342
1295.27	26.1816
1296.35	23.3843
1297.44	27.7588
1298.52	24.3859
1299.61	23.4212
1300.69	26.1505
1301.78	24.8129
1302.86	22.5867
1303.94	19.0218
1305.03	24.6522
1306.11	25.5445
1306.4	25
1307.49	25
1308.57	27.5
1309.66	24.5
1310.75	26.5
1311.84	25.5
1312.92	24.5
1314.01	24.5
1315.1	23
1316.19	24
1317.27	26.5
1318.36	23.5
1319.45	24.5
1320.53	23.5
1321.62	30
1322.7	23
1323.79	25
1324.88	27
1325.96	28.5
1327.05	26
1328.13	22.5
1329.21	22.5
1330.3	28
1331.38	19.5
1332.47	23
1333.55	23.5
1334.64	24
1335.72	28.5
1336.8	22
1337.89	24
1338.97	25
1340.05	27
1341.14	27
1342.22	24
1343.3	25
1344.39	23
1345.47	22.5
1346.55	32
1347.63	23.5
1348.71	24
1349.79	26
1350.88	27.5
1351.96	21.5
1353.04	23.5
1354.12	22
1355.2	28
1356.28	23
1357.36	24.5
1358.44	27
1359.52	27
1360.6	26
1361.68	26.5
1362.76	23.5
1363.84	25.5
1364.92	28
1366	26
1367.08	21
1368.16	28
1369.23	29
1370.31	24
1371.39	22.5
1372.47	23.5
1373.55	21
1374.62	27
1375.7	25.5
1376.78	25.5
1377.85	25
1378.93	26.5
1380.01	28.5
1381.09	25.5
1382.16	24
1383.24	23.5
1384.31	28.5
1385.39	24
1386.47	24
1387.54	26
1388.62	27
1389.69	28
1390.77	28.5
1391.84	27
1392.92	24
1393.99	30.5
1395.06	26.5
1396.14	27
1397.21	27.5
1398.29	30
1399.36	32.5
1400.43	30
1401.51	27.5
1402.58	30
1403.65	28.5
1404.73	30.5
1405.8	31.5
1406.87	30.5
1407.94	32
1409.02	32.5
1410.09	27
1411.16	32.5
1412.23	28
1413.3	32
1414.37	30.5
1415.45	33
1416.52	28.5
1417.59	29
1418.66	26.5
1419.73	29.5
1420.8	27
1421.87	23
1422.94	31
1424.01	28
1425.08	26.5
1426.15	28.5
1427.22	26.5
1428.29	23
1429.35	28
1430.42	28
1431.49	27
1432.56	24
1433.63	27.5
1434.7	27
1435.77	28
1436.83	20.5
1437.9	24
1438.97	28
1440.04	26.5
1441.1	24
1442.17	31.5
1443.24	24.5
1444.3	27.5
1445.37	27.5
1446.44	29
1447.5	26.5
1448.57	29.5
1449.63	31.5
1450.7	24
1451.76	27
1452.83	30
1453.89	24.5
1454.96	26.5
1456.02	28.5
1457.09	28
1458.15	27
1459.22	27.5
1460.28	25
1461.34	25.5
1462.41	27.5
1463.47	21.5
1464.54	24.5
1465.6	26.5
1466.66	24
1467.72	23.5
1468.79	27
1469.85	27.5
1470.91	23.5
1471.97	25.5
1473.04	25
1474.1	25.5
1475.16	25.5
1476.22	23
1477.28	26.5
1478.34	26
1479.4	26
1480.47	25.5
1481.53	27.5
1482.59	27.5
1483.65	24.5
1484.71	23.5
1485.77	28.5
1486.83	26.5
1487.89	27
1488.95	24.5
1490.01	28
1491.07	25
1492.12	24.5
1493.18	27
1494.24	30.5
1495.3	26.5
1496.36	28.5
1497.42	23.5
1498.47	27.5
1499.53	25.5
1500.59	25
1501.65	24
1502.7	29.5
1503.76	25
1504.82	28.5
1505.88	23
1506.93	25
1507.99	25.5
1509.05	25
1510.1	26.5
1511.16	24.5
1512.21	24.5
1513.27	26
1514.32	23
1515.38	28
1516.43	24
1517.49	20.5
1518.54	25.5
1519.6	24.5
1520.65	26
1521.71	28
1522.76	24.5
1523.82	23
1524.87	25.5
1525.92	27.5
1526.98	24
1528.03	26.5
1529.08	26
1530.14	26
1531.19	26.5
1532.24	29.5
1533.3	22
1534.35	30.5
1535.4	26.5
1536.45	29.5
1537.5	24.5
1538.56	29.5
1539.61	24.5
1540.66	26.5
1541.71	23
1542.76	26
1543.81	24
1544.86	25
1545.91	26
1546.96	24
1548.01	22.5
1549.06	25
1550.11	26.5
1551.16	23
1552.21	27
1553.26	22
1554.31	29.5
1555.36	24.5
1556.41	26.5
1557.46	23
1558.51	29
1559.55	28.5
1560.6	24.5
1561.65	30
1562.7	29.5
1563.75	26
1564.79	27
1565.84	26.5
1566.89	26
1567.94	25.5
1568.98	29
1570.03	25
1571.07	26
1572.12	25.5
1573.17	28
1574.21	21.5
1575.26	23
1576.31	26
1577.35	25.5
1578.4	27.5
1579.44	25
1580.49	28
1581.53	27.5
1582.58	25.5
1583.62	25
1584.67	26.5
1585.71	23
1586.75	24
1587.8	24.5
1588.84	26.5
1589.89	26
1590.93	28
1591.97	27
1593.02	28.5
1594.06	23.5
1595.1	26.5
1596.14	25
1597.19	28
1598.23	24
1599.27	27.5
1600.31	25.5
1601.35	24
1602.4	26.5
1603.44	28
1604.48	27
1605.52	28
1606.56	24
1607.6	27
1608.64	25
1609.68	25
1610.72	28
1611.76	24.5
1612.8	30
1613.84	24
1614.88	25
1615.92	25
1616.96	24.5
1618	28
1619.04	23
1620.08	21.5
1621.12	24.5
1622.16	24
1623.19	26
1624.23	25.5
1625.27	25
1626.31	24
1627.35	26
1628.38	27.5
1629.42	29.5
1630.46	25.5
1631.5	25
1632.53	28
1633.57	30.5
1634.61	30
1635.64	26
1636.68	22.5
1637.71	24
1638.75	25.5
1639.79	27.5
1640.82	25
1641.86	28.5
1642.89	26.5
1643.93	24
1644.96	27
1646	23
1647.03	31.5
1648.07	26
1649.1	27.5
1650.14	24
1651.17	28
1652.2	26
1653.24	27
1654.27	26.5
1655.3	25
1656.34	29
1657.37	27
1658.4	27
1659.44	25.5
1660.47	26
1661.5	25
1662.53	26
1663.57	24
1664.6	27.5
1665.63	21.5
1666.66	24
1667.69	24
1668.72	23.5
1669.75	24
1670.79	25.5
1671.82	22
1672.85	25
1673.88	21
1674.91	26.5
1675.94	26
1676.97	24.5
1678	25.5
1679.03	25.5
1680.06	22
1681.09	26
1682.11	26
1683.14	24.5
1684.17	29.5
1685.2	24
1686.23	26.5
1687.26	27
1688.29	27.5
1689.32	26
1690.34	22
1691.37	20
1692.4	28
1693.43	26.5
1694.45	26
1695.48	29.5
1696.51	27
1697.53	23
1698.56	22.5
1699.59	22.5
1700.61	23
1701.64	25
1702.66	27
1703.69	27.5
1704.72	26
1705.74	26.5
1706.77	23
1707.79	27
1708.82	25
1709.84	27
1710.87	28.5
1711.89	25
1712.92	24
1713.94	28
1714.96	24
1715.99	23
1717.01	27
1718.04	29
1719.06	25
1720.08	26.5
1721.11	31.5
1722.13	26
1723.15	24.5
1724.17	28
1725.2	28.5
1726.22	25
1727.24	28
1728.26	28.5
1729.28	24
1730.31	26
1731.33	28.5
1732.35	27
1733.37	24.5
1734.39	28
1735.41	25
1736.43	26.5
1737.45	25
1738.47	31
1739.49	24.5
1740.51	27
1741.53	26
1742.55	23.5
1743.57	25
1744.59	25.5
1745.61	28.5
1746.63	24
1747.65	23.5
1748.67	27
1749.69	27.5
1750.71	25.5
1751.72	23
1752.74	26.5
1753.76	25
1754.78	29.5
1755.8	27
1756.81	25
1757.83	25.5
1758.85	26.5
1759.86	26.5
1760.88	24
1761.9	26.5
1762.91	24
1763.93	23
1764.95	32.5
1765.96	26
1766.98	25
1768	25.5
1769.01	27
1770.03	21.5
1771.04	25
1772.06	23.5
1773.07	29
1774.09	26
1775.1	24
1776.12	27.5
1777.13	25.5
1778.14	24.5
1779.16	26
1780.17	24.5
1781.19	22.5
1782.2	24
1783.21	23.5
1784.23	27
1785.24	26.5
1786.25	26.5
1787.27	25
1788.28	26.5
1789.29	26.5
1790.3	23
1791.32	24.5
1792.33	22
1793.34	29.5
1794.35	25.5
1795.36	23.5
1796.37	26.5
1797.38	25.5
1798.4	28
1799.41	22
1800.42	25
1801.43	26.5
1802.44	26
1803.45	26
1804.46	24.5
1805.47	21.5
1806.48	23
1807.49	27.5
1808.5	24
1809.51	26
1810.52	25.5
1811.53	26
1812.53	23
1813.54	25
1814.55	24
1815.56	27
1816.57	28.5
1817.58	28
1818.58	25
1819.59	23
1820.6	23.5
1821.61	29.5
1822.61	25.5
1823.62	23
1824.63	29
1825.64	25.5
1826.64	26
1827.65	25
1828.66	24.5
1829.66	27.5
1830.67	20.5
1831.67	26.5
1832.68	25
1833.68	26
1834.69	24.5
1835.7	24
1836.7	27
1837.71	26
1838.71	24.5
1839.71	21
1840.72	21
1841.72	25.5
1842.73	20
1843.73	25.5
1844.74	23
1845.74	26.5
1846.74	25.5
1847.75	25.5
1848.75	22.5
1849.75	25.5
1850.76	26
1851.76	26
1852.76	25
1853.76	25
1854.77	31
1855.77	23.5
1856.77	28
1857.77	23
1858.77	27
1859.78	25
1860.78	26.5
1861.78	22
1862.78	21.5
1863.78	26
1864.78	25.5
1865.78	24
1866.78	25
1867.78	21
1868.78	26
1869.78	26.5
1870.78	24.5
1871.78	27
1872.78	27.5
1873.78	26
1874.78	28.5
1875.78	25
1876.78	25
1877.78	26.5
1878.78	24.5
1879.77	24.5
1880.77	26.5
1881.77	28.5
1882.77	26
1883.77	27
1884.76	26
1885.76	26
1886.76	26
1887.76	25.5
1888.75	27.5
1889.75	25.5
1890.75	24
1891.74	20.5
1892.74	21.5
1893.74	26.5
1894.73	19
1895.73	25
1896.72	26
1897.72	25.5
1898.72	21.5
1899.71	25.5
1900.71	25
1901.7	27.5
1902.7	26.5
1903.69	22
1904.69	25
1905.68	25
1906.67	27
1907.67	31
1908.66	31
1909.66	28
1910.65	26
1911.64	26
1912.64	28
1913.63	23.5
1914.62	29
1915.62	23
1916.61	25
1917.6	26.5
1918.59	26.5
1919.59	25.5
1920.58	24
1921.57	26
1922.56	27
1923.55	25
1924.55	25
1925.54	24.5
1926.53	24
1927.52	27
1928.51	26
1929.5	23
1930.49	25
1931.48	24
1932.47	24.5
1933.46	20.5
1934.45	26
1935.44	24
1936.43	22
1937.42	28.5
1938.41	27
1939.4	22.5
1940.39	24
1941.38	21.5
1942.37	24
1943.36	26
1944.34	24.5
1945.33	23
1946.32	24
1947.31	24.5
1948.3	24.5
1949.28	23
1950.27	26
1951.26	23
1952.25	27.5
1953.23	26
1954.22	21.5
1955.21	26
1956.2	21
1957.18	27.5
1958.17	28.5
1959.15	29.5
1960.14	25
1961.13	24.5
1962.11	24
1963.1	26.5
1964.08	25
1965.07	27
1966.05	23.5
1967.04	24
1968.02	27
1969.01	21
1969.99	26.5
1970.98	24
1971.96	22
1972.94	22.5
1973.93	23.5
1974.91	23
1975.9	26.5
1976.88	24.5
1977.86	24
1978.85	24.5
1979.83	26
1980.81	27.5
1981.8	24.5
1982.78	24.5
1983.76	22
1984.74	23.5
1985.72	27.5
1986.71	25
1987.69	26.5
1988.67	22
1989.65	22
1990.63	22
1991.61	28
1992.6	21
1993.58	24.5
1994.56	26
1995.54	25
1996.52	21.5
1997.5	24.5
1998.48	26
1999.46	25
2000.44	22.5
2001.42	26
2002.4	24
2003.38	29
2004.36	25.5
2005.34	22.5
2006.32	22.5
2007.29	27
2008.27	24
2009.25	28
2010.23	22
2011.21	23
2012.19	25.5
2013.16	27.5
2014.14	24.5
2015.12	27
2016.1	26
2017.07	24.5
2018.05	24.5
2019.03	25
2020	24.5
2020.98	25.5
2021.96	25
2022.93	24.5
2023.91	21.5
2024.89	26.5
2025.86	27
2026.84	25.5
2027.81	24
2028.79	26.5
2029.77	26.5
2030.74	25
2031.72	26
2032.69	23
2033.67	25.5
2034.64	26
2035.61	21
2036.59	27.5
2037.56	27.5
2038.54	20
2039.51	24
2040.48	22
2041.46	27
2042.43	21
2043.41	25.5
2044.38	27.5
2045.35	23
2046.32	23
2047.3	19
2048.27	22.5
2049.24	23.5
2050.21	23
2051.19	24.5
2052.16	25
2053.13	22
2054.1	26.5
2055.07	26
2056.04	24
2057.02	23
2057.99	20.5
2058.96	21.5
2059.93	24
2060.9	22
2061.87	24.5
2062.84	24
2063.81	27.5
2064.78	20.5
2065.75	24.5
2066.72	23
2067.69	24
2068.66	23
2069.63	24
2070.6	25
2071.57	25.5
2072.53	24.5
2073.5	26
2074.47	24
2075.44	22.5
2076.41	24
2077.38	20
2078.34	22
2079.31	23.5
2080.28	23.5
2081.25	23
2082.21	23.5
2083.18	26.5
2084.15	25.5
2085.12	24.5
2086.08	23.5
2087.05	25.5
2088.02	23
2088.98	23
2089.95	24
2090.91	23
2091.88	27.5
2092.85	26
2093.81	22
2094.78	22.5
2095.74	22.5
2096.71	20
2097.67	24.5
2098.64	25
2099.6	24
2100.57	24.5
2101.53	24
2102.5	21.5
2103.46	26.5
2104.42	23
2105.39	21
2106.35	21
2107.31	26.5
2108.28	22
2109.24	21
2110.2	25
2111.17	25
2112.13	24.5
2113.09	25
2114.06	22
2115.02	21
2115.98	27.5
2116.94	28.5
2117.9	25.5
2118.86	24.5
2119.83	23
2120.79	25
2121.75	21
2122.71	25.5
2123.67	25.5
2124.63	23
2125.59	22.5
2126.55	21.5
2127.51	26.5
2128.48	19.5
2129.43	26
2130.4	24
2131.35	25
2132.31	26
2133.27	20
2134.23	24
2135.19	27
2136.15	25.5
2137.11	21.5
2138.07	23.5
2139.03	22
2139.99	22.5
2140.95	21
2141.9	26.5
2142.86	25.9801
2143.82	22.4795
2144.78	22.5177
2145.74	26.8979
2146.69	21.5494
2147.65	27.8739
2148.61	23.1032
2149.56	26.119
2150.52	24.2829
2151.48	26.0744
2152.44	22.1536
2153.39	23.5428
2154.35	20.9835
2155.3	21.5967
2156.26	23.4624
2157.22	23.4556
2158.17	23.0372
2159.13	23.361
2160.08	22.2975
2161.04	21.9078
2161.99	23.0065
2162.95	19.875
2163.9	25.1722
2164.86	23.4227
2165.81	23.7944
2166.77	24.9299
2167.72	24.3346
2168.68	21.4014
2169.63	24.3916
2170.58	23.1798
2171.54	23.0783
2172.49	23.1493
2173.44	23.2783
2174.4	23.4038
2175.35	22.3509
2176.3	21.1309
2177.26	23.9352
2178.21	22.182
2179.16	23.9396
2180.11	21.6578
2181.07	19.7045
2182.02	21.2287
2182.97	25.1377
2183.92	27.8894
2184.88	27.2189
2185.83	22.579
2186.78	23.1301
2187.73	19.9304
2188.68	21.9986
2189.63	23.6361
2190.58	24.6231
2191.53	19.3399
2192.48	21.9822
2193.43	22.0414
2194.38	24.4565
2195.33	19.0469
2196.28	20.7149
2197.23	25.5449
2198.18	18.9549
2199.13	21.5453
2200.08	22.2268
2201.03	25.1044
2201.98	24.097
2202.93	25.0468
2203.88	23.9053
2204.83	20.6874
2205.78	26.8034
2206.72	22.907
2207.67	23.5
2208.62	23.6626
2209.57	23.9733
2210.52	21.9075
2211.46	21.9325
2212.41	22.8506
2213.36	22.3828
2214.31	22.6823
2215.25	26.2174
2216.2	22.9862
2217.15	24.025
2218.09	21.1822
2219.04	22.4506
2219.99	20.0931
2220.93	20.8956
2221.88	23.78
2222.83	22.0782
2223.77	24.0909
2224.72	23.4532
2225.66	21.965
2226.61	25.1556
2227.55	23.9601
2228.5	21.7076
2229.44	21.2233
2230.39	20.6769
2231.33	23.9223
2232.28	21.3122
2233.22	20.8427
2234.17	22.7736
2235.11	25.5971
2236.05	23.9141
2237	24.5691
2237.94	24.2156
2238.88	24.7525
2239.83	19.149
2240.04	17.5
2240.98	25.5
2241.93	23.5
2242.88	23
2243.83	23.5
2244.78	24
2245.72	21
2246.67	23.5
2247.62	23.5
2248.56	23
2249.51	24.5
2250.46	26.5
2251.4	22
2252.35	21.5
2253.3	21
2254.24	22
2255.19	25
2256.14	22
2257.08	23
2258.03	25
2258.97	26
2259.92	23
2260.86	27
2261.81	21.5
2262.75	23
2263.7	22
2264.64	23
2265.59	18.5
2266.53	24
2267.48	24
2268.42	28
2269.36	19
2270.31	27
2271.25	25
2272.19	26
2273.14	23.5
2274.08	20.5
2275.02	25
2275.97	28.5
2276.91	26
2277.85	23
2278.8	23
2279.74	21.5
2280.68	23.5
2281.62	20.5
2282.56	21
2283.51	27.5
2284.45	25
2285.39	23
2286.33	26
2287.27	25
2288.21	20
2289.15	23
2290.09	23.5
2291.04	24
2291.98	25.5
2292.92	27
2293.86	25
2294.8	24
2295.74	23
2296.68	25
2297.62	24
2298.56	23.5
2299.5	26
2300.44	19
2301.37	24
2302.31	22.5
2303.25	22.5
2304.19	22
2305.13	23
2306.07	24.5
2307.01	25.5
2307.94	23
2308.88	21
2309.82	21.5
2310.76	25.5
2311.7	22.5
2312.63	23
2313.57	24
2314.51	23
2315.44	25
2316.38	26
2317.32	25
2318.26	24
2319.19	25
2320.13	22
2321.06	29
2322	22
2322.94	22
2323.87	23
2324.81	25.5
2325.74	22
2326.68	24
2327.61	23
2328.55	20
2329.48	22
2330.42	21
2331.35	19.5
2332.29	22
2333.22	25
2334.16	20.5
2335.09	24
2336.02	26
2336.96	20.5
2337.89	24.5
2338.83	21
2339.76	26.5
2340.69	25.5
2341.63	24
2342.56	27.5
2343.49	21.5
2344.42	27
2345.36	21
2346.29	23.5
2347.22	22.5
2348.15	25
2349.09	23
2350.02	22.5
2350.95	25
2351.88	26
2352.81	26
2353.74	22
2354.68	21
2355.61	23.5
2356.54	22
2357.47	23
2358.4	26
2359.33	25
2360.26	25
2361.19	23.5
2362.12	25
2363.05	21
2363.98	25
2364.91	23.5
2365.84	26.5
2366.77	20.5
2367.7	25
2368.63	24
2369.56	26
2370.49	21
2371.41	24.5
2372.34	21.5
2373.27	25.5
2374.2	24
2375.13	22
2376.06	24
2376.98	23
2377.91	28
2378.84	24
2379.77	25.5
2380.69	24.5
2381.62	24
2382.55	22.5
2383.47	21.5
2384.4	24.5
2385.33	23
2386.25	18
2387.18	22
2388.11	24
2389.03	22
2389.96	27.5
2390.89	22
2391.81	21.5
2392.74	25
2393.66	25.5
2394.59	26.5
2395.51	23.5
2396.44	26.5
2397.36	28.5
2398.29	25.5
2399.21	23.5
2400.14	23.5
2401.06	20
2401.99	28.5
2402.91	24
2403.83	28
2404.76	26.5
2405.68	26
2406.6	26
2407.53	27.5
2408.45	24.5
2409.37	24
2410.3	25
2411.22	26.5
2412.14	23
2413.06	24
2413.99	25
2414.91	21
2415.83	28
2416.75	21.5
2417.68	23.5
2418.6	26
2419.52	21.5
2420.44	22
2421.36	21.5
2422.28	29
2423.2	26
2424.12	20
2425.05	25
2425.97	26.5
2426.89	24
2427.81	25
2428.73	27
2429.65	21
2430.57	23
2431.49	26.5
2432.41	25.5
2433.33	22
2434.25	22
2435.17	26
2436.08	28.5
2437	28
2437.92	25
2438.84	24
2439.76	24
2440.68	21
2441.6	25.5
2442.51	27
2443.43	25.5
2444.35	27.5
2445.27	23
2446.19	19
2447.1	26.5
2448.02	23
2448.94	22.5
2449.85	26.5
2450.77	23
2451.69	26
2452.61	21
2453.52	26.5
2454.44	23
2455.35	23.5
2456.27	23.5
2457.19	21.5
2458.1	24
2459.02	25.5
2459.94	27
2460.85	25.5
2461.77	19
2462.68	29
2463.6	25.5
2464.51	22.5
2465.43	24.5
2466.34	25.5
2467.25	27
2468.17	26.5
2469.08	23
2470	25
2470.91	22.5
2471.83	23.5
2472.74	26.5
2473.65	21.5
2474.57	22
2475.48	25
2476.39	25
2477.31	23
2478.22	19
2479.13	23.5
2480.04	25
2480.96	26
2481.87	25.5
2482.78	25.5
2483.69	26.5
2484.6	22.5
2485.52	23.5
2486.43	24.5
2487.34	26
2488.25	24
2489.16	26.5
2490.07	23.5
2490.99	27
2491.9	28.5
2492.81	23
2493.72	25.5
2494.63	24
2495.54	27
2496.45	26
2497.36	22.5
2498.27	26.5
2499.18	24
2500.09	25.5
2501	25.5
2501.91	24
2502.82	25.5
2503.73	22.5
2504.63	22.5
2505.54	24
2506.45	27
2507.36	23
2508.27	18
2509.18	22.5
2510.09	25.5
2510.99	26
2511.9	25
2512.81	25
2513.72	25.5
2514.62	26
2515.53	24
2516.44	25
2517.35	25
2518.25	23
2519.16	25
2520.07	26
2520.97	25
2521.88	24.5
2522.79	24
2523.69	23.5
2524.6	23
2525.51	23
2526.41	25
2527.32	23.5
2528.22	24
2529.13	25
2530.03	27
2530.94	27
2531.84	27
2532.75	24
2533.65	27
2534.56	21.5
2535.46	24.5
2536.37	24
2537.27	27.5
2538.17	25
2539.08	28
2539.98	23
2540.89	21.5
2541.79	26
2542.69	25
2543.6	23
2544.5	26
2545.4	20.5
2546.31	26
2547.21	25
2548.11	23.5
2549.01	25.5
2549.92	23.5
2550.82	25
2551.72	26
2552.62	23.5
2553.52	25
2554.42	27
2555.33	28
2556.23	27
2557.13	24
2558.03	25
2558.93	22
2559.83	22.5
2560.73	24.5
2561.63	25
2562.53	21
2563.43	23
2564.33	23
2565.24	29
2566.13	22
2567.04	26
2567.93	21.5
2568.83	27.5
2569.73	25.5
2570.63	24.5
2571.53	26
2572.43	25.5
2573.33	25
2574.23	24
2575.13	23.5
2576.03	25.5
2576.92	25.5
2577.82	24
2578.72	26
2579.62	25.5
2580.52	28
2581.41	26.5
2582.31	24
2583.21	21
2584.11	22
2585	23
2585.9	26.5
2586.8	23.5
2587.69	26.5
2588.59	24
2589.49	23
2590.38	25
2591.28	24.5
2592.18	28
2593.07	24.5
2593.97	25.5
2594.86	22
2595.76	24
2596.66	23
2597.55	25.5
2598.45	25.5
2599.34	27.5
2600.24	24
2601.13	23
2602.03	28
2602.92	22
2603.81	20.5
2604.71	23
2605.6	26
2606.5	26
2607.39	26
2608.28	20.5
2609.18	26
2610.07	24
2610.97	25.5
2611.86	26
2612.75	26
2613.64	21
2614.54	24.5
2615.43	22
2616.32	22
2617.22	26
2618.11	20.5
2619	22
2619.89	25
2620.78	23
2621.68	23.5
2622.57	23.5
2623.46	26.5
2624.35	29.5
2625.24	24
2626.13	28
2627.02	19
2627.91	26.5
2628.81	23
2629.7	28.5
2630.59	23
2631.48	28
2632.37	28
2633.26	21
2634.15	27.5
2635.04	25
2635.93	22
2636.82	27
2637.71	23
2638.59	25.5
2639.48	20.5
2640.37	24.5
2641.26	25
2642.15	25
2643.04	24.5
2643.93	28.5
2644.82	24
2645.71	23.5
2646.59	22
2647.48	24.5
2648.37	26
2649.26	29.5
2650.15	28
2651.03	24
2651.92	25.5
2652.81	29
2653.69	22.5
2654.58	22.5
2655.47	23
2656.35	22
2657.24	28.5
2658.13	21
2659.01	23
2659.9	21
2660.79	26
2661.67	27
2662.56	21
2663.44	25
2664.33	23.5
2665.22	22
2666.1	25.5
2666.99	22
2667.87	23.5
2668.76	26
2669.64	25.5
2670.52	25
2671.41	25
2672.29	27.5
2673.18	22.5
2674.06	27
2674.95	26.5
2675.83	22.5
2676.71	27
2677.6	26.5
2678.48	24.5
2679.36	26
2680.25	27
2681.13	23
2682.01	26
2682.9	26
2683.78	21.5
2684.66	26
2685.55	23
2686.43	20
2687.31	27.5
2688.19	28
2689.07	22
2689.96	24
2690.84	24
2691.72	25.5
2692.6	22.5
2693.48	24
2694.36	24.5
2695.24	26
2696.12	26
2697	26.5
2697.89	26
2698.77	25.5
2699.65	24.5
2700.53	25
2701.41	23.5
2702.29	29
2703.17	28.5
2704.05	27
2704.93	25.5
2705.81	24.5
2706.69	22
2707.57	24.5
2708.44	24
2709.32	25.5
2710.2	27.5
2711.08	26
2711.96	25
2712.84	26
2713.72	25.5
2714.59	28
2715.47	28.5
2716.35	25.5
2717.23	20
2718.11	23
2718.98	28
2719.86	24.5
2720.74	25.5
2721.62	25
2722.49	28.5
2723.37	28
2724.25	26.5
2725.12	25
2726	23.5
2726.88	25
2727.75	26
2728.63	25.5
2729.51	23.5
2730.38	22.5
2731.26	29
2732.13	24
2733.01	22.5
2733.88	24.5
2734.76	21.5
2735.63	22
2736.51	26.5
2737.38	26.5
2738.26	26.5
2739.13	24
2740.01	25
2740.88	27.5
2741.76	25.5
2742.63	25.5
2743.5	25
2744.38	28
2745.25	28
2746.13	25
2747	29
2747.87	21
2748.75	22
2749.62	26.5
2750.49	28
2751.36	27.5
2752.24	25.5
2753.11	25
2753.98	22.5
2754.86	25
2755.73	27
2756.6	22.5
2757.47	25
2758.34	27
2759.22	24
2760.09	21
2760.96	25
2761.83	27.5
2762.7	28
2763.57	20.5
2764.44	24.5
2765.31	29
2766.18	27.5
2767.06	26
2767.93	23
2768.8	25.5
2769.67	21.5
2770.54	26
2771.41	22.5
2772.28	27
2773.15	21
2774.02	27
2774.89	25
2775.75	25.5
2776.62	28.5
2777.49	30.5
2778.36	26.5
2779.23	23.5
2780.1	23.5
2780.97	25.5
2781.84	25.5
2782.71	24
2783.57	27
2784.44	23
2785.31	25
2786.18	21
2787.04	27
2787.91	23.5
2788.78	23.5
2789.65	28
2790.51	24.5
2791.38	22.5
2792.25	28
2793.12	23.5
2793.98	24.5
2794.85	25
2795.72	26.5
2796.58	27
2797.45	26.5
2798.31	23.5
2799.18	25.5
2800.05	19
2800.91	22.25
2801.78	25.5
2802.64	27.5
2803.51	27
2804.37	27
2805.24	29.5
2806.1	29
2806.97	29.5
2807.83	25
2808.7	23.5
2809.56	32
2810.43	22
2811.29	28
2812.15	25
2813.02	27
2813.88	25
2814.75	29
2815.61	26
2816.47	30
2817.34	24.5
2818.2	27.5
2819.06	28
2819.92	23
2820.79	26
2821.65	26
2822.51	24.5
2823.37	26.5
2824.24	24
2825.1	30.5
2825.96	20
2826.82	29
2827.69	24.5
2828.55	27.5
2829.41	28
2830.27	31.5
2831.13	27.5
2831.99	23
2832.85	27
2833.71	25
2834.58	27.5
2835.44	26
2836.3	28
2837.16	23.5
2838.02	27.5
2838.88	27.5
2839.74	24
2840.6	28.5
2841.46	27
2842.32	26.5
2843.18	27.5
2844.04	27
2844.9	27.5
2845.75	28
2846.61	25
2847.47	28
2848.33	24
2849.19	26
2850.05	22
2850.91	27.5
2851.77	28
2852.62	22
2853.48	22
2854.34	24
2855.2	29
2856.06	29
2856.91	23.5
2857.77	24.5
2858.63	28.5
2859.48	28
2860.34	27
2861.2	28
2862.06	30
2862.91	25.5
2863.77	28.5
2864.63	23.5
2865.48	27.5
2866.34	25.5
2867.19	27.5
2868.05	28
2868.91	26.5
2869.76	24
2870.62	30
2871.47	29.5
2872.33	29.5
2873.18	30
2874.04	26.5
2874.89	27
2875.75	30
2876.6	27.5
2877.46	31
2878.31	29.5
2879.17	29.5
2880.02	28
2880.88	33
2881.73	28
2882.58	32
2883.44	34
2884.29	35.5
2885.14	36.5
2886	34.5
2886.85	33
2887.7	34
2888.56	39.5
2889.41	36
2890.26	40
2891.12	43
2891.97	40
2892.82	40.5
2893.67	42.5
2894.52	46
2895.38	48.5
2896.23	51
2897.08	54.5
2897.93	52.5
2898.78	55.5
2899.64	61
2900.49	59.5
2901.34	66.5
2902.19	61.5
2903.04	65
2903.89	71.5
2904.74	67
2905.59	75
2906.44	77
2907.29	75
2908.14	71
2908.99	69.5
2909.84	67.5
2910.69	66
2911.54	62
2912.39	56.5
2913.24	54
2914.09	54
2914.94	53.5
2915.79	54
2916.64	48
2917.49	43
2918.34	43
2919.18	39.5
2920.03	36.5
2920.88	35.5
2921.73	37.5
2922.58	31
2923.42	33
2924.27	35.5
2925.12	35.5
2925.97	30.5
2926.82	32
2927.66	30.5
2928.51	30.5
2929.36	28.5
2930.2	29
2931.05	25
2931.9	30
2932.74	29
2933.59	33
2934.44	27
2935.28	28.5
2936.13	26.5
2936.98	27.5
2937.82	29.5
2938.67	30.5
2939.51	31
2940.36	27.5
2941.2	31.5
2942.05	28
2942.9	29
2943.74	27
2944.58	25
2945.43	28
2946.27	33
2947.12	24.5
2947.96	30.5
2948.81	29.5
2949.65	32.5
2950.5	29.5
2951.34	31
2952.18	31.5
2953.03	35.5
2953.87	32
2954.71	29.5
2955.56	35
2956.4	40.5
2957.24	34
2958.09	39
2958.93	41.5
2959.77	35
2960.62	40.5
2961.46	41
2962.3	47
2963.14	45
2963.98	46
2964.83	49.5
2965.67	43.5
2966.51	47.5
2967.35	44.5
2968.19	44.5
2969.04	41.5
2969.88	46.5
2970.72	39
2971.56	35.5243
2972.4	41.3894
2973.24	40.3357
2974.08	40.4865
2974.92	38.4368
2975.76	38.2377
2976.6	33.6197
2977.44	34.4648
2978.28	33.3051
2979.12	30.1183
2979.96	28.436
2980.8	32.6857
2981.64	29.1538
2982.48	33.0568
2983.32	26.8864
2984.16	27.7822
2985	27.8223
2985.84	25.1324
2986.68	25.7184
2987.52	29.2673
2988.35	27.6799
2989.19	25.8243
2990.03	28.1891
2990.87	25.0756
2991.71	24.9757
2992.55	25.285
2993.38	26.9055
2994.22	23.9597
2995.06	27.4489
2995.9	27.2438
2996.73	27.0145
2997.57	24.9206
2998.41	24.7222
2999.25	25.9673
3000.08	22.0049
3000.92	25.8605
3001.76	23.5165
3002.59	21.8563
3003.43	26.1138
3004.27	24.8614
3005.1	22.9312
3005.94	24.1147
3006.78	26.0952
3007.61	26.4772
3008.45	26.0716
3009.28	22.3754
3010.12	21.1831
3010.95	24.6851
3011.79	24.1867
3012.62	24.0163
3013.46	24.8174
3014.29	24.0883
3015.13	26.2721
3015.96	22.5311
3016.8	23.2328
3017.63	22.7543
3018.47	25.1645
3019.3	24.3246
3020.14	22.9498
3020.97	21.2918
3021.8	22.1926
3022.64	23.1919
3023.47	23.6501
3024.3	23.1293
3025.14	22.5797
3025.97	22.2641
3026.8	22.1401
3027.64	24.4451
3028.47	24.8991
3029.3	22.3758
3030.14	21.7979
3030.97	21.7225
3031.8	24.3772
3032.63	23.3912
3033.46	25.298
3034.3	24.9916
3035.13	25.7255
3035.96	23.4736
3036.79	24.0426
3037.62	22.699
3038.46	23.1987
3039.29	22.2856
3040.12	23.0304
3040.95	21.292
3041.78	23.558
3042.61	23.7643
3043.44	23.2597
3044.27	23.1116
3045.1	22.0967
3045.93	22.8897
3046.76	22
3047.59	21.2499
3048.42	21.7573
3049.25	24.236
3050.08	25.7215
3050.91	24.8151
3051.74	24.4155
3052.57	24.8641
3053.4	26.1859
3054.23	22.9404
3055.06	21.5121
3055.89	21.5291
3056.72	21.6301
3057.32	22
3058.15	22
3058.98	25
3059.82	26
3060.65	21.5
3061.48	24
3062.31	24
3063.15	23.5
3063.98	23
3064.81	25.5
3065.64	24
3066.48	25
3067.31	27
3068.14	19
3068.97	23
3069.8	22.5
3070.63	21.5
3071.47	25
3072.3	23.5
3073.13	22
3073.96	23
3074.79	23
3075.62	24.5
3076.45	24.5
3077.28	21.5
3078.11	23
3078.94	25.5
3079.77	19
3080.6	25.5
3081.43	22
3082.26	28
3083.09	26.5
3083.92	24
3084.75	27.5
3085.58	23
3086.41	22
3087.24	22
3088.07	23
3088.9	24
3089.73	25.5
3090.55	26
3091.38	24.5
3092.21	24.5
3093.04	25.5
3093.87	25
3094.7	22.5
3095.52	24
3096.35	27.5
3097.18	18
3098.01	24
3098.84	20.5
3099.66	23
3100.49	24.5
3101.32	25
3102.14	20.5
3102.97	24.5
3103.8	20
3104.62	26
3105.45	21.5
3106.28	27
3107.1	28
3107.93	23
3108.76	24
3109.58	24
3110.41	21
3111.23	24
3112.06	24
3112.89	24.5
3113.71	23.5
3114.54	24.5
3115.36	26
3116.19	28
3117.01	22
3117.84	26
3118.66	27
3119.49	26.5
3120.31	24.5
3121.13	20
3121.96	27
3122.78	21
3123.61	22.5
3124.43	20
3125.25	22.5
3126.08	25
3126.9	25.5
3127.73	26
3128.55	28
3129.37	23
3130.19	21.5
3131.02	28
3131.84	25.5
3132.66	21.5
3133.49	23.5
3134.31	23
3135.13	26
3135.95	24.5
3136.78	22
3137.6	22.5
3138.42	25
3139.24	25
3140.06	25
3140.88	24.5
3141.71	25
3142.53	22
3143.35	26
3144.17	22.5
3144.99	21.5
3145.81	25.5
3146.63	26
3147.45	23.5
3148.27	28
3149.09	23.5
3149.91	22
3150.73	22.5
3151.56	24
3152.37	24.5
3153.2	19.5
3154.01	23
3154.83	25
3155.65	21.5
3156.47	23
3157.29	27
3158.11	23
3158.93	25.5
3159.75	21.5
3160.57	21
3161.39	22.5
3162.21	19.5
3163.02	27.5
3163.84	21
3164.66	23
3165.48	23.5
3166.3	25.5
3167.11	23.5
3167.93	25
3168.75	23
3169.57	22
3170.39	24
3171.2	24
3172.02	22.5
3172.84	22.5
3173.65	25
3174.47	24.5
3175.29	26.5
3176.1	25
3176.92	24
3177.74	29
3178.55	23.5
3179.37	21
3180.19	25.5
3181	26
3181.82	26
3182.63	23
3183.45	22.5
3184.27	25.5
3185.08	24
3185.9	21
3186.71	22.5
3187.53	24
3188.34	24.5
3189.16	22
3189.97	26
3190.79	29.5
3191.6	21.5
3192.41	26.5
3193.23	23
3194.04	26
3194.86	25.5
3195.67	23.5
3196.48	29
3197.3	22
3198.11	24.5
3198.93	27.5
3199.74	21
3200.55	21
3201.36	22.5
3202.18	27.5
3202.99	25
3203.8	27.5
3204.62	23.5
3205.43	24
3206.24	23.5
3207.05	25.5
3207.87	25.5
3208.68	23
3209.49	21
3210.3	18
3211.11	25
3211.93	18
3212.74	25.5
3213.55	25
3214.36	23
3215.17	25
3215.98	24.5
3216.79	23.5
3217.6	25.5
3218.41	22
3219.22	23.5
3220.03	24.5
3220.85	22.5
3221.66	26.5
3222.47	24
3223.28	24.5
3224.09	19.5
3224.9	23
3225.71	19
3226.52	21
3227.33	22
3228.13	24
3228.94	23.5
3229.75	27.5
3230.56	26
3231.37	25
3232.18	24.5
3232.99	27
3233.8	24
3234.61	26.5
3235.41	22
3236.22	27
3237.03	25.5
3237.84	24
3238.65	22
3239.45	25.5
3240.26	24
3241.07	25.5
3241.88	21.5
3242.68	21
3243.49	23
3244.3	22
3245.1	23.5
3245.91	21
3246.72	24.5
3247.53	28
3248.33	21.5
3249.14	22.5
3249.95	23.5
3250.75	22.5
3251.56	21
3252.36	24
3253.17	29
3253.97	27
3254.78	22.5
3255.59	26.5
3256.39	26.5
3257.2	24
3258	27.5
3258.81	25.5
3259.61	24
3260.42	23
3261.22	26
3262.03	21.5
3262.83	23.5
3263.64	24
3264.44	24.5
3265.24	25.5
3266.05	20.5
3266.85	22
3267.66	24.5
3268.46	22
3269.26	22.5
3270.07	24.5
3270.87	25.5
3271.67	25
3272.48	25.5
3273.28	24.5
3274.08	21.5
3274.89	23
3275.69	22.5
3276.49	21
3277.29	24.5
3278.1	23
3278.9	26
3279.7	25.5
3280.5	22.5
3281.3	24
3282.11	23
3282.91	23
3283.71	27
3284.51	25.5
3285.31	23.5
3286.11	23.5
3286.91	21.5
3287.72	23
3288.52	23
3289.32	25
3290.12	19.5
3290.92	25.5
3291.72	24
3292.52	25.5
3293.32	22
3294.12	23
3294.92	24
3295.72	23
3296.52	27
3297.32	20.5
3298.12	23
3298.92	25.5
3299.72	25
3300.52	27
3301.32	22.5
3302.12	25
3302.92	25.5
3303.71	26
3304.51	24.5
3305.31	23
3306.11	23.5
3306.91	26
3307.71	23.5
3308.5	22
3309.3	22.5
3310.1	25.5
3310.9	20.5
3311.7	22.5
3312.49	21.5
3313.29	29
3314.09	22.5
3314.89	25.5
3315.68	24
3316.48	27
3317.28	23.5
3318.07	23
3318.87	27.5
3319.67	23
3320.46	25
3321.26	24
3322.06	24
3322.85	23
3323.65	27.5
3324.44	22.5
3325.24	20.5
3326.04	28.5
3326.83	28
3327.63	22
3328.42	22.5
3329.22	22
3330.01	22.5
3330.81	23.5
3331.6	25
3332.4	27.5
3333.19	24
3333.99	23.5
3334.78	21.5
3335.58	22
3336.37	20.5
3337.17	24
3337.96	22.5
3338.75	24
3339.55	23.5
3340.34	25
3341.13	26
3341.93	24
3342.72	25
3343.51	24
3344.31	24
3345.1	20
3345.89	25.5
3346.69	27
3347.48	26
3348.27	23
3349.06	28.5
3349.86	22.5
3350.65	25
3351.44	26
3352.23	20
3353.03	24.5
3353.82	27.5
3354.61	27
3355.4	22
3356.19	22.5
3356.98	24
3357.78	21.5
3358.57	25.5
3359.36	27
3360.15	23
3360.94	29
3361.73	24
3362.52	21
3363.31	22
3364.1	27
3364.89	23
3365.68	22.5
3366.47	22.5
3367.26	29.5
3368.05	23.5
3368.84	22
3369.63	24.5
3370.42	24
3371.21	21
3372	25.5
3372.79	24
3373.58	26.5
3374.37	23.5
3375.16	28
3375.95	23
3376.73	28
3377.52	25.5
3378.31	26.5
3379.1	20.5
3379.89	26.5
3380.68	25
3381.46	26
3382.25	26
3383.04	26
3383.83	24
3384.62	24
3385.4	22
3386.19	26
3386.98	23.5
3387.76	22
3388.55	23.5
3389.34	26.5
3390.13	24
3390.91	26.5
3391.7	24.5
3392.49	26.5
3393.27	27
3394.06	23.5
3394.84	26.5
3395.63	26.5
3396.42	23
3397.2	25.5
3397.99	23.5
3398.77	27.5
3399.56	25
3400.34	25.5
3401.13	26.5
3401.92	24.5
3402.7	26
3403.49	24.5
3404.27	22.5
3405.06	27.5
3405.84	25
3406.62	25
3407.41	26
3408.19	27.5
3408.98	24
3409.76	27
3410.55	23.5
3411.33	24
3412.11	24.5
3412.9	27
3413.68	23
3414.46	26
3415.25	24.5
3416.03	24
3416.81	25.5
3417.6	24.5
3418.38	30
3419.16	25
3419.95	25
3420.73	23
3421.51	25
3422.29	21.5
3423.08	24.5
3423.86	26.5
3424.64	22.5
3425.42	22.5
3426.2	22
3426.98	22
3427.77	24.5
3428.55	23.5
3429.33	27.5
3430.11	23
3430.89	23.5
3431.67	26
3432.45	28
3433.24	25
3434.02	25
3434.8	26
3435.58	26.5
3436.36	23
3437.14	25.5
3437.92	25
3438.7	22.5
3439.48	18
3440.26	24
3441.04	23
3441.82	22.5
3442.6	23
3443.38	25.5
3444.16	26
3444.94	25
3445.71	27
3446.49	26.5
3447.27	29.5
3448.05	21.5
3448.83	24
3449.61	22
3450.39	18
3451.17	19.5
3451.94	23
3452.72	20
3453.5	25.5
3454.28	27
3455.06	25
3455.83	26.5
3456.61	23
3457.39	25.5
3458.17	25.5
3458.94	24
3459.72	26.5
3460.5	23.5
3461.28	23
3462.05	23.5
3462.83	25
3463.61	22
3464.38	26
3465.16	24
3465.93	25.5
3466.71	21.5
3467.49	28
3468.26	25
3469.04	25
3469.82	25
3470.59	24.5
3471.37	28
3472.14	26
3472.92	25.5
3473.69	22.5
3474.47	26
3475.24	24.5
3476.02	22
3476.79	21.5
3477.57	25
3478.34	24
3479.12	24.5
3479.89	22.5
3480.67	22.5
3481.44	25
3482.21	22.5
3482.99	26
3483.76	27
3484.54	28.5
3485.31	25
3486.08	25.5
3486.86	22.5
3487.63	24.5
3488.4	25.5
3489.18	25
3489.95	25.5
3490.72	23
3491.5	23
3492.27	24
3493.04	26.5
3493.81	20.5
3494.59	24
3495.36	25.5
3496.13	19
3496.9	23.5
3497.67	24
3498.45	22.5
3499.22	20
3499.99	27
