#Acq. time (s)=	5
#Accumulations=	5
#Range (cm-¹)=	100...3500
#Windows=	4
#Autofocus=	Off
#AutoExposure=	Off
#Spike filter=	Multiple accum.
#Delay time (s)=	0
#Binning=	1
#Readout mode=	Signal
#DeNoise=	Off
#ICS correction=	Off
#Dark correction=	Off
#Inst. Process=	Off
#Instrument=	LabRAM HR Evol
#Detector=	Syncerity OE
#Objective=	x100_VIS
#Grating=	600 (500nm)
#ND Filter=	25%
#Laser=	633nm_Edge
#Hole=	100.021
#Range=	Visible
#Project=	verificaciones
#Sample=	a5
#Site=	lined
#Title=	bolusa5lined
#Remark=	
#Date=	09.01.2026 13:18
#Acquired=	09.01.2026 13:18:40
100.695	20.5
101.978	34.5
103.262	37.5
104.545	30.5
105.829	35.5
107.112	31.5
108.394	32
109.676	30
110.958	35.5
112.24	29
113.522	37
114.803	35.5
116.084	30
117.365	32
118.646	29
119.927	30
121.207	32
122.487	33
123.767	29
125.047	31.5
126.326	32.5
127.606	34
128.885	36.5
130.164	33
131.442	36
132.721	35
133.999	34
135.277	37.5
136.555	41
137.831	39
139.109	38
140.386	37
141.663	39.5
142.94	36
144.216	36
145.493	38.5
146.769	39.5
148.043	42
149.319	42
150.595	42
151.87	41
153.145	46.5
154.42	46
155.693	44.5
156.968	42
158.242	43
159.516	46
160.79	47.5
162.062	48
163.336	45
164.609	43.5
165.882	42
167.153	43.5
168.426	43.5
169.699	41
170.971	41
172.241	45.5
173.513	39
174.785	40
176.055	42
177.326	42.5
178.597	46.5
179.866	43.5
181.137	43.5
182.407	42.5
183.676	46
184.946	46.5
186.216	47.5
187.484	44
188.753	46
190.022	46
191.29	46
192.558	42
193.825	38.5
195.094	45.5
196.36	38.5
197.628	43.5
198.896	46
200.162	39
201.429	43
202.695	45
203.962	38
205.227	39.5
206.493	36.5
207.758	36
209.024	36
210.289	39
211.554	39.5
212.818	37.5
214.083	38
215.347	35.5
216.612	35
217.875	36
219.138	37.5
220.402	32.5
221.665	39.5
222.928	35
224.19	32
225.454	35
226.715	34
227.977	37
229.24	31.5
230.501	33
231.762	36.5
233.024	33.5
234.284	34
235.546	35
236.806	32.5
238.066	34.5
239.327	32.5
240.587	33
241.846	34
243.105	31.5
244.365	33.5
245.624	31
246.882	31.5
248.142	33
249.4	30.5
250.658	28
251.916	33
253.174	31
254.432	32.5
255.689	32.5
256.945	32
258.202	31
259.46	26
260.716	32
261.972	34
263.228	29
264.483	33
265.74	33
266.996	32
268.251	31
269.505	30
270.76	30.5
272.014	31.5
273.268	31.5
274.522	29
275.778	31.5
277.031	30.5
278.285	31.5
279.538	27
280.791	31.5
282.043	27.5
283.296	29
284.548	31
285.8	28.5
287.052	31
288.304	31
289.556	33.5
290.807	29
292.058	29.5
293.309	27
294.56	32
295.81	31
297.061	26
298.311	30.5
299.561	28.5
300.81	29.5
302.06	31
303.309	33
304.558	30
305.807	31.5
307.056	27.5
308.305	30.5
309.551	32
310.8	33
312.047	31
313.295	30.5
314.543	27
315.79	32.5
317.037	27.5
318.284	33
319.529	31.5
320.776	33
322.022	33
323.268	32.5
324.514	27
325.758	31.5
327.004	28
328.249	30.5
329.494	31
330.739	27.5
331.982	29.5
333.227	32.5
334.471	27
335.715	30
336.958	31
338.201	32
339.445	30
340.687	30
341.93	29.5
343.173	29.5
344.414	31
345.657	30.5
346.899	29.5
348.14	32.5
349.381	27
350.623	31
351.863	32.5
353.104	30
354.346	32
355.585	28.5
356.826	34
358.065	28.5
359.305	29
360.545	30
361.784	32.5
363.023	28.5
364.261	30.5
365.501	29
366.738	35
367.977	29.5
369.216	29
370.453	35
371.691	29.5
372.928	33
374.166	34.5
375.402	31.5
376.64	30.5
377.876	29.5
379.111	28.5
380.348	28
381.584	28
382.82	28
384.055	30
385.291	34
386.526	26
387.76	31
388.996	31
390.229	36
391.465	27.5
392.698	30
393.931	31
395.166	31
396.399	29
397.632	28.5
398.866	31
400.098	29.5
401.33	34.5
402.563	35
403.795	32.5
405.027	33.5
406.259	29.5
407.491	31.5
408.721	29
409.954	29
411.184	31
412.415	31.5
413.645	30.5
414.876	32
416.106	30
417.335	33.5
418.565	31.5
419.794	31.5
421.024	30.5
422.253	33
423.482	33.5
424.71	32.5
425.938	31
427.168	28.5
428.396	32
429.623	30.5
430.851	31
432.078	26
433.305	32
434.532	31
435.758	31
436.986	33
438.212	31.5
439.438	31
440.664	32
441.89	34.5
443.115	30
444.34	31.5
445.566	31.5
446.79	31.5
448.015	29
449.24	34
450.464	30.5
451.688	33
452.912	32
454.135	31
455.359	35
456.582	37
457.805	36.5
459.028	31.5
460.251	35.5
461.473	31.5
462.696	38.5
463.918	36
465.14	35.5
466.36	36.5
467.582	32.5
468.803	33.5
470.024	39
471.245	34
472.466	36
473.686	37.5
474.907	41
476.126	45
477.346	45.5
478.565	48.5
479.785	51.5
481.004	47
482.224	54
483.441	59
484.66	65.5
485.879	62
487.097	64
488.314	66
489.532	65
490.75	72.5
491.967	60.5
493.184	67
494.401	62.5
495.618	58.5
496.835	55.5
498.05	55
499.267	48.5
500.483	51.5
501.698	46
502.913	46.5
504.129	46
505.343	41
506.559	43
507.774	42
508.987	44.5
510.202	44.5
511.415	39
512.63	37
513.844	44.5
515.056	42
516.27	37.5
517.482	40
518.696	37.5
519.907	35
521.121	39.5
522.332	34
523.545	32.5
524.757	37
525.968	33.5
527.18	38
528.39	33.5
529.602	38
530.812	33.5
532.023	32
533.233	34.5
534.443	32
535.653	33.5
536.862	33.5
538.073	37.5
539.281	26.5
540.491	33
541.7	34.5
542.908	34
544.117	33.5
545.325	34.5
546.534	38.5
547.741	33.5
548.949	35.5
550.157	31.5
551.364	30
552.57	32.5
553.778	31.5
554.985	31.5
556.191	32
557.398	33.5
558.604	32
559.809	30.5
561.014	36.5
562.221	35
563.426	35
564.63	33
565.835	31
567.041	36
568.245	37
569.449	32
570.653	32
571.856	33.5
573.061	28.5
574.264	32.5
575.467	31
576.67	34.5
577.873	34
579.076	32.5
580.279	33.5
581.481	31
582.683	34
583.884	31.5
585.086	36.5
586.287	35
587.488	35
588.689	33
589.891	36
591.092	35.5
592.292	31
593.492	32
594.692	32
595.892	32
597.092	32
598.291	29.5
599.49	33
600.689	33
601.888	30.5
603.087	34
604.285	36.5
605.483	33.5
606.681	35
607.879	35.5
609.077	34
610.274	38
611.472	33.5
612.668	37
613.865	37.5
615.061	38
616.258	34
617.454	36
618.65	32.5
619.846	35
621.042	30
622.238	40
623.432	35
624.627	35
625.822	36
627.017	39
628.212	36
629.406	39.5
630.599	34
631.793	35.5
632.987	35
634.181	33
635.373	39
636.566	34.5
637.76	35.5
638.953	36
640.144	37
641.337	34.5
642.529	38.5
643.721	38
644.912	35.5
646.104	34.5
647.295	37.5
648.485	37
649.677	34.5
650.868	37.5
652.057	35
653.248	36.5
654.437	38
655.628	35
656.818	39
658.006	33
659.196	34.5
660.384	35
661.574	41.5
662.763	41
663.951	35
665.14	38.5
666.327	41
667.515	43
668.702	35
669.891	38.5
671.077	42.5
672.265	39
673.451	39
674.638	40
675.824	39
677.011	39
678.197	35
679.383	42
680.568	38
681.755	44.5
682.939	47
684.124	43
685.309	45
686.494	43
687.679	47.5
688.863	44
690.046	46
691.231	45
692.414	44
693.599	37
694.781	43
695.964	43
697.148	41
698.33	43
699.512	46
700.694	45.5
701.877	48.5
703.059	50.5
704.24	50
705.423	57
706.604	53
707.784	56.5
708.965	63
710.147	61
711.327	62
712.507	57
713.687	56
714.867	50.5
716.048	47.5
717.227	43.5
718.406	43
719.585	36
720.764	38.5
721.942	41.5
723.122	40
724.3	39.5
725.478	36
726.656	37.5
727.834	36
729.011	42
730.189	40
731.366	42
732.543	38.5
733.719	39
734.896	37
736.072	37.5
737.249	33.5
738.426	39.5
739.602	39
740.777	37
741.953	39.5
743.128	38
744.303	37.5
745.477	41
746.651	36.5
747.826	40.5
749	38
750.174	40.5
751.348	37
752.522	38
753.696	39.5
754.869	38
756.043	37
757.216	37
758.389	40
759.561	40
760.732	39
761.905	36
763.077	38.5
764.249	33
765.421	39.5
766.592	35
767.762	40
768.934	36.5
770.105	37.5
771.275	39.5
772.446	40
773.615	38.5
774.786	39.5
775.956	33.5
777.126	39
778.294	41.5
779.464	37.5
780.633	37.5
781.801	44
782.97	40
784.139	42.5
785.306	45.5
786.475	42
787.643	45
788.81	43
789.978	38
791.146	42.5
792.312	40.5
793.479	43
794.647	42.5
795.812	40.5
796.979	35.5
798.144	39.5
799.311	38
800.477	42
801.642	35.5
802.808	44
803.972	42.5
805.138	42.5
806.302	41.5
807.467	41
808.631	39.5
809.796	40
810.959	37
812.124	42
813.287	38
814.451	40
815.614	41
816.777	34
817.94	39.5
819.102	40
820.265	38
821.427	36
822.59	36
823.751	36.5
824.912	36.5
826.074	40
827.235	40
828.397	36
829.558	37
830.718	41
831.879	39
833.039	38.5
834.199	37.5
835.359	34
836.519	40
837.679	40
838.838	39
839.998	38
841.156	43
842.315	39
843.473	38.5
844.633	38
845.791	35.5
846.948	40
848.106	39
849.263	39.5
850.422	33
851.579	38.5
852.736	40.5
853.892	34.5
855.049	38.5
856.205	38.5
857.363	37.5
858.519	40
859.674	37.5
860.83	40
861.986	42
863.141	46.5
864.296	45
865.451	41
866.605	41.5
867.76	43
868.914	46.5
870.069	42
871.224	39
872.378	42
873.531	41.5
874.685	42
875.838	41.5
876.991	39.5
878.144	41
879.296	40.5
880.448	37.5
881.6	42.5
882.753	42
883.905	40.5
885.057	38
886.208	41
887.36	43
888.511	37
889.662	38
890.813	42.5
891.964	44.5
893.113	41.5
894.264	42.5
895.414	38
896.564	36.5
897.714	39.5
898.864	42.5
900.012	36
901.161	38.5
902.31	42
903.459	39
904.607	39.5
905.756	40.5
906.904	40.5
908.052	38.5
909.199	41
910.347	41
911.495	37.5
912.643	43.5
913.789	38.5
914.936	42
916.083	41
917.229	43
918.375	44.5
919.522	38.5
920.667	38.5
921.813	33
922.959	44
924.104	43
925.249	39
926.393	41.5
927.539	41.5
928.684	40
929.827	35.5
930.972	40.5
932.115	35
933.26	41
934.403	43
935.547	40.5
936.689	40.5
937.833	38
938.975	39.5
940.119	41.5
941.26	38
942.404	40
943.545	38.5
944.688	41
945.829	41
946.971	41.5
948.112	43.5
949.253	41
950.394	41
951.535	39
952.676	41.5
953.816	37.5
954.956	39
956.097	41
957.236	40.5
958.377	41
959.516	37
960.655	38
961.793	38.5
962.933	41
964.071	38.5
965.21	37.5
966.349	40.5
967.487	42.5
968.624	40
969.762	40
970.901	42.25
972.038	43.5
973.175	39
974.311	44.5
975.449	38.5
976.586	39
977.722	36
978.858	43.5
979.994	40
981.131	42
982.267	45
983.402	32
984.537	40
985.672	43
986.807	39.5
987.942	38.5
989.076	39
990.211	44
991.346	40.5
992.48	38
993.614	42
994.748	41.5
995.881	40.5
997.014	42
998.148	37
999.28	37.5
1000.41	40
1001.55	35.5
1002.68	39
1003.81	40
1004.94	41.5
1006.07	42.5
1007.21	42
1008.34	43
1009.47	43.5
1010.6	42
1011.73	36
1012.86	37
1013.99	42
1015.12	40.5
1016.25	38
1017.38	33.5
1018.51	39
1019.64	41
1020.77	37
1021.9	39.5
1023.03	39
1024.16	42.5
1025.29	40.5
1026.42	38.5
1027.54	39
1028.67	38.5
1029.8	40
1030.93	41
1032.06	38.5
1033.18	36.5
1034.31	35.5
1035.44	36.5
1036.56	33.5
1037.69	40
1038.82	38
1039.94	41.5
1041.07	44.5
1042.2	41.5
1043.32	40.5
1044.45	39
1045.57	35.5
1046.7	41
1047.82	36
1048.95	40.5
1050.07	38.5
1051.2	37
1052.32	38
1053.45	39.5
1054.57	38
1055.69	42.5
1056.82	38.5
1057.94	40
1059.06	34
1060.19	41.5
1061.31	39.5
1062.43	39
1063.55	36
1064.68	37.5
1065.8	39.5
1066.92	39
1068.04	38.5
1069.16	37.5
1070.28	36.5
1071.41	38.5
1072.53	38
1073.65	37.5
1074.77	39
1075.89	37
1077.01	38
1078.13	39.5
1079.25	38
1080.37	40.5
1081.49	35.5
1082.61	38
1083.73	44.5
1084.85	38
1085.96	38.5
1087.08	37.5
1088.2	43
1089.32	37
1090.44	43.5
1091.56	36
1092.67	35.5
1093.79	41.5
1094.91	37.5
1096.03	38.5
1097.14	39.5
1098.26	39
1099.38	39.5
1100.49	36.5
1101.61	37
1102.73	34
1103.84	36
1104.96	39.5
1106.07	37
1107.19	39
1108.3	33
1109.42	37.5
1110.53	36.5
1111.65	39
1112.76	34.5
1113.88	35
1114.99	36.5
1116.1	39
1117.22	35
1118.33	38
1119.44	40
1120.56	32
1121.67	34.5
1122.78	36
1123.9	34
1125.01	36.5
1126.12	35.5
1127.23	38
1128.34	34
1129.46	36
1130.57	37
1131.68	33.5
1132.79	37
1133.9	40
1135.01	36
1136.12	34.5
1137.23	36.5
1138.34	34.5
1139.45	35
1140.56	36.5
1141.67	39.5
1142.78	33.5
1143.89	38
1145	36
1146.11	38
1147.22	34
1148.33	36
1149.44	38.5
1150.54	36
1151.65	36.5
1152.76	34.5
1153.87	32.5
1154.97	35.5
1156.08	36.5
1157.19	37.5
1158.3	37
1159.4	36.5
1160.51	35
1161.62	34
1162.72	36
1163.83	33
1164.93	34
1166.04	34
1167.15	38.5
1168.25	39
1169.36	34.5
1170.46	34
1171.57	38.5
1172.67	36.5
1173.78	36.5
1174.88	37
1175.98	34
1177.09	32.5
1178.19	33.5
1179.3	34
1180.4	35.5
1181.5	35.5
1182.61	39
1183.71	35
1184.81	36
1185.91	35
1187.02	36.5
1188.12	33.5
1189.22	35
1190.32	32.5
1191.42	32.5
1192.53	31
1193.63	35.5
1194.73	31.9942
1195.83	32.9641
1196.93	33.1092
1198.03	28.3265
1199.13	34.5882
1200.23	33.8508
1201.33	33.367
1202.43	34.1787
1203.53	35.8524
1204.63	31.1931
1205.73	35.7451
1206.83	33.4901
1207.93	33.8681
1209.02	34.6613
1210.12	34.6238
1211.22	32.8334
1212.32	32.8559
1213.42	32.7237
1214.52	34.7436
1215.61	31.4087
1216.71	34.2364
1217.81	35.6542
1218.91	32.9505
1220	32.8785
1221.1	32.3016
1222.2	34.675
1223.29	31.5605
1224.39	32.007
1225.49	33.8083
1226.58	35.2112
1227.68	31.099
1228.77	33.7089
1229.87	37.0577
1230.96	32.3851
1232.06	32.19
1233.15	30.5295
1234.25	32.833
1235.34	32.7013
1236.44	31.8083
1237.53	34.3083
1238.63	34.8873
1239.72	35.5061
1240.81	31.296
1241.91	29.877
1243	34.2943
1244.09	35.3517
1245.19	29.7349
1246.28	34.9115
1247.37	32.53
1248.46	32.1989
1249.56	33.9977
1250.65	33.4929
1251.74	33.0143
1252.83	32.6339
1253.92	31.7122
1255.01	31.9401
1256.11	34.0908
1257.2	35.4661
1258.29	35.5938
1259.38	35.2823
1260.47	36.0731
1261.56	37.8397
1262.65	35.4278
1263.74	36.1655
1264.83	35.1824
1265.92	39.821
1267.01	34.1289
1268.1	34.9228
1269.19	34.3622
1270.27	36.514
1271.36	32.2757
1272.45	34.0315
1273.54	31.2202
1274.63	34.2132
1275.72	34.0787
1276.8	34.2302
1277.89	32.2702
1278.98	32.8119
1280.07	31.4848
1281.15	35.7045
1282.24	33.1489
1283.33	32.7913
1284.41	33.6613
1285.5	33.6551
1286.59	32.788
1287.67	34.1989
1288.76	32.5536
1289.84	31.2373
1290.93	32.3888
1292.01	35.8229
1293.1	34.8436
1294.19	33.7209
1295.27	31.5314
1296.35	32.7307
1297.44	32.645
1298.52	28.8573
1299.61	32.1758
1300.69	31.3159
1301.78	32.348
1302.86	32.2933
1303.94	35.5589
1305.03	31.4698
1306.11	31.7209
1306.4	32.5
1307.49	31
1308.57	37
1309.66	28
1310.75	31
1311.84	35
1312.92	30
1314.01	33
1315.1	31
1316.19	35
1317.27	33
1318.36	28.5
1319.45	31
1320.53	28
1321.62	35
1322.7	32.5
1323.79	34
1324.88	31
1325.96	31
1327.05	34
1328.13	29.5
1329.21	34.5
1330.3	28
1331.38	32
1332.47	29
1333.55	33.5
1334.64	32
1335.72	30
1336.8	33
1337.89	32
1338.97	33.5
1340.05	31.5
1341.14	29.5
1342.22	32
1343.3	31.5
1344.39	28
1345.47	32
1346.55	28.5
1347.63	30
1348.71	28
1349.79	30
1350.88	31
1351.96	28.5
1353.04	32
1354.12	30.5
1355.2	34
1356.28	33.5
1357.36	33.5
1358.44	29.5
1359.52	28.5
1360.6	30
1361.68	33
1362.76	32.5
1363.84	31.5
1364.92	31.5
1366	33
1367.08	32
1368.16	35
1369.23	33
1370.31	30
1371.39	33.5
1372.47	29.5
1373.55	33.5
1374.62	30
1375.7	30
1376.78	28
1377.85	35.5
1378.93	29.5
1380.01	34
1381.09	30.5
1382.16	34
1383.24	32
1384.31	31.5
1385.39	32
1386.47	33.5
1387.54	30.5
1388.62	32.5
1389.69	32
1390.77	34.5
1391.84	30.5
1392.92	31.5
1393.99	32
1395.06	33
1396.14	33
1397.21	33
1398.29	32
1399.36	33
1400.43	33
1401.51	39.5
1402.58	39.5
1403.65	37
1404.73	36
1405.8	30
1406.87	38.5
1407.94	37.5
1409.02	36.5
1410.09	38
1411.16	36
1412.23	34.5
1413.3	37.5
1414.37	41.5
1415.45	35
1416.52	36.5
1417.59	35
1418.66	33.5
1419.73	34
1420.8	37
1421.87	36
1422.94	33
1424.01	33.5
1425.08	35
1426.15	35.5
1427.22	35
1428.29	34
1429.35	32
1430.42	29.5
1431.49	33.5
1432.56	34
1433.63	32.5
1434.7	33.5
1435.77	32
1436.83	33
1437.9	33.5
1438.97	30
1440.04	29.5
1441.1	32.5
1442.17	31
1443.24	32.5
1444.3	31
1445.37	32
1446.44	32.5
1447.5	33
1448.57	33
1449.63	30
1450.7	31.5
1451.76	35.5
1452.83	33
1453.89	33
1454.96	33.5
1456.02	35
1457.09	31
1458.15	30.5
1459.22	29
1460.28	25
1461.34	34.5
1462.41	34
1463.47	32.5
1464.54	32
1465.6	29
1466.66	34.5
1467.72	31
1468.79	35
1469.85	33.5
1470.91	35.5
1471.97	29
1473.04	30
1474.1	29.5
1475.16	31.5
1476.22	31
1477.28	30.5
1478.34	31
1479.4	35
1480.47	32.5
1481.53	30
1482.59	32
1483.65	35
1484.71	36
1485.77	34
1486.83	31
1487.89	37.5
1488.95	30
1490.01	33
1491.07	34.5
1492.12	32
1493.18	36.5
1494.24	32.5
1495.3	29
1496.36	34
1497.42	30
1498.47	28.5
1499.53	31
1500.59	33.5
1501.65	37.5
1502.7	25
1503.76	32.5
1504.82	26.5
1505.88	32
1506.93	30
1507.99	27.5
1509.05	31.5
1510.1	33
1511.16	32.5
1512.21	29.5
1513.27	32.5
1514.32	29.5
1515.38	33
1516.43	31.5
1517.49	28
1518.54	35
1519.6	30
1520.65	29.5
1521.71	38
1522.76	29
1523.82	34
1524.87	33.5
1525.92	25.5
1526.98	25.5
1528.03	32
1529.08	30.5
1530.14	28.5
1531.19	31
1532.24	28
1533.3	32.5
1534.35	27.5
1535.4	28
1536.45	32.5
1537.5	36
1538.56	33.5
1539.61	30.5
1540.66	34
1541.71	35
1542.76	29.5
1543.81	29
1544.86	29.5
1545.91	29.5
1546.96	31
1548.01	33
1549.06	34
1550.11	31
1551.16	34.5
1552.21	33.5
1553.26	34.5
1554.31	31.5
1555.36	29
1556.41	32
1557.46	33
1558.51	34.5
1559.55	32
1560.6	33
1561.65	35
1562.7	29
1563.75	29
1564.79	32.5
1565.84	32.5
1566.89	31
1567.94	33
1568.98	30
1570.03	32
1571.07	27.5
1572.12	30
1573.17	30
1574.21	32.5
1575.26	30.5
1576.31	29.5
1577.35	29.5
1578.4	29
1579.44	33
1580.49	30
1581.53	31.5
1582.58	29.5
1583.62	30
1584.67	37
1585.71	31
1586.75	29
1587.8	30
1588.84	31
1589.89	36
1590.93	31
1591.97	33
1593.02	30
1594.06	32
1595.1	24
1596.14	27
1597.19	34
1598.23	29
1599.27	34
1600.31	36
1601.35	32.5
1602.4	32.5
1603.44	33
1604.48	30
1605.52	34.5
1606.56	33
1607.6	30
1608.64	34.5
1609.68	31.5
1610.72	29
1611.76	32
1612.8	32.5
1613.84	32.5
1614.88	31.5
1615.92	28.5
1616.96	33.5
1618	32
1619.04	28.5
1620.08	32
1621.12	29
1622.16	32
1623.19	33.5
1624.23	31
1625.27	28
1626.31	31
1627.35	27
1628.38	30.5
1629.42	33.5
1630.46	33.5
1631.5	31
1632.53	26
1633.57	30
1634.61	30.5
1635.64	32.5
1636.68	31
1637.71	30.5
1638.75	31
1639.79	29
1640.82	29
1641.86	30.5
1642.89	28.5
1643.93	28
1644.96	33
1646	29.5
1647.03	27
1648.07	30
1649.1	32.5
1650.14	31.5
1651.17	33
1652.2	30
1653.24	27
1654.27	31
1655.3	30
1656.34	31.5
1657.37	32
1658.4	30
1659.44	32
1660.47	31
1661.5	32
1662.53	32.5
1663.57	30.5
1664.6	27
1665.63	30
1666.66	30
1667.69	29
1668.72	30
1669.75	31.5
1670.79	28
1671.82	35
1672.85	29.5
1673.88	32
1674.91	29
1675.94	30
1676.97	29.5
1678	26.5
1679.03	32
1680.06	32
1681.09	31
1682.11	31
1683.14	30
1684.17	30
1685.2	28.5
1686.23	31.5
1687.26	32.5
1688.29	30
1689.32	31
1690.34	34
1691.37	32.5
1692.4	32
1693.43	35.5
1694.45	28.5
1695.48	30
1696.51	30.5
1697.53	30.5
1698.56	30
1699.59	29.5
1700.61	27.5
1701.64	29.5
1702.66	29.5
1703.69	31
1704.72	25
1705.74	32
1706.77	26.5
1707.79	27.5
1708.82	29.5
1709.84	28.5
1710.87	26
1711.89	28
1712.92	31
1713.94	32.5
1714.96	28
1715.99	33
1717.01	30.5
1718.04	32
1719.06	29.5
1720.08	28
1721.11	27.5
1722.13	31
1723.15	29
1724.17	29
1725.2	30
1726.22	32
1727.24	34
1728.26	24.5
1729.28	29
1730.31	29
1731.33	28
1732.35	32
1733.37	33
1734.39	31
1735.41	31.5
1736.43	30
1737.45	28.5
1738.47	32
1739.49	31
1740.51	28
1741.53	28
1742.55	31
1743.57	31
1744.59	30.5
1745.61	33
1746.63	30
1747.65	25
1748.67	29
1749.69	28.5
1750.71	31
1751.72	29
1752.74	25.5
1753.76	32
1754.78	33
1755.8	28.5
1756.81	31
1757.83	30
1758.85	30.5
1759.86	26
1760.88	32.5
1761.9	26
1762.91	31.5
1763.93	27.5
1764.95	32
1765.96	32
1766.98	28.5
1768	33.5
1769.01	29
1770.03	25.5
1771.04	25.5
1772.06	25
1773.07	32
1774.09	32.5
1775.1	31.5
1776.12	33
1777.13	30
1778.14	31
1779.16	31.5
1780.17	30.5
1781.19	26
1782.2	30
1783.21	28.5
1784.23	28
1785.24	25.5
1786.25	28.5
1787.27	28
1788.28	28.5
1789.29	28
1790.3	24
1791.32	28.5
1792.33	28.5
1793.34	26.5
1794.35	27
1795.36	27.5
1796.37	29
1797.38	32
1798.4	24
1799.41	29
1800.42	29.5
1801.43	30.5
1802.44	33
1803.45	27.5
1804.46	27.5
1805.47	33.5
1806.48	25
1807.49	29.5
1808.5	30.5
1809.51	28
1810.52	32
1811.53	25.5
1812.53	30
1813.54	30.5
1814.55	28
1815.56	28
1816.57	33
1817.58	29
1818.58	29
1819.59	26
1820.6	28
1821.61	26.5
1822.61	25
1823.62	27
1824.63	26.5
1825.64	28
1826.64	29.5
1827.65	27.5
1828.66	30
1829.66	26.5
1830.67	29
1831.67	27.5
1832.68	27
1833.68	32.5
1834.69	28
1835.7	29.5
1836.7	30.5
1837.71	26
1838.71	23.5
1839.71	31.5
1840.72	25.5
1841.72	26
1842.73	28.5
1843.73	29.5
1844.74	25
1845.74	30
1846.74	25
1847.75	27
1848.75	32
1849.75	28
1850.76	29
1851.76	25.5
1852.76	31.5
1853.76	28.5
1854.77	28.5
1855.77	28.5
1856.77	25
1857.77	26
1858.77	27
1859.78	28
1860.78	28.5
1861.78	28.5
1862.78	31
1863.78	28
1864.78	24
1865.78	30
1866.78	26
1867.78	27.5
1868.78	22
1869.78	26.5
1870.78	27.5
1871.78	29.5
1872.78	29
1873.78	28.5
1874.78	28
1875.78	27
1876.78	25
1877.78	29.5
1878.78	30
1879.77	25.5
1880.77	29
1881.77	24
1882.77	28.5
1883.77	25
1884.76	30.5
1885.76	28.5
1886.76	28
1887.76	26
1888.75	28
1889.75	28.5
1890.75	27
1891.74	27.5
1892.74	27
1893.74	27.5
1894.73	26
1895.73	28
1896.72	28.5
1897.72	25.5
1898.72	29
1899.71	28
1900.71	22.5
1901.7	27
1902.7	26.5
1903.69	22.5
1904.69	26.5
1905.68	30.5
1906.67	25.5
1907.67	29.5
1908.66	29
1909.66	26.5
1910.65	27
1911.64	31
1912.64	29
1913.63	24
1914.62	27
1915.62	29
1916.61	25
1917.6	30.5
1918.59	23
1919.59	28
1920.58	26.5
1921.57	31
1922.56	24.5
1923.55	26.5
1924.55	25.5
1925.54	27
1926.53	29.5
1927.52	25
1928.51	32
1929.5	28.5
1930.49	25.5
1931.48	27
1932.47	28.5
1933.46	28
1934.45	26.5
1935.44	26
1936.43	28.5
1937.42	26.5
1938.41	27
1939.4	25
1940.39	28.5
1941.38	28
1942.37	27
1943.36	29
1944.34	25
1945.33	25
1946.32	27.5
1947.31	30
1948.3	29.5
1949.28	29
1950.27	27
1951.26	26.5
1952.25	30.5
1953.23	25
1954.22	27
1955.21	25.5
1956.2	29.5
1957.18	26.5
1958.17	29.5
1959.15	30
1960.14	26
1961.13	22
1962.11	29
1963.1	30
1964.08	26.5
1965.07	25
1966.05	28.5
1967.04	26.5
1968.02	31
1969.01	26.5
1969.99	30.5
1970.98	28
1971.96	29
1972.94	26
1973.93	24.5
1974.91	28
1975.9	26.5
1976.88	27
1977.86	24.5
1978.85	28
1979.83	28
1980.81	29
1981.8	27
1982.78	28
1983.76	22.5
1984.74	28.5
1985.72	29
1986.71	23
1987.69	26
1988.67	27
1989.65	28
1990.63	28.5
1991.61	29
1992.6	27
1993.58	27
1994.56	29.5
1995.54	24.5
1996.52	26.5
1997.5	26
1998.48	26.5
1999.46	28
2000.44	23
2001.42	27
2002.4	26
2003.38	27.5
2004.36	28.5
2005.34	26
2006.32	26.5
2007.29	28.5
2008.27	29
2009.25	28
2010.23	27
2011.21	26
2012.19	28.5
2013.16	28
2014.14	24.5
2015.12	29
2016.1	26.5
2017.07	24
2018.05	25
2019.03	28
2020	25.5
2020.98	25.5
2021.96	27
2022.93	30.5
2023.91	26.5
2024.89	24
2025.86	25
2026.84	26
2027.81	23.5
2028.79	28
2029.77	26
2030.74	26.5
2031.72	27
2032.69	24.5
2033.67	27.5
2034.64	26
2035.61	28
2036.59	23
2037.56	28.5
2038.54	28
2039.51	25.5
2040.48	23
2041.46	26.5
2042.43	24.5
2043.41	24
2044.38	27
2045.35	29.5
2046.32	26.5
2047.3	26.5
2048.27	26.5
2049.24	27.5
2050.21	30
2051.19	23.5
2052.16	27
2053.13	24.5
2054.1	25
2055.07	27
2056.04	24
2057.02	26.5
2057.99	26
2058.96	25
2059.93	27.5
2060.9	25.5
2061.87	29.5
2062.84	24
2063.81	26
2064.78	26
2065.75	26
2066.72	20.5
2067.69	25.5
2068.66	26.5
2069.63	24.5
2070.6	27
2071.57	28
2072.53	23.5
2073.5	26.5
2074.47	31
2075.44	27
2076.41	24
2077.38	24
2078.34	25
2079.31	26
2080.28	27
2081.25	24.5
2082.21	26.5
2083.18	24
2084.15	24
2085.12	25
2086.08	27.5
2087.05	24
2088.02	28
2088.98	24
2089.95	28
2090.91	24.5
2091.88	25
2092.85	22
2093.81	25.5
2094.78	29
2095.74	26.5
2096.71	25.5
2097.67	24.5
2098.64	26
2099.6	26
2100.57	22
2101.53	24.5
2102.5	27
2103.46	26.5
2104.42	25.5
2105.39	25
2106.35	26.5
2107.31	26.5
2108.28	27.5
2109.24	26
2110.2	25
2111.17	24
2112.13	25.5
2113.09	29.5
2114.06	26
2115.02	25.5
2115.98	24
2116.94	25.5
2117.9	26.5
2118.86	28.5
2119.83	28.5
2120.79	28
2121.75	26
2122.71	29.5
2123.67	25.5
2124.63	26
2125.59	25
2126.55	28
2127.51	22.5
2128.48	24.5
2129.43	29
2130.4	25
2131.35	24
2132.31	30
2133.27	26.5
2134.23	27
2135.19	27.5
2136.15	27
2137.11	27
2138.07	26
2139.03	20.5
2139.99	21
2140.95	23.5
2141.9	24
2142.86	25.4935
2143.82	24.4935
2144.78	24.9656
2145.74	24.0047
2146.69	24.9678
2147.65	23.7357
2148.61	26.7849
2149.56	25.0605
2150.52	24.95
2151.48	28.618
2152.44	25.72
2153.39	23.9723
2154.35	22.7079
2155.3	25.0367
2156.26	25.9744
2157.22	26.3878
2158.17	24.886
2159.13	25.2267
2160.08	26.4665
2161.04	27.1572
2161.99	26.8827
2162.95	26.7694
2163.9	21.7818
2164.86	26.4426
2165.81	22.5973
2166.77	23.0081
2167.72	26.176
2168.68	23.1101
2169.63	25.6753
2170.58	27.7278
2171.54	24.6032
2172.49	25.6906
2173.44	24.6217
2174.4	23.9646
2175.35	26.203
2176.3	25.5071
2177.26	29.7697
2178.21	26.8755
2179.16	22.6846
2180.11	22.601
2181.07	21.966
2182.02	25.8763
2182.97	22.0941
2183.92	24.1553
2184.88	25.9809
2185.83	26.0121
2186.78	24.9845
2187.73	23.3915
2188.68	27.6942
2189.63	23.2926
2190.58	25.0025
2191.53	24.4325
2192.48	24.2565
2193.43	25.1763
2194.38	23.9539
2195.33	24.1875
2196.28	25.7639
2197.23	24.9881
2198.18	22.2039
2199.13	23.7101
2200.08	23.6193
2201.03	25.8725
2201.98	23.5189
2202.93	24.8138
2203.88	28.0104
2204.83	24.4041
2205.78	22.9484
2206.72	28.2444
2207.67	26.7639
2208.62	22.1437
2209.57	23.1044
2210.52	24.2465
2211.46	24.6818
2212.41	22.8575
2213.36	25.5322
2214.31	26.1118
2215.25	22.8226
2216.2	24.9234
2217.15	25.8212
2218.09	25.8529
2219.04	24.3995
2219.99	24.8706
2220.93	20.4282
2221.88	23.6591
2222.83	25.4481
2223.77	24.747
2224.72	25.8353
2225.66	26.1949
2226.61	22.9226
2227.55	23.1305
2228.5	23.9233
2229.44	24.6518
2230.39	22.3746
2231.33	23.8795
2232.28	26.1829
2233.22	24.6011
2234.17	24.704
2235.11	26.939
2236.05	27.0071
2237	23.7695
2237.94	24.1098
2238.88	24.4563
2239.83	26.0588
2240.04	26.5
2240.98	24
2241.93	24
2242.88	30
2243.83	24
2244.78	23.5
2245.72	25.5
2246.67	24
2247.62	26
2248.56	23
2249.51	26.5
2250.46	23
2251.4	21.5
2252.35	23.5
2253.3	26
2254.24	21.5
2255.19	24
2256.14	25.5
2257.08	22.5
2258.03	28.5
2258.97	26
2259.92	25
2260.86	24
2261.81	24.5
2262.75	26
2263.7	20
2264.64	24.5
2265.59	27.5
2266.53	27.5
2267.48	25.5
2268.42	27.5
2269.36	25.5
2270.31	25.5
2271.25	27
2272.19	27
2273.14	24
2274.08	23.5
2275.02	23
2275.97	21
2276.91	24.5
2277.85	25
2278.8	24.5
2279.74	28.5
2280.68	22.5
2281.62	22.5
2282.56	26.5
2283.51	25
2284.45	23
2285.39	24
2286.33	23
2287.27	26.5
2288.21	23.5
2289.15	23.5
2290.09	27
2291.04	25
2291.98	26
2292.92	24
2293.86	27.5
2294.8	25.5
2295.74	21.5
2296.68	22.5
2297.62	24
2298.56	25.5
2299.5	24
2300.44	27
2301.37	25.5
2302.31	27
2303.25	21
2304.19	24
2305.13	23.5
2306.07	22
2307.01	24
2307.94	26
2308.88	27
2309.82	25.5
2310.76	21.5
2311.7	23
2312.63	25.5
2313.57	27
2314.51	24
2315.44	23.5
2316.38	24
2317.32	19
2318.26	27
2319.19	25.5
2320.13	23
2321.06	26
2322	24.5
2322.94	23.5
2323.87	29
2324.81	24
2325.74	28
2326.68	27.5
2327.61	25
2328.55	28.5
2329.48	22
2330.42	22.5
2331.35	21
2332.29	27
2333.22	22
2334.16	30
2335.09	24
2336.02	27
2336.96	24
2337.89	23
2338.83	25.5
2339.76	25
2340.69	28
2341.63	25.5
2342.56	28
2343.49	23
2344.42	26.5
2345.36	25.5
2346.29	25
2347.22	24.5
2348.15	24
2349.09	26
2350.02	26.5
2350.95	25
2351.88	26
2352.81	28.5
2353.74	26
2354.68	26.5
2355.61	24
2356.54	26.5
2357.47	26
2358.4	26.5
2359.33	24.5
2360.26	26
2361.19	27
2362.12	24.5
2363.05	26.5
2363.98	26.5
2364.91	24
2365.84	24
2366.77	26.5
2367.7	23
2368.63	23.5
2369.56	25
2370.49	28.5
2371.41	28.5
2372.34	26
2373.27	23.5
2374.2	26
2375.13	23.5
2376.06	26.5
2376.98	27.5
2377.91	24.5
2378.84	29.5
2379.77	25
2380.69	25
2381.62	27
2382.55	26
2383.47	22.5
2384.4	29
2385.33	26
2386.25	25
2387.18	25.5
2388.11	23
2389.03	25
2389.96	26.5
2390.89	27.5
2391.81	24
2392.74	29.5
2393.66	26
2394.59	27
2395.51	25
2396.44	25.5
2397.36	24.5
2398.29	24.5
2399.21	25.5
2400.14	20.5
2401.06	25.5
2401.99	26
2402.91	25
2403.83	24.5
2404.76	24
2405.68	27
2406.6	25.5
2407.53	26
2408.45	25.5
2409.37	26
2410.3	26
2411.22	26.5
2412.14	27
2413.06	27
2413.99	24.5
2414.91	24.5
2415.83	26
2416.75	26.5
2417.68	28
2418.6	23
2419.52	26.5
2420.44	19
2421.36	26
2422.28	25
2423.2	26.5
2424.12	26.5
2425.05	25.5
2425.97	23.5
2426.89	22.5
2427.81	27
2428.73	26.5
2429.65	21
2430.57	27
2431.49	24
2432.41	27
2433.33	22.5
2434.25	27
2435.17	30
2436.08	26.5
2437	22
2437.92	24
2438.84	27
2439.76	24
2440.68	27
2441.6	21.5
2442.51	23.5
2443.43	24.5
2444.35	26
2445.27	24.5
2446.19	23
2447.1	27
2448.02	25
2448.94	24
2449.85	28.5
2450.77	27.5
2451.69	27
2452.61	25
2453.52	26
2454.44	30
2455.35	27
2456.27	25
2457.19	27
2458.1	24
2459.02	27.5
2459.94	24.5
2460.85	24.5
2461.77	24
2462.68	29
2463.6	25
2464.51	24.5
2465.43	25.5
2466.34	22
2467.25	26.5
2468.17	28
2469.08	25
2470	25.5
2470.91	24.5
2471.83	27.5
2472.74	25.5
2473.65	25.5
2474.57	27.5
2475.48	23
2476.39	29
2477.31	26.5
2478.22	22
2479.13	26.5
2480.04	26
2480.96	25
2481.87	25.5
2482.78	23.5
2483.69	30
2484.6	22.5
2485.52	26.5
2486.43	24.5
2487.34	23.5
2488.25	25.5
2489.16	25
2490.07	27
2490.99	26
2491.9	22
2492.81	25
2493.72	25
2494.63	23.5
2495.54	28
2496.45	26.5
2497.36	22.5
2498.27	28
2499.18	27
2500.09	25
2501	25.5
2501.91	27.5
2502.82	23.5
2503.73	25
2504.63	25
2505.54	27
2506.45	22.5
2507.36	27
2508.27	30
2509.18	24.5
2510.09	28.5
2510.99	24
2511.9	27.5
2512.81	22
2513.72	27.5
2514.62	23
2515.53	24.5
2516.44	26
2517.35	27
2518.25	25
2519.16	29.5
2520.07	24
2520.97	31
2521.88	26.5
2522.79	28.5
2523.69	22.5
2524.6	24
2525.51	24.5
2526.41	25
2527.32	26.5
2528.22	25.5
2529.13	24
2530.03	24
2530.94	23
2531.84	29.5
2532.75	24
2533.65	27.5
2534.56	25
2535.46	23
2536.37	27
2537.27	25
2538.17	26
2539.08	25
2539.98	29
2540.89	30.5
2541.79	28
2542.69	28.5
2543.6	25.5
2544.5	22
2545.4	28
2546.31	23.5
2547.21	26
2548.11	26.5
2549.01	26
2549.92	26.5
2550.82	26
2551.72	26
2552.62	22.5
2553.52	26
2554.42	26
2555.33	21
2556.23	25
2557.13	25.5
2558.03	25.5
2558.93	26
2559.83	27
2560.73	26
2561.63	27
2562.53	31
2563.43	25.5
2564.33	27
2565.24	29
2566.13	25
2567.04	27.5
2567.93	29.5
2568.83	27.5
2569.73	28
2570.63	22.5
2571.53	24
2572.43	24.5
2573.33	25
2574.23	26.5
2575.13	26.5
2576.03	25
2576.92	27
2577.82	25.5
2578.72	28.5
2579.62	23
2580.52	27
2581.41	24.5
2582.31	24
2583.21	23.5
2584.11	25
2585	21.5
2585.9	25.5
2586.8	22.5
2587.69	26.5
2588.59	28.5
2589.49	23.5
2590.38	26
2591.28	25
2592.18	26
2593.07	25
2593.97	24
2594.86	26.5
2595.76	27.5
2596.66	23.5
2597.55	26
2598.45	26
2599.34	23.5
2600.24	26.5
2601.13	26
2602.03	26
2602.92	27
2603.81	26.5
2604.71	26.5
2605.6	29
2606.5	28
2607.39	25
2608.28	23
2609.18	24
2610.07	26.5
2610.97	29
2611.86	22
2612.75	26.5
2613.64	27
2614.54	24.5
2615.43	25.5
2616.32	24
2617.22	26.5
2618.11	26.5
2619	28
2619.89	23
2620.78	24
2621.68	24
2622.57	26
2623.46	29
2624.35	25
2625.24	25.5
2626.13	25
2627.02	24
2627.91	25.5
2628.81	28.5
2629.7	27
2630.59	25.5
2631.48	27
2632.37	20.5
2633.26	26.5
2634.15	29
2635.04	26
2635.93	23.5
2636.82	29.5
2637.71	23.5
2638.59	24
2639.48	28.5
2640.37	25.5
2641.26	24.5
2642.15	24
2643.04	25.5
2643.93	20
2644.82	20.5
2645.71	26.5
2646.59	25.5
2647.48	27
2648.37	25
2649.26	26
2650.15	26
2651.03	28.5
2651.92	25.5
2652.81	22.5
2653.69	24
2654.58	27
2655.47	27.5
2656.35	26
2657.24	25
2658.13	24
2659.01	27.5
2659.9	24
2660.79	24.5
2661.67	25
2662.56	26
2663.44	25
2664.33	27
2665.22	26
2666.1	27.5
2666.99	24.5
2667.87	23.5
2668.76	24
2669.64	26.5
2670.52	26.5
2671.41	24.5
2672.29	29
2673.18	28
2674.06	23.5
2674.95	25
2675.83	26
2676.71	28
2677.6	25
2678.48	26
2679.36	22
2680.25	24
2681.13	23
2682.01	30
2682.9	28
2683.78	29.5
2684.66	25
2685.55	25
2686.43	25.5
2687.31	25.5
2688.19	26.5
2689.07	25
2689.96	25
2690.84	20
2691.72	26.5
2692.6	26.5
2693.48	27.5
2694.36	21.5
2695.24	30.5
2696.12	26.5
2697	23.5
2697.89	28.5
2698.77	25.5
2699.65	27.5
2700.53	26.5
2701.41	26
2702.29	25
2703.17	26.5
2704.05	24.5
2704.93	26
2705.81	27
2706.69	27
2707.57	29.5
2708.44	27.5
2709.32	27.5
2710.2	24
2711.08	28.5
2711.96	23
2712.84	24
2713.72	26
2714.59	24
2715.47	25
2716.35	28
2717.23	29
2718.11	28.5
2718.98	30.5
2719.86	26
2720.74	25.5
2721.62	29
2722.49	24.5
2723.37	26
2724.25	26
2725.12	24.5
2726	28
2726.88	27.5
2727.75	28.5
2728.63	22.5
2729.51	21
2730.38	24.5
2731.26	22
2732.13	26
2733.01	29.5
2733.88	23.5
2734.76	27.5
2735.63	25
2736.51	27
2737.38	25.5
2738.26	23.5
2739.13	22.5
2740.01	24.5
2740.88	28.5
2741.76	25
2742.63	26.5
2743.5	26
2744.38	26
2745.25	22
2746.13	27
2747	26
2747.87	25.5
2748.75	27
2749.62	26.5
2750.49	27
2751.36	29
2752.24	22.5
2753.11	24.5
2753.98	25
2754.86	22.5
2755.73	23.5
2756.6	25.5
2757.47	25.5
2758.34	23.5
2759.22	26
2760.09	25.5
2760.96	27
2761.83	24
2762.7	26
2763.57	27
2764.44	30.5
2765.31	28
2766.18	29.5
2767.06	27.5
2767.93	23
2768.8	24.5
2769.67	25
2770.54	24.5
2771.41	21
2772.28	25.5
2773.15	29
2774.02	25.5
2774.89	29
2775.75	22
2776.62	28.5
2777.49	24.5
2778.36	23
2779.23	25
2780.1	23
2780.97	23
2781.84	29
2782.71	24
2783.57	22
2784.44	24
2785.31	24.5
2786.18	27.5
2787.04	26
2787.91	30.5
2788.78	26
2789.65	30
2790.51	28
2791.38	26
2792.25	27.5
2793.12	26.5
2793.98	27
2794.85	27
2795.72	29.5
2796.58	27
2797.45	23
2798.31	26
2799.18	27.5
2800.05	27
2800.91	26.5
2801.78	25.5
2802.64	23
2803.51	26
2804.37	30.5
2805.24	25
2806.1	25
2806.97	29.5
2807.83	26.5
2808.7	25.5
2809.56	29
2810.43	30.5
2811.29	25.5
2812.15	25.5
2813.02	28.5
2813.88	28.5
2814.75	26
2815.61	27
2816.47	25
2817.34	27
2818.2	23.5
2819.06	31
2819.92	24.5
2820.79	28.5
2821.65	27.5
2822.51	25
2823.37	29
2824.24	22
2825.1	27.5
2825.96	27.5
2826.82	25.5
2827.69	30
2828.55	24.5
2829.41	27
2830.27	27
2831.13	28
2831.99	24.5
2832.85	29
2833.71	27
2834.58	26.5
2835.44	26
2836.3	29
2837.16	29
2838.02	24.5
2838.88	23.5
2839.74	22.5
2840.6	25.5
2841.46	25
2842.32	28.5
2843.18	26.5
2844.04	28
2844.9	26.5
2845.75	26.5
2846.61	28.5
2847.47	28.5
2848.33	24
2849.19	28.5
2850.05	27.5
2850.91	26.5
2851.77	25
2852.62	28
2853.48	27
2854.34	28.5
2855.2	28.5
2856.06	25.5
2856.91	30.5
2857.77	27
2858.63	24.5
2859.48	25
2860.34	25
2861.2	25.5
2862.06	27.5
2862.91	28
2863.77	27
2864.63	30
2865.48	27.5
2866.34	31
2867.19	27.5
2868.05	27
2868.91	28.5
2869.76	27.5
2870.62	28
2871.47	31
2872.33	24
2873.18	31.5
2874.04	33.5
2874.89	30
2875.75	30
2876.6	30.5
2877.46	29
2878.31	35
2879.17	31
2880.02	30
2880.88	29.5
2881.73	30
2882.58	34
2883.44	33.5
2884.29	36
2885.14	30
2886	33.5
2886.85	34.5
2887.7	35
2888.56	38.5
2889.41	38
2890.26	37
2891.12	41.5
2891.97	42.5
2892.82	41
2893.67	40.5
2894.52	43
2895.38	46.5
2896.23	49.5
2897.08	50.5
2897.93	57.5
2898.78	54.5
2899.64	57.5
2900.49	64.5
2901.34	63.5
2902.19	66
2903.04	71
2903.89	73
2904.74	73.5
2905.59	75
2906.44	72.5
2907.29	73
2908.14	65.5
2908.99	68
2909.84	64.5
2910.69	66
2911.54	69
2912.39	61
2913.24	59.5
2914.09	53
2914.94	52
2915.79	50
2916.64	46.5
2917.49	40.5
2918.34	42
2919.18	46
2920.03	37
2920.88	35.5
2921.73	37
2922.58	37.5
2923.42	33.5
2924.27	29.5
2925.12	33
2925.97	31.5
2926.82	34
2927.66	35
2928.51	32.5
2929.36	29.5
2930.2	29
2931.05	30
2931.9	29.5
2932.74	28
2933.59	30
2934.44	29.5
2935.28	30.5
2936.13	29
2936.98	25.5
2937.82	28.5
2938.67	26
2939.51	28.5
2940.36	25
2941.2	28.5
2942.05	29
2942.9	29
2943.74	30
2944.58	31.5
2945.43	26.5
2946.27	31.5
2947.12	32
2947.96	30.5
2948.81	33.5
2949.65	29
2950.5	32
2951.34	35.5
2952.18	30
2953.03	32
2953.87	34
2954.71	32
2955.56	34.5
2956.4	37
2957.24	34.5
2958.09	36.5
2958.93	35
2959.77	39.5
2960.62	39.5
2961.46	41.5
2962.3	45
2963.14	41
2963.98	44.5
2964.83	45.5
2965.67	47
2966.51	46.5
2967.35	44.5
2968.19	44
2969.04	38
2969.88	40
2970.72	42.5
2971.56	40
2972.4	40.4027
2973.24	38.9516
2974.08	36.5786
2974.92	32.0939
2975.76	33.1502
2976.6	34.0569
2977.44	34.3556
2978.28	33.8674
2979.12	35.7493
2979.96	29.8025
2980.8	27.017
2981.64	26.5561
2982.48	28.1622
2983.32	31.5819
2984.16	29.8981
2985	29.5175
2985.84	27.5692
2986.68	25.2412
2987.52	24.0263
2988.35	27.0995
2989.19	26.6885
2990.03	25.5469
2990.87	24.1563
2991.71	26.0935
2992.55	24.7757
2993.38	27.7776
2994.22	23.3427
2995.06	25.8295
2995.9	28.2084
2996.73	26.2965
2997.57	26.3563
2998.41	27.563
2999.25	25.1364
3000.08	25.3213
3000.92	23.0727
3001.76	23.3723
3002.59	25.2052
3003.43	24.6658
3004.27	25.4307
3005.1	26.6818
3005.94	26.5255
3006.78	24.3317
3007.61	26.8601
3008.45	25.0103
3009.28	23.9539
3010.12	22.5178
3010.95	24.5179
3011.79	23.4773
3012.62	24.7263
3013.46	23.1692
3014.29	21.9191
3015.13	23.8608
3015.96	22.5612
3016.8	25.3835
3017.63	25.0873
3018.47	26.726
3019.3	24.2486
3020.14	26.1352
3020.97	22.1553
3021.8	23.7687
3022.64	23.752
3023.47	24.7857
3024.3	24.6165
3025.14	24.8801
3025.97	22.4049
3026.8	21.749
3027.64	21.6357
3028.47	24.6661
3029.3	25.4219
3030.14	19.3452
3030.97	20.6653
3031.8	22.4701
3032.63	21.739
3033.46	22.5915
3034.3	23.6055
3035.13	25.0721
3035.96	24.3978
3036.79	21.6089
3037.62	22.0969
3038.46	24.3559
3039.29	23.1548
3040.12	22.6942
3040.95	22.755
3041.78	23.7349
3042.61	22.4519
3043.44	23.6901
3044.27	23.6182
3045.1	24.7888
3045.93	24.8897
3046.76	22.414
3047.59	21.2276
3048.42	23.5388
3049.25	23.1009
3050.08	24.5257
3050.91	24.6274
3051.74	23.3839
3052.57	22.2545
3053.4	22.0598
3054.23	23.2958
3055.06	21.6215
3055.89	23.4425
3056.72	22.3951
3057.32	23.5
3058.15	22
3058.98	24.5
3059.82	23
3060.65	21
3061.48	22.5
3062.31	22
3063.15	26.5
3063.98	26.5
3064.81	24.5
3065.64	25
3066.48	24.5
3067.31	25
3068.14	22.5
3068.97	21
3069.8	20
3070.63	22
3071.47	20.5
3072.3	26
3073.13	26.5
3073.96	17.5
3074.79	24
3075.62	22.5
3076.45	22
3077.28	27.5
3078.11	22.5
3078.94	25
3079.77	20
3080.6	17
3081.43	25
3082.26	27
3083.09	25.5
3083.92	25
3084.75	25
3085.58	25
3086.41	24
3087.24	19
3088.07	20
3088.9	26
3089.73	21.5
3090.55	26
3091.38	23.5
3092.21	24
3093.04	24.5
3093.87	26
3094.7	21.5
3095.52	22.5
3096.35	22.5
3097.18	24
3098.01	23.5
3098.84	22
3099.66	23.5
3100.49	19.5
3101.32	28
3102.14	25
3102.97	25.5
3103.8	21
3104.62	23
3105.45	24.5
3106.28	19
3107.1	26.5
3107.93	22
3108.76	24
3109.58	23
3110.41	23
3111.23	22
3112.06	19
3112.89	25
3113.71	22
3114.54	23
3115.36	24
3116.19	23
3117.01	24.5
3117.84	25.5
3118.66	25
3119.49	23
3120.31	25.5
3121.13	27
3121.96	20
3122.78	25
3123.61	23.5
3124.43	23
3125.25	24
3126.08	24
3126.9	26
3127.73	22.5
3128.55	24
3129.37	24.5
3130.19	25
3131.02	24.5
3131.84	25
3132.66	18
3133.49	21
3134.31	24
3135.13	28
3135.95	18.5
3136.78	27
3137.6	22.5
3138.42	26.5
3139.24	27
3140.06	28.5
3140.88	24.5
3141.71	27
3142.53	23
3143.35	22
3144.17	22.5
3144.99	22.5
3145.81	24.5
3146.63	20.5
3147.45	22
3148.27	23
3149.09	28.5
3149.91	22
3150.73	21.5
3151.56	23.5
3152.37	25.5
3153.2	23.5
3154.01	23
3154.83	24
3155.65	18.5
3156.47	27
3157.29	25.5
3158.11	27.5
3158.93	27
3159.75	25
3160.57	25
3161.39	25.5
3162.21	24.5
3163.02	21.5
3163.84	23
3164.66	23
3165.48	23
3166.3	26
3167.11	28
3167.93	24.5
3168.75	23
3169.57	21
3170.39	24
3171.2	24
3172.02	26.5
3172.84	20.5
3173.65	25.5
3174.47	19
3175.29	21
3176.1	26
3176.92	25
3177.74	23.5
3178.55	25
3179.37	24
3180.19	23.5
3181	21
3181.82	25
3182.63	26
3183.45	24
3184.27	24.5
3185.08	23
3185.9	23
3186.71	19.5
3187.53	25
3188.34	26.5
3189.16	21.5
3189.97	25
3190.79	25
3191.6	26.5
3192.41	21
3193.23	28
3194.04	26
3194.86	22
3195.67	24.5
3196.48	26.5
3197.3	24.5
3198.11	26
3198.93	23.5
3199.74	25.5
3200.55	24
3201.36	24
3202.18	26
3202.99	26
3203.8	24.5
3204.62	24
3205.43	27
3206.24	25
3207.05	22.5
3207.87	23.5
3208.68	24.5
3209.49	23.5
3210.3	26
3211.11	25.5
3211.93	21.5
3212.74	26
3213.55	25.5
3214.36	23
3215.17	24.5
3215.98	25
3216.79	26.5
3217.6	27.5
3218.41	26.5
3219.22	25.5
3220.03	25.5
3220.85	25.5
3221.66	21
3222.47	21.5
3223.28	24.5
3224.09	23
3224.9	20.5
3225.71	26.5
3226.52	25
3227.33	25
3228.13	22.5
3228.94	24.5
3229.75	26
3230.56	25
3231.37	22.5
3232.18	30
3232.99	20
3233.8	24
3234.61	23.5
3235.41	21.5
3236.22	24
3237.03	22
3237.84	21
3238.65	20
3239.45	26
3240.26	22
3241.07	24.5
3241.88	23
3242.68	24
3243.49	20
3244.3	20.5
3245.1	19
3245.91	23
3246.72	23.5
3247.53	25
3248.33	21.5
3249.14	25
3249.95	20.5
3250.75	27
3251.56	26.5
3252.36	21
3253.17	23.5
3253.97	26
3254.78	20.5
3255.59	24.5
3256.39	23
3257.2	23.5
3258	26
3258.81	26
3259.61	22.5
3260.42	22.5
3261.22	22.5
3262.03	25
3262.83	27.5
3263.64	25.5
3264.44	22
3265.24	27
3266.05	23.5
3266.85	24
3267.66	26.5
3268.46	18
3269.26	25
3270.07	23.5
3270.87	22.5
3271.67	25
3272.48	24.5
3273.28	26.5
3274.08	26
3274.89	22
3275.69	26
3276.49	21.5
3277.29	24
3278.1	24.5
3278.9	26.5
3279.7	22
3280.5	22
3281.3	26.5
3282.11	25
3282.91	22
3283.71	23.5
3284.51	23
3285.31	24
3286.11	17
3286.91	25
3287.72	21.5
3288.52	23
3289.32	23
3290.12	26.5
3290.92	22
3291.72	25.5
3292.52	22.5
3293.32	24.5
3294.12	21
3294.92	24.5
3295.72	26
3296.52	22
3297.32	28.5
3298.12	24.5
3298.92	25
3299.72	21
3300.52	23.5
3301.32	22
3302.12	20
3302.92	23
3303.71	21.5
3304.51	24.5
3305.31	19
3306.11	22.5
3306.91	22.5
3307.71	26.5
3308.5	21
3309.3	24
3310.1	23
3310.9	24
3311.7	23.5
3312.49	22.5
3313.29	26
3314.09	25
3314.89	21
3315.68	23.5
3316.48	24.5
3317.28	24.5
3318.07	24
3318.87	22
3319.67	24
3320.46	24.5
3321.26	21
3322.06	26.5
3322.85	23.5
3323.65	23
3324.44	26.5
3325.24	22
3326.04	22
3326.83	25
3327.63	19.5
3328.42	23.5
3329.22	23.5
3330.01	22
3330.81	24
3331.6	23
3332.4	23.5
3333.19	24
3333.99	24.5
3334.78	26
3335.58	24.5
3336.37	26
3337.17	23.5
3337.96	23
3338.75	25.5
3339.55	22.5
3340.34	26
3341.13	23
3341.93	21
3342.72	24
3343.51	25
3344.31	24.5
3345.1	24
3345.89	25
3346.69	22.5
3347.48	25
3348.27	27
3349.06	29
3349.86	25.5
3350.65	27
3351.44	22
3352.23	26
3353.03	25.5
3353.82	29.5
3354.61	26
3355.4	23
3356.19	25.5
3356.98	23
3357.78	23
3358.57	25.5
3359.36	26.5
3360.15	25
3360.94	25.5
3361.73	24.5
3362.52	22.5
3363.31	23
3364.1	22
3364.89	24.5
3365.68	23
3366.47	23.5
3367.26	25.5
3368.05	24
3368.84	24
3369.63	25
3370.42	23
3371.21	23
3372	24.5
3372.79	22
3373.58	22.5
3374.37	26.5
3375.16	26
3375.95	25
3376.73	24.5
3377.52	27
3378.31	27
3379.1	26
3379.89	26
3380.68	27.5
3381.46	25
3382.25	26.5
3383.04	22.5
3383.83	25
3384.62	20
3385.4	23
3386.19	25
3386.98	24
3387.76	23.5
3388.55	21.5
3389.34	24.5
3390.13	25
3390.91	24.5
3391.7	25
3392.49	25.5
3393.27	22
3394.06	25
3394.84	22
3395.63	24
3396.42	22
3397.2	24
3397.99	25
3398.77	26
3399.56	24.5
3400.34	28.5
3401.13	25
3401.92	25.5
3402.7	24
3403.49	25
3404.27	24
3405.06	26.5
3405.84	26.5
3406.62	22
3407.41	26.5
3408.19	22.5
3408.98	24.5
3409.76	20.5
3410.55	23
3411.33	23
3412.11	23
3412.9	24.5
3413.68	24.5
3414.46	22
3415.25	24
3416.03	26.5
3416.81	24.5
3417.6	25.5
3418.38	23
3419.16	23
3419.95	24
3420.73	23
3421.51	27.5
3422.29	25
3423.08	25
3423.86	23
3424.64	24.5
3425.42	25.5
3426.2	21.5
3426.98	25
3427.77	25
3428.55	21.5
3429.33	24
3430.11	24
3430.89	24.5
3431.67	26.5
3432.45	21.5
3433.24	21.5
3434.02	21.5
3434.8	25
3435.58	22
3436.36	23
3437.14	26
3437.92	23.5
3438.7	22.5
3439.48	24.5
3440.26	24
3441.04	22
3441.82	19.5
3442.6	24
3443.38	23.5
3444.16	24.5
3444.94	23.5
3445.71	28
3446.49	28
3447.27	27.5
3448.05	21
3448.83	22.5
3449.61	22.5
3450.39	26
3451.17	24
3451.94	26
3452.72	22
3453.5	23
3454.28	24.5
3455.06	24
3455.83	24
3456.61	22.5
3457.39	25.5
3458.17	24.5
3458.94	23
3459.72	22
3460.5	22.5
3461.28	20
3462.05	25.5
3462.83	22.5
3463.61	24
3464.38	24.5
3465.16	25
3465.93	25
3466.71	24
3467.49	23.5
3468.26	22
3469.04	20
3469.82	26.5
3470.59	21.5
3471.37	26
3472.14	20
3472.92	21.5
3473.69	25
3474.47	24.5
3475.24	25.5
3476.02	29
3476.79	23
3477.57	24
3478.34	27.5
3479.12	28
3479.89	23.5
3480.67	25
3481.44	20
3482.21	26.5
3482.99	22
3483.76	26.5
3484.54	21.5
3485.31	21.5
3486.08	24
3486.86	26
3487.63	24
3488.4	22
3489.18	26
3489.95	26.5
3490.72	22
3491.5	23
3492.27	23
3493.04	21
3493.81	23
3494.59	22
3495.36	18
3496.13	22
3496.9	26.5
3497.67	25
3498.45	22
3499.22	25.5
3499.99	24.5
