#Acq. time (s)=	5
#Accumulations=	5
#Range (cm-¹)=	100...3500
#Windows=	4
#Autofocus=	Off
#AutoExposure=	Off
#Spike filter=	Multiple accum.
#Delay time (s)=	0
#Binning=	1
#Readout mode=	Signal
#DeNoise=	Off
#ICS correction=	Off
#Dark correction=	Off
#Inst. Process=	Off
#Instrument=	LabRAM HR Evol
#Detector=	Syncerity OE
#Objective=	x100_VIS
#Grating=	600 (500nm)
#ND Filter=	25%
#Laser=	633nm_Edge
#Hole=	100.021
#Range=	Visible
#Project=	verificaciones
#Sample=	a5
#Site=	lined
#Title=	bolusa5lined
#Remark=	
#Date=	09.01.2026 13:08
#Acquired=	09.01.2026 13:08:46
100.695	24
101.978	36
103.262	31
104.545	30.5
105.829	32
107.112	32
108.394	29
109.676	33
110.958	32.5
112.24	31.5
113.522	35
114.803	31.5
116.084	33.5
117.365	35
118.646	30.5
119.927	32
121.207	31.5
122.487	31.5
123.767	31
125.047	31.5
126.326	32
127.606	35
128.885	29
130.164	35.5
131.442	34.5
132.721	33
133.999	38.5
135.277	35
136.555	37.5
137.831	37.5
139.109	36
140.386	38
141.663	41
142.94	39.5
144.216	37.5
145.493	41
146.769	45
148.043	39
149.319	40
150.595	42
151.87	42
153.145	35
154.42	48
155.693	42
156.968	41
158.242	42
159.516	42
160.79	45
162.062	41
163.336	43
164.609	37
165.882	37
167.153	41
168.426	42.5
169.699	38
170.971	45
172.241	41
173.513	37.5
174.785	43
176.055	43.5
177.326	38
178.597	43.5
179.866	44
181.137	39.5
182.407	45
183.676	43
184.946	45.5
186.216	43
187.484	46.5
188.753	36
190.022	43
191.29	43.5
192.558	45
193.825	43
195.094	43.5
196.36	37
197.628	43
198.896	44.5
200.162	43.5
201.429	34
202.695	43.5
203.962	37.5
205.227	35.5
206.493	34
207.758	38.5
209.024	35
210.289	34.5
211.554	41
212.818	38
214.083	36
215.347	36.5
216.612	35
217.875	34.5
219.138	37.5
220.402	37.5
221.665	36
222.928	32.5
224.19	34
225.454	36.5
226.715	30
227.977	32
229.24	36
230.501	33.5
231.762	33
233.024	33.5
234.284	33
235.546	29.5
236.806	31
238.066	30.5
239.327	31
240.587	31
241.846	35
243.105	28.5
244.365	34.5
245.624	30
246.882	29.5
248.142	31.5
249.4	33
250.658	30.5
251.916	33
253.174	30
254.432	32.5
255.689	27
256.945	29
258.202	29
259.46	31.5
260.716	28
261.972	32
263.228	28
264.483	31.5
265.74	32.5
266.996	30
268.251	28
269.505	29.5
270.76	35
272.014	28.5
273.268	31.5
274.522	29
275.778	28
277.031	28.5
278.285	27
279.538	26
280.791	28.5
282.043	29
283.296	27
284.548	30.5
285.8	30.5
287.052	27.5
288.304	28.5
289.556	27.5
290.807	30
292.058	26.5
293.309	27
294.56	30.5
295.81	25
297.061	30
298.311	30
299.561	30
300.81	30.5
302.06	29
303.309	28.5
304.558	31
305.807	31.5
307.056	30.5
308.305	26
309.551	28
310.8	30
312.047	26.5
313.295	33
314.543	32.5
315.79	29.5
317.037	30
318.284	33
319.529	26
320.776	26.5
322.022	24
323.268	30.5
324.514	34.5
325.758	28.5
327.004	29.5
328.249	27
329.494	30
330.739	26.5
331.982	31
333.227	30.5
334.471	30.5
335.715	27
336.958	30
338.201	29
339.445	26
340.687	27.5
341.93	31
343.173	27.5
344.414	29
345.657	33.5
346.899	24
348.14	28
349.381	28
350.623	30
351.863	33
353.104	30
354.346	32.5
355.585	31.5
356.826	30
358.065	27
359.305	32
360.545	31
361.784	29
363.023	35
364.261	31
365.501	25
366.738	32.5
367.977	31
369.216	28
370.453	27
371.691	31.5
372.928	29
374.166	29
375.402	28
376.64	30
377.876	32
379.111	33
380.348	25.5
381.584	24
382.82	33.5
384.055	32.5
385.291	29
386.526	30.5
387.76	29
388.996	27
390.229	24.5
391.465	25
392.698	28
393.931	24.5
395.166	32.5
396.399	27
397.632	30
398.866	25
400.098	26
401.33	29
402.563	26
403.795	23
405.027	28
406.259	25
407.491	29
408.721	30.5
409.954	30
411.184	28
412.415	26.5
413.645	29
414.876	28.5
416.106	31.5
417.335	29
418.565	26
419.794	28.5
421.024	29.5
422.253	26.5
423.482	29
424.71	31
425.938	28
427.168	27.5
428.396	30.5
429.623	27
430.851	28.5
432.078	31.5
433.305	28
434.532	26
435.758	27.5
436.986	26.5
438.212	28.5
439.438	27
440.664	29
441.89	31
443.115	31.5
444.34	25
445.566	31
446.79	25
448.015	34
449.24	32
450.464	31
451.688	28
452.912	35
454.135	29.5
455.359	28.5
456.582	26
457.805	33.5
459.028	30
460.251	31.5
461.473	32
462.696	33
463.918	30
465.14	36.5
466.36	38.5
467.582	33.5
468.803	31.5
470.024	31
471.245	34.5
472.466	35
473.686	38
474.907	41.5
476.126	37.5
477.346	43.5
478.565	45.5
479.785	48
481.004	51.5
482.224	54.5
483.441	55.5
484.66	57
485.879	60
487.097	60.5
488.314	64
489.532	62
490.75	62
491.967	58
493.184	57
494.401	57
495.618	53
496.835	53
498.05	50.5
499.267	48.5
500.483	48
501.698	44
502.913	41
504.129	40.5
505.343	41
506.559	38
507.774	37.5
508.987	39
510.202	35.5
511.415	38
512.63	38
513.844	36
515.056	34.5
516.27	36.5
517.482	33
518.696	33.5
519.907	32.5
521.121	30.5
522.332	29.5
523.545	32
524.757	35
525.968	30.5
527.18	32
528.39	31
529.602	31
530.812	31
532.023	32
533.233	24
534.443	29
535.653	29.5
536.862	20.5
538.073	32
539.281	29.5
540.491	31
541.7	26
542.908	32.5
544.117	28.5
545.325	26
546.534	30.5
547.741	28
548.949	31.5
550.157	31.5
551.364	27
552.57	28.5
553.778	29.5
554.985	29.5
556.191	28
557.398	29
558.604	28
559.809	30
561.014	28.5
562.221	28.5
563.426	27
564.63	31
565.835	30
567.041	28.5
568.245	26.5
569.449	29
570.653	30
571.856	27
573.061	31
574.264	28.5
575.467	29
576.67	27
577.873	30.5
579.076	24.5
580.279	30
581.481	32.5
582.683	28
583.884	26
585.086	28
586.287	31.5
587.488	29.5
588.689	31.5
589.891	31
591.092	24.5
592.292	28.5
593.492	28.5
594.692	28.5
595.892	29
597.092	30
598.291	27.5
599.49	24
600.689	28.5
601.888	31.5
603.087	28
604.285	29
605.483	28.5
606.681	23.5
607.879	28.5
609.077	32
610.274	28.5
611.472	28
612.668	30
613.865	31
615.061	25
616.258	28
617.454	26
618.65	30
619.846	29
621.042	30
622.238	27
623.432	31
624.627	32
625.822	27
627.017	24.5
628.212	30
629.406	28.5
630.599	27
631.793	28.5
632.987	26
634.181	25.5
635.373	29.5
636.566	31.5
637.76	30.5
638.953	29
640.144	28.5
641.337	33.5
642.529	27
643.721	31
644.912	28
646.104	31.5
647.295	30
648.485	33
649.677	31
650.868	29.5
652.057	24.5
653.248	29
654.437	26
655.628	31.5
656.818	31.5
658.006	32
659.196	27
660.384	29
661.574	29
662.763	30
663.951	29
665.14	35
666.327	30.5
667.515	28.5
668.702	33.5
669.891	32.5
671.077	27
672.265	31.5
673.451	29.5
674.638	30
675.824	29
677.011	29.5
678.197	28
679.383	33.5
680.568	33
681.755	34.5
682.939	33.5
684.124	40
685.309	34
686.494	34
687.679	39
688.863	35
690.046	34.5
691.231	38
692.414	30
693.599	35
694.781	32.5
695.964	33
697.148	36.5
698.33	35
699.512	37.5
700.694	32.5
701.877	37.5
703.059	43.5
704.24	41.5
705.423	46
706.604	50.5
707.784	50.5
708.965	56
710.147	58
711.327	49.5
712.507	50.5
713.687	44.5
714.867	37
716.048	37
717.227	36
718.406	35.5
719.585	32.5
720.764	30
721.942	30
723.122	33.5
724.3	25
725.478	33
726.656	31
727.834	30
729.011	28
730.189	28
731.366	25
732.543	29.5
733.719	35.5
734.896	27.5
736.072	28.5
737.249	30.5
738.426	29
739.602	27.5
740.777	28
741.953	27.5
743.128	30.5
744.303	30
745.477	31
746.651	29.5
747.826	29.5
749	32
750.174	28
751.348	26
752.522	30
753.696	25.5
754.869	33.5
756.043	28.5
757.216	26.5
758.389	30.5
759.561	30.5
760.732	27
761.905	23
763.077	29
764.249	30
765.421	28.5
766.592	30.5
767.762	30
768.934	29
770.105	30.5
771.275	29.5
772.446	33
773.615	26.5
774.786	28.5
775.956	29
777.126	30
778.294	25
779.464	31
780.633	31
781.801	32.5
782.97	33
784.139	30.5
785.306	29
786.475	35
787.643	37.5
788.81	34
789.978	33
791.146	34
792.312	29
793.479	29
794.647	31
795.812	27
796.979	27.5
798.144	34.5
799.311	31.5
800.477	33
801.642	33
802.808	31.5
803.972	28
805.138	27
806.302	28.5
807.467	29
808.631	26
809.796	28
810.959	25
812.124	30
813.287	29.5
814.451	31
815.614	33.5
816.777	30
817.94	27.5
819.102	25
820.265	24.5
821.427	32
822.59	27.5
823.751	26.5
824.912	25
826.074	29
827.235	26
828.397	32.5
829.558	30
830.718	26
831.879	24
833.039	27.5
834.199	28.5
835.359	29.5
836.519	31
837.679	29
838.838	27
839.998	28.5
841.156	28.5
842.315	26.5
843.473	31.5
844.633	30
845.791	30
846.948	28.5
848.106	27
849.263	24.5
850.422	28.5
851.579	25.5
852.736	33.5
853.892	27.5
855.049	33
856.205	26.5
857.363	32
858.519	32.5
859.674	29
860.83	31
861.986	27.5
863.141	33
864.296	27.5
865.451	31
866.605	29.5
867.76	28.5
868.914	36
870.069	28.5
871.224	22.5
872.378	28
873.531	30.5
874.685	29
875.838	30
876.991	29
878.144	30.5
879.296	26
880.448	30.5
881.6	29
882.753	28
883.905	30
885.057	28.5
886.208	29
887.36	25
888.511	26.5
889.662	25.5
890.813	25.5
891.964	25
893.113	28.5
894.264	28
895.414	28
896.564	25
897.714	29
898.864	25.5
900.012	27.5
901.161	28
902.31	29
903.459	25.5
904.607	31
905.756	26
906.904	27.5
908.052	27
909.199	24
910.347	26
911.495	25
912.643	26
913.789	30
914.936	25.5
916.083	25.5
917.229	26
918.375	28.5
919.522	29
920.667	26.5
921.813	28
922.959	28.5
924.104	25.5
925.249	26
926.393	25.5
927.539	27.5
928.684	29
929.827	29.5
930.972	25.5
932.115	27.5
933.26	27
934.403	26
935.547	24.5
936.689	29.5
937.833	29
938.975	27
940.119	31.5
941.26	25
942.404	25
943.545	27.5
944.688	30.5
945.829	32
946.971	26
948.112	26
949.253	26
950.394	27
951.535	30
952.676	24
953.816	24.5
954.956	24.5
956.097	22.5
957.236	25
958.377	26.5
959.516	26.5
960.655	27
961.793	25
962.933	30
964.071	28.5
965.21	25
966.349	26.5
967.487	29
968.624	25.5
969.762	23.5
970.901	26.75
972.038	27.5
973.175	25
974.311	27
975.449	21
976.586	28
977.722	22.5
978.858	29
979.994	27
981.131	24
982.267	31
983.402	27.5
984.537	25.5
985.672	28
986.807	27
987.942	27.5
989.076	27
990.211	28.5
991.346	26.5
992.48	26.5
993.614	24
994.748	26
995.881	23
997.014	28
998.148	25
999.28	27.5
1000.41	22.5
1001.55	24
1002.68	27.5
1003.81	29
1004.94	28.5
1006.07	26
1007.21	28.5
1008.34	28
1009.47	22.5
1010.6	26
1011.73	28.5
1012.86	28
1013.99	29
1015.12	26.5
1016.25	25.5
1017.38	27
1018.51	24
1019.64	26
1020.77	23
1021.9	27.5
1023.03	26
1024.16	25
1025.29	27
1026.42	26.5
1027.54	24.5
1028.67	27
1029.8	29.5
1030.93	23.5
1032.06	23
1033.18	26
1034.31	28
1035.44	29
1036.56	27
1037.69	26.5
1038.82	23.5
1039.94	28
1041.07	29
1042.2	30.5
1043.32	30
1044.45	25
1045.57	28.5
1046.7	28.5
1047.82	24.5
1048.95	27.5
1050.07	25
1051.2	26
1052.32	24.5
1053.45	27.5
1054.57	22.5
1055.69	27
1056.82	25.5
1057.94	27.5
1059.06	25.5
1060.19	26.5
1061.31	25.5
1062.43	26.5
1063.55	28.5
1064.68	27.5
1065.8	26
1066.92	29
1068.04	24.5
1069.16	25
1070.28	29
1071.41	28.5
1072.53	30.5
1073.65	23
1074.77	24.5
1075.89	27
1077.01	27
1078.13	22
1079.25	24
1080.37	29
1081.49	24
1082.61	26.5
1083.73	27
1084.85	25.5
1085.96	26
1087.08	25
1088.2	24
1089.32	27.5
1090.44	24.5
1091.56	26
1092.67	27
1093.79	28
1094.91	26
1096.03	25
1097.14	26.5
1098.26	27.5
1099.38	25
1100.49	25.5
1101.61	22.5
1102.73	25.5
1103.84	23.5
1104.96	24
1106.07	24
1107.19	27
1108.3	23
1109.42	25.5
1110.53	28
1111.65	27
1112.76	24
1113.88	24.5
1114.99	25
1116.1	26
1117.22	22
1118.33	28
1119.44	23.5
1120.56	25
1121.67	27.5
1122.78	27
1123.9	22
1125.01	24
1126.12	27.5
1127.23	26
1128.34	26
1129.46	24
1130.57	26
1131.68	24.5
1132.79	26.5
1133.9	23.5
1135.01	26
1136.12	25
1137.23	22
1138.34	25
1139.45	26.5
1140.56	25.5
1141.67	22.5
1142.78	24.5
1143.89	24
1145	25
1146.11	27.5
1147.22	24.5
1148.33	28
1149.44	26
1150.54	26
1151.65	24
1152.76	25
1153.87	24
1154.97	27.5
1156.08	25.5
1157.19	28.5
1158.3	26.5
1159.4	27
1160.51	23.5
1161.62	23.5
1162.72	26.5
1163.83	28.5
1164.93	25
1166.04	26
1167.15	30
1168.25	22.5
1169.36	26
1170.46	27
1171.57	25
1172.67	23
1173.78	26.5
1174.88	25.5
1175.98	21
1177.09	27.5
1178.19	24
1179.3	28.5
1180.4	28
1181.5	27
1182.61	26
1183.71	24
1184.81	28.5
1185.91	27.5
1187.02	26
1188.12	25
1189.22	24
1190.32	21.5
1191.42	24.5
1192.53	17
1193.63	26
1194.73	23.4879
1195.83	25.942
1196.93	25.492
1198.03	25.9136
1199.13	21.0172
1200.23	25.755
1201.33	23.9816
1202.43	24.5809
1203.53	23.4396
1204.63	26.925
1205.73	23.3891
1206.83	25.1315
1207.93	24.7193
1209.02	27.8232
1210.12	23.2585
1211.22	25.6512
1212.32	22.8769
1213.42	25.5879
1214.52	26.5132
1215.61	24.7707
1216.71	24.9243
1217.81	22.3286
1218.91	25.7134
1220	24.4433
1221.1	23.8033
1222.2	25.5732
1223.29	24.7144
1224.39	23.1268
1225.49	23.4819
1226.58	26.6943
1227.68	24.0516
1228.77	26.6059
1229.87	24.5043
1230.96	25.2945
1232.06	23.1787
1233.15	24.6338
1234.25	24.3322
1235.34	24.9228
1236.44	22.996
1237.53	26.5084
1238.63	27.4442
1239.72	27.1169
1240.81	24.5012
1241.91	25.5427
1243	24.6351
1244.09	24.2825
1245.19	24.7791
1246.28	26.3069
1247.37	26.5907
1248.46	27.8733
1249.56	24.7729
1250.65	22.7535
1251.74	28.4469
1252.83	27.4673
1253.92	23.5882
1255.01	24.4102
1256.11	26.1255
1257.2	25.3617
1258.29	27.3488
1259.38	24.8271
1260.47	26.7282
1261.56	25.3578
1262.65	27.441
1263.74	24.4583
1264.83	27.4682
1265.92	27.4779
1267.01	27.5049
1268.1	23.5676
1269.19	25.3045
1270.27	24.0065
1271.36	24.4644
1272.45	23.1602
1273.54	25.9984
1274.63	25.7027
1275.72	23.6367
1276.8	25.3378
1277.89	23.7321
1278.98	23.2985
1280.07	24.4686
1281.15	24.216
1282.24	24.7184
1283.33	26.4721
1284.41	25.5007
1285.5	25.2682
1286.59	25.7784
1287.67	27.0001
1288.76	28.8539
1289.84	22.2113
1290.93	22.8416
1292.01	22.5693
1293.1	21.4541
1294.19	25.6373
1295.27	24.6306
1296.35	27.3002
1297.44	25.1437
1298.52	24.4636
1299.61	25.8377
1300.69	27.6446
1301.78	28.7516
1302.86	27.3488
1303.94	26.213
1305.03	24.9362
1306.11	23.4053
1306.4	23
1307.49	20.5
1308.57	25.5
1309.66	25.5
1310.75	24
1311.84	21
1312.92	22.5
1314.01	28
1315.1	27.5
1316.19	24.5
1317.27	29
1318.36	22
1319.45	27
1320.53	27
1321.62	23.5
1322.7	24
1323.79	26
1324.88	22.5
1325.96	28
1327.05	26.5
1328.13	26.5
1329.21	24
1330.3	27.5
1331.38	18
1332.47	25.5
1333.55	29.5
1334.64	25.5
1335.72	26
1336.8	28
1337.89	25.5
1338.97	27.5
1340.05	24.5
1341.14	24
1342.22	23.5
1343.3	25
1344.39	25.5
1345.47	24.5
1346.55	26
1347.63	22.5
1348.71	27
1349.79	25.5
1350.88	24.5
1351.96	25
1353.04	25
1354.12	22.5
1355.2	25.5
1356.28	24.5
1357.36	28.5
1358.44	25.5
1359.52	25
1360.6	25.5
1361.68	26
1362.76	25.5
1363.84	22.5
1364.92	24
1366	24.5
1367.08	23.5
1368.16	21.5
1369.23	28.5
1370.31	27
1371.39	29
1372.47	24
1373.55	26.5
1374.62	23.5
1375.7	24.5
1376.78	22
1377.85	25
1378.93	24.5
1380.01	27.5
1381.09	26.5
1382.16	25
1383.24	25.5
1384.31	26
1385.39	28.5
1386.47	28.5
1387.54	25
1388.62	21.5
1389.69	28
1390.77	23
1391.84	26.5
1392.92	25
1393.99	27.5
1395.06	23
1396.14	28
1397.21	28
1398.29	27.5
1399.36	35.5
1400.43	29.5
1401.51	36
1402.58	30.5
1403.65	29.5
1404.73	29.5
1405.8	33
1406.87	30.5
1407.94	30
1409.02	32
1410.09	30.5
1411.16	30
1412.23	32.5
1413.3	33.5
1414.37	36
1415.45	30.5
1416.52	32
1417.59	31.5
1418.66	29.5
1419.73	29
1420.8	30
1421.87	28
1422.94	26.5
1424.01	28
1425.08	33
1426.15	32.5
1427.22	26
1428.29	26
1429.35	29
1430.42	25.5
1431.49	28
1432.56	26.5
1433.63	23
1434.7	27.5
1435.77	26.5
1436.83	23
1437.9	27
1438.97	26
1440.04	27.5
1441.1	22
1442.17	26
1443.24	27.5
1444.3	30
1445.37	28
1446.44	21
1447.5	30.5
1448.57	29
1449.63	30.5
1450.7	27
1451.76	27
1452.83	27.5
1453.89	28.5
1454.96	24
1456.02	26
1457.09	26
1458.15	25
1459.22	29.5
1460.28	26
1461.34	23
1462.41	27.5
1463.47	23
1464.54	29
1465.6	24.5
1466.66	26
1467.72	24
1468.79	22
1469.85	25
1470.91	23
1471.97	27
1473.04	28.5
1474.1	25.5
1475.16	28
1476.22	22.5
1477.28	22.5
1478.34	23
1479.4	26.5
1480.47	26.5
1481.53	25
1482.59	23
1483.65	24.5
1484.71	26.5
1485.77	27
1486.83	25
1487.89	27
1488.95	25
1490.01	26.5
1491.07	26.5
1492.12	23.5
1493.18	26.5
1494.24	23
1495.3	26.5
1496.36	27.5
1497.42	29
1498.47	25.5
1499.53	24.5
1500.59	25
1501.65	26.5
1502.7	25
1503.76	23
1504.82	25.5
1505.88	21
1506.93	30
1507.99	24.5
1509.05	26.5
1510.1	23
1511.16	21
1512.21	24
1513.27	25
1514.32	26
1515.38	26
1516.43	26
1517.49	23.5
1518.54	25
1519.6	23.5
1520.65	23.5
1521.71	28.5
1522.76	23.5
1523.82	26
1524.87	24.5
1525.92	24.5
1526.98	28.5
1528.03	25
1529.08	26.5
1530.14	22
1531.19	25.5
1532.24	30.5
1533.3	24
1534.35	27
1535.4	23.5
1536.45	26
1537.5	25
1538.56	27
1539.61	26.5
1540.66	25
1541.71	24
1542.76	24
1543.81	25.5
1544.86	20
1545.91	26.5
1546.96	28.5
1548.01	27
1549.06	26
1550.11	23
1551.16	26
1552.21	28.5
1553.26	19
1554.31	26
1555.36	26
1556.41	26
1557.46	22.5
1558.51	26.5
1559.55	23
1560.6	24.5
1561.65	33
1562.7	25.5
1563.75	27
1564.79	28.5
1565.84	24.5
1566.89	27.5
1567.94	25.5
1568.98	28
1570.03	26.5
1571.07	23
1572.12	27.5
1573.17	23.5
1574.21	24.5
1575.26	23
1576.31	26
1577.35	27.5
1578.4	27
1579.44	20.5
1580.49	27.5
1581.53	28
1582.58	26.5
1583.62	26
1584.67	29
1585.71	25
1586.75	24
1587.8	24
1588.84	25.5
1589.89	22
1590.93	27.5
1591.97	24
1593.02	21
1594.06	24.5
1595.1	30.5
1596.14	23.5
1597.19	24
1598.23	26.5
1599.27	26.5
1600.31	24
1601.35	23
1602.4	27
1603.44	24
1604.48	23.5
1605.52	32
1606.56	24
1607.6	23.5
1608.64	26
1609.68	28
1610.72	25.5
1611.76	25
1612.8	22.5
1613.84	23.5
1614.88	29.5
1615.92	24
1616.96	25
1618	28
1619.04	27
1620.08	25.5
1621.12	26
1622.16	22.5
1623.19	25
1624.23	27
1625.27	29
1626.31	27
1627.35	25
1628.38	28
1629.42	24.5
1630.46	27
1631.5	27.5
1632.53	27
1633.57	27.5
1634.61	22.5
1635.64	27.5
1636.68	27.5
1637.71	26
1638.75	26
1639.79	27
1640.82	26.5
1641.86	29
1642.89	24
1643.93	26.5
1644.96	22.5
1646	24
1647.03	25
1648.07	25
1649.1	24.5
1650.14	26
1651.17	26.5
1652.2	21
1653.24	20
1654.27	25.5
1655.3	23.5
1656.34	24.5
1657.37	24
1658.4	23
1659.44	23
1660.47	26.5
1661.5	29.5
1662.53	26
1663.57	25
1664.6	26.5
1665.63	26.5
1666.66	25
1667.69	25.5
1668.72	27.5
1669.75	23.5
1670.79	24.5
1671.82	27
1672.85	24
1673.88	24
1674.91	26
1675.94	28
1676.97	23.5
1678	25
1679.03	24
1680.06	26.5
1681.09	20
1682.11	24
1683.14	26
1684.17	24.5
1685.2	26
1686.23	31
1687.26	24
1688.29	23
1689.32	26.5
1690.34	25
1691.37	26
1692.4	26
1693.43	23
1694.45	24.5
1695.48	30.5
1696.51	24.5
1697.53	26.5
1698.56	28
1699.59	28.5
1700.61	26
1701.64	26.5
1702.66	26
1703.69	28
1704.72	25
1705.74	26.5
1706.77	26
1707.79	23.5
1708.82	25.5
1709.84	26.5
1710.87	28
1711.89	24.5
1712.92	28
1713.94	25.5
1714.96	23.5
1715.99	22.5
1717.01	24.5
1718.04	26.5
1719.06	24.5
1720.08	25.5
1721.11	25.5
1722.13	27
1723.15	27
1724.17	27.5
1725.2	29
1726.22	25.5
1727.24	24
1728.26	27.5
1729.28	28
1730.31	28
1731.33	20.5
1732.35	26.5
1733.37	26.5
1734.39	27.5
1735.41	28.5
1736.43	25
1737.45	24
1738.47	26.5
1739.49	24
1740.51	23.5
1741.53	28
1742.55	22
1743.57	26
1744.59	23.5
1745.61	26.5
1746.63	29.5
1747.65	26.5
1748.67	24
1749.69	23.5
1750.71	27.5
1751.72	26
1752.74	24
1753.76	22
1754.78	24.5
1755.8	25
1756.81	28.5
1757.83	23
1758.85	25.5
1759.86	24.5
1760.88	24
1761.9	25
1762.91	25
1763.93	23
1764.95	25
1765.96	26.5
1766.98	28
1768	23.5
1769.01	24.5
1770.03	26
1771.04	29
1772.06	23.5
1773.07	23
1774.09	20
1775.1	28
1776.12	25.5
1777.13	25
1778.14	30
1779.16	26
1780.17	25.5
1781.19	24
1782.2	25
1783.21	26
1784.23	27.5
1785.24	25
1786.25	22
1787.27	26
1788.28	26.5
1789.29	27
1790.3	22
1791.32	26.5
1792.33	23
1793.34	26.5
1794.35	23.5
1795.36	27
1796.37	21.5
1797.38	25.5
1798.4	25
1799.41	26.5
1800.42	23.5
1801.43	22.5
1802.44	25.5
1803.45	23
1804.46	23
1805.47	22
1806.48	24
1807.49	25
1808.5	26.5
1809.51	24.5
1810.52	25.5
1811.53	24.5
1812.53	26
1813.54	23
1814.55	23
1815.56	27
1816.57	27.5
1817.58	27.5
1818.58	23.5
1819.59	30
1820.6	21
1821.61	25.5
1822.61	23.5
1823.62	26
1824.63	24.5
1825.64	25
1826.64	27
1827.65	26
1828.66	30
1829.66	25.5
1830.67	22.5
1831.67	24
1832.68	24.5
1833.68	26
1834.69	26
1835.7	28.5
1836.7	26
1837.71	22
1838.71	28
1839.71	23
1840.72	24.5
1841.72	21
1842.73	27
1843.73	25
1844.74	21
1845.74	28.5
1846.74	26.5
1847.75	24.5
1848.75	26
1849.75	23
1850.76	26
1851.76	24
1852.76	22
1853.76	25.5
1854.77	25
1855.77	23
1856.77	24
1857.77	27
1858.77	28.5
1859.78	23
1860.78	22
1861.78	21
1862.78	21.5
1863.78	24.5
1864.78	28
1865.78	24.5
1866.78	25.5
1867.78	23
1868.78	24
1869.78	25
1870.78	28
1871.78	23
1872.78	23
1873.78	24.5
1874.78	23
1875.78	27
1876.78	27.5
1877.78	26
1878.78	26.5
1879.77	23.5
1880.77	25
1881.77	27
1882.77	28.5
1883.77	24
1884.76	20
1885.76	27.5
1886.76	24
1887.76	23.5
1888.75	23
1889.75	24.5
1890.75	26.5
1891.74	29
1892.74	23
1893.74	28
1894.73	22
1895.73	23.5
1896.72	22
1897.72	23
1898.72	24.5
1899.71	23.5
1900.71	24
1901.7	25
1902.7	27
1903.69	21.5
1904.69	27.5
1905.68	25
1906.67	25.5
1907.67	26
1908.66	25.5
1909.66	22.5
1910.65	26
1911.64	27.5
1912.64	23
1913.63	29.5
1914.62	23
1915.62	26
1916.61	28
1917.6	26.5
1918.59	25.5
1919.59	25.5
1920.58	27.5
1921.57	26.5
1922.56	23.5
1923.55	24
1924.55	25.5
1925.54	24
1926.53	24.5
1927.52	25.5
1928.51	24.5
1929.5	26.5
1930.49	19
1931.48	23.5
1932.47	25
1933.46	24.5
1934.45	25
1935.44	25.5
1936.43	21.5
1937.42	24.5
1938.41	27
1939.4	23
1940.39	22
1941.38	26.5
1942.37	24
1943.36	26
1944.34	22.5
1945.33	27.5
1946.32	27
1947.31	24.5
1948.3	24.75
1949.28	25
1950.27	21.5
1951.26	25.5
1952.25	23.5
1953.23	25
1954.22	26.5
1955.21	21.5
1956.2	28.5
1957.18	25.5
1958.17	27
1959.15	21
1960.14	23.5
1961.13	20
1962.11	24.5
1963.1	23.5
1964.08	23
1965.07	24.5
1966.05	22
1967.04	23
1968.02	28
1969.01	26.5
1969.99	22
1970.98	21
1971.96	27.5
1972.94	25.5
1973.93	23.5
1974.91	24
1975.9	22
1976.88	25
1977.86	24.5
1978.85	24
1979.83	24.5
1980.81	29.5
1981.8	22
1982.78	26
1983.76	24
1984.74	24
1985.72	27
1986.71	24
1987.69	26
1988.67	23.5
1989.65	24.5
1990.63	28
1991.61	24.5
1992.6	23.5
1993.58	24
1994.56	25
1995.54	23.5
1996.52	24.5
1997.5	25
1998.48	24
1999.46	20
2000.44	21
2001.42	22
2002.4	23
2003.38	21
2004.36	23.5
2005.34	24.5
2006.32	21
2007.29	26
2008.27	24.5
2009.25	26.5
2010.23	26
2011.21	20.5
2012.19	24.5
2013.16	23.5
2014.14	24.5
2015.12	27
2016.1	22
2017.07	24.5
2018.05	27
2019.03	23.5
2020	27
2020.98	26.5
2021.96	26
2022.93	26.5
2023.91	20
2024.89	22.5
2025.86	23
2026.84	21.5
2027.81	24
2028.79	25
2029.77	24
2030.74	24.5
2031.72	24.5
2032.69	24
2033.67	21.5
2034.64	24.5
2035.61	24
2036.59	26.5
2037.56	24
2038.54	23.5
2039.51	25
2040.48	25
2041.46	25.5
2042.43	22
2043.41	27
2044.38	24.5
2045.35	22.5
2046.32	28
2047.3	23.5
2048.27	21.5
2049.24	26
2050.21	23.5
2051.19	22.5
2052.16	22.5
2053.13	22
2054.1	24
2055.07	23
2056.04	24.5
2057.02	24
2057.99	23
2058.96	25.5
2059.93	23.5
2060.9	23.5
2061.87	26.5
2062.84	25.5
2063.81	22
2064.78	25
2065.75	26
2066.72	26
2067.69	25.5
2068.66	22
2069.63	23
2070.6	25
2071.57	23.5
2072.53	25
2073.5	25
2074.47	25
2075.44	25.5
2076.41	22
2077.38	22
2078.34	24.5
2079.31	23.5
2080.28	22
2081.25	23
2082.21	23
2083.18	22.5
2084.15	24
2085.12	22
2086.08	26
2087.05	24
2088.02	26.5
2088.98	22
2089.95	25.5
2090.91	21.5
2091.88	24.5
2092.85	24.5
2093.81	24
2094.78	23.5
2095.74	23
2096.71	22
2097.67	23.5
2098.64	20.5
2099.6	25
2100.57	23
2101.53	25.5
2102.5	22
2103.46	21
2104.42	24
2105.39	22.5
2106.35	23.5
2107.31	27
2108.28	26.5
2109.24	28
2110.2	20
2111.17	21
2112.13	25.5
2113.09	24
2114.06	22
2115.02	25
2115.98	22.5
2116.94	29.5
2117.9	27.5
2118.86	21
2119.83	21.5
2120.79	21
2121.75	23
2122.71	25.5
2123.67	24
2124.63	23
2125.59	25
2126.55	24.5
2127.51	24.5
2128.48	23.5
2129.43	27
2130.4	23.5
2131.35	25.5
2132.31	21
2133.27	22
2134.23	24
2135.19	27
2136.15	23
2137.11	27
2138.07	25
2139.03	25
2139.99	20.5
2140.95	24
2141.9	22
2142.86	23.9874
2143.82	22.4875
2144.78	23.5414
2145.74	21.1238
2146.69	22.5845
2147.65	23.0074
2148.61	28.1931
2149.56	21.6723
2150.52	24.3958
2151.48	20.6253
2152.44	23.5148
2153.39	18.943
2154.35	19.8806
2155.3	24.5569
2156.26	24.1972
2157.22	20.9173
2158.17	22.4465
2159.13	24.3573
2160.08	24.089
2161.04	26.4716
2161.99	22.2055
2162.95	21.8738
2163.9	26.6013
2164.86	22.8989
2165.81	22.5243
2166.77	22.5708
2167.72	18.415
2168.68	20.7347
2169.63	25.0401
2170.58	25.7649
2171.54	24.145
2172.49	20.8471
2173.44	21.8689
2174.4	21.1084
2175.35	22.5232
2176.3	23.1069
2177.26	21.4624
2178.21	22.2743
2179.16	23.8738
2180.11	25.4853
2181.07	22.8078
2182.02	21.9807
2182.97	23.1564
2183.92	24.8369
2184.88	22.4349
2185.83	19.3795
2186.78	23.7739
2187.73	22.6907
2188.68	23.6935
2189.63	23.6494
2190.58	23.5341
2191.53	23.9438
2192.48	22.3072
2193.43	23.2823
2194.38	21.7837
2195.33	21.008
2196.28	22.8506
2197.23	23.1282
2198.18	24.7652
2199.13	22.9864
2200.08	23.6404
2201.03	20.6346
2201.98	23.4481
2202.93	25.0446
2203.88	25.1129
2204.83	23.7714
2205.78	24.3853
2206.72	21.3949
2207.67	26.3922
2208.62	21.969
2209.57	25.9974
2210.52	23.6429
2211.46	23.6585
2212.41	22.7595
2213.36	20.899
2214.31	20.2645
2215.25	21.7465
2216.2	24.7329
2217.15	22.3327
2218.09	19.9146
2219.04	24.0299
2219.99	24.7444
2220.93	22.0066
2221.88	24.0662
2222.83	20.5534
2223.77	21.7299
2224.72	23.0896
2225.66	22.6196
2226.61	20.539
2227.55	20.6966
2228.5	22.2793
2229.44	22.596
2230.39	22.0749
2231.33	24.2946
2232.28	23.0299
2233.22	23.6737
2234.17	24.6028
2235.11	21.7268
2236.05	24.2003
2237	23.4782
2237.94	20.3699
2238.88	22.6557
2239.83	26.2164
2240.04	27
2240.98	23
2241.93	24.5
2242.88	25
2243.83	24
2244.78	19.5
2245.72	23.5
2246.67	22.5
2247.62	20
2248.56	25
2249.51	22.5
2250.46	21
2251.4	23
2252.35	24
2253.3	23.5
2254.24	25
2255.19	19.5
2256.14	23
2257.08	22
2258.03	23.5
2258.97	21.5
2259.92	21
2260.86	23
2261.81	25
2262.75	24.5
2263.7	23
2264.64	23.5
2265.59	25
2266.53	24.5
2267.48	27.5
2268.42	25.5
2269.36	24.5
2270.31	22
2271.25	25.5
2272.19	24.5
2273.14	21
2274.08	24.5
2275.02	23
2275.97	24.5
2276.91	23.5
2277.85	26
2278.8	25.5
2279.74	23
2280.68	26.5
2281.62	25
2282.56	24
2283.51	20
2284.45	24
2285.39	26
2286.33	23
2287.27	24
2288.21	23
2289.15	22.5
2290.09	23.5
2291.04	21.5
2291.98	22
2292.92	27
2293.86	23
2294.8	24
2295.74	24
2296.68	24
2297.62	18
2298.56	22.5
2299.5	22.5
2300.44	24.5
2301.37	28
2302.31	24.5
2303.25	24
2304.19	22
2305.13	23.5
2306.07	20.5
2307.01	19
2307.94	23
2308.88	23
2309.82	21.5
2310.76	22
2311.7	22
2312.63	23
2313.57	24
2314.51	25
2315.44	24
2316.38	27
2317.32	23
2318.26	20.5
2319.19	20.5
2320.13	22
2321.06	23
2322	26.5
2322.94	22.5
2323.87	22
2324.81	23
2325.74	26
2326.68	19.5
2327.61	22.5
2328.55	24.5
2329.48	24.5
2330.42	25
2331.35	21.5
2332.29	22.5
2333.22	23.5
2334.16	20
2335.09	23.5
2336.02	26
2336.96	24
2337.89	26.5
2338.83	26
2339.76	19
2340.69	25
2341.63	24
2342.56	23.5
2343.49	21
2344.42	22
2345.36	22
2346.29	25
2347.22	26
2348.15	25
2349.09	21.5
2350.02	20.5
2350.95	26.5
2351.88	25
2352.81	25
2353.74	24
2354.68	27.5
2355.61	22
2356.54	23
2357.47	20
2358.4	23
2359.33	24.5
2360.26	21
2361.19	26
2362.12	24.5
2363.05	22.5
2363.98	28.5
2364.91	23
2365.84	26
2366.77	25
2367.7	23.5
2368.63	25.5
2369.56	22.5
2370.49	25
2371.41	24
2372.34	20
2373.27	23
2374.2	25.5
2375.13	24.5
2376.06	23
2376.98	23
2377.91	21.5
2378.84	18.5
2379.77	19
2380.69	22.5
2381.62	22.5
2382.55	23
2383.47	23.5
2384.4	21.5
2385.33	21.5
2386.25	23.5
2387.18	24
2388.11	21
2389.03	24
2389.96	22
2390.89	26.5
2391.81	23.5
2392.74	22
2393.66	25
2394.59	27
2395.51	23
2396.44	24.5
2397.36	26
2398.29	23
2399.21	21
2400.14	21.5
2401.06	22
2401.99	22
2402.91	23
2403.83	26
2404.76	18.5
2405.68	25
2406.6	24
2407.53	22.5
2408.45	29.5
2409.37	26.5
2410.3	26
2411.22	22
2412.14	23
2413.06	26.5
2413.99	21.5
2414.91	20.5
2415.83	25
2416.75	22.5
2417.68	28.5
2418.6	25
2419.52	25.5
2420.44	25
2421.36	21
2422.28	27
2423.2	20.5
2424.12	27
2425.05	25.5
2425.97	22.5
2426.89	24
2427.81	21.5
2428.73	23
2429.65	24
2430.57	23.5
2431.49	22.5
2432.41	25.5
2433.33	23
2434.25	23.5
2435.17	24
2436.08	28.5
2437	29.5
2437.92	26.5
2438.84	27.5
2439.76	24.5
2440.68	25
2441.6	23.5
2442.51	28
2443.43	22.5
2444.35	22.5
2445.27	26.5
2446.19	24.5
2447.1	28
2448.02	23.5
2448.94	21.5
2449.85	20
2450.77	21.5
2451.69	24.5
2452.61	23.5
2453.52	26.5
2454.44	26.5
2455.35	23
2456.27	22.5
2457.19	24
2458.1	22
2459.02	23
2459.94	24
2460.85	23
2461.77	25.5
2462.68	26
2463.6	26.5
2464.51	25.5
2465.43	26.5
2466.34	27.5
2467.25	25.5
2468.17	24.5
2469.08	27
2470	26
2470.91	24.5
2471.83	27.5
2472.74	24
2473.65	26
2474.57	24
2475.48	23
2476.39	30
2477.31	24.5
2478.22	23.5
2479.13	25
2480.04	25.5
2480.96	23
2481.87	23.5
2482.78	23.5
2483.69	25.5
2484.6	21
2485.52	23
2486.43	26
2487.34	24.5
2488.25	24
2489.16	25
2490.07	24
2490.99	27.5
2491.9	26
2492.81	24
2493.72	20.5
2494.63	27
2495.54	24.5
2496.45	26.5
2497.36	26.5
2498.27	25
2499.18	24
2500.09	26
2501	25
2501.91	26.5
2502.82	23.5
2503.73	23
2504.63	26.5
2505.54	24
2506.45	24
2507.36	26
2508.27	25
2509.18	25
2510.09	26.5
2510.99	24
2511.9	26.5
2512.81	28.5
2513.72	26
2514.62	25
2515.53	21
2516.44	25.5
2517.35	24.5
2518.25	27.5
2519.16	28.5
2520.07	23
2520.97	25
2521.88	28
2522.79	26
2523.69	25
2524.6	28.5
2525.51	22.5
2526.41	26
2527.32	26
2528.22	25
2529.13	24
2530.03	25.5
2530.94	25
2531.84	26
2532.75	25
2533.65	23
2534.56	28
2535.46	23
2536.37	28
2537.27	22.5
2538.17	23.5
2539.08	24.5
2539.98	20.5
2540.89	23
2541.79	25.5
2542.69	18
2543.6	23.5
2544.5	24.5
2545.4	25
2546.31	29
2547.21	23
2548.11	25.5
2549.01	26
2549.92	28
2550.82	25
2551.72	21.5
2552.62	27
2553.52	22
2554.42	27.5
2555.33	24
2556.23	23
2557.13	25.5
2558.03	22.5
2558.93	28
2559.83	24
2560.73	26.5
2561.63	25
2562.53	23
2563.43	21.5
2564.33	23
2565.24	25
2566.13	28
2567.04	26.5
2567.93	29
2568.83	26
2569.73	21
2570.63	25.5
2571.53	29
2572.43	23.5
2573.33	24.5
2574.23	23
2575.13	23.5
2576.03	25
2576.92	25
2577.82	22.5
2578.72	23.5
2579.62	25.5
2580.52	24.5
2581.41	22.5
2582.31	25.5
2583.21	25
2584.11	26.5
2585	22
2585.9	24
2586.8	25
2587.69	24
2588.59	24
2589.49	21.5
2590.38	26.5
2591.28	21
2592.18	23
2593.07	24
2593.97	20.5
2594.86	20
2595.76	25.5
2596.66	24.5
2597.55	18
2598.45	26
2599.34	22
2600.24	25.5
2601.13	27
2602.03	25
2602.92	26.5
2603.81	22.5
2604.71	29.5
2605.6	26
2606.5	21
2607.39	25.5
2608.28	26.5
2609.18	27.5
2610.07	27
2610.97	26.5
2611.86	28.5
2612.75	25
2613.64	23.5
2614.54	22.5
2615.43	26
2616.32	23
2617.22	28.5
2618.11	23.5
2619	22.5
2619.89	22
2620.78	25.5
2621.68	25
2622.57	24
2623.46	20
2624.35	26.5
2625.24	23.5
2626.13	24
2627.02	24
2627.91	26.5
2628.81	24
2629.7	23.5
2630.59	21.5
2631.48	24.5
2632.37	21.5
2633.26	25.5
2634.15	22.5
2635.04	23.5
2635.93	25
2636.82	25.5
2637.71	29
2638.59	27
2639.48	26
2640.37	23
2641.26	22.5
2642.15	21
2643.04	24.5
2643.93	25
2644.82	26.5
2645.71	25
2646.59	28
2647.48	26
2648.37	26
2649.26	21
2650.15	25
2651.03	26
2651.92	27.5
2652.81	24
2653.69	22.5
2654.58	23.5
2655.47	26
2656.35	25
2657.24	26.5
2658.13	27
2659.01	22.5
2659.9	27.5
2660.79	25.5
2661.67	24
2662.56	25.5
2663.44	26.5
2664.33	24
2665.22	24.5
2666.1	24.5
2666.99	23
2667.87	22
2668.76	20
2669.64	25.5
2670.52	27.5
2671.41	27
2672.29	27
2673.18	24
2674.06	23.5
2674.95	27
2675.83	23
2676.71	25.5
2677.6	21.5
2678.48	27
2679.36	30
2680.25	25.5
2681.13	28.5
2682.01	28.5
2682.9	26
2683.78	24.5
2684.66	28
2685.55	25
2686.43	23
2687.31	23.5
2688.19	21.5
2689.07	27.5
2689.96	26.5
2690.84	22.5
2691.72	24
2692.6	25
2693.48	28
2694.36	28.5
2695.24	21.5
2696.12	24
2697	24
2697.89	27
2698.77	27.5
2699.65	26
2700.53	25.5
2701.41	24
2702.29	22.5
2703.17	23
2704.05	20
2704.93	26
2705.81	24
2706.69	21.5
2707.57	21.5
2708.44	24.5
2709.32	23.5
2710.2	26
2711.08	23
2711.96	25
2712.84	25
2713.72	26
2714.59	23
2715.47	28.5
2716.35	23
2717.23	22.5
2718.11	24
2718.98	29
2719.86	23.5
2720.74	24
2721.62	24
2722.49	23
2723.37	26
2724.25	24
2725.12	26
2726	25.5
2726.88	24
2727.75	27
2728.63	23.5
2729.51	23.5
2730.38	23.5
2731.26	25
2732.13	27
2733.01	28
2733.88	25
2734.76	24
2735.63	25.5
2736.51	23.5
2737.38	24
2738.26	26.5
2739.13	23.5
2740.01	24.5
2740.88	26
2741.76	26.5
2742.63	23
2743.5	20.5
2744.38	21.5
2745.25	23.5
2746.13	23
2747	23
2747.87	24
2748.75	24.5
2749.62	25
2750.49	24
2751.36	25
2752.24	28
2753.11	22.5
2753.98	27.5
2754.86	25.5
2755.73	26.5
2756.6	22
2757.47	26.5
2758.34	23
2759.22	25
2760.09	24.5
2760.96	20
2761.83	25.5
2762.7	26
2763.57	25.5
2764.44	25.5
2765.31	26
2766.18	26.5
2767.06	26.5
2767.93	25
2768.8	29
2769.67	22
2770.54	26
2771.41	26
2772.28	24
2773.15	26
2774.02	24.5
2774.89	28
2775.75	24.5
2776.62	26.5
2777.49	25.5
2778.36	27
2779.23	26.5
2780.1	23.5
2780.97	26
2781.84	26.5
2782.71	24
2783.57	26.5
2784.44	25.5
2785.31	23
2786.18	28.5
2787.04	27.5
2787.91	23
2788.78	23
2789.65	26
2790.51	31
2791.38	28
2792.25	28
2793.12	26.5
2793.98	28
2794.85	26.5
2795.72	26
2796.58	29
2797.45	27.5
2798.31	24.5
2799.18	28
2800.05	22
2800.91	24.75
2801.78	25
2802.64	25
2803.51	24
2804.37	28.5
2805.24	26
2806.1	28.5
2806.97	24
2807.83	29
2808.7	27
2809.56	28
2810.43	24.5
2811.29	27
2812.15	25
2813.02	25.5
2813.88	26.5
2814.75	28.5
2815.61	29.5
2816.47	26
2817.34	24
2818.2	25
2819.06	29.5
2819.92	25.5
2820.79	26
2821.65	25
2822.51	26.5
2823.37	23.5
2824.24	27
2825.1	25
2825.96	24.5
2826.82	27
2827.69	26
2828.55	26
2829.41	30
2830.27	26.5
2831.13	23.5
2831.99	25.5
2832.85	25.5
2833.71	24.5
2834.58	29.5
2835.44	23
2836.3	24.5
2837.16	25
2838.02	25
2838.88	26.5
2839.74	25.5
2840.6	21.5
2841.46	30.5
2842.32	27
2843.18	25.5
2844.04	25
2844.9	30.5
2845.75	29
2846.61	23.5
2847.47	24.5
2848.33	29.5
2849.19	24
2850.05	25
2850.91	25.5
2851.77	24
2852.62	25.5
2853.48	30.5
2854.34	27.5
2855.2	26
2856.06	28
2856.91	23.5
2857.77	26.5
2858.63	30
2859.48	28
2860.34	25
2861.2	24.5
2862.06	24.5
2862.91	29
2863.77	26
2864.63	27
2865.48	27.5
2866.34	29
2867.19	28
2868.05	28
2868.91	25
2869.76	27
2870.62	32
2871.47	29
2872.33	27
2873.18	28.5
2874.04	33
2874.89	27.5
2875.75	26.5
2876.6	30.5
2877.46	30.5
2878.31	30
2879.17	33.5
2880.02	31
2880.88	25.5
2881.73	34.5
2882.58	30.5
2883.44	35
2884.29	36
2885.14	29
2886	33.5
2886.85	30
2887.7	35.5
2888.56	39
2889.41	36.5
2890.26	40
2891.12	39
2891.97	42.5
2892.82	43.5
2893.67	43
2894.52	47.5
2895.38	47
2896.23	48
2897.08	56.5
2897.93	54.5
2898.78	54.5
2899.64	60
2900.49	63
2901.34	60
2902.19	56.5
2903.04	69.5
2903.89	73
2904.74	76
2905.59	70
2906.44	67
2907.29	72.5
2908.14	66
2908.99	64
2909.84	63
2910.69	62.5
2911.54	65.5
2912.39	55.5
2913.24	53
2914.09	50.5
2914.94	45
2915.79	46.5
2916.64	43
2917.49	43.5
2918.34	40
2919.18	37.5
2920.03	41
2920.88	39
2921.73	37
2922.58	35.5
2923.42	33
2924.27	35
2925.12	30.5
2925.97	28
2926.82	32
2927.66	33.5
2928.51	25
2929.36	29
2930.2	31
2931.05	33
2931.9	29
2932.74	32
2933.59	25.5
2934.44	30
2935.28	27
2936.13	26
2936.98	26.5
2937.82	27.5
2938.67	27
2939.51	28
2940.36	24
2941.2	32
2942.05	28.5
2942.9	26
2943.74	29
2944.58	29
2945.43	29.5
2946.27	32
2947.12	30.5
2947.96	35
2948.81	31
2949.65	29.5
2950.5	27
2951.34	29.5
2952.18	38
2953.03	29.5
2953.87	33.5
2954.71	35
2955.56	37
2956.4	36
2957.24	37.5
2958.09	36
2958.93	38.5
2959.77	39
2960.62	36.5
2961.46	42
2962.3	42.5
2963.14	41
2963.98	44.5
2964.83	45
2965.67	45.5
2966.51	41.5
2967.35	49
2968.19	44
2969.04	43
2969.88	47
2970.72	36.5
2971.56	36.9976
2972.4	43.8428
2973.24	35.9449
2974.08	31.1987
2974.92	36.9335
2975.76	34.8498
2976.6	38.6275
2977.44	32.8328
2978.28	31.9755
2979.12	30.1804
2979.96	28.2608
2980.8	29.8277
2981.64	32.4397
2982.48	32.3602
2983.32	27.3003
2984.16	31.6802
2985	27.8427
2985.84	28.264
2986.68	28.3204
2987.52	27.3017
2988.35	23.9461
2989.19	24.8206
2990.03	27.8292
2990.87	25.4169
2991.71	28.1596
2992.55	29.2621
2993.38	26.1537
2994.22	21.9762
2995.06	25.1449
2995.9	25.128
2996.73	25.0577
2997.57	26.1021
2998.41	26.5505
2999.25	27.9411
3000.08	24.0563
3000.92	22.3557
3001.76	25.9655
3002.59	24.9641
3003.43	26.2351
3004.27	25.031
3005.1	24.0105
3005.94	23.7978
3006.78	25.9941
3007.61	23.6901
3008.45	23.7964
3009.28	26.3333
3010.12	23.5678
3010.95	24.6289
3011.79	24.3127
3012.62	23.21
3013.46	23.0512
3014.29	23.8089
3015.13	23.0967
3015.96	21.2382
3016.8	21.0197
3017.63	25.3567
3018.47	24.4783
3019.3	21.9275
3020.14	20.7283
3020.97	21.652
3021.8	23.1249
3022.64	23.4544
3023.47	21.7572
3024.3	25.6468
3025.14	25.6277
3025.97	23.3151
3026.8	21.103
3027.64	22.8277
3028.47	24.1247
3029.3	21.3188
3030.14	22.3827
3030.97	24.7821
3031.8	25.5857
3032.63	22.6816
3033.46	21.0562
3034.3	21.494
3035.13	21.7979
3035.96	21.5109
3036.79	25.6917
3037.62	25.4168
3038.46	23.1809
3039.29	23.2502
3040.12	24.4781
3040.95	22.823
3041.78	23.5427
3042.61	23.0575
3043.44	21.8256
3044.27	21.3803
3045.1	22.4546
3045.93	23.8327
3046.76	23.8238
3047.59	23.5555
3048.42	26.8852
3049.25	24.7392
3050.08	24.8557
3050.91	23.2577
3051.74	23.2994
3052.57	21.7684
3053.4	21.1253
3054.23	22.7452
3055.06	22.2401
3055.89	24.2503
3056.72	22.3845
3057.32	22
3058.15	23.5
3058.98	27
3059.82	21.5
3060.65	19
3061.48	25.5
3062.31	23.5
3063.15	26.5
3063.98	25
3064.81	19
3065.64	23
3066.48	25
3067.31	20.5
3068.14	23.5
3068.97	24
3069.8	24
3070.63	22
3071.47	20
3072.3	25
3073.13	27
3073.96	22.5
3074.79	22.5
3075.62	20.5
3076.45	24
3077.28	23.5
3078.11	23
3078.94	22.5
3079.77	22
3080.6	22.5
3081.43	20.5
3082.26	22
3083.09	20
3083.92	22
3084.75	24.5
3085.58	23.5
3086.41	21.5
3087.24	23.5
3088.07	22
3088.9	24
3089.73	20.5
3090.55	24.5
3091.38	24
3092.21	22.5
3093.04	20
3093.87	19.5
3094.7	22.5
3095.52	25
3096.35	25
3097.18	25
3098.01	24
3098.84	28
3099.66	21
3100.49	21.5
3101.32	27.5
3102.14	22.5
3102.97	22
3103.8	22
3104.62	24.5
3105.45	25.5
3106.28	24
3107.1	20
3107.93	20.5
3108.76	21.5
3109.58	21.5
3110.41	26
3111.23	21
3112.06	24
3112.89	25.5
3113.71	22
3114.54	24
3115.36	21.5
3116.19	27
3117.01	25.5
3117.84	22
3118.66	23.5
3119.49	28.5
3120.31	23
3121.13	24.5
3121.96	23.5
3122.78	20.5
3123.61	25.5
3124.43	23
3125.25	23.5
3126.08	25.5
3126.9	21
3127.73	25
3128.55	25
3129.37	25
3130.19	23.5
3131.02	22
3131.84	27
3132.66	24
3133.49	23
3134.31	24
3135.13	25.5
3135.95	23
3136.78	23.5
3137.6	21.5
3138.42	21
3139.24	22
3140.06	27
3140.88	24.5
3141.71	20.5
3142.53	26.5
3143.35	25.5
3144.17	25
3144.99	24
3145.81	24
3146.63	25.5
3147.45	24
3148.27	25.5
3149.09	25.5
3149.91	27
3150.73	26
3151.56	24
3152.37	23.5
3153.2	23.5
3154.01	28.5
3154.83	24
3155.65	24
3156.47	23.5
3157.29	23
3158.11	25
3158.93	24.5
3159.75	24
3160.57	25.5
3161.39	24
3162.21	22.5
3163.02	21.5
3163.84	23.5
3164.66	23
3165.48	27.5
3166.3	22
3167.11	22
3167.93	23.5
3168.75	27
3169.57	24
3170.39	21.5
3171.2	26
3172.02	23.5
3172.84	22.5
3173.65	21.5
3174.47	21
3175.29	25
3176.1	23.5
3176.92	24.5
3177.74	23.5
3178.55	21.5
3179.37	27.5
3180.19	21
3181	28
3181.82	24
3182.63	26
3183.45	24
3184.27	25
3185.08	25.5
3185.9	19.5
3186.71	23
3187.53	22
3188.34	24.5
3189.16	24
3189.97	23.5
3190.79	24.5
3191.6	25
3192.41	25.5
3193.23	22.5
3194.04	23
3194.86	22
3195.67	21.5
3196.48	26
3197.3	24
3198.11	23
3198.93	23
3199.74	23
3200.55	26
3201.36	24
3202.18	24
3202.99	23.5
3203.8	25
3204.62	23
3205.43	20.5
3206.24	24.5
3207.05	24
3207.87	23
3208.68	24
3209.49	26
3210.3	29
3211.11	24.5
3211.93	24
3212.74	23.5
3213.55	20.5
3214.36	24
3215.17	24.5
3215.98	28
3216.79	21.5
3217.6	27
3218.41	26
3219.22	21.5
3220.03	23
3220.85	26
3221.66	25
3222.47	23
3223.28	25.5
3224.09	20.5
3224.9	24.5
3225.71	25.5
3226.52	23
3227.33	24
3228.13	21.5
3228.94	20.5
3229.75	24
3230.56	26.5
3231.37	24
3232.18	26.5
3232.99	21
3233.8	25.5
3234.61	23.5
3235.41	28
3236.22	26.5
3237.03	18.5
3237.84	25
3238.65	22
3239.45	23
3240.26	22
3241.07	22.5
3241.88	26.5
3242.68	26.5
3243.49	22.5
3244.3	25
3245.1	25.5
3245.91	23.5
3246.72	24
3247.53	22
3248.33	24.5
3249.14	23
3249.95	24
3250.75	26.5
3251.56	21
3252.36	21.5
3253.17	25
3253.97	21
3254.78	25.5
3255.59	24
3256.39	26.5
3257.2	21
3258	24
3258.81	26
3259.61	24
3260.42	20
3261.22	23.5
3262.03	25.5
3262.83	23.5
3263.64	24
3264.44	25
3265.24	23.5
3266.05	23
3266.85	21
3267.66	22
3268.46	27.5
3269.26	23.5
3270.07	21.5
3270.87	21.5
3271.67	22.5
3272.48	22.5
3273.28	21
3274.08	27
3274.89	23
3275.69	28
3276.49	26
3277.29	25.5
3278.1	24.5
3278.9	22
3279.7	25
3280.5	25.5
3281.3	21.5
3282.11	22.5
3282.91	26.5
3283.71	23
3284.51	26.5
3285.31	23
3286.11	25.5
3286.91	28
3287.72	22.5
3288.52	27
3289.32	22
3290.12	22.5
3290.92	21
3291.72	22
3292.52	26
3293.32	25
3294.12	27
3294.92	26
3295.72	23.5
3296.52	27
3297.32	22.5
3298.12	28
3298.92	22
3299.72	21
3300.52	24
3301.32	23
3302.12	22.5
3302.92	23
3303.71	24.5
3304.51	21.5
3305.31	24.5
3306.11	24
3306.91	22.5
3307.71	22
3308.5	22
3309.3	25.5
3310.1	23.5
3310.9	24.5
3311.7	27
3312.49	26
3313.29	25
3314.09	29
3314.89	22
3315.68	25
3316.48	22.5
3317.28	20.5
3318.07	24.5
3318.87	24
3319.67	22.5
3320.46	23.5
3321.26	24
3322.06	25.5
3322.85	26
3323.65	24
3324.44	27
3325.24	23.5
3326.04	24.5
3326.83	23
3327.63	26.5
3328.42	23.5
3329.22	29.5
3330.01	25.5
3330.81	22.5
3331.6	23
3332.4	25
3333.19	26
3333.99	23
3334.78	21.5
3335.58	26
3336.37	22
3337.17	24
3337.96	24.5
3338.75	22.5
3339.55	25.5
3340.34	26
3341.13	27.5
3341.93	24.5
3342.72	23.5
3343.51	23
3344.31	28.5
3345.1	28
3345.89	24.5
3346.69	23
3347.48	26
3348.27	22
3349.06	27.5
3349.86	27
3350.65	23.5
3351.44	24.5
3352.23	21.5
3353.03	26
3353.82	22.5
3354.61	23
3355.4	25.5
3356.19	22
3356.98	26.5
3357.78	25
3358.57	22.5
3359.36	25.5
3360.15	28
3360.94	23
3361.73	24
3362.52	25.5
3363.31	27
3364.1	23.5
3364.89	24
3365.68	28
3366.47	25
3367.26	23
3368.05	21
3368.84	23
3369.63	24
3370.42	24.5
3371.21	24
3372	26
3372.79	28
3373.58	29.5
3374.37	17.5
3375.16	23.5
3375.95	25.5
3376.73	20.5
3377.52	25
3378.31	24.5
3379.1	25
3379.89	23
3380.68	27
3381.46	24
3382.25	22.5
3383.04	25.5
3383.83	23
3384.62	23
3385.4	20
3386.19	27.5
3386.98	26.5
3387.76	25
3388.55	21
3389.34	26.5
3390.13	25
3390.91	24
3391.7	25
3392.49	25.5
3393.27	23.5
3394.06	24.5
3394.84	24.5
3395.63	25
3396.42	23
3397.2	28
3397.99	23.5
3398.77	22
3399.56	26.5
3400.34	25
3401.13	27
3401.92	26.5
3402.7	22
3403.49	24
3404.27	25
3405.06	21
3405.84	24
3406.62	27
3407.41	26
3408.19	24
3408.98	25
3409.76	24.5
3410.55	26.5
3411.33	22.5
3412.11	23
3412.9	22.5
3413.68	24
3414.46	22.5
3415.25	25
3416.03	27.5
3416.81	25
3417.6	24
3418.38	27.5
3419.16	23
3419.95	27
3420.73	29
3421.51	24
3422.29	21.5
3423.08	25.5
3423.86	24.5
3424.64	23
3425.42	21
3426.2	27.5
3426.98	27.5
3427.77	21
3428.55	26
3429.33	24.5
3430.11	26
3430.89	24.5
3431.67	23.5
3432.45	24
3433.24	21.5
3434.02	28.5
3434.8	25
3435.58	24.5
3436.36	21.5
3437.14	24
3437.92	25
3438.7	22
3439.48	22
3440.26	25.5
3441.04	27.5
3441.82	24
3442.6	22.5
3443.38	22.5
3444.16	25.5
3444.94	22
3445.71	24
3446.49	25
3447.27	25.5
3448.05	24.5
3448.83	21.5
3449.61	25
3450.39	23
3451.17	23
3451.94	22.5
3452.72	27
3453.5	23
3454.28	21
3455.06	24.5
3455.83	26.5
3456.61	24
3457.39	26
3458.17	22
3458.94	23.5
3459.72	25
3460.5	23.5
3461.28	23
3462.05	21
3462.83	22.5
3463.61	24.5
3464.38	24
3465.16	22.5
3465.93	23.5
3466.71	25.5
3467.49	27
3468.26	22.5
3469.04	22
3469.82	23.5
3470.59	25.5
3471.37	23
3472.14	24.5
3472.92	28
3473.69	23
3474.47	25.5
3475.24	25
3476.02	25.5
3476.79	23
3477.57	26
3478.34	23.5
3479.12	24
3479.89	24.5
3480.67	25
3481.44	22
3482.21	26
3482.99	25.5
3483.76	25.5
3484.54	27
3485.31	22.5
3486.08	26
3486.86	25.5
3487.63	22.5
3488.4	23
3489.18	22
3489.95	22
3490.72	26
3491.5	33
3492.27	24
3493.04	23.5
3493.81	24
3494.59	29
3495.36	25
3496.13	22.5
3496.9	21
3497.67	20.5
3498.45	23.5
3499.22	21
3499.99	22.5
