#Acq. time (s)=	5
#Accumulations=	5
#Range (cm-¹)=	100...3500
#Windows=	4
#Autofocus=	Off
#AutoExposure=	Off
#Spike filter=	Multiple accum.
#Delay time (s)=	0
#Binning=	1
#Readout mode=	Signal
#DeNoise=	Off
#ICS correction=	Off
#Dark correction=	Off
#Inst. Process=	Off
#Instrument=	LabRAM HR Evol
#Detector=	Syncerity OE
#Objective=	x100_VIS
#Grating=	600 (500nm)
#ND Filter=	25%
#Laser=	633nm_Edge
#Hole=	100.021
#Range=	Visible
#Project=	verificaciones
#Sample=	a5
#Site=	plain
#Title=	bolusa5plain
#Remark=	
#Date=	09.01.2026 13:55
#Acquired=	09.01.2026 13:55:37
100.695	28
101.978	35.5
103.262	34
104.545	33
105.829	31
107.112	35
108.394	35
109.676	30.5
110.958	32
112.24	33.5
113.522	29
114.803	29
116.084	31
117.365	33
118.646	32.5
119.927	32
121.207	34.5
122.487	34
123.767	36.5
125.047	31
126.326	30.5
127.606	33.5
128.885	26.5
130.164	33
131.442	36.5
132.721	34
133.999	33
135.277	37.5
136.555	34.5
137.831	34
139.109	36.5
140.386	36
141.663	35
142.94	36
144.216	36
145.493	38.5
146.769	35
148.043	36
149.319	38.5
150.595	37
151.87	44
153.145	37
154.42	40.5
155.693	41.5
156.968	41.5
158.242	44
159.516	42
160.79	40.5
162.062	37
163.336	44
164.609	39
165.882	41
167.153	37
168.426	40.5
169.699	40.5
170.971	34.5
172.241	39.5
173.513	41
174.785	39
176.055	43
177.326	37
178.597	42.5
179.866	40
181.137	42.5
182.407	40
183.676	41
184.946	39
186.216	42.5
187.484	41
188.753	45
190.022	40.5
191.29	39.5
192.558	39.5
193.825	43.5
195.094	42
196.36	40.5
197.628	39
198.896	38
200.162	38
201.429	36.5
202.695	41.5
203.962	38.5
205.227	34.5
206.493	39.5
207.758	35
209.024	39
210.289	36
211.554	40.5
212.818	33
214.083	37.5
215.347	37.5
216.612	36.5
217.875	38
219.138	37
220.402	32.5
221.665	36
222.928	32
224.19	35.5
225.454	32.5
226.715	33.5
227.977	27
229.24	29
230.501	32.5
231.762	37
233.024	31.5
234.284	32
235.546	30.5
236.806	35
238.066	29.5
239.327	33
240.587	34
241.846	32
243.105	32
244.365	30
245.624	35
246.882	32.5
248.142	35
249.4	27
250.658	29
251.916	31
253.174	28
254.432	27.5
255.689	32
256.945	33
258.202	30.5
259.46	31
260.716	32
261.972	27
263.228	33.5
264.483	31
265.74	33
266.996	33.5
268.251	31.5
269.505	30.5
270.76	35
272.014	32.5
273.268	34
274.522	31
275.778	29
277.031	24.5
278.285	28.5
279.538	29
280.791	34.5
282.043	35
283.296	26.5
284.548	30.5
285.8	29
287.052	28
288.304	31.5
289.556	32.5
290.807	32.5
292.058	28
293.309	32
294.56	30.5
295.81	30.5
297.061	29.5
298.311	27
299.561	29
300.81	30
302.06	28
303.309	29.5
304.558	30.5
305.807	30.5
307.056	29.5
308.305	28.5
309.551	31.5
310.8	31
312.047	27
313.295	29
314.543	37
315.79	31.5
317.037	27
318.284	29.5
319.529	33.5
320.776	32.5
322.022	28
323.268	30.5
324.514	30
325.758	30
327.004	30.5
328.249	28
329.494	30
330.739	29
331.982	27
333.227	29
334.471	24
335.715	27
336.958	31.5
338.201	30
339.445	26
340.687	35
341.93	29
343.173	29
344.414	32
345.657	29
346.899	31.5
348.14	30
349.381	31.5
350.623	28
351.863	27
353.104	27
354.346	34
355.585	31.5
356.826	32
358.065	28
359.305	31
360.545	32
361.784	26
363.023	29
364.261	30
365.501	30.5
366.738	33.5
367.977	32
369.216	30.5
370.453	34
371.691	33.5
372.928	29.5
374.166	28
375.402	30
376.64	30
377.876	32.5
379.111	30.5
380.348	31
381.584	31
382.82	30.5
384.055	29.5
385.291	28
386.526	28
387.76	31
388.996	27
390.229	30.5
391.465	32.5
392.698	30
393.931	33
395.166	32.5
396.399	30.5
397.632	32
398.866	30
400.098	32.5
401.33	37
402.563	32
403.795	31
405.027	28.5
406.259	30
407.491	30
408.721	32.5
409.954	32
411.184	29
412.415	27.5
413.645	32
414.876	28
416.106	32
417.335	29.5
418.565	34
419.794	27.5
421.024	27.5
422.253	30
423.482	28
424.71	29
425.938	28
427.168	27
428.396	27.5
429.623	30
430.851	29.5
432.078	32
433.305	29
434.532	33
435.758	29.5
436.986	33.5
438.212	30.5
439.438	30
440.664	29.5
441.89	30
443.115	30
444.34	33
445.566	31
446.79	29
448.015	29
449.24	32.5
450.464	30
451.688	26.5
452.912	30.5
454.135	28.5
455.359	32
456.582	32
457.805	33
459.028	28
460.251	31
461.473	31
462.696	34
463.918	30
465.14	33.5
466.36	30
467.582	35
468.803	28
470.024	34
471.245	35.5
472.466	39.5
473.686	37
474.907	37
476.126	40
477.346	41
478.565	47
479.785	47
481.004	45.5
482.224	50
483.441	55.5
484.66	52
485.879	51
487.097	57
488.314	54
489.532	59
490.75	56
491.967	56.5
493.184	62
494.401	56.5
495.618	57.5
496.835	46
498.05	48
499.267	45.5
500.483	46
501.698	47
502.913	43.5
504.129	41.5
505.343	39.5
506.559	41
507.774	37
508.987	34
510.202	32
511.415	37
512.63	34
513.844	37
515.056	33
516.27	31
517.482	38.5
518.696	31
519.907	31
521.121	34
522.332	35
523.545	30.5
524.757	33.5
525.968	37
527.18	33
528.39	33
529.602	34
530.812	33
532.023	35
533.233	34
534.443	30
535.653	33
536.862	35
538.073	31
539.281	31
540.491	30.5
541.7	29.5
542.908	34
544.117	36.5
545.325	29
546.534	35.5
547.741	32.5
548.949	30.5
550.157	33
551.364	35
552.57	35
553.778	32
554.985	29.5
556.191	30.5
557.398	30.5
558.604	32.5
559.809	29.5
561.014	34.5
562.221	33
563.426	31
564.63	30.5
565.835	33.5
567.041	30
568.245	30.5
569.449	26.5
570.653	29
571.856	28.5
573.061	32
574.264	29
575.467	32.5
576.67	31.5
577.873	32.5
579.076	30
580.279	33
581.481	30.5
582.683	28
583.884	30
585.086	28
586.287	26
587.488	34.5
588.689	29
589.891	32.5
591.092	30
592.292	33
593.492	29.5
594.692	25
595.892	30.5
597.092	30
598.291	27.5
599.49	27.5
600.689	26
601.888	28
603.087	29
604.285	32.5
605.483	29.5
606.681	30
607.879	28.5
609.077	31
610.274	32
611.472	28.5
612.668	29
613.865	33.5
615.061	28
616.258	29.5
617.454	30
618.65	29
619.846	31
621.042	32.5
622.238	26
623.432	32
624.627	32
625.822	30
627.017	30.5
628.212	35
629.406	30.5
630.599	32
631.793	30
632.987	28
634.181	27.5
635.373	30.5
636.566	26.5
637.76	30
638.953	30.5
640.144	32.5
641.337	28
642.529	33
643.721	32
644.912	34
646.104	32.5
647.295	26.5
648.485	28.5
649.677	34
650.868	30
652.057	30
653.248	28.5
654.437	30
655.628	29
656.818	31
658.006	32
659.196	32.5
660.384	33
661.574	32
662.763	29.5
663.951	32
665.14	33
666.327	28
667.515	33.5
668.702	35
669.891	32.5
671.077	27
672.265	35
673.451	33
674.638	32
675.824	34.5
677.011	35
678.197	34
679.383	34
680.568	36
681.755	34.5
682.939	37
684.124	34
685.309	36
686.494	36.5
687.679	33
688.863	34.5
690.046	37
691.231	38
692.414	37.5
693.599	34
694.781	36.5
695.964	36.5
697.148	35
698.33	36
699.512	40
700.694	36
701.877	42
703.059	39.5
704.24	45.5
705.423	46
706.604	50
707.784	50.5
708.965	56
710.147	47.5
711.327	50
712.507	44.5
713.687	43.5
714.867	42
716.048	38.5
717.227	38
718.406	37.5
719.585	34
720.764	35
721.942	35
723.122	32.5
724.3	34
725.478	29
726.656	31
727.834	28
729.011	29.5
730.189	33
731.366	31
732.543	30.5
733.719	27.5
734.896	29
736.072	32
737.249	31
738.426	33
739.602	29.5
740.777	31
741.953	31.5
743.128	28.5
744.303	32
745.477	28.5
746.651	29.5
747.826	33.5
749	30.5
750.174	29
751.348	30
752.522	31
753.696	30
754.869	33.5
756.043	30
757.216	28.5
758.389	28
759.561	29.5
760.732	26
761.905	30
763.077	30.5
764.249	29.5
765.421	28
766.592	30
767.762	32
768.934	31
770.105	29
771.275	29
772.446	32
773.615	34.5
774.786	29
775.956	31
777.126	31.5
778.294	33
779.464	29
780.633	30.5
781.801	37
782.97	30
784.139	29.5
785.306	35
786.475	34.5
787.643	36
788.81	29
789.978	34
791.146	34.5
792.312	33.5
793.479	34
794.647	31
795.812	27
796.979	32
798.144	33.5
799.311	31
800.477	33.5
801.642	30
802.808	32.5
803.972	31.5
805.138	29
806.302	26.5
807.467	27
808.631	28
809.796	31.5
810.959	28
812.124	32
813.287	34.5
814.451	33.5
815.614	28.5
816.777	28.5
817.94	33
819.102	32.5
820.265	31
821.427	31
822.59	27
823.751	33
824.912	34.5
826.074	30.5
827.235	28.5
828.397	31
829.558	32
830.718	31.5
831.879	30
833.039	33
834.199	28.5
835.359	29
836.519	27
837.679	27.5
838.838	31
839.998	31
841.156	27
842.315	30
843.473	24
844.633	29
845.791	31
846.948	31.5
848.106	30.5
849.263	27
850.422	30.5
851.579	28
852.736	34
853.892	29.5
855.049	24.5
856.205	30
857.363	29.5
858.519	31.5
859.674	31
860.83	32
861.986	31
863.141	33
864.296	28.5
865.451	32
866.605	28.5
867.76	27
868.914	31
870.069	33
871.224	30.5
872.378	29.5
873.531	32
874.685	36
875.838	32.5
876.991	28
878.144	30
879.296	30.5
880.448	31.5
881.6	33.5
882.753	27
883.905	25.5
885.057	33
886.208	30.5
887.36	29
888.511	26.5
889.662	28
890.813	27
891.964	29.5
893.113	34
894.264	30
895.414	29.5
896.564	24.5
897.714	28
898.864	32
900.012	29
901.161	27.5
902.31	23.5
903.459	31.5
904.607	31
905.756	25.5
906.904	26.5
908.052	29.5
909.199	30.5
910.347	28
911.495	29
912.643	29
913.789	28
914.936	33.5
916.083	26.5
917.229	29
918.375	29.5
919.522	28
920.667	28
921.813	27
922.959	30.5
924.104	28
925.249	32
926.393	31
927.539	28.5
928.684	30
929.827	27
930.972	27.5
932.115	28.5
933.26	29
934.403	28.5
935.547	28
936.689	26.5
937.833	29
938.975	28.5
940.119	28
941.26	31
942.404	28
943.545	25
944.688	29.5
945.829	29
946.971	27
948.112	25
949.253	31.5
950.394	24
951.535	27.5
952.676	30.5
953.816	27.5
954.956	30
956.097	31
957.236	27.5
958.377	31
959.516	29
960.655	32
961.793	28.5
962.933	27
964.071	26
965.21	23.5
966.349	29
967.487	31.5
968.624	23
969.762	28.5
970.901	30
972.038	31
973.175	26
974.311	29
975.449	29
976.586	28.5
977.722	27.5
978.858	23
979.994	32.5
981.131	26.5
982.267	29
983.402	28
984.537	29.5
985.672	28.5
986.807	24.5
987.942	30.5
989.076	31
990.211	29
991.346	30.5
992.48	28
993.614	29
994.748	29
995.881	26.5
997.014	28
998.148	24
999.28	27
1000.41	27
1001.55	27.5
1002.68	30.5
1003.81	32
1004.94	25
1006.07	32
1007.21	29.5
1008.34	28
1009.47	26
1010.6	28
1011.73	30.5
1012.86	25
1013.99	32.5
1015.12	27
1016.25	28
1017.38	29.5
1018.51	28.5
1019.64	25
1020.77	30.5
1021.9	25.5
1023.03	27.5
1024.16	28
1025.29	26
1026.42	25
1027.54	28.5
1028.67	26.5
1029.8	32
1030.93	30.5
1032.06	24
1033.18	26.5
1034.31	32
1035.44	29
1036.56	28.5
1037.69	26
1038.82	27.5
1039.94	28.5
1041.07	25
1042.2	27
1043.32	27
1044.45	27
1045.57	29
1046.7	26.5
1047.82	30
1048.95	25
1050.07	24.5
1051.2	28.5
1052.32	28.5
1053.45	24.5
1054.57	28.5
1055.69	31.5
1056.82	32
1057.94	30
1059.06	27.5
1060.19	22.5
1061.31	28
1062.43	30
1063.55	29
1064.68	25
1065.8	23.5
1066.92	30.5
1068.04	28
1069.16	32
1070.28	28
1071.41	27.5
1072.53	31
1073.65	29
1074.77	28.5
1075.89	27
1077.01	29
1078.13	27
1079.25	26
1080.37	28.5
1081.49	27
1082.61	27.5
1083.73	28
1084.85	25.5
1085.96	27.5
1087.08	30
1088.2	29
1089.32	24
1090.44	29.5
1091.56	23.5
1092.67	25.5
1093.79	27
1094.91	26
1096.03	27
1097.14	31.5
1098.26	26
1099.38	29.5
1100.49	29.5
1101.61	30
1102.73	27
1103.84	27.5
1104.96	29
1106.07	25.5
1107.19	21
1108.3	24
1109.42	29
1110.53	28
1111.65	27.5
1112.76	29
1113.88	26.5
1114.99	27.5
1116.1	27
1117.22	28
1118.33	27
1119.44	24
1120.56	26
1121.67	28
1122.78	27.5
1123.9	25
1125.01	26.5
1126.12	30.5
1127.23	23.5
1128.34	29.5
1129.46	25.5
1130.57	25
1131.68	22.5
1132.79	27.5
1133.9	26
1135.01	28.5
1136.12	27.5
1137.23	30
1138.34	26.5
1139.45	25
1140.56	27
1141.67	24.5
1142.78	27
1143.89	28
1145	27
1146.11	28
1147.22	27
1148.33	30
1149.44	24
1150.54	29.5
1151.65	27
1152.76	30
1153.87	26.5
1154.97	28.5
1156.08	27
1157.19	27.5
1158.3	28
1159.4	23
1160.51	22
1161.62	27
1162.72	25
1163.83	29
1164.93	32
1166.04	26.5
1167.15	30.5
1168.25	30.5
1169.36	29
1170.46	23.5
1171.57	24.5
1172.67	28.5
1173.78	29.5
1174.88	25.5
1175.98	28.5
1177.09	26
1178.19	28
1179.3	25
1180.4	25
1181.5	25.5
1182.61	25.5
1183.71	25.5
1184.81	26.5
1185.91	29
1187.02	25
1188.12	23.5
1189.22	27.5
1190.32	31.5
1191.42	25
1192.53	28
1193.63	24.5
1194.73	26.4884
1195.83	25.4986
1196.93	27.5269
1198.03	26.0946
1199.13	26.0504
1200.23	25.4254
1201.33	29.6657
1202.43	25.0076
1203.53	26.6953
1204.63	23.8789
1205.73	24.4542
1206.83	25.1873
1207.93	27.5315
1209.02	26.316
1210.12	27.602
1211.22	22.7103
1212.32	27.2474
1213.42	24.1914
1214.52	28.0264
1215.61	24.0963
1216.71	28.3835
1217.81	25.1705
1218.91	25.8121
1220	27.4981
1221.1	24.7867
1222.2	25.0651
1223.29	27.0122
1224.39	26.2057
1225.49	25.5582
1226.58	25.0061
1227.68	26.4355
1228.77	22.3276
1229.87	25.0575
1230.96	23.9085
1232.06	27.8526
1233.15	26.5062
1234.25	25.3143
1235.34	25.1284
1236.44	24.5517
1237.53	26.4911
1238.63	26.2934
1239.72	26.7844
1240.81	24.7876
1241.91	26.3211
1243	27.2935
1244.09	26.6491
1245.19	24.1382
1246.28	28.296
1247.37	25.6478
1248.46	27.5126
1249.56	26.5624
1250.65	26.4788
1251.74	25.5095
1252.83	26.7352
1253.92	28.8835
1255.01	27.8415
1256.11	28.7464
1257.2	26.3643
1258.29	28.0115
1259.38	26.5777
1260.47	27.6844
1261.56	28.0146
1262.65	28.1998
1263.74	28.218
1264.83	26.4056
1265.92	27.9149
1267.01	26.6719
1268.1	24.287
1269.19	24.8764
1270.27	25.4636
1271.36	23.8622
1272.45	24.6845
1273.54	27.3046
1274.63	23.265
1275.72	25.4514
1276.8	27.7754
1277.89	27.3336
1278.98	24.1632
1280.07	25.6893
1281.15	23.5458
1282.24	24.627
1283.33	24.8942
1284.41	22.0632
1285.5	27.0925
1286.59	23.2595
1287.67	26.8417
1288.76	25.2044
1289.84	25.6491
1290.93	29.8217
1292.01	28.6931
1293.1	25.6448
1294.19	22.9347
1295.27	25.3819
1296.35	27.4768
1297.44	23.6776
1298.52	25.5042
1299.61	26.6262
1300.69	21.959
1301.78	25.6534
1302.86	25.7078
1303.94	23.9226
1305.03	24.6293
1306.11	27.2137
1306.4	28
1307.49	26
1308.57	26
1309.66	27
1310.75	20.5
1311.84	27
1312.92	24.5
1314.01	28
1315.1	23.5
1316.19	22.5
1317.27	25.5
1318.36	26.5
1319.45	20.5
1320.53	29.5
1321.62	23.5
1322.7	27
1323.79	26.5
1324.88	25
1325.96	25
1327.05	26.5
1328.13	26.5
1329.21	26
1330.3	28
1331.38	22
1332.47	24
1333.55	25.5
1334.64	27.5
1335.72	24.5
1336.8	28
1337.89	28.5
1338.97	23.5
1340.05	22.5
1341.14	26.5
1342.22	25.5
1343.3	24.5
1344.39	26
1345.47	26.5
1346.55	26
1347.63	26
1348.71	25.5
1349.79	25.5
1350.88	25.5
1351.96	24
1353.04	24.5
1354.12	23.5
1355.2	24
1356.28	25.5
1357.36	24.5
1358.44	26
1359.52	27.5
1360.6	24.5
1361.68	25.5
1362.76	29
1363.84	23.5
1364.92	24
1366	26
1367.08	24
1368.16	23
1369.23	25.5
1370.31	29
1371.39	21
1372.47	31
1373.55	26
1374.62	24.5
1375.7	27
1376.78	27
1377.85	19.5
1378.93	24
1380.01	27.5
1381.09	25
1382.16	24.5
1383.24	24.5
1384.31	31
1385.39	28
1386.47	27
1387.54	25.5
1388.62	27
1389.69	26.5
1390.77	26
1391.84	29.5
1392.92	26
1393.99	27
1395.06	26
1396.14	28.5
1397.21	24
1398.29	30.5
1399.36	32
1400.43	27
1401.51	29.5
1402.58	28.5
1403.65	30
1404.73	31.5
1405.8	33.5
1406.87	30.5
1407.94	31.5
1409.02	32
1410.09	29
1411.16	32
1412.23	37
1413.3	28
1414.37	34.5
1415.45	26.5
1416.52	27
1417.59	32
1418.66	29
1419.73	30
1420.8	24
1421.87	30.5
1422.94	29.5
1424.01	26
1425.08	28.5
1426.15	26
1427.22	28.5
1428.29	30
1429.35	26.5
1430.42	29
1431.49	26
1432.56	31
1433.63	22
1434.7	24.5
1435.77	28
1436.83	25.5
1437.9	24
1438.97	26
1440.04	28
1441.1	27
1442.17	27
1443.24	26.5
1444.3	25
1445.37	26.5
1446.44	26
1447.5	27.5
1448.57	28.5
1449.63	27
1450.7	26
1451.76	30
1452.83	24
1453.89	25
1454.96	24
1456.02	28.5
1457.09	30
1458.15	29
1459.22	21
1460.28	31.5
1461.34	24
1462.41	26
1463.47	31.5
1464.54	24.5
1465.6	25
1466.66	26.5
1467.72	29
1468.79	27
1469.85	25
1470.91	30
1471.97	28
1473.04	30
1474.1	26.5
1475.16	27.5
1476.22	26.5
1477.28	26.5
1478.34	29
1479.4	27
1480.47	25.5
1481.53	29
1482.59	25.5
1483.65	29.5
1484.71	22.5
1485.77	29
1486.83	27
1487.89	22
1488.95	25
1490.01	26.5
1491.07	26
1492.12	27
1493.18	28
1494.24	26
1495.3	28
1496.36	27
1497.42	27.5
1498.47	25.5
1499.53	30
1500.59	27.5
1501.65	27.5
1502.7	28
1503.76	25.5
1504.82	22
1505.88	28.5
1506.93	28
1507.99	27
1509.05	28.5
1510.1	26
1511.16	26.5
1512.21	28
1513.27	23
1514.32	24.5
1515.38	22
1516.43	25
1517.49	24
1518.54	28.5
1519.6	28
1520.65	27.5
1521.71	26
1522.76	26
1523.82	27
1524.87	28
1525.92	29.5
1526.98	23.5
1528.03	24.5
1529.08	29.5
1530.14	24
1531.19	27
1532.24	27.5
1533.3	27
1534.35	23.5
1535.4	25.5
1536.45	29
1537.5	27
1538.56	26.5
1539.61	23.5
1540.66	29
1541.71	24
1542.76	23
1543.81	30
1544.86	23.5
1545.91	27.5
1546.96	28
1548.01	25.5
1549.06	29
1550.11	28
1551.16	26
1552.21	31.5
1553.26	26.5
1554.31	26.5
1555.36	26
1556.41	25
1557.46	28
1558.51	28
1559.55	21
1560.6	29.5
1561.65	32
1562.7	28.5
1563.75	26.5
1564.79	24
1565.84	28
1566.89	27
1567.94	25
1568.98	26.5
1570.03	28.5
1571.07	27.5
1572.12	26.5
1573.17	22
1574.21	22.5
1575.26	30
1576.31	24
1577.35	27
1578.4	29
1579.44	26.5
1580.49	32
1581.53	23
1582.58	25.5
1583.62	27
1584.67	27.5
1585.71	28.5
1586.75	27.5
1587.8	28.5
1588.84	26.5
1589.89	24.5
1590.93	23.5
1591.97	30.5
1593.02	26.5
1594.06	21
1595.1	29
1596.14	25.5
1597.19	28
1598.23	28
1599.27	28
1600.31	28.5
1601.35	28
1602.4	25
1603.44	25
1604.48	26
1605.52	23.5
1606.56	27
1607.6	25.5
1608.64	29.5
1609.68	24.5
1610.72	24.5
1611.76	23.5
1612.8	26
1613.84	23.5
1614.88	28
1615.92	26.5
1616.96	25
1618	25.5
1619.04	28.5
1620.08	26
1621.12	26
1622.16	26
1623.19	25
1624.23	26.5
1625.27	27.5
1626.31	26.5
1627.35	24.5
1628.38	28.5
1629.42	28
1630.46	25.5
1631.5	28
1632.53	28
1633.57	27
1634.61	25.5
1635.64	26
1636.68	25.5
1637.71	24
1638.75	25
1639.79	26.5
1640.82	31
1641.86	27
1642.89	25.5
1643.93	28
1644.96	24
1646	27
1647.03	20
1648.07	28
1649.1	27
1650.14	24
1651.17	26
1652.2	26
1653.24	25
1654.27	28
1655.3	24.5
1656.34	23
1657.37	25
1658.4	28
1659.44	25.5
1660.47	25
1661.5	23
1662.53	30.5
1663.57	25
1664.6	27
1665.63	24
1666.66	27.5
1667.69	27
1668.72	27
1669.75	30
1670.79	24
1671.82	27
1672.85	23
1673.88	26
1674.91	24
1675.94	26.5
1676.97	24.5
1678	24.5
1679.03	25
1680.06	23
1681.09	27.5
1682.11	27
1683.14	27.5
1684.17	24.5
1685.2	24.5
1686.23	28
1687.26	24
1688.29	29
1689.32	24.5
1690.34	24.5
1691.37	24.5
1692.4	23.5
1693.43	26
1694.45	29
1695.48	23
1696.51	27.5
1697.53	27.5
1698.56	24
1699.59	27
1700.61	23
1701.64	26
1702.66	26
1703.69	27
1704.72	24.5
1705.74	26.5
1706.77	25
1707.79	23.5
1708.82	26
1709.84	25.5
1710.87	29
1711.89	24.5
1712.92	27
1713.94	24.5
1714.96	26.5
1715.99	25.5
1717.01	26
1718.04	23
1719.06	23.5
1720.08	26
1721.11	28
1722.13	28
1723.15	24.5
1724.17	25
1725.2	25.5
1726.22	29
1727.24	25
1728.26	26.5
1729.28	26.5
1730.31	25
1731.33	22
1732.35	29.5
1733.37	25
1734.39	26.5
1735.41	24.5
1736.43	24.5
1737.45	24
1738.47	28
1739.49	21
1740.51	27
1741.53	29
1742.55	26.5
1743.57	26.5
1744.59	21.5
1745.61	27
1746.63	24.5
1747.65	27
1748.67	25.5
1749.69	25.5
1750.71	25.5
1751.72	23.5
1752.74	27.5
1753.76	27
1754.78	32
1755.8	26
1756.81	25
1757.83	25
1758.85	22.5
1759.86	24.5
1760.88	26
1761.9	29
1762.91	25
1763.93	26.5
1764.95	27.5
1765.96	24.5
1766.98	26.5
1768	27.5
1769.01	20.5
1770.03	24.5
1771.04	26
1772.06	24.5
1773.07	28.5
1774.09	23
1775.1	27
1776.12	24.5
1777.13	27
1778.14	25
1779.16	26
1780.17	25
1781.19	27
1782.2	26
1783.21	22
1784.23	21.5
1785.24	25.5
1786.25	31.5
1787.27	23
1788.28	24
1789.29	28
1790.3	24
1791.32	29.5
1792.33	27
1793.34	25
1794.35	30.5
1795.36	27.5
1796.37	24
1797.38	27
1798.4	20.5
1799.41	20.5
1800.42	26.5
1801.43	27.5
1802.44	24.5
1803.45	24.5
1804.46	24.5
1805.47	24.5
1806.48	22
1807.49	25
1808.5	26
1809.51	25
1810.52	24
1811.53	26
1812.53	24.5
1813.54	27
1814.55	26.5
1815.56	29
1816.57	27.5
1817.58	26.5
1818.58	27
1819.59	21.5
1820.6	24
1821.61	27
1822.61	28
1823.62	26
1824.63	22
1825.64	26
1826.64	29.5
1827.65	29
1828.66	23.5
1829.66	25.5
1830.67	26
1831.67	28
1832.68	28
1833.68	28
1834.69	23.5
1835.7	22.5
1836.7	27.5
1837.71	25.5
1838.71	29
1839.71	26
1840.72	22.5
1841.72	25.5
1842.73	27.5
1843.73	25.5
1844.74	28
1845.74	23.5
1846.74	24
1847.75	24
1848.75	25.5
1849.75	21.5
1850.76	28
1851.76	23
1852.76	27
1853.76	22.5
1854.77	28.5
1855.77	25.5
1856.77	25.5
1857.77	27
1858.77	24.5
1859.78	25.5
1860.78	22.5
1861.78	26
1862.78	24
1863.78	21
1864.78	25.5
1865.78	23.5
1866.78	26
1867.78	23.5
1868.78	21
1869.78	27
1870.78	24
1871.78	25
1872.78	26
1873.78	20
1874.78	25.5
1875.78	22
1876.78	29.5
1877.78	23
1878.78	27.5
1879.77	23
1880.77	22.5
1881.77	20.5
1882.77	27
1883.77	24.5
1884.76	23
1885.76	22.5
1886.76	24
1887.76	28
1888.75	28
1889.75	26
1890.75	25
1891.74	22.5
1892.74	24
1893.74	25.5
1894.73	26.5
1895.73	24
1896.72	23
1897.72	25.5
1898.72	27
1899.71	29
1900.71	25
1901.7	26.5
1902.7	20
1903.69	28
1904.69	26
1905.68	26.5
1906.67	27.5
1907.67	29
1908.66	28
1909.66	25.5
1910.65	23
1911.64	24.5
1912.64	27.5
1913.63	24.5
1914.62	24
1915.62	27
1916.61	24
1917.6	24
1918.59	27.5
1919.59	24.5
1920.58	25
1921.57	28
1922.56	24.5
1923.55	23
1924.55	25
1925.54	27
1926.53	25
1927.52	28.5
1928.51	25.5
1929.5	25.5
1930.49	23
1931.48	25
1932.47	22.5
1933.46	25
1934.45	22
1935.44	27
1936.43	21.5
1937.42	25.5
1938.41	24.5
1939.4	25
1940.39	27
1941.38	26.5
1942.37	27
1943.36	24
1944.34	26
1945.33	24.5
1946.32	24
1947.31	22.5
1948.3	23
1949.28	23
1950.27	23.5
1951.26	24
1952.25	27.5
1953.23	22
1954.22	26
1955.21	24
1956.2	27.5
1957.18	25
1958.17	25
1959.15	26
1960.14	22
1961.13	25
1962.11	23
1963.1	24
1964.08	22
1965.07	22.5
1966.05	21
1967.04	24
1968.02	26.5
1969.01	28
1969.99	27
1970.98	27
1971.96	28
1972.94	29.5
1973.93	23
1974.91	23.5
1975.9	27
1976.88	28
1977.86	20
1978.85	25
1979.83	24
1980.81	25.5
1981.8	20.5
1982.78	21.5
1983.76	22
1984.74	24
1985.72	28.5
1986.71	25
1987.69	24.5
1988.67	25
1989.65	26
1990.63	22.5
1991.61	25
1992.6	26
1993.58	26.5
1994.56	25
1995.54	25.5
1996.52	26
1997.5	27
1998.48	19.5
1999.46	23.5
2000.44	26
2001.42	22
2002.4	24.5
2003.38	24
2004.36	24
2005.34	26.5
2006.32	23
2007.29	23.5
2008.27	23.5
2009.25	23
2010.23	25
2011.21	27
2012.19	28
2013.16	25
2014.14	24
2015.12	24.5
2016.1	26
2017.07	23.5
2018.05	25.5
2019.03	24.5
2020	23
2020.98	25
2021.96	28
2022.93	26
2023.91	23
2024.89	27
2025.86	23.5
2026.84	23
2027.81	23
2028.79	23.5
2029.77	25
2030.74	26
2031.72	24
2032.69	21.5
2033.67	27
2034.64	24
2035.61	24.5
2036.59	24.5
2037.56	24
2038.54	26
2039.51	24.5
2040.48	25
2041.46	20
2042.43	21.5
2043.41	24
2044.38	24.5
2045.35	26.5
2046.32	23
2047.3	23
2048.27	26
2049.24	24.5
2050.21	25
2051.19	23
2052.16	24
2053.13	25.5
2054.1	26
2055.07	23
2056.04	27
2057.02	21
2057.99	21.5
2058.96	24
2059.93	23.5
2060.9	25
2061.87	22.5
2062.84	23
2063.81	24.5
2064.78	24
2065.75	25.5
2066.72	26
2067.69	24
2068.66	20
2069.63	25
2070.6	23.5
2071.57	24
2072.53	21.5
2073.5	25
2074.47	26.5
2075.44	24.5
2076.41	24
2077.38	20.5
2078.34	26.5
2079.31	21
2080.28	22.5
2081.25	29.5
2082.21	26
2083.18	22.5
2084.15	26.5
2085.12	24.5
2086.08	23
2087.05	29
2088.02	21
2088.98	28.5
2089.95	25
2090.91	25.5
2091.88	24
2092.85	25
2093.81	26
2094.78	24.5
2095.74	22.5
2096.71	25.5
2097.67	25
2098.64	23.5
2099.6	24
2100.57	24.5
2101.53	25
2102.5	23.5
2103.46	23
2104.42	22
2105.39	23.5
2106.35	23
2107.31	21
2108.28	25
2109.24	27.5
2110.2	22
2111.17	20
2112.13	26
2113.09	24
2114.06	21.5
2115.02	24.5
2115.98	25.5
2116.94	25.5
2117.9	26.5
2118.86	26
2119.83	24
2120.79	23.5
2121.75	24
2122.71	25.5
2123.67	23
2124.63	25
2125.59	21.5
2126.55	27.5
2127.51	23.5
2128.48	25
2129.43	24
2130.4	24
2131.35	24
2132.31	21
2133.27	22.5
2134.23	24
2135.19	23.5
2136.15	25
2137.11	25
2138.07	27
2139.03	22
2139.99	22
2140.95	21
2141.9	23.5
2142.86	25.972
2143.82	22.4168
2144.78	20.5192
2145.74	24.4346
2146.69	24.8945
2147.65	26.1738
2148.61	25.8049
2149.56	21.4297
2150.52	25.1787
2151.48	24.2613
2152.44	21.4193
2153.39	22.9719
2154.35	25.272
2155.3	22.6654
2156.26	21.3143
2157.22	23.9145
2158.17	19.8917
2159.13	21.6735
2160.08	22.882
2161.04	25.3077
2161.99	24.9725
2162.95	24.3107
2163.9	23.0342
2164.86	20.4349
2165.81	21.7293
2166.77	19.8125
2167.72	25.3714
2168.68	23.3547
2169.63	25.0454
2170.58	24.2392
2171.54	22.9526
2172.49	23.6086
2173.44	23.6354
2174.4	25.7953
2175.35	24.4157
2176.3	22.034
2177.26	22.9452
2178.21	23.9718
2179.16	23.8341
2180.11	22.6054
2181.07	20.6463
2182.02	21.0772
2182.97	24.0056
2183.92	22.4373
2184.88	19.4537
2185.83	22.3541
2186.78	22.4684
2187.73	23.0482
2188.68	24.3026
2189.63	23.8502
2190.58	22.5828
2191.53	22.3988
2192.48	22.4919
2193.43	23.682
2194.38	23.8444
2195.33	19.7908
2196.28	23.5278
2197.23	24.6544
2198.18	23.1346
2199.13	21.6944
2200.08	21.8793
2201.03	22.9029
2201.98	23.8122
2202.93	20.3827
2203.88	22.6269
2204.83	23.2829
2205.78	23.1147
2206.72	23.7014
2207.67	24.8963
2208.62	22.9645
2209.57	21.7888
2210.52	25.0764
2211.46	22.0052
2212.41	22.1401
2213.36	22.9735
2214.31	22.5921
2215.25	23.2715
2216.2	21.3242
2217.15	21.1666
2218.09	24.0086
2219.04	22.5074
2219.99	23.7306
2220.93	23.8526
2221.88	20.6449
2222.83	21.9223
2223.77	26.3322
2224.72	24.1333
2225.66	23.7855
2226.61	23.6559
2227.55	24.5407
2228.5	23.2814
2229.44	24.6739
2230.39	20.9532
2231.33	26.2912
2232.28	23.9739
2233.22	25.311
2234.17	25.7144
2235.11	23.0985
2236.05	22.5
2237	22.483
2237.94	20.5329
2238.88	24.3099
2239.83	21.9739
2240.04	21
2240.98	24
2241.93	22
2242.88	24
2243.83	22
2244.78	25
2245.72	22
2246.67	23.5
2247.62	21.5
2248.56	23
2249.51	22.5
2250.46	21
2251.4	23
2252.35	27.5
2253.3	27
2254.24	21.5
2255.19	24
2256.14	24.5
2257.08	26
2258.03	23
2258.97	24.5
2259.92	21
2260.86	24
2261.81	23
2262.75	25
2263.7	21
2264.64	22.5
2265.59	23.5
2266.53	23
2267.48	22.5
2268.42	23.5
2269.36	24.5
2270.31	24
2271.25	24.5
2272.19	18
2273.14	22
2274.08	23.5
2275.02	22
2275.97	23.5
2276.91	24
2277.85	23
2278.8	23
2279.74	21
2280.68	24
2281.62	25.5
2282.56	22.5
2283.51	26
2284.45	24
2285.39	23
2286.33	22.5
2287.27	21
2288.21	24.5
2289.15	24
2290.09	24
2291.04	22
2291.98	23
2292.92	25
2293.86	22.5
2294.8	24.5
2295.74	23
2296.68	24.5
2297.62	23
2298.56	25
2299.5	22.5
2300.44	22.5
2301.37	21.5
2302.31	23
2303.25	25
2304.19	22.5
2305.13	21.5
2306.07	26
2307.01	23
2307.94	24.5
2308.88	25
2309.82	21
2310.76	25
2311.7	23
2312.63	23
2313.57	22
2314.51	26
2315.44	24
2316.38	26.5
2317.32	21
2318.26	21
2319.19	23.5
2320.13	23.5
2321.06	25
2322	29
2322.94	23.5
2323.87	24
2324.81	22.5
2325.74	24
2326.68	24.5
2327.61	24
2328.55	24
2329.48	25
2330.42	24
2331.35	24
2332.29	23.5
2333.22	26.5
2334.16	23
2335.09	24.5
2336.02	23.5
2336.96	24
2337.89	24
2338.83	26
2339.76	20
2340.69	22
2341.63	22
2342.56	23
2343.49	23.5
2344.42	22
2345.36	21.5
2346.29	21.5
2347.22	27
2348.15	23.5
2349.09	21
2350.02	25.5
2350.95	24.5
2351.88	23.5
2352.81	24
2353.74	25.5
2354.68	21
2355.61	25
2356.54	28
2357.47	24
2358.4	26
2359.33	22
2360.26	24.5
2361.19	25.5
2362.12	20.5
2363.05	23.5
2363.98	26
2364.91	24
2365.84	28
2366.77	25.5
2367.7	26.5
2368.63	24
2369.56	27
2370.49	27
2371.41	19
2372.34	24.5
2373.27	25
2374.2	25
2375.13	23.5
2376.06	23
2376.98	24.5
2377.91	25
2378.84	21.5
2379.77	25
2380.69	22
2381.62	22
2382.55	21
2383.47	24
2384.4	26.5
2385.33	24.5
2386.25	22
2387.18	22.5
2388.11	28
2389.03	23.5
2389.96	24
2390.89	26.5
2391.81	23.5
2392.74	23
2393.66	20.5
2394.59	25
2395.51	25
2396.44	23
2397.36	25
2398.29	22
2399.21	24
2400.14	22.5
2401.06	22.5
2401.99	25
2402.91	20.5
2403.83	26.5
2404.76	19
2405.68	26.5
2406.6	22
2407.53	25
2408.45	21
2409.37	22
2410.3	25.5
2411.22	21.5
2412.14	27
2413.06	25.5
2413.99	25.5
2414.91	21.5
2415.83	21.5
2416.75	27
2417.68	26
2418.6	22.5
2419.52	25.5
2420.44	20
2421.36	24.5
2422.28	24
2423.2	25.5
2424.12	23.5
2425.05	24
2425.97	21.5
2426.89	28.5
2427.81	20.5
2428.73	22
2429.65	25
2430.57	21
2431.49	26
2432.41	24
2433.33	20
2434.25	26
2435.17	23.5
2436.08	29
2437	25.5
2437.92	25
2438.84	22
2439.76	28
2440.68	25
2441.6	21.5
2442.51	25
2443.43	23
2444.35	21.5
2445.27	22
2446.19	20
2447.1	22.5
2448.02	23
2448.94	22.5
2449.85	25
2450.77	27.5
2451.69	18
2452.61	18
2453.52	24
2454.44	25
2455.35	22
2456.27	22.5
2457.19	24.5
2458.1	24.5
2459.02	29.5
2459.94	22.5
2460.85	25.5
2461.77	25
2462.68	25.5
2463.6	25.5
2464.51	27
2465.43	22.5
2466.34	21.5
2467.25	24
2468.17	25
2469.08	26.5
2470	26.5
2470.91	23
2471.83	24
2472.74	25.5
2473.65	22.5
2474.57	25
2475.48	25.5
2476.39	24
2477.31	24
2478.22	26
2479.13	28
2480.04	23
2480.96	26
2481.87	27.5
2482.78	27.5
2483.69	27.5
2484.6	24
2485.52	24
2486.43	22
2487.34	25
2488.25	21.5
2489.16	24
2490.07	25.5
2490.99	23
2491.9	26
2492.81	23.5
2493.72	21
2494.63	23.5
2495.54	26
2496.45	24
2497.36	26
2498.27	28.5
2499.18	25
2500.09	26.5
2501	24
2501.91	27
2502.82	25
2503.73	19
2504.63	23.5
2505.54	25.5
2506.45	23.5
2507.36	23
2508.27	23
2509.18	26.5
2510.09	26.5
2510.99	26.5
2511.9	23.5
2512.81	22
2513.72	24
2514.62	24
2515.53	23
2516.44	23
2517.35	25.5
2518.25	26
2519.16	29.5
2520.07	24
2520.97	25
2521.88	26.5
2522.79	24
2523.69	27.5
2524.6	25
2525.51	22
2526.41	28
2527.32	23
2528.22	26
2529.13	26
2530.03	24
2530.94	26
2531.84	22.5
2532.75	25.5
2533.65	24.5
2534.56	25
2535.46	22
2536.37	24
2537.27	25.5
2538.17	26.5
2539.08	23
2539.98	24
2540.89	24
2541.79	23.5
2542.69	24
2543.6	22
2544.5	23
2545.4	24
2546.31	23
2547.21	25.5
2548.11	23.5
2549.01	26
2549.92	29
2550.82	24.5
2551.72	24.5
2552.62	23
2553.52	22.5
2554.42	27
2555.33	26
2556.23	22
2557.13	23
2558.03	22.5
2558.93	29
2559.83	25.5
2560.73	28
2561.63	25.5
2562.53	21
2563.43	25
2564.33	25.5
2565.24	22
2566.13	24
2567.04	26.5
2567.93	26.5
2568.83	27
2569.73	27
2570.63	27
2571.53	21.5
2572.43	24.5
2573.33	24
2574.23	28
2575.13	16.5
2576.03	21
2576.92	24.5
2577.82	24
2578.72	24
2579.62	26
2580.52	22
2581.41	26
2582.31	23.5
2583.21	22.5
2584.11	21
2585	27.5
2585.9	23
2586.8	23.5
2587.69	25
2588.59	24.5
2589.49	24.5
2590.38	27
2591.28	19
2592.18	24.5
2593.07	23
2593.97	23.5
2594.86	23.5
2595.76	22.5
2596.66	26
2597.55	23.5
2598.45	24.5
2599.34	24
2600.24	26.5
2601.13	23
2602.03	25
2602.92	23
2603.81	25.5
2604.71	28
2605.6	22
2606.5	24.5
2607.39	23
2608.28	25.5
2609.18	27
2610.07	26.5
2610.97	26.5
2611.86	25
2612.75	27.5
2613.64	25
2614.54	28.5
2615.43	26
2616.32	24.5
2617.22	24.5
2618.11	28.5
2619	22
2619.89	26
2620.78	21
2621.68	24
2622.57	22.5
2623.46	22.5
2624.35	23.5
2625.24	28.5
2626.13	24
2627.02	27
2627.91	24.5
2628.81	26.5
2629.7	24
2630.59	23.5
2631.48	22.5
2632.37	24
2633.26	24.5
2634.15	24
2635.04	22.5
2635.93	25.5
2636.82	21.5
2637.71	25.5
2638.59	26.5
2639.48	25
2640.37	26.5
2641.26	28
2642.15	23
2643.04	23
2643.93	22
2644.82	26
2645.71	23
2646.59	24.5
2647.48	25
2648.37	22
2649.26	22
2650.15	24
2651.03	24
2651.92	23.5
2652.81	26
2653.69	27.5
2654.58	24.5
2655.47	22
2656.35	25
2657.24	22
2658.13	27.5
2659.01	24.5
2659.9	25.5
2660.79	22.5
2661.67	24
2662.56	25.5
2663.44	18.5
2664.33	24
2665.22	25
2666.1	25.5
2666.99	26.5
2667.87	25
2668.76	21.5
2669.64	27
2670.52	26
2671.41	24.5
2672.29	24
2673.18	20
2674.06	26
2674.95	22.5
2675.83	22.5
2676.71	27.5
2677.6	23
2678.48	24
2679.36	21.5
2680.25	27
2681.13	24
2682.01	28
2682.9	24
2683.78	28.5
2684.66	21
2685.55	24.5
2686.43	21.5
2687.31	24.5
2688.19	27
2689.07	23
2689.96	25.5
2690.84	22.5
2691.72	22.5
2692.6	20.5
2693.48	22
2694.36	21
2695.24	21
2696.12	27
2697	22
2697.89	23
2698.77	23.5
2699.65	24.5
2700.53	25.5
2701.41	22.5
2702.29	22.5
2703.17	28
2704.05	22.5
2704.93	27
2705.81	23
2706.69	22
2707.57	30.5
2708.44	26.5
2709.32	25
2710.2	23
2711.08	23
2711.96	25
2712.84	25.5
2713.72	21
2714.59	25
2715.47	25.5
2716.35	28.5
2717.23	24
2718.11	24
2718.98	32
2719.86	24
2720.74	25
2721.62	24.5
2722.49	25
2723.37	24
2724.25	27
2725.12	24
2726	29
2726.88	22.5
2727.75	24.5
2728.63	25.5
2729.51	24.5
2730.38	25
2731.26	27
2732.13	25
2733.01	24
2733.88	26
2734.76	25
2735.63	24.5
2736.51	22.5
2737.38	24.5
2738.26	24
2739.13	23.5
2740.01	23.5
2740.88	23.5
2741.76	24.5
2742.63	25
2743.5	27
2744.38	22
2745.25	27.5
2746.13	28
2747	25
2747.87	28
2748.75	28
2749.62	25.5
2750.49	23
2751.36	25
2752.24	24.5
2753.11	24.5
2753.98	25.5
2754.86	21.5
2755.73	26
2756.6	25.5
2757.47	27
2758.34	23.5
2759.22	26
2760.09	25
2760.96	23
2761.83	23.5
2762.7	26.5
2763.57	24.5
2764.44	24
2765.31	26
2766.18	26.5
2767.06	26.5
2767.93	24.5
2768.8	23.5
2769.67	24
2770.54	24.5
2771.41	26
2772.28	21
2773.15	25
2774.02	23
2774.89	25.5
2775.75	22.5
2776.62	25
2777.49	23.5
2778.36	26
2779.23	21
2780.1	26
2780.97	21
2781.84	27
2782.71	23
2783.57	29.5
2784.44	24
2785.31	27.5
2786.18	24.5
2787.04	28.5
2787.91	24
2788.78	27
2789.65	27.5
2790.51	25
2791.38	28
2792.25	22.5
2793.12	23.5
2793.98	27.5
2794.85	24
2795.72	23.5
2796.58	24
2797.45	22.5
2798.31	27
2799.18	27
2800.05	27
2800.91	27.5
2801.78	27
2802.64	27
2803.51	24
2804.37	29
2805.24	29
2806.1	27.5
2806.97	24
2807.83	25
2808.7	25.5
2809.56	29
2810.43	24.5
2811.29	26
2812.15	26
2813.02	22
2813.88	23.5
2814.75	26
2815.61	24
2816.47	25.5
2817.34	25.5
2818.2	26.5
2819.06	26.5
2819.92	23
2820.79	25
2821.65	28
2822.51	25
2823.37	24
2824.24	30
2825.1	27
2825.96	29
2826.82	23
2827.69	27
2828.55	25
2829.41	27
2830.27	28.5
2831.13	28.5
2831.99	27
2832.85	25
2833.71	29
2834.58	27
2835.44	28.5
2836.3	26
2837.16	23
2838.02	22
2838.88	27.5
2839.74	24
2840.6	27
2841.46	24
2842.32	27
2843.18	24.5
2844.04	28
2844.9	23.5
2845.75	23.5
2846.61	28.5
2847.47	25
2848.33	22.5
2849.19	26.5
2850.05	25
2850.91	24
2851.77	28
2852.62	24.5
2853.48	25
2854.34	24.5
2855.2	24
2856.06	26.5
2856.91	27
2857.77	25.5
2858.63	28
2859.48	26
2860.34	26.5
2861.2	24.5
2862.06	23
2862.91	26
2863.77	29
2864.63	25
2865.48	28.5
2866.34	27
2867.19	23.5
2868.05	31
2868.91	24.5
2869.76	28.5
2870.62	29.5
2871.47	26.5
2872.33	30.5
2873.18	31
2874.04	29
2874.89	26
2875.75	24
2876.6	34.5
2877.46	30
2878.31	27
2879.17	31.5
2880.02	29.5
2880.88	26.5
2881.73	29.5
2882.58	29.5
2883.44	31
2884.29	31
2885.14	33
2886	31
2886.85	32
2887.7	30
2888.56	32.5
2889.41	38.5
2890.26	35.5
2891.12	37
2891.97	38
2892.82	37
2893.67	39
2894.52	40
2895.38	45
2896.23	45
2897.08	47.5
2897.93	47
2898.78	51.5
2899.64	58
2900.49	53.5
2901.34	59.5
2902.19	60
2903.04	57
2903.89	62
2904.74	63
2905.59	60.5
2906.44	66
2907.29	65.5
2908.14	67
2908.99	63.5
2909.84	59
2910.69	62.5
2911.54	57
2912.39	55
2913.24	50.5
2914.09	50
2914.94	47.5
2915.79	49.5
2916.64	45.5
2917.49	42
2918.34	38.5
2919.18	39
2920.03	33.5
2920.88	35
2921.73	32.5
2922.58	32
2923.42	33.5
2924.27	30.5
2925.12	33.5
2925.97	31
2926.82	33
2927.66	27
2928.51	32.5
2929.36	29.5
2930.2	29
2931.05	30.5
2931.9	31
2932.74	30
2933.59	28.5
2934.44	31.5
2935.28	28
2936.13	27.5
2936.98	27
2937.82	28.5
2938.67	27.5
2939.51	21.5
2940.36	23.5
2941.2	28.5
2942.05	27
2942.9	25.5
2943.74	26.5
2944.58	24
2945.43	27
2946.27	24
2947.12	28.5
2947.96	30
2948.81	30
2949.65	30
2950.5	29
2951.34	27.5
2952.18	28
2953.03	31
2953.87	31
2954.71	29.5
2955.56	30.5
2956.4	31
2957.24	36.5
2958.09	35.5
2958.93	33.5
2959.77	40
2960.62	41
2961.46	38.5
2962.3	38
2963.14	41.5
2963.98	38.5
2964.83	41
2965.67	38
2966.51	44.5
2967.35	45.5
2968.19	41.5
2969.04	40
2969.88	40
2970.72	39
2971.56	42.4782
2972.4	33.5055
2973.24	40.9053
2974.08	30.2027
2974.92	36.5093
2975.76	36.8498
2976.6	30.1705
2977.44	30.5301
2978.28	31.385
2979.12	30.2887
2979.96	31.0683
2980.8	29.9393
2981.64	30.5711
2982.48	24.1934
2983.32	29.6683
2984.16	27.793
2985	29.2379
2985.84	25.2545
2986.68	26.9981
2987.52	24.8273
2988.35	22.8236
2989.19	26.0202
2990.03	24.7504
2990.87	24.6733
2991.71	26.7061
2992.55	24.1122
2993.38	24.5341
2994.22	24.984
2995.06	25.779
2995.9	25.5368
2996.73	23.2915
2997.57	24.3883
2998.41	25.9461
2999.25	24.3551
3000.08	23.146
3000.92	22.9514
3001.76	23.482
3002.59	23.7102
3003.43	23.6609
3004.27	24.1254
3005.1	25.092
3005.94	24.2402
3006.78	22.7716
3007.61	23.9459
3008.45	25.23
3009.28	22.6486
3010.12	24.1846
3010.95	23.405
3011.79	22.4936
3012.62	22.9494
3013.46	21.2601
3014.29	24.8014
3015.13	23.9767
3015.96	23.5264
3016.8	23.0352
3017.63	22.9445
3018.47	24.1509
3019.3	21.6605
3020.14	23.7658
3020.97	20.2022
3021.8	24.8727
3022.64	24.83
3023.47	22.741
3024.3	23.5413
3025.14	24.0625
3025.97	23.6384
3026.8	21.9427
3027.64	22.3054
3028.47	22.0189
3029.3	22.9429
3030.14	24.817
3030.97	23.2214
3031.8	23.2449
3032.63	23.2384
3033.46	21.7386
3034.3	22.1114
3035.13	25.2873
3035.96	24.4314
3036.79	23.014
3037.62	23.3139
3038.46	23.1394
3039.29	22.4759
3040.12	22.48
3040.95	23.0597
3041.78	22.1725
3042.61	22.6876
3043.44	23.5598
3044.27	22.6545
3045.1	21.8652
3045.93	21.0293
3046.76	22.5919
3047.59	22.6808
3048.42	22.6001
3049.25	22.9078
3050.08	23.6804
3050.91	24.1092
3051.74	22.3054
3052.57	22.8055
3053.4	24.3699
3054.23	24.7282
3055.06	22.1063
3055.89	20.7278
3056.72	21.9263
3057.32	20.5
3058.15	23.5
3058.98	23.5
3059.82	23
3060.65	24
3061.48	27
3062.31	21
3063.15	23.5
3063.98	23.5
3064.81	24
3065.64	23
3066.48	23
3067.31	24
3068.14	23
3068.97	19
3069.8	22.5
3070.63	23.5
3071.47	21.5
3072.3	22.5
3073.13	21.5
3073.96	23
3074.79	21.5
3075.62	24
3076.45	22
3077.28	22.5
3078.11	22
3078.94	22.5
3079.77	23.5
3080.6	20.5
3081.43	23
3082.26	27.5
3083.09	25
3083.92	22.5
3084.75	26
3085.58	25.5
3086.41	22
3087.24	24
3088.07	23
3088.9	25
3089.73	20.5
3090.55	24
3091.38	22.5
3092.21	23
3093.04	21
3093.87	22
3094.7	24
3095.52	22.5
3096.35	23
3097.18	28
3098.01	25
3098.84	24
3099.66	23.5
3100.49	24.5
3101.32	22
3102.14	22.5
3102.97	24
3103.8	26
3104.62	24
3105.45	23
3106.28	25
3107.1	22
3107.93	23
3108.76	27
3109.58	24.5
3110.41	24
3111.23	22.5
3112.06	21
3112.89	21.5
3113.71	18.5
3114.54	24
3115.36	23.5
3116.19	21.5
3117.01	20.5
3117.84	23
3118.66	23
3119.49	21
3120.31	24
3121.13	21.5
3121.96	25
3122.78	24.5
3123.61	21
3124.43	22.5
3125.25	22
3126.08	24.5
3126.9	26.5
3127.73	25
3128.55	21.5
3129.37	24
3130.19	21.5
3131.02	20
3131.84	23.5
3132.66	21
3133.49	22.5
3134.31	22
3135.13	20
3135.95	23.5
3136.78	22.5
3137.6	24
3138.42	20
3139.24	22.5
3140.06	21.5
3140.88	23.5
3141.71	21.5
3142.53	23.5
3143.35	22
3144.17	24.5
3144.99	22
3145.81	24
3146.63	23.5
3147.45	26.5
3148.27	23.5
3149.09	20
3149.91	21.5
3150.73	22.5
3151.56	25.5
3152.37	20
3153.2	24.5
3154.01	21.5
3154.83	19
3155.65	25.5
3156.47	26
3157.29	24
3158.11	22
3158.93	20
3159.75	22.5
3160.57	24
3161.39	24.5
3162.21	22
3163.02	26.5
3163.84	23
3164.66	23.5
3165.48	22
3166.3	22
3167.11	24
3167.93	24
3168.75	24
3169.57	23
3170.39	20.5
3171.2	24
3172.02	22
3172.84	22.5
3173.65	23
3174.47	21
3175.29	22.5
3176.1	22
3176.92	23.5
3177.74	23.5
3178.55	24.5
3179.37	18
3180.19	26
3181	25
3181.82	23.5
3182.63	22
3183.45	23
3184.27	24.5
3185.08	23
3185.9	22
3186.71	20
3187.53	23
3188.34	22.5
3189.16	21.5
3189.97	23
3190.79	22
3191.6	23
3192.41	26
3193.23	24
3194.04	24
3194.86	23
3195.67	24
3196.48	23.5
3197.3	23
3198.11	24
3198.93	22.5
3199.74	22.5
3200.55	24
3201.36	24
3202.18	21
3202.99	24
3203.8	25.5
3204.62	23.5
3205.43	21
3206.24	24
3207.05	22.5
3207.87	23
3208.68	19.5
3209.49	24
3210.3	20
3211.11	22
3211.93	24.5
3212.74	22
3213.55	21
3214.36	20.5
3215.17	24.5
3215.98	24.5
3216.79	24.5
3217.6	26
3218.41	26
3219.22	25.5
3220.03	24
3220.85	22
3221.66	26.5
3222.47	23
3223.28	23
3224.09	18.5
3224.9	24
3225.71	21
3226.52	24
3227.33	19
3228.13	28
3228.94	25
3229.75	26.5
3230.56	26
3231.37	25
3232.18	25
3232.99	25.5
3233.8	25.5
3234.61	22.5
3235.41	26.5
3236.22	27
3237.03	23.5
3237.84	22.5
3238.65	23
3239.45	22.5
3240.26	23
3241.07	24
3241.88	22.5
3242.68	23
3243.49	23.5
3244.3	23.5
3245.1	23
3245.91	23
3246.72	20.5
3247.53	25.5
3248.33	23.5
3249.14	23.5
3249.95	22.5
3250.75	22.5
3251.56	23.5
3252.36	23
3253.17	22
3253.97	21
3254.78	23.5
3255.59	23.5
3256.39	22.5
3257.2	25
3258	27.5
3258.81	27
3259.61	23
3260.42	25.5
3261.22	23
3262.03	18
3262.83	23
3263.64	20.5
3264.44	27.5
3265.24	24
3266.05	23
3266.85	22.5
3267.66	25
3268.46	25.5
3269.26	21.5
3270.07	26.5
3270.87	23
3271.67	24
3272.48	24.5
3273.28	24.5
3274.08	22.5
3274.89	25.5
3275.69	21
3276.49	23
3277.29	22.5
3278.1	23.5
3278.9	25
3279.7	28.5
3280.5	24
3281.3	23
3282.11	25
3282.91	23
3283.71	22.5
3284.51	20
3285.31	26.5
3286.11	22
3286.91	21
3287.72	22.5
3288.52	22.5
3289.32	24
3290.12	22.5
3290.92	27
3291.72	28
3292.52	26
3293.32	20
3294.12	26
3294.92	22.5
3295.72	26.5
3296.52	24
3297.32	23
3298.12	25
3298.92	22.5
3299.72	25
3300.52	22.5
3301.32	27.5
3302.12	24.5
3302.92	27
3303.71	22
3304.51	25
3305.31	22.5
3306.11	24
3306.91	20.5
3307.71	27
3308.5	24
3309.3	21
3310.1	24
3310.9	24.5
3311.7	23
3312.49	22
3313.29	23
3314.09	26.5
3314.89	28
3315.68	26
3316.48	23.5
3317.28	23.5
3318.07	22
3318.87	23
3319.67	23.5
3320.46	22
3321.26	22.5
3322.06	25
3322.85	26
3323.65	23
3324.44	25.5
3325.24	21.5
3326.04	23.5
3326.83	28.5
3327.63	25.5
3328.42	24
3329.22	27
3330.01	28
3330.81	26.5
3331.6	19
3332.4	24.5
3333.19	26
3333.99	25
3334.78	23.5
3335.58	23
3336.37	23.5
3337.17	25.5
3337.96	21
3338.75	26.5
3339.55	23.5
3340.34	25.5
3341.13	23
3341.93	26.5
3342.72	22.5
3343.51	27
3344.31	25
3345.1	20
3345.89	26
3346.69	26.5
3347.48	29
3348.27	25
3349.06	23.5
3349.86	23
3350.65	26.5
3351.44	21
3352.23	25.5
3353.03	21.5
3353.82	27.5
3354.61	24.5
3355.4	24
3356.19	23.5
3356.98	26.5
3357.78	17
3358.57	25.5
3359.36	27
3360.15	26.5
3360.94	25.5
3361.73	24.5
3362.52	23.5
3363.31	22
3364.1	22
3364.89	24.5
3365.68	25
3366.47	28.5
3367.26	24.5
3368.05	24
3368.84	19.5
3369.63	24
3370.42	25.5
3371.21	23.5
3372	23.5
3372.79	24
3373.58	28
3374.37	23.5
3375.16	23
3375.95	27
3376.73	20.5
3377.52	30
3378.31	25.5
3379.1	26
3379.89	21
3380.68	23
3381.46	24
3382.25	25.5
3383.04	22.5
3383.83	23
3384.62	25.5
3385.4	22.5
3386.19	25
3386.98	24.5
3387.76	21
3388.55	24
3389.34	24.5
3390.13	24
3390.91	25
3391.7	25
3392.49	25.5
3393.27	22.5
3394.06	24
3394.84	23
3395.63	22.5
3396.42	20.5
3397.2	25
3397.99	25
3398.77	26
3399.56	24.5
3400.34	27
3401.13	22.5
3401.92	30
3402.7	25
3403.49	25
3404.27	21.5
3405.06	20.5
3405.84	22
3406.62	23
3407.41	23.5
3408.19	26.5
3408.98	27.5
3409.76	20
3410.55	20
3411.33	24
3412.11	23
3412.9	23
3413.68	21.5
3414.46	23
3415.25	25
3416.03	19.5
3416.81	24.5
3417.6	23.5
3418.38	23
3419.16	28
3419.95	22.5
3420.73	23
3421.51	23.5
3422.29	19.5
3423.08	23
3423.86	20
3424.64	24
3425.42	24.5
3426.2	23.5
3426.98	27
3427.77	24.5
3428.55	26
3429.33	24
3430.11	27
3430.89	25.5
3431.67	26
3432.45	28
3433.24	24
3434.02	25
3434.8	24
3435.58	23
3436.36	24.5
3437.14	23.5
3437.92	21
3438.7	26.5
3439.48	24
3440.26	24
3441.04	25
3441.82	24.5
3442.6	21.5
3443.38	25.5
3444.16	25
3444.94	25
3445.71	24.5
3446.49	24
3447.27	24
3448.05	23
3448.83	22
3449.61	22
3450.39	22
3451.17	25
3451.94	27
3452.72	25.5
3453.5	22
3454.28	28
3455.06	23
3455.83	25
3456.61	28
3457.39	23
3458.17	24.5
3458.94	23
3459.72	22
3460.5	24
3461.28	23.5
3462.05	24
3462.83	20.5
3463.61	23
3464.38	24
3465.16	19.5
3465.93	23.5
3466.71	23.5
3467.49	25.5
3468.26	19
3469.04	25
3469.82	20
3470.59	24
3471.37	24.5
3472.14	27
3472.92	25.5
3473.69	26
3474.47	23.5
3475.24	21
3476.02	23
3476.79	24
3477.57	24
3478.34	24
3479.12	27.5
3479.89	22
3480.67	24
3481.44	23.5
3482.21	26.5
3482.99	23
3483.76	23.5
3484.54	24
3485.31	24.5
3486.08	20.5
3486.86	26.5
3487.63	25
3488.4	25
3489.18	22
3489.95	22.5
3490.72	23
3491.5	23.5
3492.27	24
3493.04	24
3493.81	26
3494.59	21
3495.36	24
3496.13	23
3496.9	22
3497.67	21
3498.45	23.5
3499.22	24.5
3499.99	25
