#Acq. time (s)=	5
#Accumulations=	5
#Range (cm-¹)=	100...3500
#Windows=	4
#Autofocus=	Off
#AutoExposure=	Off
#Spike filter=	Multiple accum.
#Delay time (s)=	0
#Binning=	1
#Readout mode=	Signal
#DeNoise=	Off
#ICS correction=	Off
#Dark correction=	Off
#Inst. Process=	Off
#Instrument=	LabRAM HR Evol
#Detector=	Syncerity OE
#Objective=	x100_VIS
#Grating=	600 (500nm)
#ND Filter=	25%
#Laser=	633nm_Edge
#Hole=	100.021
#Range=	Visible
#Project=	verificaciones
#Sample=	at3
#Site=	plain
#Title=	bolusat3plain
#Remark=	
#Date=	14.01.2026 11:43
#Acquired=	14.01.2026 11:43:33
100.618	24.5
101.901	30
103.185	29
104.468	28.5
105.751	26
107.033	28
108.316	26.5
109.598	24
110.88	25.5
112.162	25.5
113.445	26
114.727	25.5
116.008	26
117.289	28
118.57	26.5
119.85	26.5
121.13	26
122.411	24
123.691	32
124.97	25
126.25	30
127.529	26.5
128.808	27
130.086	27
131.364	32.5
132.643	26
133.921	28.5
135.199	27
136.477	29.5
137.755	29
139.032	29.5
140.309	31.5
141.586	29.5
142.863	29
144.14	31
145.415	30
146.691	26.5
147.967	31
149.243	27
150.518	28
151.794	27.5
153.067	28
154.342	27.5
155.617	30
156.892	27.5
158.166	29
159.439	29
160.712	30
161.986	27
163.26	32.5
164.531	30
165.805	27
167.077	29.5
168.35	31
169.621	30.5
170.893	25
172.165	33
173.437	30.5
174.707	27
175.979	28
177.25	26
178.519	32.5
179.79	31.5
181.061	29
182.33	28
183.6	29.5
184.87	27.5
186.138	28
187.408	33
188.676	29
189.945	28
191.214	32
192.481	31
193.75	28.5
195.016	32
196.285	26
197.552	30
198.819	26.5
200.086	29
201.352	24.5
202.619	31.5
203.884	26.5
205.151	30.5
206.416	28.5
207.682	25
208.947	26.5
210.213	32
211.477	30
212.742	32.5
214.006	31.5
215.271	27
216.535	26.5
217.799	23
219.062	32
220.326	26
221.589	30.5
222.851	27
224.115	30
225.377	29.5
226.64	27
227.901	24
229.163	26.5
230.425	25
231.686	33
232.947	26
234.209	28.5
235.469	29.5
236.729	27
237.991	27.5
239.25	29
240.51	27
241.771	22
243.03	24
244.288	28
245.549	29.5
246.807	30
248.065	29
249.323	29.5
250.583	26.5
251.84	27
253.098	26.5
254.355	28
255.613	26
256.87	24.5
258.127	30
259.383	24
260.639	24
261.897	27.5
263.153	26
264.408	26
265.664	26.5
266.919	30.5
268.174	26
269.43	27.5
270.685	24.5
271.939	27.5
273.193	27
274.447	28
275.701	28
276.955	25.5
278.208	26.5
279.461	21
280.714	25.5
281.968	29
283.221	21
284.473	29.5
285.726	29.5
286.977	27
288.229	26
289.481	27
290.732	28
291.983	27
293.234	29.5
294.485	28
295.736	27
296.986	26
298.236	26
299.486	28
300.736	26
301.985	26.5
303.233	24
304.482	29
305.731	31
306.98	24
308.228	28
309.477	28
310.725	30
311.973	25.5
313.22	29.5
314.468	26.5
315.714	26
316.961	28.5
318.208	27
319.455	27.5
320.701	28
321.947	30
323.192	28.5
324.438	26
325.684	24.5
326.929	28.5
328.175	26
329.418	29
330.663	28
331.908	25.5
333.152	29.5
334.395	26.5
335.639	28.5
336.883	28
338.127	27.5
339.369	27.5
340.612	27
341.855	27.5
343.097	24.5
344.34	21
345.582	27.5
346.823	27.5
348.065	25.5
349.307	25
350.547	23.5
351.789	25
353.03	26
354.27	29.5
355.511	25
356.75	25
357.991	27.5
359.231	25
360.47	25
361.709	25
362.948	28
364.187	26.5
365.427	27
366.664	28.5
367.903	26
369.14	29
370.379	32
371.616	28
372.854	23.5
374.091	29.5
375.328	27
376.564	28
377.802	26.5
379.037	28.5
380.274	24.5
381.51	26
382.745	29
383.981	24.5
385.216	29
386.452	23
387.686	28.5
388.922	26.5
390.155	26
391.389	28.5
392.624	25.5
393.857	28.5
395.091	30
396.325	28.5
397.558	30.5
398.79	24.5
400.024	29
401.256	26.5
402.488	28
403.721	29
404.953	26.5
406.184	24.5
407.417	26.5
408.648	29
409.878	24
411.109	27
412.341	25
413.571	26
414.801	27
416.031	30
417.262	29
418.491	27
419.72	29
420.949	28.5
422.178	30.5
423.408	25.5
424.637	26
425.865	28.5
427.093	25
428.32	25.5
429.548	26.5
430.777	28
432.004	27.5
433.231	28.5
434.458	31.5
435.685	27
436.911	28.5
438.137	28
439.363	26
440.589	31.5
441.815	28.5
443.042	30.5
444.267	28
445.492	29.5
446.717	31
447.942	27.5
449.166	26
450.39	26
451.615	27
452.838	26
454.062	30
455.286	28.5
456.509	25
457.732	25
458.955	28.5
460.178	25
461.399	26
462.621	28
463.843	25
465.065	31
466.287	24.5
467.508	30
468.73	23.5
469.951	29.5
471.172	30
472.393	31
473.612	31.5
474.832	27
476.052	26
477.272	29
478.492	31.5
479.712	32
480.93	36
482.149	32.5
483.368	36.5
484.587	36
485.806	32
487.023	38
488.241	36
489.459	41
490.677	37
491.893	35
493.111	36.5
494.328	36
495.543	34
496.76	32
497.977	27
499.194	31
500.409	29.5
501.625	27.5
502.841	27.5
504.055	28
505.27	27
506.486	27
507.699	29
508.914	33.5
510.128	29
511.342	27.5
512.557	27
513.77	29
514.984	28.5
516.196	30.5
517.41	26
518.623	30
519.835	25
521.048	31.5
522.259	26.5
523.472	31
524.683	30.5
525.895	26
527.106	27
528.318	28
529.528	29
530.74	26.5
531.949	32
533.161	28.5
534.37	20
535.581	27
536.79	25
537.999	26
539.209	27
540.418	25
541.627	27
542.835	27
544.043	22
545.253	26.5
546.46	26.5
547.669	25.5
548.876	24
550.083	24.5
551.292	30
552.498	25
553.705	29
554.912	28.5
556.118	26.5
557.324	27
558.53	27
559.737	26
560.942	27
562.147	28
563.353	30.5
564.558	26.5
565.763	30
566.967	27.5
568.173	27
569.377	28.5
570.58	27
571.784	18
572.987	27
574.192	23
575.395	24.5
576.598	25.5
577.8	26
579.003	26
580.205	27
581.407	26
582.61	25
583.812	26.5
585.014	27
586.215	26.5
587.416	24
588.617	24
589.818	30
591.018	31
592.219	23.5
593.419	28
594.619	26.5
595.819	29
597.02	29.5
598.219	24
599.418	24.5
600.617	27.5
601.816	27
603.015	26.5
604.213	32.5
605.41	27
606.608	27
607.806	26.5
609.004	27
610.201	30
611.399	27.5
612.596	28.5
613.793	29
614.989	26
616.186	31
617.382	25.5
618.579	25.5
619.775	27
620.969	27
622.165	25
623.36	31
624.555	27.5
625.75	27
626.945	28.5
628.139	30.5
629.333	32.5
630.527	27
631.721	28.5
632.915	27
634.108	29
635.301	30.5
636.495	27.5
637.688	25.5
638.88	27.5
640.072	21.5
641.265	27
642.456	24
643.648	26.5
644.84	27
646.032	28
647.222	32
648.414	26.5
649.605	28
650.795	28.5
651.986	25
653.177	23.5
654.366	27
655.556	27
656.745	30
657.935	29.5
659.125	31.5
660.313	28.5
661.503	28.5
662.69	30
663.879	30.5
665.067	27.5
666.256	27.5
667.444	29.5
668.631	28.5
669.819	23
671.006	27
672.194	26
673.38	26
674.567	25.5
675.753	31.5
676.94	24
678.125	27.5
679.311	22
680.497	27
681.682	29
682.868	28.5
684.053	25
685.238	26.5
686.422	27.5
687.606	25
688.792	30
689.975	29.5
691.159	30
692.343	27
693.526	31.5
694.71	31
695.893	28
697.076	30
698.259	29
699.441	27
700.623	29
701.805	29
702.988	33
704.169	32
705.35	32
706.533	30
707.714	34
708.894	30.5
710.075	38
711.255	34.5
712.436	30
713.616	29
714.796	33.5
715.975	29
717.155	28.5
718.335	30
719.514	26
720.693	25
721.872	27
723.05	27
724.228	27
725.406	21
726.585	22
727.763	29.5
728.941	27.5
730.118	27.5
731.295	23.5
732.472	29
733.649	25
734.825	30
736.002	31.5
737.178	25.5
738.354	25
739.53	26
740.705	26.5
741.881	25.5
743.056	29.5
744.231	24.5
745.406	27
746.581	31
747.755	29
748.93	23.5
750.104	24.5
751.278	27.5
752.452	27.5
753.625	27
754.799	25.5
755.972	25
757.144	26.5
758.317	29
759.489	25
760.662	29.5
761.834	28.5
763.006	26
764.178	25.5
765.349	27
766.521	28.5
767.692	25
768.863	25
770.034	26.5
771.204	29
772.374	28.5
773.545	30
774.715	27
775.885	23
777.054	28
778.224	30.5
779.393	27
780.562	26
781.731	26
782.9	30
784.069	26
785.236	26
786.405	25
787.573	32
788.74	27.5
789.908	27
791.074	26.5
792.242	27
793.409	27.5
794.575	31.5
795.742	29
796.909	29
798.074	25
799.241	28.5
800.406	30
801.572	30.5
802.737	28
803.902	26.5
805.067	25
806.232	24
807.396	29
808.561	27
809.725	24
810.889	25
812.052	23
813.217	24
814.38	32
815.544	27.5
816.706	29
817.87	25
819.032	30.5
820.195	23.5
821.357	25.5
822.518	25
823.681	24
824.842	28.5
826.005	25
827.165	29
828.326	28.5
829.488	25.5
830.648	24.5
831.808	26
832.97	28.5
834.129	27.5
835.289	27.5
836.45	26
837.609	31
838.768	26
839.927	23
841.087	26.5
842.245	28
843.404	27
844.562	28.5
845.721	27.5
846.879	24
848.036	27.5
849.194	25
850.351	25
851.509	27
852.666	26
853.823	26.5
854.979	28
856.136	25
857.292	28.5
858.448	25
859.605	26
860.761	26
861.916	24.5
863.071	30
864.226	25
865.381	28.5
866.536	25
867.691	27.5
868.845	29.5
869.999	27
871.153	30.5
872.307	29.5
873.461	29.5
874.614	26
875.767	25
876.92	25.5
878.073	24
879.226	26.5
880.379	27
881.531	28.5
882.683	26
883.835	24
884.987	28
886.139	25.5
887.291	28
888.442	28.5
889.593	26
890.743	22
891.893	25
893.044	25
894.195	25
895.345	26
896.495	27.5
897.643	27
898.793	25
899.943	29
901.092	25
902.241	26
903.389	26
904.538	27
905.687	26
906.835	22
907.982	30
909.13	26.5
910.278	26
911.426	26
912.572	26
913.72	25.5
914.867	24
916.013	22
917.16	26.5
918.306	27
919.451	27
920.598	27
921.744	25.5
922.889	26
924.035	24
925.18	27
926.324	26
927.47	27
928.614	25.5
929.758	24.5
930.902	25
932.047	25
933.191	25
934.334	28
935.478	27.5
936.621	23.5
937.764	21.5
938.906	27
940.05	25.5
941.192	26
942.335	25
943.476	29
944.619	23
945.76	23.5
946.901	26.5
948.043	26
949.184	22.5
950.326	24
951.466	25.5
952.606	24
953.747	24
954.887	24
956.028	29
957.167	24
958.307	25
959.447	24.5
960.586	26.5
961.725	27
962.865	24.5
964.003	25
965.141	25.5
966.279	27.5
967.418	25
968.556	26.5
969.693	28.5
970.831	28
971.969	25
973.106	29
974.243	27.5
975.38	26.5
976.517	25
977.654	26
978.79	22
979.926	23
981.061	27
982.197	26
983.334	26
984.469	26
985.604	25.5
986.739	24
987.873	28
989.008	23.5
990.142	27.5
991.277	21.5
992.411	26
993.544	28.5
994.679	26
995.813	26
996.946	25
998.079	23
999.212	27.5
1000.35	29
1001.48	25.5
1002.61	25.5
1003.74	26
1004.87	24.5
1006.01	22.5
1007.14	23
1008.27	29
1009.4	23
1010.53	22.5
1011.66	26
1012.79	22.5
1013.92	27
1015.05	25.5
1016.18	24
1017.31	23
1018.44	25
1019.57	28
1020.7	25
1021.83	24.5
1022.96	28
1024.09	27
1025.22	25.5
1026.35	26.5
1027.48	29.5
1028.6	23
1029.73	30
1030.86	25.5
1031.99	26
1033.12	23
1034.24	23
1035.37	25.5
1036.5	27
1037.62	27
1038.75	27.5
1039.88	23.5
1041	26
1042.13	23.5
1043.25	30
1044.38	27.5
1045.5	27
1046.63	23.5
1047.76	24.5
1048.88	26
1050	23.5
1051.13	24.5
1052.25	26
1053.38	22
1054.5	26.5
1055.63	24
1056.75	25
1057.87	20
1058.99	24
1060.12	24
1061.24	22
1062.36	25.5
1063.49	21.5
1064.61	27
1065.73	26
1066.85	28
1067.97	24.5
1069.1	27
1070.22	23
1071.34	25.5
1072.46	28.5
1073.58	26
1074.7	26.5
1075.82	25
1076.94	28
1078.06	27
1079.18	24.5
1080.3	26.5
1081.42	25
1082.54	24
1083.66	25
1084.78	25
1085.9	32
1087.02	29
1088.13	24.5
1089.25	28
1090.37	22.5
1091.49	23.5
1092.61	22
1093.72	24
1094.84	25.5
1095.96	27
1097.08	25
1098.19	22
1099.31	23
1100.42	25
1101.54	28.5
1102.66	23
1103.77	26.5
1104.89	25
1106	27
1107.12	24
1108.23	22
1109.35	23.5
1110.46	27
1111.58	25
1112.69	25
1113.81	22
1114.92	26
1116.04	28.5
1117.15	25
1118.26	25
1119.38	27
1120.49	30
1121.6	26.5
1122.72	21
1123.83	26.5
1124.94	24
1126.05	22.5
1127.17	23
1128.28	26
1129.39	23.5
1130.5	25.5
1131.61	25.5
1132.72	21
1133.83	25.5
1134.94	23
1136.06	23
1137.17	24
1138.27	25
1139.39	25.5
1140.5	23.5
1141.61	24
1142.72	24
1143.82	21
1144.93	26
1146.04	24
1147.15	24
1148.26	20.5
1149.37	21
1150.48	22
1151.58	25.5
1152.69	22.5
1153.8	23
1154.91	26
1156.02	23.5
1157.12	29.5
1158.23	24
1159.34	22
1160.44	25
1161.55	26.5
1162.66	21
1163.76	26.5
1164.87	27
1165.97	24
1167.08	24
1168.18	26
1169.29	29
1170.39	24
1171.5	25
1172.6	25.5
1173.71	22
1174.81	20.5
1175.92	22
1177.02	28
1178.13	24
1179.23	22.5
1180.33	26.5
1181.44	25.5
1182.54	29
1183.64	24
1184.74	21
1185.85	26.5
1186.95	24
1188.05	20
1189.15	27
1190.26	24.5
1191.36	26
1192.46	25.5
1193.56	30
1194.66	23.4894
1195.76	28.3674
1196.86	24.9823
1197.96	22.9393
1199.06	25.4563
1200.16	21.6505
1201.26	24.2762
1202.36	23.7118
1203.46	26.9714
1204.56	23.9524
1205.66	24.3471
1206.76	24.7846
1207.86	25.9954
1208.96	24.4409
1210.06	24.4907
1211.16	27.2718
1212.25	24.5995
1213.35	21.5931
1214.45	23.8573
1215.55	23.6307
1216.65	22.4104
1217.74	23.7765
1218.84	28.0074
1219.94	24.5006
1221.03	24.3152
1222.13	21.3827
1223.23	24.2524
1224.32	24.9832
1225.42	21.7342
1226.52	26.3238
1227.61	21.4602
1228.71	23.8031
1229.8	24.9129
1230.9	22.1443
1231.99	22.9951
1233.09	25.4847
1234.18	24.6251
1235.28	25.2258
1236.37	23.9765
1237.47	25.0007
1238.56	24.3715
1239.65	28.1143
1240.75	22.722
1241.84	24.9704
1242.93	23.697
1244.03	23.1319
1245.12	24.5485
1246.21	23.8767
1247.31	23.1994
1248.4	24.9146
1249.49	24.5455
1250.58	25.0816
1251.67	22.481
1252.77	23.1037
1253.86	26.0422
1254.95	27.6257
1256.04	25.7169
1257.13	24.2762
1258.22	25.533
1259.31	23.3285
1260.4	24.9313
1261.49	26.2345
1262.58	23.4162
1263.67	24.3371
1264.76	22.1644
1265.85	23.5
1266.94	25.4115
1268.03	25.4083
1269.12	23.754
1270.21	22.8237
1271.3	24.9364
1272.39	23.4714
1273.47	23.7162
1274.56	25.0167
1275.65	24.9635
1276.74	24.4552
1277.83	23.1216
1278.91	23.0412
1280	24.599
1281.09	26.4137
1282.17	25.9598
1283.26	23.2092
1284.35	23.3312
1285.43	21.0174
1286.52	22.827
1287.61	25.8369
1288.69	25.7962
1289.78	25.7932
1290.86	24.1004
1291.95	23.9345
1293.03	22.8154
1294.12	23.3513
1295.2	22.8228
1296.29	24.4194
1297.37	23.3501
1298.46	22.8599
1299.54	23.4035
1300.63	22.9466
1301.71	24.3695
1302.79	24.6211
1303.88	23.7485
1304.96	22.9673
1306.04	22.7883
1306.5	23
1307.59	22
1308.68	24.5
1309.76	26
1310.85	22
1311.94	21.5
1313.03	26
1314.11	25
1315.2	26.5
1316.29	25.5
1317.37	23.5
1318.46	21.5
1319.55	25.5
1320.63	26
1321.72	25
1322.81	26
1323.89	25.5
1324.98	23
1326.06	20.5
1327.15	27.5
1328.23	25
1329.32	27
1330.4	22.5
1331.49	25
1332.57	21
1333.66	26.5
1334.74	25.5
1335.82	26.5
1336.91	26
1337.99	23
1339.07	27.5
1340.16	21.5
1341.24	25.5
1342.32	24.5
1343.4	25
1344.49	22
1345.57	24
1346.65	23.5
1347.73	23
1348.82	18.5
1349.9	24
1350.98	21.5
1352.06	27
1353.14	24.5
1354.22	27
1355.3	26
1356.38	26.5
1357.46	22.5
1358.54	26
1359.62	25.5
1360.7	22
1361.78	24
1362.86	24.5
1363.94	25.5
1365.02	27
1366.1	26.5
1367.18	24
1368.26	23
1369.34	25.5
1370.41	22
1371.49	23.5
1372.57	26
1373.65	20.5
1374.72	24.5
1375.8	23
1376.88	26
1377.96	26
1379.03	26.5
1380.11	26.5
1381.19	22.5
1382.26	20.5
1383.34	26
1384.42	27.5
1385.49	26.5
1386.57	27
1387.64	23
1388.72	22
1389.79	29
1390.87	21.5
1391.94	26
1393.02	26.5
1394.09	27
1395.17	28
1396.24	25
1397.31	24.5
1398.39	26
1399.46	29
1400.54	25.5
1401.61	27.5
1402.68	26
1403.76	23.5
1404.83	26.5
1405.9	24
1406.97	24
1408.05	25.5
1409.12	28.5
1410.19	26.5
1411.26	24.5
1412.33	24
1413.4	23
1414.48	31.5
1415.55	24
1416.62	25.5
1417.69	25
1418.76	27.5
1419.83	21
1420.9	23.5
1421.97	25
1423.04	25
1424.11	23.5
1425.18	27.5
1426.25	23
1427.32	24
1428.39	22
1429.46	29
1430.52	26.5
1431.59	29
1432.66	23.5
1433.73	26
1434.8	29
1435.87	27
1436.93	24.5
1438	22
1439.07	24.5
1440.14	26.5
1441.2	23
1442.27	25
1443.34	23
1444.4	26.5
1445.47	23.5
1446.54	23
1447.6	25
1448.67	23.5
1449.73	26
1450.8	21
1451.86	23.5
1452.93	23
1453.99	24
1455.06	26
1456.12	21.5
1457.19	22
1458.25	24
1459.32	26.5
1460.38	23
1461.45	22
1462.51	27
1463.57	27
1464.64	22
1465.7	25
1466.76	26
1467.82	24.5
1468.89	23
1469.95	23.5
1471.01	21.5
1472.07	25.5
1473.14	27.5
1474.2	23.5
1475.26	27
1476.32	24
1477.38	23
1478.44	25.5
1479.5	24
1480.57	23.5
1481.63	23
1482.69	27.5
1483.75	23.5
1484.81	26
1485.87	23
1486.93	26
1487.99	24.5
1489.05	28.5
1490.1	24.5
1491.17	25
1492.22	26.5
1493.28	25
1494.34	26.5
1495.4	25
1496.46	25
1497.52	25
1498.57	25.5
1499.63	22
1500.69	23
1501.75	26
1502.8	24
1503.86	22.5
1504.92	25
1505.98	26.5
1507.03	23
1508.09	27.5
1509.15	25.5
1510.2	25.5
1511.26	24.5
1512.31	27
1513.37	24
1514.42	20.5
1515.48	24.5
1516.53	24
1517.59	27
1518.64	26.5
1519.7	26
1520.75	23
1521.81	25
1522.86	24.5
1523.92	23
1524.97	24.5
1526.02	23.5
1527.08	27
1528.13	24
1529.18	23.5
1530.24	30
1531.29	25.5
1532.34	29
1533.39	25.5
1534.45	26
1535.5	24.5
1536.55	27
1537.6	27
1538.65	28.5
1539.71	22.5
1540.76	25.5
1541.81	27
1542.86	26
1543.91	23
1544.96	25.5
1546.01	24
1547.06	25
1548.11	25
1549.16	24
1550.21	25
1551.26	22.5
1552.31	26
1553.36	27
1554.41	26.5
1555.46	25
1556.51	24.5
1557.56	26.5
1558.6	24.5
1559.65	26
1560.7	26.5
1561.75	22
1562.8	25.5
1563.84	23
1564.89	23.5
1565.94	21.5
1566.99	21
1568.03	26
1569.08	25.5
1570.13	27
1571.17	24.5
1572.22	26
1573.27	25.5
1574.31	26
1575.36	27.5
1576.4	23
1577.45	25.5
1578.5	23
1579.54	26
1580.59	25
1581.63	28.5
1582.68	23.5
1583.72	21.5
1584.76	26
1585.81	27.5
1586.85	25.5
1587.9	23
1588.94	24.5
1589.98	23
1591.03	24.5
1592.07	20.5
1593.11	25
1594.16	26
1595.2	22
1596.24	27
1597.29	22
1598.33	24
1599.37	23
1600.41	24.5
1601.45	21.5
1602.49	26.5
1603.54	22.5
1604.58	21
1605.62	25.5
1606.66	29.5
1607.7	27.5
1608.74	25
1609.78	26
1610.82	27
1611.86	24
1612.9	28.5
1613.94	23
1614.98	26
1616.02	25.5
1617.06	26
1618.1	28.5
1619.14	25
1620.18	28.5
1621.22	22.5
1622.25	22.5
1623.29	22
1624.33	24
1625.37	24.5
1626.41	23
1627.45	24
1628.48	21.5
1629.52	28
1630.56	29
1631.59	24.5
1632.63	24.5
1633.67	25.5
1634.7	24
1635.74	28.5
1636.78	25
1637.81	27
1638.85	24
1639.88	22
1640.92	29
1641.96	24.5
1642.99	20
1644.03	25
1645.06	28
1646.1	23.5
1647.13	25
1648.17	27.5
1649.2	25
1650.23	24.5
1651.27	27
1652.3	22.5
1653.33	24
1654.37	24.5
1655.4	22
1656.44	21.5
1657.47	22.5
1658.5	25
1659.53	26.5
1660.57	24
1661.6	23.5
1662.63	22.5
1663.66	23.5
1664.69	25.5
1665.73	23.5
1666.76	25.5
1667.79	21.5
1668.82	22.5
1669.85	28
1670.88	24.5
1671.91	25
1672.94	24.5
1673.97	26
1675.01	23.5
1676.03	25
1677.07	22
1678.1	25
1679.12	26.5
1680.15	22
1681.18	25.5
1682.21	26
1683.24	28.5
1684.27	25
1685.3	28
1686.33	26
1687.36	24
1688.38	21.5
1689.41	24.5
1690.44	23.5
1691.47	26.5
1692.5	23
1693.52	29.5
1694.55	26.5
1695.58	27
1696.6	22
1697.63	24.5
1698.66	24.5
1699.68	25
1700.71	26.5
1701.74	28.5
1702.76	24.5
1703.79	25
1704.81	25
1705.84	25
1706.86	24.5
1707.89	21
1708.91	24.5
1709.94	25.5
1710.96	23
1711.99	22.5
1713.01	26
1714.04	26
1715.06	25
1716.08	24
1717.11	26.5
1718.13	29.5
1719.16	25
1720.18	26
1721.2	27
1722.22	29.5
1723.25	24
1724.27	24
1725.29	25.5
1726.31	25.5
1727.34	25
1728.36	21.5
1729.38	28.5
1730.4	24
1731.42	24
1732.44	23
1733.47	24
1734.49	25
1735.51	25.5
1736.53	22
1737.55	26
1738.57	29
1739.59	27
1740.61	23
1741.63	27
1742.65	25
1743.67	22.5
1744.69	26
1745.71	26
1746.73	25
1747.75	29
1748.76	25.5
1749.78	25.5
1750.8	24
1751.82	25.5
1752.84	26
1753.86	25
1754.87	26.5
1755.89	21.5
1756.91	28.5
1757.93	25.5
1758.94	25
1759.96	20
1760.98	24.5
1761.99	27
1763.01	25
1764.03	28
1765.04	25
1766.06	26.5
1767.08	27.5
1768.09	24
1769.11	24.5
1770.12	27.5
1771.14	27
1772.15	23.5
1773.17	21.5
1774.18	21.5
1775.2	26
1776.21	26.5
1777.23	23.5
1778.24	26.5
1779.25	28.5
1780.27	22.5
1781.28	23.5
1782.3	19
1783.31	24
1784.32	25
1785.34	22
1786.35	21.5
1787.36	25
1788.37	25
1789.39	26
1790.4	24.5
1791.41	25.5
1792.42	27
1793.43	26.5
1794.45	25.5
1795.46	23
1796.47	23.5
1797.48	28
1798.49	25.5
1799.5	24
1800.51	22
1801.52	28.5
1802.53	23
1803.54	22.5
1804.55	25
1805.56	28
1806.57	26
1807.58	23
1808.59	23
1809.6	22
1810.61	28
1811.62	23.5
1812.63	24.5
1813.64	25.5
1814.65	26
1815.66	27
1816.66	26
1817.67	21.5
1818.68	25.5
1819.69	21
1820.69	25.5
1821.7	25
1822.71	27
1823.72	28
1824.72	26
1825.73	24.5
1826.74	24.5
1827.74	19.5
1828.75	25.5
1829.76	24.5
1830.76	24
1831.77	26.5
1832.77	27
1833.78	21.5
1834.79	23.5
1835.79	24.5
1836.8	24
1837.8	22.5
1838.81	23.5
1839.81	25
1840.81	25.5
1841.82	24.5
1842.82	26.5
1843.83	26
1844.83	24
1845.83	22.5
1846.84	22
1847.84	25
1848.84	23
1849.85	26
1850.85	23
1851.85	24
1852.86	24.5
1853.86	25.5
1854.86	27.5
1855.86	23
1856.86	24
1857.87	25.5
1858.87	23
1859.87	23
1860.87	27
1861.87	27
1862.87	23
1863.88	26.5
1864.88	27
1865.88	25.5
1866.88	31.5
1867.88	26
1868.88	21.5
1869.88	24.5
1870.88	26.5
1871.88	23
1872.88	22.5
1873.88	21
1874.87	26
1875.87	25.5
1876.87	26
1877.87	23
1878.87	23
1879.87	25
1880.87	25
1881.86	22.5
1882.86	28.5
1883.86	22.5
1884.86	26
1885.86	23
1886.85	24
1887.85	24.5
1888.85	24
1889.84	19
1890.84	24
1891.84	22
1892.83	26.5
1893.83	25.5
1894.83	25.5
1895.82	24.5
1896.82	28
1897.81	24
1898.81	25
1899.81	22
1900.8	21
1901.8	22.5
1902.79	22.5
1903.78	25.5
1904.78	26
1905.77	23.5
1906.77	22
1907.76	26
1908.76	26.5
1909.75	25.5
1910.74	28
1911.74	28
1912.73	26
1913.72	23.5
1914.72	26.5
1915.71	22.5
1916.7	26
1917.7	26
1918.69	28.5
1919.68	21.5
1920.67	23.5
1921.66	28
1922.66	27
1923.65	25.5
1924.64	24.5
1925.63	25.5
1926.62	23.5
1927.61	27.5
1928.6	25
1929.59	25
1930.59	22.5
1931.58	24.5
1932.57	27
1933.56	24
1934.55	23
1935.54	25.5
1936.53	22.5
1937.52	26.5
1938.51	20.5
1939.49	24.5
1940.48	22.5
1941.47	21.5
1942.46	22.5
1943.45	25
1944.44	27.5
1945.43	23
1946.42	25
1947.4	26
1948.39	26
1949.38	25.5
1950.37	23.5
1951.35	23
1952.34	20.5
1953.33	25.5
1954.31	22.5
1955.3	23
1956.29	24
1957.27	24
1958.26	28
1959.25	26
1960.23	23.5
1961.22	25
1962.21	28
1963.19	25.5
1964.18	24
1965.16	25.5
1966.15	26
1967.13	25.5
1968.12	25
1969.1	27
1970.09	25
1971.07	23
1972.05	27
1973.04	25.5
1974.02	25
1975.01	24
1975.99	27
1976.97	22.5
1977.96	24.5
1978.94	21
1979.92	24
1980.91	23
1981.89	19
1982.87	25
1983.85	21
1984.84	25
1985.82	25
1986.8	22
1987.78	28
1988.76	22
1989.74	22
1990.73	25.5
1991.71	23.5
1992.69	24
1993.67	25
1994.65	22
1995.63	23.5
1996.61	23
1997.59	26.5
1998.57	24
1999.55	28
2000.53	24
2001.51	25.5
2002.49	28.5
2003.47	23.5
2004.45	26
2005.43	23
2006.41	25.5
2007.39	23.5
2008.37	23
2009.34	25
2010.32	22.5
2011.3	23
2012.28	26.5
2013.26	25
2014.23	22
2015.21	24.5
2016.19	23.5
2017.17	25
2018.14	21
2019.12	23
2020.1	25
2021.07	23
2022.05	24
2023.03	24
2024	21.5
2024.98	24.5
2025.96	22
2026.93	23.5
2027.91	24
2028.88	25.5
2029.86	23
2030.83	23
2031.81	24.5
2032.78	23
2033.76	24
2034.73	22
2035.71	25
2036.68	17
2037.66	25
2038.63	29
2039.6	23.5
2040.58	19.5
2041.55	26
2042.52	25
2043.5	23
2044.47	22.5
2045.44	25
2046.42	24.5
2047.39	27.5
2048.36	20
2049.33	19
2050.31	26
2051.28	26.5
2052.25	23.5
2053.22	23
2054.19	21.5
2055.17	24.5
2056.14	24
2057.11	24
2058.08	21.5
2059.05	23
2060.02	21.5
2060.99	24.5
2061.96	27.5
2062.93	20.5
2063.9	18
2064.87	26
2065.84	24.5
2066.81	23
2067.78	24
2068.75	20.5
2069.72	24.5
2070.69	23.5
2071.66	22.5
2072.63	24.5
2073.6	20
2074.56	25
2075.53	27
2076.5	16
2077.47	25
2078.44	22
2079.4	22
2080.37	24
2081.34	22.5
2082.31	25
2083.27	24
2084.24	20
2085.21	25
2086.18	23
2087.14	20
2088.11	25
2089.07	24.5
2090.04	27.5
2091.01	22.5
2091.97	22.5
2092.94	28
2093.9	25
2094.87	20.5
2095.83	23
2096.8	22
2097.76	24
2098.73	24.5
2099.69	21.5
2100.66	22
2101.62	23.5
2102.59	21
2103.55	26
2104.52	29
2105.48	22.5
2106.44	25
2107.41	22
2108.37	26
2109.33	25
2110.3	26
2111.26	22.5
2112.22	18
2113.18	23.5
2114.15	22
2115.11	26
2116.07	23
2117.03	28.5
2118	22
2118.96	26.5
2119.92	25.5
2120.88	25
2121.84	21
2122.8	23.5
2123.76	27
2124.72	27
2125.68	21
2126.65	25
2127.61	27
2128.57	26
2129.53	22
2130.49	25.5
2131.45	22.5
2132.41	22
2133.36	21.5
2134.32	25
2135.28	26
2136.24	29
2137.2	21
2138.16	23.5
2139.12	23.5
2140.08	22.5
2141.04	22
2141.99	23
2142.95	21.498
2143.91	24.942
2144.87	22.585
2145.83	24.0306
2146.78	19.1431
2147.74	22.4676
2148.7	23.3999
2149.66	22.3337
2150.61	25.7817
2151.57	22.1678
2152.53	19.7208
2153.48	24.6833
2154.44	17.2477
2155.4	23.9313
2156.35	19.2347
2157.31	20.3472
2158.26	24.0663
2159.22	20.7107
2160.17	24.6695
2161.13	24.0534
2162.08	23.2039
2163.04	22.885
2163.99	23.8945
2164.95	23.0511
2165.9	24.2365
2166.86	25.0352
2167.81	23.3015
2168.77	23.9998
2169.72	21.4179
2170.67	25.4071
2171.63	23.3049
2172.58	22.5465
2173.54	23.4565
2174.49	23.7439
2175.44	22.6139
2176.39	24.8574
2177.35	23.1446
2178.3	23.257
2179.25	22.39
2180.2	24.0408
2181.16	21.0154
2182.11	23.1942
2183.06	20.9068
2184.01	21.5995
2184.96	20.1704
2185.92	22.5652
2186.87	24.2889
2187.82	21.7209
2188.77	21.5216
2189.72	22.7652
2190.67	22.0685
2191.62	20.8763
2192.57	23.8366
2193.52	21.1599
2194.47	21.4101
2195.42	24.3428
2196.37	24.9608
2197.32	24.2249
2198.27	20.9177
2199.22	24.5413
2200.17	21.3926
2201.12	23.0993
2202.07	22.1719
2203.02	23.1505
2203.97	22.7657
2204.92	22.7498
2205.87	22.5968
2206.81	24.1231
2207.76	21.0878
2208.71	22.8185
2209.66	22.0653
2210.61	24.5513
2211.55	22.8765
2212.5	22.1456
2213.45	21.8404
2214.4	23.1331
2215.34	23.1445
2216.29	21.3795
2217.24	21.0892
2218.18	23.9488
2219.13	22.2039
2220.08	24.8472
2221.02	20.3506
2221.97	20.062
2222.92	24.309
2223.86	23.0439
2224.81	20.9839
2225.75	21.3501
2226.7	22.3653
2227.64	22.1311
2228.59	21.7351
2229.53	20.6318
2230.48	21.0752
2231.42	26.4019
2232.37	24.1504
2233.31	23.6359
2234.26	25.5773
2235.2	25.7063
2236.14	25.1352
2237.09	21.4246
2238.03	21.4977
2238.97	25.8549
2239.92	26.9087
2240.05	27
2241	23
2241.95	24
2242.89	24.5
2243.84	23
2244.79	21
2245.74	23.5
2246.68	25
2247.63	23
2248.58	17
2249.53	23
2250.47	23.5
2251.42	21
2252.36	21
2253.31	23.5
2254.26	26.5
2255.2	21.5
2256.15	23
2257.1	23
2258.04	19
2258.99	23
2259.93	23.5
2260.88	25.5
2261.82	24.5
2262.77	23
2263.71	18
2264.66	20.5
2265.6	24
2266.55	21.5
2267.49	25
2268.43	28
2269.38	22
2270.32	24.5
2271.26	25
2272.21	25
2273.15	21.5
2274.09	24.5
2275.04	21
2275.98	21
2276.92	21
2277.87	24.5
2278.81	23.5
2279.75	23
2280.69	23
2281.64	24.5
2282.58	23
2283.52	24
2284.46	22.5
2285.4	23.5
2286.34	25.5
2287.29	24
2288.23	26
2289.17	21
2290.11	23.5
2291.05	21.5
2291.99	20.5
2292.93	20
2293.87	25
2294.81	21.5
2295.75	21
2296.69	19.5
2297.63	25
2298.57	24.5
2299.51	24
2300.45	21.5
2301.39	19
2302.33	23
2303.27	22.5
2304.2	20.5
2305.14	23
2306.08	21.5
2307.02	22.5
2307.96	25
2308.9	20
2309.83	18.5
2310.77	24
2311.71	26.5
2312.65	22
2313.58	22.5
2314.52	21
2315.46	25
2316.39	23
2317.33	24
2318.27	24
2319.21	22.5
2320.14	25.5
2321.08	24
2322.01	28
2322.95	22
2323.89	24
2324.82	22.5
2325.76	20
2326.69	24
2327.63	22
2328.56	22
2329.5	22.5
2330.43	21.5
2331.37	22.5
2332.3	25.5
2333.24	27.5
2334.17	21
2335.1	24
2336.04	23.5
2336.97	27
2337.91	25
2338.84	25
2339.77	24.5
2340.71	20.5
2341.64	22
2342.57	22.5
2343.51	23.5
2344.44	24.5
2345.37	22
2346.3	22.5
2347.24	28
2348.17	21.5
2349.1	21
2350.03	21
2350.96	23
2351.89	19
2352.83	23.5
2353.76	25
2354.69	24
2355.62	23
2356.55	26
2357.48	22.5
2358.41	26
2359.34	22
2360.27	23
2361.2	19
2362.13	24
2363.06	26
2363.99	23.5
2364.92	25
2365.85	26
2366.78	20.5
2367.71	22
2368.64	24
2369.57	24
2370.5	19.5
2371.43	26
2372.36	24
2373.28	24.5
2374.21	24
2375.14	26
2376.07	22
2377	26
2377.93	23.5
2378.85	25.5
2379.78	23
2380.71	21
2381.63	26
2382.56	24
2383.49	23.5
2384.42	26
2385.34	25.5
2386.27	23
2387.2	22
2388.12	24
2389.05	20.5
2389.97	23
2390.9	23.5
2391.82	19.5
2392.75	27.5
2393.68	25
2394.6	24
2395.53	21
2396.45	24
2397.38	24
2398.3	26.5
2399.23	20.5
2400.15	25.5
2401.07	23
2402	26
2402.92	27
2403.85	22.5
2404.77	25.5
2405.69	25
2406.62	25
2407.54	22
2408.46	22.5
2409.39	27.5
2410.31	19.5
2411.23	26.5
2412.16	26
2413.08	23
2414	22
2414.92	21.5
2415.85	23
2416.77	25
2417.69	27
2418.61	27
2419.53	22.5
2420.45	23.5
2421.38	25
2422.3	27
2423.22	21.5
2424.14	26
2425.06	21
2425.98	21
2426.9	24
2427.82	25
2428.74	26.5
2429.66	25
2430.58	25
2431.5	25.5
2432.42	25
2433.34	24.5
2434.26	25.5
2435.18	24
2436.1	25.5
2437.02	24
2437.94	24.5
2438.85	23.5
2439.77	21.5
2440.69	22
2441.61	25
2442.53	25.5
2443.45	27
2444.36	23
2445.28	20
2446.2	25
2447.12	22.5
2448.03	23
2448.95	25.5
2449.87	24
2450.79	22.5
2451.7	23.5
2452.62	24
2453.54	24
2454.45	20
2455.37	24
2456.28	26.5
2457.2	23
2458.12	24
2459.03	26
2459.95	26
2460.86	21
2461.78	26.5
2462.69	26
2463.61	21
2464.52	25.5
2465.44	26
2466.35	25.5
2467.27	26
2468.18	25.5
2469.1	25.5
2470.01	27
2470.93	24
2471.84	26
2472.75	24
2473.67	21.5
2474.58	24
2475.49	24
2476.41	23.5
2477.32	24.5
2478.23	25
2479.15	26
2480.06	24
2480.97	23.5
2481.88	25
2482.79	25.5
2483.71	19.5
2484.62	23
2485.53	24
2486.44	21.5
2487.35	20.5
2488.26	26.5
2489.18	23.5
2490.09	25
2491	24
2491.91	27
2492.82	24
2493.73	23.5
2494.64	20
2495.55	20
2496.46	25
2497.37	25.5
2498.28	23.5
2499.19	21.5
2500.1	23.5
2501.01	26.5
2501.92	22.5
2502.83	27.5
2503.74	20.5
2504.65	26.5
2505.56	22
2506.47	24.5
2507.37	25
2508.28	24
2509.19	25.5
2510.1	24
2511.01	28
2511.92	25
2512.82	21
2513.73	24
2514.64	23.5
2515.55	24.5
2516.45	24.5
2517.36	27
2518.27	24.5
2519.17	24
2520.08	23
2520.99	23
2521.89	27
2522.8	22
2523.71	23
2524.61	24.5
2525.52	24
2526.42	20
2527.33	27
2528.24	25
2529.14	27
2530.05	25.5
2530.95	22
2531.86	24
2532.76	24.5
2533.67	23.5
2534.57	25
2535.48	23.5
2536.38	27
2537.28	24
2538.19	22.5
2539.09	24
2540	26
2540.9	27.5
2541.8	24
2542.71	25.5
2543.61	27
2544.51	20
2545.42	24
2546.32	26
2547.22	27
2548.12	21
2549.03	25
2549.93	23
2550.83	26
2551.73	22
2552.63	23
2553.54	24
2554.44	25.5
2555.34	26.5
2556.24	22.5
2557.14	21.5
2558.04	26
2558.94	26
2559.85	22.5
2560.75	22.5
2561.65	24
2562.55	26
2563.45	25
2564.35	27
2565.25	25.5
2566.15	26.5
2567.05	21.5
2567.95	24.5
2568.85	24.5
2569.75	22.5
2570.65	24.5
2571.55	27
2572.44	23.5
2573.34	26
2574.24	28
2575.14	23
2576.04	22.5
2576.94	23
2577.84	25
2578.73	26.5
2579.63	21
2580.53	21.5
2581.43	25.5
2582.33	23
2583.22	25.5
2584.12	25.5
2585.02	24.5
2585.91	24.5
2586.81	26.5
2587.71	26
2588.6	22
2589.5	25.5
2590.4	26.5
2591.29	26
2592.19	24.5
2593.09	25
2593.98	24
2594.88	19.5
2595.77	25
2596.67	23
2597.56	23.5
2598.46	23
2599.35	25.5
2600.25	26
2601.14	22.5
2602.04	28.5
2602.93	23.5
2603.83	23.5
2604.72	28
2605.62	26
2606.51	23.5
2607.4	27.5
2608.3	25
2609.19	26
2610.09	26
2610.98	25
2611.87	23
2612.76	24
2613.66	23.5
2614.55	23.5
2615.44	24.5
2616.34	20
2617.23	24
2618.12	26
2619.01	24
2619.9	23.5
2620.8	24
2621.69	24
2622.58	25
2623.47	25.5
2624.36	26.5
2625.25	24.5
2626.15	22.5
2627.04	23.5
2627.93	21.5
2628.82	26
2629.71	26.5
2630.6	24
2631.49	20.5
2632.38	18.5
2633.27	23
2634.16	26
2635.05	24
2635.94	22.5
2636.83	22.5
2637.72	25
2638.61	25.5
2639.5	27
2640.39	22
2641.28	26
2642.16	21.5
2643.05	27
2643.94	22
2644.83	25
2645.72	24
2646.61	22.5
2647.49	22
2648.38	27.5
2649.27	25.5
2650.16	22
2651.05	26
2651.93	27
2652.82	25.5
2653.71	23
2654.59	26.5
2655.48	22.5
2656.37	25
2657.25	25
2658.14	27
2659.03	23.5
2659.91	21.5
2660.8	20.5
2661.69	26.5
2662.57	27
2663.46	24.5
2664.34	19.5
2665.23	25.5
2666.11	19.5
2667	26.5
2667.88	18.5
2668.77	23.5
2669.65	25
2670.54	20.5
2671.42	25.5
2672.31	27.5
2673.19	22
2674.08	26.5
2674.96	24
2675.84	25.5
2676.73	22
2677.61	22
2678.49	22.5
2679.38	24.5
2680.26	25
2681.14	28
2682.03	28
2682.91	29.5
2683.79	26
2684.68	28
2685.56	24
2686.44	27.5
2687.32	23.5
2688.2	25
2689.09	30.5
2689.97	22.5
2690.85	24
2691.73	23
2692.61	28
2693.49	27
2694.38	24
2695.26	23
2696.14	24
2697.02	23.5
2697.9	22
2698.78	24
2699.66	24.5
2700.54	27
2701.42	24
2702.3	25.5
2703.18	24.5
2704.06	25.5
2704.94	22
2705.82	21
2706.7	23
2707.58	23
2708.46	23.5
2709.34	24.5
2710.21	23
2711.09	26
2711.97	24
2712.85	24
2713.73	26
2714.61	22
2715.49	25
2716.36	27.5
2717.24	24
2718.12	25
2719	27
2719.87	25
2720.75	26.5
2721.63	25
2722.51	26
2723.38	22
2724.26	28
2725.14	20.5
2726.01	26
2726.89	25
2727.77	27.5
2728.64	21.5
2729.52	21.5
2730.39	26
2731.27	27
2732.15	27.5
2733.02	31
2733.9	25.5
2734.77	24.5
2735.65	24.5
2736.52	24
2737.4	25
2738.27	21.5
2739.15	25
2740.02	24
2740.89	23
2741.77	23.5
2742.64	23.5
2743.52	23
2744.39	27.5
2745.27	19
2746.14	26.5
2747.01	22.5
2747.89	23
2748.76	21
2749.63	22.5
2750.51	24
2751.38	24.5
2752.25	22
2753.12	25.5
2754	25.5
2754.87	24
2755.74	26
2756.61	23.5
2757.48	23
2758.36	24
2759.23	22.5
2760.1	30
2760.97	24
2761.84	26.5
2762.71	27.5
2763.59	24.5
2764.46	23.5
2765.33	23
2766.2	23
2767.07	23.5
2767.94	24.5
2768.81	22
2769.68	28
2770.55	22.5
2771.42	24.5
2772.29	22
2773.16	23.5
2774.03	27
2774.9	25
2775.77	25
2776.64	25
2777.51	24.5
2778.37	23
2779.24	22
2780.11	25
2780.98	25
2781.85	25
2782.72	25
2783.59	23
2784.45	25
2785.32	26.5
2786.19	23.5
2787.06	25
2787.92	21
2788.79	20
2789.66	26
2790.53	25.5
2791.39	21.5
2792.26	25.5
2793.13	25
2793.99	25.5
2794.86	25
2795.73	25.5
2796.59	26
2797.46	24.5
2798.33	23
2799.19	28.5
2800.06	26
2800.92	25.5
2801.79	23.5
2802.65	25.5
2803.52	25
2804.39	24.5
2805.25	22
2806.11	27
2806.98	23
2807.84	23
2808.71	21
2809.57	30
2810.44	22.5
2811.3	24
2812.17	26
2813.03	28.5
2813.89	26.5
2814.76	26
2815.62	22
2816.49	24.5
2817.35	24.5
2818.21	24
2819.07	26
2819.94	27
2820.8	21
2821.66	22
2822.53	25.5
2823.39	20
2824.25	22.5
2825.11	23
2825.97	25
2826.84	25.5
2827.7	28.5
2828.56	23.5
2829.42	30
2830.28	28
2831.14	23
2832.01	24
2832.87	22.5
2833.73	26.5
2834.59	25
2835.45	25.5
2836.31	24.5
2837.17	28.5
2838.03	23
2838.89	26.5
2839.75	24
2840.61	22
2841.47	27
2842.33	20.5
2843.19	26
2844.05	21
2844.91	25
2845.77	21.5
2846.63	25
2847.48	22
2848.34	26
2849.2	28
2850.06	23
2850.92	20
2851.78	22.5
2852.64	20.5
2853.49	26
2854.35	25.5
2855.21	22.5
2856.07	24
2856.93	28
2857.78	26
2858.64	21
2859.5	26
2860.35	21
2861.21	19
2862.07	23.5
2862.93	27.5
2863.78	23.5
2864.64	23
2865.49	25.5
2866.35	26
2867.21	20
2868.06	24
2868.92	23
2869.77	21.5
2870.63	24
2871.49	23.5
2872.34	24.5
2873.2	27
2874.05	22.5
2874.91	25
2875.76	27.5
2876.62	27.5
2877.47	24.5
2878.32	28.5
2879.18	28
2880.03	23.5
2880.89	26.5
2881.74	26
2882.6	24.5
2883.45	26
2884.3	24
2885.16	30.5
2886.01	26
2886.86	27
2887.72	24
2888.57	26
2889.42	28.5
2890.27	28
2891.13	25.5
2891.98	28
2892.83	25.5
2893.68	30
2894.54	24
2895.39	27
2896.24	29.5
2897.09	26.5
2897.94	32
2898.8	31
2899.65	32.5
2900.5	35.5
2901.35	33
2902.2	35.5
2903.05	36.5
2903.9	33
2904.75	38.5
2905.6	39.5
2906.45	33.5
2907.3	34
2908.15	33
2909.01	31
2909.85	33.5
2910.7	30.5
2911.55	31.5
2912.4	30
2913.25	27.5
2914.1	30.5
2914.95	34.5
2915.8	29
2916.65	27
2917.5	28
2918.35	27
2919.2	25.5
2920.04	22
2920.89	26.5
2921.74	29.5
2922.59	23
2923.44	24.5
2924.29	26
2925.13	27.5
2925.98	25
2926.83	26.5
2927.68	24
2928.52	23.5
2929.37	24.5
2930.22	22
2931.06	25.5
2931.91	26
2932.76	24.5
2933.6	26.5
2934.45	28
2935.3	23
2936.14	25.5
2936.99	26.5
2937.83	26
2938.68	23.5
2939.53	23.5
2940.37	26
2941.22	25
2942.06	26.5
2942.91	27
2943.75	21
2944.6	26
2945.44	25.5
2946.29	26
2947.13	24
2947.98	22
2948.82	26.5
2949.66	25.5
2950.51	21.5
2951.35	21.5
2952.2	24.5
2953.04	25.5
2953.88	26.5
2954.73	20.5
2955.57	23.5
2956.41	30
2957.26	25
2958.1	27
2958.94	28.5
2959.79	28.5
2960.63	30.5
2961.47	26
2962.31	28.5
2963.15	30
2964	29
2964.84	27
2965.68	26.5
2966.52	23
2967.37	28.5
2968.21	28
2969.05	25.5
2969.89	25.5
2970.73	24
2971.57	29.4782
2972.41	20.966
2973.25	26.4683
2974.09	26.0912
2974.93	25.5947
2975.77	26.4826
2976.62	26.413
2977.46	24.0909
2978.3	25.6264
2979.14	24.6039
2979.98	21.9784
2980.81	21.1592
2981.65	26.7621
2982.49	24.4725
2983.33	25.5991
2984.17	22.4406
2985.01	24.8631
2985.85	18.7188
2986.69	24.5803
2987.53	28.1071
2988.37	22.879
2989.21	24.9149
2990.04	21.2816
2990.88	20.7702
2991.72	23.719
2992.56	21.954
2993.4	21.7192
2994.23	24.4841
2995.07	23.7891
2995.91	24.2873
2996.75	23.4074
2997.58	24.9613
2998.42	22.8295
2999.26	24.9571
3000.1	20.2758
3000.93	21.2666
3001.77	21.9637
3002.61	24.6359
3003.44	22.5669
3004.28	22.6505
3005.11	21.2495
3005.95	23.1324
3006.79	22.871
3007.62	21.124
3008.46	23.3648
3009.29	22.6273
3010.13	20.6958
3010.97	24.1716
3011.8	23.2292
3012.64	21.6191
3013.47	23.0836
3014.31	22.5904
3015.14	22.1617
3015.98	21.2121
3016.81	24.6099
3017.64	24.244
3018.48	21.1618
3019.31	19.5974
3020.15	20.7305
3020.98	20.1877
3021.82	23.7597
3022.65	22.6277
3023.48	20.7529
3024.32	22.7061
3025.15	22.9345
3025.98	22.3669
3026.82	22.7431
3027.65	23.7595
3028.48	24.7143
3029.31	23.8332
3030.15	22.5295
3030.98	21.7191
3031.81	23.5357
3032.64	22.8741
3033.48	23.4684
3034.31	22.5532
3035.14	22.6255
3035.97	20.3091
3036.8	21.3412
3037.64	23.7994
3038.47	22.3113
3039.3	22.7747
3040.13	24.2171
3040.96	23.0664
3041.79	22.3522
3042.62	21.5572
3043.45	23.3775
3044.28	24.0752
3045.12	24
3045.95	22.6559
3046.78	21.7448
3047.61	21.711
3048.44	20.8742
3049.27	20.2542
3050.1	20.5036
3050.92	19.6655
3051.75	21.2038
3052.58	23.8171
3053.41	23.649
3054.24	22.78
3055.07	24.6357
3055.9	23.4126
3056.73	23.5803
3057.26	25.5
3058.09	20
3058.93	23.5
3059.76	23
3060.59	22
3061.43	24
3062.26	23
3063.09	24.5
3063.92	23.5
3064.76	24
3065.59	21
3066.42	21
3067.25	23
3068.08	21.5
3068.92	23
3069.75	16
3070.58	21.5
3071.41	23
3072.24	22.5
3073.07	23.5
3073.9	22.5
3074.73	23.5
3075.57	21.5
3076.4	24
3077.23	22
3078.06	22
3078.89	21
3079.72	22
3080.55	23
3081.38	22.5
3082.21	25
3083.04	22
3083.87	21
3084.7	22.5
3085.53	22
3086.36	22.5
3087.19	20
3088.01	21.5
3088.84	24.5
3089.67	21.5
3090.5	22
3091.33	24
3092.16	23
3092.99	22.5
3093.81	21
3094.64	24.5
3095.47	24
3096.3	24
3097.13	19
3097.95	20
3098.78	23.5
3099.61	22.5
3100.44	23
3101.26	23.5
3102.09	24.5
3102.92	25
3103.74	25.5
3104.57	23.5
3105.4	20
3106.22	23
3107.05	22
3107.88	23
3108.7	22
3109.53	21
3110.35	23.5
3111.18	20
3112.01	26
3112.83	21.5
3113.66	23
3114.48	25
3115.31	19
3116.13	20.5
3116.96	23
3117.78	21
3118.61	21.5
3119.43	22.5
3120.26	22
3121.08	20.5
3121.9	26
3122.73	24.5
3123.55	20.5
3124.38	21
3125.2	26
3126.02	24
3126.85	21.5
3127.67	22
3128.49	21
3129.32	22
3130.14	24
3130.96	23.5
3131.79	25.5
3132.61	23
3133.43	21.5
3134.25	23.5
3135.08	21
3135.9	22.5
3136.72	22.5
3137.54	24.5
3138.37	24.5
3139.19	23.5
3140.01	27
3140.83	25
3141.65	25.5
3142.47	22.5
3143.29	21.5
3144.12	23
3144.94	22
3145.76	25.5
3146.58	23.5
3147.4	21
3148.22	22
3149.04	21
3149.86	24
3150.68	26
3151.5	26.5
3152.32	20
3153.14	22
3153.96	26.5
3154.78	25.5
3155.6	22
3156.42	23
3157.24	20.5
3158.06	25.5
3158.88	23.5
3159.7	20.5
3160.51	23
3161.33	23
3162.15	25
3162.97	22.5
3163.79	22
3164.61	23
3165.42	24.5
3166.24	24
3167.06	24.5
3167.88	25
3168.7	23
3169.51	24
3170.33	24.5
3171.15	24.5
3171.97	21
3172.78	26
3173.6	24
3174.42	23.5
3175.23	20.5
3176.05	25.5
3176.87	19.5
3177.68	24
3178.5	26
3179.32	25.5
3180.13	23.5
3180.95	28
3181.76	23
3182.58	27.5
3183.4	20.5
3184.21	23
3185.03	24
3185.84	26.5
3186.66	22.5
3187.47	22
3188.29	23
3189.1	23
3189.92	24.5
3190.73	22.5
3191.55	28
3192.36	21
3193.17	22.5
3193.99	23.5
3194.8	23.5
3195.62	20.5
3196.43	27
3197.24	18
3198.06	23.5
3198.87	22.5
3199.68	23.5
3200.5	23
3201.31	22
3202.12	28
3202.94	24.5
3203.75	21
3204.56	24.5
3205.38	21
3206.19	22
3207	24.5
3207.81	24
3208.62	20.5
3209.44	23.5
3210.25	20.5
3211.06	22
3211.87	26
3212.68	23
3213.49	22
3214.31	28
3215.12	20
3215.93	24
3216.74	22
3217.55	26.5
3218.36	26
3219.17	23
3219.98	23
3220.79	22
3221.6	26
3222.41	26
3223.22	25
3224.03	27
3224.84	23.5
3225.65	21.5
3226.46	23
3227.27	23.5
3228.08	25.5
3228.89	24
3229.7	21
3230.51	30
3231.32	23
3232.13	22
3232.94	26
3233.74	26
3234.55	29.5
3235.36	21
3236.17	23.5
3236.98	22.5
3237.78	25
3238.59	27
3239.4	25
3240.21	25.5
3241.02	23
3241.82	22
3242.63	24.5
3243.44	25
3244.25	26
3245.05	25.5
3245.86	23
3246.67	26
3247.47	21
3248.28	22
3249.09	24.5
3249.89	24
3250.7	24.5
3251.5	23
3252.31	25.5
3253.12	26.5
3253.92	23.5
3254.73	22
3255.53	22
3256.34	24
3257.14	23
3257.95	25
3258.75	25.5
3259.56	26
3260.36	26.5
3261.17	25.5
3261.97	22
3262.78	22
3263.58	24.5
3264.39	22
3265.19	27
3265.99	21
3266.8	25
3267.6	27
3268.41	25
3269.21	26.5
3270.01	24
3270.82	21.5
3271.62	22.5
3272.42	24
3273.23	26
3274.03	22
3274.83	27
3275.64	19
3276.44	23
3277.24	23
3278.04	23
3278.85	26.5
3279.65	23
3280.45	25
3281.25	24
3282.05	26.5
3282.85	23
3283.66	25
3284.46	26
3285.26	26
3286.06	23.5
3286.86	24.5
3287.66	26
3288.46	22
3289.27	25.5
3290.07	24.5
3290.87	22.5
3291.67	25.5
3292.47	23
3293.27	20
3294.07	24
3294.87	27
3295.67	25
3296.47	25.5
3297.27	24
3298.07	26
3298.87	25
3299.67	22.5
3300.47	21.5
3301.26	25.5
3302.06	23.5
3302.86	25
3303.66	22.5
3304.46	21.5
3305.26	21.5
3306.06	22.5
3306.86	23.5
3307.65	22.5
3308.45	21
3309.25	21
3310.05	24
3310.85	23
3311.64	26.5
3312.44	24
3313.24	26.5
3314.04	25.5
3314.83	25
3315.63	23
3316.43	26
3317.22	22
3318.02	26.5
3318.82	24
3319.62	28
3320.41	25
3321.21	25
3322	21.5
3322.8	23
3323.6	26.5
3324.39	25
3325.19	26.5
3325.98	25
3326.78	26
3327.58	22.5
3328.37	24
3329.17	24.5
3329.96	25
3330.76	17
3331.55	24
3332.35	23
3333.14	20.5
3333.94	25
3334.73	23
3335.52	26
3336.32	24
3337.11	23.5
3337.91	27
3338.7	20.5
3339.5	25
3340.29	26
3341.08	28.5
3341.88	24
3342.67	22
3343.46	22
3344.26	23.5
3345.05	23.5
3345.84	25.5
3346.63	26
3347.43	24
3348.22	23
3349.01	22.5
3349.8	24
3350.6	23.5
3351.39	19
3352.18	27.5
3352.97	18.5
3353.77	23
3354.56	25
3355.35	21
3356.14	24.5
3356.93	24
3357.72	22.5
3358.51	23
3359.31	24
3360.1	24.5
3360.89	23
3361.68	24
3362.47	21
3363.26	27
3364.05	25
3364.84	25.5
3365.63	25.5
3366.42	26
3367.21	28
3368	23
3368.79	24.5
3369.58	24
3370.37	24.5
3371.16	26.5
3371.95	27
3372.74	23
3373.53	25.5
3374.32	21.5
3375.1	23.5
3375.89	27.5
3376.68	24.5
3377.47	23
3378.26	24
3379.05	26
3379.84	21.5
3380.62	23.5
3381.41	23.5
3382.2	23.5
3382.99	27.5
3383.78	21
3384.56	23.5
3385.35	28.5
3386.14	25
3386.93	23
3387.71	22.5
3388.5	27
3389.29	24.5
3390.07	24.5
3390.86	27.5
3391.65	25.5
3392.43	23
3393.22	22.5
3394.01	20.5
3394.79	26
3395.58	21.5
3396.36	24.5
3397.15	25.5
3397.94	23
3398.72	26
3399.51	24.5
3400.29	26
3401.08	22
3401.86	25
3402.65	26.5
3403.43	25.5
3404.22	25
3405	27.5
3405.79	19.5
3406.57	23
3407.36	27
3408.14	23.5
3408.93	25
3409.71	24
3410.49	20
3411.28	23
3412.06	25.5
3412.84	22.5
3413.63	24.5
3414.41	24.5
3415.2	25
3415.98	25.5
3416.76	24.5
3417.54	25
3418.33	22
3419.11	18.5
3419.89	28.5
3420.68	23.5
3421.46	22.5
3422.24	26
3423.02	27.5
3423.81	21
3424.59	19.5
3425.37	26
3426.15	24
3426.93	25.5
3427.71	26.5
3428.5	28.5
3429.28	21.5
3430.06	22
3430.84	25.5
3431.62	27
3432.4	26
3433.18	28
3433.96	25
3434.75	23.5
3435.53	24
3436.31	23
3437.09	24.5
3437.87	25
3438.65	25
3439.43	20
3440.21	23
3440.99	24.5
3441.77	25.5
3442.55	27
3443.33	25
3444.1	24
3444.88	28
3445.66	24
3446.44	25
3447.22	24
3448	21.5
3448.78	26
3449.56	24.5
3450.34	26.5
3451.11	24.5
3451.89	25.5
3452.67	22
3453.45	19.5
3454.23	20.5
3455	26
3455.78	26.5
3456.56	25.5
3457.34	25.5
3458.11	25
3458.89	23
3459.67	24.5
3460.45	23.5
3461.22	24.5
3462	23
3462.78	24
3463.55	24
3464.33	24.5
3465.11	26.5
3465.88	22.5
3466.66	21
3467.44	26
3468.21	26
3468.99	22
3469.76	24.5
3470.54	24.5
3471.32	25
3472.09	25.5
3472.87	23.5
3473.64	25
3474.42	26.5
3475.19	23
3475.97	28
3476.74	23.5
3477.52	26
3478.29	26
3479.07	27.5
3479.84	25
3480.61	23
3481.39	23
3482.16	25
3482.94	24
3483.71	27
3484.48	24.5
3485.26	22.5
3486.03	23.5
3486.81	23
3487.58	22.5
3488.35	27
3489.13	21.5
3489.9	25
3490.67	21
3491.44	26.5
3492.22	23.5
3492.99	25
3493.76	25
3494.54	24
3495.31	26.5
3496.08	19.5
3496.85	24
3497.62	25.5
3498.4	25.5
3499.17	22.5
3499.94	24
