#Acq. time (s)=	5
#Accumulations=	5
#Range (cm-¹)=	100...3500
#Windows=	4
#Autofocus=	Off
#AutoExposure=	Off
#Spike filter=	Multiple accum.
#Delay time (s)=	0
#Binning=	1
#Readout mode=	Signal
#DeNoise=	Off
#ICS correction=	Off
#Dark correction=	Off
#Inst. Process=	Off
#Instrument=	LabRAM HR Evol
#Detector=	Syncerity OE
#Objective=	x100_VIS
#Grating=	600 (500nm)
#ND Filter=	25%
#Laser=	633nm_Edge
#Hole=	100.021
#Range=	Visible
#Project=	verificaciones
#Sample=	at3
#Site=	plain
#Title=	bolusat3plain
#Remark=	
#Date=	14.01.2026 12:38
#Acquired=	14.01.2026 12:38:19
100.618	30.5
101.901	32
103.185	29.5
104.468	35
105.751	35.5
107.033	31.5
108.316	31
109.598	26
110.88	30.5
112.162	30.5
113.445	31
114.727	28.5
116.008	32
117.289	30
118.57	32
119.85	30
121.13	34.5
122.411	29.5
123.691	31
124.97	27
126.25	35
127.529	34
128.808	30
130.086	36.5
131.364	30.5
132.643	37
133.921	36
135.199	34
136.477	33
137.755	33.5
139.032	34.5
140.309	36.5
141.586	39.5
142.863	36
144.14	36.5
145.415	39
146.691	38
147.967	38.5
149.243	39
150.518	37
151.794	45
153.067	40
154.342	39.5
155.617	41
156.892	43.5
158.166	40
159.439	48
160.712	45
161.986	43
163.26	38
164.531	41
165.805	39
167.077	40
168.35	38.5
169.621	39
170.893	42.5
172.165	41
173.437	42
174.707	37
175.979	36
177.25	40.5
178.519	39
179.79	42.5
181.061	40
182.33	42.5
183.6	42.5
184.87	41
186.138	43.5
187.408	38
188.676	39
189.945	46
191.214	40
192.481	40
193.75	38.5
195.016	41
196.285	41
197.552	37
198.819	39
200.086	39
201.352	39.5
202.619	36.5
203.884	37.5
205.151	39
206.416	37
207.682	38
208.947	41.5
210.213	36
211.477	35.5
212.742	32.5
214.006	33.5
215.271	32.5
216.535	34
217.799	36.5
219.062	34.5
220.326	35.5
221.589	33
222.851	34.5
224.115	35.5
225.377	32
226.64	31
227.901	30.5
229.163	31
230.425	33
231.686	32.5
232.947	37.5
234.209	31
235.469	34
236.729	30
237.991	32.5
239.25	28.5
240.51	27
241.771	33
243.03	31
244.288	32
245.549	31
246.807	28.5
248.065	31
249.323	30.5
250.583	30.5
251.84	29
253.098	28
254.355	28.5
255.613	27
256.87	30
258.127	33.5
259.383	29.5
260.639	34
261.897	27.5
263.153	27.5
264.408	25
265.664	28.5
266.919	32
268.174	32
269.43	32
270.685	32
271.939	28
273.193	30.5
274.447	30
275.701	29
276.955	24
278.208	24
279.461	28
280.714	28
281.968	29.5
283.221	28
284.473	31.5
285.726	33.5
286.977	25.5
288.229	31
289.481	31.5
290.732	29.5
291.983	32
293.234	25
294.485	25
295.736	28.5
296.986	28
298.236	29
299.486	29.5
300.736	27
301.985	26.5
303.233	29.5
304.482	34
305.731	28
306.98	27
308.228	27
309.477	29.5
310.725	27
311.973	28.5
313.22	28.5
314.468	29.5
315.714	27.5
316.961	26.5
318.208	27
319.455	23.5
320.701	26
321.947	25.5
323.192	27
324.438	30
325.684	26.5
326.929	31.5
328.175	26
329.418	27.5
330.663	25.5
331.908	26
333.152	29
334.395	33.5
335.639	31.5
336.883	31
338.127	29
339.369	30.5
340.612	29
341.855	31
343.097	25
344.34	30
345.582	28.5
346.823	28.5
348.065	30
349.307	27.5
350.547	29
351.789	32
353.03	30
354.27	33.5
355.511	31
356.75	29.5
357.991	30
359.231	28
360.47	26.5
361.709	29.5
362.948	27.5
364.187	26
365.427	27.5
366.664	31
367.903	32
369.14	26.5
370.379	29.5
371.616	29
372.854	30.5
374.091	31.5
375.328	28
376.564	29
377.802	28
379.037	28
380.274	32
381.51	26
382.745	27
383.981	29
385.216	26.5
386.452	25
387.686	26.5
388.922	28
390.155	28.5
391.389	27
392.624	28.5
393.857	29.5
395.091	32
396.325	29.5
397.558	28.5
398.79	27.5
400.024	27
401.256	24
402.488	30
403.721	25
404.953	25
406.184	32
407.417	26
408.648	30
409.878	28
411.109	27.5
412.341	26
413.571	26.5
414.801	25
416.031	26.5
417.262	27.5
418.491	25.5
419.72	29.5
420.949	33.5
422.178	29
423.408	29
424.637	27
425.865	29
427.093	28
428.32	28
429.548	33
430.777	31
432.004	26.5
433.231	28.5
434.458	28.5
435.685	27.5
436.911	23
438.137	28
439.363	29.5
440.589	28.5
441.815	30
443.042	28
444.267	24.5
445.492	28
446.717	30
447.942	28
449.166	27
450.39	30
451.615	26
452.838	33.5
454.062	29
455.286	29
456.509	29.5
457.732	32.5
458.955	32.5
460.178	29
461.399	30
462.621	27
463.843	31.5
465.065	34
466.287	32
467.508	28
468.73	37
469.951	34.5
471.172	35.5
472.393	35.5
473.612	36
474.832	38.5
476.052	40
477.272	41
478.492	47.5
479.712	45.5
480.93	53
482.149	48
483.368	55
484.587	55
485.806	62.5
487.023	61
488.241	58.5
489.459	61
490.677	59.5
491.893	55
493.111	53.5
494.328	56
495.543	52.5
496.76	45.5
497.977	50
499.194	45
500.409	39
501.625	41.5
502.841	45
504.055	45.5
505.27	43
506.486	37.5
507.699	34
508.914	37.5
510.128	36
511.342	33
512.557	34
513.77	33
514.984	29.5
516.196	33.5
517.41	32
518.623	33.5
519.835	33.5
521.048	33.5
522.259	34
523.472	28.5
524.683	35.5
525.895	31.5
527.106	29
528.318	31.5
529.528	25
530.74	30
531.949	34
533.161	28
534.37	32.5
535.581	29.5
536.79	29
537.999	30
539.209	30
540.418	30
541.627	28.5
542.835	31.5
544.043	29
545.253	30
546.46	29.5
547.669	34
548.876	26
550.083	29.5
551.292	26
552.498	31
553.705	29.5
554.912	27
556.118	31.5
557.324	29.5
558.53	29
559.737	27.5
560.942	27.5
562.147	26.5
563.353	28.5
564.558	29
565.763	26
566.967	31
568.173	26.5
569.377	28
570.58	31
571.784	31
572.987	29.5
574.192	29
575.395	27.5
576.598	29
577.8	26.5
579.003	24.5
580.205	26
581.407	26
582.61	26.5
583.812	27
585.014	25.5
586.215	28
587.416	26
588.617	26
589.818	29
591.018	27
592.219	28
593.419	23
594.619	28
595.819	31
597.02	27
598.219	25
599.418	31
600.617	26.5
601.816	26
603.015	29
604.213	27.5
605.41	24
606.608	30.5
607.806	28
609.004	28
610.201	29.5
611.399	30
612.596	26
613.793	31
614.989	28.5
616.186	28
617.382	29.5
618.579	24.5
619.775	23
620.969	29.5
622.165	27.5
623.36	29.5
624.555	26.5
625.75	25.5
626.945	27.5
628.139	28
629.333	30
630.527	26
631.721	29.5
632.915	25
634.108	28
635.301	28.5
636.495	26.5
637.688	30
638.88	28
640.072	27.5
641.265	29.5
642.456	32
643.648	29
644.84	28.5
646.032	27
647.222	28
648.414	29
649.605	29
650.795	28
651.986	31
653.177	31
654.366	29
655.556	30
656.745	27
657.935	27.5
659.125	30.5
660.313	27
661.503	30.5
662.69	31
663.879	31
665.067	29
666.256	26.5
667.444	30.5
668.631	32
669.819	34.5
671.006	29
672.194	28.5
673.38	31
674.567	28.5
675.753	34
676.94	34
678.125	30.5
679.311	32
680.497	33
681.682	35
682.868	29.5
684.053	35
685.238	38
686.422	32
687.606	35.5
688.792	32
689.975	33
691.159	33
692.343	35
693.526	37
694.71	34
695.893	37
697.076	38.5
698.259	29
699.441	36.5
700.623	37.5
701.805	36.5
702.988	39
704.169	43.5
705.35	41.5
706.533	47.5
707.714	43.5
708.894	53
710.075	49
711.255	47.5
712.436	51
713.616	40.5
714.796	34.5
715.975	35.5
717.155	32
718.335	35
719.514	33.5
720.693	29
721.872	33.5
723.05	28
724.228	30
725.406	30.5
726.585	29.5
727.763	28
728.941	30.5
730.118	27.5
731.295	25.5
732.472	29
733.649	25.5
734.825	30.5
736.002	29.5
737.178	27.5
738.354	27
739.53	30.5
740.705	31
741.881	26.5
743.056	30
744.231	26.5
745.406	26.5
746.581	32
747.755	33
748.93	26.5
750.104	25.5
751.278	28
752.452	27.5
753.625	27.5
754.799	27
755.972	30
757.144	31.5
758.317	27.5
759.489	28
760.662	26.5
761.834	27.5
763.006	29
764.178	29
765.349	33
766.521	30
767.692	28.5
768.863	27
770.034	27.5
771.204	27.5
772.374	29.5
773.545	28.5
774.715	27.5
775.885	29
777.054	29.5
778.224	29
779.393	31
780.562	31
781.731	29
782.9	27
784.069	29
785.236	34.5
786.405	28.5
787.573	31
788.74	32
789.908	29
791.074	28
792.242	28.5
793.409	31.5
794.575	32
795.742	28.5
796.909	28.5
798.074	31
799.241	31
800.406	26.5
801.572	28.5
802.737	29.5
803.902	29
805.067	28
806.232	31.5
807.396	29.5
808.561	32
809.725	30
810.889	29
812.052	31
813.217	33.5
814.38	28.5
815.544	27.5
816.706	32.5
817.87	26.5
819.032	24
820.195	27
821.357	26.5
822.518	32
823.681	25
824.842	24
826.005	30.5
827.165	27
828.326	30
829.488	28
830.648	24.5
831.808	28
832.97	21
834.129	25
835.289	26.5
836.45	23
837.609	29
838.768	28.5
839.927	27
841.087	24.5
842.245	25
843.404	23
844.562	25
845.721	32
846.879	26.5
848.036	33
849.194	31
850.351	31
851.509	28
852.666	27.5
853.823	29.5
854.979	26
856.136	29.5
857.292	29
858.448	29
859.605	22
860.761	32
861.916	28.5
863.071	31
864.226	31.5
865.381	28
866.536	26.5
867.691	27.5
868.845	26.5
869.999	30
871.153	25
872.307	28
873.461	28.5
874.614	28
875.767	32
876.92	28
878.073	29.5
879.226	19
880.379	30.5
881.531	30.5
882.683	29
883.835	26.5
884.987	28.5
886.139	28
887.291	24.5
888.442	28
889.593	26.5
890.743	30
891.893	28
893.044	27.5
894.195	28
895.345	31.5
896.495	28
897.643	25.5
898.793	26
899.943	26
901.092	27
902.241	25
903.389	25
904.538	26.5
905.687	26.5
906.835	23
907.982	22
909.13	30.5
910.278	25
911.426	23
912.572	28
913.72	27.5
914.867	22.5
916.013	26.5
917.16	27
918.306	27
919.451	26
920.598	26
921.744	27
922.889	27
924.035	28
925.18	25
926.324	26
927.47	28
928.614	26
929.758	29
930.902	19.5
932.047	28.5
933.191	23
934.334	26
935.478	25.5
936.621	26
937.764	26.5
938.906	25.5
940.05	29
941.192	25
942.335	26
943.476	27
944.619	29
945.76	27.5
946.901	27.5
948.043	29.5
949.184	28
950.326	24
951.466	27.5
952.606	32
953.747	24
954.887	29.5
956.028	29.5
957.167	26.5
958.307	26.5
959.447	24.5
960.586	24
961.725	29
962.865	27
964.003	29.5
965.141	28.5
966.279	27.5
967.418	28.5
968.556	27
969.693	30.5
970.831	28.5
971.969	25
973.106	22.5
974.243	31.5
975.38	28
976.517	26.5
977.654	26.5
978.79	28
979.926	23.5
981.061	27
982.197	30.5
983.334	24.5
984.469	27
985.604	23
986.739	28
987.873	22.5
989.008	25
990.142	26.5
991.277	21
992.411	25.5
993.544	26.5
994.679	29.5
995.813	26
996.946	26
998.079	24
999.212	30
1000.35	27
1001.48	27
1002.61	25
1003.74	24.5
1004.87	26.5
1006.01	28.5
1007.14	25
1008.27	27
1009.4	30
1010.53	25
1011.66	24
1012.79	24
1013.92	28
1015.05	24
1016.18	26.5
1017.31	26
1018.44	25
1019.57	24.5
1020.7	27
1021.83	26
1022.96	23
1024.09	27
1025.22	27
1026.35	23
1027.48	25
1028.6	24
1029.73	24.5
1030.86	28
1031.99	26.5
1033.12	28
1034.24	26
1035.37	27
1036.5	25.5
1037.62	27
1038.75	25.5
1039.88	25.5
1041	25
1042.13	23.5
1043.25	28
1044.38	28
1045.5	25
1046.63	25.5
1047.76	24.5
1048.88	29.5
1050	26
1051.13	28
1052.25	26
1053.38	30
1054.5	26.5
1055.63	25
1056.75	27
1057.87	25
1058.99	24.5
1060.12	26
1061.24	22
1062.36	23.5
1063.49	24
1064.61	26
1065.73	24
1066.85	24
1067.97	28.5
1069.1	23.5
1070.22	26
1071.34	25.5
1072.46	28.5
1073.58	26.5
1074.7	26
1075.82	26.5
1076.94	29.5
1078.06	24.5
1079.18	27.5
1080.3	26
1081.42	23
1082.54	22
1083.66	23
1084.78	26
1085.9	29
1087.02	26
1088.13	27.5
1089.25	23
1090.37	23
1091.49	26
1092.61	24
1093.72	21.5
1094.84	23
1095.96	27
1097.08	25.5
1098.19	24
1099.31	26.5
1100.42	22
1101.54	24.5
1102.66	25
1103.77	24
1104.89	24
1106	28.5
1107.12	24.5
1108.23	28
1109.35	25
1110.46	26
1111.58	25
1112.69	28.5
1113.81	24.5
1114.92	25.5
1116.04	28.5
1117.15	23
1118.26	24.5
1119.38	25.5
1120.49	24
1121.6	27.5
1122.72	23
1123.83	25
1124.94	22.5
1126.05	27
1127.17	27.5
1128.28	24
1129.39	24.5
1130.5	24.5
1131.61	26
1132.72	24
1133.83	24
1134.94	25.5
1136.06	25.5
1137.17	26.5
1138.27	24
1139.39	26.5
1140.5	25.5
1141.61	21.5
1142.72	24
1143.82	22
1144.93	26
1146.04	25
1147.15	26.5
1148.26	20
1149.37	23.5
1150.48	25.5
1151.58	27
1152.69	24.5
1153.8	23
1154.91	21.5
1156.02	25
1157.12	25.5
1158.23	29
1159.34	23
1160.44	25.5
1161.55	21
1162.66	24.5
1163.76	25
1164.87	27.5
1165.97	23
1167.08	26
1168.18	25
1169.29	24.5
1170.39	23
1171.5	27.5
1172.6	26.5
1173.71	26.5
1174.81	19
1175.92	20
1177.02	22.5
1178.13	25
1179.23	23.5
1180.33	30.5
1181.44	26.5
1182.54	24
1183.64	27
1184.74	24.5
1185.85	27
1186.95	25.5
1188.05	25.5
1189.15	24
1190.26	21.5
1191.36	20
1192.46	27.5
1193.56	27.5
1194.66	25.0023
1195.76	25.9049
1196.86	21.11
1197.96	25.516
1199.06	28.3652
1200.16	22.104
1201.26	21.1203
1202.36	25.6421
1203.46	26.6699
1204.56	22.0831
1205.66	21.799
1206.76	22.3404
1207.86	23.1271
1208.96	24.7621
1210.06	25.2065
1211.16	21.3017
1212.25	25.2597
1213.35	25.2451
1214.45	21.7713
1215.55	23.3412
1216.65	23.533
1217.74	25.956
1218.84	27.3382
1219.94	24.1734
1221.03	25.2101
1222.13	24.4399
1223.23	22.233
1224.32	24.8581
1225.42	22.2657
1226.52	28.21
1227.61	24.5525
1228.71	25.5742
1229.8	25.7741
1230.9	24.3495
1231.99	25.4538
1233.09	24.4022
1234.18	26.9258
1235.28	23.2743
1236.37	25.0409
1237.47	22.747
1238.56	25.7146
1239.65	21.5315
1240.75	23.0457
1241.84	25.4124
1242.93	26.139
1244.03	24.0982
1245.12	25.9003
1246.21	21.9677
1247.31	22.4179
1248.4	24.568
1249.49	26.2758
1250.58	25.4211
1251.67	25.0785
1252.77	23.2182
1253.86	27.6097
1254.95	25.9168
1256.04	25.797
1257.13	25.2239
1258.22	26.6427
1259.31	24.5745
1260.4	26.7706
1261.49	26.354
1262.58	26.8808
1263.67	26.5193
1264.76	26.6832
1265.85	24.9219
1266.94	24.5313
1268.03	24.4303
1269.12	26.0735
1270.21	24.7812
1271.3	26.4254
1272.39	24.9901
1273.47	24.5428
1274.56	23.7494
1275.65	23.7233
1276.74	23.493
1277.83	23.9744
1278.91	22.9248
1280	22.3898
1281.09	25.5642
1282.17	27.177
1283.26	24.6869
1284.35	23.9686
1285.43	24.6681
1286.52	25.5919
1287.61	26.582
1288.69	24.6183
1289.78	24
1290.86	24.4169
1291.95	24.3084
1293.03	23.1188
1294.12	23.6891
1295.2	22.4745
1296.29	25.4916
1297.37	25.7901
1298.46	24.0652
1299.54	22.7936
1300.63	23.3064
1301.71	24.5522
1302.79	25.5406
1303.88	24.4877
1304.96	26.3965
1306.04	24.7297
1306.5	22
1307.59	19.5
1308.68	28
1309.76	25
1310.85	25
1311.94	24.5
1313.03	21
1314.11	24
1315.2	23
1316.29	24
1317.37	21
1318.46	24
1319.55	27.5
1320.63	24
1321.72	24
1322.81	21
1323.89	26
1324.98	29
1326.06	26
1327.15	23.5
1328.23	25
1329.32	25
1330.4	23.5
1331.49	22
1332.57	27
1333.66	24.5
1334.74	22.5
1335.82	25.5
1336.91	25
1337.99	23
1339.07	29
1340.16	26
1341.24	27
1342.32	27.5
1343.4	29
1344.49	23
1345.57	29
1346.65	25
1347.73	24
1348.82	22
1349.9	25
1350.98	23
1352.06	28.5
1353.14	24.5
1354.22	24.5
1355.3	26.5
1356.38	26.5
1357.46	22
1358.54	23.5
1359.62	22.5
1360.7	24
1361.78	24
1362.86	27
1363.94	24
1365.02	22
1366.1	27
1367.18	26
1368.26	26
1369.34	24.5
1370.41	29.5
1371.49	28.5
1372.57	24.5
1373.65	28
1374.72	23.5
1375.8	28
1376.88	22.5
1377.96	26.5
1379.03	22.5
1380.11	28
1381.19	27.5
1382.26	26.5
1383.34	26
1384.42	27
1385.49	25.5
1386.57	23.5
1387.64	25.5
1388.72	26
1389.79	30
1390.87	27.5
1391.94	30
1393.02	24
1394.09	26
1395.17	28.5
1396.24	27.5
1397.31	29.5
1398.39	27
1399.46	29
1400.54	28.5
1401.61	28.5
1402.68	29.5
1403.76	29.5
1404.83	28
1405.9	28.5
1406.97	31
1408.05	31
1409.12	29.5
1410.19	27
1411.26	28.5
1412.33	28
1413.4	30.5
1414.48	37.5
1415.55	31
1416.62	30
1417.69	29.5
1418.76	32.5
1419.83	27
1420.9	27
1421.97	31.5
1423.04	27.5
1424.11	20
1425.18	26
1426.25	29.5
1427.32	26.5
1428.39	22
1429.46	31
1430.52	26.5
1431.59	27.5
1432.66	30.5
1433.73	27
1434.8	28.5
1435.87	28.5
1436.93	28.5
1438	23.5
1439.07	25.5
1440.14	27
1441.2	26.5
1442.27	26.5
1443.34	29
1444.4	26
1445.47	21
1446.54	26
1447.6	25
1448.67	25
1449.73	23
1450.8	29
1451.86	26.5
1452.93	27
1453.99	24.5
1455.06	28.5
1456.12	22
1457.19	25.5
1458.25	23
1459.32	29
1460.38	28
1461.45	29
1462.51	28.5
1463.57	28.5
1464.64	24.5
1465.7	26.5
1466.76	28.5
1467.82	28
1468.89	23.5
1469.95	28.5
1471.01	26
1472.07	24.5
1473.14	27
1474.2	24
1475.26	27
1476.32	25.5
1477.38	24
1478.44	24
1479.5	26
1480.57	29
1481.63	25
1482.69	27
1483.75	23
1484.81	29
1485.87	28
1486.93	25
1487.99	25.5
1489.05	25.5
1490.1	29.5
1491.17	23.5
1492.22	27.5
1493.28	27
1494.34	24.5
1495.4	24
1496.46	31
1497.52	20.5
1498.57	25.5
1499.63	26.5
1500.69	23
1501.75	29
1502.8	30
1503.86	28
1504.92	26
1505.98	26
1507.03	27.5
1508.09	27.5
1509.15	28
1510.2	25.5
1511.26	23.5
1512.31	25.5
1513.37	28
1514.42	23.5
1515.48	31
1516.53	25.5
1517.59	26
1518.64	27.5
1519.7	27
1520.75	26
1521.81	23.5
1522.86	26
1523.92	25
1524.97	26.5
1526.02	23
1527.08	26.5
1528.13	23.5
1529.18	24
1530.24	27
1531.29	31.5
1532.34	27
1533.39	26.5
1534.45	23.5
1535.5	26.5
1536.55	26
1537.6	27
1538.65	25
1539.71	27.5
1540.76	24.5
1541.81	28
1542.86	26
1543.91	26
1544.96	26.5
1546.01	25.5
1547.06	26
1548.11	26
1549.16	24
1550.21	26.5
1551.26	23
1552.31	25.5
1553.36	21.5
1554.41	24.5
1555.46	19
1556.51	26
1557.56	24
1558.6	24.5
1559.65	28.5
1560.7	27
1561.75	29
1562.8	30.5
1563.84	28.5
1564.89	25
1565.94	27
1566.99	28
1568.03	28.5
1569.08	27
1570.13	23
1571.17	25.5
1572.22	23.5
1573.27	29
1574.31	26
1575.36	24
1576.4	24
1577.45	23
1578.5	23.5
1579.54	24
1580.59	28.5
1581.63	26.5
1582.68	22
1583.72	22
1584.76	25
1585.81	29
1586.85	26
1587.9	27.5
1588.94	23
1589.98	23
1591.03	29
1592.07	28
1593.11	25
1594.16	23.5
1595.2	27
1596.24	27
1597.29	24.5
1598.33	23.5
1599.37	29
1600.41	26.5
1601.45	25
1602.49	24.5
1603.54	24.5
1604.58	28.5
1605.62	26
1606.66	22.5
1607.7	27.5
1608.74	27
1609.78	26.5
1610.82	24
1611.86	24.5
1612.9	27
1613.94	23
1614.98	27
1616.02	27.5
1617.06	25.5
1618.1	26
1619.14	27
1620.18	24.5
1621.22	26
1622.25	24
1623.29	27
1624.33	28.5
1625.37	23.5
1626.41	26
1627.45	25
1628.48	26
1629.52	32.5
1630.56	24
1631.59	27
1632.63	26.5
1633.67	28
1634.7	27.5
1635.74	27
1636.78	27
1637.81	29
1638.85	22
1639.88	22.5
1640.92	27.5
1641.96	25.5
1642.99	23.5
1644.03	24
1645.06	27
1646.1	24
1647.13	27
1648.17	26.5
1649.2	23.5
1650.23	26
1651.27	29
1652.3	27
1653.33	25.5
1654.37	27
1655.4	26
1656.44	26.5
1657.47	26
1658.5	28.5
1659.53	24
1660.57	24
1661.6	27.5
1662.63	26
1663.66	23
1664.69	27.5
1665.73	27
1666.76	27
1667.79	25.5
1668.82	26.5
1669.85	25
1670.88	26
1671.91	28.5
1672.94	21.5
1673.97	24
1675.01	25
1676.03	24.5
1677.07	26.5
1678.1	25.5
1679.12	27
1680.15	23
1681.18	25
1682.21	28
1683.24	25
1684.27	26
1685.3	24
1686.33	26.5
1687.36	23.5
1688.38	23.5
1689.41	25.5
1690.44	25.5
1691.47	25
1692.5	24
1693.52	28
1694.55	27
1695.58	25
1696.6	24
1697.63	26.5
1698.66	25
1699.68	26.5
1700.71	26
1701.74	24.5
1702.76	27
1703.79	22.5
1704.81	23
1705.84	27
1706.86	29
1707.89	25
1708.91	25.5
1709.94	27.5
1710.96	27.5
1711.99	24.5
1713.01	25.5
1714.04	25
1715.06	24
1716.08	26
1717.11	26
1718.13	27.5
1719.16	25
1720.18	23
1721.2	24
1722.22	27.5
1723.25	26.5
1724.27	22
1725.29	30.5
1726.31	26
1727.34	26
1728.36	26
1729.38	29
1730.4	26
1731.42	27
1732.44	24
1733.47	23.5
1734.49	25
1735.51	21.5
1736.53	26.5
1737.55	24.5
1738.57	24
1739.59	27.5
1740.61	25.5
1741.63	24.5
1742.65	23.5
1743.67	25
1744.69	25
1745.71	24.5
1746.73	23.5
1747.75	24
1748.76	23
1749.78	23.5
1750.8	25.5
1751.82	20
1752.84	28
1753.86	22.5
1754.87	27.5
1755.89	27
1756.91	27.5
1757.93	27
1758.94	25
1759.96	22.5
1760.98	27.5
1761.99	23.5
1763.01	21.5
1764.03	24
1765.04	23.5
1766.06	26.5
1767.08	25.5
1768.09	25
1769.11	27.5
1770.12	24
1771.14	25
1772.15	24
1773.17	26
1774.18	27.5
1775.2	27
1776.21	26.5
1777.23	26
1778.24	24.5
1779.25	26.5
1780.27	27.5
1781.28	21.5
1782.3	22
1783.31	25
1784.32	26
1785.34	26.5
1786.35	24.5
1787.36	29.5
1788.37	27
1789.39	23
1790.4	24
1791.41	24
1792.42	19.5
1793.43	25
1794.45	22
1795.46	23.5
1796.47	25
1797.48	24.5
1798.49	26.5
1799.5	26
1800.51	25.5
1801.52	24.5
1802.53	25
1803.54	23
1804.55	25
1805.56	26
1806.57	29
1807.58	23.5
1808.59	22
1809.6	24
1810.61	26
1811.62	27.5
1812.63	28
1813.64	28
1814.65	25.5
1815.66	26
1816.66	30.5
1817.67	23
1818.68	22
1819.69	20
1820.69	24.5
1821.7	27
1822.71	25.5
1823.72	27
1824.72	24.5
1825.73	24
1826.74	23.5
1827.74	25
1828.75	26.5
1829.76	21
1830.76	25.5
1831.77	27.5
1832.77	26
1833.78	25
1834.79	25
1835.79	25
1836.8	28
1837.8	26
1838.81	24.5
1839.81	23.5
1840.81	23.5
1841.82	25
1842.82	26.5
1843.83	26
1844.83	28.5
1845.83	24
1846.84	30.5
1847.84	31
1848.84	22.5
1849.85	28
1850.85	28.5
1851.85	26.5
1852.86	24.5
1853.86	24.5
1854.86	28
1855.86	28
1856.86	26
1857.87	22
1858.87	24.5
1859.87	24
1860.87	26
1861.87	29
1862.87	25
1863.88	24.5
1864.88	29
1865.88	25
1866.88	22.5
1867.88	21.5
1868.88	22.5
1869.88	29
1870.88	23
1871.88	24
1872.88	23
1873.88	25
1874.87	24.5
1875.87	27
1876.87	22
1877.87	24.5
1878.87	28
1879.87	27
1880.87	25.5
1881.86	24.5
1882.86	24.5
1883.86	25.5
1884.86	27
1885.86	26.5
1886.85	25.5
1887.85	25
1888.85	27
1889.84	22
1890.84	20.5
1891.84	25.5
1892.83	21
1893.83	22
1894.83	23
1895.82	27.5
1896.82	28
1897.81	23
1898.81	21.5
1899.81	23
1900.8	24.5
1901.8	25.5
1902.79	25
1903.78	23.5
1904.78	24.5
1905.77	23.5
1906.77	28
1907.76	30
1908.76	29
1909.75	21
1910.74	23.5
1911.74	23.5
1912.73	25
1913.72	22
1914.72	25
1915.71	25
1916.7	25.5
1917.7	23.5
1918.69	25
1919.68	24.5
1920.67	25
1921.66	20.5
1922.66	22
1923.65	26
1924.64	22.5
1925.63	25.5
1926.62	26
1927.61	21.5
1928.6	25.5
1929.59	25
1930.59	24.5
1931.58	26
1932.57	25
1933.56	24
1934.55	27.5
1935.54	29
1936.53	23
1937.52	26.5
1938.51	21
1939.49	23
1940.48	18.5
1941.47	26
1942.46	25
1943.45	25.5
1944.44	25.5
1945.43	25
1946.42	24
1947.4	25
1948.39	25.25
1949.38	24.5
1950.37	22
1951.35	22.5
1952.34	25.5
1953.33	25.5
1954.31	24.5
1955.3	24
1956.29	26.5
1957.27	19.5
1958.26	26
1959.25	25
1960.23	26
1961.22	22.5
1962.21	24.5
1963.19	24.5
1964.18	25
1965.16	27
1966.15	20.5
1967.13	21
1968.12	21.5
1969.1	26.5
1970.09	24
1971.07	22.5
1972.05	23
1973.04	22.5
1974.02	24
1975.01	26
1975.99	24
1976.97	26
1977.96	24
1978.94	24
1979.92	23
1980.91	27.5
1981.89	23
1982.87	26.5
1983.85	25.5
1984.84	24.5
1985.82	26.5
1986.8	27
1987.78	24
1988.76	22.5
1989.74	22
1990.73	26
1991.71	22.5
1992.69	25.5
1993.67	25
1994.65	24
1995.63	25
1996.61	23.5
1997.59	24
1998.57	24.5
1999.55	25
2000.53	19
2001.51	23
2002.49	28
2003.47	22.5
2004.45	23
2005.43	24
2006.41	22.5
2007.39	24.5
2008.37	26
2009.34	23.5
2010.32	27.5
2011.3	25.5
2012.28	25
2013.26	26.5
2014.23	27
2015.21	23
2016.19	26
2017.17	21.5
2018.14	27
2019.12	26
2020.1	25
2021.07	22.5
2022.05	24.5
2023.03	23
2024	22.5
2024.98	24.5
2025.96	23.5
2026.93	24
2027.91	24.5
2028.88	24
2029.86	22
2030.83	20
2031.81	27
2032.78	19.5
2033.76	26.5
2034.73	27
2035.71	26
2036.68	23
2037.66	23
2038.63	24
2039.6	22.5
2040.58	24.5
2041.55	23
2042.52	26.5
2043.5	19
2044.47	24
2045.44	25
2046.42	24
2047.39	26
2048.36	23
2049.33	24
2050.31	23
2051.28	26
2052.25	25
2053.22	21.5
2054.19	25
2055.17	20
2056.14	22.5
2057.11	24.5
2058.08	25
2059.05	23.5
2060.02	21.5
2060.99	25.5
2061.96	24
2062.93	23.5
2063.9	24
2064.87	26
2065.84	21
2066.81	24
2067.78	23.5
2068.75	22.5
2069.72	23.5
2070.69	20
2071.66	24.5
2072.63	21
2073.6	24.5
2074.56	24
2075.53	21
2076.5	23
2077.47	27
2078.44	23
2079.4	19.5
2080.37	26.5
2081.34	23.5
2082.31	27.5
2083.27	22.5
2084.24	27
2085.21	24.5
2086.18	25
2087.14	24
2088.11	25
2089.07	24
2090.04	25
2091.01	24
2091.97	26
2092.94	29
2093.9	20
2094.87	22
2095.83	27
2096.8	21.5
2097.76	24
2098.73	20.5
2099.69	23.5
2100.66	26
2101.62	24
2102.59	24
2103.55	22.5
2104.52	25.5
2105.48	27
2106.44	23
2107.41	26.5
2108.37	23.5
2109.33	19.5
2110.3	24
2111.26	22.5
2112.22	23.5
2113.18	23.5
2114.15	22.5
2115.11	24.5
2116.07	26
2117.03	24.5
2118	22
2118.96	21
2119.92	24.5
2120.88	24.5
2121.84	22.5
2122.8	26
2123.76	26.5
2124.72	22
2125.68	25
2126.65	22.5
2127.61	21
2128.57	23.5
2129.53	26.5
2130.49	26.5
2131.45	20.5
2132.41	25
2133.36	27
2134.32	25
2135.28	22.5
2136.24	21
2137.2	18
2138.16	19.5
2139.12	21.5
2140.08	25.5
2141.04	21
2141.99	24
2142.95	26.9746
2143.91	22.989
2144.87	22.9966
2145.83	23.0458
2146.78	20.0655
2147.74	25.2483
2148.7	20.6261
2149.66	25.0287
2150.61	20.9446
2151.57	24.5699
2152.53	23.8465
2153.48	24.0581
2154.44	22.1782
2155.4	20.4922
2156.35	23.5029
2157.31	20.558
2158.26	23.0284
2159.22	23.3898
2160.17	24.6296
2161.13	25.5129
2162.08	23.63
2163.04	23.6869
2163.99	22.6829
2164.95	22.1785
2165.9	23.9918
2166.86	21.0602
2167.81	21.2427
2168.77	21.7638
2169.72	23.1336
2170.67	23.2339
2171.63	23.9743
2172.58	23.6171
2173.54	23.7461
2174.49	24.1165
2175.44	21.3449
2176.39	23.416
2177.35	21.6293
2178.3	23.0711
2179.25	22.8544
2180.2	23.7094
2181.16	23.856
2182.11	23.9073
2183.06	24.7358
2184.01	23.0695
2184.96	22.726
2185.92	22.5583
2186.87	24.2252
2187.82	23.032
2188.77	23.9925
2189.72	24.3694
2190.67	26.0537
2191.62	22.5305
2192.57	22.2353
2193.52	23.3003
2194.47	19.5899
2195.42	19.9573
2196.37	22.5851
2197.32	24.1254
2198.27	25.0441
2199.22	20.25
2200.17	23.0466
2201.12	21.1358
2202.07	22.4102
2203.02	21.4857
2203.97	22.0647
2204.92	20.7112
2205.87	19.2526
2206.81	24.0479
2207.76	22.6504
2208.71	22.4906
2209.66	22.687
2210.61	23.2711
2211.55	22.6297
2212.5	24.2629
2213.45	22.3694
2214.4	23.0629
2215.34	22.2943
2216.29	22.2404
2217.24	21.2487
2218.18	25.8905
2219.13	24.4685
2220.08	26.8057
2221.02	21.5995
2221.97	20.4172
2222.92	21.3363
2223.86	21.1369
2224.81	24.6257
2225.75	22.4839
2226.7	24.2659
2227.64	20.7672
2228.59	21.9862
2229.53	23.6687
2230.48	25.449
2231.42	23.482
2232.37	24.4897
2233.31	23.189
2234.26	23.3864
2235.2	21.7418
2236.14	22.983
2237.09	22.2208
2238.03	23.2141
2238.97	20.9468
2239.92	21.7891
2240.05	22
2241	25
2241.95	25.5
2242.89	24
2243.84	19
2244.79	24
2245.74	20.5
2246.68	27.5
2247.63	21.5
2248.58	24.5
2249.53	24
2250.47	23
2251.42	23
2252.36	19
2253.31	25.5
2254.26	21.5
2255.2	24
2256.15	21
2257.1	24.5
2258.04	22.5
2258.99	21.5
2259.93	20.5
2260.88	26.5
2261.82	24
2262.77	26
2263.71	23
2264.66	25.5
2265.6	23
2266.55	27
2267.49	26.5
2268.43	25
2269.38	25
2270.32	22.5
2271.26	26.5
2272.21	22.5
2273.15	20.5
2274.09	22
2275.04	23
2275.98	22
2276.92	24.5
2277.87	24
2278.81	24.5
2279.75	24
2280.69	23
2281.64	21
2282.58	23
2283.52	20
2284.46	24
2285.4	21
2286.34	25
2287.29	23
2288.23	25
2289.17	27
2290.11	22.5
2291.05	23.5
2291.99	20.5
2292.93	24
2293.87	26
2294.81	20.5
2295.75	22
2296.69	24
2297.63	24
2298.57	24
2299.51	26
2300.45	26.5
2301.39	21
2302.33	24.5
2303.27	23
2304.2	24.5
2305.14	21
2306.08	20
2307.02	23.5
2307.96	24.5
2308.9	24.5
2309.83	21
2310.77	20
2311.71	22.5
2312.65	23
2313.58	25.5
2314.52	25.5
2315.46	24.5
2316.39	24
2317.33	21
2318.27	22
2319.21	25
2320.14	25
2321.08	25.5
2322.01	27.5
2322.95	24.5
2323.89	24
2324.82	23
2325.76	26
2326.69	19.5
2327.63	21.5
2328.56	23
2329.5	21
2330.43	25.5
2331.37	25
2332.3	27
2333.24	23
2334.17	25
2335.1	24.5
2336.04	21.5
2336.97	23.5
2337.91	21
2338.84	18.5
2339.77	22.5
2340.71	21
2341.64	21
2342.57	25.5
2343.51	22
2344.44	19
2345.37	26
2346.3	22.5
2347.24	25
2348.17	24
2349.1	22
2350.03	25.5
2350.96	23
2351.89	25.5
2352.83	21
2353.76	18.5
2354.69	24
2355.62	21.5
2356.55	27.5
2357.48	25.5
2358.41	25
2359.34	22
2360.27	23
2361.2	27
2362.13	19.5
2363.06	27
2363.99	25.5
2364.92	24
2365.85	22.5
2366.78	23.5
2367.71	21.5
2368.64	26.5
2369.57	24.5
2370.5	22
2371.43	21.5
2372.36	23.5
2373.28	22.5
2374.21	23.5
2375.14	25.5
2376.07	24.5
2377	23
2377.93	25.5
2378.85	23.5
2379.78	24.5
2380.71	26
2381.63	26.5
2382.56	24
2383.49	27
2384.42	24
2385.34	23
2386.27	24.5
2387.2	24.5
2388.12	21.5
2389.05	25
2389.97	25
2390.9	23.5
2391.82	23
2392.75	25.5
2393.68	19
2394.6	21.5
2395.53	26
2396.45	22
2397.38	22.5
2398.3	27.5
2399.23	22.5
2400.15	23.5
2401.07	23
2402	22
2402.92	22.5
2403.85	24
2404.77	24
2405.69	22.5
2406.62	23
2407.54	27
2408.46	25.5
2409.39	26.5
2410.31	22
2411.23	25.5
2412.16	21
2413.08	26.5
2414	23
2414.92	23
2415.85	25
2416.77	25
2417.69	24
2418.61	24.5
2419.53	26.5
2420.45	25
2421.38	22.5
2422.3	22.5
2423.22	22
2424.14	21.5
2425.06	22.5
2425.98	24
2426.9	21
2427.82	26
2428.74	24
2429.66	23
2430.58	23.5
2431.5	26.5
2432.42	25
2433.34	25.5
2434.26	23
2435.18	24
2436.1	22.5
2437.02	23.5
2437.94	28
2438.85	23.5
2439.77	25.5
2440.69	27
2441.61	18
2442.53	23
2443.45	24
2444.36	22.5
2445.28	27
2446.2	23
2447.12	28.5
2448.03	23
2448.95	27
2449.87	24.5
2450.79	23.5
2451.7	22.5
2452.62	24
2453.54	24
2454.45	25
2455.37	27.5
2456.28	26
2457.2	18
2458.12	24
2459.03	23
2459.95	23.5
2460.86	26
2461.78	23
2462.69	28
2463.61	26
2464.52	22.5
2465.44	23
2466.35	24
2467.27	26.5
2468.18	25.5
2469.1	24
2470.01	24.5
2470.93	23
2471.84	29.5
2472.75	24
2473.67	24
2474.58	24
2475.49	23
2476.41	27
2477.32	28.5
2478.23	26.5
2479.15	27
2480.06	25
2480.97	23.5
2481.88	23.5
2482.79	24.5
2483.71	22
2484.62	21.5
2485.53	25
2486.44	26
2487.35	22
2488.26	27
2489.18	25.5
2490.09	25.5
2491	25
2491.91	28
2492.82	25
2493.73	24.5
2494.64	26
2495.55	25.5
2496.46	27
2497.37	19
2498.28	29
2499.19	20.5
2500.1	25
2501.01	28
2501.92	23
2502.83	22.5
2503.74	27
2504.65	21
2505.56	23
2506.47	26
2507.37	26.5
2508.28	24
2509.19	26.5
2510.1	26
2511.01	23
2511.92	25
2512.82	26
2513.73	26
2514.64	21
2515.55	25.5
2516.45	27.5
2517.36	22
2518.27	26
2519.17	27.5
2520.08	26.5
2520.99	26
2521.89	21.5
2522.8	26
2523.71	21
2524.61	22
2525.52	24
2526.42	26
2527.33	25.5
2528.24	24
2529.14	24
2530.05	24
2530.95	24
2531.86	22
2532.76	24
2533.67	26.5
2534.57	23
2535.48	24
2536.38	25
2537.28	26
2538.19	27
2539.09	24.5
2540	28.5
2540.9	25.5
2541.8	24
2542.71	23.5
2543.61	26
2544.51	25
2545.42	26
2546.32	20
2547.22	25
2548.12	22.5
2549.03	25.5
2549.93	25.5
2550.83	26
2551.73	25
2552.63	22.5
2553.54	27.5
2554.44	25.5
2555.34	23.5
2556.24	24.5
2557.14	21
2558.04	24
2558.94	23.5
2559.85	22.5
2560.75	26.5
2561.65	25.5
2562.55	25.5
2563.45	21.5
2564.35	26.5
2565.25	24.5
2566.15	29
2567.05	23.5
2567.95	26.5
2568.85	23
2569.75	29.5
2570.65	26.5
2571.55	26.5
2572.44	22
2573.34	20.5
2574.24	26.5
2575.14	25.5
2576.04	25.5
2576.94	25.5
2577.84	28.5
2578.73	25.5
2579.63	26.5
2580.53	24
2581.43	21.5
2582.33	21
2583.22	26
2584.12	26.5
2585.02	23.5
2585.91	23
2586.81	22.5
2587.71	26
2588.6	23
2589.5	24
2590.4	28.5
2591.29	25
2592.19	29
2593.09	26
2593.98	20
2594.88	26.5
2595.77	25
2596.67	27.5
2597.56	23
2598.46	26.5
2599.35	21
2600.25	25
2601.14	21
2602.04	23.5
2602.93	26.5
2603.83	22
2604.72	23
2605.62	29
2606.51	22
2607.4	22.5
2608.3	22.5
2609.19	25
2610.09	27
2610.98	27
2611.87	28
2612.76	23.5
2613.66	21.5
2614.55	24
2615.44	27.5
2616.34	24.5
2617.23	24
2618.12	25.5
2619.01	26
2619.9	22
2620.8	23
2621.69	22
2622.58	25
2623.47	24.5
2624.36	26
2625.25	26
2626.15	25.5
2627.04	24
2627.93	23.5
2628.82	23
2629.71	24.5
2630.6	21.5
2631.49	25
2632.38	25
2633.27	24.5
2634.16	28.5
2635.05	22
2635.94	25.5
2636.83	27.5
2637.72	26.5
2638.61	24
2639.5	21.5
2640.39	25.5
2641.28	22
2642.16	29
2643.05	21
2643.94	24.5
2644.83	25
2645.72	25.5
2646.61	23.5
2647.49	25.5
2648.38	26
2649.27	25.5
2650.16	21
2651.05	28
2651.93	26.5
2652.82	23
2653.71	24
2654.59	25
2655.48	24
2656.37	22.5
2657.25	25
2658.14	25.5
2659.03	22
2659.91	25
2660.8	23
2661.69	25.5
2662.57	25.5
2663.46	26.5
2664.34	21.5
2665.23	27
2666.11	24.5
2667	27.5
2667.88	24
2668.77	23
2669.65	24
2670.54	23.5
2671.42	26.5
2672.31	25.5
2673.19	24
2674.08	26
2674.96	25
2675.84	23.5
2676.73	24
2677.61	22
2678.49	22
2679.38	26
2680.26	24
2681.14	28
2682.03	26
2682.91	24.5
2683.79	22
2684.68	24
2685.56	24.5
2686.44	21.5
2687.32	22.5
2688.2	26.5
2689.09	25
2689.97	25.5
2690.85	23
2691.73	27.5
2692.61	25.5
2693.49	22.5
2694.38	25
2695.26	25
2696.14	25
2697.02	24.5
2697.9	25
2698.78	23.5
2699.66	27
2700.54	23.5
2701.42	23.5
2702.3	23.5
2703.18	24.5
2704.06	26
2704.94	26
2705.82	23
2706.7	22
2707.58	25
2708.46	24
2709.34	26
2710.21	31
2711.09	27
2711.97	24.5
2712.85	24
2713.73	26.5
2714.61	25
2715.49	21
2716.36	25
2717.24	21
2718.12	25.5
2719	28.5
2719.87	26
2720.75	24.5
2721.63	24
2722.51	28
2723.38	21
2724.26	26
2725.14	27
2726.01	23.5
2726.89	24
2727.77	25.5
2728.64	23
2729.52	22
2730.39	23.5
2731.27	26
2732.15	21
2733.02	25.5
2733.9	26
2734.77	24
2735.65	25
2736.52	25
2737.4	23
2738.27	25.5
2739.15	23.5
2740.02	24
2740.89	22.5
2741.77	27
2742.64	21.5
2743.52	24
2744.39	23.5
2745.27	24
2746.14	28
2747.01	25
2747.89	23
2748.76	25.5
2749.63	24.5
2750.51	26.5
2751.38	24
2752.25	26.5
2753.12	23
2754	21.5
2754.87	23
2755.74	23
2756.61	23
2757.48	26
2758.36	26.5
2759.23	26.5
2760.1	27.5
2760.97	23.5
2761.84	27.5
2762.71	24.5
2763.59	24
2764.46	26.5
2765.33	25.5
2766.2	25
2767.07	29
2767.94	24.5
2768.81	26.5
2769.68	24.5
2770.55	24.5
2771.42	25
2772.29	24
2773.16	23.5
2774.03	27
2774.9	25.5
2775.77	22.5
2776.64	24
2777.51	28
2778.37	24
2779.24	28.5
2780.11	25
2780.98	25
2781.85	27
2782.72	26.5
2783.59	25
2784.45	25
2785.32	25.5
2786.19	25
2787.06	22.5
2787.92	28
2788.79	28
2789.66	23
2790.53	23
2791.39	23.5
2792.26	29.5
2793.13	27
2793.99	29
2794.86	25
2795.73	26.5
2796.59	27
2797.46	29
2798.33	22
2799.19	23
2800.06	26
2800.92	25.75
2801.79	25.5
2802.65	26
2803.52	22
2804.39	25
2805.25	22.5
2806.11	28.5
2806.98	26.5
2807.84	24.5
2808.71	24
2809.57	31
2810.44	23
2811.3	30.5
2812.17	22.5
2813.03	23.5
2813.89	26.5
2814.76	27
2815.62	26
2816.49	25.5
2817.35	27
2818.21	24.5
2819.07	27.5
2819.94	24.5
2820.8	28.5
2821.66	29
2822.53	29
2823.39	26.5
2824.25	28
2825.11	28.5
2825.97	28.5
2826.84	24
2827.7	32
2828.56	23
2829.42	28.5
2830.28	27
2831.14	23
2832.01	28
2832.87	27
2833.73	28.5
2834.59	27.5
2835.45	22
2836.31	26
2837.17	22
2838.03	24
2838.89	28
2839.75	24.5
2840.61	25
2841.47	27
2842.33	26
2843.19	26.5
2844.05	27.5
2844.91	25.5
2845.77	24
2846.63	24
2847.48	24
2848.34	26
2849.2	21.5
2850.06	30
2850.92	25
2851.78	22.5
2852.64	28.5
2853.49	29
2854.35	27
2855.21	22.5
2856.07	26
2856.93	25.5
2857.78	27.5
2858.64	27
2859.5	27.5
2860.35	24
2861.21	27
2862.07	27
2862.93	28
2863.78	27
2864.64	27
2865.49	29.5
2866.35	27.5
2867.21	31
2868.06	28.5
2868.92	25
2869.77	27
2870.63	32
2871.49	25.5
2872.34	25
2873.2	30
2874.05	27
2874.91	31.5
2875.76	31
2876.62	30.5
2877.47	24
2878.32	28
2879.18	30
2880.03	35
2880.89	30
2881.74	28.5
2882.6	30
2883.45	32.5
2884.3	33
2885.16	32
2886.01	35
2886.86	32.5
2887.72	36
2888.57	33.5
2889.42	41.5
2890.27	38
2891.13	40.5
2891.98	45
2892.83	46
2893.68	39.5
2894.54	45
2895.39	52
2896.24	49.5
2897.09	49.5
2897.94	51
2898.8	54.5
2899.65	59
2900.5	58.5
2901.35	61.5
2902.2	63
2903.05	63
2903.9	68.5
2904.75	72
2905.6	69
2906.45	64.5
2907.3	71.5
2908.15	69
2909.01	66.5
2909.85	58.5
2910.7	64.5
2911.55	56.5
2912.4	52
2913.25	52
2914.1	49
2914.95	50.5
2915.8	42
2916.65	39.5
2917.5	43
2918.35	45.5
2919.2	38
2920.04	38.5
2920.89	34.5
2921.74	41.5
2922.59	38.5
2923.44	31.5
2924.29	34
2925.13	33
2925.98	29.5
2926.83	31.5
2927.68	33
2928.52	31
2929.37	30
2930.22	31
2931.06	31.5
2931.91	31
2932.76	27.5
2933.6	26
2934.45	31
2935.3	28.5
2936.14	24.5
2936.99	28.5
2937.83	29.5
2938.68	30.5
2939.53	26
2940.37	29.5
2941.22	30
2942.06	26.5
2942.91	27
2943.75	28.5
2944.6	30
2945.44	31
2946.29	28
2947.13	30.5
2947.98	30.5
2948.82	32
2949.66	28
2950.51	29
2951.35	33
2952.2	29.5
2953.04	29.5
2953.88	35.5
2954.73	30
2955.57	32
2956.41	33.5
2957.26	36.5
2958.1	34.5
2958.94	36.5
2959.79	38
2960.63	40
2961.47	47
2962.31	41.5
2963.15	46
2964	45
2964.84	51
2965.68	42
2966.52	43
2967.37	46
2968.21	44.5
2969.05	39
2969.89	42
2970.73	39.5
2971.57	43.9587
2972.41	35.9861
2973.25	39.9332
2974.09	35.3705
2974.93	37.733
2975.77	31.8113
2976.62	30.8939
2977.46	32.5043
2978.3	33.3513
2979.14	27.216
2979.98	27.9269
2980.81	29.3635
2981.65	29.6355
2982.49	28.9311
2983.33	29.2299
2984.17	28.7248
2985.01	25.2201
2985.85	26.121
2986.69	28.7319
2987.53	26.0036
2988.37	25.3416
2989.21	24.8333
2990.04	24.2122
2990.88	26.0901
2991.72	25.6447
2992.56	23.5412
2993.4	26.5674
2994.23	25.2833
2995.07	26.0712
2995.91	25.7069
2996.75	24.4273
2997.58	25.3471
2998.42	24.748
2999.26	25.647
3000.1	25.6519
3000.93	26.483
3001.77	24.9818
3002.61	26.4913
3003.44	21.3863
3004.28	24.7515
3005.11	22.3837
3005.95	22.5056
3006.79	23
3007.62	27.1872
3008.46	23.2096
3009.29	21.9966
3010.13	23.2696
3010.97	25.722
3011.8	22.9499
3012.64	23.4977
3013.47	20.842
3014.31	22.0482
3015.14	24.8726
3015.98	22.6645
3016.81	24.0612
3017.64	24.5391
3018.48	23.3282
3019.31	24.1062
3020.15	22.9646
3020.98	23.7999
3021.82	22.2075
3022.65	23.6555
3023.48	21.8744
3024.32	22.9532
3025.15	23.8302
3025.98	23.3528
3026.82	25.5372
3027.65	24.3856
3028.48	24.4754
3029.31	22.7721
3030.15	19.7856
3030.98	23.2611
3031.81	24.2224
3032.64	22.669
3033.48	22.2927
3034.31	21.8378
3035.14	24.0322
3035.97	23.1883
3036.8	23.2186
3037.64	22.0398
3038.47	22.6419
3039.3	23.3589
3040.13	24.2015
3040.96	23.6496
3041.79	23.3448
3042.62	24.2451
3043.45	25.1463
3044.28	24.454
3045.12	24.3158
3045.95	23.3441
3046.78	21.5544
3047.61	23.0911
3048.44	22.7386
3049.27	23.6963
3050.1	25.0335
3050.92	24.0034
3051.75	23.3331
3052.58	26.1555
3053.41	23.4619
3054.24	24.3495
3055.07	23.67
3055.9	24.1521
3056.73	24.5024
3057.26	24.5
3058.09	24
3058.93	26
3059.76	22.5
3060.59	21.5
3061.43	24.5
3062.26	23.5
3063.09	22.5
3063.92	23
3064.76	26.5
3065.59	23
3066.42	20
3067.25	25.5
3068.08	25.5
3068.92	25
3069.75	26.5
3070.58	25
3071.41	22
3072.24	23.5
3073.07	23.5
3073.9	19.5
3074.73	21.5
3075.57	22.5
3076.4	23.5
3077.23	23.5
3078.06	20.5
3078.89	27
3079.72	24.5
3080.55	23.5
3081.38	24
3082.21	28
3083.04	24.5
3083.87	29
3084.7	20
3085.53	21
3086.36	19
3087.19	23.5
3088.01	22
3088.84	25
3089.67	23.5
3090.5	23.5
3091.33	26
3092.16	23
3092.99	23
3093.81	27
3094.64	21
3095.47	23.5
3096.3	20
3097.13	23
3097.95	21.5
3098.78	25
3099.61	24
3100.44	23
3101.26	22
3102.09	26.5
3102.92	20
3103.74	23
3104.57	21.5
3105.4	25.5
3106.22	25
3107.05	21.5
3107.88	23
3108.7	23.5
3109.53	25.5
3110.35	21.5
3111.18	22.5
3112.01	24.5
3112.83	26.5
3113.66	23
3114.48	21
3115.31	27.5
3116.13	22
3116.96	23
3117.78	26
3118.61	28.5
3119.43	25.5
3120.26	20.5
3121.08	26
3121.9	22.5
3122.73	23.5
3123.55	19.5
3124.38	24.5
3125.2	23
3126.02	23
3126.85	24
3127.67	23.5
3128.49	22
3129.32	25
3130.14	25
3130.96	24
3131.79	25
3132.61	23
3133.43	23.5
3134.25	25.5
3135.08	26.5
3135.9	20.5
3136.72	22
3137.54	24
3138.37	26.5
3139.19	23
3140.01	26.5
3140.83	23.5
3141.65	23
3142.47	24.5
3143.29	26
3144.12	25
3144.94	21
3145.76	23
3146.58	23.5
3147.4	22.5
3148.22	25
3149.04	21.5
3149.86	21
3150.68	23
3151.5	25
3152.32	23
3153.14	24.5
3153.96	18.5
3154.78	22
3155.6	23
3156.42	25
3157.24	23
3158.06	22.5
3158.88	24.5
3159.7	25.5
3160.51	26
3161.33	24
3162.15	21
3162.97	24
3163.79	25
3164.61	20
3165.42	22
3166.24	26
3167.06	24.5
3167.88	23.5
3168.7	24.5
3169.51	25
3170.33	25
3171.15	23
3171.97	26.5
3172.78	25
3173.6	23
3174.42	22
3175.23	26
3176.05	24.5
3176.87	24.5
3177.68	24
3178.5	25
3179.32	20
3180.13	24
3180.95	24
3181.76	23
3182.58	25
3183.4	25
3184.21	27
3185.03	26
3185.84	25
3186.66	23.5
3187.47	20.5
3188.29	23
3189.1	22
3189.92	24
3190.73	27
3191.55	26
3192.36	20.5
3193.17	28.5
3193.99	23.5
3194.8	25
3195.62	24.5
3196.43	24.5
3197.24	22
3198.06	25
3198.87	21.5
3199.68	27
3200.5	23.5
3201.31	23
3202.12	23.5
3202.94	25
3203.75	23.5
3204.56	24.5
3205.38	24.5
3206.19	26.5
3207	21
3207.81	25.5
3208.62	24.5
3209.44	21
3210.25	28.5
3211.06	23.5
3211.87	23
3212.68	25
3213.49	18.5
3214.31	25
3215.12	25.5
3215.93	24.5
3216.74	25
3217.55	22
3218.36	22
3219.17	23
3219.98	22
3220.79	24
3221.6	23
3222.41	22
3223.22	27.5
3224.03	23.5
3224.84	24.5
3225.65	18
3226.46	24
3227.27	21.5
3228.08	20
3228.89	25.5
3229.7	22.5
3230.51	22.5
3231.32	25.5
3232.13	22
3232.94	23
3233.74	23.5
3234.55	22
3235.36	22
3236.17	24
3236.98	21
3237.78	25
3238.59	25
3239.4	22
3240.21	24
3241.02	24.5
3241.82	29.5
3242.63	24
3243.44	23.5
3244.25	21.5
3245.05	23
3245.86	22.5
3246.67	24.5
3247.47	25.5
3248.28	22.5
3249.09	27
3249.89	30.5
3250.7	24.5
3251.5	24
3252.31	24
3253.12	28
3253.92	24
3254.73	22.5
3255.53	20.5
3256.34	21
3257.14	23.5
3257.95	26
3258.75	23.5
3259.56	21
3260.36	23.5
3261.17	25.5
3261.97	21.5
3262.78	20.5
3263.58	24
3264.39	21.5
3265.19	23
3265.99	24
3266.8	24.5
3267.6	29
3268.41	21.5
3269.21	23.5
3270.01	25
3270.82	24
3271.62	28
3272.42	26
3273.23	22
3274.03	25.5
3274.83	21
3275.64	24.5
3276.44	20
3277.24	26
3278.04	27
3278.85	26
3279.65	25
3280.45	22
3281.25	23
3282.05	26
3282.85	21.5
3283.66	23
3284.46	25.5
3285.26	26
3286.06	25.5
3286.86	25
3287.66	23
3288.46	21
3289.27	22
3290.07	24.5
3290.87	24.5
3291.67	25
3292.47	21.5
3293.27	23
3294.07	22
3294.87	23
3295.67	26.5
3296.47	25
3297.27	25
3298.07	25
3298.87	24
3299.67	21.5
3300.47	25
3301.26	24.5
3302.06	22
3302.86	23.5
3303.66	24
3304.46	25.5
3305.26	24
3306.06	22
3306.86	22
3307.65	24
3308.45	26
3309.25	21
3310.05	23
3310.85	25
3311.64	23
3312.44	29.5
3313.24	27
3314.04	21.5
3314.83	23
3315.63	22
3316.43	23.5
3317.22	23
3318.02	25
3318.82	27.5
3319.62	22
3320.41	24
3321.21	24.5
3322	25
3322.8	26
3323.6	26
3324.39	22.5
3325.19	25
3325.98	20
3326.78	25.5
3327.58	21.5
3328.37	21.5
3329.17	23.5
3329.96	21
3330.76	22
3331.55	23
3332.35	25
3333.14	25
3333.94	23
3334.73	21.5
3335.52	24
3336.32	23
3337.11	24.5
3337.91	28
3338.7	22.5
3339.5	22.5
3340.29	24
3341.08	27
3341.88	26
3342.67	23
3343.46	21.5
3344.26	26.5
3345.05	24.5
3345.84	27.5
3346.63	26
3347.43	29
3348.22	23
3349.01	24
3349.8	23.5
3350.6	29.5
3351.39	24.5
3352.18	23
3352.97	25.5
3353.77	21.5
3354.56	24.5
3355.35	22.5
3356.14	21
3356.93	24.5
3357.72	21.5
3358.51	25
3359.31	22
3360.1	23.5
3360.89	22
3361.68	22.5
3362.47	19
3363.26	26
3364.05	25
3364.84	26.5
3365.63	23
3366.42	25
3367.21	23
3368	24.5
3368.79	22.5
3369.58	24.5
3370.37	26.5
3371.16	20.5
3371.95	21.5
3372.74	24.5
3373.53	20.5
3374.32	21
3375.1	27
3375.89	24
3376.68	25.5
3377.47	23
3378.26	23
3379.05	24
3379.84	24
3380.62	24.5
3381.41	26
3382.2	27
3382.99	28.5
3383.78	25
3384.56	26
3385.35	22
3386.14	27
3386.93	26
3387.71	23.5
3388.5	24
3389.29	26
3390.07	25.5
3390.86	20
3391.65	24
3392.43	26
3393.22	25
3394.01	23.5
3394.79	26
3395.58	22.5
3396.36	25.5
3397.15	23.5
3397.94	22
3398.72	25.5
3399.51	20
3400.29	24.5
3401.08	23
3401.86	25
3402.65	26.5
3403.43	24
3404.22	22
3405	25
3405.79	26
3406.57	25
3407.36	24.5
3408.14	24.5
3408.93	22
3409.71	25
3410.49	24.5
3411.28	21
3412.06	24.5
3412.84	24.5
3413.63	25
3414.41	29
3415.2	21
3415.98	22
3416.76	25
3417.54	24.5
3418.33	23
3419.11	25
3419.89	23.5
3420.68	25.5
3421.46	24
3422.24	26
3423.02	26
3423.81	26
3424.59	25
3425.37	25
3426.15	24
3426.93	20
3427.71	26
3428.5	25.5
3429.28	24
3430.06	24
3430.84	27
3431.62	28.5
3432.4	21
3433.18	22
3433.96	22.5
3434.75	23
3435.53	26.5
3436.31	25
3437.09	20
3437.87	21
3438.65	23
3439.43	23.5
3440.21	22
3440.99	23.5
3441.77	24
3442.55	24.5
3443.33	25
3444.1	25.5
3444.88	22
3445.66	26
3446.44	21.5
3447.22	23.5
3448	24
3448.78	24
3449.56	22.5
3450.34	25
3451.11	23.5
3451.89	27
3452.67	25
3453.45	22
3454.23	22
3455	27.5
3455.78	25
3456.56	21
3457.34	21.5
3458.11	24
3458.89	20
3459.67	21.5
3460.45	28
3461.22	23
3462	25.5
3462.78	24
3463.55	24.5
3464.33	20
3465.11	22
3465.88	23
3466.66	25
3467.44	21
3468.21	21.5
3468.99	22.5
3469.76	23.5
3470.54	20
3471.32	23.5
3472.09	22
3472.87	24
3473.64	22
3474.42	26.5
3475.19	25
3475.97	22.5
3476.74	25
3477.52	23
3478.29	23
3479.07	26
3479.84	22
3480.61	21.5
3481.39	24.5
3482.16	24.5
3482.94	26
3483.71	24
3484.48	25.5
3485.26	27
3486.03	25.5
3486.81	24
3487.58	24
3488.35	26
3489.13	19
3489.9	22.5
3490.67	24.5
3491.44	28
3492.22	21
3492.99	25.5
3493.76	22
3494.54	19.5
3495.31	25
3496.08	22
3496.85	25
3497.62	23
3498.4	24.5
3499.17	26
3499.94	27.5
