#Acq. time (s)=	5
#Accumulations=	5
#Range (cm-¹)=	100...3500
#Windows=	4
#Autofocus=	Off
#AutoExposure=	Off
#Spike filter=	Multiple accum.
#Delay time (s)=	0
#Binning=	1
#Readout mode=	Signal
#DeNoise=	Off
#ICS correction=	Off
#Dark correction=	Off
#Inst. Process=	Off
#Instrument=	LabRAM HR Evol
#Detector=	Syncerity OE
#Objective=	x100_VIS
#Grating=	600 (500nm)
#ND Filter=	25%
#Laser=	633nm_Edge
#Hole=	100.021
#Range=	Visible
#Project=	verificaciones
#Sample=	at3
#Site=	plain
#Title=	bolusat3plain
#Remark=	com
#Date=	16.01.2026 17:13
#Acquired=	16.01.2026 17:13:57
100.564	27.5
101.847	30
103.131	30.5
104.414	29.5
105.697	28
106.979	29
108.262	32.5
109.544	30
110.826	31.5
112.109	27
113.391	28
114.672	28
115.954	33.5
117.235	33
118.515	27.5
119.796	33.5
121.076	31
122.357	27.5
123.637	33
124.916	30
126.196	30.5
127.475	31
128.754	30.5
130.033	35.5
131.31	33.5
132.589	36
133.867	34.5
135.145	33
136.423	35.5
137.701	31
138.978	33.5
140.256	39
141.533	40.5
142.809	36.5
144.086	35.5
145.361	37
146.637	35.5
147.913	40.5
149.189	37.5
150.464	44
151.74	36
153.014	35.5
154.288	36.5
155.563	38.5
156.838	37.5
158.112	42
159.385	33.5
160.659	40
161.932	36.5
163.206	38.5
164.479	39
165.751	42
167.024	41
168.296	40
169.567	39
170.84	39
172.112	41
173.383	37
174.654	40
175.925	36
177.196	39
178.466	40
179.737	37.5
181.007	39.5
182.276	32
183.546	41
184.816	37.5
186.085	44
187.354	39
188.624	41
189.891	39.5
191.16	34
192.427	43
193.696	41.5
194.964	41
196.231	40
197.499	42.5
198.765	38
200.033	39.5
201.298	35.5
202.566	37
203.831	38
205.098	38
206.363	34
207.629	36.5
208.894	36
210.159	29.5
211.424	33.5
212.689	31
213.953	31
215.218	33.5
216.481	32.5
217.746	30
219.009	40.5
220.273	35.5
221.536	36
222.798	32.5
224.062	29
225.323	30
226.587	33.5
227.848	33
229.109	34.5
230.372	34
231.633	31
232.894	28
234.156	30.5
235.416	31
236.678	29
237.937	34.5
239.197	27
240.457	26.5
241.717	29
242.976	33.5
244.235	27.5
245.495	33.5
246.754	32.5
248.012	31.5
249.27	27.5
250.529	29.5
251.787	29
253.045	32
254.302	28
255.56	32.5
256.817	24
258.074	30.5
259.33	30
260.586	25.5
261.844	32.5
263.1	27.5
264.355	27
265.611	27.5
266.866	32
268.121	28
269.377	27
270.632	34.5
271.886	32
273.14	30
274.394	28
275.648	27.5
276.902	28
278.155	26.5
279.408	26
280.663	24
281.915	27.5
283.168	26
284.42	32.5
285.673	24
286.925	28
288.176	29
289.428	29
290.679	29
291.93	27
293.181	26.5
294.432	29.5
295.683	29.5
296.933	29
298.183	30
299.433	28
300.683	29
301.932	29
303.182	30.5
304.429	27.5
305.678	30
306.927	30
308.176	28
309.424	24
310.672	23
311.92	28
313.168	28
314.415	24.5
315.661	29
316.908	25
318.155	28
319.402	30
320.648	28
321.895	31
323.139	26
324.385	26
325.631	27
326.877	27
328.122	28.5
329.366	30.5
330.611	28
331.855	29
333.1	28
334.343	30.5
335.587	26
336.831	30
338.074	28
339.317	26.5
340.56	28
341.803	27
343.044	26
344.287	26
345.53	27
346.771	24.5
348.013	23
349.255	28
350.495	24
351.736	29
352.978	29
354.217	29
355.458	29
356.699	28
357.938	24
359.178	27
360.417	27
361.657	27.5
362.895	27
364.135	27.5
365.374	24
366.612	25
367.851	30.5
369.088	26.5
370.327	28.5
371.564	23.5
372.802	29
374.038	28
375.276	24.5
376.512	28.5
377.749	27.5
378.985	26.5
380.222	29
381.457	26
382.692	24.5
383.929	25.5
385.164	28
386.4	25
387.634	27
388.869	27
390.103	27
391.337	27
392.572	23.5
393.805	26
395.038	29
396.273	27
397.506	25
398.74	27.5
399.972	28.5
401.204	29
402.437	28
403.669	28
404.901	29
406.132	27
407.365	27
408.596	26
409.826	26.5
411.058	32.5
412.289	26
413.519	25
414.749	29
415.98	29
417.21	28
418.439	26
419.668	29
420.897	30
422.128	28
423.356	26.5
424.585	28
425.813	24.5
427.041	29
428.269	28.5
429.498	29
430.725	27
431.952	31
433.179	24.5
434.406	27.5
435.633	25
436.859	26
438.085	29
439.312	28.5
440.537	25.5
441.764	30
442.99	29
444.215	27.5
445.44	26.5
446.665	26.5
447.89	31
449.114	29.5
450.339	24
451.563	25
452.787	28.5
454.01	29.5
455.234	27
456.457	28.5
457.68	31
458.903	30.5
460.126	29.5
461.348	30
462.569	30
463.792	29
465.013	30
466.235	36.5
467.457	33
468.678	30
469.899	31
471.12	34
472.341	33
473.56	39.5
474.781	37.5
476.001	41
477.221	40
478.441	36
479.66	44
480.878	50.5
482.098	49
483.317	48
484.535	49
485.754	57.5
486.971	52.5
488.189	48
489.407	54
490.625	58
491.842	59
493.059	54.5
494.276	52
495.493	54
496.709	49
497.926	45
499.142	43.5
500.357	45
501.573	41
502.789	41
504.003	40
505.219	37
506.434	42
507.648	35.5
508.863	36
510.078	44.5
511.291	34.5
512.505	32.5
513.718	34.5
514.932	34
516.145	34
517.358	32.5
518.572	32.5
519.783	34
520.997	33.5
522.208	30
523.421	31
524.632	31.5
525.844	34
527.055	28.5
528.266	30.5
529.477	31
530.688	29
531.898	30.5
533.109	26
534.319	30.5
535.53	26.5
536.739	25
537.948	28
539.158	27
540.366	28
541.576	24.5
542.784	31
543.994	31.5
545.201	25.5
546.409	29.5
547.618	29
548.825	29.5
550.032	28.5
551.24	30.5
552.447	30.5
553.654	26.5
554.861	31.5
556.067	29.5
557.273	25
558.48	28
559.686	27.5
560.891	27
562.096	25.5
563.302	27.5
564.507	27
565.712	26
566.916	29
568.122	24.5
569.326	29
570.529	25.5
571.733	28.5
572.936	26.5
574.141	27
575.344	27
576.547	28
577.75	27.5
578.952	24.5
580.154	28
581.358	30
582.56	24
583.761	28
584.963	24.5
586.164	27.5
587.365	31
588.566	30
589.767	30.5
590.967	24
592.168	29
593.369	23.5
594.569	31.5
595.769	29
596.969	24
598.168	24.5
599.367	30
600.566	28
601.765	28.5
602.964	26.5
604.162	28
605.361	28.5
606.559	28
607.757	32.5
608.953	30
610.151	26
611.348	32
612.545	29
613.742	24
614.939	23.5
616.135	27.5
617.332	28.5
618.528	28
619.724	32
620.918	27
622.114	30
623.309	26.5
624.505	29
625.7	28
626.895	30
628.088	29
629.282	27
630.477	29.5
631.671	27
632.865	26
634.057	27
635.251	28.5
636.444	26.5
637.637	25
638.829	28.5
640.022	30
641.214	27
642.407	30.5
643.598	27
644.79	30.5
645.982	29
647.172	25.5
648.364	27
649.555	29
650.745	27.5
651.936	31
653.126	29.5
654.315	25.5
655.506	23.5
656.696	30
657.885	27
659.074	32
660.263	29
661.452	30
662.64	30
663.829	25.5
665.018	27
666.205	29
667.394	27
668.581	32
669.769	27.5
670.955	31
672.143	31.5
673.329	32
674.517	30
675.703	27.5
676.89	29.5
678.075	28.5
679.262	30
680.447	30
681.632	34
682.818	34
684.002	31
685.188	35.5
686.372	37.5
687.556	34.5
688.741	30.5
689.925	36
691.11	36.5
692.293	34
693.476	36
694.66	31
695.843	33
697.025	34
698.209	32
699.391	33.5
700.573	33.5
701.756	35
702.938	37
704.119	33
705.3	46.5
706.483	45
707.664	45
708.844	54.5
710.025	49.5
711.206	44.5
712.386	46
713.566	43.5
714.746	42
715.925	32.5
717.106	34.5
718.285	31
719.464	33
720.643	28
721.822	30
723	25
724.178	26
725.358	29
726.536	28
727.713	27.5
728.891	28
730.068	28
731.245	29
732.422	28
733.599	30
734.775	26.5
735.952	25
737.128	29.5
738.304	30
739.48	24.5
740.656	29.5
741.831	28.5
743.006	30.5
744.181	23.5
745.356	26.5
746.531	31.5
747.706	24.5
748.88	28
750.054	26.5
751.228	29.5
752.402	25
753.576	25
754.749	30.5
755.922	27.5
757.095	30
758.267	24
759.44	28
760.612	27.5
761.785	29.5
762.957	22
764.129	28.5
765.301	24
766.471	27.5
767.642	30
768.814	26
769.985	31.5
771.156	30.5
772.325	25
773.495	27.5
774.666	26.5
775.836	30
777.005	27.5
778.174	26.5
779.344	26.5
780.513	30
781.681	28
782.85	27
784.019	27
785.187	31.5
786.355	30.5
787.523	30
788.69	33
789.858	29.5
791.026	30
792.192	29.5
793.36	32
794.526	27.5
795.693	31
796.86	30.5
798.025	30
799.191	29.5
800.356	29
801.523	24
802.689	28
803.853	27
805.019	31
806.183	28
807.348	29
808.512	28
809.677	28.5
810.84	30.5
812.005	28
813.167	26
814.332	32
815.494	31
816.657	28
817.82	23
818.982	24.5
820.146	27
821.307	22.5
822.47	31
823.632	21.5
824.793	28
825.955	26
827.116	24.5
828.277	23
829.439	27
830.599	24
831.759	27.5
832.92	27
834.08	27
835.24	26.5
836.4	28.5
837.56	29
838.719	25.5
839.877	26
841.037	28.5
842.196	25
843.354	27
844.512	25.5
845.672	30
846.83	28.5
847.987	28.5
849.145	27.5
850.302	32
851.46	27.5
852.617	27
853.774	26
854.93	25.5
856.087	26
857.243	29
858.4	26
859.556	31
860.712	31
861.867	30
863.022	30.5
864.177	29
865.332	23.5
866.487	32
867.642	24
868.796	29
869.95	25
871.104	28.5
872.258	27.5
873.412	25
874.565	30.5
875.718	26.5
876.872	29.5
878.024	27.5
879.177	28.5
880.33	26.5
881.482	30.5
882.635	25
883.787	28.5
884.938	27
886.09	28
887.242	23.5
888.393	26.5
889.544	24
890.695	26
891.845	28.5
892.995	28.5
894.146	28.5
895.296	27
896.446	23
897.596	23
898.744	29.5
899.894	25.5
901.043	32
902.193	26
903.342	28
904.489	23.5
905.638	30.5
906.786	26.5
907.935	23
909.081	29.5
910.229	27.5
911.377	25.5
912.525	22.5
913.671	28
914.818	20
915.965	28
917.111	26
918.258	26
919.404	28.5
920.549	26
921.695	25.5
922.84	26
923.986	28
925.132	30
926.276	23
927.421	22.5
928.565	26
929.71	26
930.855	22
931.998	30
933.142	25
934.285	28.5
935.429	24
936.572	24.5
937.716	29
938.858	28.5
940.001	23.5
941.143	29.5
942.286	28.5
943.428	24
944.57	24.5
945.712	28.5
946.854	26
947.995	24.5
949.135	26
950.277	24
951.418	26.5
952.559	29
953.699	22.5
954.839	21
955.98	28.5
957.119	20
958.258	24.5
959.399	26
960.538	22.5
961.676	24
962.816	27
963.955	26.5
965.093	26.5
966.232	26
967.37	25
968.508	26
969.645	26
970.784	27.25
971.921	28
973.058	29
974.195	25
975.333	25.5
976.469	29.5
977.605	23
978.741	23.5
979.877	26.5
981.013	21.5
982.15	30
983.285	26
984.421	24
985.556	28.5
986.691	25.5
987.825	23
988.96	25.5
990.094	25
991.228	24.5
992.364	21
993.497	26
994.631	30
995.765	27.5
996.898	25.5
998.031	28
999.164	24.5
1000.3	24
1001.43	26
1002.56	28.5
1003.69	26.5
1004.83	25.5
1005.96	29
1007.09	30.5
1008.22	25.5
1009.35	26.5
1010.48	27
1011.61	28
1012.74	25.5
1013.88	22
1015.01	24
1016.14	22
1017.27	26.5
1018.4	26
1019.53	23.5
1020.65	27.5
1021.78	28
1022.91	23
1024.04	25
1025.17	25
1026.3	26
1027.43	27
1028.56	28
1029.68	27.5
1030.81	27
1031.94	23.5
1033.07	25.5
1034.19	27
1035.32	23
1036.45	25.5
1037.58	25.5
1038.7	24.5
1039.83	29.5
1040.95	25
1042.08	22
1043.21	29.5
1044.33	25
1045.46	29.5
1046.58	28.5
1047.71	25.5
1048.83	22.5
1049.96	24
1051.08	27
1052.21	25.5
1053.33	24.5
1054.45	24
1055.58	25.5
1056.7	27.5
1057.82	27
1058.95	28
1060.07	25.5
1061.19	24.5
1062.32	27.5
1063.44	27
1064.56	23
1065.68	27.5
1066.81	24.5
1067.93	26.5
1069.05	24
1070.17	31
1071.29	25
1072.41	26
1073.53	25.5
1074.65	24.5
1075.77	27.5
1076.89	25
1078.01	24.5
1079.13	25.5
1080.25	23.5
1081.37	24.5
1082.49	26
1083.61	23
1084.73	26
1085.85	29
1086.97	26.5
1088.09	21.5
1089.2	21.5
1090.32	25
1091.44	23
1092.56	27
1093.68	26.5
1094.79	27.5
1095.91	28.5
1097.03	21.5
1098.14	22.5
1099.26	26
1100.38	26
1101.49	25
1102.61	25.5
1103.73	22
1104.84	26
1105.96	23
1107.07	24
1108.19	22
1109.3	25.5
1110.42	25.5
1111.53	30
1112.65	20
1113.76	21.5
1114.88	23.5
1115.99	25
1117.1	23
1118.22	25
1119.33	22.5
1120.44	28
1121.56	27.5
1122.67	25.5
1123.78	24
1124.89	25
1126.01	26.5
1127.12	28
1128.23	24
1129.34	26.5
1130.45	26.5
1131.56	23.5
1132.67	22.5
1133.79	24.5
1134.9	20.5
1136.01	24.5
1137.12	25
1138.23	25
1139.34	26.5
1140.45	24.5
1141.56	25
1142.67	24.5
1143.78	23
1144.89	24.5
1145.99	28
1147.1	29
1148.21	24.5
1149.32	27
1150.43	24.5
1151.54	26
1152.65	27
1153.75	24
1154.86	22
1155.97	25.5
1157.08	27
1158.18	26.5
1159.29	24
1160.4	24.5
1161.5	24
1162.61	23
1163.72	29
1164.82	30.5
1165.93	22.5
1167.03	26
1168.14	24
1169.24	24
1170.35	23
1171.45	24.5
1172.56	25
1173.66	24
1174.77	25.5
1175.87	22.5
1176.98	22
1178.08	25
1179.18	25
1180.29	26.5
1181.39	25
1182.49	22.5
1183.6	24
1184.7	25
1185.8	23
1186.9	28
1188	20.5
1189.11	25
1190.21	24
1191.31	21
1192.41	24.5
1193.51	26
1194.61	24.5035
1195.72	21.9781
1196.82	20.5893
1197.92	23.0751
1199.02	21.0946
1200.12	25.4353
1201.22	24.8326
1202.32	23.3285
1203.42	23.4099
1204.52	21.5119
1205.62	26.6048
1206.71	22.6843
1207.81	20.048
1208.91	25.8949
1210.01	22.338
1211.11	24.7793
1212.21	24.4157
1213.31	22.2261
1214.4	24.9384
1215.5	23.6287
1216.6	26.601
1217.7	25.6835
1218.79	24.6887
1219.89	23.0874
1220.99	22.6809
1222.08	23.6185
1223.18	24.2297
1224.28	24.4657
1225.37	26.3408
1226.47	28.4916
1227.56	20.8045
1228.66	24.2386
1229.76	24.8875
1230.85	23.1626
1231.95	25.5124
1233.04	22.9765
1234.14	21.7268
1235.23	24.3641
1236.32	21.3514
1237.42	23.6246
1238.51	21.8687
1239.61	25.1976
1240.7	22.695
1241.79	24.4077
1242.89	24.8947
1243.98	22.5651
1245.07	21.9643
1246.17	24.2863
1247.26	24.8766
1248.35	23.6454
1249.44	23.8
1250.53	23.1731
1251.63	22.7967
1252.72	25.0848
1253.81	23.756
1254.9	22.425
1255.99	24.1045
1257.08	22.9279
1258.17	24.8422
1259.27	26.0876
1260.36	26.8404
1261.45	24.6394
1262.54	24.4614
1263.63	24.1067
1264.72	28.2104
1265.81	25.2427
1266.89	27.6829
1267.98	25.0814
1269.07	26.4366
1270.16	26.0566
1271.25	23.8284
1272.34	24.4645
1273.43	22.0941
1274.52	24.6173
1275.6	24.8905
1276.69	22.9988
1277.78	24.2911
1278.87	23.8762
1279.95	22.7128
1281.04	23.6914
1282.13	24.2903
1283.22	22.5173
1284.3	21.0357
1285.39	21.4219
1286.48	21.7694
1287.56	24.2671
1288.65	23.9613
1289.73	24.3526
1290.82	21.7162
1291.9	23.9037
1292.99	23.0735
1294.07	21.0849
1295.16	24.3403
1296.24	25.9302
1297.33	24.3057
1298.41	23.8102
1299.5	23.2574
1300.58	21.0468
1301.66	20.7999
1302.75	21.2209
1303.83	22.1001
1304.91	23.4437
1306	23.0457
1306.4	22.5
1307.48	21.5
1308.57	24
1309.66	23.5
1310.75	22
1311.84	20
1312.92	25
1314.01	22
1315.1	24
1316.18	24.5
1317.27	26.5
1318.36	21
1319.44	22.5
1320.53	21
1321.62	27
1322.7	25
1323.79	23.5
1324.87	28
1325.96	20
1327.04	24.5
1328.13	25
1329.21	19
1330.3	19
1331.38	24.5
1332.47	22
1333.55	22.5
1334.64	24
1335.72	26.5
1336.8	21
1337.89	26
1338.97	25
1340.05	26.5
1341.14	21
1342.22	23
1343.3	27.5
1344.38	25
1345.47	23
1346.55	20
1347.63	21
1348.71	26.5
1349.79	24.5
1350.87	25
1351.96	26
1353.04	24
1354.12	22
1355.2	25.5
1356.28	24
1357.36	24
1358.44	23
1359.52	27.5
1360.6	24
1361.68	24
1362.76	24
1363.84	26.5
1364.92	25
1366	21
1367.07	26
1368.15	24
1369.23	24.5
1370.31	24
1371.39	24.5
1372.47	24
1373.54	21.5
1374.62	22
1375.7	23.5
1376.78	25
1377.85	22
1378.93	27.5
1380.01	27.5
1381.08	22.5
1382.16	25.5
1383.24	25
1384.31	26
1385.39	22
1386.46	23
1387.54	27.5
1388.61	27.5
1389.69	21
1390.76	25.5
1391.84	27.5
1392.91	26
1393.99	29.5
1395.06	22.5
1396.14	30
1397.21	24
1398.29	31
1399.36	27
1400.43	27
1401.51	26
1402.58	32
1403.65	27
1404.72	32
1405.8	32.5
1406.87	30.5
1407.94	25
1409.02	31
1410.09	29
1411.16	32
1412.23	30.5
1413.3	27
1414.37	36.5
1415.44	29
1416.51	30.5
1417.59	30
1418.66	25.5
1419.73	30
1420.8	26
1421.87	26.5
1422.94	26
1424.01	27
1425.08	28
1426.15	30
1427.22	24.5
1428.28	28
1429.35	29
1430.42	23.5
1431.49	26
1432.56	27
1433.63	27.5
1434.7	26.5
1435.76	26
1436.83	24.5
1437.9	23.5
1438.97	28
1440.03	25
1441.1	23
1442.17	27.5
1443.23	27
1444.3	27
1445.37	25.5
1446.43	27.5
1447.5	27.5
1448.57	23
1449.63	23
1450.7	22.5
1451.76	24
1452.83	25.5
1453.89	26.5
1454.96	27
1456.02	24.5
1457.09	24
1458.15	27
1459.22	25
1460.28	23
1461.34	24
1462.41	26
1463.47	20
1464.53	27
1465.6	22.5
1466.66	21
1467.72	25.5
1468.78	25.5
1469.85	23.5
1470.91	26
1471.97	24
1473.03	24.5
1474.1	27
1475.16	23
1476.22	26
1477.28	26
1478.34	23
1479.4	21
1480.46	24
1481.52	29.5
1482.58	26.5
1483.65	26
1484.71	28
1485.77	22
1486.82	22
1487.89	24
1488.94	27
1490	24
1491.06	24.5
1492.12	18
1493.18	23.5
1494.24	25.5
1495.3	24.5
1496.36	24
1497.41	24.5
1498.47	26
1499.53	24.5
1500.59	23.5
1501.65	22
1502.7	24.5
1503.76	25.5
1504.82	26
1505.87	22.5
1506.93	21
1507.99	26.5
1509.04	27
1510.1	24.5
1511.16	20.5
1512.21	20
1513.27	23.5
1514.32	24.5
1515.38	25.5
1516.43	25.5
1517.49	23.5
1518.54	28.5
1519.6	25
1520.65	24.5
1521.71	28.5
1522.76	21
1523.81	27
1524.87	24
1525.92	25.5
1526.98	21.5
1528.03	25
1529.08	26
1530.14	28
1531.19	25
1532.24	27
1533.29	24
1534.35	24
1535.4	24.5
1536.45	30
1537.5	25
1538.55	26.5
1539.61	27
1540.66	26
1541.71	23
1542.76	25
1543.81	25
1544.86	22
1545.91	26
1546.96	26
1548.01	28
1549.06	27
1550.11	24
1551.16	28
1552.21	25.5
1553.26	27
1554.31	23
1555.36	24.5
1556.41	29
1557.46	26
1558.5	27
1559.55	24.5
1560.6	25
1561.65	26
1562.7	25
1563.74	25.5
1564.79	26
1565.84	24
1566.89	25.5
1567.93	23.5
1568.98	22.5
1570.03	25
1571.07	24.5
1572.12	22.5
1573.17	25
1574.21	25
1575.26	29
1576.3	27
1577.35	26.5
1578.4	23
1579.44	24
1580.49	25.5
1581.53	27
1582.58	25
1583.62	24.5
1584.66	22
1585.71	25.5
1586.75	25
1587.8	27
1588.84	24.5
1589.88	24.5
1590.93	24.5
1591.97	27.5
1593.01	28
1594.06	24
1595.1	25.5
1596.14	25
1597.18	24
1598.23	23.5
1599.27	26
1600.31	25.5
1601.35	25.5
1602.39	19.5
1603.44	28
1604.48	26
1605.52	24
1606.56	21.5
1607.6	26
1608.64	28
1609.68	24
1610.72	24
1611.76	27.5
1612.8	24.5
1613.84	25
1614.88	24
1615.92	29.5
1616.96	28.5
1618	25
1619.04	21.5
1620.08	25.5
1621.12	22
1622.16	25
1623.19	26.5
1624.23	23
1625.27	25
1626.31	24
1627.35	29.5
1628.38	24
1629.42	27
1630.46	20.5
1631.49	22
1632.53	21
1633.57	24.5
1634.6	24
1635.64	21
1636.68	27
1637.71	23
1638.75	23.5
1639.79	24
1640.82	27
1641.86	27
1642.89	25.5
1643.93	26
1644.96	23
1646	27
1647.03	24
1648.07	22
1649.1	26
1650.13	24.5
1651.17	22.5
1652.2	24
1653.24	27.5
1654.27	25
1655.3	27
1656.34	26
1657.37	23.5
1658.4	30
1659.43	25
1660.47	25.5
1661.5	27
1662.53	23
1663.56	23
1664.6	23.5
1665.63	23
1666.66	24.5
1667.69	22
1668.72	25.5
1669.75	27
1670.78	25
1671.81	26
1672.85	24
1673.88	26.5
1674.91	29
1675.94	24
1676.97	18.5
1678	24
1679.03	27.5
1680.06	24
1681.09	26.5
1682.11	24
1683.14	24.5
1684.17	20
1685.2	22.5
1686.23	22.5
1687.26	26
1688.29	25.5
1689.31	27
1690.34	26
1691.37	27.5
1692.4	19
1693.42	23
1694.45	20
1695.48	24.5
1696.51	21
1697.53	29
1698.56	23
1699.59	29
1700.61	24.5
1701.64	23
1702.66	25
1703.69	26
1704.72	26
1705.74	30
1706.77	20.5
1707.79	26
1708.82	25
1709.84	24
1710.87	26.5
1711.89	26.5
1712.91	27
1713.94	19.5
1714.96	25.5
1715.99	20
1717.01	23
1718.03	25.5
1719.06	23.5
1720.08	23
1721.1	24
1722.13	24.5
1723.15	27
1724.17	25
1725.19	28
1726.22	23.5
1727.24	20
1728.26	22.5
1729.28	25
1730.3	25
1731.33	27.5
1732.35	24.5
1733.37	22
1734.39	26.5
1735.41	23.5
1736.43	23.5
1737.45	26
1738.47	25.5
1739.49	27.5
1740.51	22.5
1741.53	23
1742.55	27
1743.57	25
1744.59	27
1745.61	23.5
1746.63	26
1747.65	27
1748.67	27
1749.69	23
1750.7	26
1751.72	26.5
1752.74	24
1753.76	23.5
1754.78	24.5
1755.79	27
1756.81	26
1757.83	25
1758.85	23.5
1759.86	23.5
1760.88	25.5
1761.9	27.5
1762.91	25.5
1763.93	26
1764.95	25
1765.96	22.5
1766.98	28.5
1767.99	21
1769.01	20
1770.02	23.5
1771.04	26.5
1772.06	22.5
1773.07	26
1774.09	25
1775.1	25
1776.11	22
1777.13	27
1778.14	22
1779.16	21.5
1780.17	23
1781.18	27
1782.2	22
1783.21	23
1784.22	28
1785.24	24
1786.25	26.5
1787.26	25.5
1788.28	21.5
1789.29	23
1790.3	26
1791.31	23.5
1792.33	23
1793.34	26
1794.35	25.5
1795.36	23
1796.37	23
1797.38	20
1798.39	24.5
1799.4	23.5
1800.42	25
1801.43	24
1802.44	28
1803.45	21
1804.46	27
1805.47	25
1806.48	27
1807.49	27
1808.5	27
1809.51	27
1810.51	24.5
1811.52	25
1812.53	23
1813.54	25
1814.55	26
1815.56	25
1816.57	26.5
1817.57	25
1818.58	25
1819.59	25.5
1820.6	22.5
1821.61	26.5
1822.61	22
1823.62	25
1824.63	21.5
1825.63	23.5
1826.64	26
1827.65	23.5
1828.65	23.5
1829.66	27
1830.67	25
1831.67	25.5
1832.68	23.5
1833.68	24.5
1834.69	25
1835.69	26
1836.7	26.5
1837.7	26
1838.71	21.5
1839.71	26.5
1840.72	22.5
1841.72	20
1842.73	24.5
1843.73	23
1844.73	23
1845.74	19.5
1846.74	25
1847.74	27
1848.75	23
1849.75	27
1850.75	28
1851.76	22.5
1852.76	25.5
1853.76	24.5
1854.76	28
1855.77	27
1856.77	20
1857.77	28.5
1858.77	25
1859.77	24.5
1860.77	21
1861.78	24
1862.78	26
1863.78	26
1864.78	25.5
1865.78	25.5
1866.78	28
1867.78	24.5
1868.78	20
1869.78	23
1870.78	27
1871.78	25.5
1872.78	26
1873.78	24
1874.78	22.5
1875.78	25
1876.78	25
1877.78	24.5
1878.77	21.5
1879.77	21
1880.77	23
1881.77	26
1882.77	21
1883.77	23
1884.76	25
1885.76	25.5
1886.76	25
1887.75	27.5
1888.75	20
1889.75	26.5
1890.75	28
1891.74	24.5
1892.74	24
1893.73	23
1894.73	27.5
1895.73	22.5
1896.72	25
1897.72	24
1898.71	24
1899.71	27
1900.7	23.5
1901.7	22.5
1902.69	24
1903.69	28.5
1904.68	23.5
1905.68	23
1906.67	28
1907.67	26
1908.66	24
1909.65	25
1910.65	24
1911.64	26.5
1912.63	22
1913.63	24
1914.62	23
1915.61	27
1916.61	24.5
1917.6	23
1918.59	22
1919.58	22
1920.58	20.5
1921.57	25.5
1922.56	22
1923.55	27
1924.54	23
1925.54	23.5
1926.53	25.5
1927.52	23
1928.51	21
1929.5	24
1930.49	24.5
1931.48	23
1932.47	21
1933.46	26
1934.45	23
1935.44	17
1936.43	25
1937.42	26.5
1938.41	26
1939.4	23
1940.39	23.5
1941.38	25.5
1942.37	25
1943.35	22.5
1944.34	26
1945.33	23.5
1946.32	23
1947.31	29
1948.3	27.5
1949.28	26
1950.27	26.5
1951.26	24
1952.25	24.5
1953.23	23.5
1954.22	24.5
1955.21	23.5
1956.19	22.5
1957.18	20.5
1958.17	28.5
1959.15	24
1960.14	26.5
1961.12	25.5
1962.11	21
1963.1	23
1964.08	25
1965.07	27
1966.05	26
1967.04	23
1968.02	23
1969.01	24.5
1969.99	23
1970.98	21.5
1971.96	27.5
1972.94	21
1973.93	22
1974.91	26
1975.9	23
1976.88	21
1977.86	27
1978.85	27
1979.83	23
1980.81	26.5
1981.79	21
1982.78	24
1983.76	26
1984.74	22
1985.72	25.5
1986.71	27
1987.69	26.5
1988.67	27.5
1989.65	22
1990.63	27
1991.61	22.5
1992.59	23.5
1993.57	27.5
1994.56	20
1995.54	23
1996.52	25
1997.5	24.5
1998.48	24.5
1999.46	21.5
2000.44	25.5
2001.42	24.5
2002.4	21
2003.38	25
2004.36	24
2005.33	27.5
2006.31	26.5
2007.29	22.5
2008.27	23
2009.25	23.5
2010.23	21.5
2011.21	24
2012.18	25
2013.16	25.5
2014.14	25.5
2015.12	24
2016.09	27
2017.07	26
2018.05	23
2019.03	22
2020	21
2020.98	24
2021.96	26.5
2022.93	24
2023.91	25
2024.89	21.5
2025.86	27
2026.84	21
2027.81	23.5
2028.79	26.5
2029.76	24
2030.74	22
2031.71	27.5
2032.69	21
2033.66	25.5
2034.64	23
2035.61	26.5
2036.59	21
2037.56	23.5
2038.54	20
2039.51	24.5
2040.48	24
2041.46	22
2042.43	26.5
2043.4	22.5
2044.38	25
2045.35	20
2046.32	21.5
2047.29	23
2048.27	24
2049.24	25.5
2050.21	23
2051.18	22
2052.16	25.5
2053.13	25
2054.1	21
2055.07	22.5
2056.04	24.5
2057.01	23
2057.98	23.5
2058.96	21.5
2059.93	24.5
2060.9	19
2061.87	22.5
2062.84	24
2063.81	25
2064.78	23
2065.75	24
2066.72	21
2067.69	18.5
2068.66	24.5
2069.63	22.5
2070.6	21
2071.56	22.5
2072.53	23
2073.5	27
2074.47	25.5
2075.44	27
2076.41	20
2077.38	25
2078.34	27
2079.31	21
2080.28	24
2081.25	21.5
2082.21	23
2083.18	22.5
2084.15	22.5
2085.11	22.5
2086.08	25.5
2087.05	23
2088.01	21
2088.98	18
2089.95	23.5
2090.91	24.5
2091.88	22
2092.84	21
2093.81	24.5
2094.78	23.5
2095.74	24
2096.71	24
2097.67	20.5
2098.64	27
2099.6	22
2100.57	26.5
2101.53	24
2102.49	22.5
2103.46	20
2104.42	21.5
2105.39	21
2106.35	25
2107.31	21
2108.28	22
2109.24	22.5
2110.2	24
2111.17	26
2112.13	20.5
2113.09	23.5
2114.05	25.5
2115.02	27.5
2115.98	23.5
2116.94	25.5
2117.9	27.5
2118.86	24
2119.83	26.5
2120.79	22.5
2121.75	22.5
2122.71	22
2123.67	22.5
2124.63	22.5
2125.59	22
2126.55	25.5
2127.51	21
2128.47	24.5
2129.43	20
2130.39	23
2131.35	23
2132.31	20.5
2133.27	26.5
2134.23	23
2135.19	25
2136.15	21.5
2137.11	20
2138.07	21
2139.03	22.5
2139.99	19
2140.94	20.5
2141.9	24.5
2142.86	18.9942
2143.82	24.9149
2144.78	22.5965
2145.73	24.8554
2146.69	21.1271
2147.65	19.7229
2148.61	21.1614
2149.56	23.6902
2150.52	26.6448
2151.48	23.0676
2152.43	26.391
2153.39	21.6817
2154.35	23.3402
2155.3	22.0535
2156.26	21.0781
2157.21	24.5391
2158.17	22.2721
2159.13	20.6379
2160.08	24.5709
2161.04	23.3025
2161.99	23.7809
2162.95	21.96
2163.9	23.5661
2164.86	22.0946
2165.81	23.4149
2166.77	24.2111
2167.72	20.65
2168.67	22.1809
2169.63	21.7966
2170.58	23.831
2171.54	23.093
2172.49	22.7508
2173.44	22.7838
2174.4	22.6696
2175.35	21.1924
2176.3	21.8618
2177.26	24.1344
2178.21	22.0131
2179.16	21.8273
2180.11	22.0974
2181.07	23.554
2182.02	22.8922
2182.97	22.4794
2183.92	22.9407
2184.87	20.0138
2185.82	21.6108
2186.78	22.9684
2187.73	21.2142
2188.68	24.029
2189.63	21.5333
2190.58	21.4334
2191.53	25
2192.48	22.5223
2193.43	23.4436
2194.38	24.659
2195.33	21.4135
2196.28	24.5672
2197.23	23.4315
2198.18	22.932
2199.13	21.7679
2200.08	21.408
2201.03	21.831
2201.98	19.9209
2202.93	21.0603
2203.88	22.9384
2204.83	22.1571
2205.77	21.7635
2206.72	22.4716
2207.67	24.4274
2208.62	22.7776
2209.57	24.5795
2210.52	21.9029
2211.46	22.0066
2212.41	21.5416
2213.36	21.6002
2214.31	21.7301
2215.25	23.1948
2216.2	23.671
2217.15	21.1628
2218.09	19.3834
2219.04	19.7297
2219.99	23.0194
2220.93	22.9617
2221.88	22.558
2222.82	20.9592
2223.77	21.9657
2224.72	22.721
2225.66	21.8773
2226.61	20.7086
2227.55	24.6159
2228.5	23.4067
2229.44	21.7983
2230.39	21.4303
2231.33	22.5351
2232.28	22.3393
2233.22	23.5322
2234.16	21.6689
2235.11	24.3992
2236.05	21.9996
2237	23.3593
2237.94	22.2223
2238.88	21.7032
2239.83	22.6756
2240.13	23
2241.08	24
2242.03	23
2242.98	24
2243.92	21
2244.87	24.5
2245.82	25.5
2246.76	22
2247.71	18
2248.66	24
2249.61	18.5
2250.55	21
2251.5	24
2252.45	20.5
2253.39	23.5
2254.34	23.5
2255.28	20
2256.23	18.5
2257.18	23
2258.12	20
2259.07	21
2260.01	23.5
2260.96	26
2261.9	18.5
2262.85	18.5
2263.79	25
2264.74	24.5
2265.68	20
2266.63	26.5
2267.57	23
2268.51	27
2269.46	23.5
2270.4	26
2271.35	22
2272.29	25
2273.23	23
2274.18	23.5
2275.12	25
2276.06	23
2277	24
2277.95	22.5
2278.89	23
2279.83	25
2280.78	21
2281.72	22
2282.66	25.5
2283.6	21
2284.54	20
2285.48	24
2286.43	23.5
2287.37	24
2288.31	23.5
2289.25	23.5
2290.19	18.5
2291.13	21
2292.07	21
2293.01	22.5
2293.95	24
2294.89	28
2295.83	19
2296.77	23
2297.71	25.5
2298.65	19
2299.59	22.5
2300.53	17.5
2301.47	22
2302.41	24
2303.35	23
2304.29	22
2305.22	21
2306.16	22
2307.1	23.5
2308.04	23.5
2308.98	23.5
2309.91	18.5
2310.85	22
2311.79	25
2312.73	22
2313.66	21
2314.6	25
2315.54	20.5
2316.48	23.5
2317.41	27
2318.35	23
2319.29	21.5
2320.22	25
2321.16	22.5
2322.09	23
2323.03	24.5
2323.97	24.5
2324.9	22.5
2325.84	27
2326.77	25
2327.71	25
2328.64	24.5
2329.58	23.5
2330.51	21.5
2331.45	22
2332.38	24
2333.32	24.5
2334.25	27
2335.18	24.5
2336.12	22
2337.05	21
2337.99	21.5
2338.92	21
2339.85	22.5
2340.79	25
2341.72	21
2342.65	22
2343.59	22.5
2344.52	22
2345.45	26.5
2346.38	24
2347.32	22
2348.25	21.5
2349.18	24
2350.11	24.5
2351.04	26.5
2351.98	24
2352.91	22.5
2353.84	22
2354.77	25
2355.7	23.5
2356.63	21
2357.56	20.5
2358.49	30.5
2359.42	23.5
2360.35	25
2361.28	24
2362.21	24.5
2363.14	22
2364.07	19
2365	22.5
2365.93	24
2366.86	25.5
2367.79	24.5
2368.72	24
2369.65	21.5
2370.58	26
2371.51	22
2372.44	21
2373.36	26.5
2374.29	22
2375.22	20
2376.15	26
2377.08	21
2378	26.5
2378.93	23
2379.86	24
2380.79	21.5
2381.71	23
2382.64	27
2383.57	22.5
2384.49	22.5
2385.42	20.5
2386.35	21.5
2387.27	20
2388.2	24.5
2389.13	23.5
2390.05	25.5
2390.98	24
2391.9	22.5
2392.83	25
2393.76	23
2394.68	21
2395.61	22
2396.53	19.5
2397.46	23
2398.38	23.5
2399.3	20.5
2400.23	21
2401.15	25.5
2402.08	22.5
2403	24.5
2403.93	25
2404.85	23
2405.77	22
2406.7	26
2407.62	19
2408.54	25
2409.47	23
2410.39	26.5
2411.31	22
2412.24	25
2413.16	24.5
2414.08	20
2415	22
2415.92	19
2416.85	20
2417.77	22.5
2418.69	26
2419.61	24
2420.53	23
2421.45	19.5
2422.38	26.5
2423.3	23.5
2424.22	25.5
2425.14	21.5
2426.06	23.5
2426.98	19
2427.9	21.5
2428.82	26.5
2429.74	27
2430.66	21.5
2431.58	27
2432.5	23.5
2433.42	25.5
2434.34	26.5
2435.26	25.5
2436.18	26.5
2437.1	27.5
2438.01	22
2438.93	24.5
2439.85	20
2440.77	27
2441.69	25
2442.61	22
2443.52	22
2444.44	24.5
2445.36	26
2446.28	24.5
2447.2	23
2448.11	23
2449.03	22.5
2449.95	21.5
2450.86	19.5
2451.78	20.5
2452.7	21.5
2453.61	24
2454.53	26.5
2455.45	23.5
2456.36	24.5
2457.28	25
2458.2	25
2459.11	20
2460.03	21.5
2460.94	26
2461.86	25
2462.77	26
2463.69	25
2464.6	24.5
2465.52	24.5
2466.43	24
2467.35	25
2468.26	27
2469.18	24
2470.09	22.5
2471	25.5
2471.92	21.5
2472.83	26.5
2473.74	20.5
2474.66	25.5
2475.57	21
2476.48	25
2477.4	23.5
2478.31	22
2479.22	26.5
2480.14	25
2481.05	28.5
2481.96	24.5
2482.87	21.5
2483.79	24.5
2484.7	24.5
2485.61	22
2486.52	24.5
2487.43	23
2488.34	26
2489.25	24.5
2490.17	24.5
2491.08	21
2491.99	25.5
2492.9	24
2493.81	22
2494.72	26.5
2495.63	23
2496.54	25.5
2497.45	27.5
2498.36	23.5
2499.27	21.5
2500.18	24
2501.09	22.5
2502	27
2502.91	24.5
2503.82	25.5
2504.73	23
2505.63	21
2506.54	24
2507.45	24.5
2508.36	19
2509.27	23.5
2510.18	26
2511.09	26
2511.99	25.5
2512.9	28
2513.81	21.5
2514.72	23
2515.62	21.5
2516.53	24
2517.44	21.5
2518.34	23
2519.25	23
2520.16	25.5
2521.06	25.5
2521.97	25
2522.88	26
2523.78	24
2524.69	24
2525.6	24
2526.5	21.5
2527.41	24
2528.31	24.5
2529.22	24
2530.12	29
2531.03	21.5
2531.93	23
2532.84	23.5
2533.74	25.5
2534.65	21.5
2535.55	23
2536.46	24
2537.36	25
2538.27	27
2539.17	25
2540.07	23.5
2540.98	23
2541.88	23
2542.78	25.5
2543.69	25
2544.59	25
2545.49	24
2546.4	24
2547.3	26
2548.2	27
2549.1	24
2550.01	22.5
2550.91	26
2551.81	26
2552.71	26
2553.61	24
2554.52	24
2555.42	21.5
2556.32	26.5
2557.22	22.5
2558.12	24.5
2559.02	23
2559.92	21
2560.82	23
2561.72	26.5
2562.62	27
2563.53	24
2564.43	23
2565.33	26.5
2566.23	20
2567.13	26.5
2568.03	26
2568.92	21
2569.82	26.5
2570.72	25.5
2571.62	25
2572.52	25.5
2573.42	25
2574.32	24
2575.22	17
2576.12	25
2577.02	27
2577.91	25
2578.81	23
2579.71	24.5
2580.61	24.5
2581.5	24
2582.4	21
2583.3	23
2584.2	21.5
2585.09	26
2585.99	24
2586.89	24
2587.78	21
2588.68	22.5
2589.58	25.5
2590.47	24
2591.37	26.5
2592.27	26.5
2593.16	20
2594.06	24.5
2594.95	25
2595.85	26.5
2596.75	25
2597.64	23
2598.54	24
2599.43	23.5
2600.33	22
2601.22	25.5
2602.12	26
2603.01	23.5
2603.9	25
2604.8	26.5
2605.69	25
2606.59	26
2607.48	25
2608.37	25
2609.27	25.5
2610.16	25
2611.05	24
2611.95	20
2612.84	22
2613.73	25.5
2614.63	23
2615.52	24
2616.41	20
2617.3	26.5
2618.2	25.5
2619.09	23
2619.98	25.5
2620.87	23
2621.76	22.5
2622.66	20.5
2623.55	24.5
2624.44	18.5
2625.33	24
2626.22	21.5
2627.11	25.5
2628	25
2628.9	23.5
2629.79	21
2630.68	24
2631.57	24
2632.46	22.5
2633.35	25.5
2634.24	25
2635.13	24
2636.02	22.5
2636.91	24
2637.8	23
2638.68	22
2639.57	27.5
2640.46	25.5
2641.35	24.5
2642.24	26.5
2643.13	20.5
2644.02	23
2644.91	25
2645.79	24
2646.68	27
2647.57	24
2648.46	24
2649.35	24
2650.23	26
2651.12	25
2652.01	19.5
2652.9	27
2653.78	23.5
2654.67	22.5
2655.56	27
2656.44	24.5
2657.33	26
2658.22	25
2659.1	24.5
2659.99	25
2660.88	25
2661.76	23
2662.65	18.5
2663.53	24
2664.42	24
2665.3	24
2666.19	26.5
2667.07	27
2667.96	28
2668.84	26
2669.73	24
2670.61	25
2671.5	26.5
2672.38	24.5
2673.27	23.5
2674.15	23.5
2675.04	25
2675.92	21
2676.8	24
2677.69	26
2678.57	23
2679.45	24.5
2680.34	22
2681.22	23
2682.1	25.5
2682.99	24.5
2683.87	24
2684.75	26.5
2685.63	25.5
2686.52	20.5
2687.4	24
2688.28	29
2689.16	23.5
2690.04	23.5
2690.93	20.5
2691.81	23.5
2692.69	22
2693.57	24
2694.45	21.5
2695.33	26.5
2696.21	23.5
2697.09	28
2697.97	20.5
2698.85	23.5
2699.74	22
2700.62	21
2701.5	24.5
2702.38	27
2703.26	20.5
2704.14	24
2705.02	24.5
2705.89	24
2706.77	20.5
2707.65	23
2708.53	27.5
2709.41	24
2710.29	20
2711.17	22.5
2712.05	21
2712.93	21
2713.8	21.5
2714.68	23
2715.56	25
2716.44	27
2717.32	26
2718.19	27.5
2719.07	28
2719.95	23
2720.83	28.5
2721.7	25.5
2722.58	25
2723.46	24.5
2724.33	25
2725.21	24.5
2726.09	23.5
2726.97	21
2727.84	25.5
2728.72	24
2729.59	25
2730.47	22.5
2731.35	24
2732.22	25.5
2733.1	25
2733.97	22.5
2734.85	23.5
2735.72	22.5
2736.6	26
2737.47	23
2738.35	23
2739.22	22
2740.1	22.5
2740.97	22.5
2741.84	23
2742.72	25.5
2743.59	25
2744.47	24.5
2745.34	25.5
2746.21	23.5
2747.09	24
2747.96	24
2748.83	20
2749.71	25
2750.58	28.5
2751.45	20.5
2752.33	22
2753.2	21.5
2754.07	22.5
2754.94	23.5
2755.82	27.5
2756.69	26.5
2757.56	21.5
2758.43	24.5
2759.3	24
2760.18	26
2761.05	24
2761.92	26
2762.79	23.5
2763.66	25
2764.53	23
2765.4	28
2766.27	22.5
2767.14	25
2768.01	23
2768.88	26
2769.75	23
2770.62	27.5
2771.49	26.5
2772.36	24.5
2773.23	27.5
2774.1	26
2774.97	21
2775.84	23
2776.71	25
2777.58	25.5
2778.45	22.5
2779.32	30
2780.19	22.5
2781.06	22.5
2781.92	24
2782.79	22.5
2783.66	22.5
2784.53	22.5
2785.4	28
2786.26	25.5
2787.13	25
2788	23.5
2788.87	26.5
2789.73	23
2790.6	27
2791.47	23
2792.34	29
2793.2	21.5
2794.07	25
2794.94	29
2795.8	26
2796.67	26
2797.53	29
2798.4	21.5
2799.27	24.5
2800.13	25
2801	26.75
2801.86	28.5
2802.73	26
2803.59	24.5
2804.46	23
2805.32	27
2806.19	26
2807.05	23
2807.92	26
2808.78	28
2809.65	25.5
2810.51	25.5
2811.38	27
2812.24	27
2813.1	26
2813.97	26
2814.83	22
2815.7	28.5
2816.56	22.5
2817.42	23.5
2818.29	25
2819.15	29.5
2820.01	30
2820.87	23
2821.74	23
2822.6	29
2823.46	25.5
2824.32	27
2825.19	27
2826.05	26
2826.91	24
2827.77	26.5
2828.63	24.5
2829.5	26.5
2830.36	23
2831.22	25.5
2832.08	24
2832.94	22.5
2833.8	29.5
2834.66	21.5
2835.52	27.5
2836.38	23.5
2837.24	25
2838.1	23.5
2838.96	25
2839.82	29
2840.68	25.5
2841.54	27
2842.4	26
2843.26	26
2844.12	26
2844.98	26.5
2845.84	22
2846.7	24.5
2847.56	26.5
2848.42	24
2849.28	28
2850.14	23
2850.99	26
2851.85	26
2852.71	26
2853.57	23
2854.43	23
2855.28	25
2856.14	24.5
2857	26
2857.86	29.5
2858.71	26
2859.57	28
2860.43	24
2861.28	24
2862.14	26.5
2863	26.5
2863.86	26
2864.71	26
2865.57	25.5
2866.42	26
2867.28	27
2868.14	30
2868.99	28.5
2869.85	26.5
2870.7	27.5
2871.56	25.5
2872.41	24.5
2873.27	25
2874.13	25
2874.98	28.5
2875.83	25.5
2876.69	30
2877.54	27
2878.4	31.5
2879.25	28.5
2880.11	31.5
2880.96	31
2881.81	31.5
2882.67	27
2883.52	34
2884.38	31.5
2885.23	30
2886.08	33.5
2886.94	32.5
2887.79	34.5
2888.64	33
2889.5	38
2890.35	39
2891.2	36
2892.05	40
2892.91	38.5
2893.76	42.5
2894.61	40.5
2895.46	48.5
2896.31	48.5
2897.17	46
2898.02	49
2898.87	52
2899.72	54.5
2900.57	55.5
2901.42	52
2902.27	64
2903.12	70
2903.98	67.5
2904.83	62.5
2905.68	66.5
2906.53	62
2907.38	71
2908.23	62.5
2909.08	65.5
2909.93	64
2910.78	61
2911.63	57.5
2912.48	51
2913.33	47
2914.18	51
2915.02	47.5
2915.87	46
2916.72	43
2917.57	39.5
2918.42	40
2919.27	37
2920.12	35.5
2920.97	37
2921.81	36
2922.66	30.5
2923.51	35
2924.36	35
2925.21	29.5
2926.05	28
2926.9	30
2927.75	30
2928.59	28
2929.44	30
2930.29	32
2931.14	26
2931.98	25.5
2932.83	26.5
2933.68	31
2934.52	29
2935.37	26.5
2936.21	24
2937.06	26
2937.91	23
2938.75	27.5
2939.6	30
2940.44	26.5
2941.29	28
2942.14	29
2942.98	28.5
2943.82	29.5
2944.67	26
2945.51	24
2946.36	26.5
2947.2	30.5
2948.05	30
2948.89	32.5
2949.74	25.5
2950.58	31
2951.43	33
2952.27	32
2953.11	28
2953.96	29.5
2954.8	33.5
2955.64	28.5
2956.49	35
2957.33	36
2958.17	34.5
2959.02	35
2959.86	40.5
2960.7	39.5
2961.54	37
2962.39	38.5
2963.23	41.5
2964.07	43.5
2964.91	40
2965.75	46
2966.6	39
2967.44	39.5
2968.28	46.5
2969.12	37
2969.96	35.5
2970.8	41.5
2971.64	36.983
2972.48	36.4284
2973.33	31.1971
2974.17	35.4751
2975.01	38.2224
2975.85	29.3603
2976.69	29.7043
2977.53	31.143
2978.37	29.5227
2979.21	31.854
2980.05	27.9763
2980.89	30.8008
2981.73	27.3035
2982.57	26.1722
2983.41	25.3442
2984.25	26.0007
2985.08	28.8592
2985.92	26.0732
2986.76	23.4743
2987.6	26.5599
2988.44	26.2464
2989.28	23.3405
2990.12	25.6686
2990.96	25.3439
2991.79	27.1675
2992.63	25.3875
2993.47	23.6233
2994.31	25.4184
2995.14	23.7621
2995.98	26.4272
2996.82	22.9918
2997.66	23.9378
2998.49	25.5025
2999.33	24.0534
3000.17	24.0676
3001	23.1767
3001.84	24.9042
3002.68	20.7611
3003.51	24.1798
3004.35	22.4765
3005.19	22.7124
3006.02	21.449
3006.86	24.0263
3007.7	22.5338
3008.53	23.3154
3009.37	22.4029
3010.2	24.9684
3011.04	22.1103
3011.87	24.7164
3012.71	24.4417
3013.54	23.4442
3014.38	20.808
3015.21	22.8912
3016.05	24.1804
3016.88	22.6827
3017.72	21.3724
3018.55	20.8942
3019.39	20.7969
3020.22	23.3042
3021.05	22.7736
3021.89	24.3028
3022.72	23.2806
3023.55	22.5804
3024.39	21.6437
3025.22	21.4181
3026.05	20.1879
3026.89	21.7448
3027.72	24.7356
3028.55	23.3286
3029.39	21.3757
3030.22	21.9815
3031.05	22.2386
3031.88	22.5923
3032.72	24.5788
3033.55	22.7488
3034.38	22.5915
3035.21	23.1087
3036.04	22.3719
3036.88	23.5831
3037.71	23.9299
3038.54	24.1074
3039.37	23.6847
3040.2	21.1656
3041.03	19.6662
3041.86	22
3042.69	23.9407
3043.52	23.9119
3044.36	22.9803
3045.19	22.9512
3046.02	22.4373
3046.85	23.5
3047.68	23.6987
3048.51	22.398
3049.34	20.8365
3050.17	20.9587
3051	21.3923
3051.83	21.3009
3052.66	20.9187
3053.48	23.6765
3054.31	24.5387
3055.14	22.8438
3055.97	22.49
3056.8	22.3873
3057.29	25
3058.12	24
3058.95	26
3059.79	19
3060.62	24.5
3061.45	22
3062.29	26
3063.12	25
3063.95	21.5
3064.78	26
3065.62	23.5
3066.45	21
3067.28	22.5
3068.11	20
3068.94	20
3069.77	22.5
3070.61	24.5
3071.44	23
3072.27	23.5
3073.1	25.5
3073.93	20.5
3074.76	24
3075.59	21
3076.42	19.5
3077.25	24
3078.08	25
3078.92	23.5
3079.74	22
3080.57	28
3081.41	24
3082.24	24.5
3083.06	24
3083.89	23.5
3084.72	27.5
3085.55	23.5
3086.38	23
3087.21	23.5
3088.04	21.5
3088.87	22.5
3089.7	25.5
3090.53	22
3091.36	25
3092.18	26
3093.01	23.5
3093.84	20.5
3094.67	24
3095.5	23.5
3096.32	26
3097.15	26
3097.98	22
3098.81	20.5
3099.64	26
3100.46	21
3101.29	25
3102.12	18
3102.94	27
3103.77	23.5
3104.6	22
3105.42	28
3106.25	21
3107.08	23.5
3107.9	25
3108.73	19.5
3109.56	20.5
3110.38	25
3111.21	21.5
3112.03	22.5
3112.86	22
3113.68	23
3114.51	24
3115.33	26
3116.16	21.5
3116.98	25
3117.81	25.5
3118.63	24.5
3119.46	27
3120.28	23
3121.11	27
3121.93	25.5
3122.76	20
3123.58	21.5
3124.4	23.5
3125.23	21
3126.05	22
3126.87	22
3127.7	25
3128.52	25
3129.34	24.5
3130.17	19
3130.99	22.5
3131.81	20.5
3132.64	24.5
3133.46	27
3134.28	21
3135.1	21
3135.93	25
3136.75	28
3137.57	23.5
3138.39	23
3139.21	21.5
3140.04	25.5
3140.86	24.5
3141.68	22.5
3142.5	20.5
3143.32	18.5
3144.14	18.5
3144.96	20
3145.78	24
3146.61	23.5
3147.43	23
3148.25	22.5
3149.07	26.5
3149.89	19.5
3150.71	18
3151.53	23.5
3152.35	26
3153.17	23.5
3153.99	26
3154.81	21
3155.63	22.5
3156.45	26
3157.27	22.5
3158.08	25.5
3158.9	17
3159.72	19.5
3160.54	19
3161.36	20
3162.18	24
3163	25
3163.82	22.5
3164.63	27
3165.45	24
3166.27	23.5
3167.09	23.5
3167.91	25
3168.72	21.5
3169.54	21.5
3170.36	23
3171.18	23
3171.99	21.5
3172.81	27
3173.63	25
3174.44	21.5
3175.26	23.5
3176.08	24.5
3176.89	22
3177.71	23.5
3178.53	21
3179.34	24.5
3180.16	24.5
3180.97	23
3181.79	19.5
3182.61	22.5
3183.42	26.5
3184.24	23
3185.05	19
3185.87	24
3186.68	24
3187.5	21.5
3188.31	18.5
3189.13	23
3189.94	26
3190.76	23
3191.57	24
3192.39	24.5
3193.2	26
3194.02	21
3194.83	21
3195.64	24
3196.46	24
3197.27	20
3198.08	25
3198.9	18
3199.71	22.5
3200.52	21
3201.34	25.5
3202.15	22.5
3202.96	26
3203.78	25
3204.59	27
3205.4	23.5
3206.21	25.5
3207.03	21
3207.84	24
3208.65	25.5
3209.46	21.5
3210.27	20.5
3211.09	24
3211.9	22.5
3212.71	19.5
3213.52	21.5
3214.33	17
3215.14	24.5
3215.95	24.5
3216.77	26.5
3217.58	23.5
3218.39	26
3219.2	24.5
3220.01	25
3220.82	24.5
3221.63	21.5
3222.44	25
3223.25	20
3224.06	22.5
3224.87	27
3225.68	22.5
3226.49	23
3227.3	23.5
3228.11	25.5
3228.92	22
3229.73	21
3230.53	22.5
3231.34	26
3232.15	27
3232.96	23
3233.77	26
3234.58	23
3235.39	22
3236.19	29
3237	24
3237.81	23
3238.62	20
3239.43	23
3240.23	24.5
3241.04	26.5
3241.85	21.5
3242.66	22.5
3243.46	26
3244.27	27
3245.08	23
3245.89	25
3246.69	25
3247.5	19.5
3248.31	19.5
3249.11	23.5
3249.92	27
3250.72	21
3251.53	26
3252.34	25
3253.14	24.5
3253.95	22
3254.75	19.5
3255.56	21
3256.36	23
3257.17	24
3257.98	25
3258.78	25
3259.59	24
3260.39	22
3261.19	24
3262	24.5
3262.8	25.5
3263.61	25
3264.41	26.5
3265.22	24
3266.02	22
3266.83	24
3267.63	24.5
3268.43	26.5
3269.24	25.5
3270.04	21
3270.84	22
3271.65	24.5
3272.45	27
3273.25	24.5
3274.06	23.5
3274.86	23
3275.66	22
3276.46	23
3277.27	25
3278.07	21.5
3278.87	22
3279.67	27
3280.48	26.5
3281.28	21
3282.08	22
3282.88	22
3283.68	22
3284.48	23
3285.29	22
3286.09	21.5
3286.89	26.5
3287.69	25
3288.49	25
3289.29	25.5
3290.09	24
3290.89	26
3291.69	25.5
3292.49	24
3293.29	23
3294.09	24.5
3294.89	21
3295.69	24
3296.49	22
3297.29	23.5
3298.09	23
3298.89	28.5
3299.69	23.5
3300.49	21
3301.29	25
3302.09	21.5
3302.89	24.5
3303.69	20
3304.49	26.5
3305.28	24
3306.08	28
3306.88	21
3307.68	21
3308.48	26.5
3309.28	22.5
3310.07	24
3310.87	26
3311.67	27.5
3312.47	24
3313.26	19.5
3314.06	25.5
3314.86	23.5
3315.66	23.5
3316.45	20
3317.25	24
3318.05	23
3318.84	24.5
3319.64	22
3320.44	27.5
3321.23	24.5
3322.03	24
3322.83	23.5
3323.62	24
3324.42	22
3325.21	20
3326.01	23
3326.81	24
3327.6	28
3328.4	23
3329.19	21.5
3329.99	21
3330.78	24.5
3331.58	24
3332.37	24
3333.17	23.5
3333.96	24.5
3334.76	20
3335.55	25.5
3336.34	22.5
3337.14	19
3337.93	26
3338.73	28
3339.52	24
3340.31	29.5
3341.11	29
3341.9	22.5
3342.69	23.5
3343.49	24
3344.28	22.5
3345.07	28
3345.87	22.5
3346.66	23
3347.45	22.5
3348.25	24.5
3349.04	24.5
3349.83	23
3350.62	24
3351.42	24
3352.21	25
3353	22
3353.79	24
3354.58	24
3355.37	23.5
3356.17	26
3356.96	26
3357.75	25.5
3358.54	21
3359.33	20
3360.12	20
3360.91	25
3361.7	22.5
3362.49	24
3363.29	21
3364.08	24
3364.87	24.5
3365.66	24.5
3366.45	25.5
3367.24	22
3368.03	24.5
3368.82	24.5
3369.61	23
3370.4	24.5
3371.19	22.5
3371.97	20.5
3372.76	26
3373.55	24
3374.34	25.5
3375.13	26
3375.92	27
3376.71	24
3377.5	25
3378.29	27
3379.07	27.5
3379.86	26.5
3380.65	22
3381.44	23
3382.23	24.5
3383.01	20.5
3383.8	23
3384.59	26
3385.38	26.5
3386.16	23.5
3386.95	26
3387.74	26
3388.53	26.5
3389.31	27
3390.1	24
3390.89	26.5
3391.67	24
3392.46	20.5
3393.25	21.5
3394.03	24
3394.82	23
3395.6	25
3396.39	21
3397.18	23
3397.96	23.5
3398.75	26
3399.53	22.5
3400.32	27
3401.1	20.5
3401.89	25
3402.67	24
3403.46	26.5
3404.24	23.5
3405.03	22
3405.81	25.5
3406.6	25
3407.38	22.5
3408.17	23
3408.95	22.5
3409.74	26.5
3410.52	24.5
3411.3	24
3412.09	24
3412.87	23
3413.65	24.5
3414.44	21.5
3415.22	20
3416	24.5
3416.79	25.5
3417.57	24.5
3418.35	25.5
3419.14	25.5
3419.92	25.5
3420.7	23.5
3421.48	26
3422.27	23.5
3423.05	25.5
3423.83	24.5
3424.61	26.5
3425.4	24.5
3426.18	26
3426.96	25
3427.74	22.5
3428.52	22.5
3429.3	20.5
3430.08	24
3430.87	24
3431.65	29
3432.43	21
3433.21	23.5
3433.99	22.5
3434.77	26.5
3435.55	24
3436.33	26
3437.11	26
3437.89	24
3438.67	23.5
3439.45	23.5
3440.23	22.5
3441.01	24.5
3441.79	23
3442.57	22
3443.35	22.5
3444.13	24
3444.91	27.5
3445.69	25.5
3446.47	22
3447.25	26.5
3448.03	21.5
3448.8	24
3449.58	23.5
3450.36	21
3451.14	26
3451.92	24
3452.7	25
3453.47	23
3454.25	23.5
3455.03	24.5
3455.81	21
3456.59	23.5
3457.36	23
3458.14	22.5
3458.92	26.5
3459.69	20.5
3460.47	22
3461.25	22.5
3462.03	24
3462.8	26.5
3463.58	23
3464.36	26
3465.13	29.5
3465.91	21.5
3466.69	22
3467.46	23
3468.24	25.5
3469.01	21.5
3469.79	25
3470.57	24
3471.34	22
3472.12	24.5
3472.89	24
3473.67	21.5
3474.44	20.5
3475.22	22
3475.99	24
3476.77	23.5
3477.54	25
3478.32	23.5
3479.09	25.5
3479.87	24
3480.64	22
3481.41	21
3482.19	22
3482.96	23
3483.74	26
3484.51	26
3485.28	23.5
3486.06	23.5
3486.83	22.5
3487.6	20
3488.38	27.5
3489.15	21
3489.92	24.5
3490.7	23.5
3491.47	26
3492.24	23
3493.01	26
3493.79	21
3494.56	22.5
3495.33	22
3496.1	24
3496.88	24.5
3497.65	23
3498.42	27
3499.19	26.5
3499.96	23.5
