#Acq. time (s)=	5
#Accumulations=	5
#Range (cm-¹)=	100...3500
#Windows=	4
#Autofocus=	Off
#AutoExposure=	Off
#Spike filter=	Multiple accum.
#Delay time (s)=	0
#Binning=	1
#Readout mode=	Signal
#DeNoise=	Off
#ICS correction=	Off
#Dark correction=	Off
#Inst. Process=	Off
#Instrument=	LabRAM HR Evol
#Detector=	Syncerity OE
#Objective=	x100_VIS
#Grating=	600 (500nm)
#ND Filter=	25%
#Laser=	633nm_Edge
#Hole=	100.021
#Range=	Visible
#Project=	verificaciones
#Sample=	at3
#Site=	plain
#Title=	bolusat3plain
#Remark=	
#Date=	14.01.2026 11:54
#Acquired=	14.01.2026 11:54:46
100.618	23
101.901	25
103.185	31.5
104.468	25
105.751	27
107.033	28
108.316	26
109.598	23.5
110.88	27.5
112.162	25
113.445	29
114.727	30.5
116.008	30
117.289	30.5
118.57	27.5
119.85	27
121.13	28
122.411	25
123.691	25.5
124.97	27
126.25	29
127.529	26.5
128.808	30
130.086	26.5
131.364	25.5
132.643	25
133.921	26
135.199	27
136.477	23.5
137.755	29
139.032	28
140.309	28
141.586	23
142.863	30
144.14	29
145.415	30
146.691	28
147.967	25
149.243	25.5
150.518	26.5
151.794	25
153.067	30.5
154.342	28
155.617	31.5
156.892	27.5
158.166	31
159.439	27
160.712	28.5
161.986	28
163.26	27.5
164.531	34.5
165.805	31
167.077	27.5
168.35	27.5
169.621	28
170.893	26
172.165	29.5
173.437	28.5
174.707	30
175.979	25.5
177.25	31
178.519	30
179.79	27.5
181.061	27.5
182.33	28
183.6	27
184.87	30
186.138	33
187.408	29
188.676	28
189.945	32
191.214	28.5
192.481	27
193.75	28.5
195.016	30
196.285	27.5
197.552	30
198.819	26
200.086	28
201.352	27
202.619	28
203.884	28.5
205.151	30
206.416	26.5
207.682	28.5
208.947	25.5
210.213	25
211.477	31
212.742	29
214.006	29.5
215.271	31.5
216.535	26
217.799	30.5
219.062	32.5
220.326	30
221.589	31
222.851	29
224.115	30.5
225.377	28
226.64	27.5
227.901	27
229.163	26
230.425	28
231.686	26
232.947	33.5
234.209	26
235.469	27
236.729	23.5
237.991	26
239.25	30
240.51	26
241.771	26
243.03	23.5
244.288	25.5
245.549	26
246.807	24
248.065	27.5
249.323	28
250.583	26
251.84	26
253.098	29
254.355	26
255.613	29.5
256.87	25
258.127	25
259.383	24
260.639	22.5
261.897	26
263.153	26
264.408	27.5
265.664	23
266.919	29
268.174	25
269.43	29.5
270.685	29
271.939	27.5
273.193	26
274.447	27.5
275.701	22
276.955	24
278.208	23
279.461	25
280.714	21.5
281.968	28.5
283.221	25
284.473	29
285.726	25.5
286.977	24
288.229	26.5
289.481	23
290.732	26.5
291.983	28.5
293.234	25.5
294.485	27
295.736	29
296.986	29
298.236	25.5
299.486	26
300.736	23
301.985	25
303.233	28
304.482	29
305.731	20.5
306.98	23
308.228	29
309.477	28
310.725	23
311.973	24
313.22	31
314.468	27
315.714	28.5
316.961	27.5
318.208	27
319.455	29
320.701	23.5
321.947	28
323.192	25
324.438	27
325.684	27
326.929	24
328.175	23.5
329.418	27
330.663	26.5
331.908	26
333.152	25
334.395	27.5
335.639	21.5
336.883	27
338.127	26
339.369	24
340.612	25.5
341.855	28.5
343.097	26
344.34	28
345.582	26
346.823	29.5
348.065	25
349.307	24.5
350.547	27
351.789	25
353.03	27
354.27	31
355.511	28
356.75	25.5
357.991	21.5
359.231	26
360.47	25
361.709	28.5
362.948	24.5
364.187	26.5
365.427	25
366.664	30
367.903	28.5
369.14	29
370.379	28
371.616	25
372.854	25.5
374.091	25.5
375.328	27
376.564	28.5
377.802	27
379.037	29.5
380.274	24
381.51	27
382.745	26
383.981	27
385.216	29.5
386.452	29.5
387.686	24
388.922	27
390.155	24.5
391.389	27
392.624	25
393.857	26.5
395.091	30
396.325	28.5
397.558	27
398.79	27.5
400.024	26.5
401.256	28
402.488	25.5
403.721	26
404.953	28
406.184	26.5
407.417	24
408.648	28
409.878	25.5
411.109	24
412.341	25
413.571	28.5
414.801	24
416.031	23
417.262	26
418.491	24
419.72	29.5
420.949	25.5
422.178	27
423.408	28.5
424.637	28
425.865	24.5
427.093	25.5
428.32	26
429.548	33
430.777	24.5
432.004	28
433.231	28
434.458	26
435.685	26.5
436.911	26
438.137	25
439.363	28.5
440.589	24.5
441.815	27
443.042	29
444.267	25
445.492	27
446.717	24
447.942	24
449.166	31
450.39	27
451.615	26.5
452.838	26.5
454.062	26
455.286	29.5
456.509	27
457.732	23.5
458.955	28.5
460.178	27
461.399	26
462.621	27
463.843	29
465.065	25
466.287	28
467.508	32.5
468.73	27.5
469.951	28
471.172	32
472.393	25
473.612	29
474.832	28
476.052	30.5
477.272	31
478.492	31
479.712	28
480.93	30
482.149	34
483.368	24
484.587	37
485.806	33
487.023	33
488.241	34
489.459	34
490.677	36
491.893	33
493.111	30
494.328	36
495.543	31
496.76	32
497.977	32
499.194	27
500.409	30.5
501.625	29
502.841	31.5
504.055	27.5
505.27	31
506.486	23
507.699	32
508.914	26.5
510.128	27.5
511.342	26.5
512.557	28.5
513.77	29
514.984	28.5
516.196	30
517.41	27.5
518.623	28
519.835	29
521.048	28
522.259	28
523.472	28
524.683	30
525.895	27
527.106	29
528.318	27
529.528	27
530.74	25.5
531.949	28.5
533.161	28
534.37	24.5
535.581	26
536.79	28
537.999	30
539.209	29.5
540.418	32
541.627	25
542.835	27.5
544.043	24.5
545.253	25.5
546.46	26
547.669	25
548.876	24.5
550.083	30
551.292	29
552.498	29.5
553.705	27
554.912	28
556.118	27
557.324	26
558.53	26.5
559.737	29
560.942	30
562.147	29
563.353	28
564.558	28.5
565.763	27
566.967	30
568.173	25
569.377	26.5
570.58	27.5
571.784	27.5
572.987	30.5
574.192	31
575.395	27
576.598	27
577.8	31
579.003	24
580.205	26
581.407	26
582.61	29.5
583.812	28.5
585.014	25.5
586.215	24
587.416	25
588.617	26.5
589.818	31.5
591.018	24.5
592.219	28
593.419	26
594.619	27
595.819	24.5
597.02	28.5
598.219	30
599.418	26.5
600.617	24.5
601.816	25
603.015	27.5
604.213	28.5
605.41	27
606.608	25
607.806	26
609.004	25
610.201	29
611.399	28.5
612.596	26
613.793	23.5
614.989	27.5
616.186	26
617.382	25
618.579	25
619.775	24.5
620.969	31
622.165	28
623.36	30
624.555	26.5
625.75	30
626.945	28.5
628.139	29
629.333	29.5
630.527	23.5
631.721	25.5
632.915	26.5
634.108	27.5
635.301	27.5
636.495	29.5
637.688	26.5
638.88	24.5
640.072	31.5
641.265	28.5
642.456	30.5
643.648	26
644.84	28
646.032	27
647.222	27
648.414	28
649.605	25.5
650.795	29
651.986	26.5
653.177	26.5
654.366	27.5
655.556	27.5
656.745	27.5
657.935	26
659.125	28
660.313	27
661.503	28
662.69	26.5
663.879	29
665.067	28
666.256	28.5
667.444	28
668.631	28
669.819	29
671.006	29.5
672.194	26.5
673.38	27.5
674.567	30
675.753	26
676.94	32
678.125	29.5
679.311	28
680.497	25
681.682	28
682.868	24
684.053	29.5
685.238	27.5
686.422	30
687.606	28.5
688.792	23.5
689.975	28
691.159	25
692.343	29.5
693.526	26
694.71	29
695.893	27
697.076	32
698.259	29
699.441	28
700.623	31
701.805	27.5
702.988	28.5
704.169	30.5
705.35	27.5
706.533	31
707.714	32
708.894	34
710.075	35.5
711.255	30.5
712.436	30
713.616	34
714.796	32.5
715.975	29
717.155	30
718.335	34.5
719.514	29
720.693	30
721.872	24
723.05	28.5
724.228	25
725.406	28
726.585	26
727.763	27.5
728.941	25
730.118	30.5
731.295	26
732.472	25
733.649	27.5
734.825	29
736.002	25.5
737.178	28
738.354	29.5
739.53	28
740.705	26
741.881	24
743.056	26
744.231	28
745.406	27
746.581	25.5
747.755	30.5
748.93	28
750.104	26.5
751.278	27
752.452	27.5
753.625	29.5
754.799	24
755.972	24
757.144	27.5
758.317	23.5
759.489	27
760.662	24
761.834	28.5
763.006	24.5
764.178	28.5
765.349	28.5
766.521	28
767.692	27
768.863	23.5
770.034	28.5
771.204	24
772.374	24
773.545	26.5
774.715	24
775.885	25.5
777.054	30
778.224	31
779.393	24.5
780.562	25
781.731	24.5
782.9	26
784.069	28.5
785.236	30
786.405	26
787.573	28
788.74	29
789.908	26
791.074	26
792.242	32
793.409	27
794.575	23.5
795.742	26
796.909	27.5
798.074	26
799.241	26
800.406	21.5
801.572	28
802.737	27
803.902	24
805.067	24.5
806.232	29.5
807.396	25.5
808.561	25
809.725	29.5
810.889	27.5
812.052	29
813.217	26
814.38	27.5
815.544	25
816.706	27.5
817.87	24
819.032	29.5
820.195	22
821.357	28.5
822.518	28
823.681	28.5
824.842	29
826.005	25.5
827.165	29
828.326	27.5
829.488	28
830.648	24.5
831.808	27
832.97	24
834.129	25.5
835.289	26
836.45	27.5
837.609	26.5
838.768	32
839.927	26
841.087	26
842.245	31
843.404	29.5
844.562	30
845.721	26
846.879	25
848.036	23.5
849.194	28.5
850.351	27
851.509	25.5
852.666	25.5
853.823	27.5
854.979	27
856.136	21.5
857.292	26.5
858.448	24
859.605	24.5
860.761	32
861.916	29
863.071	21
864.226	28.5
865.381	28.5
866.536	28
867.691	25
868.845	29
869.999	24.5
871.153	27.5
872.307	22
873.461	28.5
874.614	25.5
875.767	23
876.92	21.5
878.073	25.5
879.226	27
880.379	27.5
881.531	27
882.683	20
883.835	26
884.987	23
886.139	25.5
887.291	30
888.442	27.5
889.593	28
890.743	30
891.893	24.5
893.044	29
894.195	25.5
895.345	28
896.495	23
897.643	26.5
898.793	26
899.943	27.5
901.092	27
902.241	28.5
903.389	27.5
904.538	24.5
905.687	27.5
906.835	27.5
907.982	29.5
909.13	26
910.278	27
911.426	26.5
912.572	25
913.72	24
914.867	24
916.013	27
917.16	26
918.306	27.5
919.451	21.5
920.598	21.5
921.744	24.5
922.889	25.5
924.035	32
925.18	28.5
926.324	26.5
927.47	32
928.614	24
929.758	27
930.902	24.5
932.047	24.5
933.191	29
934.334	24
935.478	25
936.621	24
937.764	24
938.906	26.5
940.05	26
941.192	24.5
942.335	27
943.476	24.5
944.619	27
945.76	26
946.901	28
948.043	24
949.184	23.5
950.326	23.5
951.466	24.5
952.606	24
953.747	26
954.887	24
956.028	26
957.167	23
958.307	26.5
959.447	25
960.586	24.5
961.725	27.5
962.865	22.5
964.003	24.5
965.141	26.5
966.279	25
967.418	26.5
968.556	23.5
969.693	24.5
970.831	24
971.969	23
973.106	29
974.243	26
975.38	26
976.517	29
977.654	21
978.79	23.5
979.926	25
981.061	25.5
982.197	29
983.334	23
984.469	29
985.604	25
986.739	27
987.873	22.5
989.008	24.5
990.142	23
991.277	27
992.411	23.5
993.544	28.5
994.679	24
995.813	25.5
996.946	25.5
998.079	24.5
999.212	26
1000.35	24
1001.48	26
1002.61	24.5
1003.74	23
1004.87	26.5
1006.01	21.5
1007.14	25
1008.27	26.5
1009.4	25
1010.53	26.5
1011.66	23
1012.79	23.5
1013.92	27
1015.05	24.5
1016.18	28
1017.31	25.5
1018.44	24
1019.57	28.5
1020.7	25.5
1021.83	24
1022.96	23.5
1024.09	25.5
1025.22	29.5
1026.35	25
1027.48	30
1028.6	21
1029.73	24
1030.86	23.5
1031.99	24.5
1033.12	25
1034.24	23.5
1035.37	24
1036.5	24.5
1037.62	26
1038.75	24
1039.88	28
1041	23
1042.13	23.5
1043.25	22
1044.38	22
1045.5	21.5
1046.63	22
1047.76	20
1048.88	25
1050	24
1051.13	26
1052.25	25
1053.38	25.5
1054.5	27.5
1055.63	26.5
1056.75	24
1057.87	25
1058.99	25.5
1060.12	22
1061.24	21
1062.36	23
1063.49	27.5
1064.61	23.5
1065.73	27
1066.85	25
1067.97	20.5
1069.1	26.5
1070.22	25.5
1071.34	23
1072.46	27.5
1073.58	25.5
1074.7	24.5
1075.82	27.5
1076.94	22
1078.06	27
1079.18	18
1080.3	23
1081.42	27.5
1082.54	21
1083.66	23.5
1084.78	23.5
1085.9	26
1087.02	22.5
1088.13	25
1089.25	25
1090.37	25
1091.49	23
1092.61	26
1093.72	21.5
1094.84	24.5
1095.96	21.5
1097.08	25
1098.19	23
1099.31	28
1100.42	23.5
1101.54	25
1102.66	26
1103.77	25.5
1104.89	26
1106	23
1107.12	24
1108.23	25
1109.35	23.5
1110.46	26.5
1111.58	22.5
1112.69	22
1113.81	28
1114.92	21
1116.04	24.5
1117.15	23
1118.26	22
1119.38	28
1120.49	22
1121.6	25
1122.72	22.5
1123.83	27.5
1124.94	26
1126.05	23
1127.17	25.5
1128.28	27.5
1129.39	27
1130.5	25
1131.61	24
1132.72	26.5
1133.83	22.5
1134.94	24.5
1136.06	24
1137.17	23.5
1138.27	25
1139.39	22
1140.5	24
1141.61	28.5
1142.72	19.5
1143.82	25.5
1144.93	27
1146.04	23.5
1147.15	22
1148.26	24.5
1149.37	26
1150.48	24
1151.58	23
1152.69	21
1153.8	22.5
1154.91	19
1156.02	24
1157.12	22
1158.23	23
1159.34	25.5
1160.44	27.5
1161.55	21
1162.66	27
1163.76	25.5
1164.87	23.5
1165.97	22.5
1167.08	28
1168.18	27
1169.29	22.5
1170.39	21
1171.5	26
1172.6	28.5
1173.71	25
1174.81	24.5
1175.92	28
1177.02	27.5
1178.13	27.5
1179.23	22.5
1180.33	23
1181.44	19.5
1182.54	26.5
1183.64	21.5
1184.74	24
1185.85	23
1186.95	23
1188.05	24.5
1189.15	20.5
1190.26	25
1191.36	27.5
1192.46	20
1193.56	23
1194.66	23.4989
1195.76	22.9699
1196.86	22.1076
1197.96	26.949
1199.06	27.4064
1200.16	25.3886
1201.26	22.0787
1202.36	25.8482
1203.46	25.2127
1204.56	23.4062
1205.66	26.0369
1206.76	22.7288
1207.86	19.5415
1208.96	23.2443
1210.06	20.2656
1211.16	22.3264
1212.25	24.7597
1213.35	21.6707
1214.45	23.8194
1215.55	25.088
1216.65	26.7114
1217.74	23.0803
1218.84	24.9314
1219.94	24.8194
1221.03	24.3672
1222.13	22.7319
1223.23	24.4988
1224.32	23.3165
1225.42	25.1859
1226.52	23.4451
1227.61	22.0757
1228.71	24.6283
1229.8	26.5991
1230.9	23.2581
1231.99	25.1213
1233.09	24.8277
1234.18	26.4289
1235.28	23.4747
1236.37	24.2128
1237.47	22.2458
1238.56	27.5737
1239.65	24.5487
1240.75	22.9841
1241.84	25.9912
1242.93	22.1602
1244.03	25.1902
1245.12	22.551
1246.21	22.9408
1247.31	21.6012
1248.4	21.9236
1249.49	22.6207
1250.58	23.4184
1251.67	23.0152
1252.77	21.915
1253.86	21.5913
1254.95	23.3431
1256.04	24.7262
1257.13	22.8836
1258.22	24.8708
1259.31	23.6618
1260.4	23.5938
1261.49	25.3432
1262.58	25.5672
1263.67	27.1462
1264.76	25.8547
1265.85	23.6974
1266.94	22.8695
1268.03	25.1434
1269.12	24.8403
1270.21	23.9406
1271.3	23.7575
1272.39	19.9526
1273.47	22.1657
1274.56	21.7697
1275.65	22.6096
1276.74	22.7831
1277.83	24.1236
1278.91	24.2815
1280	22.54
1281.09	22.4466
1282.17	23.8556
1283.26	23.7725
1284.35	21.9535
1285.43	20.9053
1286.52	21.3743
1287.61	24.1975
1288.69	24.5801
1289.78	23.3873
1290.86	22.8519
1291.95	23.6865
1293.03	25.7453
1294.12	23.4038
1295.2	20.3034
1296.29	23.9571
1297.37	23.8278
1298.46	23.6453
1299.54	22.8816
1300.63	24.3191
1301.71	24.8301
1302.79	23.1721
1303.88	21.6363
1304.96	23.9111
1306.04	23.9694
1306.5	22.5
1307.59	24
1308.68	24.5
1309.76	25
1310.85	29
1311.94	24
1313.03	25
1314.11	22
1315.2	23
1316.29	25.5
1317.37	22
1318.46	22
1319.55	24
1320.63	23.5
1321.72	27
1322.81	23.5
1323.89	23.5
1324.98	23
1326.06	23.5
1327.15	24
1328.23	23
1329.32	22
1330.4	22
1331.49	21.5
1332.57	20
1333.66	24
1334.74	23.5
1335.82	25.5
1336.91	22
1337.99	26
1339.07	24
1340.16	23.5
1341.24	27.5
1342.32	24
1343.4	22.5
1344.49	26
1345.57	22.5
1346.65	24.5
1347.73	23.5
1348.82	24.5
1349.9	24
1350.98	24
1352.06	25
1353.14	26
1354.22	25
1355.3	28.5
1356.38	22.5
1357.46	25.5
1358.54	25
1359.62	25.5
1360.7	24.5
1361.78	26.5
1362.86	21.5
1363.94	24.5
1365.02	25
1366.1	25
1367.18	23
1368.26	22
1369.34	21.5
1370.41	23.5
1371.49	21
1372.57	27.5
1373.65	24
1374.72	25
1375.8	23
1376.88	23
1377.96	24
1379.03	24
1380.11	22
1381.19	27
1382.26	22.5
1383.34	23.5
1384.42	22
1385.49	25
1386.57	24
1387.64	29
1388.72	24
1389.79	26.5
1390.87	23
1391.94	26
1393.02	26.5
1394.09	26.5
1395.17	27
1396.24	23
1397.31	25.5
1398.39	22.5
1399.46	28
1400.54	26.5
1401.61	21.5
1402.68	27.5
1403.76	20
1404.83	22
1405.9	24
1406.97	21
1408.05	24
1409.12	25.5
1410.19	27
1411.26	22
1412.33	25.5
1413.4	23.5
1414.48	26
1415.55	22
1416.62	27
1417.69	26.5
1418.76	23
1419.83	25.5
1420.9	25
1421.97	25
1423.04	24
1424.11	25
1425.18	26.5
1426.25	22.5
1427.32	26
1428.39	24
1429.46	23
1430.52	25.5
1431.59	25
1432.66	24.5
1433.73	24
1434.8	25.5
1435.87	24
1436.93	24
1438	23
1439.07	26
1440.14	23
1441.2	23
1442.27	23
1443.34	23
1444.4	26.5
1445.47	23
1446.54	25
1447.6	22
1448.67	29
1449.73	29.5
1450.8	19.5
1451.86	24.5
1452.93	26
1453.99	26
1455.06	22.5
1456.12	26
1457.19	23
1458.25	24.5
1459.32	25
1460.38	22.5
1461.45	26
1462.51	21
1463.57	16
1464.64	24
1465.7	20.5
1466.76	27.5
1467.82	23
1468.89	23.5
1469.95	25.5
1471.01	29
1472.07	24.5
1473.14	24.5
1474.2	22
1475.26	21.5
1476.32	25
1477.38	25
1478.44	26.5
1479.5	22.5
1480.57	27.5
1481.63	28
1482.69	23.5
1483.75	25
1484.81	23
1485.87	24
1486.93	23.5
1487.99	22.5
1489.05	23.5
1490.1	26
1491.17	25.5
1492.22	25
1493.28	26
1494.34	21.5
1495.4	22.5
1496.46	26.5
1497.52	25.5
1498.57	25.5
1499.63	19
1500.69	23.5
1501.75	26.5
1502.8	24.5
1503.86	22
1504.92	29
1505.98	26
1507.03	24
1508.09	26.5
1509.15	28
1510.2	25
1511.26	21
1512.31	24
1513.37	26.5
1514.42	25
1515.48	27
1516.53	23
1517.59	24.5
1518.64	22
1519.7	22.5
1520.75	24.5
1521.81	26.5
1522.86	26
1523.92	22.5
1524.97	24.5
1526.02	24.5
1527.08	28
1528.13	20
1529.18	25.5
1530.24	23.5
1531.29	25
1532.34	22.5
1533.39	24.5
1534.45	23
1535.5	26
1536.55	21.5
1537.6	26.5
1538.65	27
1539.71	27
1540.76	27
1541.81	24
1542.86	23.5
1543.91	25
1544.96	24
1546.01	25
1547.06	22.5
1548.11	28
1549.16	25
1550.21	24
1551.26	25
1552.31	24.5
1553.36	23.5
1554.41	28.5
1555.46	24
1556.51	28
1557.56	24.5
1558.6	27
1559.65	28
1560.7	23
1561.75	26.5
1562.8	17
1563.84	23.5
1564.89	25.5
1565.94	24
1566.99	25.5
1568.03	29
1569.08	25.5
1570.13	25
1571.17	27.5
1572.22	27
1573.27	24
1574.31	26.5
1575.36	25.5
1576.4	27
1577.45	27
1578.5	22
1579.54	24
1580.59	26
1581.63	27.5
1582.68	25
1583.72	23
1584.76	26.5
1585.81	25
1586.85	25.5
1587.9	25
1588.94	24.5
1589.98	28.5
1591.03	23.5
1592.07	28
1593.11	25
1594.16	25.5
1595.2	25.5
1596.24	23
1597.29	23
1598.33	20
1599.37	28
1600.41	26
1601.45	23.5
1602.49	22
1603.54	26
1604.58	25.5
1605.62	22.5
1606.66	25
1607.7	23.5
1608.74	24
1609.78	24
1610.82	25
1611.86	20
1612.9	20
1613.94	24.5
1614.98	21.5
1616.02	27
1617.06	25
1618.1	24.5
1619.14	27
1620.18	27
1621.22	23.5
1622.25	20
1623.29	25.5
1624.33	26.5
1625.37	23
1626.41	28
1627.45	22
1628.48	20
1629.52	23.5
1630.56	25
1631.59	27
1632.63	27
1633.67	29
1634.7	25
1635.74	27.5
1636.78	21.5
1637.81	27
1638.85	28.5
1639.88	26
1640.92	24
1641.96	28.5
1642.99	20
1644.03	26
1645.06	26.5
1646.1	27
1647.13	26.5
1648.17	25.5
1649.2	24
1650.23	25.5
1651.27	26
1652.3	22.5
1653.33	23
1654.37	21
1655.4	26
1656.44	26.5
1657.47	28
1658.5	23.5
1659.53	24
1660.57	26.5
1661.6	25.5
1662.63	25
1663.66	23.5
1664.69	24.5
1665.73	29
1666.76	27.5
1667.79	25
1668.82	28
1669.85	26
1670.88	21
1671.91	24.5
1672.94	26
1673.97	26
1675.01	28
1676.03	27
1677.07	27.5
1678.1	27
1679.12	26
1680.15	22.5
1681.18	23.5
1682.21	23
1683.24	27.5
1684.27	26.5
1685.3	24
1686.33	24
1687.36	22.5
1688.38	23
1689.41	20
1690.44	24
1691.47	21
1692.5	22
1693.52	21.5
1694.55	25.5
1695.58	25
1696.6	25
1697.63	24
1698.66	26
1699.68	24
1700.71	26
1701.74	22
1702.76	26
1703.79	24.5
1704.81	24.5
1705.84	24.5
1706.86	25.5
1707.89	23
1708.91	23.5
1709.94	27
1710.96	26
1711.99	21
1713.01	22
1714.04	29
1715.06	28
1716.08	25
1717.11	24
1718.13	25
1719.16	25
1720.18	26
1721.2	25
1722.22	23.5
1723.25	26
1724.27	26
1725.29	21.5
1726.31	24.5
1727.34	24
1728.36	26
1729.38	24
1730.4	25
1731.42	23
1732.44	27
1733.47	25.5
1734.49	25
1735.51	24.5
1736.53	28.5
1737.55	24
1738.57	28
1739.59	26
1740.61	22
1741.63	26
1742.65	25
1743.67	22
1744.69	25
1745.71	26.5
1746.73	25
1747.75	25.5
1748.76	28.5
1749.78	24.5
1750.8	28
1751.82	24.5
1752.84	24
1753.86	23
1754.87	22
1755.89	23.5
1756.91	24.5
1757.93	25
1758.94	28
1759.96	26
1760.98	21
1761.99	24
1763.01	27
1764.03	27.5
1765.04	25
1766.06	23
1767.08	21.5
1768.09	25.5
1769.11	24.5
1770.12	20.5
1771.14	22
1772.15	29
1773.17	24
1774.18	24
1775.2	24
1776.21	25
1777.23	23.5
1778.24	23.5
1779.25	28.5
1780.27	22.5
1781.28	23.5
1782.3	24
1783.31	24.5
1784.32	28
1785.34	24.5
1786.35	23
1787.36	23
1788.37	26
1789.39	24.5
1790.4	24.5
1791.41	26.5
1792.42	26
1793.43	24
1794.45	21
1795.46	22
1796.47	20
1797.48	27.5
1798.49	24
1799.5	22.5
1800.51	21
1801.52	23.5
1802.53	25
1803.54	25
1804.55	27.5
1805.56	24
1806.57	27.5
1807.58	24.5
1808.59	22.5
1809.6	27
1810.61	27
1811.62	26
1812.63	25.5
1813.64	21
1814.65	24.5
1815.66	20
1816.66	24
1817.67	22.5
1818.68	24.5
1819.69	26.5
1820.69	23
1821.7	29
1822.71	27
1823.72	23.5
1824.72	29.5
1825.73	24.5
1826.74	25
1827.74	23.5
1828.75	23.5
1829.76	25
1830.76	24.5
1831.77	22.5
1832.77	22
1833.78	20.5
1834.79	23.5
1835.79	25.5
1836.8	27.5
1837.8	22
1838.81	25.5
1839.81	24
1840.81	22
1841.82	26.5
1842.82	25
1843.83	23.5
1844.83	26.5
1845.83	28.5
1846.84	23.5
1847.84	26.5
1848.84	27
1849.85	26.5
1850.85	22.5
1851.85	26
1852.86	27
1853.86	30.5
1854.86	27
1855.86	24
1856.86	22
1857.87	25.5
1858.87	24.5
1859.87	23.5
1860.87	27
1861.87	21
1862.87	24
1863.88	29.5
1864.88	27
1865.88	29.5
1866.88	23
1867.88	25
1868.88	23.5
1869.88	21.5
1870.88	24
1871.88	27
1872.88	26.5
1873.88	24
1874.87	23.5
1875.87	26
1876.87	25.5
1877.87	21
1878.87	23.5
1879.87	26
1880.87	22.5
1881.86	23
1882.86	27.5
1883.86	24
1884.86	23
1885.86	23
1886.85	23
1887.85	22
1888.85	26
1889.84	23.5
1890.84	22.5
1891.84	21.5
1892.83	25
1893.83	25.5
1894.83	21
1895.82	23
1896.82	20
1897.81	26
1898.81	21
1899.81	22
1900.8	28.5
1901.8	23.5
1902.79	23
1903.78	25.5
1904.78	23.5
1905.77	20.5
1906.77	21.5
1907.76	24
1908.76	27
1909.75	21.5
1910.74	25
1911.74	23
1912.73	22.5
1913.72	24.5
1914.72	24
1915.71	26.5
1916.7	21.5
1917.7	24
1918.69	22
1919.68	25
1920.67	24
1921.66	28
1922.66	23.5
1923.65	23
1924.64	21.5
1925.63	23.5
1926.62	21.5
1927.61	23
1928.6	24.5
1929.59	22
1930.59	25
1931.58	22.5
1932.57	25.5
1933.56	21
1934.55	23.5
1935.54	26
1936.53	24
1937.52	20.5
1938.51	26
1939.49	26
1940.48	25
1941.47	24
1942.46	25
1943.45	25
1944.44	26.5
1945.43	24
1946.42	24
1947.4	24
1948.39	26.5
1949.38	26
1950.37	23
1951.35	23
1952.34	22
1953.33	26.5
1954.31	22
1955.3	26
1956.29	21
1957.27	25
1958.26	27
1959.25	24
1960.23	25.5
1961.22	25.5
1962.21	25
1963.19	23.5
1964.18	23
1965.16	26
1966.15	21
1967.13	24
1968.12	23.5
1969.1	24
1970.09	26
1971.07	26.5
1972.05	24
1973.04	23
1974.02	23.5
1975.01	24
1975.99	21.5
1976.97	23
1977.96	24.5
1978.94	24.5
1979.92	26
1980.91	23.5
1981.89	24.5
1982.87	21
1983.85	22
1984.84	24.5
1985.82	26
1986.8	21.5
1987.78	23
1988.76	23.5
1989.74	27.5
1990.73	20
1991.71	24.5
1992.69	25
1993.67	24.5
1994.65	25.5
1995.63	27.5
1996.61	20.5
1997.59	21
1998.57	23
1999.55	27.5
2000.53	25.5
2001.51	29
2002.49	23
2003.47	26.5
2004.45	23.5
2005.43	26
2006.41	23
2007.39	22.5
2008.37	23
2009.34	23
2010.32	23.5
2011.3	20.5
2012.28	26
2013.26	19
2014.23	26
2015.21	27
2016.19	24
2017.17	26
2018.14	24
2019.12	21.5
2020.1	24.5
2021.07	25
2022.05	22.5
2023.03	23.5
2024	22.5
2024.98	23.5
2025.96	20
2026.93	24
2027.91	23.5
2028.88	26.5
2029.86	21
2030.83	29
2031.81	26.5
2032.78	22
2033.76	25
2034.73	25
2035.71	30
2036.68	24.5
2037.66	24.5
2038.63	22.5
2039.6	23.5
2040.58	21
2041.55	25.5
2042.52	25.5
2043.5	28
2044.47	25
2045.44	22.5
2046.42	20
2047.39	23
2048.36	25
2049.33	23
2050.31	28
2051.28	21.5
2052.25	23
2053.22	27
2054.19	25
2055.17	22
2056.14	23
2057.11	22.5
2058.08	22.5
2059.05	20.5
2060.02	23.5
2060.99	25.5
2061.96	25
2062.93	24
2063.9	26
2064.87	26
2065.84	24.5
2066.81	22
2067.78	25.5
2068.75	22.5
2069.72	26.5
2070.69	24.5
2071.66	26.5
2072.63	26
2073.6	22.5
2074.56	27
2075.53	25.5
2076.5	23
2077.47	24
2078.44	18
2079.4	21
2080.37	23
2081.34	22.5
2082.31	26
2083.27	18.5
2084.24	20.5
2085.21	24.5
2086.18	23
2087.14	25.5
2088.11	19.5
2089.07	24.5
2090.04	23
2091.01	20
2091.97	23
2092.94	25
2093.9	24
2094.87	23
2095.83	16
2096.8	23
2097.76	23.5
2098.73	24
2099.69	28
2100.66	23.5
2101.62	22
2102.59	22
2103.55	22.5
2104.52	26.5
2105.48	24
2106.44	23.5
2107.41	25.5
2108.37	24
2109.33	22
2110.3	24
2111.26	25.5
2112.22	19.5
2113.18	23
2114.15	24.5
2115.11	21
2116.07	24
2117.03	25
2118	24.5
2118.96	24
2119.92	22.5
2120.88	27
2121.84	21.5
2122.8	20.5
2123.76	24.5
2124.72	21.5
2125.68	20.5
2126.65	23
2127.61	25
2128.57	24
2129.53	23
2130.49	25.5
2131.45	20.5
2132.41	22.5
2133.36	26.5
2134.32	26.5
2135.28	18.5
2136.24	23
2137.2	25.5
2138.16	23.5
2139.12	24.5
2140.08	26.5
2141.04	24.5
2141.99	26
2142.95	22.0049
2143.91	23.4537
2144.87	22.5226
2145.83	23.5385
2146.78	20.1748
2147.74	22.1735
2148.7	22.2136
2149.66	22.9161
2150.61	23.8762
2151.57	23.0317
2152.53	23.2208
2153.48	19.8964
2154.44	19.9531
2155.4	19.8964
2156.35	24.5293
2157.31	24.17
2158.26	22.6284
2159.22	24.3141
2160.17	25.6917
2161.13	23.5671
2162.08	23.3469
2163.04	20
2163.99	26.7917
2164.95	20.7223
2165.9	22.6203
2166.86	22.276
2167.81	23.1465
2168.77	23.003
2169.72	22.6891
2170.67	25.211
2171.63	22.8523
2172.58	20.9215
2173.54	26.4668
2174.49	23.363
2175.44	25.2591
2176.39	19.5094
2177.35	23.0836
2178.3	18.011
2179.25	20.8165
2180.2	20.3146
2181.16	22.178
2182.11	23.8818
2183.06	21.2808
2184.01	22.7595
2184.96	20.6936
2185.92	21.8733
2186.87	22.9392
2187.82	22.7694
2188.77	22.2026
2189.72	22.1945
2190.67	22.8016
2191.62	22.0627
2192.57	22.489
2193.52	23.0298
2194.47	23.6797
2195.42	21.694
2196.37	22.7045
2197.32	22.147
2198.27	21.1161
2199.22	24.2379
2200.17	20.4324
2201.12	21.1452
2202.07	19.0155
2203.02	23.2689
2203.97	22.7595
2204.92	24.3688
2205.87	23.8432
2206.81	25.503
2207.76	23.0171
2208.71	24.8495
2209.66	24.8503
2210.61	24.1317
2211.55	21.895
2212.5	24.0046
2213.45	19.8242
2214.4	22.8643
2215.34	21.5357
2216.29	23.7249
2217.24	23.0377
2218.18	21.8788
2219.13	23.0218
2220.08	20.1389
2221.02	22.4265
2221.97	22.7573
2222.92	24.228
2223.86	22.9476
2224.81	22.5506
2225.75	23.2711
2226.7	22.2263
2227.64	24.2802
2228.59	23.5484
2229.53	22.3313
2230.48	23.4223
2231.42	22.4485
2232.37	20.924
2233.31	22.2952
2234.26	22.6073
2235.2	21.741
2236.14	22.7427
2237.09	22.4915
2238.03	25.0132
2238.97	21.9841
2239.92	24.0491
2240.05	24.5
2241	23
2241.95	24
2242.89	21
2243.84	23
2244.79	22.5
2245.74	22.5
2246.68	25
2247.63	23.5
2248.58	21.5
2249.53	24.5
2250.47	24
2251.42	25
2252.36	23.5
2253.31	23.5
2254.26	21
2255.2	21
2256.15	18
2257.1	24
2258.04	22
2258.99	22
2259.93	22
2260.88	25
2261.82	24.5
2262.77	21
2263.71	24
2264.66	22
2265.6	28
2266.55	21
2267.49	24
2268.43	25
2269.38	21.5
2270.32	21
2271.26	25
2272.21	22.5
2273.15	23.5
2274.09	23.5
2275.04	18.5
2275.98	18
2276.92	19.5
2277.87	22.5
2278.81	22.5
2279.75	25
2280.69	21
2281.64	24
2282.58	22
2283.52	22.5
2284.46	21.5
2285.4	23
2286.34	24.5
2287.29	22
2288.23	22
2289.17	21.5
2290.11	25
2291.05	23
2291.99	21
2292.93	23.5
2293.87	24.5
2294.81	23
2295.75	23
2296.69	21.5
2297.63	21.5
2298.57	25.5
2299.51	23
2300.45	23
2301.39	24.5
2302.33	23.5
2303.27	22.5
2304.2	22.5
2305.14	22
2306.08	23
2307.02	23
2307.96	24.5
2308.9	24
2309.83	24
2310.77	25
2311.71	18.5
2312.65	19
2313.58	21
2314.52	22.5
2315.46	22.5
2316.39	24
2317.33	19
2318.27	22
2319.21	21.5
2320.14	22.5
2321.08	23.5
2322.01	23
2322.95	27
2323.89	25.5
2324.82	25
2325.76	22
2326.69	22
2327.63	19.5
2328.56	20.5
2329.5	24
2330.43	28
2331.37	22.5
2332.3	20
2333.24	20.5
2334.17	26
2335.1	20
2336.04	23
2336.97	23
2337.91	24.5
2338.84	24.5
2339.77	22
2340.71	28.5
2341.64	25
2342.57	25.5
2343.51	22
2344.44	24
2345.37	26
2346.3	17
2347.24	26
2348.17	25.5
2349.1	25
2350.03	23
2350.96	25.5
2351.89	23.5
2352.83	25
2353.76	29.5
2354.69	22
2355.62	25
2356.55	24.5
2357.48	21.5
2358.41	25
2359.34	26
2360.27	24
2361.2	24
2362.13	22
2363.06	22.5
2363.99	22
2364.92	23
2365.85	24
2366.78	28
2367.71	22.5
2368.64	24.5
2369.57	24
2370.5	26
2371.43	22
2372.36	24.5
2373.28	25
2374.21	23.5
2375.14	22
2376.07	21.5
2377	27
2377.93	21
2378.85	28
2379.78	22
2380.71	23
2381.63	26
2382.56	27
2383.49	22
2384.42	27
2385.34	25.5
2386.27	24.5
2387.2	21
2388.12	23.5
2389.05	20.5
2389.97	26
2390.9	20
2391.82	22.5
2392.75	23
2393.68	26
2394.6	25
2395.53	23.5
2396.45	21.5
2397.38	18
2398.3	27.5
2399.23	21.5
2400.15	24.5
2401.07	27.5
2402	25
2402.92	25.5
2403.85	22.5
2404.77	21
2405.69	24
2406.62	23.5
2407.54	27
2408.46	22
2409.39	22.5
2410.31	21.5
2411.23	24.5
2412.16	20
2413.08	24
2414	22.5
2414.92	21.5
2415.85	24
2416.77	24
2417.69	18
2418.61	26
2419.53	24.5
2420.45	21.5
2421.38	23
2422.3	22
2423.22	21.5
2424.14	23
2425.06	21
2425.98	25
2426.9	24.5
2427.82	20
2428.74	27
2429.66	21
2430.58	21.5
2431.5	21
2432.42	24
2433.34	26.5
2434.26	25.5
2435.18	24
2436.1	26
2437.02	26
2437.94	23.5
2438.85	22.5
2439.77	22
2440.69	26
2441.61	23.5
2442.53	22.5
2443.45	23.5
2444.36	29
2445.28	25
2446.2	24
2447.12	22
2448.03	25.5
2448.95	22
2449.87	23
2450.79	24
2451.7	22.5
2452.62	26
2453.54	23.5
2454.45	26.5
2455.37	19
2456.28	25
2457.2	22
2458.12	21.5
2459.03	22
2459.95	25
2460.86	23
2461.78	24.5
2462.69	30
2463.61	24.5
2464.52	20
2465.44	24
2466.35	23
2467.27	26.5
2468.18	21.5
2469.1	26
2470.01	23.5
2470.93	24.5
2471.84	25
2472.75	24.5
2473.67	23
2474.58	26
2475.49	25.5
2476.41	25.5
2477.32	23
2478.23	23
2479.15	27
2480.06	22.5
2480.97	24
2481.88	23.5
2482.79	23
2483.71	22
2484.62	20.5
2485.53	26
2486.44	27
2487.35	23.5
2488.26	25.5
2489.18	23
2490.09	27
2491	25.5
2491.91	20.5
2492.82	25.5
2493.73	27
2494.64	25
2495.55	25
2496.46	26.5
2497.37	27
2498.28	23.5
2499.19	21.5
2500.1	24.5
2501.01	23.5
2501.92	27
2502.83	25
2503.74	22
2504.65	24
2505.56	22.5
2506.47	23.5
2507.37	25.5
2508.28	22.5
2509.19	25.5
2510.1	22
2511.01	23.5
2511.92	24
2512.82	24
2513.73	20.5
2514.64	26
2515.55	24
2516.45	26
2517.36	23
2518.27	28
2519.17	20
2520.08	24
2520.99	23.5
2521.89	24
2522.8	22.5
2523.71	23.5
2524.61	25.5
2525.52	25
2526.42	21
2527.33	25
2528.24	26
2529.14	29
2530.05	22
2530.95	24.5
2531.86	22.5
2532.76	26
2533.67	24
2534.57	20.5
2535.48	22
2536.38	21.5
2537.28	26
2538.19	30
2539.09	24
2540	23.5
2540.9	23
2541.8	25.5
2542.71	28
2543.61	22
2544.51	27.5
2545.42	23.5
2546.32	24.5
2547.22	20
2548.12	25
2549.03	25.5
2549.93	23.5
2550.83	22
2551.73	25
2552.63	24
2553.54	28
2554.44	24.5
2555.34	23.5
2556.24	25
2557.14	25
2558.04	26
2558.94	21.5
2559.85	23
2560.75	25.5
2561.65	25
2562.55	27
2563.45	26.5
2564.35	24.5
2565.25	25.5
2566.15	24
2567.05	26.5
2567.95	24.5
2568.85	25
2569.75	26
2570.65	25
2571.55	27
2572.44	24
2573.34	22
2574.24	25
2575.14	21
2576.04	25
2576.94	22
2577.84	24
2578.73	26
2579.63	26.5
2580.53	24
2581.43	23
2582.33	19.5
2583.22	19.5
2584.12	25
2585.02	25.5
2585.91	24.5
2586.81	27
2587.71	24
2588.6	25.5
2589.5	21
2590.4	23.5
2591.29	26
2592.19	25
2593.09	24
2593.98	25.5
2594.88	28.5
2595.77	23
2596.67	28.5
2597.56	25
2598.46	21
2599.35	25
2600.25	23
2601.14	24.5
2602.04	25
2602.93	22.5
2603.83	25.5
2604.72	22
2605.62	29
2606.51	26.5
2607.4	28.5
2608.3	21
2609.19	32
2610.09	25
2610.98	25.5
2611.87	25
2612.76	23.5
2613.66	22.5
2614.55	25
2615.44	25
2616.34	21.5
2617.23	26
2618.12	25
2619.01	21
2619.9	24
2620.8	23
2621.69	24.5
2622.58	24.5
2623.47	29.5
2624.36	25
2625.25	19
2626.15	21
2627.04	22.5
2627.93	21
2628.82	24
2629.71	28
2630.6	25.5
2631.49	25.5
2632.38	28
2633.27	26.5
2634.16	24.5
2635.05	27.5
2635.94	21
2636.83	23.5
2637.72	25
2638.61	23.5
2639.5	24.5
2640.39	23
2641.28	26
2642.16	22
2643.05	22.5
2643.94	21.5
2644.83	23.5
2645.72	22
2646.61	26.5
2647.49	30
2648.38	23.5
2649.27	24.5
2650.16	24
2651.05	24
2651.93	21.5
2652.82	22.5
2653.71	24
2654.59	26
2655.48	22
2656.37	24.5
2657.25	27.5
2658.14	24.5
2659.03	22.5
2659.91	26.5
2660.8	22.5
2661.69	27
2662.57	22
2663.46	23.5
2664.34	26.5
2665.23	25.5
2666.11	20.5
2667	21.5
2667.88	18
2668.77	25.5
2669.65	26.5
2670.54	23.5
2671.42	23.5
2672.31	19
2673.19	23.5
2674.08	26.5
2674.96	22.5
2675.84	22.5
2676.73	23
2677.61	28
2678.49	27
2679.38	24.5
2680.26	27.5
2681.14	23
2682.03	24
2682.91	24.5
2683.79	27
2684.68	27
2685.56	22.5
2686.44	23
2687.32	22.5
2688.2	22.5
2689.09	22.5
2689.97	24.5
2690.85	22
2691.73	26
2692.61	21.5
2693.49	26
2694.38	23.5
2695.26	21
2696.14	25
2697.02	29
2697.9	25
2698.78	23
2699.66	22.5
2700.54	24.5
2701.42	21.5
2702.3	24
2703.18	24
2704.06	25
2704.94	24.5
2705.82	26
2706.7	21.5
2707.58	24.5
2708.46	26.5
2709.34	26
2710.21	23.5
2711.09	21.5
2711.97	24.5
2712.85	23
2713.73	23.5
2714.61	23
2715.49	19.5
2716.36	25
2717.24	23.5
2718.12	27.5
2719	27
2719.87	26
2720.75	26
2721.63	24
2722.51	24
2723.38	23.5
2724.26	23
2725.14	29
2726.01	21.5
2726.89	20
2727.77	26
2728.64	22
2729.52	25
2730.39	25.5
2731.27	24.5
2732.15	22.5
2733.02	23
2733.9	24
2734.77	23.5
2735.65	25
2736.52	25
2737.4	26
2738.27	26
2739.15	25.5
2740.02	20
2740.89	25.5
2741.77	21
2742.64	23
2743.52	24.5
2744.39	24
2745.27	22
2746.14	23.5
2747.01	24
2747.89	26
2748.76	25
2749.63	25
2750.51	23
2751.38	24
2752.25	24.5
2753.12	21
2754	24.5
2754.87	24.5
2755.74	22
2756.61	22.5
2757.48	23
2758.36	22
2759.23	27.5
2760.1	21
2760.97	26.5
2761.84	26
2762.71	24.5
2763.59	22.5
2764.46	24.5
2765.33	27.5
2766.2	24.5
2767.07	23.5
2767.94	24.5
2768.81	22
2769.68	24.5
2770.55	24
2771.42	23
2772.29	21
2773.16	24
2774.03	28.5
2774.9	23.5
2775.77	25
2776.64	20
2777.51	24.5
2778.37	24.5
2779.24	27
2780.11	22
2780.98	28
2781.85	26.5
2782.72	27
2783.59	25
2784.45	23
2785.32	23
2786.19	27
2787.06	25
2787.92	22
2788.79	23
2789.66	24.5
2790.53	26
2791.39	25
2792.26	25.5
2793.13	27.5
2793.99	24
2794.86	23.5
2795.73	20
2796.59	24
2797.46	24
2798.33	24
2799.19	26.5
2800.06	27.5
2800.92	25.25
2801.79	23
2802.65	23.5
2803.52	23
2804.39	24.5
2805.25	24
2806.11	27
2806.98	25
2807.84	22.5
2808.71	23.5
2809.57	28.5
2810.44	22
2811.3	20.5
2812.17	20
2813.03	25
2813.89	27
2814.76	25.5
2815.62	23
2816.49	27.5
2817.35	23.5
2818.21	21
2819.07	21.5
2819.94	24.5
2820.8	24.5
2821.66	25
2822.53	25
2823.39	21.5
2824.25	23
2825.11	25.5
2825.97	25.5
2826.84	26.5
2827.7	22.5
2828.56	24
2829.42	27.5
2830.28	24.5
2831.14	23.5
2832.01	28
2832.87	27.5
2833.73	25.5
2834.59	25
2835.45	23
2836.31	24.5
2837.17	22.5
2838.03	23.5
2838.89	24
2839.75	21.5
2840.61	25.5
2841.47	26
2842.33	20.5
2843.19	26
2844.05	23.5
2844.91	25.5
2845.77	27
2846.63	23
2847.48	22
2848.34	23.5
2849.2	23
2850.06	22.5
2850.92	23
2851.78	25
2852.64	20
2853.49	26
2854.35	24.5
2855.21	23
2856.07	24.5
2856.93	20
2857.78	26
2858.64	23
2859.5	24
2860.35	25.5
2861.21	25
2862.07	23
2862.93	21
2863.78	22
2864.64	23
2865.49	22
2866.35	24.5
2867.21	23
2868.06	25.5
2868.92	23.5
2869.77	21
2870.63	23
2871.49	25
2872.34	23.5
2873.2	26.5
2874.05	25
2874.91	21
2875.76	24.5
2876.62	27
2877.47	24.5
2878.32	26
2879.18	23.5
2880.03	26.5
2880.89	22.5
2881.74	29.5
2882.6	26
2883.45	27
2884.3	27
2885.16	26.5
2886.01	24
2886.86	23.5
2887.72	24
2888.57	27
2889.42	28
2890.27	26.5
2891.13	24.5
2891.98	23
2892.83	22.5
2893.68	28
2894.54	28
2895.39	28
2896.24	27
2897.09	28.5
2897.94	30
2898.8	25.5
2899.65	29.5
2900.5	30
2901.35	31.5
2902.2	28
2903.05	30
2903.9	31.5
2904.75	31
2905.6	30.5
2906.45	30
2907.3	30
2908.15	32.5
2909.01	33
2909.85	34.5
2910.7	34
2911.55	31
2912.4	26
2913.25	30
2914.1	31.5
2914.95	26
2915.8	31
2916.65	27
2917.5	26
2918.35	24
2919.2	26.5
2920.04	24
2920.89	28.5
2921.74	28
2922.59	23.5
2923.44	23
2924.29	20
2925.13	22
2925.98	22
2926.83	26.5
2927.68	26
2928.52	24
2929.37	25.5
2930.22	25.5
2931.06	25
2931.91	24
2932.76	20.5
2933.6	23
2934.45	23
2935.3	24.5
2936.14	24
2936.99	26.5
2937.83	21
2938.68	24
2939.53	23
2940.37	27
2941.22	26
2942.06	22
2942.91	24
2943.75	22
2944.6	25.5
2945.44	23.5
2946.29	24.5
2947.13	21.5
2947.98	25
2948.82	23.5
2949.66	28
2950.51	24
2951.35	27
2952.2	26
2953.04	27.5
2953.88	24
2954.73	28.5
2955.57	22.5
2956.41	23
2957.26	25
2958.1	22.5
2958.94	25
2959.79	27
2960.63	27.5
2961.47	29
2962.31	30
2963.15	25
2964	27
2964.84	31
2965.68	27.5
2966.52	26
2967.37	21.5
2968.21	28
2969.05	27.5
2969.89	26
2970.73	23.5
2971.57	25.4903
2972.41	23.94
2973.25	24.5205
2974.09	26.966
2974.93	22.1554
2975.77	24.1509
2976.62	24.1339
2977.46	26.3363
2978.3	21.7063
2979.14	25.5767
2979.98	26.7384
2980.81	24.7148
2981.65	24.1966
2982.49	24.0137
2983.33	26.572
2984.17	25.6002
2985.01	22.7877
2985.85	25.4414
2986.69	22.6077
2987.53	21.5589
2988.37	20.3185
2989.21	26.5597
2990.04	23.8702
2990.88	21.6818
2991.72	22.1175
2992.56	23.161
2993.4	21.1433
2994.23	20.043
2995.07	22.0906
2995.91	27.1435
2996.75	23.2034
2997.58	22.738
2998.42	23.5662
2999.26	22.2142
3000.1	24.1791
3000.93	23.3115
3001.77	23.3291
3002.61	22.7282
3003.44	21.4951
3004.28	23.2284
3005.11	23.3953
3005.95	21.6645
3006.79	20.6189
3007.62	23.523
3008.46	21.9263
3009.29	22.1165
3010.13	21.8492
3010.97	22.8898
3011.8	20.5
3012.64	22.6834
3013.47	24.4674
3014.31	22.1326
3015.14	23.9509
3015.98	22.9048
3016.81	22.5291
3017.64	22.4617
3018.48	21.3544
3019.31	20.8993
3020.15	22.8641
3020.98	20.5218
3021.82	23.693
3022.65	23.6523
3023.48	22.9495
3024.32	22.726
3025.15	24.0696
3025.98	21.7083
3026.82	21.0858
3027.65	23.2835
3028.48	23.5937
3029.31	20.8452
3030.15	21.1798
3030.98	23.7997
3031.81	23.7773
3032.64	21.5987
3033.48	20.6543
3034.31	23.3542
3035.14	23.5146
3035.97	21.4372
3036.8	21.292
3037.64	23.8278
3038.47	23.1766
3039.3	21.0017
3040.13	20.7219
3040.96	21.7004
3041.79	23.5121
3042.62	23.5278
3043.45	22.8822
3044.28	22.8381
3045.12	23.4599
3045.95	22.3765
3046.78	19.4854
3047.61	20.4836
3048.44	22.8405
3049.27	22.7188
3050.1	23.4468
3050.92	25.2252
3051.75	23.0477
3052.58	22.8692
3053.41	25.1344
3054.24	23.4345
3055.07	23.4472
3055.9	24.4198
3056.73	22.4124
3057.26	20.5
3058.09	21
3058.93	23
3059.76	21.5
3060.59	22
3061.43	25
3062.26	22.5
3063.09	23.5
3063.92	24
3064.76	25.5
3065.59	19
3066.42	23
3067.25	22
3068.08	23
3068.92	25
3069.75	20.5
3070.58	22.5
3071.41	23
3072.24	20
3073.07	23
3073.9	22
3074.73	21
3075.57	25.5
3076.4	25.5
3077.23	21
3078.06	21.5
3078.89	22.5
3079.72	22
3080.55	24.5
3081.38	22.5
3082.21	26
3083.04	23
3083.87	22
3084.7	27
3085.53	24.5
3086.36	25
3087.19	27.5
3088.01	23
3088.84	21.5
3089.67	21.5
3090.5	24
3091.33	22
3092.16	22.5
3092.99	23
3093.81	25.5
3094.64	24
3095.47	21.5
3096.3	20
3097.13	25
3097.95	22.5
3098.78	24
3099.61	23.5
3100.44	23
3101.26	21
3102.09	23.5
3102.92	18.5
3103.74	21.5
3104.57	26.5
3105.4	21
3106.22	17
3107.05	23.5
3107.88	22
3108.7	23.5
3109.53	23.5
3110.35	20
3111.18	26
3112.01	28
3112.83	20.5
3113.66	20
3114.48	20.5
3115.31	23
3116.13	26
3116.96	26
3117.78	18
3118.61	24
3119.43	26
3120.26	20.5
3121.08	23.5
3121.9	22.5
3122.73	20.5
3123.55	24
3124.38	24
3125.2	21.5
3126.02	22
3126.85	19
3127.67	22.5
3128.49	25
3129.32	26
3130.14	25.5
3130.96	26
3131.79	22
3132.61	20
3133.43	25
3134.25	24
3135.08	19
3135.9	20
3136.72	22
3137.54	20.5
3138.37	25
3139.19	23
3140.01	27.5
3140.83	24
3141.65	23
3142.47	23.5
3143.29	17
3144.12	25.5
3144.94	20
3145.76	24.5
3146.58	22.5
3147.4	27
3148.22	26
3149.04	26
3149.86	23
3150.68	23.5
3151.5	22
3152.32	25.5
3153.14	25
3153.96	25
3154.78	25.5
3155.6	25.5
3156.42	20.5
3157.24	21.5
3158.06	24.5
3158.88	26
3159.7	23
3160.51	23.5
3161.33	23
3162.15	23
3162.97	24.5
3163.79	25
3164.61	20.5
3165.42	19
3166.24	23.5
3167.06	19.5
3167.88	22
3168.7	24.5
3169.51	25
3170.33	22.5
3171.15	23.5
3171.97	23
3172.78	25
3173.6	22.5
3174.42	23
3175.23	21.5
3176.05	21.5
3176.87	23
3177.68	24
3178.5	25.5
3179.32	24.5
3180.13	24
3180.95	24
3181.76	27
3182.58	21.5
3183.4	23
3184.21	22
3185.03	23.5
3185.84	21.5
3186.66	24
3187.47	22.5
3188.29	25
3189.1	25
3189.92	24.5
3190.73	25
3191.55	22
3192.36	23
3193.17	23
3193.99	22
3194.8	24.5
3195.62	20.5
3196.43	21.5
3197.24	24
3198.06	25
3198.87	20
3199.68	27
3200.5	24.5
3201.31	22.5
3202.12	24.5
3202.94	27.5
3203.75	21.5
3204.56	24
3205.38	23.5
3206.19	24
3207	23.5
3207.81	25
3208.62	24
3209.44	21.5
3210.25	23.5
3211.06	23
3211.87	24
3212.68	23.5
3213.49	26
3214.31	27.5
3215.12	27
3215.93	22
3216.74	21.5
3217.55	23.5
3218.36	22
3219.17	26
3219.98	24
3220.79	22.5
3221.6	19.5
3222.41	24
3223.22	23
3224.03	20
3224.84	25.5
3225.65	24
3226.46	25
3227.27	20
3228.08	27.5
3228.89	22
3229.7	25.5
3230.51	23.5
3231.32	20
3232.13	24.5
3232.94	22
3233.74	26
3234.55	22
3235.36	21.5
3236.17	22.5
3236.98	23.5
3237.78	20
3238.59	22
3239.4	22.5
3240.21	19
3241.02	19
3241.82	26
3242.63	21
3243.44	28
3244.25	23
3245.05	23
3245.86	22
3246.67	25
3247.47	23.5
3248.28	21
3249.09	22
3249.89	25
3250.7	24
3251.5	22.5
3252.31	23
3253.12	23
3253.92	26.5
3254.73	23
3255.53	24
3256.34	23
3257.14	20.5
3257.95	24
3258.75	27
3259.56	24
3260.36	21
3261.17	22.5
3261.97	24.5
3262.78	26
3263.58	20
3264.39	24.5
3265.19	21
3265.99	22.5
3266.8	23
3267.6	26.5
3268.41	25.5
3269.21	25
3270.01	22
3270.82	22.5
3271.62	22.5
3272.42	23
3273.23	22
3274.03	25
3274.83	25.5
3275.64	26
3276.44	24
3277.24	27
3278.04	25
3278.85	21
3279.65	23
3280.45	21.5
3281.25	24
3282.05	22
3282.85	21.5
3283.66	24.5
3284.46	23
3285.26	21
3286.06	19.5
3286.86	23
3287.66	26.5
3288.46	21
3289.27	22
3290.07	22
3290.87	21
3291.67	23.5
3292.47	26.5
3293.27	20
3294.07	25
3294.87	22.5
3295.67	26.5
3296.47	21
3297.27	23.5
3298.07	25.5
3298.87	25
3299.67	26
3300.47	21
3301.26	23
3302.06	20
3302.86	27.5
3303.66	23.5
3304.46	24.5
3305.26	23
3306.06	26.5
3306.86	25.5
3307.65	23
3308.45	21
3309.25	26.5
3310.05	24
3310.85	27.5
3311.64	27
3312.44	26.5
3313.24	24.5
3314.04	24.5
3314.83	23.5
3315.63	25
3316.43	23.5
3317.22	26
3318.02	27
3318.82	22
3319.62	23.5
3320.41	20
3321.21	23.5
3322	26
3322.8	26
3323.6	24.5
3324.39	26
3325.19	24
3325.98	22
3326.78	23
3327.58	24
3328.37	24.5
3329.17	22
3329.96	22
3330.76	25
3331.55	26.5
3332.35	19
3333.14	22.5
3333.94	29
3334.73	24.5
3335.52	23
3336.32	22.5
3337.11	22.5
3337.91	23
3338.7	22.5
3339.5	24.5
3340.29	22.5
3341.08	22
3341.88	24.5
3342.67	23.5
3343.46	25
3344.26	20.5
3345.05	25
3345.84	25
3346.63	28
3347.43	22.5
3348.22	22.5
3349.01	24.5
3349.8	25
3350.6	25.5
3351.39	28.5
3352.18	23.5
3352.97	23.5
3353.77	27.5
3354.56	24
3355.35	25
3356.14	23.5
3356.93	29
3357.72	20.5
3358.51	25.5
3359.31	25
3360.1	25
3360.89	24
3361.68	23
3362.47	26
3363.26	22
3364.05	26.5
3364.84	30
3365.63	24
3366.42	23
3367.21	21.5
3368	23.5
3368.79	21
3369.58	25.5
3370.37	26.5
3371.16	24.5
3371.95	25.5
3372.74	28
3373.53	22.5
3374.32	22.5
3375.1	23.5
3375.89	26
3376.68	21
3377.47	28
3378.26	27
3379.05	25.5
3379.84	22
3380.62	26.5
3381.41	25
3382.2	23
3382.99	22
3383.78	28.5
3384.56	26
3385.35	21
3386.14	24
3386.93	28.5
3387.71	23.5
3388.5	24
3389.29	19.5
3390.07	23.5
3390.86	26
3391.65	20
3392.43	22.5
3393.22	28
3394.01	23
3394.79	21.5
3395.58	23
3396.36	24
3397.15	24
3397.94	21
3398.72	23.5
3399.51	26
3400.29	25
3401.08	27.5
3401.86	22
3402.65	24
3403.43	25.5
3404.22	23.5
3405	22
3405.79	22.5
3406.57	25
3407.36	24.5
3408.14	20
3408.93	25
3409.71	28.5
3410.49	25.5
3411.28	26
3412.06	23.5
3412.84	27
3413.63	26
3414.41	24
3415.2	22
3415.98	25.5
3416.76	27.5
3417.54	24
3418.33	23
3419.11	28.5
3419.89	27.5
3420.68	22
3421.46	24.5
3422.24	22.5
3423.02	24
3423.81	21.5
3424.59	26
3425.37	23.5
3426.15	22
3426.93	23.5
3427.71	23
3428.5	22
3429.28	22.5
3430.06	25
3430.84	24
3431.62	24.5
3432.4	25.5
3433.18	24
3433.96	30
3434.75	25.5
3435.53	24.5
3436.31	23
3437.09	23.5
3437.87	23.5
3438.65	27.5
3439.43	24.5
3440.21	25.5
3440.99	26.5
3441.77	25
3442.55	22
3443.33	21.5
3444.1	24
3444.88	23.5
3445.66	20.5
3446.44	26
3447.22	25
3448	21
3448.78	20
3449.56	25
3450.34	26.5
3451.11	25
3451.89	22.5
3452.67	22
3453.45	23.5
3454.23	23
3455	27
3455.78	23
3456.56	24
3457.34	24
3458.11	25.5
3458.89	21
3459.67	24
3460.45	26
3461.22	22.5
3462	26
3462.78	24.5
3463.55	21
3464.33	20
3465.11	21.5
3465.88	25
3466.66	27.5
3467.44	25
3468.21	21
3468.99	20.5
3469.76	24
3470.54	23.5
3471.32	24.5
3472.09	25
3472.87	23.5
3473.64	23
3474.42	23.5
3475.19	24
3475.97	24.5
3476.74	24
3477.52	26
3478.29	23
3479.07	26
3479.84	23.5
3480.61	23
3481.39	23.5
3482.16	21
3482.94	24
3483.71	24
3484.48	22.5
3485.26	22.5
3486.03	28
3486.81	27.5
3487.58	25
3488.35	20
3489.13	24
3489.9	26
3490.67	25
3491.44	28.5
3492.22	22.5
3492.99	20
3493.76	23
3494.54	27.5
3495.31	22.5
3496.08	19.5
3496.85	20
3497.62	25
3498.4	26
3499.17	22
3499.94	24.5
