#Acq. time (s)=	5
#Accumulations=	5
#Range (cm-ｹ)=	100...3500
#Windows=	4
#Autofocus=	Off
#AutoExposure=	Off
#Spike filter=	Multiple accum.
#Delay time (s)=	0
#Binning=	1
#Readout mode=	Signal
#DeNoise=	Off
#ICS correction=	Off
#Dark correction=	Off
#Inst. Process=	Off
#Instrument=	LabRAM HR Evol
#Detector=	Syncerity OE
#Objective=	x100_VIS
#Grating=	600 (500nm)
#ND Filter=	25%
#Laser=	633nm_Edge
#Hole=	100.021
#Range=	Visible
#Project=	verificaciones
#Sample=	at3
#Site=	plain
#Title=	bolusat3plain
#Remark=	
#Date=	14.01.2026 11:59
#Acquired=	14.01.2026 11:59:25
100.618	25.5
101.901	29.5
103.185	26
104.468	30
105.751	33.5
107.033	24
108.316	22.5
109.598	26.5
110.88	29.5
112.162	29.5
113.445	24.5
114.727	28.5
116.008	30
117.289	33.5
118.57	21
119.85	24
121.13	30
122.411	26
123.691	26.5
124.97	26.5
126.25	27.5
127.529	21
128.808	27
130.086	29
131.364	25
132.643	25
133.921	25.5
135.199	25
136.477	24.5
137.755	31
139.032	29
140.309	28
141.586	29.5
142.863	26
144.14	27.5
145.415	31
146.691	30
147.967	28
149.243	29.5
150.518	28.5
151.794	29
153.067	26
154.342	29.5
155.617	29.5
156.892	28.5
158.166	28.5
159.439	25
160.712	28
161.986	31.5
163.26	28
164.531	25.5
165.805	27
167.077	31
168.35	26.5
169.621	28.5
170.893	28
172.165	28.5
173.437	33.5
174.707	28
175.979	30
177.25	27.5
178.519	28
179.79	26.5
181.061	26.5
182.33	27.5
183.6	28
184.87	28.5
186.138	30
187.408	29
188.676	28.5
189.945	31.5
191.214	26.5
192.481	24
193.75	28
195.016	26.5
196.285	27.5
197.552	24.5
198.819	26
200.086	27
201.352	25
202.619	26
203.884	32.5
205.151	29.5
206.416	28
207.682	27.5
208.947	25.5
210.213	27
211.477	25
212.742	28.5
214.006	32.5
215.271	29
216.535	27
217.799	31
219.062	30.5
220.326	27.5
221.589	26
222.851	27.5
224.115	31.5
225.377	26
226.64	29.5
227.901	29.5
229.163	30
230.425	27
231.686	29
232.947	28
234.209	29.5
235.469	28
236.729	24.5
237.991	29
239.25	25
240.51	27.5
241.771	25.5
243.03	25
244.288	23.5
245.549	22
246.807	26.5
248.065	24.5
249.323	28.5
250.583	26
251.84	24.5
253.098	29
254.355	26
255.613	27
256.87	27
258.127	24
259.383	29.5
260.639	32
261.897	24.5
263.153	27
264.408	24.5
265.664	29.5
266.919	31
268.174	29
269.43	25
270.685	28.5
271.939	27
273.193	26.5
274.447	27.5
275.701	28
276.955	25
278.208	28.5
279.461	27.5
280.714	26
281.968	23.5
283.221	24.5
284.473	26.5
285.726	30.5
286.977	27
288.229	28.5
289.481	28
290.732	27.5
291.983	25.5
293.234	26.5
294.485	26.5
295.736	30
296.986	25.5
298.236	27
299.486	28.5
300.736	29
301.985	26
303.233	28
304.482	26.5
305.731	28
306.98	28
308.228	29.5
309.477	25
310.725	25.5
311.973	25
313.22	26.5
314.468	30.5
315.714	24.5
316.961	28.5
318.208	27
319.455	28
320.701	29.5
321.947	28.5
323.192	24
324.438	30.5
325.684	29
326.929	25
328.175	25
329.418	29
330.663	22.5
331.908	27.5
333.152	24.5
334.395	24
335.639	22
336.883	28
338.127	27
339.369	25.5
340.612	29
341.855	27.5
343.097	26
344.34	29
345.582	24.5
346.823	20.5
348.065	24
349.307	27
350.547	23
351.789	25.5
353.03	24.5
354.27	25.5
355.511	22.5
356.75	22
357.991	24
359.231	23
360.47	28
361.709	25
362.948	28
364.187	27
365.427	27
366.664	31.5
367.903	25
369.14	27
370.379	22.5
371.616	30
372.854	24
374.091	27.5
375.328	26.5
376.564	31.5
377.802	23.5
379.037	27.5
380.274	23.5
381.51	24.5
382.745	29
383.981	28
385.216	25
386.452	30
387.686	27.5
388.922	27.5
390.155	30
391.389	27
392.624	30.5
393.857	29
395.091	28
396.325	24
397.558	27
398.79	26
400.024	24.5
401.256	28
402.488	28
403.721	27
404.953	25
406.184	27
407.417	27
408.648	29.5
409.878	23
411.109	29
412.341	23.5
413.571	30
414.801	27
416.031	22
417.262	28
418.491	25
419.72	30
420.949	25
422.178	23.5
423.408	28.5
424.637	26
425.865	29.5
427.093	25
428.32	23
429.548	28.5
430.777	26
432.004	25
433.231	29
434.458	24.5
435.685	22.5
436.911	24.5
438.137	27.5
439.363	24.5
440.589	27.5
441.815	25.5
443.042	24.5
444.267	27.5
445.492	29
446.717	26
447.942	25.5
449.166	26.5
450.39	22.5
451.615	25
452.838	26
454.062	25
455.286	28
456.509	26.5
457.732	27.5
458.955	29
460.178	28
461.399	25
462.621	27
463.843	26
465.065	28.5
466.287	22
467.508	25.5
468.73	29
469.951	25.5
471.172	29
472.393	28.5
473.612	24.5
474.832	28
476.052	30.5
477.272	28.5
478.492	32
479.712	31.5
480.93	30.5
482.149	33
483.368	31.5
484.587	31.5
485.806	32
487.023	30
488.241	35.5
489.459	35.5
490.677	32
491.893	36.5
493.111	34
494.328	33
495.543	32
496.76	34
497.977	27
499.194	30.5
500.409	32.5
501.625	30
502.841	28.5
504.055	26
505.27	28.5
506.486	28.5
507.699	31
508.914	29.5
510.128	32
511.342	29
512.557	27
513.77	28
514.984	27.5
516.196	31.5
517.41	27
518.623	27
519.835	28.5
521.048	23.5
522.259	25.5
523.472	27
524.683	30
525.895	28.5
527.106	31
528.318	31.5
529.528	29
530.74	26.5
531.949	29
533.161	26.5
534.37	27
535.581	25.5
536.79	28
537.999	28
539.209	24.5
540.418	23
541.627	26.5
542.835	31
544.043	26
545.253	27.5
546.46	30
547.669	27
548.876	25.5
550.083	32.5
551.292	22.5
552.498	26.5
553.705	28
554.912	26.5
556.118	26
557.324	24
558.53	27.5
559.737	23
560.942	26
562.147	28.5
563.353	29.5
564.558	24
565.763	25
566.967	27.5
568.173	26
569.377	26.5
570.58	25
571.784	25
572.987	24
574.192	23
575.395	30.5
576.598	30
577.8	25
579.003	26
580.205	30
581.407	29
582.61	29
583.812	28.5
585.014	24
586.215	30
587.416	28.5
588.617	27
589.818	30
591.018	20
592.219	26.5
593.419	28
594.619	22
595.819	28.5
597.02	26
598.219	19
599.418	28.5
600.617	26.5
601.816	27.5
603.015	25
604.213	27
605.41	27
606.608	30.5
607.806	28
609.004	27
610.201	31.5
611.399	25.5
612.596	28.5
613.793	24.5
614.989	29.5
616.186	26
617.382	31.5
618.579	28
619.775	27
620.969	27.5
622.165	28.5
623.36	31.5
624.555	27
625.75	27
626.945	28
628.139	28
629.333	26.5
630.527	28
631.721	27.5
632.915	28
634.108	25.5
635.301	29
636.495	25
637.688	29
638.88	26.5
640.072	28.5
641.265	25
642.456	28
643.648	29
644.84	29
646.032	29.5
647.222	29
648.414	28.5
649.605	30
650.795	26
651.986	29.5
653.177	27.5
654.366	26.5
655.556	30.5
656.745	26
657.935	28
659.125	30
660.313	25
661.503	26.5
662.69	28
663.879	28
665.067	27.5
666.256	24
667.444	25.5
668.631	26.5
669.819	30
671.006	28.5
672.194	30
673.38	29.5
674.567	28
675.753	29.5
676.94	28
678.125	28
679.311	29
680.497	26
681.682	30
682.868	27.5
684.053	29.5
685.238	30.5
686.422	28
687.606	29
688.792	27.5
689.975	29.5
691.159	31
692.343	25.5
693.526	28.5
694.71	24.5
695.893	28.5
697.076	28
698.259	27
699.441	25
700.623	26.5
701.805	29
702.988	23
704.169	28
705.35	32
706.533	35
707.714	27.5
708.894	30
710.075	31
711.255	29
712.436	30.5
713.616	28.5
714.796	31
715.975	32.5
717.155	29.5
718.335	29.5
719.514	27
720.693	29
721.872	29
723.05	29
724.228	28
725.406	27
726.585	30.5
727.763	27
728.941	29.5
730.118	21.5
731.295	28
732.472	29
733.649	27
734.825	26
736.002	26.5
737.178	33
738.354	28.5
739.53	28
740.705	27
741.881	26
743.056	22.5
744.231	26.5
745.406	23.5
746.581	22
747.755	26.5
748.93	24
750.104	25
751.278	27.5
752.452	25
753.625	29
754.799	25
755.972	26
757.144	27
758.317	25.5
759.489	29.5
760.662	21
761.834	28
763.006	27.5
764.178	29.5
765.349	29
766.521	27.5
767.692	27.5
768.863	26
770.034	26
771.204	27
772.374	26.5
773.545	24.5
774.715	24.5
775.885	27.5
777.054	26.5
778.224	27.5
779.393	28.5
780.562	28.5
781.731	28.5
782.9	29
784.069	25
785.236	31
786.405	30.5
787.573	26
788.74	25
789.908	29.5
791.074	26
792.242	30
793.409	20
794.575	25.5
795.742	25
796.909	26
798.074	25
799.241	25.5
800.406	31
801.572	28
802.737	28
803.902	27
805.067	29
806.232	25.5
807.396	27
808.561	23
809.725	25.5
810.889	25
812.052	28
813.217	28.5
814.38	27.5
815.544	28.5
816.706	28
817.87	28.5
819.032	28
820.195	29.5
821.357	29.5
822.518	29
823.681	24.5
824.842	23
826.005	27.5
827.165	23.5
828.326	26.5
829.488	23.5
830.648	29
831.808	27
832.97	25.5
834.129	28
835.289	27
836.45	26
837.609	25
838.768	26
839.927	25
841.087	26
842.245	30.5
843.404	24
844.562	28
845.721	27.5
846.879	28.5
848.036	25
849.194	27
850.351	28.5
851.509	25
852.666	27
853.823	28.5
854.979	24
856.136	29.5
857.292	27.5
858.448	27
859.605	24
860.761	27.5
861.916	26.5
863.071	29
864.226	25
865.381	22
866.536	26
867.691	28.5
868.845	24
869.999	24
871.153	27
872.307	27.5
873.461	25.5
874.614	28
875.767	26.5
876.92	27
878.073	27
879.226	30
880.379	23.5
881.531	26.5
882.683	23.5
883.835	25.5
884.987	26
886.139	24.5
887.291	27
888.442	26.5
889.593	24.5
890.743	24
891.893	24
893.044	26.5
894.195	29
895.345	24.5
896.495	27.5
897.643	25
898.793	24
899.943	27
901.092	28
902.241	29
903.389	25.5
904.538	26
905.687	26.5
906.835	22
907.982	24
909.13	25
910.278	30
911.426	26.5
912.572	27
913.72	24.5
914.867	25
916.013	24
917.16	26
918.306	21
919.451	27
920.598	28.5
921.744	26.5
922.889	27.5
924.035	28.5
925.18	26
926.324	26
927.47	24.5
928.614	23
929.758	26.5
930.902	20.5
932.047	27
933.191	25
934.334	27.5
935.478	26
936.621	29
937.764	23
938.906	23
940.05	29.5
941.192	23.5
942.335	23
943.476	24
944.619	28
945.76	27.5
946.901	24
948.043	29
949.184	27
950.326	27
951.466	24.5
952.606	28
953.747	25.5
954.887	25.5
956.028	20.5
957.167	26
958.307	27
959.447	24.5
960.586	27.5
961.725	21.5
962.865	27.5
964.003	23.5
965.141	26
966.279	26
967.418	23.5
968.556	26.5
969.693	25
970.831	26.5
971.969	27.5
973.106	26
974.243	24.5
975.38	26
976.517	28
977.654	24.5
978.79	24.5
979.926	22
981.061	24
982.197	25.5
983.334	25
984.469	26
985.604	23
986.739	28
987.873	26
989.008	21
990.142	21
991.277	24.5
992.411	25.5
993.544	24.5
994.679	26.5
995.813	28
996.946	25
998.079	27
999.212	23
1000.35	25.5
1001.48	22
1002.61	29
1003.74	26
1004.87	23.5
1006.01	25
1007.14	24.5
1008.27	29
1009.4	29
1010.53	26
1011.66	24.5
1012.79	26
1013.92	23.5
1015.05	26
1016.18	25.5
1017.31	26.5
1018.44	25
1019.57	25.5
1020.7	30
1021.83	25
1022.96	23
1024.09	24
1025.22	26.5
1026.35	26
1027.48	24.5
1028.6	25.5
1029.73	27.5
1030.86	26
1031.99	26
1033.12	25.5
1034.24	23
1035.37	25
1036.5	24.5
1037.62	24.5
1038.75	23
1039.88	25.5
1041	26.5
1042.13	21
1043.25	25.5
1044.38	23.5
1045.5	26
1046.63	21
1047.76	26
1048.88	25.5
1050	27.5
1051.13	23
1052.25	27
1053.38	24.5
1054.5	22.5
1055.63	26
1056.75	28.5
1057.87	22
1058.99	26
1060.12	24.5
1061.24	29
1062.36	24
1063.49	23
1064.61	28.5
1065.73	29
1066.85	24.5
1067.97	22.5
1069.1	26.5
1070.22	28.5
1071.34	24
1072.46	24.5
1073.58	24
1074.7	25
1075.82	22
1076.94	24.5
1078.06	22
1079.18	24
1080.3	26.5
1081.42	23.5
1082.54	22.5
1083.66	25.5
1084.78	23
1085.9	22.5
1087.02	21
1088.13	24
1089.25	28
1090.37	23
1091.49	23.5
1092.61	25.5
1093.72	25.5
1094.84	25.5
1095.96	23
1097.08	24.5
1098.19	27.5
1099.31	24.5
1100.42	25.5
1101.54	23
1102.66	24
1103.77	25.5
1104.89	24
1106	23.5
1107.12	25.5
1108.23	24.5
1109.35	23
1110.46	25
1111.58	22.5
1112.69	23.5
1113.81	27.5
1114.92	26
1116.04	26.5
1117.15	25.5
1118.26	23
1119.38	25
1120.49	24.5
1121.6	24
1122.72	25.5
1123.83	26
1124.94	23.5
1126.05	27
1127.17	24
1128.28	29.5
1129.39	25
1130.5	28.5
1131.61	24
1132.72	23.5
1133.83	22.5
1134.94	24.5
1136.06	21.5
1137.17	24.5
1138.27	26
1139.39	24.5
1140.5	23.5
1141.61	23
1142.72	26.5
1143.82	25
1144.93	25
1146.04	26
1147.15	21.5
1148.26	26
1149.37	24.5
1150.48	23
1151.58	25
1152.69	22.5
1153.8	24
1154.91	25
1156.02	24
1157.12	21
1158.23	22
1159.34	23
1160.44	27.5
1161.55	23.5
1162.66	25.5
1163.76	29
1164.87	24.5
1165.97	21.5
1167.08	23
1168.18	25
1169.29	26.5
1170.39	22
1171.5	26
1172.6	25.5
1173.71	23
1174.81	26.5
1175.92	24.5
1177.02	25.5
1178.13	24
1179.23	26.5
1180.33	26
1181.44	20
1182.54	30
1183.64	21
1184.74	27
1185.85	30
1186.95	27
1188.05	23
1189.15	27
1190.26	23
1191.36	26.5
1192.46	24.5
1193.56	26.5
1194.66	24.4914
1195.76	22.9548
1196.86	25
1197.96	25
1199.06	21.6492
1200.16	24.4411
1201.26	21.5
1202.36	23.3544
1203.46	26.557
1204.56	24.5416
1205.66	19.0083
1206.76	26.0948
1207.86	23.2283
1208.96	22.8286
1210.06	22.9177
1211.16	24.1241
1212.25	22.9199
1213.35	22.4154
1214.45	24.4612
1215.55	25.0853
1216.65	26.2133
1217.74	25.182
1218.84	24.318
1219.94	25.0045
1221.03	22.0715
1222.13	24.2789
1223.23	24.5995
1224.32	23.9973
1225.42	23.5685
1226.52	26.0335
1227.61	23.3851
1228.71	25.0276
1229.8	21.6819
1230.9	21.6626
1231.99	21.8471
1233.09	22.483
1234.18	23.7517
1235.28	23.8364
1236.37	23.797
1237.47	25.713
1238.56	24.5681
1239.65	22.6621
1240.75	24.9745
1241.84	23.7145
1242.93	26.1099
1244.03	24.8589
1245.12	23.0313
1246.21	23.299
1247.31	23.2354
1248.4	24.0194
1249.49	24.32
1250.58	25.2921
1251.67	23.9808
1252.77	23.2015
1253.86	24.0231
1254.95	23.4052
1256.04	24.4431
1257.13	23.6045
1258.22	26.6982
1259.31	23.9725
1260.4	25.9508
1261.49	22.6515
1262.58	22.0615
1263.67	21.8083
1264.76	25.2854
1265.85	26.0757
1266.94	25.6036
1268.03	24.3863
1269.12	25.6623
1270.21	24.0198
1271.3	23.1217
1272.39	25.5291
1273.47	24.6604
1274.56	24.4272
1275.65	23.4409
1276.74	25.1608
1277.83	22.7236
1278.91	25.2886
1280	26.172
1281.09	21.8618
1282.17	22.1109
1283.26	23.6253
1284.35	24.199
1285.43	22.1693
1286.52	21.8233
1287.61	23.582
1288.69	23.9564
1289.78	24.5524
1290.86	23.1918
1291.95	22.5323
1293.03	23.5158
1294.12	23.9918
1295.2	21.9333
1296.29	22.4583
1297.37	24.907
1298.46	26.749
1299.54	23.7298
1300.63	22.413
1301.71	25.0746
1302.79	24.0996
1303.88	22.8607
1304.96	23.5691
1306.04	24.2738
1306.5	24.5
1307.59	19
1308.68	23
1309.76	22.5
1310.85	23
1311.94	28.5
1313.03	24
1314.11	25
1315.2	26
1316.29	24
1317.37	17
1318.46	23
1319.55	23
1320.63	24.5
1321.72	25
1322.81	23.5
1323.89	25
1324.98	28.5
1326.06	22
1327.15	25.5
1328.23	22
1329.32	20
1330.4	22
1331.49	23
1332.57	26.5
1333.66	22
1334.74	25.5
1335.82	27
1336.91	23.5
1337.99	25.5
1339.07	21
1340.16	24.5
1341.24	20.5
1342.32	25
1343.4	28.5
1344.49	22
1345.57	24
1346.65	30
1347.73	25
1348.82	24.5
1349.9	23.5
1350.98	24
1352.06	21.5
1353.14	24
1354.22	29.5
1355.3	23
1356.38	25
1357.46	22
1358.54	26.5
1359.62	23
1360.7	28
1361.78	23.5
1362.86	24.5
1363.94	24.5
1365.02	24.5
1366.1	24
1367.18	24.5
1368.26	24.5
1369.34	24
1370.41	23
1371.49	24
1372.57	22
1373.65	22
1374.72	22
1375.8	24
1376.88	24
1377.96	28.5
1379.03	24.5
1380.11	29
1381.19	25.5
1382.26	25
1383.34	24
1384.42	24
1385.49	23.5
1386.57	26
1387.64	24
1388.72	26
1389.79	28
1390.87	28.5
1391.94	26
1393.02	24
1394.09	26.5
1395.17	24
1396.24	29
1397.31	24
1398.39	24.5
1399.46	26
1400.54	23.5
1401.61	26.5
1402.68	28
1403.76	25.5
1404.83	23.5
1405.9	23.5
1406.97	27
1408.05	27.5
1409.12	30
1410.19	23
1411.26	26
1412.33	23.5
1413.4	25
1414.48	28.5
1415.55	23
1416.62	23.5
1417.69	25
1418.76	21.5
1419.83	27
1420.9	22.5
1421.97	23.5
1423.04	24.5
1424.11	28.5
1425.18	29.5
1426.25	24
1427.32	23.5
1428.39	21.5
1429.46	23
1430.52	21
1431.59	26
1432.66	24.5
1433.73	23
1434.8	23
1435.87	20
1436.93	22.5
1438	24.5
1439.07	23
1440.14	26.5
1441.2	22.5
1442.27	27
1443.34	24.5
1444.4	24
1445.47	24
1446.54	23
1447.6	22
1448.67	29
1449.73	26
1450.8	22
1451.86	25.5
1452.93	28
1453.99	27
1455.06	24
1456.12	30.5
1457.19	23
1458.25	25
1459.32	22
1460.38	27.5
1461.45	25
1462.51	23
1463.57	27
1464.64	25.5
1465.7	28
1466.76	26.5
1467.82	22.5
1468.89	22
1469.95	23
1471.01	19.5
1472.07	27
1473.14	25
1474.2	22
1475.26	22.5
1476.32	24
1477.38	25
1478.44	21.5
1479.5	24.5
1480.57	24
1481.63	26.5
1482.69	23
1483.75	25.5
1484.81	28
1485.87	24.5
1486.93	23.5
1487.99	24.5
1489.05	26
1490.1	26.5
1491.17	27.5
1492.22	24.5
1493.28	25.5
1494.34	27.5
1495.4	25.5
1496.46	25
1497.52	26.5
1498.57	20.5
1499.63	27.5
1500.69	23.5
1501.75	23.5
1502.8	23.5
1503.86	26.5
1504.92	25.5
1505.98	24
1507.03	22
1508.09	23
1509.15	25.5
1510.2	25
1511.26	22
1512.31	22
1513.37	24.5
1514.42	24.5
1515.48	23
1516.53	26
1517.59	21
1518.64	26.5
1519.7	25.5
1520.75	26
1521.81	22.5
1522.86	24.5
1523.92	24
1524.97	25
1526.02	27
1527.08	28
1528.13	23.5
1529.18	25
1530.24	25.5
1531.29	27
1532.34	26.5
1533.39	25
1534.45	25
1535.5	22.5
1536.55	27.5
1537.6	24
1538.65	22
1539.71	23
1540.76	23.5
1541.81	27
1542.86	26
1543.91	21
1544.96	24
1546.01	28
1547.06	24
1548.11	21
1549.16	25
1550.21	25
1551.26	28.5
1552.31	20
1553.36	23
1554.41	24
1555.46	21
1556.51	26.5
1557.56	28
1558.6	29.5
1559.65	28
1560.7	28
1561.75	28
1562.8	25.5
1563.84	25
1564.89	22.5
1565.94	26
1566.99	27
1568.03	29.5
1569.08	22
1570.13	24
1571.17	25.5
1572.22	23
1573.27	28.5
1574.31	25.5
1575.36	24.5
1576.4	22.5
1577.45	28
1578.5	27
1579.54	21
1580.59	25
1581.63	25.5
1582.68	26.5
1583.72	21.5
1584.76	28
1585.81	28
1586.85	25
1587.9	24
1588.94	26.5
1589.98	23.5
1591.03	25.5
1592.07	25
1593.11	25.5
1594.16	21.5
1595.2	25
1596.24	27
1597.29	24
1598.33	27
1599.37	29
1600.41	20
1601.45	24
1602.49	26
1603.54	27
1604.58	25
1605.62	24.5
1606.66	27
1607.7	25.5
1608.74	24
1609.78	23
1610.82	22.5
1611.86	26
1612.9	27
1613.94	25
1614.98	25.5
1616.02	23.5
1617.06	21.5
1618.1	25.5
1619.14	25
1620.18	25
1621.22	28
1622.25	22
1623.29	28
1624.33	22.5
1625.37	23
1626.41	23.5
1627.45	24.5
1628.48	25
1629.52	26
1630.56	23
1631.59	28.5
1632.63	25
1633.67	24
1634.7	24
1635.74	26.5
1636.78	25
1637.81	26
1638.85	24
1639.88	26
1640.92	26.5
1641.96	24
1642.99	26
1644.03	25.5
1645.06	21
1646.1	27
1647.13	27
1648.17	22
1649.2	27.5
1650.23	24
1651.27	24
1652.3	26
1653.33	24.5
1654.37	23.5
1655.4	20
1656.44	26
1657.47	27.5
1658.5	27
1659.53	27
1660.57	28.5
1661.6	22
1662.63	25
1663.66	26
1664.69	25
1665.73	25
1666.76	26.5
1667.79	23
1668.82	27
1669.85	22.5
1670.88	27.5
1671.91	25.5
1672.94	25.5
1673.97	26.5
1675.01	27
1676.03	29.5
1677.07	24
1678.1	31
1679.12	28.5
1680.15	28
1681.18	25.5
1682.21	27.5
1683.24	17
1684.27	23
1685.3	25
1686.33	28.5
1687.36	24.5
1688.38	24.5
1689.41	25.5
1690.44	22
1691.47	23
1692.5	29.5
1693.52	26
1694.55	23.5
1695.58	20
1696.6	26
1697.63	22.5
1698.66	25
1699.68	27
1700.71	22
1701.74	25
1702.76	25
1703.79	25.5
1704.81	24
1705.84	24
1706.86	26.5
1707.89	24.5
1708.91	26
1709.94	25.5
1710.96	25
1711.99	23
1713.01	26
1714.04	24
1715.06	25.5
1716.08	26
1717.11	24
1718.13	23
1719.16	22.5
1720.18	27
1721.2	26.5
1722.22	24
1723.25	28
1724.27	27
1725.29	29
1726.31	23
1727.34	23.5
1728.36	26.5
1729.38	26
1730.4	23
1731.42	25
1732.44	24
1733.47	22.5
1734.49	24
1735.51	25
1736.53	26.5
1737.55	24.5
1738.57	23
1739.59	27
1740.61	23.5
1741.63	26
1742.65	26
1743.67	23
1744.69	25
1745.71	25
1746.73	23
1747.75	25
1748.76	24
1749.78	23
1750.8	23.5
1751.82	24.5
1752.84	23.5
1753.86	29
1754.87	27.5
1755.89	26
1756.91	24.5
1757.93	24.5
1758.94	20
1759.96	23
1760.98	21.5
1761.99	27
1763.01	25
1764.03	22.5
1765.04	24.5
1766.06	26.5
1767.08	25
1768.09	22
1769.11	24.5
1770.12	24
1771.14	24
1772.15	28
1773.17	28.5
1774.18	28.5
1775.2	25
1776.21	25.5
1777.23	23.5
1778.24	26
1779.25	24
1780.27	27
1781.28	26.5
1782.3	21
1783.31	26
1784.32	22
1785.34	25.5
1786.35	25.5
1787.36	21.5
1788.37	25
1789.39	23
1790.4	23.5
1791.41	25
1792.42	24
1793.43	26.5
1794.45	24
1795.46	24.5
1796.47	25.5
1797.48	23
1798.49	19
1799.5	25
1800.51	21
1801.52	25.5
1802.53	21.5
1803.54	24.5
1804.55	24
1805.56	28
1806.57	27
1807.58	24
1808.59	24.5
1809.6	26
1810.61	27
1811.62	25
1812.63	25
1813.64	23.5
1814.65	25.5
1815.66	25
1816.66	26
1817.67	22
1818.68	25
1819.69	23.5
1820.69	24
1821.7	23.5
1822.71	25.5
1823.72	26
1824.72	25
1825.73	27.5
1826.74	28
1827.74	23
1828.75	29
1829.76	22.5
1830.76	26.5
1831.77	21.5
1832.77	26
1833.78	22
1834.79	24
1835.79	21
1836.8	25.5
1837.8	23
1838.81	26.5
1839.81	24
1840.81	25.5
1841.82	21
1842.82	28
1843.83	20.5
1844.83	26
1845.83	27
1846.84	28
1847.84	26
1848.84	24.5
1849.85	19.5
1850.85	27
1851.85	24
1852.86	27
1853.86	21
1854.86	29
1855.86	20.5
1856.86	26
1857.87	26
1858.87	26.5
1859.87	26.5
1860.87	26
1861.87	23
1862.87	22
1863.88	23.5
1864.88	25
1865.88	24.5
1866.88	28
1867.88	26
1868.88	24
1869.88	21
1870.88	28
1871.88	27
1872.88	22
1873.88	26.5
1874.87	25.5
1875.87	23
1876.87	23
1877.87	24.5
1878.87	26.5
1879.87	26
1880.87	27.5
1881.86	28
1882.86	26
1883.86	24
1884.86	26
1885.86	23.5
1886.85	26.5
1887.85	23
1888.85	22
1889.84	24
1890.84	23
1891.84	25
1892.83	26.5
1893.83	22.5
1894.83	27
1895.82	25.5
1896.82	22
1897.81	23.5
1898.81	22.5
1899.81	24
1900.8	25
1901.8	25
1902.79	23.5
1903.78	24.5
1904.78	24
1905.77	22
1906.77	27
1907.76	25
1908.76	24.5
1909.75	23
1910.74	25
1911.74	25
1912.73	26
1913.72	25.5
1914.72	27
1915.71	24.5
1916.7	21
1917.7	26
1918.69	27.5
1919.68	25
1920.67	24
1921.66	23
1922.66	22.5
1923.65	23
1924.64	23.5
1925.63	24.5
1926.62	28.5
1927.61	22
1928.6	22
1929.59	24
1930.59	23
1931.58	23.5
1932.57	24.5
1933.56	22
1934.55	20.5
1935.54	23
1936.53	24
1937.52	26
1938.51	24
1939.49	27
1940.48	23
1941.47	23.5
1942.46	23.5
1943.45	26
1944.44	23
1945.43	23.5
1946.42	25
1947.4	24.5
1948.39	26
1949.38	25.5
1950.37	21
1951.35	24
1952.34	24.5
1953.33	25
1954.31	27
1955.3	24
1956.29	20
1957.27	25.5
1958.26	27.5
1959.25	22.5
1960.23	21.5
1961.22	24
1962.21	25
1963.19	22.5
1964.18	25
1965.16	29.5
1966.15	25
1967.13	21
1968.12	26.5
1969.1	29.5
1970.09	20.5
1971.07	27
1972.05	23
1973.04	25
1974.02	18
1975.01	27
1975.99	27.5
1976.97	23.5
1977.96	24
1978.94	26
1979.92	22
1980.91	22.5
1981.89	21
1982.87	24.5
1983.85	22
1984.84	29
1985.82	24.5
1986.8	23
1987.78	24
1988.76	23.5
1989.74	29
1990.73	23.5
1991.71	23.5
1992.69	24
1993.67	26.5
1994.65	25
1995.63	25
1996.61	25.5
1997.59	22
1998.57	23
1999.55	24.5
2000.53	22
2001.51	27
2002.49	25
2003.47	23.5
2004.45	27.5
2005.43	24.5
2006.41	21
2007.39	27
2008.37	24
2009.34	23.5
2010.32	24.5
2011.3	25.5
2012.28	20.5
2013.26	26.5
2014.23	21
2015.21	24.5
2016.19	24
2017.17	25.5
2018.14	22
2019.12	21.5
2020.1	27
2021.07	21
2022.05	25.5
2023.03	22
2024	23.5
2024.98	24.5
2025.96	25
2026.93	24
2027.91	24
2028.88	24
2029.86	22.5
2030.83	18.5
2031.81	22
2032.78	21
2033.76	27
2034.73	27
2035.71	24
2036.68	23
2037.66	25
2038.63	21.5
2039.6	26.5
2040.58	24
2041.55	22
2042.52	26.5
2043.5	26
2044.47	26
2045.44	25.5
2046.42	25
2047.39	23.5
2048.36	22.5
2049.33	22
2050.31	21.5
2051.28	22.5
2052.25	23.5
2053.22	22.5
2054.19	27.5
2055.17	23
2056.14	22
2057.11	24.5
2058.08	24
2059.05	26.5
2060.02	24
2060.99	24.5
2061.96	19
2062.93	21
2063.9	26.5
2064.87	22
2065.84	23
2066.81	22.5
2067.78	26
2068.75	22.5
2069.72	24.5
2070.69	23
2071.66	23.5
2072.63	24
2073.6	22
2074.56	25.5
2075.53	23
2076.5	24
2077.47	23
2078.44	19
2079.4	24.5
2080.37	26
2081.34	24
2082.31	19
2083.27	20
2084.24	23
2085.21	20
2086.18	25.5
2087.14	26
2088.11	22.5
2089.07	26.5
2090.04	23
2091.01	22.5
2091.97	23
2092.94	22
2093.9	20
2094.87	27
2095.83	23.5
2096.8	26
2097.76	21
2098.73	21
2099.69	23.5
2100.66	23
2101.62	25
2102.59	21
2103.55	24
2104.52	21.5
2105.48	23
2106.44	21.5
2107.41	20.5
2108.37	26.5
2109.33	19.5
2110.3	27
2111.26	23.5
2112.22	25
2113.18	26.5
2114.15	23.5
2115.11	24
2116.07	24
2117.03	26
2118	23.5
2118.96	23.5
2119.92	22
2120.88	26
2121.84	20
2122.8	26
2123.76	22.5
2124.72	23
2125.68	22.5
2126.65	26
2127.61	24.5
2128.57	22
2129.53	28
2130.49	25.5
2131.45	20.5
2132.41	21.5
2133.36	21
2134.32	20.5
2135.28	24.5
2136.24	26.5
2137.2	23
2138.16	23
2139.12	23
2140.08	23.5
2141.04	20.5
2141.99	25.5
2142.95	25.4889
2143.91	24.9364
2144.87	22.0076
2145.83	22.966
2146.78	22.9959
2147.74	19.7384
2148.7	23.4684
2149.66	20.682
2150.61	23.861
2151.57	22.7844
2152.53	21.8808
2153.48	21.1675
2154.44	21.8845
2155.4	21.7459
2156.35	23.1892
2157.31	22.7951
2158.26	24.0711
2159.22	21.6354
2160.17	22.3631
2161.13	24.6075
2162.08	21.7603
2163.04	22.7341
2163.99	23.1129
2164.95	21.863
2165.9	24.1876
2166.86	20.5101
2167.81	23.2231
2168.77	24.6959
2169.72	25.4648
2170.67	25.8909
2171.63	25.2685
2172.58	23.5746
2173.54	23.4487
2174.49	22.0391
2175.44	24.6452
2176.39	22.6502
2177.35	23.281
2178.3	19.4266
2179.25	24.2743
2180.2	22.7473
2181.16	24.8916
2182.11	25.5949
2183.06	23.6651
2184.01	21.393
2184.96	22.3965
2185.92	21.2055
2186.87	26.5702
2187.82	24.1203
2188.77	20.2063
2189.72	21.5191
2190.67	23.2794
2191.62	22
2192.57	22.6745
2193.52	22.561
2194.47	20.7621
2195.42	25.0342
2196.37	22.6559
2197.32	22.8212
2198.27	23.4122
2199.22	23.6141
2200.17	22.2787
2201.12	21.5249
2202.07	25.2201
2203.02	23.4803
2203.97	22.2706
2204.92	22.9708
2205.87	23.3371
2206.81	24.2797
2207.76	23.6602
2208.71	24.6532
2209.66	24.6031
2210.61	23.2646
2211.55	22.1289
2212.5	18.2522
2213.45	21.6299
2214.4	24.196
2215.34	20.9947
2216.29	23.4858
2217.24	22.492
2218.18	22.9077
2219.13	25.4053
2220.08	23.9052
2221.02	18.1422
2221.97	20.1241
2222.92	21.9586
2223.86	23.0638
2224.81	19.1947
2225.75	19.5273
2226.7	23.215
2227.64	21.0887
2228.59	20.7158
2229.53	22.7602
2230.48	22.0777
2231.42	21.2683
2232.37	19.76
2233.31	21.7588
2234.26	23.0142
2235.2	20.5633
2236.14	22.6601
2237.09	23.4915
2238.03	22.1645
2238.97	22.8317
2239.92	21.2852
2240.05	21
2241	24.5
2241.95	20.5
2242.89	23.5
2243.84	23
2244.79	21.5
2245.74	22.5
2246.68	22
2247.63	24
2248.58	23.5
2249.53	20
2250.47	25
2251.42	22.5
2252.36	23
2253.31	26.5
2254.26	23.5
2255.2	24
2256.15	26
2257.1	19
2258.04	23
2258.99	25.5
2259.93	24
2260.88	23.5
2261.82	23
2262.77	24
2263.71	24
2264.66	25.5
2265.6	21.5
2266.55	21
2267.49	25.5
2268.43	25
2269.38	24
2270.32	27
2271.26	23
2272.21	26
2273.15	23
2274.09	21.5
2275.04	23.5
2275.98	19
2276.92	20
2277.87	19
2278.81	23
2279.75	22
2280.69	22
2281.64	27.5
2282.58	25
2283.52	28.5
2284.46	23
2285.4	25.5
2286.34	24.5
2287.29	24
2288.23	25
2289.17	22
2290.11	21.5
2291.05	23
2291.99	24
2292.93	24
2293.87	25.5
2294.81	24
2295.75	21
2296.69	23.5
2297.63	23.5
2298.57	24
2299.51	26
2300.45	22.5
2301.39	25
2302.33	27
2303.27	22
2304.2	24
2305.14	22.5
2306.08	19
2307.02	23.5
2307.96	22.5
2308.9	25
2309.83	25.5
2310.77	24
2311.71	22
2312.65	26
2313.58	24.5
2314.52	23
2315.46	26
2316.39	25
2317.33	22.5
2318.27	24
2319.21	25.5
2320.14	24
2321.08	28.5
2322.01	23.5
2322.95	26.5
2323.89	23
2324.82	24.5
2325.76	21.5
2326.69	21.5
2327.63	21
2328.56	23
2329.5	25.5
2330.43	24.5
2331.37	24
2332.3	25
2333.24	26.5
2334.17	26.5
2335.1	25
2336.04	22.5
2336.97	23.5
2337.91	21
2338.84	24
2339.77	24.5
2340.71	23
2341.64	23.5
2342.57	21
2343.51	24
2344.44	22
2345.37	21
2346.3	25
2347.24	25
2348.17	24.5
2349.1	24.5
2350.03	28.5
2350.96	25.5
2351.89	27
2352.83	24
2353.76	26
2354.69	24
2355.62	23.5
2356.55	22.5
2357.48	21
2358.41	26.5
2359.34	25
2360.27	21.5
2361.2	24
2362.13	25
2363.06	22.5
2363.99	22.5
2364.92	21.5
2365.85	21.5
2366.78	23.5
2367.71	22.5
2368.64	25
2369.57	21.5
2370.5	22.5
2371.43	24
2372.36	23
2373.28	25.5
2374.21	21
2375.14	23
2376.07	25
2377	23
2377.93	22
2378.85	21.5
2379.78	21.5
2380.71	25.5
2381.63	21
2382.56	22
2383.49	22.5
2384.42	25
2385.34	23.5
2386.27	21.5
2387.2	25
2388.12	23.5
2389.05	24
2389.97	26
2390.9	23
2391.82	25.5
2392.75	24
2393.68	21
2394.6	23
2395.53	24
2396.45	24.5
2397.38	23.5
2398.3	26
2399.23	26.5
2400.15	23.5
2401.07	25.5
2402	28.5
2402.92	23
2403.85	21
2404.77	24
2405.69	22.5
2406.62	23
2407.54	22.5
2408.46	22
2409.39	22.5
2410.31	24
2411.23	25
2412.16	26
2413.08	26.5
2414	21.5
2414.92	24.5
2415.85	23
2416.77	22.5
2417.69	22
2418.61	24.5
2419.53	21
2420.45	25
2421.38	25
2422.3	23.5
2423.22	26
2424.14	25
2425.06	23
2425.98	23
2426.9	21.5
2427.82	26
2428.74	25
2429.66	26.5
2430.58	23
2431.5	23
2432.42	25
2433.34	27.5
2434.26	22
2435.18	24
2436.1	25.5
2437.02	25.5
2437.94	25
2438.85	24.5
2439.77	22
2440.69	25
2441.61	25.5
2442.53	26
2443.45	23
2444.36	27.5
2445.28	25.5
2446.2	23.5
2447.12	24
2448.03	25
2448.95	24.5
2449.87	27.5
2450.79	23
2451.7	24
2452.62	23
2453.54	25.5
2454.45	22
2455.37	21
2456.28	23.5
2457.2	21
2458.12	23
2459.03	23.5
2459.95	23.5
2460.86	26
2461.78	22
2462.69	23
2463.61	24.5
2464.52	21.5
2465.44	24
2466.35	23
2467.27	25.5
2468.18	22.5
2469.1	22.5
2470.01	21
2470.93	22
2471.84	21.5
2472.75	26
2473.67	23.5
2474.58	23.5
2475.49	23
2476.41	29
2477.32	26
2478.23	23.5
2479.15	29
2480.06	25.5
2480.97	27
2481.88	24.5
2482.79	24
2483.71	24
2484.62	22
2485.53	24
2486.44	19.5
2487.35	22.5
2488.26	21.5
2489.18	24.5
2490.09	26.5
2491	26.5
2491.91	27.5
2492.82	21.5
2493.73	22
2494.64	20
2495.55	27
2496.46	25.5
2497.37	28
2498.28	26
2499.19	23
2500.1	26.5
2501.01	22.5
2501.92	22.5
2502.83	25.5
2503.74	25
2504.65	24.5
2505.56	25
2506.47	24.5
2507.37	25
2508.28	27
2509.19	22.5
2510.1	25.5
2511.01	24
2511.92	22.5
2512.82	22.5
2513.73	22.5
2514.64	25.5
2515.55	23
2516.45	26
2517.36	22
2518.27	24
2519.17	22.5
2520.08	25.5
2520.99	22.5
2521.89	23.5
2522.8	25
2523.71	25
2524.61	25
2525.52	26.5
2526.42	24.5
2527.33	25
2528.24	17.5
2529.14	23.5
2530.05	26
2530.95	23
2531.86	26
2532.76	23
2533.67	25
2534.57	25.5
2535.48	28
2536.38	23
2537.28	25.5
2538.19	23
2539.09	24.5
2540	25
2540.9	24
2541.8	29
2542.71	24.5
2543.61	23.5
2544.51	21.5
2545.42	26.5
2546.32	23
2547.22	24
2548.12	24.5
2549.03	23
2549.93	23
2550.83	21.5
2551.73	28
2552.63	23
2553.54	26
2554.44	20.5
2555.34	21
2556.24	25.5
2557.14	23
2558.04	20
2558.94	27.5
2559.85	20
2560.75	23.5
2561.65	24
2562.55	24.5
2563.45	26
2564.35	25.5
2565.25	27
2566.15	21.5
2567.05	23
2567.95	27.5
2568.85	26.5
2569.75	25.5
2570.65	21
2571.55	26.5
2572.44	26
2573.34	24
2574.24	24
2575.14	21.5
2576.04	22.5
2576.94	26.5
2577.84	22
2578.73	24
2579.63	22
2580.53	24.5
2581.43	22.5
2582.33	25
2583.22	24
2584.12	22
2585.02	23
2585.91	22
2586.81	26
2587.71	26
2588.6	23.5
2589.5	26.5
2590.4	24
2591.29	26
2592.19	25.5
2593.09	22
2593.98	25
2594.88	24.5
2595.77	24
2596.67	26
2597.56	26
2598.46	23
2599.35	25.5
2600.25	22
2601.14	24
2602.04	25
2602.93	23.5
2603.83	23.5
2604.72	26.5
2605.62	23
2606.51	26.5
2607.4	28.5
2608.3	25
2609.19	23
2610.09	24.5
2610.98	25
2611.87	24
2612.76	24.5
2613.66	23.5
2614.55	27.5
2615.44	23
2616.34	25.5
2617.23	28
2618.12	24
2619.01	26.5
2619.9	23
2620.8	24.5
2621.69	22.5
2622.58	27.5
2623.47	25.5
2624.36	26
2625.25	26
2626.15	24
2627.04	26
2627.93	27
2628.82	23
2629.71	26.5
2630.6	25
2631.49	30.5
2632.38	25.5
2633.27	24
2634.16	19.5
2635.05	24
2635.94	21
2636.83	27
2637.72	24
2638.61	21.5
2639.5	31.5
2640.39	24
2641.28	24.5
2642.16	29
2643.05	21
2643.94	22.5
2644.83	22.5
2645.72	23
2646.61	25.5
2647.49	26
2648.38	27
2649.27	26
2650.16	25
2651.05	22
2651.93	26.5
2652.82	24.5
2653.71	25
2654.59	26
2655.48	21
2656.37	27
2657.25	26.5
2658.14	25
2659.03	28.5
2659.91	23.5
2660.8	25
2661.69	25
2662.57	27
2663.46	25
2664.34	25
2665.23	25.5
2666.11	22.5
2667	21.5
2667.88	26
2668.77	24.5
2669.65	24
2670.54	24.5
2671.42	20
2672.31	29
2673.19	23.5
2674.08	23
2674.96	22.5
2675.84	23
2676.73	26.5
2677.61	25
2678.49	25
2679.38	24
2680.26	23.5
2681.14	23.5
2682.03	26
2682.91	30
2683.79	24
2684.68	25
2685.56	21
2686.44	23
2687.32	25.5
2688.2	24
2689.09	26
2689.97	26.5
2690.85	23
2691.73	29.5
2692.61	23
2693.49	25.5
2694.38	21
2695.26	25.5
2696.14	22.5
2697.02	25.5
2697.9	23
2698.78	21
2699.66	24.5
2700.54	24.5
2701.42	26
2702.3	24
2703.18	23
2704.06	23.5
2704.94	24.5
2705.82	19.5
2706.7	22.5
2707.58	24
2708.46	25
2709.34	28
2710.21	25
2711.09	27
2711.97	22
2712.85	24
2713.73	20
2714.61	21
2715.49	24
2716.36	26
2717.24	24
2718.12	25
2719	26
2719.87	28.5
2720.75	21
2721.63	24
2722.51	21.5
2723.38	23
2724.26	21
2725.14	22
2726.01	26.5
2726.89	28.5
2727.77	24.5
2728.64	25.5
2729.52	21.5
2730.39	24
2731.27	23.5
2732.15	26.5
2733.02	26.5
2733.9	22.5
2734.77	23.5
2735.65	26
2736.52	26
2737.4	24.5
2738.27	22.5
2739.15	26
2740.02	26.5
2740.89	24.5
2741.77	27
2742.64	21
2743.52	24
2744.39	25
2745.27	24
2746.14	22
2747.01	26
2747.89	21
2748.76	21
2749.63	23.5
2750.51	27
2751.38	27
2752.25	24.5
2753.12	22
2754	25.5
2754.87	25.5
2755.74	23
2756.61	24.5
2757.48	23.5
2758.36	23.5
2759.23	21.5
2760.1	21
2760.97	25
2761.84	25
2762.71	24
2763.59	26.5
2764.46	24
2765.33	28
2766.2	24
2767.07	22
2767.94	25
2768.81	23
2769.68	26
2770.55	24
2771.42	23
2772.29	25
2773.16	25
2774.03	21
2774.9	25.5
2775.77	26.5
2776.64	20
2777.51	20.5
2778.37	25.5
2779.24	22.5
2780.11	25.5
2780.98	26.5
2781.85	21
2782.72	24.5
2783.59	25.5
2784.45	25.5
2785.32	23
2786.19	22.5
2787.06	22
2787.92	21.5
2788.79	20.5
2789.66	24
2790.53	24.5
2791.39	25.5
2792.26	28
2793.13	21.5
2793.99	23.5
2794.86	27
2795.73	23.5
2796.59	21
2797.46	24
2798.33	28.5
2799.19	23
2800.06	20.5
2800.92	23.5
2801.79	23
2802.65	22.5
2803.52	23
2804.39	22
2805.25	23
2806.11	26.5
2806.98	23.5
2807.84	24.5
2808.71	25.5
2809.57	26
2810.44	23.5
2811.3	25
2812.17	23.5
2813.03	26
2813.89	26
2814.76	25
2815.62	25
2816.49	26.5
2817.35	27.5
2818.21	24
2819.07	27
2819.94	25
2820.8	24.5
2821.66	25.5
2822.53	21.5
2823.39	23
2824.25	20.5
2825.11	20.5
2825.97	27
2826.84	21.5
2827.7	26
2828.56	21.5
2829.42	24.5
2830.28	25
2831.14	25.5
2832.01	24
2832.87	29.5
2833.73	29.5
2834.59	24
2835.45	22.5
2836.31	22.5
2837.17	23.5
2838.03	23.5
2838.89	25.5
2839.75	25.5
2840.61	25
2841.47	20
2842.33	25
2843.19	23
2844.05	21
2844.91	24
2845.77	22
2846.63	22.5
2847.48	22.5
2848.34	23
2849.2	23.5
2850.06	22
2850.92	17
2851.78	24
2852.64	25
2853.49	23.5
2854.35	24
2855.21	28
2856.07	24.5
2856.93	26
2857.78	24.5
2858.64	24.5
2859.5	22.5
2860.35	23.5
2861.21	26
2862.07	24.5
2862.93	21.5
2863.78	25.5
2864.64	23
2865.49	21.5
2866.35	21
2867.21	23
2868.06	23.5
2868.92	24.5
2869.77	26.5
2870.63	26
2871.49	23
2872.34	23.5
2873.2	27
2874.05	27
2874.91	29.5
2875.76	25
2876.62	22
2877.47	26
2878.32	24.5
2879.18	24
2880.03	26
2880.89	24
2881.74	25
2882.6	26
2883.45	19
2884.3	28
2885.16	26.5
2886.01	23
2886.86	26.5
2887.72	26
2888.57	24.5
2889.42	26
2890.27	25
2891.13	30.5
2891.98	23.5
2892.83	32
2893.68	26.5
2894.54	29
2895.39	25
2896.24	32.5
2897.09	27.5
2897.94	33
2898.8	29
2899.65	33
2900.5	30.5
2901.35	30
2902.2	35.5
2903.05	34
2903.9	34
2904.75	28.5
2905.6	30.5
2906.45	29.5
2907.3	30.5
2908.15	31
2909.01	28
2909.85	27
2910.7	34
2911.55	28.5
2912.4	31
2913.25	32.5
2914.1	30
2914.95	26.5
2915.8	29.5
2916.65	29
2917.5	23
2918.35	26.5
2919.2	24.5
2920.04	26
2920.89	29.5
2921.74	25
2922.59	28
2923.44	27
2924.29	23
2925.13	24.5
2925.98	22.5
2926.83	26
2927.68	24
2928.52	26
2929.37	25
2930.22	26
2931.06	24
2931.91	27
2932.76	25.5
2933.6	29.5
2934.45	27
2935.3	21
2936.14	26
2936.99	25.5
2937.83	23
2938.68	27
2939.53	25
2940.37	22
2941.22	20
2942.06	25.5
2942.91	25.5
2943.75	24.5
2944.6	26
2945.44	23.5
2946.29	21
2947.13	25
2947.98	27.5
2948.82	24
2949.66	22
2950.51	20.5
2951.35	27.5
2952.2	21
2953.04	26.5
2953.88	26.5
2954.73	26.5
2955.57	22.5
2956.41	24
2957.26	23
2958.1	27.5
2958.94	25
2959.79	27.5
2960.63	27.5
2961.47	29.5
2962.31	28.5
2963.15	28.5
2964	24.5
2964.84	24
2965.68	27
2966.52	24.5
2967.37	24.5
2968.21	26
2969.05	25
2969.89	27
2970.73	26.5
2971.57	23.0097
2972.41	24.9209
2973.25	23.9987
2974.09	25.1045
2974.93	22.1093
2975.77	26.3429
2976.62	27.7992
2977.46	19.5324
2978.3	24.5934
2979.14	23.2067
2979.98	24.0226
2980.81	21.3679
2981.65	23.9162
2982.49	22.8
2983.33	23.4844
2984.17	23.9012
2985.01	20.2683
2985.85	24.6144
2986.69	24.7873
2987.53	24.4269
2988.37	22.7815
2989.21	24.3738
2990.04	23.7374
2990.88	23.35
2991.72	20.6802
2992.56	21.5323
2993.4	24.0382
2994.23	23.2952
2995.07	23.6154
2995.91	22.6493
2996.75	23.816
2997.58	21.584
2998.42	22.0395
2999.26	23.9232
3000.1	24.4287
3000.93	23.4957
3001.77	22.4503
3002.61	21.5461
3003.44	25.8117
3004.28	22.6749
3005.11	23.8139
3005.95	24.3883
3006.79	22.5975
3007.62	22.2983
3008.46	23.0532
3009.29	21.8903
3010.13	25.6983
3010.97	24.4756
3011.8	24.1523
3012.64	23.084
3013.47	23.5708
3014.31	23.0211
3015.14	22.1766
3015.98	22.9322
3016.81	21.9081
3017.64	21.1282
3018.48	19.7981
3019.31	21.6875
3020.15	23.8189
3020.98	22.3347
3021.82	23.0498
3022.65	20.7494
3023.48	22.0634
3024.32	23.6127
3025.15	24.2561
3025.98	24.9968
3026.82	23.1084
3027.65	23.3537
3028.48	23.6823
3029.31	21.0527
3030.15	22.4396
3030.98	22.1685
3031.81	20.9812
3032.64	20.0124
3033.48	22.612
3034.31	22.8395
3035.14	23.7542
3035.97	21.561
3036.8	21.1233
3037.64	21.2343
3038.47	21.244
3039.3	23.3315
3040.13	21.5355
3040.96	20.7156
3041.79	21.0327
3042.62	22.5197
3043.45	23.642
3044.28	22.6322
3045.12	22.4338
3045.95	21.877
3046.78	22.9875
3047.61	23.5329
3048.44	23.2961
3049.27	24.8049
3050.1	24.2064
3050.92	21.4039
3051.75	21.7796
3052.58	23.3965
3053.41	23.2396
3054.24	21.3819
3055.07	23.9615
3055.9	23.8106
3056.73	23.4533
3057.26	26
3058.09	26
3058.93	24
3059.76	21.5
3060.59	21.5
3061.43	21
3062.26	27
3063.09	24
3063.92	20
3064.76	24.5
3065.59	23.5
3066.42	19.5
3067.25	25
3068.08	24
3068.92	21
3069.75	23.5
3070.58	21
3071.41	25
3072.24	25.5
3073.07	23
3073.9	22
3074.73	22.5
3075.57	19
3076.4	25
3077.23	24.5
3078.06	24
3078.89	20.5
3079.72	22
3080.55	21.5
3081.38	24.5
3082.21	24.5
3083.04	23
3083.87	24
3084.7	24.5
3085.53	18.5
3086.36	24
3087.19	22
3088.01	23
3088.84	23
3089.67	22
3090.5	25.5
3091.33	26.5
3092.16	23.5
3092.99	22.5
3093.81	24
3094.64	25
3095.47	22
3096.3	21.5
3097.13	26
3097.95	24
3098.78	24
3099.61	22
3100.44	23
3101.26	24
3102.09	26
3102.92	21
3103.74	21.5
3104.57	24.5
3105.4	23.5
3106.22	24
3107.05	22.5
3107.88	17
3108.7	22
3109.53	21
3110.35	18.5
3111.18	24
3112.01	21
3112.83	20
3113.66	22.5
3114.48	24
3115.31	21
3116.13	25
3116.96	26.5
3117.78	21
3118.61	24.5
3119.43	21
3120.26	22.5
3121.08	22
3121.9	24
3122.73	22
3123.55	22
3124.38	23
3125.2	25.5
3126.02	27.5
3126.85	22
3127.67	25
3128.49	24
3129.32	22.5
3130.14	20
3130.96	24.5
3131.79	19
3132.61	23
3133.43	22
3134.25	23.5
3135.08	23
3135.9	24.5
3136.72	20.5
3137.54	26
3138.37	24
3139.19	24.5
3140.01	25.5
3140.83	23.5
3141.65	26
3142.47	23
3143.29	22
3144.12	25.5
3144.94	23.5
3145.76	25.5
3146.58	22
3147.4	21.5
3148.22	25.5
3149.04	22
3149.86	23.5
3150.68	24
3151.5	24.5
3152.32	25
3153.14	24.5
3153.96	25
3154.78	26
3155.6	21.5
3156.42	22.5
3157.24	23
3158.06	25.5
3158.88	22.5
3159.7	24
3160.51	25.5
3161.33	26
3162.15	23
3162.97	24
3163.79	26
3164.61	21.5
3165.42	21.5
3166.24	26
3167.06	24
3167.88	22.5
3168.7	23
3169.51	24
3170.33	21
3171.15	24.5
3171.97	23
3172.78	20
3173.6	26
3174.42	23
3175.23	20
3176.05	23.5
3176.87	21.5
3177.68	22.5
3178.5	25
3179.32	22.5
3180.13	23.5
3180.95	23
3181.76	24.5
3182.58	22
3183.4	25
3184.21	26
3185.03	22.5
3185.84	25
3186.66	20.5
3187.47	20.5
3188.29	25.5
3189.1	27.5
3189.92	24.5
3190.73	24
3191.55	26
3192.36	25.5
3193.17	20
3193.99	22
3194.8	25
3195.62	22
3196.43	26
3197.24	25
3198.06	21
3198.87	25.5
3199.68	27
3200.5	24
3201.31	21.5
3202.12	25.5
3202.94	23.5
3203.75	27.5
3204.56	25.5
3205.38	21
3206.19	24
3207	26.5
3207.81	26
3208.62	23
3209.44	26.5
3210.25	23.5
3211.06	22.5
3211.87	23.5
3212.68	25
3213.49	26
3214.31	26
3215.12	23
3215.93	27.5
3216.74	21.5
3217.55	23
3218.36	25
3219.17	24.5
3219.98	26
3220.79	25
3221.6	24
3222.41	25
3223.22	24.5
3224.03	22
3224.84	18
3225.65	23
3226.46	21.5
3227.27	24.5
3228.08	22.5
3228.89	25.5
3229.7	28.5
3230.51	27
3231.32	24
3232.13	21.5
3232.94	26.5
3233.74	26
3234.55	25
3235.36	21.5
3236.17	24
3236.98	22
3237.78	19
3238.59	27
3239.4	24.5
3240.21	22.5
3241.02	25.5
3241.82	24.5
3242.63	25.5
3243.44	23.5
3244.25	25
3245.05	22
3245.86	25
3246.67	25.5
3247.47	25
3248.28	24
3249.09	24.5
3249.89	21
3250.7	23.5
3251.5	23
3252.31	23
3253.12	25
3253.92	23.5
3254.73	27.5
3255.53	25
3256.34	25.5
3257.14	26
3257.95	27
3258.75	26.5
3259.56	23.5
3260.36	19.5
3261.17	22.5
3261.97	22
3262.78	20.5
3263.58	22.5
3264.39	19.5
3265.19	24
3265.99	22
3266.8	26
3267.6	23
3268.41	24
3269.21	22
3270.01	26
3270.82	24
3271.62	25.5
3272.42	20.5
3273.23	27.5
3274.03	23.5
3274.83	26
3275.64	22
3276.44	20
3277.24	23.5
3278.04	25
3278.85	24
3279.65	23.5
3280.45	23.5
3281.25	27
3282.05	22.5
3282.85	22.5
3283.66	21.5
3284.46	22
3285.26	25.5
3286.06	20
3286.86	22.5
3287.66	23
3288.46	20.5
3289.27	22.5
3290.07	24.5
3290.87	26.5
3291.67	23.5
3292.47	24.5
3293.27	25
3294.07	24
3294.87	24
3295.67	24.5
3296.47	26
3297.27	25.5
3298.07	25
3298.87	20.5
3299.67	23
3300.47	26.5
3301.26	24
3302.06	26.5
3302.86	23
3303.66	24.5
3304.46	25.5
3305.26	25.5
3306.06	24.5
3306.86	22
3307.65	26.5
3308.45	25.5
3309.25	24.5
3310.05	24
3310.85	25
3311.64	26
3312.44	23
3313.24	21
3314.04	25
3314.83	24
3315.63	25
3316.43	21
3317.22	26
3318.02	25.5
3318.82	26
3319.62	26
3320.41	28.5
3321.21	24.5
3322	19
3322.8	23.5
3323.6	27
3324.39	24.5
3325.19	23
3325.98	25
3326.78	24.5
3327.58	23
3328.37	25
3329.17	23.5
3329.96	23
3330.76	21
3331.55	26.5
3332.35	25
3333.14	25
3333.94	25
3334.73	26.5
3335.52	23.5
3336.32	23.5
3337.11	26.5
3337.91	27
3338.7	24
3339.5	29.5
3340.29	21
3341.08	23.5
3341.88	22
3342.67	24
3343.46	25
3344.26	23
3345.05	21
3345.84	26.5
3346.63	23
3347.43	23
3348.22	24
3349.01	25
3349.8	20
3350.6	24.5
3351.39	25
3352.18	23.5
3352.97	24
3353.77	20.5
3354.56	21
3355.35	25
3356.14	26
3356.93	29
3357.72	25
3358.51	24
3359.31	24.5
3360.1	25.5
3360.89	23.5
3361.68	28
3362.47	21.5
3363.26	24.5
3364.05	27
3364.84	21.5
3365.63	25
3366.42	27
3367.21	24.5
3368	26.5
3368.79	25.5
3369.58	24.5
3370.37	25.5
3371.16	24
3371.95	23.5
3372.74	22
3373.53	25.5
3374.32	25
3375.1	20.5
3375.89	22.5
3376.68	20
3377.47	24
3378.26	30
3379.05	26.5
3379.84	24
3380.62	26
3381.41	24
3382.2	24
3382.99	25
3383.78	26
3384.56	24.5
3385.35	21.5
3386.14	24
3386.93	22.5
3387.71	25.5
3388.5	26
3389.29	26.5
3390.07	21.5
3390.86	25
3391.65	25.5
3392.43	22.5
3393.22	26
3394.01	23.5
3394.79	26
3395.58	25.5
3396.36	25
3397.15	24.5
3397.94	24
3398.72	22
3399.51	26.5
3400.29	25
3401.08	21
3401.86	25
3402.65	22
3403.43	25
3404.22	26.5
3405	21.5
3405.79	23.5
3406.57	25
3407.36	26
3408.14	23.5
3408.93	22
3409.71	22
3410.49	23.5
3411.28	25
3412.06	21.5
3412.84	24.5
3413.63	22
3414.41	23.5
3415.2	23
3415.98	26
3416.76	23.5
3417.54	24
3418.33	27.5
3419.11	29
3419.89	26
3420.68	22
3421.46	27.5
3422.24	23.5
3423.02	21.5
3423.81	23
3424.59	26
3425.37	25.5
3426.15	23
3426.93	23.5
3427.71	22
3428.5	23.5
3429.28	24
3430.06	20
3430.84	23.5
3431.62	21
3432.4	21
3433.18	21
3433.96	27
3434.75	25
3435.53	23
3436.31	24.5
3437.09	24.5
3437.87	22
3438.65	22.5
3439.43	23.5
3440.21	22
3440.99	21
3441.77	22.5
3442.55	22.5
3443.33	24.5
3444.1	21
3444.88	25.5
3445.66	24.5
3446.44	26
3447.22	25
3448	30
3448.78	24
3449.56	22.5
3450.34	25.5
3451.11	17.5
3451.89	25.5
3452.67	24
3453.45	26.5
3454.23	24
3455	21.5
3455.78	23.5
3456.56	23
3457.34	23
3458.11	21.5
3458.89	21
3459.67	22.5
3460.45	24
3461.22	25
3462	25
3462.78	23.5
3463.55	26
3464.33	25.5
3465.11	27
3465.88	21.5
3466.66	24
3467.44	21
3468.21	23
3468.99	19
3469.76	22
3470.54	22
3471.32	26
3472.09	19.5
3472.87	21
3473.64	26
3474.42	21
3475.19	23
3475.97	25
3476.74	26.5
3477.52	26.5
3478.29	25
3479.07	28.5
3479.84	23
3480.61	21.5
3481.39	19
3482.16	23.5
3482.94	26
3483.71	25.5
3484.48	27
3485.26	23
3486.03	27.5
3486.81	23.5
3487.58	24.5
3488.35	26.5
3489.13	23
3489.9	23
3490.67	26.5
3491.44	24
3492.22	25.5
3492.99	26.5
3493.76	24
3494.54	19.5
3495.31	24.5
3496.08	24.5
3496.85	23
3497.62	22
3498.4	26
3499.17	22
3499.94	24.5
