#Acq. time (s)=	5
#Accumulations=	5
#Range (cm-¹)=	100...3500
#Windows=	4
#Autofocus=	Off
#AutoExposure=	Off
#Spike filter=	Multiple accum.
#Delay time (s)=	0
#Binning=	1
#Readout mode=	Signal
#DeNoise=	Off
#ICS correction=	Off
#Dark correction=	Off
#Inst. Process=	Off
#Instrument=	LabRAM HR Evol
#Detector=	Syncerity OE
#Objective=	x100_VIS
#Grating=	600 (500nm)
#ND Filter=	25%
#Laser=	633nm_Edge
#Hole=	100.021
#Range=	Visible
#Project=	verificaciones
#Sample=	at3
#Site=	plain
#Title=	bolusat3plain
#Remark=	
#Date=	14.01.2026 12:41
#Acquired=	14.01.2026 12:41:00
100.618	24.5
101.901	34.5
103.185	27
104.468	30.5
105.751	27.5
107.033	30
108.316	26.5
109.598	30
110.88	32
112.162	35
113.445	29
114.727	32
116.008	32.5
117.289	30.5
118.57	30
119.85	32.5
121.13	27.5
122.411	33
123.691	31.5
124.97	32
126.25	34.5
127.529	30
128.808	34
130.086	35.5
131.364	36
132.643	34.5
133.921	33
135.199	35
136.477	39.5
137.755	40.5
139.032	35.5
140.309	37.5
141.586	36.5
142.863	37
144.14	37
145.415	37
146.691	41.5
147.967	42
149.243	38.5
150.518	41
151.794	43
153.067	42.5
154.342	43
155.617	41.5
156.892	40.5
158.166	39.5
159.439	38
160.712	47
161.986	39.5
163.26	39
164.531	44
165.805	40
167.077	41.5
168.35	40.5
169.621	41.5
170.893	41
172.165	42
173.437	41
174.707	37.5
175.979	41
177.25	40.5
178.519	45
179.79	39.5
181.061	41
182.33	42
183.6	39
184.87	36
186.138	45
187.408	39
188.676	43
189.945	40
191.214	40.5
192.481	40
193.75	42
195.016	39
196.285	41
197.552	36.5
198.819	38
200.086	35.5
201.352	36.5
202.619	42
203.884	39
205.151	41.5
206.416	35.5
207.682	37
208.947	32.5
210.213	39.5
211.477	39
212.742	33.5
214.006	37
215.271	35.5
216.535	33
217.799	34.5
219.062	35.5
220.326	32
221.589	37
222.851	29.5
224.115	32.5
225.377	30.5
226.64	34.5
227.901	29.5
229.163	30
230.425	33.5
231.686	33.5
232.947	33
234.209	32.5
235.469	29.5
236.729	32
237.991	29
239.25	30.5
240.51	32.5
241.771	30.5
243.03	33.5
244.288	31
245.549	28
246.807	32.5
248.065	27.5
249.323	28.5
250.583	32.5
251.84	30.5
253.098	32
254.355	29.5
255.613	31.5
256.87	33
258.127	30.5
259.383	27
260.639	36
261.897	29.5
263.153	34.5
264.408	31
265.664	31
266.919	28
268.174	30.5
269.43	26
270.685	27.5
271.939	24.5
273.193	26
274.447	31.5
275.701	30.5
276.955	30.5
278.208	26
279.461	30.5
280.714	26.5
281.968	29
283.221	28
284.473	27
285.726	30
286.977	26
288.229	30
289.481	33.5
290.732	26.5
291.983	24
293.234	26
294.485	29.5
295.736	27
296.986	30
298.236	30.5
299.486	28.5
300.736	31.5
301.985	29
303.233	25.5
304.482	28
305.731	28
306.98	28
308.228	26.5
309.477	26.5
310.725	26.5
311.973	29.5
313.22	30
314.468	31
315.714	29
316.961	28.5
318.208	30.5
319.455	23.5
320.701	26.5
321.947	26.5
323.192	27
324.438	30.5
325.684	31.5
326.929	29.5
328.175	27
329.418	29
330.663	30
331.908	25.5
333.152	29
334.395	26
335.639	27.5
336.883	31
338.127	25
339.369	27
340.612	28
341.855	29.5
343.097	27
344.34	27
345.582	28
346.823	24
348.065	28.5
349.307	26.5
350.547	30.5
351.789	26
353.03	26.5
354.27	30.5
355.511	30
356.75	27
357.991	27
359.231	29
360.47	29.5
361.709	29
362.948	27.5
364.187	30
365.427	27
366.664	29.5
367.903	29
369.14	23.5
370.379	28
371.616	30
372.854	31
374.091	26
375.328	29
376.564	29
377.802	27
379.037	30
380.274	29.5
381.51	30
382.745	30.5
383.981	29.5
385.216	28
386.452	32
387.686	31
388.922	27.5
390.155	30
391.389	30
392.624	25
393.857	27
395.091	30
396.325	27.5
397.558	27.5
398.79	33.5
400.024	27.5
401.256	31.5
402.488	30
403.721	29
404.953	25
406.184	28.5
407.417	27
408.648	27.5
409.878	27
411.109	31.5
412.341	22
413.571	27
414.801	28.5
416.031	28
417.262	23
418.491	26.5
419.72	25.5
420.949	30.5
422.178	30
423.408	25.5
424.637	28
425.865	28
427.093	30
428.32	26.5
429.548	27
430.777	27
432.004	29.5
433.231	27
434.458	33.5
435.685	29.5
436.911	28.5
438.137	27.5
439.363	26
440.589	30.5
441.815	25.5
443.042	24
444.267	26.5
445.492	28
446.717	29.5
447.942	29.5
449.166	30.5
450.39	27.5
451.615	31
452.838	29
454.062	32.5
455.286	28.5
456.509	32
457.732	28
458.955	28
460.178	32.5
461.399	29
462.621	28.5
463.843	30
465.065	31
466.287	30
467.508	36
468.73	28.5
469.951	33.5
471.172	33.5
472.393	34
473.612	36
474.832	35
476.052	38.5
477.272	43
478.492	42
479.712	47.5
480.93	50.5
482.149	49
483.368	57
484.587	60
485.806	60.5
487.023	59
488.241	62
489.459	65
490.677	60
491.893	59.5
493.111	61.5
494.328	53.5
495.543	53
496.76	51.5
497.977	45.5
499.194	49
500.409	44.5
501.625	47.5
502.841	41.5
504.055	35.5
505.27	38
506.486	39.5
507.699	36
508.914	37.5
510.128	34.5
511.342	36
512.557	37.5
513.77	33.5
514.984	33
516.196	35
517.41	36.5
518.623	31
519.835	30.5
521.048	32
522.259	30.5
523.472	29
524.683	31
525.895	32
527.106	30.5
528.318	27
529.528	28.5
530.74	30
531.949	33
533.161	28.5
534.37	28
535.581	30
536.79	31.5
537.999	29.5
539.209	31
540.418	27.5
541.627	25
542.835	29
544.043	28
545.253	27.5
546.46	29.5
547.669	29.5
548.876	28
550.083	27.5
551.292	27.5
552.498	30
553.705	29
554.912	28.5
556.118	26.5
557.324	29.5
558.53	28
559.737	24
560.942	26.5
562.147	30.5
563.353	30.5
564.558	28
565.763	28.5
566.967	29
568.173	26
569.377	24
570.58	31
571.784	28.5
572.987	30
574.192	29
575.395	31
576.598	28
577.8	29
579.003	27
580.205	29
581.407	30
582.61	27
583.812	27
585.014	31.5
586.215	25.5
587.416	30.5
588.617	30
589.818	31.5
591.018	27.5
592.219	25.5
593.419	29
594.619	29
595.819	30.5
597.02	28.5
598.219	27
599.418	30.5
600.617	28.5
601.816	27.5
603.015	28.5
604.213	24
605.41	22
606.608	28
607.806	27
609.004	28.5
610.201	31
611.399	26.5
612.596	28
613.793	29
614.989	26.5
616.186	28.5
617.382	28
618.579	26.5
619.775	28.5
620.969	29
622.165	33
623.36	26
624.555	31
625.75	30
626.945	31
628.139	28.5
629.333	30.5
630.527	26.5
631.721	27
632.915	28
634.108	25
635.301	26.5
636.495	29.5
637.688	26.5
638.88	24
640.072	25
641.265	30.5
642.456	31.5
643.648	32.5
644.84	26.5
646.032	29.5
647.222	26.5
648.414	29.5
649.605	24.5
650.795	28.5
651.986	32
653.177	28
654.366	29
655.556	29
656.745	31.5
657.935	26.5
659.125	28
660.313	24.5
661.503	32.5
662.69	29.5
663.879	32.5
665.067	27
666.256	34
667.444	33.5
668.631	31
669.819	30
671.006	32.5
672.194	26.5
673.38	28
674.567	30
675.753	30
676.94	31.5
678.125	35
679.311	32
680.497	33
681.682	33.5
682.868	32
684.053	37.5
685.238	32.5
686.422	34
687.606	34.5
688.792	29
689.975	39.5
691.159	33.5
692.343	37
693.526	34.5
694.71	34
695.893	32
697.076	37.5
698.259	36.5
699.441	39
700.623	34.5
701.805	40.5
702.988	42.5
704.169	44
705.35	47.5
706.533	52
707.714	50
708.894	55.5
710.075	51
711.255	45.5
712.436	41
713.616	44
714.796	37.5
715.975	39.5
717.155	39
718.335	31
719.514	31
720.693	32
721.872	26.5
723.05	33
724.228	31
725.406	27
726.585	29.5
727.763	27.5
728.941	26
730.118	29
731.295	29
732.472	28.5
733.649	29
734.825	28
736.002	26
737.178	28
738.354	28
739.53	30
740.705	28.5
741.881	27.5
743.056	28
744.231	26
745.406	29
746.581	24.5
747.755	30.5
748.93	28.5
750.104	27
751.278	30
752.452	25
753.625	25.5
754.799	26.5
755.972	25
757.144	25
758.317	31
759.489	26
760.662	24.5
761.834	30.5
763.006	28
764.178	29.5
765.349	26.5
766.521	29.5
767.692	29.5
768.863	27
770.034	28
771.204	30
772.374	29.5
773.545	28
774.715	31
775.885	30
777.054	29
778.224	28
779.393	28
780.562	27
781.731	29
782.9	27.5
784.069	29
785.236	30
786.405	31
787.573	32.5
788.74	32
789.908	33
791.074	31.5
792.242	32
793.409	33
794.575	28
795.742	31
796.909	35
798.074	29
799.241	29
800.406	31.5
801.572	29
802.737	30
803.902	28
805.067	29
806.232	28.5
807.396	30
808.561	27
809.725	29
810.889	25
812.052	25
813.217	23
814.38	32
815.544	26.5
816.706	28
817.87	27.5
819.032	27.5
820.195	27.5
821.357	30
822.518	27.5
823.681	27
824.842	27
826.005	28.5
827.165	29
828.326	33
829.488	27.5
830.648	25
831.808	24
832.97	29.5
834.129	27
835.289	25
836.45	25.5
837.609	26.5
838.768	23
839.927	28
841.087	25
842.245	28
843.404	28.5
844.562	30
845.721	28
846.879	25
848.036	27.5
849.194	30
850.351	30
851.509	30
852.666	29
853.823	30.5
854.979	27.5
856.136	28
857.292	27.5
858.448	30.5
859.605	25
860.761	30
861.916	27.5
863.071	27
864.226	32
865.381	29.5
866.536	29
867.691	27.5
868.845	27.5
869.999	29
871.153	28.5
872.307	28
873.461	28.5
874.614	29
875.767	28.5
876.92	26
878.073	29
879.226	27.5
880.379	26.5
881.531	29
882.683	27.5
883.835	23
884.987	27.5
886.139	30
887.291	23.5
888.442	27
889.593	26
890.743	29
891.893	28
893.044	24
894.195	27
895.345	25.5
896.495	26
897.643	26.5
898.793	27.5
899.943	27
901.092	27
902.241	26
903.389	26
904.538	25
905.687	27
906.835	27.5
907.982	26
909.13	26
910.278	23.5
911.426	22.5
912.572	26.5
913.72	23.5
914.867	30
916.013	26.5
917.16	27
918.306	25
919.451	26
920.598	24.5
921.744	25.5
922.889	27
924.035	29
925.18	32
926.324	25.5
927.47	24
928.614	29.5
929.758	26.5
930.902	24
932.047	28.5
933.191	25
934.334	25
935.478	29.5
936.621	28
937.764	22
938.906	25
940.05	28
941.192	23
942.335	22.5
943.476	27
944.619	23
945.76	24
946.901	26
948.043	27
949.184	28
950.326	22
951.466	21
952.606	26
953.747	25.5
954.887	23
956.028	25.5
957.167	28
958.307	24.5
959.447	25
960.586	25
961.725	27
962.865	27.5
964.003	28.5
965.141	25.5
966.279	27.5
967.418	24
968.556	25
969.693	23
970.831	24.25
971.969	24.5
973.106	23
974.243	25.5
975.38	28
976.517	26.5
977.654	23.5
978.79	25.5
979.926	25.5
981.061	27.5
982.197	28.5
983.334	26
984.469	25
985.604	22
986.739	25.5
987.873	22.5
989.008	28.5
990.142	26
991.277	27
992.411	21.5
993.544	27
994.679	27
995.813	26
996.946	27
998.079	23
999.212	26.5
1000.35	25.5
1001.48	25
1002.61	30
1003.74	22.5
1004.87	27.5
1006.01	30
1007.14	24.5
1008.27	30
1009.4	28
1010.53	28.5
1011.66	25
1012.79	26.5
1013.92	25.5
1015.05	25.5
1016.18	24
1017.31	28
1018.44	25.5
1019.57	24
1020.7	20.5
1021.83	24.5
1022.96	28.5
1024.09	28.5
1025.22	28.5
1026.35	25.5
1027.48	25.5
1028.6	27.5
1029.73	27
1030.86	27
1031.99	23.5
1033.12	29.5
1034.24	27
1035.37	25
1036.5	25.5
1037.62	24.5
1038.75	25
1039.88	23.5
1041	25.5
1042.13	24
1043.25	24
1044.38	26.5
1045.5	24
1046.63	30
1047.76	20.5
1048.88	24
1050	21
1051.13	25.5
1052.25	27
1053.38	25
1054.5	27
1055.63	26
1056.75	25
1057.87	25
1058.99	24
1060.12	22.5
1061.24	25.5
1062.36	27
1063.49	28
1064.61	25
1065.73	24
1066.85	28
1067.97	26.5
1069.1	24
1070.22	25
1071.34	28.5
1072.46	27.5
1073.58	24.5
1074.7	25.5
1075.82	27.5
1076.94	28
1078.06	24
1079.18	26.5
1080.3	26
1081.42	26
1082.54	26.5
1083.66	28
1084.78	28
1085.9	23
1087.02	27.5
1088.13	26
1089.25	25.5
1090.37	25.5
1091.49	21
1092.61	27.5
1093.72	29.5
1094.84	26.5
1095.96	27.5
1097.08	23.5
1098.19	25
1099.31	21
1100.42	29
1101.54	28
1102.66	25
1103.77	23
1104.89	25.5
1106	27
1107.12	27
1108.23	24.5
1109.35	23
1110.46	23
1111.58	25
1112.69	28
1113.81	24.5
1114.92	22.5
1116.04	28
1117.15	24
1118.26	28
1119.38	19.5
1120.49	24.5
1121.6	27.5
1122.72	25
1123.83	22.5
1124.94	23
1126.05	27
1127.17	30.5
1128.28	25
1129.39	25.5
1130.5	21.5
1131.61	25
1132.72	24
1133.83	25.5
1134.94	24
1136.06	23
1137.17	24
1138.27	25
1139.39	25.5
1140.5	26
1141.61	24.5
1142.72	24
1143.82	25
1144.93	22
1146.04	25
1147.15	28
1148.26	26
1149.37	26.5
1150.48	25.5
1151.58	25
1152.69	22
1153.8	22.5
1154.91	20
1156.02	24
1157.12	27.5
1158.23	26
1159.34	24.5
1160.44	24.5
1161.55	21
1162.66	24
1163.76	27.5
1164.87	24.5
1165.97	20
1167.08	26
1168.18	26
1169.29	26
1170.39	24
1171.5	26
1172.6	22.5
1173.71	26
1174.81	23.5
1175.92	24.5
1177.02	28.5
1178.13	25
1179.23	23
1180.33	27
1181.44	23.5
1182.54	24
1183.64	26.5
1184.74	27.5
1185.85	26
1186.95	22
1188.05	24
1189.15	21
1190.26	23
1191.36	25.5
1192.46	26.5
1193.56	26
1194.66	24.012
1195.76	21.4834
1196.86	22.5607
1197.96	24.5149
1199.06	24.488
1200.16	21.3599
1201.26	25.3378
1202.36	23.818
1203.46	24.7158
1204.56	25.2755
1205.66	28.5922
1206.76	24.109
1207.86	24.8821
1208.96	24.6264
1210.06	25.1494
1211.16	26.1248
1212.25	22.9806
1213.35	24.1703
1214.45	23.414
1215.55	27.4267
1216.65	25.9962
1217.74	19.6699
1218.84	26.2848
1219.94	22.4686
1221.03	25.4919
1222.13	25.9784
1223.23	22.1747
1224.32	22.0114
1225.42	25.1009
1226.52	26.275
1227.61	24.5
1228.71	26.3141
1229.8	23.8587
1230.9	24.2244
1231.99	23.9247
1233.09	24.9073
1234.18	24.5829
1235.28	24.9907
1236.37	23.4616
1237.47	21.6602
1238.56	24.1058
1239.65	24.5094
1240.75	24.9129
1241.84	22.9804
1242.93	22.597
1244.03	24.7023
1245.12	24.4199
1246.21	23.1621
1247.31	23.9639
1248.4	25.443
1249.49	25.1994
1250.58	24.8316
1251.67	25.1721
1252.77	25.0093
1253.86	28.1811
1254.95	25.729
1256.04	25.3935
1257.13	25.3252
1258.22	24.6793
1259.31	28.1407
1260.4	23.0911
1261.49	26.2791
1262.58	27.4937
1263.67	27.3216
1264.76	24.7943
1265.85	25.9551
1266.94	26.0721
1268.03	27.259
1269.12	25.4189
1270.21	24.0988
1271.3	25.6672
1272.39	25.5282
1273.47	25.6392
1274.56	25.2136
1275.65	26.4347
1276.74	25.4374
1277.83	24.3035
1278.91	25.6601
1280	23.0686
1281.09	22.7282
1282.17	23.7371
1283.26	25.4991
1284.35	25.8034
1285.43	24.7639
1286.52	25.1315
1287.61	24.4053
1288.69	22.4358
1289.78	19.9743
1290.86	22.4271
1291.95	22.8689
1293.03	21.7165
1294.12	24.6683
1295.2	23.4819
1296.29	22.3373
1297.37	23.5082
1298.46	22.8221
1299.54	22.8556
1300.63	24.9791
1301.71	26.3471
1302.79	24.6912
1303.88	25.4667
1304.96	24.3844
1306.04	23.9611
1306.5	25
1307.59	25.5
1308.68	27
1309.76	24
1310.85	21.5
1311.94	22
1313.03	25
1314.11	21
1315.2	24
1316.29	22.5
1317.37	24
1318.46	21
1319.55	24.5
1320.63	25.5
1321.72	25
1322.81	25
1323.89	21
1324.98	24.5
1326.06	26
1327.15	25.5
1328.23	23.5
1329.32	24
1330.4	21
1331.49	21
1332.57	25.5
1333.66	22.5
1334.74	26
1335.82	27
1336.91	27
1337.99	27
1339.07	27.5
1340.16	23
1341.24	23
1342.32	27
1343.4	23
1344.49	26
1345.57	24.5
1346.65	22
1347.73	21
1348.82	23
1349.9	20.5
1350.98	26
1352.06	25.5
1353.14	23
1354.22	25
1355.3	27
1356.38	19
1357.46	23
1358.54	26
1359.62	23
1360.7	23.5
1361.78	26
1362.86	26
1363.94	23
1365.02	27
1366.1	24.5
1367.18	25
1368.26	23.5
1369.34	29
1370.41	25.5
1371.49	29
1372.57	25.5
1373.65	23
1374.72	28
1375.8	26
1376.88	23.5
1377.96	26
1379.03	28.5
1380.11	26.5
1381.19	26
1382.26	26
1383.34	22.5
1384.42	22.5
1385.49	29
1386.57	25
1387.64	27.5
1388.72	25.5
1389.79	26.5
1390.87	26
1391.94	27.5
1393.02	25.5
1394.09	31.5
1395.17	27
1396.24	24.5
1397.31	23.5
1398.39	29
1399.46	29.5
1400.54	28.5
1401.61	30
1402.68	31
1403.76	31.5
1404.83	31
1405.9	31.5
1406.97	31.5
1408.05	30
1409.12	31.5
1410.19	29.5
1411.26	34
1412.33	30
1413.4	28.5
1414.48	33
1415.55	27
1416.62	29.5
1417.69	28
1418.76	26.5
1419.83	28
1420.9	24.5
1421.97	27.5
1423.04	26.5
1424.11	25.5
1425.18	31.5
1426.25	28
1427.32	27.5
1428.39	25.5
1429.46	28
1430.52	23
1431.59	25.5
1432.66	27.5
1433.73	25.5
1434.8	24
1435.87	30
1436.93	24.5
1438	26.5
1439.07	26
1440.14	24
1441.2	26.5
1442.27	27.5
1443.34	24.5
1444.4	21
1445.47	26.5
1446.54	25
1447.6	27
1448.67	29
1449.73	22
1450.8	27
1451.86	23.5
1452.93	25.5
1453.99	24
1455.06	26.5
1456.12	26.5
1457.19	29
1458.25	18
1459.32	28.5
1460.38	19
1461.45	22.5
1462.51	24.5
1463.57	22.5
1464.64	21.5
1465.7	27
1466.76	24
1467.82	25.5
1468.89	23
1469.95	28.5
1471.01	27
1472.07	27.5
1473.14	25.5
1474.2	24
1475.26	29
1476.32	27.5
1477.38	24
1478.44	25
1479.5	27.5
1480.57	27.5
1481.63	26
1482.69	27
1483.75	23
1484.81	28.5
1485.87	25
1486.93	25
1487.99	27.5
1489.05	25.5
1490.1	24.5
1491.17	25.5
1492.22	27
1493.28	21.5
1494.34	26.5
1495.4	32
1496.46	21
1497.52	26
1498.57	27.5
1499.63	27
1500.69	25
1501.75	25
1502.8	22
1503.86	28.5
1504.92	22
1505.98	27
1507.03	22
1508.09	24.5
1509.15	24.5
1510.2	25.5
1511.26	27.5
1512.31	30
1513.37	23.5
1514.42	23
1515.48	27.5
1516.53	26
1517.59	26.5
1518.64	26
1519.7	23.5
1520.75	23.5
1521.81	25.5
1522.86	26
1523.92	24
1524.97	25.5
1526.02	26
1527.08	21.5
1528.13	24
1529.18	26
1530.24	25
1531.29	27
1532.34	28
1533.39	24
1534.45	24.5
1535.5	24
1536.55	27
1537.6	26
1538.65	28.5
1539.71	26
1540.76	26
1541.81	23.5
1542.86	23.5
1543.91	26
1544.96	28
1546.01	28.5
1547.06	24
1548.11	26.5
1549.16	27
1550.21	28.5
1551.26	23.5
1552.31	24.5
1553.36	28
1554.41	24.5
1555.46	21
1556.51	24.5
1557.56	26
1558.6	24.5
1559.65	24
1560.7	24.5
1561.75	27
1562.8	24.5
1563.84	25
1564.89	25.5
1565.94	28
1566.99	28
1568.03	29
1569.08	25.5
1570.13	26
1571.17	28.5
1572.22	26.5
1573.27	23.5
1574.31	24
1575.36	24
1576.4	25.5
1577.45	25.5
1578.5	25
1579.54	26.5
1580.59	29.5
1581.63	24
1582.68	25.5
1583.72	25.5
1584.76	22
1585.81	27.5
1586.85	25.5
1587.9	26.5
1588.94	22
1589.98	24
1591.03	29
1592.07	28.5
1593.11	24.5
1594.16	22
1595.2	25.5
1596.24	28.5
1597.29	26.5
1598.33	23
1599.37	26
1600.41	22
1601.45	26.5
1602.49	22.5
1603.54	24
1604.58	24
1605.62	21
1606.66	27.5
1607.7	22
1608.74	28
1609.78	25
1610.82	24
1611.86	23
1612.9	22
1613.94	26.5
1614.98	24
1616.02	22
1617.06	23
1618.1	28
1619.14	28
1620.18	26.5
1621.22	24
1622.25	26
1623.29	23
1624.33	24
1625.37	27.5
1626.41	23
1627.45	29.5
1628.48	26
1629.52	24
1630.56	27.5
1631.59	24
1632.63	26.5
1633.67	26.5
1634.7	25.5
1635.74	27.5
1636.78	26
1637.81	25
1638.85	27.5
1639.88	24.5
1640.92	27.5
1641.96	26
1642.99	25.5
1644.03	26.5
1645.06	27.5
1646.1	25
1647.13	24
1648.17	25
1649.2	26
1650.23	24
1651.27	24
1652.3	27
1653.33	20
1654.37	23.5
1655.4	25
1656.44	24
1657.47	26
1658.5	25
1659.53	29.5
1660.57	22.5
1661.6	28
1662.63	28.5
1663.66	25
1664.69	23
1665.73	22
1666.76	23.5
1667.79	23.5
1668.82	23
1669.85	26.5
1670.88	26
1671.91	27
1672.94	24.5
1673.97	22
1675.01	24
1676.03	19
1677.07	24
1678.1	28
1679.12	25.5
1680.15	25
1681.18	27
1682.21	26
1683.24	25.5
1684.27	27
1685.3	22.5
1686.33	26.5
1687.36	24.5
1688.38	28
1689.41	25.5
1690.44	27
1691.47	24.5
1692.5	26.5
1693.52	25.5
1694.55	24.5
1695.58	20.5
1696.6	25
1697.63	25.5
1698.66	26.5
1699.68	26.5
1700.71	26.5
1701.74	25.5
1702.76	25.5
1703.79	22.5
1704.81	25.5
1705.84	24.5
1706.86	25
1707.89	26
1708.91	24.5
1709.94	24.5
1710.96	23
1711.99	27
1713.01	24
1714.04	26
1715.06	28.5
1716.08	27
1717.11	23
1718.13	24
1719.16	26.5
1720.18	25
1721.2	25
1722.22	23.5
1723.25	25
1724.27	25
1725.29	28.5
1726.31	25
1727.34	20
1728.36	25.5
1729.38	24.5
1730.4	27
1731.42	26
1732.44	24.5
1733.47	25
1734.49	22.5
1735.51	26
1736.53	23.5
1737.55	21.5
1738.57	23.5
1739.59	24.5
1740.61	25
1741.63	26
1742.65	28
1743.67	26.5
1744.69	26.5
1745.71	26.5
1746.73	27.5
1747.75	25.5
1748.76	27
1749.78	23
1750.8	24.5
1751.82	28
1752.84	24
1753.86	24.5
1754.87	28
1755.89	27
1756.91	28
1757.93	30
1758.94	26
1759.96	26.5
1760.98	25
1761.99	24.5
1763.01	23.5
1764.03	26
1765.04	22
1766.06	23.5
1767.08	27.5
1768.09	25
1769.11	24
1770.12	29.5
1771.14	25.5
1772.15	23
1773.17	23
1774.18	24
1775.2	26
1776.21	27
1777.23	26
1778.24	24
1779.25	22.5
1780.27	25.5
1781.28	25.5
1782.3	28
1783.31	25
1784.32	24.5
1785.34	26
1786.35	26.5
1787.36	25.5
1788.37	25
1789.39	23.5
1790.4	26.5
1791.41	26.5
1792.42	24
1793.43	25.5
1794.45	22
1795.46	25.5
1796.47	22
1797.48	25
1798.49	26
1799.5	22
1800.51	23
1801.52	24
1802.53	23.5
1803.54	24
1804.55	21.5
1805.56	25
1806.57	26
1807.58	27
1808.59	24
1809.6	24
1810.61	20
1811.62	28
1812.63	27
1813.64	27
1814.65	25.5
1815.66	24.5
1816.66	26
1817.67	26
1818.68	23
1819.69	26.5
1820.69	26.5
1821.7	25
1822.71	27.5
1823.72	23
1824.72	24
1825.73	26
1826.74	22
1827.74	25
1828.75	26.5
1829.76	24
1830.76	23.5
1831.77	24.5
1832.77	25
1833.78	23.5
1834.79	26
1835.79	24
1836.8	20
1837.8	26.5
1838.81	20
1839.81	29.5
1840.81	24.5
1841.82	23
1842.82	27.5
1843.83	26.5
1844.83	24
1845.83	25.5
1846.84	23.5
1847.84	27
1848.84	24
1849.85	26.5
1850.85	25.5
1851.85	22
1852.86	24.5
1853.86	24
1854.86	28
1855.86	29
1856.86	25.5
1857.87	20.5
1858.87	23.5
1859.87	27.5
1860.87	27
1861.87	26.5
1862.87	25
1863.88	23.5
1864.88	28
1865.88	26
1866.88	27
1867.88	25
1868.88	27
1869.88	26
1870.88	28.5
1871.88	25
1872.88	27
1873.88	27
1874.87	28
1875.87	26.5
1876.87	27
1877.87	24
1878.87	25
1879.87	29.5
1880.87	26.5
1881.86	22
1882.86	25.5
1883.86	21.5
1884.86	28
1885.86	25
1886.85	23.5
1887.85	25.5
1888.85	25
1889.84	22.5
1890.84	23
1891.84	28
1892.83	25
1893.83	25
1894.83	25
1895.82	24.5
1896.82	26
1897.81	25.5
1898.81	27
1899.81	20.5
1900.8	23
1901.8	23.5
1902.79	23.5
1903.78	28
1904.78	25.5
1905.77	24
1906.77	29
1907.76	26
1908.76	29
1909.75	26.5
1910.74	27.5
1911.74	26.5
1912.73	26.5
1913.72	26
1914.72	25.5
1915.71	26
1916.7	30
1917.7	25.5
1918.69	24
1919.68	26.5
1920.67	25
1921.66	27.5
1922.66	24
1923.65	25
1924.64	28
1925.63	21.5
1926.62	22
1927.61	23
1928.6	23.5
1929.59	26.5
1930.59	24.5
1931.58	24.5
1932.57	28.5
1933.56	25.5
1934.55	24
1935.54	22
1936.53	22.5
1937.52	24
1938.51	24.5
1939.49	22.5
1940.48	23
1941.47	27
1942.46	26
1943.45	23
1944.44	29
1945.43	25
1946.42	26
1947.4	26.5
1948.39	24.5
1949.38	22.5
1950.37	23
1951.35	24
1952.34	25.5
1953.33	19
1954.31	23
1955.3	25.5
1956.29	21
1957.27	25.5
1958.26	27.5
1959.25	23
1960.23	27
1961.22	24
1962.21	26
1963.19	24
1964.18	25.5
1965.16	27
1966.15	26
1967.13	26
1968.12	25
1969.1	24
1970.09	21.5
1971.07	28
1972.05	22.5
1973.04	22.5
1974.02	25.5
1975.01	20.5
1975.99	21
1976.97	22
1977.96	24
1978.94	25
1979.92	25.5
1980.91	26
1981.89	19
1982.87	22
1983.85	23.5
1984.84	28
1985.82	24
1986.8	25.5
1987.78	22
1988.76	22.5
1989.74	22.5
1990.73	25
1991.71	27
1992.69	26
1993.67	24
1994.65	22
1995.63	29.5
1996.61	26.5
1997.59	26
1998.57	27
1999.55	24.5
2000.53	25.5
2001.51	23
2002.49	27
2003.47	22.5
2004.45	24
2005.43	23.5
2006.41	26
2007.39	24
2008.37	22
2009.34	24
2010.32	25
2011.3	25.5
2012.28	23.5
2013.26	23.5
2014.23	26.5
2015.21	24
2016.19	22
2017.17	25
2018.14	21.5
2019.12	27.5
2020.1	23.5
2021.07	23
2022.05	24.5
2023.03	24
2024	23
2024.98	24
2025.96	22.5
2026.93	25
2027.91	25
2028.88	23
2029.86	24.5
2030.83	25.5
2031.81	25
2032.78	24.5
2033.76	24
2034.73	21
2035.71	22
2036.68	20.5
2037.66	23.5
2038.63	25
2039.6	27.5
2040.58	25
2041.55	22
2042.52	21.5
2043.5	26
2044.47	27.5
2045.44	22
2046.42	24.5
2047.39	22
2048.36	23.5
2049.33	23
2050.31	19.5
2051.28	27
2052.25	23.5
2053.22	20
2054.19	27
2055.17	27
2056.14	25
2057.11	26.5
2058.08	24
2059.05	27
2060.02	24
2060.99	22.5
2061.96	22
2062.93	23.5
2063.9	26.5
2064.87	25
2065.84	25
2066.81	21
2067.78	19
2068.75	29
2069.72	23.5
2070.69	24.5
2071.66	21
2072.63	24.5
2073.6	24
2074.56	21.5
2075.53	26
2076.5	20.5
2077.47	22
2078.44	25.5
2079.4	21.5
2080.37	22.5
2081.34	27.5
2082.31	18
2083.27	19.5
2084.24	24.5
2085.21	23.5
2086.18	26.5
2087.14	21
2088.11	22
2089.07	25.5
2090.04	23.5
2091.01	24
2091.97	23
2092.94	22
2093.9	22
2094.87	22.5
2095.83	23
2096.8	25.5
2097.76	21
2098.73	25
2099.69	26
2100.66	25
2101.62	25
2102.59	18
2103.55	22.5
2104.52	24
2105.48	20
2106.44	24
2107.41	22.5
2108.37	26
2109.33	26
2110.3	21
2111.26	24.5
2112.22	22
2113.18	25
2114.15	22.5
2115.11	22
2116.07	27.5
2117.03	23.5
2118	26
2118.96	24
2119.92	24
2120.88	27
2121.84	23
2122.8	24
2123.76	23
2124.72	23
2125.68	18.5
2126.65	23
2127.61	25.5
2128.57	21.5
2129.53	22.5
2130.49	22.5
2131.45	24
2132.41	23.5
2133.36	20
2134.32	24.5
2135.28	25.5
2136.24	24
2137.2	24
2138.16	20
2139.12	19
2140.08	20.5
2141.04	20
2141.99	26.5
2142.95	22.4862
2143.91	24.4393
2144.87	20.5866
2145.83	22.5062
2146.78	21.0636
2147.74	25.7883
2148.7	20.5576
2149.66	26.9332
2150.61	23.2915
2151.57	20.9089
2152.53	25.1432
2153.48	24.1479
2154.44	21.7964
2155.4	22.4697
2156.35	22.4223
2157.31	25.3785
2158.26	25.3896
2159.22	23.3086
2160.17	19.1937
2161.13	22.8649
2162.08	20.3729
2163.04	24.2877
2163.99	22.5191
2164.95	23.4489
2165.9	24.0988
2166.86	25.0871
2167.81	25.8371
2168.77	21.9621
2169.72	24.6965
2170.67	23.7262
2171.63	23.8715
2172.58	22.907
2173.54	22.3142
2174.49	23.6249
2175.44	21.8142
2176.39	24.6249
2177.35	23.8351
2178.3	22.8828
2179.25	22.0461
2180.2	21.7766
2181.16	21.839
2182.11	22.9356
2183.06	26.6245
2184.01	20.7295
2184.96	25.1449
2185.92	23.3512
2186.87	19.9661
2187.82	19.8692
2188.77	23.4142
2189.72	19.9612
2190.67	22.1471
2191.62	21.4373
2192.57	22.4903
2193.52	23.0786
2194.47	23.6507
2195.42	21.194
2196.37	22.0954
2197.32	21.8368
2198.27	24.8915
2199.22	21.4636
2200.17	22.2331
2201.12	22.2139
2202.07	21.6408
2203.02	23.3657
2203.97	24.291
2204.92	23.5949
2205.87	23.1008
2206.81	22.2325
2207.76	25.5626
2208.71	23.3037
2209.66	22.9373
2210.61	21.6763
2211.55	23.1481
2212.5	22.8695
2213.45	24.5051
2214.4	24.2916
2215.34	19.1934
2216.29	20.6024
2217.24	22.2405
2218.18	18.5634
2219.13	23.0995
2220.08	22.7103
2221.02	22.4029
2221.97	19.6984
2222.92	24.2395
2223.86	20.86
2224.81	20.584
2225.75	24.5129
2226.7	23.3319
2227.64	23.5617
2228.59	22.7911
2229.53	22.1852
2230.48	24.3058
2231.42	22.5754
2232.37	27.5054
2233.31	23.8996
2234.26	22.9873
2235.2	21.8215
2236.14	25.8242
2237.09	21.3323
2238.03	21.8112
2238.97	22.4486
2239.92	25.0564
2240.05	25.5
2241	25
2241.95	24.5
2242.89	21.5
2243.84	22
2244.79	24
2245.74	19
2246.68	23
2247.63	21
2248.58	22.5
2249.53	19
2250.47	21
2251.42	24.5
2252.36	23.5
2253.31	22.5
2254.26	23
2255.2	24
2256.15	21
2257.1	18
2258.04	22
2258.99	23
2259.93	23
2260.88	24
2261.82	24
2262.77	20.5
2263.71	24
2264.66	22
2265.6	22.5
2266.55	22
2267.49	20.5
2268.43	27
2269.38	23
2270.32	22
2271.26	25
2272.21	24
2273.15	22
2274.09	24
2275.04	22.5
2275.98	22
2276.92	23.5
2277.87	21.5
2278.81	24.5
2279.75	22
2280.69	21.5
2281.64	25
2282.58	25
2283.52	21.5
2284.46	24.5
2285.4	25.5
2286.34	23
2287.29	22
2288.23	26.5
2289.17	23.5
2290.11	25.5
2291.05	24.5
2291.99	23.5
2292.93	23.5
2293.87	26
2294.81	23
2295.75	26
2296.69	23.5
2297.63	24.5
2298.57	26
2299.51	26
2300.45	25
2301.39	25
2302.33	21
2303.27	23
2304.2	23
2305.14	25
2306.08	25
2307.02	22
2307.96	24
2308.9	24.5
2309.83	23.5
2310.77	27
2311.71	21
2312.65	23.5
2313.58	24
2314.52	25
2315.46	21
2316.39	24
2317.33	20.5
2318.27	25.5
2319.21	21
2320.14	25
2321.08	22.5
2322.01	26.5
2322.95	24.5
2323.89	25
2324.82	25.5
2325.76	26.5
2326.69	24
2327.63	26.5
2328.56	26.5
2329.5	22
2330.43	25
2331.37	22
2332.3	22
2333.24	22.5
2334.17	28.5
2335.1	23.5
2336.04	23
2336.97	21.5
2337.91	22.5
2338.84	23.5
2339.77	19
2340.71	22
2341.64	22
2342.57	23.5
2343.51	28
2344.44	24.5
2345.37	24.5
2346.3	24.5
2347.24	22
2348.17	23.5
2349.1	24.5
2350.03	23.5
2350.96	26.5
2351.89	25
2352.83	23
2353.76	25.5
2354.69	23.5
2355.62	21.5
2356.55	26
2357.48	26.5
2358.41	25.5
2359.34	23.5
2360.27	22.5
2361.2	23
2362.13	24.5
2363.06	23
2363.99	27
2364.92	22
2365.85	25
2366.78	23
2367.71	21.5
2368.64	26
2369.57	25.5
2370.5	25
2371.43	23.5
2372.36	24
2373.28	20.5
2374.21	20
2375.14	25
2376.07	24
2377	22.5
2377.93	24.5
2378.85	25
2379.78	21
2380.71	22.5
2381.63	28.5
2382.56	25
2383.49	24.5
2384.42	27
2385.34	26
2386.27	26
2387.2	24
2388.12	25
2389.05	28.5
2389.97	18
2390.9	24
2391.82	26.5
2392.75	24.5
2393.68	24
2394.6	27.5
2395.53	23
2396.45	26.5
2397.38	25
2398.3	23.5
2399.23	25
2400.15	25
2401.07	22.5
2402	24
2402.92	25
2403.85	23.5
2404.77	23
2405.69	25
2406.62	26
2407.54	20.5
2408.46	24
2409.39	25
2410.31	27
2411.23	23.5
2412.16	27.5
2413.08	23
2414	23
2414.92	24.5
2415.85	22
2416.77	29
2417.69	26
2418.61	24
2419.53	23.5
2420.45	22.5
2421.38	24
2422.3	26.5
2423.22	25.5
2424.14	22.5
2425.06	25.5
2425.98	22.5
2426.9	26
2427.82	23
2428.74	24
2429.66	21
2430.58	23.5
2431.5	27
2432.42	23
2433.34	27
2434.26	22
2435.18	25
2436.1	24
2437.02	29
2437.94	25
2438.85	29.5
2439.77	21
2440.69	29
2441.61	21
2442.53	26.5
2443.45	21.5
2444.36	23.5
2445.28	24.5
2446.2	24
2447.12	24
2448.03	22.5
2448.95	27.5
2449.87	22.5
2450.79	20
2451.7	24
2452.62	28
2453.54	24
2454.45	23
2455.37	25
2456.28	25
2457.2	25
2458.12	23.5
2459.03	23
2459.95	23
2460.86	22.5
2461.78	25.5
2462.69	25.5
2463.61	23
2464.52	25
2465.44	23
2466.35	26.5
2467.27	26
2468.18	24
2469.1	23.5
2470.01	21.5
2470.93	25.5
2471.84	24
2472.75	25
2473.67	24.5
2474.58	23
2475.49	25
2476.41	28.5
2477.32	26
2478.23	25
2479.15	30.5
2480.06	23.5
2480.97	21
2481.88	25.5
2482.79	26.5
2483.71	27
2484.62	24
2485.53	22.5
2486.44	20
2487.35	24.5
2488.26	24
2489.18	25
2490.09	23.5
2491	24.5
2491.91	25.5
2492.82	25.5
2493.73	22
2494.64	25.5
2495.55	27.5
2496.46	24
2497.37	23.5
2498.28	26
2499.19	26
2500.1	29.5
2501.01	25
2501.92	23.5
2502.83	22.5
2503.74	24.5
2504.65	22
2505.56	24
2506.47	24.5
2507.37	24.5
2508.28	26
2509.19	25.5
2510.1	23.5
2511.01	27
2511.92	28.5
2512.82	18
2513.73	23.5
2514.64	23.5
2515.55	25
2516.45	23
2517.36	26.5
2518.27	24.5
2519.17	28.5
2520.08	23
2520.99	25
2521.89	22
2522.8	27.5
2523.71	21.5
2524.61	22.5
2525.52	24
2526.42	27
2527.33	21
2528.24	25
2529.14	24
2530.05	20.5
2530.95	24
2531.86	25
2532.76	26
2533.67	25
2534.57	22
2535.48	25
2536.38	26.5
2537.28	27.5
2538.19	24
2539.09	25.5
2540	27.5
2540.9	27
2541.8	25.5
2542.71	23.5
2543.61	26
2544.51	23
2545.42	24
2546.32	22
2547.22	29
2548.12	26
2549.03	19
2549.93	23.5
2550.83	23
2551.73	25
2552.63	27
2553.54	20
2554.44	23
2555.34	25.5
2556.24	24
2557.14	25
2558.04	22
2558.94	22.5
2559.85	25.5
2560.75	25.5
2561.65	24.5
2562.55	26.5
2563.45	27
2564.35	19.5
2565.25	24.5
2566.15	24
2567.05	23
2567.95	22
2568.85	25.5
2569.75	26
2570.65	29
2571.55	23
2572.44	20.5
2573.34	25.5
2574.24	27
2575.14	27
2576.04	24.5
2576.94	23
2577.84	23
2578.73	25.5
2579.63	22
2580.53	26
2581.43	23.5
2582.33	25.5
2583.22	23
2584.12	26
2585.02	28
2585.91	23.5
2586.81	22.5
2587.71	25.5
2588.6	27
2589.5	25.5
2590.4	24
2591.29	24.5
2592.19	26.5
2593.09	23
2593.98	27
2594.88	25
2595.77	20.5
2596.67	26.5
2597.56	23
2598.46	25
2599.35	28.5
2600.25	23.5
2601.14	25.5
2602.04	28
2602.93	27
2603.83	28
2604.72	25
2605.62	31.5
2606.51	26
2607.4	22.5
2608.3	25.5
2609.19	25
2610.09	21.5
2610.98	25.5
2611.87	23
2612.76	22.5
2613.66	25.5
2614.55	22
2615.44	26
2616.34	22
2617.23	26
2618.12	24.5
2619.01	26
2619.9	24.5
2620.8	26
2621.69	22.5
2622.58	23
2623.47	25
2624.36	25
2625.25	22
2626.15	26
2627.04	24.5
2627.93	24
2628.82	28
2629.71	26
2630.6	27
2631.49	27.5
2632.38	24.5
2633.27	24
2634.16	27
2635.05	27
2635.94	21.5
2636.83	30.5
2637.72	25
2638.61	26.5
2639.5	26
2640.39	22
2641.28	22
2642.16	22
2643.05	18.5
2643.94	25.5
2644.83	19.5
2645.72	21
2646.61	24
2647.49	24.5
2648.38	24
2649.27	25
2650.16	22.5
2651.05	24.5
2651.93	27.5
2652.82	24.5
2653.71	22
2654.59	25
2655.48	24.5
2656.37	25.5
2657.25	25
2658.14	24
2659.03	24.5
2659.91	23.5
2660.8	21
2661.69	22
2662.57	25.5
2663.46	24.5
2664.34	23
2665.23	22
2666.11	22
2667	22.5
2667.88	24
2668.77	29.5
2669.65	26
2670.54	22.5
2671.42	24
2672.31	27
2673.19	27.5
2674.08	26
2674.96	25
2675.84	22.5
2676.73	18.5
2677.61	27.5
2678.49	24.5
2679.38	23.5
2680.26	26.5
2681.14	27
2682.03	23
2682.91	28.5
2683.79	27.5
2684.68	22
2685.56	28
2686.44	23
2687.32	24.5
2688.2	24.5
2689.09	26
2689.97	25
2690.85	26.5
2691.73	25.5
2692.61	25.5
2693.49	22.5
2694.38	24
2695.26	26
2696.14	22.5
2697.02	26
2697.9	21.5
2698.78	24.5
2699.66	22
2700.54	20.5
2701.42	26
2702.3	26
2703.18	23
2704.06	27.5
2704.94	23
2705.82	25
2706.7	23
2707.58	23
2708.46	24
2709.34	23
2710.21	27
2711.09	25
2711.97	23.5
2712.85	23
2713.73	20
2714.61	23
2715.49	23
2716.36	23
2717.24	25.5
2718.12	24
2719	28
2719.87	27
2720.75	26
2721.63	26
2722.51	22
2723.38	25.5
2724.26	18
2725.14	24.5
2726.01	21.5
2726.89	25
2727.77	27.5
2728.64	24.5
2729.52	25.5
2730.39	25.5
2731.27	25
2732.15	27.5
2733.02	29
2733.9	23.5
2734.77	25.5
2735.65	25
2736.52	24
2737.4	23.5
2738.27	25
2739.15	28
2740.02	23.5
2740.89	27.5
2741.77	21
2742.64	19
2743.52	24.5
2744.39	23.5
2745.27	27.5
2746.14	28
2747.01	25
2747.89	26
2748.76	23
2749.63	20.5
2750.51	22.5
2751.38	24.5
2752.25	24.5
2753.12	26
2754	27
2754.87	26.5
2755.74	22
2756.61	29
2757.48	26
2758.36	26.5
2759.23	23
2760.1	23.5
2760.97	26
2761.84	25
2762.71	23.5
2763.59	20.5
2764.46	25
2765.33	22
2766.2	24
2767.07	22
2767.94	27.5
2768.81	18
2769.68	23.5
2770.55	23
2771.42	26.5
2772.29	23
2773.16	25
2774.03	25
2774.9	23.5
2775.77	22
2776.64	23
2777.51	24
2778.37	21.5
2779.24	25
2780.11	23.5
2780.98	23.5
2781.85	27.5
2782.72	26.5
2783.59	21
2784.45	25.5
2785.32	20
2786.19	25
2787.06	27.5
2787.92	24
2788.79	29.5
2789.66	23
2790.53	27.5
2791.39	27.5
2792.26	25.5
2793.13	26.5
2793.99	27.5
2794.86	27
2795.73	28
2796.59	25
2797.46	24
2798.33	24
2799.19	27
2800.06	26
2800.92	26
2801.79	25.5
2802.65	28.5
2803.52	25.5
2804.39	23.5
2805.25	26.5
2806.11	29.5
2806.98	27.5
2807.84	26
2808.71	25.5
2809.57	27.5
2810.44	23.5
2811.3	26
2812.17	27
2813.03	26
2813.89	24
2814.76	29
2815.62	25
2816.49	24.5
2817.35	26
2818.21	26.5
2819.07	26.5
2819.94	24.5
2820.8	25
2821.66	27.5
2822.53	27
2823.39	25
2824.25	26.5
2825.11	29
2825.97	23
2826.84	27
2827.7	27
2828.56	27
2829.42	23
2830.28	26.5
2831.14	27.5
2832.01	28
2832.87	24.5
2833.73	24.5
2834.59	28.5
2835.45	25
2836.31	25
2837.17	25.5
2838.03	24.5
2838.89	26
2839.75	26
2840.61	29.5
2841.47	28.5
2842.33	27.5
2843.19	22.5
2844.05	27.5
2844.91	24
2845.77	24
2846.63	25.5
2847.48	29.5
2848.34	22
2849.2	27
2850.06	22.5
2850.92	29
2851.78	29.5
2852.64	28
2853.49	26
2854.35	23.5
2855.21	29.5
2856.07	27.5
2856.93	28.5
2857.78	28.5
2858.64	28.5
2859.5	25
2860.35	26
2861.21	24
2862.07	34
2862.93	27
2863.78	26
2864.64	27.5
2865.49	24.5
2866.35	28.5
2867.21	26
2868.06	26
2868.92	25
2869.77	24
2870.63	26.5
2871.49	28
2872.34	31
2873.2	27.5
2874.05	33
2874.91	27
2875.76	27.5
2876.62	29.5
2877.47	28
2878.32	32.5
2879.18	32.5
2880.03	31.5
2880.89	30
2881.74	33
2882.6	33
2883.45	32.5
2884.3	29.5
2885.16	32.5
2886.01	33.5
2886.86	35.5
2887.72	35.5
2888.57	34.5
2889.42	39
2890.27	39.5
2891.13	42
2891.98	39
2892.83	34.5
2893.68	42.5
2894.54	46.5
2895.39	48.5
2896.24	49
2897.09	48
2897.94	54
2898.8	53.5
2899.65	57
2900.5	58.5
2901.35	65
2902.2	67
2903.05	68
2903.9	73.5
2904.75	69
2905.6	77.5
2906.45	67.5
2907.3	73
2908.15	65.5
2909.01	67.5
2909.85	64
2910.7	61.5
2911.55	64
2912.4	55.5
2913.25	55
2914.1	47
2914.95	55
2915.8	49
2916.65	46
2917.5	41.5
2918.35	39
2919.2	41
2920.04	38
2920.89	38.5
2921.74	36
2922.59	36
2923.44	33.5
2924.29	30
2925.13	31.5
2925.98	31.5
2926.83	31
2927.68	33
2928.52	29
2929.37	32.5
2930.22	29
2931.06	24.5
2931.91	26
2932.76	31
2933.6	33
2934.45	31
2935.3	29
2936.14	28.5
2936.99	29
2937.83	25.5
2938.68	25.5
2939.53	28.5
2940.37	29
2941.22	31
2942.06	28
2942.91	30
2943.75	27.5
2944.6	25.5
2945.44	27
2946.29	27
2947.13	29
2947.98	34.5
2948.82	28
2949.66	27
2950.51	31
2951.35	33.5
2952.2	29
2953.04	33
2953.88	33
2954.73	35
2955.57	33
2956.41	35.5
2957.26	34.5
2958.1	39
2958.94	41.5
2959.79	39.5
2960.63	46
2961.47	41.5
2962.31	39.5
2963.15	46.5
2964	46.5
2964.84	45.5
2965.68	46
2966.52	47.5
2967.37	43.5
2968.21	37.5
2969.05	41
2969.89	39.5
2970.73	39
2971.57	35.0073
2972.41	37.492
2973.25	34.4952
2974.09	35.0572
2974.93	33.3424
2975.77	37.2584
2976.62	33.0315
2977.46	35.3862
2978.3	30.3231
2979.14	33.1457
2979.98	30.9533
2980.81	31.3055
2981.65	27.1679
2982.49	29.4137
2983.33	24.8806
2984.17	29.4003
2985.01	26.8865
2985.85	26.6428
2986.69	23.5459
2987.53	28.0998
2988.37	25.5565
2989.21	26.6039
2990.04	26.5887
2990.88	25.2074
2991.72	26.0903
2992.56	25.5737
2993.4	25.3421
2994.23	24.267
2995.07	28.918
2995.91	27.4985
2996.75	24.0363
2997.58	26.5443
2998.42	24.6934
2999.26	23.3994
3000.1	26.0583
3000.93	24.0645
3001.77	24.4818
3002.61	24.0403
3003.44	24.266
3004.28	24.1363
3005.11	24.6712
3005.95	24.109
3006.79	23.0558
3007.62	22.7324
3008.46	25.1654
3009.29	23.9898
3010.13	25.3217
3010.97	23.2843
3011.8	22.0277
3012.64	22.5452
3013.47	25.1768
3014.31	23.7441
3015.14	21.9263
3015.98	22.8556
3016.81	23.4268
3017.64	23.7306
3018.48	22.9908
3019.31	25.1714
3020.15	23.3044
3020.98	25.4161
3021.82	25.3156
3022.65	22.4576
3023.48	22.5769
3024.32	23.19
3025.15	24.2602
3025.98	23.6703
3026.82	22.5428
3027.65	22.6233
3028.48	24.4286
3029.31	24.4755
3030.15	24.0267
3030.98	24.7105
3031.81	24.2218
3032.64	21.8549
3033.48	22.7185
3034.31	24.233
3035.14	23.5053
3035.97	23.0031
3036.8	23.5007
3037.64	19.7067
3038.47	22.356
3039.3	22.4874
3040.13	22.7939
3040.96	22.7992
3041.79	20.9673
3042.62	23.4632
3043.45	23.4623
3044.28	23.2257
3045.12	23.8043
3045.95	24.6722
3046.78	23.138
3047.61	24.1281
3048.44	24.9599
3049.27	22.7992
3050.1	21.8098
3050.92	22.3709
3051.75	24.7231
3052.58	26.3391
3053.41	25.5873
3054.24	26.3017
3055.07	23.1579
3055.9	21.4698
3056.73	19.2947
3057.26	21.5
3058.09	24.5
3058.93	26
3059.76	26.5
3060.59	22.5
3061.43	22
3062.26	20.5
3063.09	25
3063.92	24
3064.76	23.5
3065.59	22.5
3066.42	21.5
3067.25	24
3068.08	24
3068.92	23.5
3069.75	24.5
3070.58	22.5
3071.41	25
3072.24	22.5
3073.07	22
3073.9	20.5
3074.73	24
3075.57	24.5
3076.4	24.5
3077.23	25
3078.06	23
3078.89	23
3079.72	22
3080.55	23.5
3081.38	25
3082.21	21
3083.04	26.5
3083.87	22.5
3084.7	24.5
3085.53	26
3086.36	23.5
3087.19	24.5
3088.01	22.5
3088.84	24.5
3089.67	25
3090.5	25
3091.33	25
3092.16	21.5
3092.99	23
3093.81	24
3094.64	21
3095.47	22.5
3096.3	24.5
3097.13	23.5
3097.95	17
3098.78	27.5
3099.61	25.5
3100.44	23.5
3101.26	23.5
3102.09	24
3102.92	22
3103.74	24
3104.57	25
3105.4	24
3106.22	23
3107.05	24.5
3107.88	23
3108.7	21
3109.53	25.5
3110.35	25
3111.18	24.5
3112.01	26
3112.83	18.5
3113.66	24
3114.48	23.5
3115.31	27
3116.13	26
3116.96	24
3117.78	25.5
3118.61	21.5
3119.43	22.5
3120.26	25.5
3121.08	24.5
3121.9	25.5
3122.73	23
3123.55	24
3124.38	25.5
3125.2	24.5
3126.02	21.5
3126.85	26
3127.67	24
3128.49	25.5
3129.32	21
3130.14	24
3130.96	25.5
3131.79	21
3132.61	26
3133.43	26
3134.25	25
3135.08	23
3135.9	23.5
3136.72	23
3137.54	26
3138.37	22
3139.19	24.5
3140.01	25
3140.83	27.5
3141.65	23.5
3142.47	27.5
3143.29	26.5
3144.12	27
3144.94	24
3145.76	22.5
3146.58	19.5
3147.4	28
3148.22	26.5
3149.04	27
3149.86	23.5
3150.68	23.5
3151.5	25.5
3152.32	24.5
3153.14	24
3153.96	24
3154.78	24.5
3155.6	22.5
3156.42	21.5
3157.24	23
3158.06	25
3158.88	24
3159.7	26
3160.51	25.5
3161.33	22
3162.15	22
3162.97	20
3163.79	22
3164.61	20.5
3165.42	25
3166.24	25.5
3167.06	21
3167.88	26
3168.7	23
3169.51	25.5
3170.33	25.5
3171.15	24.5
3171.97	23
3172.78	22.5
3173.6	27
3174.42	24
3175.23	24
3176.05	23
3176.87	23
3177.68	24
3178.5	24.5
3179.32	24.5
3180.13	24
3180.95	20
3181.76	26
3182.58	25.5
3183.4	24.5
3184.21	24
3185.03	24
3185.84	23.5
3186.66	23
3187.47	26
3188.29	23
3189.1	23
3189.92	23
3190.73	25
3191.55	21
3192.36	25
3193.17	24
3193.99	25
3194.8	22
3195.62	24
3196.43	25
3197.24	24
3198.06	25
3198.87	27
3199.68	22
3200.5	27.5
3201.31	21.5
3202.12	24
3202.94	23.5
3203.75	24.5
3204.56	23
3205.38	23
3206.19	25.5
3207	21.5
3207.81	20
3208.62	22.5
3209.44	25
3210.25	23.5
3211.06	24
3211.87	22
3212.68	24.5
3213.49	21
3214.31	23.5
3215.12	19.5
3215.93	25.5
3216.74	22.5
3217.55	24
3218.36	18
3219.17	21
3219.98	25.5
3220.79	24.5
3221.6	23.5
3222.41	23
3223.22	23.5
3224.03	23.5
3224.84	22
3225.65	20.5
3226.46	22.5
3227.27	25
3228.08	20.5
3228.89	22.5
3229.7	26
3230.51	27
3231.32	25.5
3232.13	23.5
3232.94	24
3233.74	25
3234.55	25.5
3235.36	21
3236.17	25
3236.98	25
3237.78	26
3238.59	22.5
3239.4	26.5
3240.21	26
3241.02	25
3241.82	25.5
3242.63	22
3243.44	21
3244.25	21.5
3245.05	26
3245.86	25
3246.67	22.5
3247.47	25
3248.28	23.5
3249.09	24
3249.89	23.5
3250.7	27
3251.5	24.5
3252.31	19
3253.12	23
3253.92	21.5
3254.73	24
3255.53	22
3256.34	23
3257.14	27
3257.95	24
3258.75	26.5
3259.56	22
3260.36	22.5
3261.17	20.5
3261.97	26
3262.78	24
3263.58	22
3264.39	26.5
3265.19	28
3265.99	23.5
3266.8	25
3267.6	22
3268.41	26
3269.21	23
3270.01	24
3270.82	21
3271.62	24
3272.42	19.5
3273.23	23.5
3274.03	22.5
3274.83	22.5
3275.64	27
3276.44	23.5
3277.24	22
3278.04	23.5
3278.85	22
3279.65	24
3280.45	22.5
3281.25	24.5
3282.05	22
3282.85	21
3283.66	25.5
3284.46	22.5
3285.26	23.5
3286.06	24
3286.86	26
3287.66	23.5
3288.46	25.5
3289.27	25.5
3290.07	23.5
3290.87	22
3291.67	26
3292.47	23.5
3293.27	26.5
3294.07	19.5
3294.87	28
3295.67	19.5
3296.47	25
3297.27	24.5
3298.07	21.5
3298.87	20
3299.67	19
3300.47	25.5
3301.26	22.5
3302.06	27
3302.86	26.5
3303.66	21.5
3304.46	24
3305.26	26
3306.06	21
3306.86	22
3307.65	22
3308.45	22.5
3309.25	24.5
3310.05	30
3310.85	24.5
3311.64	26
3312.44	25.5
3313.24	23
3314.04	22
3314.83	25
3315.63	24
3316.43	23.5
3317.22	24.5
3318.02	25
3318.82	23.5
3319.62	27
3320.41	27
3321.21	23.5
3322	24.5
3322.8	23
3323.6	24
3324.39	23.5
3325.19	21
3325.98	23
3326.78	25
3327.58	23
3328.37	24.5
3329.17	25.5
3329.96	22.5
3330.76	22.5
3331.55	20
3332.35	23
3333.14	22
3333.94	21
3334.73	20.5
3335.52	23.5
3336.32	23.5
3337.11	20.5
3337.91	26
3338.7	24.5
3339.5	23
3340.29	25
3341.08	28
3341.88	27.5
3342.67	25
3343.46	23.5
3344.26	24
3345.05	23
3345.84	26.5
3346.63	25.5
3347.43	24
3348.22	22.5
3349.01	23
3349.8	25
3350.6	22.5
3351.39	25
3352.18	23.5
3352.97	25.5
3353.77	26.5
3354.56	19
3355.35	27
3356.14	26
3356.93	23.5
3357.72	28
3358.51	26.5
3359.31	23.5
3360.1	23
3360.89	26
3361.68	22
3362.47	21
3363.26	25.5
3364.05	23.5
3364.84	21.5
3365.63	22
3366.42	23.5
3367.21	24
3368	25
3368.79	24
3369.58	23.5
3370.37	26
3371.16	22.5
3371.95	22
3372.74	25
3373.53	25.5
3374.32	22
3375.1	24.5
3375.89	24.5
3376.68	22
3377.47	28
3378.26	24
3379.05	27
3379.84	24
3380.62	26
3381.41	25
3382.2	24.5
3382.99	25.5
3383.78	24
3384.56	24.5
3385.35	27
3386.14	22
3386.93	25
3387.71	26.5
3388.5	26
3389.29	24.5
3390.07	28
3390.86	23
3391.65	21
3392.43	26
3393.22	25.5
3394.01	25.5
3394.79	26.5
3395.58	25
3396.36	20
3397.15	32
3397.94	21
3398.72	23
3399.51	24
3400.29	26.5
3401.08	22
3401.86	23
3402.65	28
3403.43	23
3404.22	25
3405	21.5
3405.79	23
3406.57	26
3407.36	26.5
3408.14	28.5
3408.93	22.5
3409.71	21
3410.49	23
3411.28	26
3412.06	24.5
3412.84	25
3413.63	22.5
3414.41	25
3415.2	26
3415.98	22.5
3416.76	23.5
3417.54	24.5
3418.33	25.5
3419.11	25
3419.89	24.5
3420.68	21
3421.46	24
3422.24	23
3423.02	23
3423.81	23.5
3424.59	23
3425.37	26.5
3426.15	22
3426.93	24
3427.71	23
3428.5	21.5
3429.28	24.5
3430.06	25.5
3430.84	23.5
3431.62	24.5
3432.4	24
3433.18	26
3433.96	26.5
3434.75	23
3435.53	26.5
3436.31	27
3437.09	29.5
3437.87	27
3438.65	22
3439.43	28
3440.21	28
3440.99	25
3441.77	23.5
3442.55	23.5
3443.33	26
3444.1	23.5
3444.88	23
3445.66	26.5
3446.44	25.5
3447.22	25
3448	26
3448.78	24.5
3449.56	26
3450.34	25.5
3451.11	24.5
3451.89	26
3452.67	27
3453.45	25.5
3454.23	26.5
3455	22
3455.78	23
3456.56	27
3457.34	22
3458.11	26
3458.89	24.5
3459.67	24
3460.45	25
3461.22	23.5
3462	23.5
3462.78	24.5
3463.55	23.5
3464.33	24
3465.11	24.5
3465.88	21.5
3466.66	26
3467.44	26.5
3468.21	22
3468.99	23.5
3469.76	26
3470.54	25.5
3471.32	24
3472.09	22
3472.87	23.5
3473.64	24
3474.42	23
3475.19	23.5
3475.97	22.5
3476.74	24
3477.52	23.5
3478.29	24
3479.07	21.5
3479.84	26
3480.61	23
3481.39	25
3482.16	24
3482.94	21.5
3483.71	21
3484.48	22
3485.26	23.5
3486.03	24.5
3486.81	25
3487.58	25
3488.35	19.5
3489.13	23
3489.9	25.5
3490.67	20
3491.44	28.5
3492.22	24.5
3492.99	23.5
3493.76	24.5
3494.54	23.5
3495.31	25.5
3496.08	24
3496.85	23.5
3497.62	19
3498.4	26.5
3499.17	25
3499.94	24.5
