#Acq. time (s)=	5
#Accumulations=	5
#Range (cm-¹)=	100...3500
#Windows=	4
#Autofocus=	Off
#AutoExposure=	Off
#Spike filter=	Multiple accum.
#Delay time (s)=	0
#Binning=	1
#Readout mode=	Signal
#DeNoise=	Off
#ICS correction=	Off
#Dark correction=	Off
#Inst. Process=	Off
#Instrument=	LabRAM HR Evol
#Detector=	Syncerity OE
#Objective=	x100_VIS
#Grating=	600 (500nm)
#ND Filter=	25%
#Laser=	633nm_Edge
#Hole=	100.021
#Range=	Visible
#Project=	verificaciones
#Sample=	at3
#Site=	lined
#Title=	bolusat3lined
#Remark=	
#Date=	14.01.2026 13:26
#Acquired=	14.01.2026 13:26:23
100.618	25.5
101.901	29.5
103.185	34
104.468	32.5
105.751	27.5
107.033	32.5
108.316	27.5
109.598	28
110.88	26
112.162	30
113.445	27.5
114.727	32
116.008	31.5
117.289	35
118.57	29
119.85	27.5
121.13	27
122.411	31
123.691	37
124.97	31
126.25	34
127.529	29
128.808	35
130.086	33
131.364	32.5
132.643	36
133.921	34
135.199	35.5
136.477	35
137.755	34.5
139.032	36
140.309	35
141.586	36.5
142.863	36
144.14	38.5
145.415	37.5
146.691	37.5
147.967	34
149.243	34.5
150.518	36
151.794	44
153.067	38.5
154.342	40.5
155.617	36
156.892	42
158.166	42.5
159.439	43.5
160.712	41
161.986	37
163.26	42
164.531	39.5
165.805	40.5
167.077	35
168.35	40
169.621	36
170.893	45
172.165	37
173.437	38.5
174.707	33.5
175.979	40
177.25	39
178.519	34.5
179.79	39.5
181.061	37
182.33	37.5
183.6	41
184.87	39.5
186.138	41.5
187.408	40
188.676	44.5
189.945	44
191.214	40
192.481	36
193.75	42.5
195.016	44.5
196.285	41
197.552	37.5
198.819	38
200.086	37
201.352	41
202.619	38.5
203.884	32.5
205.151	36
206.416	34
207.682	32
208.947	36
210.213	37.5
211.477	37
212.742	35.5
214.006	31
215.271	36
216.535	31.5
217.799	33.5
219.062	34
220.326	32
221.589	30.5
222.851	36.5
224.115	33
225.377	35
226.64	33
227.901	29.5
229.163	30
230.425	29.5
231.686	31.5
232.947	28
234.209	27
235.469	31
236.729	28.5
237.991	32.5
239.25	28
240.51	28
241.771	30.5
243.03	32
244.288	31
245.549	28.5
246.807	29.5
248.065	33
249.323	26.5
250.583	29.5
251.84	29
253.098	28
254.355	29
255.613	29
256.87	29.5
258.127	29
259.383	31
260.639	32
261.897	30
263.153	32
264.408	28
265.664	31
266.919	27
268.174	32
269.43	25.5
270.685	30
271.939	26.5
273.193	29.5
274.447	26
275.701	31.5
276.955	27.5
278.208	28
279.461	30.5
280.714	26.5
281.968	29
283.221	29.5
284.473	31.5
285.726	27.5
286.977	27.5
288.229	31.5
289.481	25.5
290.732	29
291.983	29
293.234	30
294.485	31.5
295.736	27.5
296.986	27
298.236	24
299.486	30
300.736	27.5
301.985	31
303.233	28.5
304.482	30.5
305.731	29
306.98	29.5
308.228	28
309.477	26
310.725	25
311.973	33
313.22	30
314.468	28
315.714	27
316.961	29
318.208	27
319.455	22
320.701	28
321.947	26
323.192	29.5
324.438	28
325.684	27
326.929	27.5
328.175	30.5
329.418	29
330.663	29.5
331.908	27.5
333.152	28
334.395	30.5
335.639	27.5
336.883	31
338.127	28.5
339.369	31
340.612	30.5
341.855	29.5
343.097	30
344.34	28.5
345.582	27.5
346.823	27.5
348.065	24
349.307	29
350.547	34.5
351.789	27.5
353.03	31
354.27	35
355.511	28.5
356.75	28.5
357.991	26.5
359.231	28
360.47	26
361.709	26.5
362.948	27
364.187	26.5
365.427	27.5
366.664	29.5
367.903	29
369.14	28
370.379	23
371.616	30
372.854	30
374.091	29
375.328	28.5
376.564	28.5
377.802	26
379.037	23
380.274	26
381.51	30
382.745	28.5
383.981	30
385.216	30
386.452	29
387.686	20
388.922	28.5
390.155	25
391.389	27
392.624	30
393.857	30
395.091	24.5
396.325	30.5
397.558	30.5
398.79	20
400.024	26.5
401.256	28.5
402.488	27.5
403.721	29
404.953	24.5
406.184	29
407.417	33
408.648	27
409.878	30
411.109	27.5
412.341	28
413.571	28.5
414.801	30.5
416.031	31.5
417.262	31
418.491	28
419.72	30.5
420.949	26.5
422.178	28.5
423.408	27.5
424.637	28.5
425.865	27
427.093	30.5
428.32	28
429.548	29.5
430.777	24.5
432.004	31
433.231	29
434.458	29
435.685	32
436.911	29.5
438.137	28.5
439.363	27.5
440.589	28.5
441.815	34.5
443.042	27
444.267	30.5
445.492	26.5
446.717	30.5
447.942	30
449.166	29.5
450.39	35
451.615	31
452.838	30
454.062	32.5
455.286	30.5
456.509	29
457.732	31.5
458.955	28.5
460.178	31
461.399	28.5
462.621	31.5
463.843	29.5
465.065	34
466.287	38
467.508	31
468.73	31
469.951	34
471.172	31
472.393	33.5
473.612	39
474.832	35
476.052	37
477.272	41
478.492	45
479.712	47
480.93	46
482.149	46
483.368	53
484.587	52
485.806	57
487.023	53
488.241	58
489.459	60
490.677	55.5
491.893	54
493.111	54
494.328	47
495.543	44.5
496.76	49
497.977	48.5
499.194	44
500.409	41.5
501.625	40.5
502.841	41
504.055	36
505.27	38.5
506.486	34
507.699	37
508.914	35
510.128	35
511.342	33
512.557	30.5
513.77	36
514.984	33.5
516.196	34
517.41	29.5
518.623	30.5
519.835	33.5
521.048	36
522.259	32.5
523.472	31
524.683	33
525.895	28.5
527.106	32
528.318	32.5
529.528	31.5
530.74	34
531.949	34
533.161	29
534.37	30
535.581	30
536.79	31.5
537.999	30.5
539.209	28
540.418	27
541.627	30
542.835	34.5
544.043	29
545.253	32
546.46	26
547.669	30.5
548.876	23.5
550.083	29.5
551.292	30.5
552.498	28
553.705	28
554.912	30.5
556.118	28.5
557.324	27
558.53	28.5
559.737	26.5
560.942	31
562.147	28
563.353	29.5
564.558	28.5
565.763	26
566.967	28
568.173	30
569.377	30
570.58	27.5
571.784	28.5
572.987	29
574.192	26.5
575.395	29.5
576.598	25
577.8	34
579.003	29.5
580.205	32.5
581.407	27.5
582.61	30
583.812	27.5
585.014	26.5
586.215	26
587.416	27.5
588.617	28.5
589.818	29
591.018	31.5
592.219	31
593.419	30
594.619	29
595.819	31
597.02	26.5
598.219	28
599.418	27
600.617	26
601.816	26.5
603.015	31.5
604.213	28
605.41	30
606.608	25
607.806	27.5
609.004	29.5
610.201	31
611.399	26.5
612.596	27.5
613.793	30.5
614.989	29.5
616.186	31
617.382	25
618.579	25
619.775	25
620.969	29
622.165	29
623.36	30
624.555	32
625.75	31.5
626.945	29.5
628.139	30
629.333	30
630.527	29.5
631.721	28.5
632.915	30.5
634.108	27.5
635.301	29
636.495	24.5
637.688	28.5
638.88	28
640.072	30
641.265	22
642.456	30
643.648	30.5
644.84	26.5
646.032	29.5
647.222	26.5
648.414	29.5
649.605	27.5
650.795	30.5
651.986	30.5
653.177	30.5
654.366	32.5
655.556	29
656.745	29
657.935	29.5
659.125	27
660.313	27.5
661.503	30.5
662.69	28
663.879	27
665.067	30.5
666.256	25
667.444	33.5
668.631	29.5
669.819	26.5
671.006	28.5
672.194	30.5
673.38	29.5
674.567	32.5
675.753	29
676.94	30.5
678.125	31
679.311	29
680.497	30
681.682	27.5
682.868	31
684.053	31
685.238	38
686.422	35.5
687.606	32.5
688.792	35
689.975	31
691.159	36.5
692.343	35.5
693.526	35
694.71	35
695.893	33.5
697.076	35
698.259	39
699.441	35
700.623	35
701.805	39
702.988	38.5
704.169	43
705.35	42
706.533	41
707.714	45.5
708.894	51
710.075	47
711.255	43
712.436	45
713.616	36
714.796	34.5
715.975	37.5
717.155	35
718.335	32.5
719.514	28.5
720.693	30.5
721.872	33
723.05	30
724.228	31
725.406	31
726.585	26.5
727.763	28.5
728.941	26.5
730.118	25.5
731.295	28
732.472	29
733.649	28
734.825	25
736.002	26.5
737.178	30.5
738.354	30.5
739.53	29.5
740.705	31
741.881	30
743.056	29.5
744.231	30.5
745.406	30
746.581	29.5
747.755	30
748.93	31.5
750.104	29
751.278	25
752.452	27
753.625	28.5
754.799	28.5
755.972	29
757.144	30.5
758.317	30.5
759.489	25.5
760.662	28.5
761.834	26
763.006	28.5
764.178	27
765.349	29
766.521	27.5
767.692	26
768.863	27.5
770.034	25.5
771.204	29
772.374	27
773.545	25
774.715	27
775.885	33
777.054	26.5
778.224	30.5
779.393	27
780.562	27
781.731	30
782.9	29
784.069	34
785.236	31.5
786.405	33
787.573	30
788.74	35.5
789.908	28
791.074	33
792.242	28
793.409	34
794.575	26
795.742	29
796.909	28.5
798.074	28
799.241	29
800.406	29
801.572	31
802.737	29
803.902	29
805.067	28.5
806.232	25.5
807.396	33.5
808.561	26
809.725	24
810.889	32
812.052	29
813.217	25.5
814.38	30
815.544	28
816.706	30
817.87	25.5
819.032	29.5
820.195	29.5
821.357	23
822.518	27
823.681	25
824.842	27.5
826.005	28.5
827.165	23.5
828.326	30
829.488	27
830.648	24.5
831.808	26.5
832.97	25
834.129	31
835.289	25
836.45	29
837.609	27
838.768	28
839.927	26
841.087	26.5
842.245	28
843.404	28
844.562	27
845.721	27
846.879	30.5
848.036	28
849.194	27.5
850.351	30
851.509	28.5
852.666	26
853.823	30
854.979	29.5
856.136	28
857.292	26
858.448	29.5
859.605	28
860.761	27.5
861.916	25
863.071	29
864.226	27.5
865.381	28.5
866.536	28
867.691	28.5
868.845	32
869.999	25
871.153	29
872.307	29
873.461	32.5
874.614	27
875.767	33
876.92	25.5
878.073	25.5
879.226	30.5
880.379	26.5
881.531	28.5
882.683	31.5
883.835	28.5
884.987	29
886.139	26
887.291	27
888.442	25
889.593	29
890.743	25
891.893	27
893.044	31
894.195	25.5
895.345	26.5
896.495	27
897.643	29
898.793	25.5
899.943	25
901.092	28
902.241	27
903.389	30
904.538	29.5
905.687	23.5
906.835	25
907.982	25
909.13	27
910.278	27.5
911.426	25.5
912.572	25.5
913.72	29.5
914.867	24
916.013	27
917.16	29.5
918.306	27.5
919.451	25
920.598	26
921.744	23
922.889	26.5
924.035	26.5
925.18	27.5
926.324	24
927.47	25.5
928.614	27
929.758	26.5
930.902	24.5
932.047	26
933.191	24
934.334	24.5
935.478	27.5
936.621	28.5
937.764	25
938.906	26
940.05	31
941.192	24
942.335	28.5
943.476	24
944.619	27.5
945.76	29
946.901	27
948.043	27.5
949.184	25
950.326	26
951.466	27.5
952.606	25
953.747	26
954.887	30
956.028	29
957.167	24.5
958.307	24.5
959.447	25.5
960.586	26
961.725	29
962.865	27.5
964.003	27
965.141	26.5
966.279	25
967.418	22
968.556	24
969.693	27
970.831	29.5
971.969	31
973.106	22.5
974.243	29
975.38	25.5
976.517	28
977.654	29
978.79	26
979.926	31.5
981.061	31.5
982.197	28.5
983.334	21
984.469	24
985.604	28
986.739	23.5
987.873	26.5
989.008	25
990.142	27
991.277	27
992.411	26
993.544	27.5
994.679	27.5
995.813	26
996.946	25.5
998.079	29.5
999.212	24
1000.35	25
1001.48	27.5
1002.61	26
1003.74	23.5
1004.87	28
1006.01	25
1007.14	29
1008.27	25.5
1009.4	27.5
1010.53	23.5
1011.66	26.5
1012.79	24.5
1013.92	28
1015.05	25
1016.18	30
1017.31	24
1018.44	24
1019.57	25
1020.7	23
1021.83	24.5
1022.96	27
1024.09	26.5
1025.22	30
1026.35	24
1027.48	29.5
1028.6	26.5
1029.73	23
1030.86	26.5
1031.99	24
1033.12	25.5
1034.24	26
1035.37	21
1036.5	24
1037.62	25
1038.75	29
1039.88	25
1041	20.5
1042.13	26
1043.25	25
1044.38	29
1045.5	26
1046.63	28.5
1047.76	21.5
1048.88	25.5
1050	26.5
1051.13	26
1052.25	27.5
1053.38	26
1054.5	23
1055.63	21
1056.75	25
1057.87	28
1058.99	27.5
1060.12	25
1061.24	24
1062.36	26
1063.49	23.5
1064.61	25.5
1065.73	25.5
1066.85	30
1067.97	24
1069.1	26
1070.22	27.5
1071.34	24.5
1072.46	27.5
1073.58	20
1074.7	28.5
1075.82	24
1076.94	23
1078.06	25.5
1079.18	31
1080.3	26.5
1081.42	27.5
1082.54	25
1083.66	27
1084.78	22.5
1085.9	27
1087.02	26
1088.13	24
1089.25	24.5
1090.37	28.5
1091.49	26.5
1092.61	24
1093.72	27.5
1094.84	25.5
1095.96	26.5
1097.08	28
1098.19	25.5
1099.31	25
1100.42	27
1101.54	27.5
1102.66	23
1103.77	24
1104.89	27
1106	26.5
1107.12	24
1108.23	22
1109.35	21.5
1110.46	22.5
1111.58	27
1112.69	26.5
1113.81	26.5
1114.92	24.5
1116.04	28.5
1117.15	25.5
1118.26	26
1119.38	22.5
1120.49	24
1121.6	23.5
1122.72	26
1123.83	23.5
1124.94	23.5
1126.05	23
1127.17	25
1128.28	24
1129.39	24
1130.5	23.5
1131.61	29
1132.72	25
1133.83	25.5
1134.94	24.5
1136.06	26
1137.17	27.5
1138.27	25
1139.39	23
1140.5	27
1141.61	23
1142.72	25.5
1143.82	24
1144.93	28
1146.04	27
1147.15	25
1148.26	26
1149.37	25
1150.48	27
1151.58	22.5
1152.69	24.5
1153.8	26.5
1154.91	28
1156.02	26
1157.12	25
1158.23	25
1159.34	22.5
1160.44	27
1161.55	24.5
1162.66	24.5
1163.76	28
1164.87	29
1165.97	27
1167.08	23.5
1168.18	26
1169.29	23.5
1170.39	26
1171.5	28
1172.6	29
1173.71	27
1174.81	21
1175.92	22
1177.02	25
1178.13	22
1179.23	22.5
1180.33	26
1181.44	23
1182.54	21.5
1183.64	29
1184.74	25.5
1185.85	28.5
1186.95	27
1188.05	24
1189.15	24.5
1190.26	22.5
1191.36	22.5
1192.46	23
1193.56	25
1194.66	23.0011
1195.76	20.5021
1196.86	25.0955
1197.96	28.4809
1199.06	26.9926
1200.16	25.4171
1201.26	25.8166
1202.36	29.6421
1203.46	23.7779
1204.56	22.5922
1205.66	22.1471
1206.76	25.0652
1207.86	25.1134
1208.96	26.413
1210.06	22.2822
1211.16	27.8984
1212.25	23.7403
1213.35	27.8899
1214.45	21.1758
1215.55	25.1786
1216.65	24.1151
1217.74	22.0265
1218.84	26.1788
1219.94	28.0874
1221.03	24.0474
1222.13	25.0151
1223.23	24.4806
1224.32	25.9152
1225.42	23.5694
1226.52	26.2047
1227.61	27.2597
1228.71	27.7722
1229.8	26.8404
1230.9	21.9755
1231.99	24.7691
1233.09	25.3447
1234.18	25.8399
1235.28	24.401
1236.37	25.0792
1237.47	25.5443
1238.56	25.7609
1239.65	24.3472
1240.75	24.1091
1241.84	23.7156
1242.93	27.513
1244.03	24.0554
1245.12	24.5971
1246.21	25.8289
1247.31	24.9379
1248.4	23.4514
1249.49	26.388
1250.58	25.3316
1251.67	24.6626
1252.77	23.7034
1253.86	23.99
1254.95	25.4551
1256.04	24.0702
1257.13	26.9506
1258.22	27.2998
1259.31	25.4822
1260.4	26.9824
1261.49	26.0898
1262.58	28.6008
1263.67	25.276
1264.76	25.1214
1265.85	26.3641
1266.94	27.8019
1268.03	27.0527
1269.12	25.0891
1270.21	26.1686
1271.3	23.0723
1272.39	24.5442
1273.47	24.6633
1274.56	23.2583
1275.65	25.0963
1276.74	25.0366
1277.83	23.4065
1278.91	25.2232
1280	22.6504
1281.09	21.3033
1282.17	26.0326
1283.26	24.4576
1284.35	25.1297
1285.43	25.1689
1286.52	25.454
1287.61	25.6058
1288.69	22.7879
1289.78	25.4172
1290.86	27.085
1291.95	24.5421
1293.03	23.1214
1294.12	22.6565
1295.2	23.8361
1296.29	22.9739
1297.37	23.0543
1298.46	25.8884
1299.54	25.8167
1300.63	23.0406
1301.71	26.1492
1302.79	26.9039
1303.88	24.312
1304.96	24.9337
1306.04	24.8126
1306.5	24
1307.59	23
1308.68	29.5
1309.76	19
1310.85	27.5
1311.94	25.5
1313.03	23.5
1314.11	25
1315.2	24
1316.29	24
1317.37	24.5
1318.46	25
1319.55	24
1320.63	23.5
1321.72	22
1322.81	26
1323.89	22.5
1324.98	24
1326.06	27.5
1327.15	22
1328.23	22.5
1329.32	22
1330.4	23
1331.49	21
1332.57	22.5
1333.66	23
1334.74	19
1335.82	25
1336.91	28
1337.99	27.5
1339.07	29.5
1340.16	23.5
1341.24	24
1342.32	28.5
1343.4	26
1344.49	24
1345.57	25.5
1346.65	23.5
1347.73	23
1348.82	25.5
1349.9	22
1350.98	25
1352.06	24
1353.14	25.5
1354.22	27
1355.3	24
1356.38	25.5
1357.46	27.5
1358.54	26.5
1359.62	25.5
1360.7	23
1361.78	26.5
1362.86	26
1363.94	26
1365.02	29.5
1366.1	24
1367.18	24.5
1368.26	28
1369.34	21.5
1370.41	23
1371.49	23
1372.57	24
1373.65	28.5
1374.72	26.5
1375.8	22.5
1376.88	26.5
1377.96	26
1379.03	25
1380.11	25
1381.19	24.5
1382.26	26.5
1383.34	25
1384.42	24
1385.49	26
1386.57	24
1387.64	29
1388.72	25
1389.79	28
1390.87	24
1391.94	23
1393.02	26.5
1394.09	24
1395.17	25
1396.24	25
1397.31	29
1398.39	29.5
1399.46	28.5
1400.54	28.5
1401.61	27
1402.68	27
1403.76	29.5
1404.83	29.5
1405.9	31
1406.97	30
1408.05	27
1409.12	31
1410.19	29
1411.26	32
1412.33	30
1413.4	32
1414.48	35
1415.55	27
1416.62	27
1417.69	31
1418.76	31.5
1419.83	29.5
1420.9	28
1421.97	29
1423.04	26
1424.11	28.5
1425.18	29.5
1426.25	25
1427.32	26.5
1428.39	30.5
1429.46	29
1430.52	30
1431.59	28
1432.66	24.5
1433.73	27
1434.8	25
1435.87	27.5
1436.93	25
1438	26.5
1439.07	26
1440.14	25.5
1441.2	29
1442.27	27
1443.34	29
1444.4	27.5
1445.47	29
1446.54	25
1447.6	26
1448.67	31
1449.73	29.5
1450.8	27
1451.86	21
1452.93	23.5
1453.99	25.5
1455.06	27.5
1456.12	27
1457.19	25
1458.25	25.5
1459.32	27
1460.38	26.5
1461.45	23.5
1462.51	27
1463.57	25
1464.64	29.5
1465.7	21.5
1466.76	26
1467.82	26.5
1468.89	27.5
1469.95	29.5
1471.01	23
1472.07	25
1473.14	24
1474.2	23.5
1475.26	25.5
1476.32	23
1477.38	25.5
1478.44	27.5
1479.5	23
1480.57	25.5
1481.63	25.5
1482.69	26.5
1483.75	23
1484.81	26
1485.87	26.5
1486.93	26
1487.99	25
1489.05	25.5
1490.1	26
1491.17	25
1492.22	25.5
1493.28	25
1494.34	27
1495.4	25
1496.46	27
1497.52	29
1498.57	23.5
1499.63	28
1500.69	23
1501.75	25
1502.8	27.5
1503.86	25
1504.92	23
1505.98	23
1507.03	24.5
1508.09	29
1509.15	27
1510.2	27.5
1511.26	24.5
1512.31	28
1513.37	25.5
1514.42	29
1515.48	23
1516.53	27
1517.59	25
1518.64	22.5
1519.7	22
1520.75	23
1521.81	24.5
1522.86	24.5
1523.92	25.5
1524.97	25
1526.02	26
1527.08	25.5
1528.13	26.5
1529.18	27
1530.24	24
1531.29	32.5
1532.34	27
1533.39	24
1534.45	26
1535.5	24
1536.55	29.5
1537.6	27
1538.65	26
1539.71	25.5
1540.76	24
1541.81	27.5
1542.86	28.5
1543.91	24
1544.96	25
1546.01	22.5
1547.06	22.5
1548.11	28.5
1549.16	26.5
1550.21	25.5
1551.26	25.5
1552.31	25.5
1553.36	27
1554.41	25
1555.46	29.5
1556.51	24.5
1557.56	25.5
1558.6	26.5
1559.65	27
1560.7	27
1561.75	30
1562.8	25
1563.84	25
1564.89	23
1565.94	25
1566.99	23
1568.03	25.5
1569.08	24.5
1570.13	25
1571.17	20.5
1572.22	27.5
1573.27	25.5
1574.31	24.5
1575.36	25
1576.4	26
1577.45	23
1578.5	26
1579.54	24.5
1580.59	29
1581.63	24.5
1582.68	23.5
1583.72	27
1584.76	26
1585.81	23
1586.85	26
1587.9	25
1588.94	30.5
1589.98	26
1591.03	23.5
1592.07	24.5
1593.11	26.5
1594.16	26
1595.2	27.5
1596.24	24.5
1597.29	25.5
1598.33	24.5
1599.37	26.5
1600.41	24
1601.45	27
1602.49	26
1603.54	28
1604.58	26
1605.62	27.5
1606.66	23.5
1607.7	25.5
1608.74	28.5
1609.78	27
1610.82	25.5
1611.86	26.5
1612.9	24.5
1613.94	25.5
1614.98	23
1616.02	24.5
1617.06	26.5
1618.1	25
1619.14	27
1620.18	24
1621.22	27
1622.25	23.5
1623.29	24
1624.33	28
1625.37	23.5
1626.41	20
1627.45	28
1628.48	26
1629.52	27.5
1630.56	23
1631.59	27.5
1632.63	24
1633.67	23
1634.7	23
1635.74	27.5
1636.78	22
1637.81	27
1638.85	25.5
1639.88	25.5
1640.92	20.5
1641.96	24
1642.99	29
1644.03	22
1645.06	26.5
1646.1	29.5
1647.13	28.5
1648.17	27
1649.2	25
1650.23	21
1651.27	26.5
1652.3	22
1653.33	26.5
1654.37	24
1655.4	27
1656.44	29
1657.47	23.5
1658.5	25
1659.53	24.5
1660.57	23
1661.6	25
1662.63	24.5
1663.66	28
1664.69	21
1665.73	25.5
1666.76	30
1667.79	23.5
1668.82	24
1669.85	30
1670.88	24
1671.91	29
1672.94	23.5
1673.97	27
1675.01	22.5
1676.03	28
1677.07	24.5
1678.1	26.5
1679.12	25
1680.15	27.5
1681.18	22
1682.21	24.5
1683.24	25
1684.27	26.5
1685.3	24.5
1686.33	25.5
1687.36	26
1688.38	23.5
1689.41	24.5
1690.44	26
1691.47	30
1692.5	31
1693.52	26
1694.55	27
1695.58	25
1696.6	27
1697.63	24.5
1698.66	25.5
1699.68	26
1700.71	20
1701.74	24.5
1702.76	20
1703.79	26.5
1704.81	28
1705.84	19
1706.86	26
1707.89	28
1708.91	24
1709.94	25
1710.96	21
1711.99	26
1713.01	23
1714.04	25.5
1715.06	27
1716.08	25
1717.11	23.5
1718.13	24
1719.16	22
1720.18	26.5
1721.2	29
1722.22	27.5
1723.25	23.5
1724.27	22
1725.29	26.5
1726.31	25
1727.34	27
1728.36	27.5
1729.38	24
1730.4	25.5
1731.42	24.5
1732.44	24
1733.47	27.5
1734.49	24
1735.51	24.5
1736.53	27.5
1737.55	25
1738.57	26
1739.59	25
1740.61	23
1741.63	25
1742.65	26
1743.67	23
1744.69	26
1745.71	28
1746.73	28
1747.75	24
1748.76	27
1749.78	25.5
1750.8	30.5
1751.82	27
1752.84	22
1753.86	21
1754.87	25
1755.89	23.5
1756.91	26
1757.93	26
1758.94	25.5
1759.96	24.5
1760.98	28
1761.99	26
1763.01	26.5
1764.03	25
1765.04	26.5
1766.06	26
1767.08	26.5
1768.09	24
1769.11	27.5
1770.12	28
1771.14	26
1772.15	26.5
1773.17	25.5
1774.18	28.5
1775.2	22.5
1776.21	24.5
1777.23	20.5
1778.24	23
1779.25	22.5
1780.27	28.5
1781.28	23
1782.3	22.5
1783.31	23
1784.32	21.5
1785.34	24
1786.35	22
1787.36	21
1788.37	26
1789.39	24.5
1790.4	25.5
1791.41	25.5
1792.42	25
1793.43	25.5
1794.45	25.5
1795.46	25.5
1796.47	27.5
1797.48	21
1798.49	30
1799.5	22.5
1800.51	24.5
1801.52	27.5
1802.53	25
1803.54	25
1804.55	22
1805.56	26.5
1806.57	27
1807.58	24
1808.59	23
1809.6	28
1810.61	24
1811.62	29
1812.63	25
1813.64	28
1814.65	23
1815.66	20
1816.66	24.5
1817.67	22
1818.68	24
1819.69	26.5
1820.69	25.5
1821.7	26.5
1822.71	21.5
1823.72	25.5
1824.72	28
1825.73	26
1826.74	28
1827.74	28
1828.75	26
1829.76	25
1830.76	25
1831.77	26.5
1832.77	25.5
1833.78	27.5
1834.79	28.5
1835.79	25
1836.8	25.5
1837.8	26
1838.81	25.5
1839.81	28
1840.81	29.5
1841.82	26
1842.82	25.5
1843.83	24
1844.83	26
1845.83	24.5
1846.84	28
1847.84	22
1848.84	26
1849.85	24.5
1850.85	26
1851.85	19
1852.86	26
1853.86	26
1854.86	26
1855.86	23
1856.86	27.5
1857.87	23.5
1858.87	23.5
1859.87	25
1860.87	27
1861.87	21.5
1862.87	25
1863.88	26.5
1864.88	22.5
1865.88	22.5
1866.88	27.5
1867.88	24.5
1868.88	25.5
1869.88	24.5
1870.88	23
1871.88	22.5
1872.88	24.5
1873.88	25
1874.87	29
1875.87	30
1876.87	28
1877.87	25.5
1878.87	25.5
1879.87	26.5
1880.87	24.5
1881.86	25.5
1882.86	25.5
1883.86	23
1884.86	26
1885.86	26.5
1886.85	27
1887.85	23
1888.85	22.5
1889.84	28
1890.84	23.5
1891.84	21.5
1892.83	24
1893.83	24.5
1894.83	25.5
1895.82	30
1896.82	26.5
1897.81	23
1898.81	24
1899.81	27.5
1900.8	23
1901.8	27
1902.79	25
1903.78	26.5
1904.78	23
1905.77	22.5
1906.77	24
1907.76	26
1908.76	23
1909.75	24.5
1910.74	25
1911.74	26.5
1912.73	23
1913.72	22.5
1914.72	22
1915.71	23
1916.7	26
1917.7	20.5
1918.69	25.5
1919.68	23
1920.67	19.5
1921.66	27.5
1922.66	26
1923.65	23
1924.64	26
1925.63	27.5
1926.62	26
1927.61	22
1928.6	28.5
1929.59	23.5
1930.59	20
1931.58	20.5
1932.57	22
1933.56	23
1934.55	27
1935.54	25
1936.53	25
1937.52	24
1938.51	20.5
1939.49	25
1940.48	23
1941.47	21.5
1942.46	27
1943.45	26.5
1944.44	24.5
1945.43	26.5
1946.42	21
1947.4	24
1948.39	27
1949.38	27
1950.37	25
1951.35	25
1952.34	27.5
1953.33	22
1954.31	26
1955.3	24
1956.29	24.5
1957.27	24.5
1958.26	26.5
1959.25	24
1960.23	24
1961.22	23.5
1962.21	25
1963.19	21.5
1964.18	25.5
1965.16	22
1966.15	24.5
1967.13	24.5
1968.12	25
1969.1	24
1970.09	23.5
1971.07	23.5
1972.05	23
1973.04	25.5
1974.02	25
1975.01	25.5
1975.99	26
1976.97	20
1977.96	26.5
1978.94	25.5
1979.92	25
1980.91	26
1981.89	26.5
1982.87	23
1983.85	24.5
1984.84	21
1985.82	28
1986.8	23
1987.78	27
1988.76	25
1989.74	23
1990.73	23
1991.71	23
1992.69	20.5
1993.67	24
1994.65	26.5
1995.63	27
1996.61	25
1997.59	23
1998.57	22
1999.55	25.5
2000.53	25
2001.51	24
2002.49	18
2003.47	21
2004.45	24
2005.43	25
2006.41	25.5
2007.39	26
2008.37	26
2009.34	23
2010.32	22
2011.3	22
2012.28	25.5
2013.26	26
2014.23	25
2015.21	28
2016.19	25.5
2017.17	24.5
2018.14	27.5
2019.12	26
2020.1	25.5
2021.07	23
2022.05	24.5
2023.03	24
2024	22.5
2024.98	22.5
2025.96	22
2026.93	24
2027.91	23
2028.88	22
2029.86	24
2030.83	24
2031.81	25
2032.78	23.5
2033.76	22
2034.73	27.5
2035.71	23
2036.68	24
2037.66	25.5
2038.63	24
2039.6	28.5
2040.58	23
2041.55	23
2042.52	24.5
2043.5	23.5
2044.47	21
2045.44	23
2046.42	22.5
2047.39	23.5
2048.36	26.5
2049.33	23
2050.31	22
2051.28	24
2052.25	26
2053.22	27.5
2054.19	20.5
2055.17	27.5
2056.14	25
2057.11	21
2058.08	22
2059.05	24.5
2060.02	26
2060.99	28.5
2061.96	25
2062.93	20
2063.9	22
2064.87	25.5
2065.84	24
2066.81	20
2067.78	22
2068.75	25.5
2069.72	24
2070.69	16
2071.66	24.5
2072.63	26.5
2073.6	20
2074.56	26.5
2075.53	25
2076.5	22.5
2077.47	23.5
2078.44	21.5
2079.4	23.5
2080.37	23.5
2081.34	23
2082.31	22
2083.27	25
2084.24	23
2085.21	26
2086.18	24.5
2087.14	25.5
2088.11	24.5
2089.07	24.5
2090.04	25
2091.01	23.5
2091.97	23
2092.94	26
2093.9	26
2094.87	26
2095.83	21.5
2096.8	22
2097.76	24
2098.73	19
2099.69	25
2100.66	25
2101.62	21.5
2102.59	25.5
2103.55	26
2104.52	23
2105.48	22
2106.44	25.5
2107.41	25.5
2108.37	30
2109.33	18.5
2110.3	24
2111.26	26.5
2112.22	23.5
2113.18	20.5
2114.15	25
2115.11	28
2116.07	24.5
2117.03	20
2118	24
2118.96	23
2119.92	26.5
2120.88	28
2121.84	22
2122.8	24
2123.76	23.5
2124.72	26.5
2125.68	24
2126.65	25.5
2127.61	23
2128.57	22.5
2129.53	25.5
2130.49	21
2131.45	25
2132.41	22
2133.36	24.5
2134.32	23
2135.28	28.5
2136.24	21.5
2137.2	21
2138.16	22.5
2139.12	20
2140.08	23
2141.04	26.5
2141.99	24.5
2142.95	23.9873
2143.91	22.9799
2144.87	24.9571
2145.83	23.6252
2146.78	22.6789
2147.74	24.0534
2148.7	21.6541
2149.66	26.147
2150.61	20.1249
2151.57	26.0222
2152.53	24.9728
2153.48	23.4624
2154.44	20.1898
2155.4	23.4598
2156.35	23.0616
2157.31	22.5717
2158.26	21.509
2159.22	22.8923
2160.17	22.4277
2161.13	24.1889
2162.08	21.2145
2163.04	25.4097
2163.99	22.2126
2164.95	23.3363
2165.9	21.5188
2166.86	21.3878
2167.81	22.3877
2168.77	25.6027
2169.72	26.1699
2170.67	24.8153
2171.63	21.7405
2172.58	24.048
2173.54	22.422
2174.49	22.6434
2175.44	21.8142
2176.39	21.5621
2177.35	24.1833
2178.3	20.209
2179.25	22.9077
2180.2	23.5413
2181.16	23.0882
2182.11	23.0927
2183.06	21.8291
2184.01	25.1077
2184.96	21.637
2185.92	21.6814
2186.87	24.714
2187.82	20.5187
2188.77	20.4634
2189.72	22.4083
2190.67	26.8446
2191.62	18.9068
2192.57	21.7327
2193.52	24.9196
2194.47	24.1772
2195.42	21.819
2196.37	23.3135
2197.32	24.1165
2198.27	23.045
2199.22	21.6286
2200.17	23.6738
2201.12	22.8153
2202.07	21.3789
2203.02	20.6162
2203.97	25.1435
2204.92	22.2549
2205.87	23.0927
2206.81	24.0249
2207.76	24.252
2208.71	22.6316
2209.66	22.8932
2210.61	21.6429
2211.55	22.6789
2212.5	21.7076
2213.45	21.6679
2214.4	21.4987
2215.34	20.6472
2216.29	25.8348
2217.24	24.5594
2218.18	26.1432
2219.13	20.7258
2220.08	23.2546
2221.02	21.4549
2221.97	23.7128
2222.92	21.3477
2223.86	22.7245
2224.81	20.9372
2225.75	20.3047
2226.7	23.4127
2227.64	22.027
2228.59	23.2773
2229.53	20.425
2230.48	21.2791
2231.42	21.7779
2232.37	25.3507
2233.31	23.0127
2234.26	21.6956
2235.2	24.2498
2236.14	24.4911
2237.09	23.1614
2238.03	22.9636
2238.97	23.0218
2239.92	24.2867
2240.05	24.5
2241	22.5
2241.95	23
2242.89	21
2243.84	24
2244.79	24
2245.74	24.5
2246.68	21.5
2247.63	28
2248.58	22.5
2249.53	25
2250.47	21.5
2251.42	22
2252.36	23.5
2253.31	21.5
2254.26	23
2255.2	21
2256.15	23.5
2257.1	24
2258.04	21
2258.99	26
2259.93	21.5
2260.88	21
2261.82	21.5
2262.77	22.5
2263.71	26
2264.66	25.5
2265.6	25
2266.55	23.5
2267.49	24.5
2268.43	23
2269.38	22
2270.32	25
2271.26	23
2272.21	21
2273.15	21.5
2274.09	24
2275.04	23.5
2275.98	21.5
2276.92	26
2277.87	21.5
2278.81	23
2279.75	27
2280.69	20
2281.64	21
2282.58	24
2283.52	25
2284.46	21.5
2285.4	24
2286.34	22.5
2287.29	24.5
2288.23	21
2289.17	23.5
2290.11	23.5
2291.05	22
2291.99	21.5
2292.93	24
2293.87	25.5
2294.81	24
2295.75	26
2296.69	18
2297.63	23
2298.57	22.5
2299.51	24
2300.45	21
2301.39	23.5
2302.33	22.5
2303.27	23.5
2304.2	23.5
2305.14	21.5
2306.08	20.5
2307.02	25
2307.96	24
2308.9	22
2309.83	20.5
2310.77	26
2311.71	25
2312.65	21
2313.58	24
2314.52	19.5
2315.46	25
2316.39	22
2317.33	25
2318.27	23.5
2319.21	20
2320.14	25.5
2321.08	24
2322.01	22.5
2322.95	25
2323.89	28.5
2324.82	22
2325.76	25
2326.69	23.5
2327.63	22
2328.56	23
2329.5	23
2330.43	23.5
2331.37	18.5
2332.3	22
2333.24	24
2334.17	23
2335.1	26.5
2336.04	25
2336.97	23
2337.91	23
2338.84	21.5
2339.77	26.5
2340.71	21.5
2341.64	18
2342.57	23
2343.51	23.5
2344.44	21.5
2345.37	25
2346.3	23
2347.24	26
2348.17	19.5
2349.1	20.5
2350.03	26.5
2350.96	20
2351.89	22.5
2352.83	24
2353.76	22.5
2354.69	26
2355.62	20.5
2356.55	20.5
2357.48	22
2358.41	24
2359.34	22
2360.27	27.5
2361.2	21
2362.13	22
2363.06	27
2363.99	23
2364.92	22
2365.85	23.5
2366.78	24.5
2367.71	24.5
2368.64	23.5
2369.57	25
2370.5	24.5
2371.43	22.5
2372.36	25
2373.28	22.5
2374.21	26.5
2375.14	24
2376.07	24
2377	23
2377.93	21
2378.85	26
2379.78	25.5
2380.71	25
2381.63	23.5
2382.56	23
2383.49	25
2384.42	20
2385.34	22.5
2386.27	25
2387.2	30
2388.12	25
2389.05	22
2389.97	25
2390.9	23.5
2391.82	25.5
2392.75	24
2393.68	25.5
2394.6	23.5
2395.53	25
2396.45	22.5
2397.38	25
2398.3	28
2399.23	24.5
2400.15	20.5
2401.07	22
2402	26
2402.92	24
2403.85	21.5
2404.77	21
2405.69	27
2406.62	25
2407.54	21.5
2408.46	25
2409.39	22
2410.31	23.5
2411.23	21
2412.16	22.5
2413.08	24
2414	21.5
2414.92	24.5
2415.85	23
2416.77	24
2417.69	21.5
2418.61	23
2419.53	24.5
2420.45	25
2421.38	25
2422.3	23
2423.22	24
2424.14	21
2425.06	25.5
2425.98	27.5
2426.9	23
2427.82	25
2428.74	24.5
2429.66	22.5
2430.58	24
2431.5	23.5
2432.42	23.5
2433.34	28
2434.26	21
2435.18	25
2436.1	26
2437.02	29
2437.94	23
2438.85	21
2439.77	25
2440.69	26
2441.61	25
2442.53	23
2443.45	23
2444.36	21
2445.28	23.5
2446.2	23.5
2447.12	23.5
2448.03	21.5
2448.95	24
2449.87	21.5
2450.79	25.5
2451.7	27
2452.62	25.5
2453.54	24
2454.45	24
2455.37	24.5
2456.28	21
2457.2	19.5
2458.12	21
2459.03	25
2459.95	25.5
2460.86	26
2461.78	23
2462.69	25.5
2463.61	25
2464.52	24
2465.44	26.5
2466.35	25
2467.27	24
2468.18	26.5
2469.1	23.5
2470.01	25
2470.93	27
2471.84	23.5
2472.75	21
2473.67	22
2474.58	27.5
2475.49	22
2476.41	26
2477.32	25.5
2478.23	27.5
2479.15	25
2480.06	28.5
2480.97	29
2481.88	23
2482.79	23.5
2483.71	24.5
2484.62	25
2485.53	26
2486.44	22
2487.35	25
2488.26	25.5
2489.18	21.5
2490.09	24.5
2491	24.5
2491.91	25
2492.82	29.5
2493.73	26
2494.64	23
2495.55	24
2496.46	26.5
2497.37	27
2498.28	22
2499.19	23.5
2500.1	27
2501.01	23.5
2501.92	23
2502.83	24.5
2503.74	25.5
2504.65	26
2505.56	22.5
2506.47	27.5
2507.37	26.5
2508.28	24.5
2509.19	25
2510.1	24
2511.01	17
2511.92	23
2512.82	25
2513.73	27
2514.64	26
2515.55	25.5
2516.45	25
2517.36	24
2518.27	21
2519.17	22.5
2520.08	23
2520.99	26.5
2521.89	26
2522.8	23
2523.71	26
2524.61	20
2525.52	22.5
2526.42	21.5
2527.33	21.5
2528.24	27.5
2529.14	24
2530.05	23.5
2530.95	24
2531.86	25
2532.76	22.5
2533.67	22
2534.57	27
2535.48	25
2536.38	26
2537.28	25
2538.19	25.5
2539.09	22.5
2540	25.5
2540.9	22.5
2541.8	26
2542.71	23.5
2543.61	24
2544.51	20
2545.42	24
2546.32	20
2547.22	27
2548.12	25.5
2549.03	24
2549.93	27.5
2550.83	27
2551.73	25.5
2552.63	26.5
2553.54	24
2554.44	26
2555.34	23.5
2556.24	26
2557.14	25
2558.04	24
2558.94	24
2559.85	27
2560.75	25
2561.65	22.5
2562.55	25.5
2563.45	24
2564.35	26
2565.25	24
2566.15	24
2567.05	24
2567.95	24.5
2568.85	26
2569.75	25
2570.65	22
2571.55	28
2572.44	23.5
2573.34	19
2574.24	22.5
2575.14	28.5
2576.04	26.5
2576.94	21
2577.84	25.5
2578.73	26.5
2579.63	24
2580.53	22.5
2581.43	20.5
2582.33	25.5
2583.22	26
2584.12	24
2585.02	25
2585.91	26.5
2586.81	24.5
2587.71	27.5
2588.6	20
2589.5	21.5
2590.4	26.5
2591.29	22.5
2592.19	22
2593.09	25.5
2593.98	27
2594.88	22
2595.77	22
2596.67	27.5
2597.56	22.5
2598.46	22
2599.35	25
2600.25	25
2601.14	26
2602.04	28
2602.93	20.5
2603.83	21.5
2604.72	26.5
2605.62	25
2606.51	26.5
2607.4	26
2608.3	24.5
2609.19	25
2610.09	28
2610.98	26.5
2611.87	24
2612.76	23.5
2613.66	24
2614.55	23.5
2615.44	26
2616.34	25.5
2617.23	25.5
2618.12	23
2619.01	24
2619.9	22.5
2620.8	33
2621.69	23.5
2622.58	25
2623.47	24
2624.36	26
2625.25	25
2626.15	26
2627.04	22.5
2627.93	27.5
2628.82	24
2629.71	26.5
2630.6	28
2631.49	27.5
2632.38	24
2633.27	21.5
2634.16	29
2635.05	28
2635.94	28
2636.83	22.5
2637.72	26
2638.61	26
2639.5	23
2640.39	27.5
2641.28	25.5
2642.16	24
2643.05	24
2643.94	25.5
2644.83	26.5
2645.72	25
2646.61	24.5
2647.49	26
2648.38	23
2649.27	24
2650.16	21.5
2651.05	23.5
2651.93	26.5
2652.82	24
2653.71	27.5
2654.59	25
2655.48	23
2656.37	25.5
2657.25	24
2658.14	21
2659.03	27
2659.91	24.5
2660.8	26.5
2661.69	23
2662.57	26
2663.46	26
2664.34	21
2665.23	24.5
2666.11	26.5
2667	25
2667.88	25.5
2668.77	22
2669.65	24
2670.54	27
2671.42	24
2672.31	27
2673.19	26
2674.08	25
2674.96	26
2675.84	23
2676.73	26.5
2677.61	22
2678.49	27.5
2679.38	26.5
2680.26	27.5
2681.14	18
2682.03	24
2682.91	27
2683.79	24
2684.68	23
2685.56	23.5
2686.44	21.5
2687.32	25.5
2688.2	22.5
2689.09	24
2689.97	28
2690.85	27
2691.73	23
2692.61	24.5
2693.49	21
2694.38	23.5
2695.26	25.5
2696.14	25
2697.02	24
2697.9	21
2698.78	23
2699.66	20.5
2700.54	24
2701.42	24.5
2702.3	22
2703.18	25
2704.06	26
2704.94	25.5
2705.82	22
2706.7	25
2707.58	26
2708.46	24.5
2709.34	23
2710.21	25.5
2711.09	25.5
2711.97	22.5
2712.85	27
2713.73	24
2714.61	23
2715.49	21
2716.36	23.5
2717.24	27.5
2718.12	25
2719	29.5
2719.87	23.5
2720.75	23
2721.63	25.5
2722.51	22
2723.38	23.5
2724.26	18.5
2725.14	28
2726.01	25.5
2726.89	28
2727.77	25.5
2728.64	26.5
2729.52	18
2730.39	23.5
2731.27	27
2732.15	24
2733.02	26
2733.9	25.5
2734.77	25
2735.65	22
2736.52	27.5
2737.4	24.5
2738.27	22.5
2739.15	21
2740.02	22
2740.89	25.5
2741.77	27
2742.64	24
2743.52	24.5
2744.39	25.5
2745.27	22
2746.14	18
2747.01	23.5
2747.89	24
2748.76	26
2749.63	19
2750.51	19.5
2751.38	25
2752.25	23.5
2753.12	25
2754	24
2754.87	25.5
2755.74	23
2756.61	23.5
2757.48	27
2758.36	26
2759.23	26
2760.1	26
2760.97	24
2761.84	28.5
2762.71	25
2763.59	24
2764.46	23
2765.33	27
2766.2	23
2767.07	26.5
2767.94	27
2768.81	22
2769.68	25.5
2770.55	25
2771.42	18
2772.29	25
2773.16	26.5
2774.03	25
2774.9	29
2775.77	23
2776.64	26
2777.51	26.5
2778.37	20
2779.24	24.5
2780.11	24
2780.98	25.5
2781.85	26
2782.72	22
2783.59	25.5
2784.45	23
2785.32	27
2786.19	26
2787.06	23
2787.92	23
2788.79	21
2789.66	27.5
2790.53	24
2791.39	27.5
2792.26	28.5
2793.13	27
2793.99	23.5
2794.86	23
2795.73	28
2796.59	28
2797.46	24
2798.33	25.5
2799.19	26.5
2800.06	21
2800.92	25
2801.79	28
2802.65	27
2803.52	25
2804.39	25.5
2805.25	27
2806.11	24.5
2806.98	28
2807.84	25
2808.71	27
2809.57	27.5
2810.44	25
2811.3	24
2812.17	26.5
2813.03	27
2813.89	25
2814.76	25.5
2815.62	26.5
2816.49	28
2817.35	29
2818.21	23.5
2819.07	25
2819.94	25.5
2820.8	22
2821.66	22.5
2822.53	25.5
2823.39	26
2824.25	23
2825.11	26
2825.97	26.5
2826.84	24
2827.7	26.5
2828.56	22.5
2829.42	29
2830.28	28
2831.14	26
2832.01	27.5
2832.87	28
2833.73	26
2834.59	28.5
2835.45	25.5
2836.31	26
2837.17	26
2838.03	23
2838.89	25
2839.75	28
2840.61	24.5
2841.47	26
2842.33	28.5
2843.19	25.5
2844.05	25.5
2844.91	29
2845.77	25.5
2846.63	26
2847.48	26.5
2848.34	26
2849.2	28.5
2850.06	21
2850.92	32.5
2851.78	27
2852.64	25
2853.49	19
2854.35	27.5
2855.21	25.5
2856.07	27.5
2856.93	25.5
2857.78	27
2858.64	29
2859.5	26
2860.35	27.5
2861.21	25
2862.07	28.5
2862.93	26
2863.78	23
2864.64	28
2865.49	32
2866.35	28.5
2867.21	27
2868.06	25.5
2868.92	26
2869.77	29.5
2870.63	27
2871.49	31.5
2872.34	27
2873.2	30
2874.05	30.5
2874.91	31
2875.76	29
2876.62	25
2877.47	30
2878.32	31.5
2879.18	29.5
2880.03	31
2880.89	31.5
2881.74	30.5
2882.6	31
2883.45	31
2884.3	29.5
2885.16	29
2886.01	39
2886.86	33.5
2887.72	38
2888.57	34
2889.42	36.5
2890.27	37
2891.13	40
2891.98	39.5
2892.83	37.5
2893.68	42
2894.54	37
2895.39	46.5
2896.24	46
2897.09	42
2897.94	48.5
2898.8	47
2899.65	52.5
2900.5	59.5
2901.35	56
2902.2	59.5
2903.05	54
2903.9	68
2904.75	64
2905.6	63.5
2906.45	60
2907.3	69.5
2908.15	66
2909.01	66.5
2909.85	62.5
2910.7	56
2911.55	59.5
2912.4	51
2913.25	52
2914.1	48
2914.95	45.5
2915.8	41
2916.65	43
2917.5	41
2918.35	34
2919.2	39.5
2920.04	30
2920.89	35.5
2921.74	32
2922.59	38
2923.44	34.5
2924.29	31
2925.13	34
2925.98	37
2926.83	31
2927.68	29.5
2928.52	28.5
2929.37	29.5
2930.22	32.5
2931.06	28
2931.91	25
2932.76	27.5
2933.6	25
2934.45	27
2935.3	29
2936.14	28.5
2936.99	28
2937.83	25.5
2938.68	30
2939.53	26
2940.37	30
2941.22	30.5
2942.06	28
2942.91	30.5
2943.75	26.5
2944.6	27
2945.44	24.5
2946.29	24.5
2947.13	27
2947.98	29
2948.82	31
2949.66	30
2950.51	28.5
2951.35	27
2952.2	31.5
2953.04	30.5
2953.88	30.5
2954.73	33.5
2955.57	32.5
2956.41	32.5
2957.26	31.5
2958.1	36.5
2958.94	34
2959.79	36
2960.63	36.5
2961.47	41.5
2962.31	40.5
2963.15	45
2964	40
2964.84	44.5
2965.68	36
2966.52	41.5
2967.37	39
2968.21	39.5
2969.05	36
2969.89	39
2970.73	40.5
2971.57	37.4733
2972.41	36.9008
2973.25	37.9258
2974.09	36.0286
2974.93	37.8205
2975.77	32.1037
2976.62	31.023
2977.46	33.4452
2978.3	29.359
2979.14	29.5641
2979.98	29.534
2980.81	28.3077
2981.65	29.6589
2982.49	26.383
2983.33	29.4025
2984.17	27.3994
2985.01	30.0715
2985.85	24.0523
2986.69	27.3676
2987.53	27.675
2988.37	26.08
2989.21	28.228
2990.04	23.4369
2990.88	27.7015
2991.72	24.6189
2992.56	25.3583
2993.4	21.4767
2994.23	23.3733
2995.07	25.908
2995.91	29.9138
2996.75	24.891
2997.58	26.6685
2998.42	22.6934
2999.26	24.0551
3000.1	23.9097
3000.93	23.2199
3001.77	25.2332
3002.61	26.0519
3003.44	22.9293
3004.28	24.236
3005.11	23.5474
3005.95	22.8411
3006.79	24.8267
3007.62	25.3107
3008.46	21.2795
3009.29	22.0812
3010.13	23.0505
3010.97	20.86
3011.8	23.5129
3012.64	23.1128
3013.47	21.6968
3014.31	23.1385
3015.14	22.8971
3015.98	24.278
3016.81	23.7771
3017.64	21.3503
3018.48	24.6471
3019.31	21.4329
3020.15	21.2058
3020.98	21.8838
3021.82	22.2913
3022.65	22.4009
3023.48	23.3445
3024.32	23.2813
3025.15	23.4438
3025.98	23.7314
3026.82	23.6399
3027.65	22.8548
3028.48	24.2094
3029.31	23.8861
3030.15	21.6619
3030.98	22.029
3031.81	23.5734
3032.64	21.9272
3033.48	20.6005
3034.31	21.4947
3035.14	22.8335
3035.97	22.2617
3036.8	24.5143
3037.64	24.6311
3038.47	23.5972
3039.3	23.4742
3040.13	25.7575
3040.96	24.6885
3041.79	23.0462
3042.62	22.4543
3043.45	22.8439
3044.28	20.8564
3045.12	22.2782
3045.95	22.3113
3046.78	22.1904
3047.61	23.9236
3048.44	23.7223
3049.27	23.9398
3050.1	23.7231
3050.92	23.5432
3051.75	22.4768
3052.58	22.3438
3053.41	23.2201
3054.24	23.1335
3055.07	22.47
3055.9	22.5521
3056.73	24.642
3057.26	20.5
3058.09	25
3058.93	25
3059.76	25
3060.59	19.5
3061.43	23
3062.26	22.5
3063.09	22.5
3063.92	26.5
3064.76	25
3065.59	21
3066.42	22.5
3067.25	23.5
3068.08	23
3068.92	23
3069.75	19.5
3070.58	28
3071.41	23
3072.24	25
3073.07	25
3073.9	20.5
3074.73	23
3075.57	24
3076.4	20.5
3077.23	25
3078.06	23
3078.89	24
3079.72	25.5
3080.55	24.5
3081.38	21.5
3082.21	27.5
3083.04	22
3083.87	25
3084.7	23
3085.53	23.5
3086.36	23
3087.19	26
3088.01	23.5
3088.84	26.5
3089.67	25.5
3090.5	23
3091.33	22
3092.16	22
3092.99	21.5
3093.81	24.5
3094.64	24
3095.47	22
3096.3	26.5
3097.13	26
3097.95	25.5
3098.78	21
3099.61	27
3100.44	23.5
3101.26	22.5
3102.09	20.5
3102.92	23
3103.74	23.5
3104.57	23
3105.4	21.5
3106.22	25
3107.05	20
3107.88	24
3108.7	21.5
3109.53	23.5
3110.35	23
3111.18	24
3112.01	21.5
3112.83	27
3113.66	22
3114.48	20
3115.31	26
3116.13	23.5
3116.96	21.5
3117.78	24.5
3118.61	22
3119.43	25.5
3120.26	26.5
3121.08	23.5
3121.9	25.5
3122.73	17
3123.55	25
3124.38	25.5
3125.2	27.5
3126.02	24
3126.85	19.5
3127.67	22.5
3128.49	22
3129.32	24.5
3130.14	20.5
3130.96	24
3131.79	25
3132.61	24
3133.43	20.5
3134.25	21.5
3135.08	23.5
3135.9	27
3136.72	21.5
3137.54	25
3138.37	24.5
3139.19	21
3140.01	27.5
3140.83	21
3141.65	22
3142.47	23
3143.29	22.5
3144.12	21.5
3144.94	23.5
3145.76	24.5
3146.58	22
3147.4	22.5
3148.22	23.5
3149.04	22.5
3149.86	22
3150.68	21.5
3151.5	21.5
3152.32	23
3153.14	27
3153.96	23.5
3154.78	26.5
3155.6	23
3156.42	25.5
3157.24	22.5
3158.06	22
3158.88	24
3159.7	23
3160.51	23.5
3161.33	21
3162.15	23
3162.97	24
3163.79	25.5
3164.61	25
3165.42	23
3166.24	21
3167.06	24.5
3167.88	21.5
3168.7	24
3169.51	22.5
3170.33	21
3171.15	25
3171.97	22
3172.78	22.5
3173.6	22.5
3174.42	23
3175.23	23
3176.05	22
3176.87	20.5
3177.68	25
3178.5	24.5
3179.32	21
3180.13	26
3180.95	24.5
3181.76	22.5
3182.58	22.5
3183.4	24
3184.21	25.5
3185.03	26.5
3185.84	23.5
3186.66	23
3187.47	29.5
3188.29	23.5
3189.1	24
3189.92	23
3190.73	25.5
3191.55	24
3192.36	27.5
3193.17	27.5
3193.99	23
3194.8	21.5
3195.62	22
3196.43	26
3197.24	25.5
3198.06	23.5
3198.87	22
3199.68	26.5
3200.5	26
3201.31	27.5
3202.12	24.5
3202.94	24
3203.75	24.5
3204.56	24.5
3205.38	23
3206.19	23
3207	21
3207.81	23.5
3208.62	24
3209.44	26.5
3210.25	26
3211.06	22.5
3211.87	24.5
3212.68	28
3213.49	24.5
3214.31	24
3215.12	22
3215.93	25
3216.74	22.5
3217.55	26.5
3218.36	24
3219.17	24.5
3219.98	25
3220.79	22.5
3221.6	21.5
3222.41	24
3223.22	24
3224.03	23
3224.84	23
3225.65	20.5
3226.46	25
3227.27	27
3228.08	20.5
3228.89	27
3229.7	25
3230.51	25.5
3231.32	22
3232.13	25
3232.94	22.5
3233.74	23.5
3234.55	22
3235.36	25
3236.17	22
3236.98	23.5
3237.78	21
3238.59	19.5
3239.4	23
3240.21	18
3241.02	25
3241.82	24
3242.63	24
3243.44	21.5
3244.25	25
3245.05	23.5
3245.86	25
3246.67	24
3247.47	25
3248.28	24
3249.09	25.5
3249.89	21.5
3250.7	23
3251.5	24.5
3252.31	25
3253.12	27
3253.92	26
3254.73	24.5
3255.53	23.5
3256.34	22.5
3257.14	26.5
3257.95	23
3258.75	25
3259.56	24.5
3260.36	24.5
3261.17	21.5
3261.97	28
3262.78	22
3263.58	22
3264.39	22.5
3265.19	22
3265.99	22.5
3266.8	20
3267.6	25
3268.41	25.5
3269.21	22
3270.01	21
3270.82	22
3271.62	22.5
3272.42	23
3273.23	23
3274.03	24.5
3274.83	21.5
3275.64	25.5
3276.44	25.5
3277.24	23
3278.04	25
3278.85	27.5
3279.65	22
3280.45	22.5
3281.25	25
3282.05	22.5
3282.85	23
3283.66	22
3284.46	26
3285.26	24.5
3286.06	21.5
3286.86	27
3287.66	25.5
3288.46	27
3289.27	23
3290.07	23
3290.87	24.5
3291.67	23.5
3292.47	22.5
3293.27	19.5
3294.07	23
3294.87	23.5
3295.67	26
3296.47	26.5
3297.27	23
3298.07	22.5
3298.87	21
3299.67	22
3300.47	22.5
3301.26	26
3302.06	25
3302.86	26
3303.66	28
3304.46	22.5
3305.26	25.5
3306.06	22.5
3306.86	24.5
3307.65	25
3308.45	25
3309.25	22.5
3310.05	22.5
3310.85	23
3311.64	25
3312.44	19.5
3313.24	24
3314.04	24
3314.83	26
3315.63	23
3316.43	26.5
3317.22	25.5
3318.02	23.5
3318.82	25
3319.62	23
3320.41	22
3321.21	19
3322	23
3322.8	28
3323.6	26
3324.39	26.5
3325.19	23.5
3325.98	22
3326.78	22.5
3327.58	27
3328.37	22
3329.17	26
3329.96	24.5
3330.76	25
3331.55	23.5
3332.35	24
3333.14	22.5
3333.94	27
3334.73	20.5
3335.52	21.5
3336.32	26
3337.11	25
3337.91	25
3338.7	22.5
3339.5	23.5
3340.29	28
3341.08	23.5
3341.88	26
3342.67	27
3343.46	25
3344.26	22.5
3345.05	24.5
3345.84	23.5
3346.63	23
3347.43	24.5
3348.22	24
3349.01	28.5
3349.8	23.5
3350.6	26.5
3351.39	24.5
3352.18	22.5
3352.97	25.5
3353.77	24
3354.56	23.5
3355.35	29.5
3356.14	24.5
3356.93	26
3357.72	27
3358.51	27.5
3359.31	24.5
3360.1	23
3360.89	21
3361.68	20
3362.47	25
3363.26	23.5
3364.05	22
3364.84	25
3365.63	25.5
3366.42	22.5
3367.21	24
3368	23
3368.79	24
3369.58	23
3370.37	23.5
3371.16	24.5
3371.95	24
3372.74	27
3373.53	24
3374.32	26
3375.1	23.5
3375.89	22
3376.68	22
3377.47	28
3378.26	24.5
3379.05	24
3379.84	25
3380.62	25.5
3381.41	24
3382.2	26
3382.99	22
3383.78	24
3384.56	27.5
3385.35	23
3386.14	26
3386.93	23
3387.71	26.5
3388.5	24.5
3389.29	26
3390.07	21
3390.86	28
3391.65	18
3392.43	22.5
3393.22	23
3394.01	22.5
3394.79	28.5
3395.58	22
3396.36	26.5
3397.15	23
3397.94	23
3398.72	26
3399.51	25
3400.29	23
3401.08	23.5
3401.86	23
3402.65	23
3403.43	28.5
3404.22	21
3405	26
3405.79	28.5
3406.57	25.5
3407.36	24.5
3408.14	24.5
3408.93	18
3409.71	22
3410.49	24.5
3411.28	25.5
3412.06	24
3412.84	23.5
3413.63	22.5
3414.41	23
3415.2	26
3415.98	23
3416.76	23
3417.54	22.5
3418.33	21.5
3419.11	23
3419.89	25
3420.68	26.5
3421.46	23.5
3422.24	21
3423.02	23.5
3423.81	25.5
3424.59	27
3425.37	24
3426.15	24
3426.93	23.5
3427.71	23
3428.5	26
3429.28	22.5
3430.06	27.5
3430.84	25.5
3431.62	24
3432.4	23
3433.18	26
3433.96	25
3434.75	25.5
3435.53	25.5
3436.31	25
3437.09	24.5
3437.87	22
3438.65	22.5
3439.43	22
3440.21	23.5
3440.99	21
3441.77	21
3442.55	25
3443.33	23
3444.1	25
3444.88	24
3445.66	24.5
3446.44	23.5
3447.22	23
3448	21.5
3448.78	23.5
3449.56	27.5
3450.34	24.5
3451.11	27.5
3451.89	20
3452.67	23
3453.45	24.5
3454.23	20.5
3455	25
3455.78	25.5
3456.56	24
3457.34	26.5
3458.11	23
3458.89	25.5
3459.67	24
3460.45	21.5
3461.22	23
3462	24.5
3462.78	22.5
3463.55	27
3464.33	23
3465.11	26
3465.88	22
3466.66	23
3467.44	24
3468.21	24
3468.99	24
3469.76	23.5
3470.54	25
3471.32	25
3472.09	20.5
3472.87	26
3473.64	20.5
3474.42	25.5
3475.19	21.5
3475.97	25
3476.74	24
3477.52	21.5
3478.29	21
3479.07	28
3479.84	24.5
3480.61	24.5
3481.39	23
3482.16	22
3482.94	20
3483.71	22
3484.48	25
3485.26	27
3486.03	26
3486.81	25
3487.58	24.5
3488.35	26.5
3489.13	24.5
3489.9	25.5
3490.67	26.5
3491.44	24
3492.22	23.5
3492.99	24
3493.76	24
3494.54	24.5
3495.31	24.5
3496.08	21
3496.85	21
3497.62	24
3498.4	22.5
3499.17	24
3499.94	25
