#Acq. time (s)=	5
#Accumulations=	5
#Range (cm-¹)=	100...3500
#Windows=	4
#Autofocus=	Off
#AutoExposure=	Off
#Spike filter=	Multiple accum.
#Delay time (s)=	0
#Binning=	1
#Readout mode=	Signal
#DeNoise=	Off
#ICS correction=	Off
#Dark correction=	Off
#Inst. Process=	Off
#Instrument=	LabRAM HR Evol
#Detector=	Syncerity OE
#Objective=	x100_VIS
#Grating=	600 (500nm)
#ND Filter=	25%
#Laser=	633nm_Edge
#Hole=	100.021
#Range=	Visible
#Project=	verificaciones
#Sample=	at3
#Site=	plain
#Title=	bolusat3plain
#Remark=	
#Date=	14.01.2026 11:52
#Acquired=	14.01.2026 11:52:01
100.618	25
101.901	28.5
103.185	28
104.468	28.5
105.751	25.5
107.033	29
108.316	29.5
109.598	25
110.88	30
112.162	25
113.445	26.5
114.727	26.5
116.008	26
117.289	30.5
118.57	29
119.85	26
121.13	25
122.411	27.5
123.691	24.5
124.97	29
126.25	24.5
127.529	28
128.808	32.5
130.086	27.5
131.364	26.5
132.643	27.5
133.921	28
135.199	25.5
136.477	30
137.755	30
139.032	28
140.309	26
141.586	24.5
142.863	24.5
144.14	28.5
145.415	27
146.691	25.5
147.967	29
149.243	28
150.518	28
151.794	26
153.067	28
154.342	29.5
155.617	30
156.892	27
158.166	28
159.439	28
160.712	28
161.986	25
163.26	31.5
164.531	27.5
165.805	25.5
167.077	29
168.35	31
169.621	24
170.893	32
172.165	29.5
173.437	25
174.707	28
175.979	30.5
177.25	26.5
178.519	28
179.79	26
181.061	31.5
182.33	27
183.6	28
184.87	30
186.138	32
187.408	29.5
188.676	28
189.945	31.5
191.214	24.5
192.481	30
193.75	28.5
195.016	32
196.285	26
197.552	31.5
198.819	28.5
200.086	27
201.352	24.5
202.619	26.5
203.884	36
205.151	26.5
206.416	33.5
207.682	27
208.947	28
210.213	28
211.477	27
212.742	31.5
214.006	29
215.271	25
216.535	26.5
217.799	26.5
219.062	28
220.326	29.5
221.589	29
222.851	28
224.115	22
225.377	25
226.64	26.5
227.901	28
229.163	28
230.425	27.5
231.686	29
232.947	28
234.209	30.5
235.469	23.5
236.729	26.5
237.991	26
239.25	31
240.51	27.5
241.771	31.5
243.03	29
244.288	28.5
245.549	23
246.807	26
248.065	26.5
249.323	24
250.583	28.5
251.84	27.5
253.098	29
254.355	28
255.613	28
256.87	26
258.127	27.5
259.383	25
260.639	24
261.897	24.5
263.153	31.5
264.408	26
265.664	23
266.919	31.5
268.174	28.5
269.43	25
270.685	24.5
271.939	27
273.193	24.5
274.447	25
275.701	29.5
276.955	25
278.208	28
279.461	26.5
280.714	26
281.968	23.5
283.221	28.5
284.473	23
285.726	24
286.977	26.5
288.229	27.5
289.481	25.5
290.732	31
291.983	26
293.234	23
294.485	25
295.736	24
296.986	22.5
298.236	24
299.486	23.5
300.736	25.5
301.985	24
303.233	27
304.482	27
305.731	27.5
306.98	24.5
308.228	27.5
309.477	30
310.725	30
311.973	24
313.22	29.5
314.468	26.5
315.714	28.5
316.961	29.5
318.208	23.5
319.455	24
320.701	30.5
321.947	27.5
323.192	25.5
324.438	25
325.684	22.5
326.929	28.5
328.175	26
329.418	26
330.663	24.5
331.908	23.5
333.152	27
334.395	24
335.639	25
336.883	34
338.127	25.5
339.369	26
340.612	28
341.855	28.5
343.097	29
344.34	25.5
345.582	26.5
346.823	26
348.065	27
349.307	24
350.547	29.5
351.789	28.5
353.03	28
354.27	28.5
355.511	27
356.75	28.5
357.991	25
359.231	27
360.47	25
361.709	25
362.948	25
364.187	26
365.427	23
366.664	30
367.903	24
369.14	28
370.379	28
371.616	28
372.854	20
374.091	24
375.328	28
376.564	29.5
377.802	29.5
379.037	26
380.274	27.5
381.51	29.5
382.745	25.5
383.981	30.5
385.216	26
386.452	26.5
387.686	27.5
388.922	26.5
390.155	28.5
391.389	24
392.624	27
393.857	29
395.091	25
396.325	26.5
397.558	24
398.79	25
400.024	27
401.256	27.5
402.488	26
403.721	25
404.953	27.5
406.184	27.5
407.417	26.5
408.648	25
409.878	27.5
411.109	28
412.341	23
413.571	29
414.801	26
416.031	29
417.262	28.5
418.491	25
419.72	28
420.949	26.5
422.178	26
423.408	22.5
424.637	25.5
425.865	26.5
427.093	26
428.32	26.5
429.548	26
430.777	28.5
432.004	27.5
433.231	29
434.458	22
435.685	27
436.911	27
438.137	28.5
439.363	25.5
440.589	27.5
441.815	27.5
443.042	28
444.267	26.5
445.492	26.5
446.717	27.5
447.942	29.5
449.166	26
450.39	29
451.615	28.5
452.838	27
454.062	26
455.286	28.5
456.509	26.5
457.732	26
458.955	27
460.178	28
461.399	28
462.621	28
463.843	28.5
465.065	23.5
466.287	28.5
467.508	32.5
468.73	26.5
469.951	26.5
471.172	29.5
472.393	30
473.612	26.5
474.832	27
476.052	25.5
477.272	30
478.492	24
479.712	33
480.93	29
482.149	31.5
483.368	33.5
484.587	29.5
485.806	35
487.023	33
488.241	37.5
489.459	38
490.677	36
491.893	33
493.111	32
494.328	31
495.543	32
496.76	27
497.977	29.5
499.194	29
500.409	32
501.625	27.5
502.841	31
504.055	27
505.27	33.5
506.486	27.5
507.699	24
508.914	28
510.128	30.5
511.342	28
512.557	28
513.77	30
514.984	26
516.196	27
517.41	30
518.623	30
519.835	30
521.048	27
522.259	26
523.472	28
524.683	29
525.895	28
527.106	29.5
528.318	27.5
529.528	28.5
530.74	31.5
531.949	29
533.161	27
534.37	28
535.581	24
536.79	25
537.999	28
539.209	28
540.418	29
541.627	26.5
542.835	27
544.043	27.5
545.253	26.5
546.46	29.5
547.669	28
548.876	26.5
550.083	27.5
551.292	25
552.498	24
553.705	27
554.912	25
556.118	26
557.324	27
558.53	29
559.737	25.5
560.942	28
562.147	30.5
563.353	28.5
564.558	22
565.763	24
566.967	31
568.173	31.5
569.377	23
570.58	28
571.784	25
572.987	23
574.192	26.5
575.395	29
576.598	28
577.8	26.5
579.003	26.5
580.205	28
581.407	27
582.61	27
583.812	26.5
585.014	24
586.215	26
587.416	25.5
588.617	26.5
589.818	29.5
591.018	27
592.219	30
593.419	26
594.619	23.5
595.819	25.5
597.02	28.5
598.219	27.5
599.418	23
600.617	31.5
601.816	25.5
603.015	24
604.213	23
605.41	25.5
606.608	29
607.806	28.5
609.004	27.5
610.201	27.5
611.399	26
612.596	28
613.793	26.5
614.989	27
616.186	28
617.382	24
618.579	23
619.775	30
620.969	25
622.165	30
623.36	27
624.555	28
625.75	26.5
626.945	28
628.139	30
629.333	26.5
630.527	27
631.721	25
632.915	24
634.108	28.5
635.301	29.5
636.495	24
637.688	28.5
638.88	24
640.072	26
641.265	29.5
642.456	27
643.648	28.5
644.84	29
646.032	28
647.222	27.5
648.414	25
649.605	23
650.795	28
651.986	29
653.177	26
654.366	27
655.556	29
656.745	28.5
657.935	28
659.125	25
660.313	27.5
661.503	29
662.69	29
663.879	27
665.067	28
666.256	27
667.444	30.5
668.631	29
669.819	23.5
671.006	30
672.194	27.5
673.38	23
674.567	25
675.753	32.5
676.94	28
678.125	27.5
679.311	28
680.497	28.5
681.682	27
682.868	23
684.053	29
685.238	28
686.422	30.5
687.606	26.5
688.792	31.5
689.975	26
691.159	30
692.343	28
693.526	33
694.71	28
695.893	28.5
697.076	31
698.259	25.5
699.441	31
700.623	29
701.805	29
702.988	33
704.169	29
705.35	30
706.533	29.5
707.714	31.5
708.894	29
710.075	30.5
711.255	31.5
712.436	26.5
713.616	33
714.796	29
715.975	28.5
717.155	30
718.335	26
719.514	32
720.693	27.5
721.872	28.5
723.05	28.5
724.228	26.5
725.406	29.5
726.585	28.5
727.763	26
728.941	27.5
730.118	27
731.295	27
732.472	30
733.649	26.5
734.825	29.5
736.002	27.5
737.178	29
738.354	24.5
739.53	27
740.705	29.5
741.881	25.5
743.056	28.5
744.231	23.5
745.406	31
746.581	30
747.755	26.5
748.93	28
750.104	27
751.278	27
752.452	28.5
753.625	29.5
754.799	27
755.972	28.5
757.144	25.5
758.317	26.5
759.489	25
760.662	28
761.834	21
763.006	31
764.178	24.5
765.349	30
766.521	22.5
767.692	29
768.863	25
770.034	28.5
771.204	25.5
772.374	27
773.545	28
774.715	23
775.885	25
777.054	26.5
778.224	27
779.393	28.5
780.562	28.5
781.731	29.5
782.9	28
784.069	26.5
785.236	24.5
786.405	27.5
787.573	27.5
788.74	26.5
789.908	25.5
791.074	27
792.242	24.5
793.409	29.5
794.575	26
795.742	27
796.909	30
798.074	29.5
799.241	30
800.406	25.5
801.572	27
802.737	28.5
803.902	28.5
805.067	22
806.232	31.5
807.396	29.5
808.561	25.5
809.725	26
810.889	28
812.052	31
813.217	30
814.38	26.5
815.544	27
816.706	27
817.87	25
819.032	28
820.195	25.5
821.357	28
822.518	25
823.681	24
824.842	25
826.005	23
827.165	27
828.326	27.5
829.488	27.5
830.648	26
831.808	24
832.97	25
834.129	26.5
835.289	28
836.45	27
837.609	29
838.768	26
839.927	25
841.087	26
842.245	27
843.404	25
844.562	32.5
845.721	27
846.879	27.5
848.036	24.5
849.194	27.5
850.351	27.5
851.509	30
852.666	23
853.823	28
854.979	28.5
856.136	28
857.292	22
858.448	30.5
859.605	25.5
860.761	28.5
861.916	28.5
863.071	24
864.226	22.5
865.381	28
866.536	26.5
867.691	27
868.845	25
869.999	24
871.153	31
872.307	25
873.461	27.5
874.614	34.5
875.767	29.5
876.92	28
878.073	28.5
879.226	28
880.379	30
881.531	27.5
882.683	25
883.835	25
884.987	24
886.139	24
887.291	22
888.442	26.5
889.593	28
890.743	28
891.893	27.5
893.044	27
894.195	28
895.345	26
896.495	26
897.643	26
898.793	28.5
899.943	27.5
901.092	28.5
902.241	26
903.389	24.5
904.538	26
905.687	25
906.835	27
907.982	24
909.13	28
910.278	21
911.426	28.5
912.572	23.5
913.72	28
914.867	21.5
916.013	27
917.16	26
918.306	24
919.451	26
920.598	25
921.744	26
922.889	29.5
924.035	26.5
925.18	28.5
926.324	28.5
927.47	27.5
928.614	25.5
929.758	22
930.902	24
932.047	28
933.191	25
934.334	26.5
935.478	27
936.621	22
937.764	28
938.906	28
940.05	25
941.192	26.5
942.335	25
943.476	22
944.619	22
945.76	27.5
946.901	27.5
948.043	29
949.184	25
950.326	23.5
951.466	25.5
952.606	26
953.747	25
954.887	23.5
956.028	28.5
957.167	20.5
958.307	25.5
959.447	29
960.586	24.5
961.725	24.5
962.865	24
964.003	30.5
965.141	24.5
966.279	25.5
967.418	23
968.556	25
969.693	26.5
970.831	28
971.969	28
973.106	23.5
974.243	24
975.38	27
976.517	26
977.654	28.5
978.79	26.5
979.926	25.5
981.061	25
982.197	28.5
983.334	26
984.469	24
985.604	31
986.739	25
987.873	25.5
989.008	26
990.142	26
991.277	25.5
992.411	25.5
993.544	28
994.679	23
995.813	24.5
996.946	21
998.079	24.5
999.212	26
1000.35	23.5
1001.48	28.5
1002.61	26
1003.74	23
1004.87	25
1006.01	28
1007.14	25.5
1008.27	30
1009.4	25.5
1010.53	24.5
1011.66	26
1012.79	21
1013.92	28.5
1015.05	26
1016.18	25
1017.31	25.5
1018.44	24
1019.57	28
1020.7	24
1021.83	26
1022.96	23
1024.09	28
1025.22	27
1026.35	28.5
1027.48	26.5
1028.6	26.5
1029.73	23
1030.86	23.5
1031.99	24
1033.12	26.5
1034.24	28
1035.37	27
1036.5	25.5
1037.62	23
1038.75	26.5
1039.88	29
1041	28
1042.13	24
1043.25	22.5
1044.38	24
1045.5	23.5
1046.63	25
1047.76	23.5
1048.88	25
1050	24
1051.13	23
1052.25	27
1053.38	27
1054.5	24
1055.63	27
1056.75	22
1057.87	26.5
1058.99	24.5
1060.12	20
1061.24	23.5
1062.36	27.5
1063.49	25.5
1064.61	27
1065.73	27
1066.85	25
1067.97	25
1069.1	22
1070.22	23.5
1071.34	26
1072.46	24.5
1073.58	32
1074.7	25
1075.82	21.5
1076.94	24
1078.06	26
1079.18	23
1080.3	25.5
1081.42	24
1082.54	25
1083.66	25
1084.78	21
1085.9	24.5
1087.02	21.5
1088.13	26
1089.25	25
1090.37	28
1091.49	24
1092.61	25.5
1093.72	21.5
1094.84	23
1095.96	26
1097.08	25.5
1098.19	25.5
1099.31	27
1100.42	19
1101.54	26
1102.66	23
1103.77	25
1104.89	21.5
1106	27
1107.12	26
1108.23	27
1109.35	26
1110.46	26
1111.58	24
1112.69	21
1113.81	23.5
1114.92	28.5
1116.04	22
1117.15	25
1118.26	23.5
1119.38	26
1120.49	24
1121.6	25
1122.72	26.5
1123.83	26.5
1124.94	22
1126.05	23.5
1127.17	28
1128.28	25
1129.39	22.5
1130.5	24.5
1131.61	23.5
1132.72	26.5
1133.83	24.5
1134.94	21.5
1136.06	28
1137.17	27.5
1138.27	26.5
1139.39	26.5
1140.5	20
1141.61	23.5
1142.72	26
1143.82	24
1144.93	23
1146.04	27
1147.15	23
1148.26	27.5
1149.37	24.5
1150.48	20
1151.58	26
1152.69	21.5
1153.8	28.5
1154.91	24.5
1156.02	23.5
1157.12	29.5
1158.23	24
1159.34	25
1160.44	26
1161.55	24
1162.66	24.5
1163.76	24
1164.87	28
1165.97	25.5
1167.08	26.5
1168.18	21.5
1169.29	25
1170.39	25.5
1171.5	25
1172.6	25
1173.71	27.5
1174.81	26.5
1175.92	26
1177.02	27.5
1178.13	23.5
1179.23	26.5
1180.33	27.5
1181.44	21
1182.54	24.5
1183.64	23.5
1184.74	24
1185.85	24.5
1186.95	19.5
1188.05	29
1189.15	25
1190.26	25.5
1191.36	25
1192.46	23
1193.56	24.5
1194.66	24.4984
1195.76	20.9922
1196.86	22.5915
1197.96	24.4386
1199.06	24.2395
1200.16	23.7011
1201.26	24.8782
1202.36	24.0333
1203.46	26.7003
1204.56	25.4496
1205.66	25.0384
1206.76	22.6808
1207.86	25.1214
1208.96	24.6994
1210.06	24.4894
1211.16	26.2711
1212.25	19.6602
1213.35	26.4875
1214.45	22.9471
1215.55	27.4028
1216.65	23.0883
1217.74	26.1675
1218.84	26.3382
1219.94	25.1024
1221.03	26.3384
1222.13	24.952
1223.23	23.6626
1224.32	23.1194
1225.42	23.3402
1226.52	25.3788
1227.61	24.0586
1228.71	25.8406
1229.8	25.5164
1230.9	26.7112
1231.99	24.7353
1233.09	25.16
1234.18	24.9544
1235.28	24.2743
1236.37	23.4518
1237.47	23.6821
1238.56	21.1816
1239.65	25.0583
1240.75	23.8038
1241.84	24.4967
1242.93	23.6229
1244.03	22.3558
1245.12	24.5633
1246.21	22.041
1247.31	22.8474
1248.4	24.9424
1249.49	23.9154
1250.58	24
1251.67	23.6377
1252.77	25.6378
1253.86	24.2362
1254.95	23.3764
1256.04	25.585
1257.13	24.1105
1258.22	22.9095
1259.31	24.6804
1260.4	24.7808
1261.49	24.2549
1262.58	23.5113
1263.67	21.0473
1264.76	24.2735
1265.85	25.123
1266.94	21.4217
1268.03	23.5847
1269.12	24.5026
1270.21	23.851
1271.3	25.095
1272.39	23.8189
1273.47	24.1053
1274.56	24.262
1275.65	22.7402
1276.74	24.7425
1277.83	24.21
1278.91	24.1868
1280	25.6762
1281.09	23.5159
1282.17	23.7756
1283.26	23.3537
1284.35	23.7407
1285.43	24.5204
1286.52	23.8463
1287.61	25.2878
1288.69	25.5188
1289.78	22.7329
1290.86	22.9772
1291.95	24.3408
1293.03	24.9169
1294.12	23.9784
1295.2	22.7172
1296.29	24.771
1297.37	22.961
1298.46	21.4733
1299.54	21.8556
1300.63	22.493
1301.71	22.8004
1302.79	24.5791
1303.88	25.1121
1304.96	22.4899
1306.04	21.5864
1306.5	22
1307.59	27
1308.68	25.5
1309.76	23
1310.85	24.5
1311.94	25.5
1313.03	22
1314.11	25
1315.2	24
1316.29	26
1317.37	25
1318.46	24.5
1319.55	25
1320.63	25.5
1321.72	26
1322.81	24
1323.89	22
1324.98	22.5
1326.06	24
1327.15	27.5
1328.23	23
1329.32	25
1330.4	27
1331.49	25.5
1332.57	23
1333.66	25
1334.74	22
1335.82	21
1336.91	25
1337.99	23.5
1339.07	25
1340.16	28
1341.24	25.5
1342.32	28.5
1343.4	26
1344.49	19
1345.57	23
1346.65	23
1347.73	24
1348.82	23
1349.9	27.5
1350.98	26
1352.06	22.5
1353.14	23
1354.22	24.5
1355.3	24.5
1356.38	22.5
1357.46	25
1358.54	27
1359.62	22
1360.7	22
1361.78	25
1362.86	21
1363.94	26
1365.02	25.5
1366.1	24
1367.18	20
1368.26	23
1369.34	26
1370.41	25
1371.49	23.5
1372.57	20
1373.65	21
1374.72	25
1375.8	23
1376.88	23.5
1377.96	23
1379.03	23.5
1380.11	22.5
1381.19	26
1382.26	23
1383.34	25
1384.42	24
1385.49	23.5
1386.57	22.5
1387.64	30.5
1388.72	26.5
1389.79	28.5
1390.87	21
1391.94	23.5
1393.02	22.5
1394.09	25
1395.17	26
1396.24	23.5
1397.31	24
1398.39	25
1399.46	29
1400.54	23
1401.61	25
1402.68	26
1403.76	27
1404.83	24
1405.9	23
1406.97	26
1408.05	27
1409.12	26.5
1410.19	27
1411.26	26.5
1412.33	25.5
1413.4	27.5
1414.48	24
1415.55	26
1416.62	30.5
1417.69	25
1418.76	26
1419.83	25
1420.9	25
1421.97	26.5
1423.04	21.5
1424.11	28
1425.18	24.5
1426.25	28.5
1427.32	25
1428.39	21.5
1429.46	25
1430.52	25
1431.59	20
1432.66	26
1433.73	24.5
1434.8	19.5
1435.87	21
1436.93	23.5
1438	24
1439.07	26.5
1440.14	20
1441.2	23
1442.27	24.5
1443.34	24
1444.4	25
1445.47	25
1446.54	24.5
1447.6	24
1448.67	27.5
1449.73	25
1450.8	23.5
1451.86	22
1452.93	24.5
1453.99	22.5
1455.06	23.5
1456.12	27.5
1457.19	26.5
1458.25	23.5
1459.32	24
1460.38	23
1461.45	24
1462.51	23.5
1463.57	27
1464.64	25
1465.7	25
1466.76	24.5
1467.82	28
1468.89	25
1469.95	26
1471.01	21
1472.07	26
1473.14	23
1474.2	24
1475.26	24
1476.32	24
1477.38	23.5
1478.44	26
1479.5	26
1480.57	23
1481.63	25.5
1482.69	22
1483.75	23
1484.81	25
1485.87	27.5
1486.93	20.5
1487.99	26.5
1489.05	27
1490.1	23
1491.17	27.5
1492.22	27.5
1493.28	25.5
1494.34	26
1495.4	19.5
1496.46	27
1497.52	25.5
1498.57	30
1499.63	24
1500.69	21
1501.75	27
1502.8	24.5
1503.86	27
1504.92	26.5
1505.98	25
1507.03	25.5
1508.09	25
1509.15	25.5
1510.2	23
1511.26	23.5
1512.31	24
1513.37	24
1514.42	26.5
1515.48	25
1516.53	25.5
1517.59	23.5
1518.64	24
1519.7	24
1520.75	25
1521.81	28.5
1522.86	27
1523.92	24
1524.97	28
1526.02	22
1527.08	24
1528.13	22
1529.18	26
1530.24	27.5
1531.29	25.5
1532.34	26
1533.39	25.5
1534.45	22
1535.5	25.5
1536.55	21.5
1537.6	26
1538.65	21
1539.71	24
1540.76	24
1541.81	26.5
1542.86	26.5
1543.91	25
1544.96	25.5
1546.01	23.5
1547.06	24.5
1548.11	21
1549.16	25.5
1550.21	23
1551.26	23
1552.31	26
1553.36	21
1554.41	26.5
1555.46	29
1556.51	26.5
1557.56	25.5
1558.6	24.5
1559.65	22.5
1560.7	25.5
1561.75	27
1562.8	23
1563.84	28
1564.89	23
1565.94	23.5
1566.99	23
1568.03	26
1569.08	23.5
1570.13	23.5
1571.17	28.5
1572.22	24
1573.27	24
1574.31	26
1575.36	26
1576.4	27
1577.45	22
1578.5	27.5
1579.54	22.5
1580.59	26
1581.63	25
1582.68	26
1583.72	26
1584.76	27
1585.81	26
1586.85	23
1587.9	20
1588.94	27
1589.98	24
1591.03	22.5
1592.07	23.5
1593.11	24.5
1594.16	26
1595.2	26
1596.24	28
1597.29	28
1598.33	28
1599.37	20
1600.41	23
1601.45	25.5
1602.49	24
1603.54	22.5
1604.58	22
1605.62	27.5
1606.66	25
1607.7	27
1608.74	22
1609.78	24
1610.82	24.5
1611.86	26.5
1612.9	28
1613.94	22
1614.98	30
1616.02	26.5
1617.06	24
1618.1	28
1619.14	25
1620.18	22.5
1621.22	24
1622.25	24.5
1623.29	27.5
1624.33	25
1625.37	24.5
1626.41	26
1627.45	23.5
1628.48	27
1629.52	27.5
1630.56	25.5
1631.59	22.5
1632.63	26.5
1633.67	24
1634.7	23
1635.74	27
1636.78	27
1637.81	29
1638.85	25.5
1639.88	23.5
1640.92	22.5
1641.96	25.5
1642.99	25
1644.03	24.5
1645.06	24.5
1646.1	26.5
1647.13	27
1648.17	22.5
1649.2	26
1650.23	24
1651.27	26.5
1652.3	24
1653.33	23
1654.37	27.5
1655.4	24
1656.44	24
1657.47	25.5
1658.5	28.5
1659.53	26.5
1660.57	26.5
1661.6	25
1662.63	27
1663.66	24
1664.69	25
1665.73	21
1666.76	23
1667.79	28
1668.82	27
1669.85	20.5
1670.88	21
1671.91	27
1672.94	22
1673.97	26
1675.01	24.5
1676.03	31
1677.07	21.5
1678.1	30.5
1679.12	24
1680.15	26
1681.18	26
1682.21	29
1683.24	23.5
1684.27	25.5
1685.3	22
1686.33	25.5
1687.36	23
1688.38	22
1689.41	21
1690.44	27.5
1691.47	23
1692.5	22
1693.52	22
1694.55	25
1695.58	24.5
1696.6	24
1697.63	23
1698.66	28
1699.68	23
1700.71	25.5
1701.74	27
1702.76	25.5
1703.79	23
1704.81	23
1705.84	24
1706.86	29
1707.89	23
1708.91	24
1709.94	25
1710.96	27.5
1711.99	23.5
1713.01	26
1714.04	27
1715.06	24
1716.08	23.5
1717.11	26
1718.13	23.5
1719.16	28.5
1720.18	24
1721.2	30
1722.22	27.5
1723.25	24
1724.27	26.5
1725.29	25.5
1726.31	27
1727.34	23
1728.36	25.5
1729.38	25
1730.4	26.5
1731.42	27
1732.44	26.5
1733.47	23.5
1734.49	25
1735.51	27.5
1736.53	28
1737.55	27.5
1738.57	28
1739.59	25
1740.61	20
1741.63	22
1742.65	22.5
1743.67	24
1744.69	27
1745.71	25
1746.73	25.5
1747.75	25.5
1748.76	28.5
1749.78	24
1750.8	24
1751.82	25
1752.84	23.5
1753.86	24
1754.87	29
1755.89	25.5
1756.91	25
1757.93	22.5
1758.94	24
1759.96	27
1760.98	26
1761.99	23.5
1763.01	26
1764.03	26
1765.04	23.5
1766.06	24.5
1767.08	20
1768.09	27.5
1769.11	24.5
1770.12	24.5
1771.14	28.5
1772.15	25.5
1773.17	27
1774.18	22.5
1775.2	25.5
1776.21	25.5
1777.23	29.5
1778.24	28
1779.25	21
1780.27	21.5
1781.28	28
1782.3	24.5
1783.31	23.5
1784.32	26.5
1785.34	27
1786.35	24.5
1787.36	24
1788.37	24
1789.39	27
1790.4	23
1791.41	22
1792.42	26
1793.43	23.5
1794.45	27
1795.46	22.5
1796.47	23.5
1797.48	22
1798.49	23.5
1799.5	21
1800.51	26.5
1801.52	26.5
1802.53	21.5
1803.54	24.5
1804.55	23
1805.56	26.5
1806.57	23
1807.58	24
1808.59	26
1809.6	27
1810.61	25
1811.62	25.5
1812.63	25.5
1813.64	26.5
1814.65	24.5
1815.66	22.5
1816.66	23
1817.67	23.5
1818.68	23.5
1819.69	24
1820.69	21
1821.7	26
1822.71	25.5
1823.72	28
1824.72	28
1825.73	26
1826.74	27.5
1827.74	24
1828.75	27.5
1829.76	30
1830.76	24
1831.77	24
1832.77	24.5
1833.78	25
1834.79	24.5
1835.79	24.5
1836.8	24.5
1837.8	25.5
1838.81	22.5
1839.81	24
1840.81	25
1841.82	23.5
1842.82	26.5
1843.83	27.5
1844.83	22
1845.83	28
1846.84	24
1847.84	23.5
1848.84	21
1849.85	25.5
1850.85	25.5
1851.85	24
1852.86	25.5
1853.86	24.5
1854.86	26.5
1855.86	23
1856.86	20
1857.87	26.5
1858.87	23
1859.87	23.5
1860.87	29
1861.87	25
1862.87	25.5
1863.88	26.5
1864.88	23
1865.88	27.5
1866.88	26.5
1867.88	27.5
1868.88	22
1869.88	24.5
1870.88	25
1871.88	24.5
1872.88	25
1873.88	27
1874.87	23
1875.87	26.5
1876.87	25.5
1877.87	25
1878.87	27
1879.87	23
1880.87	25
1881.86	28
1882.86	22.5
1883.86	26.5
1884.86	26
1885.86	23
1886.85	27
1887.85	25.5
1888.85	26.5
1889.84	26
1890.84	27.5
1891.84	24.5
1892.83	19.5
1893.83	24.5
1894.83	23
1895.82	25.5
1896.82	24
1897.81	24.5
1898.81	24.5
1899.81	26
1900.8	21
1901.8	24
1902.79	27
1903.78	23
1904.78	27
1905.77	21.5
1906.77	24.5
1907.76	24
1908.76	25
1909.75	24.5
1910.74	26
1911.74	21.5
1912.73	23
1913.72	23
1914.72	26.5
1915.71	23.5
1916.7	26.5
1917.7	23.5
1918.69	28.5
1919.68	25.5
1920.67	29.5
1921.66	27
1922.66	25
1923.65	24
1924.64	26.5
1925.63	23.5
1926.62	22
1927.61	24.5
1928.6	25
1929.59	28
1930.59	22
1931.58	27.5
1932.57	25.5
1933.56	23.5
1934.55	21.5
1935.54	27
1936.53	24.5
1937.52	26
1938.51	24
1939.49	22
1940.48	25
1941.47	26.5
1942.46	25
1943.45	23
1944.44	24
1945.43	23
1946.42	23.5
1947.4	24
1948.39	25.25
1949.38	24
1950.37	23.5
1951.35	21.5
1952.34	23
1953.33	24
1954.31	23.5
1955.3	24.5
1956.29	26
1957.27	25.5
1958.26	27.5
1959.25	24.5
1960.23	23
1961.22	26
1962.21	23.5
1963.19	26
1964.18	26
1965.16	28.5
1966.15	20.5
1967.13	22.5
1968.12	26
1969.1	26
1970.09	24
1971.07	20.5
1972.05	25
1973.04	20.5
1974.02	20
1975.01	23
1975.99	26.5
1976.97	25
1977.96	21.5
1978.94	22.5
1979.92	23
1980.91	28.5
1981.89	25
1982.87	24
1983.85	25.5
1984.84	26.5
1985.82	26
1986.8	22.5
1987.78	21.5
1988.76	22.5
1989.74	22
1990.73	27
1991.71	23
1992.69	24.5
1993.67	22.5
1994.65	23.5
1995.63	22.5
1996.61	26
1997.59	25.5
1998.57	23.5
1999.55	26
2000.53	25.5
2001.51	23.5
2002.49	25
2003.47	24
2004.45	23
2005.43	22.5
2006.41	25
2007.39	21
2008.37	25
2009.34	19
2010.32	22
2011.3	23
2012.28	24
2013.26	22.5
2014.23	23.5
2015.21	23
2016.19	22.5
2017.17	19.5
2018.14	26
2019.12	26
2020.1	24
2021.07	25
2022.05	22
2023.03	26
2024	25
2024.98	20.5
2025.96	21.5
2026.93	22.5
2027.91	25
2028.88	25
2029.86	24.5
2030.83	23
2031.81	21
2032.78	21.5
2033.76	24.5
2034.73	22
2035.71	25
2036.68	28.5
2037.66	25.5
2038.63	25
2039.6	28
2040.58	22.5
2041.55	18
2042.52	26
2043.5	23.5
2044.47	25
2045.44	22
2046.42	24
2047.39	20.5
2048.36	21.5
2049.33	23.5
2050.31	26.5
2051.28	21.5
2052.25	21
2053.22	24
2054.19	25
2055.17	23.5
2056.14	26
2057.11	21.5
2058.08	22.5
2059.05	23
2060.02	24
2060.99	24
2061.96	22
2062.93	22.5
2063.9	22
2064.87	24.5
2065.84	24
2066.81	26.5
2067.78	23.5
2068.75	24
2069.72	24.5
2070.69	23.5
2071.66	26
2072.63	25
2073.6	24
2074.56	25.5
2075.53	23
2076.5	23.5
2077.47	24
2078.44	23.5
2079.4	23.5
2080.37	22
2081.34	23.5
2082.31	23.5
2083.27	22.5
2084.24	20
2085.21	25.5
2086.18	24.5
2087.14	24
2088.11	22.5
2089.07	24.5
2090.04	18.5
2091.01	24.5
2091.97	24.5
2092.94	20
2093.9	23
2094.87	24.5
2095.83	22.5
2096.8	24
2097.76	24
2098.73	22
2099.69	26
2100.66	25
2101.62	22.5
2102.59	24.5
2103.55	23.5
2104.52	24.5
2105.48	22
2106.44	20
2107.41	23.5
2108.37	24.5
2109.33	23
2110.3	23
2111.26	22
2112.22	23
2113.18	24.5
2114.15	22.5
2115.11	24
2116.07	24.5
2117.03	24
2118	26
2118.96	25
2119.92	24
2120.88	26
2121.84	24
2122.8	25
2123.76	22.5
2124.72	24
2125.68	24
2126.65	24
2127.61	24.5
2128.57	22.5
2129.53	24
2130.49	24.5
2131.45	21
2132.41	23
2133.36	23
2134.32	23.5
2135.28	25
2136.24	26
2137.2	21.5
2138.16	23
2139.12	18.5
2140.08	21.5
2141.04	25.5
2141.99	25.5
2142.95	25.9698
2143.91	22.4694
2144.87	26.9667
2145.83	22.5725
2146.78	26.8136
2147.74	20.5667
2148.7	24.4239
2149.66	25.2072
2150.61	24.6286
2151.57	25.0233
2152.53	24.109
2153.48	23.2961
2154.44	22.8552
2155.4	21.8453
2156.35	22.2948
2157.31	21.7108
2158.26	23.5554
2159.22	20.5412
2160.17	23.399
2161.13	20.0266
2162.08	25.3489
2163.04	25.3632
2163.99	24.815
2164.95	25.6556
2165.9	24.339
2166.86	22.4764
2167.81	23.5502
2168.77	22.267
2169.72	21.4198
2170.67	24.8391
2171.63	25.5667
2172.58	22.6875
2173.54	23.8422
2174.49	20.3579
2175.44	23.4498
2176.39	17.8319
2177.35	21.6456
2178.3	22.2363
2179.25	21.3043
2180.2	20.8655
2181.16	23.1934
2182.11	22.7985
2183.06	23.7808
2184.01	23.8958
2184.96	21.9587
2185.92	24.0033
2186.87	25.1989
2187.82	22.706
2188.77	21.7846
2189.72	22.2529
2190.67	23.9635
2191.62	24.1246
2192.57	20.4377
2193.52	22.8713
2194.47	24.2962
2195.42	23.795
2196.37	22.3135
2197.32	23.3997
2198.27	22.7138
2199.22	23.1651
2200.17	23.0115
2201.12	24.6598
2202.07	22.0886
2203.02	21.9175
2203.97	20.3738
2204.92	21.9855
2205.87	20.4929
2206.81	23.2701
2207.76	25.3732
2208.71	22.3239
2209.66	22.6217
2210.61	21.7902
2211.55	22.1536
2212.5	21.7629
2213.45	20.0026
2214.4	21.1701
2215.34	22.9775
2216.29	21.6367
2217.24	19.7353
2218.18	20.7062
2219.13	21.4272
2220.08	23.5794
2221.02	21.5427
2221.97	21.8786
2222.92	25.0503
2223.86	22.5207
2224.81	22.7364
2225.75	22.2252
2226.7	23.7033
2227.64	25.7559
2228.59	25.1014
2229.53	23.1472
2230.48	18.9491
2231.42	20.9331
2232.37	23.0684
2233.31	24.6762
2234.26	23.9431
2235.2	23.5004
2236.14	23.0348
2237.09	23.051
2238.03	23.7892
2238.97	23.6169
2239.92	23.916
2240.05	24
2241	17.5
2241.95	20
2242.89	24.5
2243.84	23
2244.79	24
2245.74	22.5
2246.68	19.5
2247.63	16.5
2248.58	24.5
2249.53	22
2250.47	20
2251.42	24.5
2252.36	24
2253.31	22
2254.26	21
2255.2	22
2256.15	23
2257.1	25
2258.04	22
2258.99	20.5
2259.93	23
2260.88	21
2261.82	24
2262.77	25
2263.71	23.5
2264.66	23
2265.6	21
2266.55	23
2267.49	22
2268.43	22.5
2269.38	22.5
2270.32	26.5
2271.26	25.5
2272.21	23.5
2273.15	23
2274.09	24
2275.04	24.5
2275.98	22
2276.92	28
2277.87	26
2278.81	26.5
2279.75	27
2280.69	19.5
2281.64	23.5
2282.58	21.5
2283.52	25
2284.46	23
2285.4	20
2286.34	22
2287.29	25
2288.23	24
2289.17	19
2290.11	24.5
2291.05	22
2291.99	24.5
2292.93	22.5
2293.87	22
2294.81	25.5
2295.75	24
2296.69	21
2297.63	26
2298.57	25
2299.51	21.5
2300.45	26.5
2301.39	18
2302.33	25
2303.27	23
2304.2	21
2305.14	23.5
2306.08	23
2307.02	22
2307.96	21
2308.9	18
2309.83	23.5
2310.77	20.5
2311.71	24.5
2312.65	22.5
2313.58	22.5
2314.52	27
2315.46	20.5
2316.39	23
2317.33	22
2318.27	22
2319.21	23.5
2320.14	22
2321.08	25.5
2322.01	24
2322.95	24.5
2323.89	26.5
2324.82	23
2325.76	24.5
2326.69	26.5
2327.63	22
2328.56	26
2329.5	28
2330.43	22.5
2331.37	24.5
2332.3	20
2333.24	27
2334.17	28
2335.1	23
2336.04	25
2336.97	22
2337.91	25
2338.84	26
2339.77	22
2340.71	23.5
2341.64	27
2342.57	21
2343.51	21.5
2344.44	26
2345.37	24
2346.3	21.5
2347.24	24
2348.17	23.5
2349.1	23
2350.03	23.5
2350.96	20
2351.89	22
2352.83	23.5
2353.76	26.5
2354.69	26.5
2355.62	23.5
2356.55	20
2357.48	21.5
2358.41	22.5
2359.34	24
2360.27	24
2361.2	24.5
2362.13	26
2363.06	23
2363.99	26
2364.92	22.5
2365.85	24.5
2366.78	26.5
2367.71	25
2368.64	24.5
2369.57	22
2370.5	23
2371.43	24.5
2372.36	20
2373.28	23.5
2374.21	24.5
2375.14	16.5
2376.07	20.5
2377	24.5
2377.93	23
2378.85	26.5
2379.78	23
2380.71	24
2381.63	22.5
2382.56	23.5
2383.49	23.5
2384.42	26
2385.34	22.5
2386.27	25.5
2387.2	24.5
2388.12	25.5
2389.05	24
2389.97	25.5
2390.9	24
2391.82	22
2392.75	21
2393.68	21.5
2394.6	21.5
2395.53	26
2396.45	21.5
2397.38	23.5
2398.3	24
2399.23	26
2400.15	22.5
2401.07	24.5
2402	25
2402.92	25.5
2403.85	25.5
2404.77	27.5
2405.69	29
2406.62	21.5
2407.54	22.5
2408.46	23.5
2409.39	26.5
2410.31	25
2411.23	23
2412.16	22.5
2413.08	21
2414	23
2414.92	25.5
2415.85	24
2416.77	26
2417.69	22.5
2418.61	23.5
2419.53	24
2420.45	22
2421.38	23.5
2422.3	23.5
2423.22	23
2424.14	21.5
2425.06	21.5
2425.98	27.5
2426.9	26
2427.82	24
2428.74	24.5
2429.66	22.5
2430.58	24
2431.5	22
2432.42	23
2433.34	22
2434.26	23
2435.18	24
2436.1	23.5
2437.02	25
2437.94	24.5
2438.85	21
2439.77	19
2440.69	25
2441.61	27.5
2442.53	24.5
2443.45	23
2444.36	22.5
2445.28	24
2446.2	25.5
2447.12	23.5
2448.03	24
2448.95	23.5
2449.87	25.5
2450.79	26
2451.7	22.5
2452.62	23
2453.54	24.5
2454.45	25.5
2455.37	23
2456.28	23
2457.2	25
2458.12	24
2459.03	23
2459.95	26
2460.86	22
2461.78	22
2462.69	24
2463.61	22.5
2464.52	27.5
2465.44	22.5
2466.35	25
2467.27	26.5
2468.18	23
2469.1	22.5
2470.01	24.5
2470.93	24.5
2471.84	22.5
2472.75	25.5
2473.67	26
2474.58	23
2475.49	23.5
2476.41	26
2477.32	26
2478.23	23
2479.15	26
2480.06	26.5
2480.97	21
2481.88	25.5
2482.79	24.5
2483.71	22.5
2484.62	25.5
2485.53	22.5
2486.44	22.5
2487.35	22
2488.26	27
2489.18	26.5
2490.09	21
2491	24
2491.91	25.5
2492.82	23
2493.73	25
2494.64	30
2495.55	21.5
2496.46	25.5
2497.37	26.5
2498.28	24.5
2499.19	25
2500.1	26
2501.01	26.5
2501.92	26
2502.83	27
2503.74	27.5
2504.65	26.5
2505.56	26.5
2506.47	25.5
2507.37	23
2508.28	25
2509.19	24.5
2510.1	23
2511.01	24
2511.92	30
2512.82	22
2513.73	23
2514.64	25
2515.55	26
2516.45	29
2517.36	21.5
2518.27	22.5
2519.17	23.5
2520.08	23.5
2520.99	27
2521.89	22
2522.8	20.5
2523.71	26
2524.61	22
2525.52	24.5
2526.42	25.5
2527.33	23
2528.24	25.5
2529.14	26
2530.05	24.5
2530.95	28.5
2531.86	21.5
2532.76	25
2533.67	23.5
2534.57	26
2535.48	24.5
2536.38	25
2537.28	23.5
2538.19	27
2539.09	26
2540	25.5
2540.9	27.5
2541.8	26.5
2542.71	19
2543.61	25.5
2544.51	24.5
2545.42	25.5
2546.32	20
2547.22	24.5
2548.12	21.5
2549.03	21.5
2549.93	26
2550.83	25
2551.73	23
2552.63	24.5
2553.54	24
2554.44	23.5
2555.34	26
2556.24	28
2557.14	20
2558.04	25
2558.94	24
2559.85	20
2560.75	18
2561.65	25
2562.55	25
2563.45	26
2564.35	24
2565.25	24.5
2566.15	26.5
2567.05	25.5
2567.95	20
2568.85	26
2569.75	25.5
2570.65	19.5
2571.55	22.5
2572.44	24
2573.34	24
2574.24	23
2575.14	24.5
2576.04	24.5
2576.94	26.5
2577.84	25
2578.73	24
2579.63	24
2580.53	23.5
2581.43	22.5
2582.33	25
2583.22	25.5
2584.12	25
2585.02	25.5
2585.91	24
2586.81	25.5
2587.71	25
2588.6	25
2589.5	27
2590.4	26.5
2591.29	26
2592.19	25
2593.09	24.5
2593.98	27.5
2594.88	25.5
2595.77	26
2596.67	22
2597.56	24
2598.46	23
2599.35	26
2600.25	22
2601.14	20.5
2602.04	18.5
2602.93	26
2603.83	25.5
2604.72	24
2605.62	26.5
2606.51	26
2607.4	26
2608.3	25
2609.19	25
2610.09	24.5
2610.98	22.5
2611.87	25
2612.76	26
2613.66	24.5
2614.55	25
2615.44	27.5
2616.34	22.5
2617.23	22
2618.12	26
2619.01	26.5
2619.9	23.5
2620.8	27
2621.69	24
2622.58	22
2623.47	23.5
2624.36	25
2625.25	22
2626.15	23
2627.04	24
2627.93	27
2628.82	26.5
2629.71	25.5
2630.6	24
2631.49	27.5
2632.38	26
2633.27	26.5
2634.16	23.5
2635.05	22.5
2635.94	22
2636.83	23.5
2637.72	25.5
2638.61	24
2639.5	27
2640.39	21
2641.28	25.5
2642.16	23
2643.05	24.5
2643.94	22.5
2644.83	27.5
2645.72	22
2646.61	24
2647.49	24
2648.38	21.5
2649.27	23.5
2650.16	27
2651.05	22
2651.93	22.5
2652.82	25
2653.71	24.5
2654.59	23
2655.48	28
2656.37	25.5
2657.25	24.5
2658.14	23
2659.03	23.5
2659.91	25
2660.8	22
2661.69	24.5
2662.57	25
2663.46	25
2664.34	24.5
2665.23	24
2666.11	23.5
2667	26.5
2667.88	25
2668.77	25
2669.65	22.5
2670.54	23
2671.42	25
2672.31	28
2673.19	22.5
2674.08	24.5
2674.96	23.5
2675.84	27.5
2676.73	24.5
2677.61	26
2678.49	25
2679.38	29
2680.26	24
2681.14	24
2682.03	26.5
2682.91	27.5
2683.79	26
2684.68	26
2685.56	21.5
2686.44	25.5
2687.32	25
2688.2	22
2689.09	24
2689.97	25
2690.85	20.5
2691.73	25.5
2692.61	22.5
2693.49	24.5
2694.38	27
2695.26	26.5
2696.14	21.5
2697.02	25.5
2697.9	26
2698.78	23
2699.66	27.5
2700.54	22
2701.42	26
2702.3	21.5
2703.18	21
2704.06	26
2704.94	25
2705.82	23
2706.7	25
2707.58	23.5
2708.46	21
2709.34	28
2710.21	29
2711.09	23
2711.97	27
2712.85	25
2713.73	22.5
2714.61	24.5
2715.49	26.5
2716.36	25
2717.24	18
2718.12	24.5
2719	19
2719.87	26
2720.75	25.5
2721.63	23
2722.51	27
2723.38	24
2724.26	22
2725.14	24
2726.01	26
2726.89	24.5
2727.77	26.5
2728.64	26
2729.52	26
2730.39	20.5
2731.27	26.5
2732.15	26
2733.02	27.5
2733.9	25
2734.77	24
2735.65	26
2736.52	26.5
2737.4	20.5
2738.27	22
2739.15	23.5
2740.02	24.5
2740.89	20
2741.77	25
2742.64	21.5
2743.52	22.5
2744.39	24
2745.27	20
2746.14	28
2747.01	20.5
2747.89	27
2748.76	27
2749.63	23
2750.51	23
2751.38	25.5
2752.25	23
2753.12	23.5
2754	21
2754.87	24
2755.74	21
2756.61	24
2757.48	23.5
2758.36	22.5
2759.23	25
2760.1	24
2760.97	23.5
2761.84	23
2762.71	26
2763.59	20.5
2764.46	23.5
2765.33	26
2766.2	26
2767.07	28
2767.94	25.5
2768.81	26
2769.68	27.5
2770.55	22
2771.42	24.5
2772.29	23.5
2773.16	26.5
2774.03	26
2774.9	20
2775.77	22
2776.64	23.5
2777.51	25.5
2778.37	22
2779.24	25
2780.11	19
2780.98	27
2781.85	26
2782.72	25.5
2783.59	24
2784.45	25.5
2785.32	27
2786.19	28
2787.06	25
2787.92	24.5
2788.79	23.5
2789.66	21.5
2790.53	21.5
2791.39	21
2792.26	25
2793.13	26.5
2793.99	22
2794.86	26
2795.73	23
2796.59	23.5
2797.46	24
2798.33	25
2799.19	23
2800.06	21.5
2800.92	23
2801.79	23
2802.65	21.5
2803.52	23.5
2804.39	24
2805.25	23.5
2806.11	24.5
2806.98	24
2807.84	28
2808.71	22.5
2809.57	28
2810.44	25
2811.3	24
2812.17	27
2813.03	22
2813.89	29
2814.76	22
2815.62	26
2816.49	25.5
2817.35	26.5
2818.21	23.5
2819.07	26.5
2819.94	26
2820.8	26
2821.66	28.5
2822.53	24
2823.39	19
2824.25	25.5
2825.11	22.5
2825.97	25
2826.84	19.5
2827.7	24.5
2828.56	26
2829.42	26
2830.28	25.5
2831.14	24.5
2832.01	24.5
2832.87	26
2833.73	26
2834.59	24
2835.45	22
2836.31	24
2837.17	23.5
2838.03	24
2838.89	22.5
2839.75	22.5
2840.61	23
2841.47	25
2842.33	25.5
2843.19	24.5
2844.05	25
2844.91	24
2845.77	22.5
2846.63	26.5
2847.48	22.5
2848.34	25
2849.2	23.5
2850.06	22.5
2850.92	26.5
2851.78	23.5
2852.64	21
2853.49	25.5
2854.35	24
2855.21	22.5
2856.07	24.5
2856.93	24
2857.78	20.5
2858.64	23.5
2859.5	23.5
2860.35	19
2861.21	24
2862.07	23.5
2862.93	27
2863.78	25.5
2864.64	25.5
2865.49	25.5
2866.35	27.5
2867.21	24.5
2868.06	22.5
2868.92	23
2869.77	26
2870.63	23
2871.49	24
2872.34	29
2873.2	25
2874.05	28
2874.91	25.5
2875.76	24.5
2876.62	30
2877.47	27
2878.32	24.5
2879.18	27.5
2880.03	28.5
2880.89	31
2881.74	26
2882.6	24
2883.45	26
2884.3	24
2885.16	24
2886.01	25
2886.86	27.5
2887.72	23
2888.57	25
2889.42	26.5
2890.27	24.5
2891.13	28.5
2891.98	27.5
2892.83	27.5
2893.68	24.5
2894.54	26.5
2895.39	31.5
2896.24	29
2897.09	29
2897.94	30
2898.8	31.5
2899.65	29.5
2900.5	31
2901.35	32
2902.2	30.5
2903.05	34.5
2903.9	33
2904.75	28
2905.6	31
2906.45	33.5
2907.3	33.5
2908.15	29.5
2909.01	35
2909.85	29
2910.7	32.5
2911.55	31
2912.4	32.5
2913.25	31
2914.1	30
2914.95	26
2915.8	29.5
2916.65	27.5
2917.5	28
2918.35	24
2919.2	30.5
2920.04	27.5
2920.89	25.5
2921.74	24
2922.59	20.5
2923.44	27.5
2924.29	23
2925.13	28
2925.98	22.5
2926.83	26.5
2927.68	24.5
2928.52	23
2929.37	25
2930.22	24.5
2931.06	26
2931.91	23.5
2932.76	25
2933.6	26.5
2934.45	28
2935.3	26
2936.14	24
2936.99	22.5
2937.83	22.5
2938.68	23.5
2939.53	27.5
2940.37	24.5
2941.22	24
2942.06	22
2942.91	25
2943.75	25
2944.6	24.5
2945.44	29.5
2946.29	22.5
2947.13	25
2947.98	21
2948.82	24
2949.66	21.5
2950.51	27
2951.35	27
2952.2	24
2953.04	26
2953.88	25
2954.73	25.5
2955.57	25
2956.41	27
2957.26	23
2958.1	27.5
2958.94	26.5
2959.79	27
2960.63	23
2961.47	27.5
2962.31	28
2963.15	28.5
2964	30
2964.84	28
2965.68	27.5
2966.52	28
2967.37	25
2968.21	29
2969.05	20
2969.89	21.5
2970.73	25
2971.57	23.0218
2972.41	23.9587
2973.25	24.5229
2974.09	25.034
2974.93	23.0729
2975.77	25.0677
2976.62	20.2716
2977.46	23.8091
2978.3	23.6808
2979.14	25.0325
2979.98	23.687
2980.81	23.3635
2981.65	22.3175
2982.49	23.6897
2983.33	22.5074
2984.17	24.6628
2985.01	24.0101
2985.85	27.0568
2986.69	18.5719
2987.53	20.4964
2988.37	22.1994
2989.21	24.7065
2990.04	23.1723
2990.88	22.5661
2991.72	23.9568
2992.56	24.2662
2993.4	24.9883
2994.23	23.0684
2995.07	22.6179
2995.91	23.8263
2996.75	24.2588
2997.58	23.2651
2998.42	22.1946
2999.26	22.0672
3000.1	23.1839
3000.93	22.7046
3001.77	24.5391
3002.61	24.5898
3003.44	21.2538
3004.28	23.23
3005.11	22.1173
3005.95	23.2647
3006.79	23.1875
3007.62	22.067
3008.46	23.1359
3009.29	23.544
3010.13	21.1736
3010.97	20.7689
3011.8	20.3376
3012.64	19.7714
3013.47	23.5055
3014.31	23.6326
3015.14	21.0394
3015.98	23.2193
3016.81	23.7034
3017.64	23.1277
3018.48	21.6456
3019.31	20.6572
3020.15	21.2961
3020.98	21.6502
3021.82	19.3604
3022.65	22.4666
3023.48	21.0375
3024.32	20.9821
3025.15	22.2692
3025.98	22.0461
3026.82	22.9175
3027.65	22.0442
3028.48	22.4384
3029.31	22.7887
3030.15	24.2627
3030.98	22.5861
3031.81	21.5559
3032.64	22.7007
3033.48	24.0534
3034.31	24.7007
3035.14	24.8766
3035.97	22.2529
3036.8	22.1189
3037.64	22.3024
3038.47	22.5794
3039.3	22.6227
3040.13	20.8672
3040.96	21.647
3041.79	22.4573
3042.62	22.9445
3043.45	23.236
3044.28	21.5094
3045.12	21.7266
3045.95	22.2297
3046.78	22.1945
3047.61	23.376
3048.44	21.9198
3049.27	20.7245
3050.1	21.2434
3050.92	20.8675
3051.75	23.5355
3052.58	23.2884
3053.41	24.5598
3054.24	24.1035
3055.07	21.3886
3055.9	21.9709
3056.73	23.6241
3057.26	26.5
3058.09	21.5
3058.93	22
3059.76	23
3060.59	26
3061.43	19
3062.26	23
3063.09	21.5
3063.92	19
3064.76	21
3065.59	22
3066.42	21.5
3067.25	25.5
3068.08	23.5
3068.92	21.5
3069.75	23
3070.58	22.5
3071.41	20.5
3072.24	23
3073.07	20
3073.9	24
3074.73	23.5
3075.57	21.5
3076.4	22
3077.23	21
3078.06	22.5
3078.89	22.5
3079.72	20.5
3080.55	21.5
3081.38	24
3082.21	26
3083.04	28
3083.87	16
3084.7	27.5
3085.53	23
3086.36	23
3087.19	18
3088.01	27
3088.84	21.5
3089.67	22.5
3090.5	22
3091.33	22
3092.16	21.5
3092.99	23.5
3093.81	23.5
3094.64	24
3095.47	22
3096.3	21.5
3097.13	23.5
3097.95	22
3098.78	20.5
3099.61	21.5
3100.44	21.5
3101.26	23.5
3102.09	23
3102.92	21
3103.74	21.5
3104.57	24.5
3105.4	17.5
3106.22	21
3107.05	21.5
3107.88	23
3108.7	25
3109.53	20
3110.35	20
3111.18	24
3112.01	23
3112.83	24
3113.66	21
3114.48	21
3115.31	24
3116.13	20.5
3116.96	24.5
3117.78	22
3118.61	18
3119.43	29
3120.26	22
3121.08	23.5
3121.9	22
3122.73	26.5
3123.55	23.5
3124.38	23.5
3125.2	20.5
3126.02	21
3126.85	20
3127.67	22
3128.49	27
3129.32	24
3130.14	24
3130.96	20
3131.79	23.5
3132.61	22
3133.43	21
3134.25	26
3135.08	23
3135.9	23
3136.72	23
3137.54	20.5
3138.37	23
3139.19	20
3140.01	25
3140.83	25
3141.65	22.5
3142.47	27
3143.29	25
3144.12	26
3144.94	23.5
3145.76	25
3146.58	25.5
3147.4	24.5
3148.22	23
3149.04	24
3149.86	23.5
3150.68	20.5
3151.5	24.5
3152.32	24.5
3153.14	23
3153.96	22
3154.78	21
3155.6	23
3156.42	23.5
3157.24	19.5
3158.06	20
3158.88	21.5
3159.7	24.5
3160.51	24
3161.33	26.5
3162.15	22.5
3162.97	19.5
3163.79	24
3164.61	24
3165.42	23
3166.24	25
3167.06	21.5
3167.88	24
3168.7	24.5
3169.51	26.5
3170.33	25.5
3171.15	24
3171.97	22.5
3172.78	19
3173.6	26.5
3174.42	22.5
3175.23	23
3176.05	18
3176.87	26
3177.68	21
3178.5	23.5
3179.32	24
3180.13	23.5
3180.95	25
3181.76	22
3182.58	20
3183.4	25
3184.21	23
3185.03	23.5
3185.84	24.5
3186.66	21.5
3187.47	28
3188.29	24
3189.1	19.5
3189.92	23
3190.73	22
3191.55	20
3192.36	23.5
3193.17	23.5
3193.99	21.5
3194.8	24.5
3195.62	24.5
3196.43	25.5
3197.24	20.5
3198.06	27
3198.87	18.5
3199.68	23
3200.5	28
3201.31	22
3202.12	25
3202.94	21
3203.75	23.5
3204.56	21.5
3205.38	23
3206.19	24
3207	24
3207.81	21
3208.62	27
3209.44	24
3210.25	24
3211.06	25.5
3211.87	21
3212.68	24.5
3213.49	23.5
3214.31	26.5
3215.12	24
3215.93	23
3216.74	22
3217.55	26
3218.36	28
3219.17	21.5
3219.98	28.5
3220.79	22
3221.6	23.5
3222.41	24
3223.22	23.5
3224.03	21.5
3224.84	26.5
3225.65	25
3226.46	24.5
3227.27	22
3228.08	24
3228.89	23.5
3229.7	28.5
3230.51	25.5
3231.32	25
3232.13	23.5
3232.94	27.5
3233.74	24
3234.55	23
3235.36	25
3236.17	26.5
3236.98	20.5
3237.78	26
3238.59	22
3239.4	18
3240.21	23
3241.02	25
3241.82	23.5
3242.63	22
3243.44	27
3244.25	25
3245.05	25.5
3245.86	21
3246.67	22
3247.47	23.5
3248.28	23.5
3249.09	26
3249.89	23.5
3250.7	22.5
3251.5	21.5
3252.31	25
3253.12	26
3253.92	21.5
3254.73	25
3255.53	27
3256.34	23
3257.14	23
3257.95	23
3258.75	26
3259.56	26.5
3260.36	22
3261.17	22.5
3261.97	23.5
3262.78	26
3263.58	23.5
3264.39	23.5
3265.19	23
3265.99	25
3266.8	22.5
3267.6	23
3268.41	22.5
3269.21	23.5
3270.01	22
3270.82	23.5
3271.62	25
3272.42	23
3273.23	24.5
3274.03	20.5
3274.83	23.5
3275.64	24.5
3276.44	24
3277.24	20
3278.04	24
3278.85	20.5
3279.65	23.5
3280.45	23.5
3281.25	22
3282.05	21.5
3282.85	24.5
3283.66	23
3284.46	24
3285.26	27
3286.06	23
3286.86	24
3287.66	23.5
3288.46	24
3289.27	27
3290.07	21
3290.87	21.5
3291.67	25
3292.47	25
3293.27	22
3294.07	23.5
3294.87	28
3295.67	23
3296.47	23
3297.27	26.5
3298.07	25.5
3298.87	24.5
3299.67	23
3300.47	25.5
3301.26	19.5
3302.06	23.5
3302.86	26.5
3303.66	26.5
3304.46	21.5
3305.26	22.5
3306.06	20.5
3306.86	24
3307.65	23.5
3308.45	23.5
3309.25	25
3310.05	25.5
3310.85	23
3311.64	22
3312.44	24
3313.24	23
3314.04	23
3314.83	23.5
3315.63	24
3316.43	23
3317.22	24
3318.02	26
3318.82	22.5
3319.62	25
3320.41	23.5
3321.21	20.5
3322	24
3322.8	19
3323.6	24
3324.39	25
3325.19	21
3325.98	24.5
3326.78	24
3327.58	23
3328.37	26
3329.17	24
3329.96	19.5
3330.76	22.5
3331.55	26
3332.35	20
3333.14	22
3333.94	22.5
3334.73	26.5
3335.52	22
3336.32	23.5
3337.11	26
3337.91	24
3338.7	21
3339.5	26.5
3340.29	26.5
3341.08	26.5
3341.88	24
3342.67	21
3343.46	26.5
3344.26	26
3345.05	26.5
3345.84	27.5
3346.63	27
3347.43	25
3348.22	22.5
3349.01	24
3349.8	24
3350.6	26
3351.39	21.5
3352.18	23
3352.97	21
3353.77	27
3354.56	25.5
3355.35	21.5
3356.14	22
3356.93	20
3357.72	26
3358.51	23.5
3359.31	24.5
3360.1	26
3360.89	26
3361.68	23
3362.47	24.5
3363.26	20.5
3364.05	24
3364.84	23
3365.63	26.5
3366.42	30
3367.21	23
3368	25.5
3368.79	23.5
3369.58	24.5
3370.37	26.5
3371.16	19.5
3371.95	23
3372.74	24
3373.53	23
3374.32	26
3375.1	27
3375.89	23.5
3376.68	26
3377.47	25
3378.26	24.5
3379.05	26.5
3379.84	25
3380.62	25.5
3381.41	22.5
3382.2	21.5
3382.99	23.5
3383.78	25
3384.56	22.5
3385.35	27
3386.14	25.5
3386.93	25
3387.71	23
3388.5	19.5
3389.29	22.5
3390.07	23.5
3390.86	21.5
3391.65	25.5
3392.43	23.5
3393.22	25
3394.01	20
3394.79	27.5
3395.58	23
3396.36	20.5
3397.15	24
3397.94	21
3398.72	22
3399.51	26.5
3400.29	23
3401.08	26
3401.86	26
3402.65	23
3403.43	26.5
3404.22	27
3405	24.5
3405.79	24
3406.57	24
3407.36	23.5
3408.14	24.5
3408.93	28
3409.71	22.5
3410.49	27.5
3411.28	28
3412.06	23.5
3412.84	25.5
3413.63	22
3414.41	26.5
3415.2	23
3415.98	27.5
3416.76	23
3417.54	22
3418.33	20
3419.11	24.5
3419.89	25.5
3420.68	21.5
3421.46	25
3422.24	23.5
3423.02	28
3423.81	26.5
3424.59	25.5
3425.37	24.5
3426.15	24
3426.93	25.5
3427.71	19
3428.5	25
3429.28	25.5
3430.06	24
3430.84	24
3431.62	26
3432.4	25.5
3433.18	23.5
3433.96	24.5
3434.75	22.5
3435.53	27.5
3436.31	28.5
3437.09	23
3437.87	27.5
3438.65	22.5
3439.43	30.5
3440.21	24
3440.99	24
3441.77	23.5
3442.55	22.5
3443.33	24
3444.1	26
3444.88	26.5
3445.66	22.5
3446.44	24
3447.22	27
3448	22
3448.78	24.5
3449.56	25
3450.34	24
3451.11	25
3451.89	26
3452.67	22.5
3453.45	24.5
3454.23	23.5
3455	23
3455.78	23
3456.56	28
3457.34	24.5
3458.11	24
3458.89	22.5
3459.67	27
3460.45	21.5
3461.22	20
3462	24
3462.78	21.5
3463.55	22.5
3464.33	22.5
3465.11	23
3465.88	23.5
3466.66	21
3467.44	25
3468.21	27
3468.99	22
3469.76	24
3470.54	23
3471.32	20.5
3472.09	22.5
3472.87	22
3473.64	22
3474.42	24
3475.19	24
3475.97	27
3476.74	28
3477.52	24.5
3478.29	21
3479.07	23.5
3479.84	24.5
3480.61	21
3481.39	21
3482.16	23.5
3482.94	21.5
3483.71	25
3484.48	25.5
3485.26	24
3486.03	24
3486.81	23
3487.58	27
3488.35	26.5
3489.13	26.5
3489.9	25
3490.67	23
3491.44	28
3492.22	28
3492.99	19.5
3493.76	20
3494.54	20.5
3495.31	23
3496.08	22
3496.85	25
3497.62	22.5
3498.4	22.5
3499.17	26
3499.94	22
