#Acq. time (s)=	5
#Accumulations=	5
#Range (cm-¹)=	100...3500
#Windows=	4
#Autofocus=	Off
#AutoExposure=	Off
#Spike filter=	Multiple accum.
#Delay time (s)=	0
#Binning=	1
#Readout mode=	Signal
#DeNoise=	Off
#ICS correction=	Off
#Dark correction=	Off
#Inst. Process=	Off
#Instrument=	LabRAM HR Evol
#Detector=	Syncerity OE
#Objective=	x100_VIS
#Grating=	600 (500nm)
#ND Filter=	25%
#Laser=	633nm_Edge
#Hole=	100.021
#Range=	Visible
#Project=	verificaciones
#Sample=	at3
#Site=	plain
#Title=	bolusat3plain
#Remark=	com
#Date=	16.01.2026 16:38
#Acquired=	16.01.2026 16:38:27
100.564	29.5
101.847	32
103.131	31.5
104.414	30
105.697	34
106.979	31
108.262	28.5
109.544	28
110.826	31
112.109	30
113.391	29
114.672	34
115.954	31
117.235	32
118.515	29.5
119.796	29.5
121.076	29.5
122.357	31.5
123.637	33
124.916	29.5
126.196	35.5
127.475	32
128.754	32
130.033	33.5
131.31	36
132.589	34
133.867	34.5
135.145	35.5
136.423	38.5
137.701	38
138.978	34
140.256	37
141.533	34
142.809	37
144.086	32.5
145.361	39
146.637	39.5
147.913	39
149.189	42.5
150.464	39.5
151.74	36.5
153.014	39
154.288	38.5
155.563	44.5
156.838	32
158.112	41.5
159.385	41.5
160.659	38
161.932	41
163.206	41
164.479	39.5
165.751	37.5
167.024	40
168.296	41
169.567	39.5
170.84	40
172.112	39
173.383	36
174.654	39.5
175.925	38.5
177.196	43.5
178.466	43
179.737	42.5
181.007	36.5
182.276	40
183.546	44.5
184.816	38
186.085	40
187.354	42
188.624	37
189.891	43.5
191.16	43.5
192.427	41
193.696	40
194.964	40.5
196.231	40
197.499	41
198.765	34.5
200.033	37.5
201.298	38
202.566	40
203.831	41
205.098	36.5
206.363	37
207.629	40.5
208.894	36
210.159	39
211.424	33
212.689	38
213.953	32.5
215.218	35.5
216.481	35
217.746	31
219.009	33
220.273	30.5
221.536	34
222.798	37
224.062	31.5
225.323	30
226.587	28
227.848	36.5
229.109	29.5
230.372	33.5
231.633	33
232.894	29.5
234.156	29.5
235.416	32.5
236.678	33
237.937	28.5
239.197	31
240.457	32.5
241.717	31
242.976	28
244.235	30.5
245.495	29
246.754	32.5
248.012	26.5
249.27	28.5
250.529	30.5
251.787	32.5
253.045	27
254.302	29.5
255.56	31.5
256.817	28
258.074	28
259.33	30.5
260.586	31.5
261.844	28
263.1	30
264.355	33
265.611	29
266.866	32
268.121	33
269.377	27
270.632	30
271.886	30.5
273.14	28
274.394	25
275.648	23
276.902	30.5
278.155	25.5
279.408	27
280.663	26
281.915	26
283.168	26
284.42	30.5
285.673	28
286.925	28
288.176	30
289.428	28.5
290.679	26
291.93	28
293.181	31
294.432	30.5
295.683	26
296.933	28.5
298.183	25.5
299.433	28
300.683	30
301.932	31.5
303.182	29
304.429	25
305.678	28
306.927	26
308.176	31.5
309.424	28.5
310.672	28
311.92	29.5
313.168	26
314.415	28
315.661	25
316.908	25.5
318.155	27.5
319.402	26
320.648	30.5
321.895	32
323.139	28
324.385	30.5
325.631	33
326.877	29
328.122	29
329.366	24.5
330.611	25.5
331.855	28
333.1	30.5
334.343	27
335.587	32
336.831	31
338.074	26
339.317	28.5
340.56	26.5
341.803	27.5
343.044	28.5
344.287	24.5
345.53	26.5
346.771	27
348.013	28.5
349.255	28
350.495	28.5
351.736	33.5
352.978	29.5
354.217	33.5
355.458	33
356.699	31
357.938	28.5
359.178	32
360.417	29
361.657	31
362.895	24
364.135	31
365.374	26.5
366.612	27
367.851	29.5
369.088	29.5
370.327	30.5
371.564	26
372.802	27.5
374.038	28.5
375.276	25.5
376.512	28.5
377.749	24.5
378.985	32
380.222	27
381.457	26.5
382.692	28.5
383.929	26
385.164	27
386.4	29
387.634	27
388.869	27
390.103	23
391.337	29.5
392.572	27
393.805	27.5
395.038	33.5
396.273	28
397.506	25.5
398.74	31.5
399.972	28.5
401.204	29
402.437	30
403.669	27.5
404.901	29.5
406.132	31
407.365	29.5
408.596	25
409.826	24.5
411.058	26
412.289	31
413.519	24.5
414.749	29.5
415.98	26
417.21	23
418.439	25
419.668	29
420.897	31.5
422.128	29
423.356	24.5
424.585	25
425.813	31.5
427.041	26
428.269	27
429.498	24
430.725	28.5
431.952	32.5
433.179	25.5
434.406	31
435.633	26
436.859	29.5
438.085	26
439.312	30.5
440.537	30
441.764	29.5
442.99	25
444.215	30
445.44	23.5
446.665	29.5
447.89	29
449.114	32
450.339	31.5
451.563	29.5
452.787	27.5
454.01	30.5
455.234	29
456.457	28
457.68	29
458.903	33
460.126	31
461.348	29.5
462.569	29.5
463.792	34
465.013	33.5
466.235	32.5
467.457	35
468.678	30
469.899	34
471.12	36
472.341	35
473.56	31
474.781	40
476.001	38
477.221	46
478.441	42
479.66	46
480.878	45.5
482.098	49.5
483.317	49
484.535	53
485.754	58
486.971	56
488.189	62.5
489.407	62
490.625	64.5
491.842	63
493.059	53
494.276	57.5
495.493	51.5
496.709	48.5
497.926	46
499.142	50
500.357	49
501.573	39
502.789	45
504.003	39.5
505.219	37
506.434	39
507.648	38
508.863	36.5
510.078	38.5
511.291	37
512.505	34
513.718	35.5
514.932	34.5
516.145	32.5
517.358	32.5
518.572	31.5
519.783	35
520.997	33
522.208	31
523.421	33
524.632	31
525.844	32
527.055	30
528.266	31
529.477	30
530.688	29
531.898	32
533.109	25.5
534.319	32.5
535.53	31
536.739	29
537.948	29
539.158	30
540.366	26
541.576	28
542.784	28
543.994	30
545.201	28
546.409	30.5
547.618	31
548.825	26
550.032	31
551.24	30
552.447	28.5
553.654	26
554.861	28.5
556.067	22
557.273	24
558.48	28
559.686	24
560.891	28
562.096	28.5
563.302	32
564.507	30
565.712	32
566.916	27.5
568.122	28.5
569.326	29
570.529	25.5
571.733	27
572.936	29
574.141	24.5
575.344	30
576.547	30.5
577.75	26
578.952	28
580.154	29
581.358	30
582.56	26
583.761	31
584.963	32.5
586.164	28
587.365	29
588.566	32.5
589.767	31
590.967	26.5
592.168	28
593.369	31
594.569	26
595.769	30.5
596.969	26.5
598.168	28
599.367	26.5
600.566	30
601.765	27
602.964	24.5
604.162	29
605.361	30
606.559	30
607.757	30.5
608.953	25
610.151	25.5
611.348	33.5
612.545	30
613.742	29
614.939	31.5
616.135	26.5
617.332	29.5
618.528	26.5
619.724	29.5
620.918	28.5
622.114	26.5
623.309	30
624.505	29.5
625.7	28.5
626.895	24
628.088	28
629.282	28.5
630.477	31
631.671	30
632.865	28
634.057	31.5
635.251	26
636.444	29
637.637	26
638.829	27.5
640.022	30.5
641.214	29.5
642.407	29
643.598	30
644.79	28.5
645.982	31
647.172	28.5
648.364	28
649.555	29
650.745	30.5
651.936	29.5
653.126	32
654.315	28
655.506	31.5
656.696	26
657.885	29
659.074	31.5
660.263	27.5
661.452	28
662.64	29.5
663.829	24.5
665.018	33.5
666.205	32.5
667.394	31
668.581	31
669.769	33
670.955	31.5
672.143	27.5
673.329	29
674.517	30
675.703	28.5
676.89	27.5
678.075	29
679.262	31.5
680.447	36
681.632	30
682.818	34
684.002	38.5
685.188	34
686.372	34.5
687.556	37
688.741	36.5
689.925	36
691.11	36
692.293	32
693.476	37
694.66	34.5
695.843	37
697.025	38.5
698.209	36
699.391	31
700.573	37.5
701.756	38.5
702.938	39.5
704.119	46.5
705.3	45.5
706.483	47
707.664	51
708.844	56.5
710.025	51.5
711.206	48.5
712.386	46
713.566	38
714.746	39.5
715.925	31
717.106	35
718.285	31.5
719.464	34
720.643	31
721.822	31.5
723	30.5
724.178	33.5
725.358	26
726.536	31.5
727.713	27.5
728.891	29
730.068	26
731.245	25
732.422	25.5
733.599	29
734.775	27.5
735.952	30.5
737.128	28
738.304	32.5
739.48	29
740.656	28.5
741.831	28
743.006	32.5
744.181	26.5
745.356	28
746.531	28
747.706	28
748.88	22
750.054	29.5
751.228	26.5
752.402	28
753.576	27.5
754.749	28.5
755.922	27.5
757.095	31
758.267	30.5
759.44	25.5
760.612	27
761.785	29
762.957	26
764.129	28
765.301	30
766.471	25.5
767.642	32.5
768.814	28
769.985	26.5
771.156	28.5
772.325	26.5
773.495	27.5
774.666	29.5
775.836	24
777.005	29.5
778.174	22
779.344	30
780.513	33
781.681	31
782.85	28
784.019	32.5
785.187	30
786.355	33
787.523	33.5
788.69	37.5
789.858	27.5
791.026	33.5
792.192	28.5
793.36	32
794.526	33
795.693	32
796.86	29.5
798.025	29
799.191	29
800.356	31
801.523	30
802.689	28.5
803.853	27
805.019	26.5
806.183	29.5
807.348	24
808.512	28.5
809.677	33
810.84	28.5
812.005	27
813.167	32
814.332	29
815.494	29
816.657	25
817.82	27
818.982	29.5
820.146	24
821.307	29.5
822.47	29
823.632	29.5
824.793	28.5
825.955	25.5
827.116	25
828.277	26
829.439	29
830.599	27.5
831.759	27.5
832.92	27.5
834.08	28
835.24	28
836.4	28.5
837.56	27
838.719	28
839.877	27.5
841.037	31
842.196	25
843.354	29.5
844.512	26.5
845.672	27.5
846.83	29.5
847.987	23.5
849.145	30.5
850.302	30
851.46	28.5
852.617	31
853.774	25.5
854.93	24.5
856.087	31
857.243	27.5
858.4	32
859.556	29.5
860.712	30.5
861.867	29
863.022	30.5
864.177	29
865.332	31
866.487	25.5
867.642	25
868.796	29
869.95	25
871.104	29
872.258	32
873.412	32.5
874.565	32.5
875.718	26
876.872	27.5
878.024	28
879.177	23
880.33	28
881.482	33
882.635	29
883.787	29
884.938	28.5
886.09	25.5
887.242	25
888.393	27.5
889.544	24
890.695	27
891.845	28
892.995	24.5
894.146	26
895.296	27.5
896.446	26
897.596	27
898.744	27
899.894	28.5
901.043	26
902.193	28.5
903.342	29
904.489	26.5
905.638	31.5
906.786	25
907.935	22
909.081	30
910.229	25
911.377	26
912.525	32
913.671	25
914.818	23
915.965	26.5
917.111	27.5
918.258	25.5
919.404	26.5
920.549	25
921.695	25
922.84	24
923.986	26
925.132	26
926.276	24.5
927.421	25
928.565	23.5
929.71	30.5
930.855	26
931.998	26
933.142	25.5
934.285	30.5
935.429	28.5
936.572	29
937.716	24.5
938.858	27
940.001	30
941.143	30
942.286	26
943.428	24
944.57	26
945.712	25
946.854	29
947.995	24.5
949.135	29.5
950.277	24.5
951.418	22.5
952.559	27
953.699	27
954.839	29
955.98	26
957.119	24.5
958.258	28.5
959.399	29
960.538	26
961.676	25.5
962.816	29
963.955	27.5
965.093	25
966.232	22
967.37	21.5
968.508	24.5
969.645	26
970.784	28.5
971.921	29
973.058	29
974.195	24
975.333	25
976.469	31.5
977.605	26.5
978.741	24
979.877	27
981.013	25.5
982.15	32.5
983.285	22.5
984.421	28.5
985.556	26
986.691	28
987.825	25
988.96	27
990.094	27.5
991.228	24.5
992.364	28
993.497	26.5
994.631	29
995.765	28.5
996.898	26.5
998.031	26
999.164	27.5
1000.3	26.5
1001.43	25.5
1002.56	28.5
1003.69	25
1004.83	27
1005.96	23
1007.09	27
1008.22	27
1009.35	24
1010.48	27.5
1011.61	26
1012.74	27.5
1013.88	26
1015.01	24
1016.14	26.5
1017.27	26.5
1018.4	28.5
1019.53	22.5
1020.65	29.5
1021.78	26
1022.91	26
1024.04	28
1025.17	27
1026.3	28.5
1027.43	26
1028.56	29
1029.68	24
1030.81	24
1031.94	26
1033.07	26
1034.19	27
1035.32	22.5
1036.45	28.5
1037.58	24.5
1038.7	26
1039.83	26.5
1040.95	22
1042.08	23
1043.21	23
1044.33	24.5
1045.46	25.5
1046.58	29
1047.71	25
1048.83	24
1049.96	28
1051.08	26
1052.21	25
1053.33	25
1054.45	25
1055.58	24.5
1056.7	28.5
1057.82	26.5
1058.95	27
1060.07	26
1061.19	23.5
1062.32	21
1063.44	27.5
1064.56	23
1065.68	25
1066.81	22
1067.93	24.5
1069.05	22
1070.17	24.5
1071.29	23
1072.41	26.5
1073.53	23.5
1074.65	26.5
1075.77	24.5
1076.89	25.5
1078.01	27
1079.13	27.5
1080.25	24.5
1081.37	26.5
1082.49	24
1083.61	23
1084.73	22
1085.85	28
1086.97	26.5
1088.09	24
1089.2	27
1090.32	23
1091.44	28
1092.56	21.5
1093.68	24
1094.79	30
1095.91	28.5
1097.03	24.5
1098.14	24.5
1099.26	25
1100.38	25
1101.49	25.5
1102.61	28
1103.73	20
1104.84	26
1105.96	26
1107.07	26.5
1108.19	27.5
1109.3	24.5
1110.42	25
1111.53	22
1112.65	27
1113.76	25.5
1114.88	22
1115.99	28
1117.1	28.5
1118.22	25
1119.33	29
1120.44	22
1121.56	26
1122.67	22.5
1123.78	22
1124.89	20
1126.01	24
1127.12	27.5
1128.23	26
1129.34	29
1130.45	23
1131.56	24.5
1132.67	25.5
1133.79	26.5
1134.9	26
1136.01	24.5
1137.12	25
1138.23	25
1139.34	20.5
1140.45	24
1141.56	28.5
1142.67	24.5
1143.78	25.5
1144.89	24.5
1145.99	26
1147.1	22.5
1148.21	24
1149.32	25.5
1150.43	23
1151.54	20.5
1152.65	26
1153.75	24.5
1154.86	21
1155.97	25
1157.08	28.5
1158.18	21
1159.29	27
1160.4	24
1161.5	26
1162.61	25.5
1163.72	26.5
1164.82	27.5
1165.93	22
1167.03	25
1168.14	20
1169.24	27
1170.35	24.5
1171.45	24
1172.56	22.5
1173.66	20.5
1174.77	24.5
1175.87	24
1176.98	28
1178.08	22
1179.18	26
1180.29	25
1181.39	28
1182.49	23
1183.6	22
1184.7	26
1185.8	22
1186.9	26
1188	24.5
1189.11	28.5
1190.21	24.5
1191.31	25.5
1192.41	24
1193.51	23.5
1194.61	22.0003
1195.72	22.9882
1196.82	24.9078
1197.92	21.2823
1199.02	22.5559
1200.12	24.3552
1201.22	21.4373
1202.32	26.8227
1203.42	26.0049
1204.52	22.3314
1205.62	26.0628
1206.71	23.9423
1207.81	22.8379
1208.91	23.3777
1210.01	22.6274
1211.11	23.6947
1212.21	24.0619
1213.31	23.5741
1214.4	23.5978
1215.5	24.9926
1216.6	24.3971
1217.7	24.3097
1218.79	26.12
1219.89	26.1571
1220.99	24.3969
1222.08	24.1488
1223.18	24.742
1224.28	20.9346
1225.37	23.9995
1226.47	24.4295
1227.56	27.9531
1228.66	26.1942
1229.76	23.7372
1230.85	24.6564
1231.95	22.9766
1233.04	23.2178
1234.14	23.1772
1235.23	23.8759
1236.32	21.8923
1237.42	25.2308
1238.51	25.964
1239.61	25.7004
1240.7	23.4088
1241.79	26.2137
1242.89	24.284
1243.98	24.8374
1245.07	24.2053
1246.17	24.6478
1247.26	21.3186
1248.35	25.2676
1249.44	26.5937
1250.53	27.4423
1251.63	23.7659
1252.72	23.4806
1253.81	28.3532
1254.9	26.9115
1255.99	27.3716
1257.08	26.8561
1258.17	24.2974
1259.27	26.1117
1260.36	26.7634
1261.45	25.644
1262.54	24.5547
1263.63	24.898
1264.72	25.2019
1265.81	24.2797
1266.89	25.2544
1267.98	26.6958
1269.07	24.9892
1270.16	26.3674
1271.25	22.7408
1272.34	24.7641
1273.43	27.702
1274.52	25.026
1275.6	21.8234
1276.69	22.8677
1277.78	24.2052
1278.87	25.2452
1279.95	25.0449
1281.04	24.3155
1282.13	26.1613
1283.22	25.5807
1284.3	25.1198
1285.39	23.4255
1286.48	24.7198
1287.56	23.9028
1288.65	22.6202
1289.73	23.3274
1290.82	25.1381
1291.9	23.6377
1292.99	24.3776
1294.07	25.4708
1295.16	22.3252
1296.24	25.3957
1297.33	24.8899
1298.41	23.6631
1299.5	23.9004
1300.58	24.3932
1301.66	24.8563
1302.75	23.7291
1303.83	23.9424
1304.91	23.2418
1306	24.076
1306.4	25
1307.48	22
1308.57	26.5
1309.66	24
1310.75	25
1311.84	23
1312.92	21
1314.01	21.5
1315.1	22.5
1316.18	24
1317.27	28
1318.36	23
1319.44	24
1320.53	25
1321.62	25.5
1322.7	24
1323.79	25
1324.87	22
1325.96	25
1327.04	19
1328.13	26
1329.21	21
1330.3	23.5
1331.38	22
1332.47	22
1333.55	28.5
1334.64	24.5
1335.72	28
1336.8	30
1337.89	21.5
1338.97	23
1340.05	26
1341.14	24
1342.22	29.5
1343.3	28
1344.38	27
1345.47	21
1346.55	25.5
1347.63	22
1348.71	21.5
1349.79	24
1350.87	23
1351.96	21
1353.04	23
1354.12	24.5
1355.2	20.5
1356.28	27
1357.36	26.5
1358.44	22
1359.52	26.5
1360.6	26
1361.68	29
1362.76	24.5
1363.84	24.5
1364.92	26
1366	22
1367.07	23
1368.15	26
1369.23	25
1370.31	30
1371.39	30
1372.47	26.5
1373.54	26
1374.62	25
1375.7	27.5
1376.78	23.5
1377.85	23.5
1378.93	24
1380.01	24
1381.08	24.5
1382.16	28
1383.24	27.5
1384.31	23
1385.39	25
1386.46	25.5
1387.54	25.5
1388.61	25
1389.69	26
1390.76	29.5
1391.84	27
1392.91	25
1393.99	27
1395.06	24.5
1396.14	29
1397.21	26
1398.29	30.5
1399.36	27
1400.43	28.5
1401.51	32
1402.58	31.5
1403.65	29.5
1404.72	29
1405.8	25.5
1406.87	22
1407.94	27
1409.02	29
1410.09	33
1411.16	28
1412.23	30
1413.3	28.5
1414.37	32.5
1415.44	29
1416.51	31
1417.59	26
1418.66	28.5
1419.73	30.5
1420.8	26
1421.87	28
1422.94	28
1424.01	31.5
1425.08	29
1426.15	26
1427.22	24
1428.28	25.5
1429.35	26
1430.42	26.5
1431.49	25
1432.56	26.5
1433.63	24
1434.7	29
1435.76	25
1436.83	30.5
1437.9	27.5
1438.97	25
1440.03	26.5
1441.1	24
1442.17	24
1443.23	23
1444.3	28
1445.37	24
1446.43	24
1447.5	26
1448.57	26
1449.63	23.5
1450.7	23
1451.76	23
1452.83	25.5
1453.89	23
1454.96	25
1456.02	29.5
1457.09	23.5
1458.15	26
1459.22	24.5
1460.28	30
1461.34	25.5
1462.41	25
1463.47	25
1464.53	25
1465.6	26
1466.66	26
1467.72	25.5
1468.78	29
1469.85	26
1470.91	27
1471.97	25
1473.03	24
1474.1	27
1475.16	24
1476.22	28.5
1477.28	25
1478.34	24.5
1479.4	22
1480.46	25
1481.52	26.5
1482.58	25.5
1483.65	27.5
1484.71	22.5
1485.77	28
1486.82	25
1487.89	23.5
1488.94	26
1490	26
1491.06	25
1492.12	28.5
1493.18	24
1494.24	24.5
1495.3	25
1496.36	21
1497.41	21.5
1498.47	24
1499.53	28
1500.59	25.5
1501.65	25.5
1502.7	23.5
1503.76	23
1504.82	24
1505.87	27
1506.93	25
1507.99	29.5
1509.04	31
1510.1	22
1511.16	25
1512.21	24
1513.27	26
1514.32	25
1515.38	29.5
1516.43	23.5
1517.49	28
1518.54	23
1519.6	29
1520.65	26
1521.71	25.5
1522.76	26
1523.81	25.5
1524.87	26
1525.92	21
1526.98	26
1528.03	29.5
1529.08	28.5
1530.14	24.5
1531.19	27.5
1532.24	28
1533.29	23
1534.35	25.5
1535.4	22
1536.45	27.5
1537.5	22.5
1538.55	20.5
1539.61	25
1540.66	24
1541.71	25.5
1542.76	24.5
1543.81	27
1544.86	25.5
1545.91	28
1546.96	24
1548.01	26.5
1549.06	24.5
1550.11	27
1551.16	24
1552.21	26
1553.26	25
1554.31	25
1555.36	22.5
1556.41	28.5
1557.46	24
1558.5	24.5
1559.55	28
1560.6	27
1561.65	22.5
1562.7	28
1563.74	24
1564.79	24
1565.84	25.5
1566.89	25
1567.93	26.5
1568.98	24
1570.03	24
1571.07	24
1572.12	22.5
1573.17	23
1574.21	21
1575.26	23
1576.3	23.5
1577.35	27.5
1578.4	26
1579.44	24
1580.49	27
1581.53	27
1582.58	23.5
1583.62	28.5
1584.66	25.5
1585.71	25
1586.75	26
1587.8	29
1588.84	24
1589.88	24
1590.93	25
1591.97	23.5
1593.01	22.5
1594.06	25
1595.1	26.5
1596.14	30
1597.18	29
1598.23	25
1599.27	24.5
1600.31	25
1601.35	30
1602.39	29.5
1603.44	21
1604.48	23.5
1605.52	25.5
1606.56	26
1607.6	28
1608.64	27
1609.68	27
1610.72	30
1611.76	23.5
1612.8	28
1613.84	27.5
1614.88	26
1615.92	27
1616.96	24.5
1618	24
1619.04	24.5
1620.08	23
1621.12	27.5
1622.16	26
1623.19	25.5
1624.23	26.5
1625.27	24.5
1626.31	25.5
1627.35	29
1628.38	28
1629.42	25
1630.46	25.5
1631.49	26
1632.53	27
1633.57	25
1634.6	26.5
1635.64	25.5
1636.68	25
1637.71	21
1638.75	29
1639.79	29
1640.82	26
1641.86	21.5
1642.89	22
1643.93	27
1644.96	24.5
1646	24.5
1647.03	23
1648.07	23.5
1649.1	25.5
1650.13	21
1651.17	24.5
1652.2	27
1653.24	26.5
1654.27	25.5
1655.3	22.5
1656.34	27.5
1657.37	26
1658.4	24.5
1659.43	24.5
1660.47	28
1661.5	24.5
1662.53	25
1663.56	24.5
1664.6	28.5
1665.63	24.5
1666.66	25
1667.69	25
1668.72	25
1669.75	24
1670.78	23
1671.81	27
1672.85	25.5
1673.88	25.5
1674.91	24
1675.94	27
1676.97	23
1678	23.5
1679.03	24
1680.06	25
1681.09	27
1682.11	22.5
1683.14	26
1684.17	24.5
1685.2	24
1686.23	25
1687.26	26.5
1688.29	28.5
1689.31	23
1690.34	26
1691.37	21
1692.4	29
1693.42	23
1694.45	22.5
1695.48	27
1696.51	22.5
1697.53	23
1698.56	28.5
1699.59	23
1700.61	23.5
1701.64	24
1702.66	25.5
1703.69	22
1704.72	25.5
1705.74	22.5
1706.77	23
1707.79	25
1708.82	27
1709.84	28
1710.87	26
1711.89	27
1712.91	24
1713.94	24
1714.96	23.5
1715.99	25.5
1717.01	24.5
1718.03	26
1719.06	27
1720.08	26.5
1721.1	26.5
1722.13	25
1723.15	27
1724.17	22
1725.19	24
1726.22	26.5
1727.24	23.5
1728.26	23.5
1729.28	23.5
1730.3	24
1731.33	27.5
1732.35	26
1733.37	28.5
1734.39	25.5
1735.41	24
1736.43	26
1737.45	25
1738.47	25.5
1739.49	25
1740.51	27
1741.53	25.5
1742.55	22.5
1743.57	21.5
1744.59	24.5
1745.61	26
1746.63	30.5
1747.65	25.5
1748.67	28
1749.69	24
1750.7	27
1751.72	25.5
1752.74	26
1753.76	27
1754.78	28
1755.79	23
1756.81	25.5
1757.83	24
1758.85	25
1759.86	21
1760.88	24
1761.9	22
1762.91	23.5
1763.93	24.5
1764.95	26
1765.96	27
1766.98	28
1767.99	25
1769.01	26
1770.02	24
1771.04	24.5
1772.06	22.5
1773.07	21
1774.09	24
1775.1	24
1776.11	25
1777.13	24.5
1778.14	21
1779.16	23
1780.17	28.5
1781.18	26
1782.2	26
1783.21	23
1784.22	23
1785.24	25
1786.25	25
1787.26	27.5
1788.28	25
1789.29	26.5
1790.3	29
1791.31	26.5
1792.33	26
1793.34	27.5
1794.35	22
1795.36	23
1796.37	24
1797.38	24.5
1798.39	22.5
1799.4	24
1800.42	25
1801.43	26
1802.44	25.5
1803.45	20
1804.46	26.5
1805.47	26.5
1806.48	24
1807.49	27
1808.5	23
1809.51	23.5
1810.51	25
1811.52	25
1812.53	25
1813.54	22
1814.55	26
1815.56	25.5
1816.57	28.5
1817.57	21
1818.58	26
1819.59	23
1820.6	25
1821.61	24.5
1822.61	23
1823.62	22.5
1824.63	23
1825.63	27
1826.64	25.5
1827.65	25.5
1828.65	26.5
1829.66	27.5
1830.67	24.5
1831.67	24
1832.68	21
1833.68	25
1834.69	26
1835.69	26.5
1836.7	25.5
1837.7	26
1838.71	24.5
1839.71	28
1840.72	23
1841.72	25.5
1842.73	25
1843.73	23.5
1844.73	25
1845.74	24
1846.74	26
1847.74	26.5
1848.75	26.5
1849.75	21
1850.75	19.5
1851.76	25
1852.76	21
1853.76	20.5
1854.76	23
1855.77	26
1856.77	27
1857.77	26.5
1858.77	23
1859.77	20
1860.77	27
1861.78	27.5
1862.78	22
1863.78	27
1864.78	27
1865.78	24.5
1866.78	24.5
1867.78	20
1868.78	24
1869.78	25
1870.78	29.5
1871.78	27
1872.78	28
1873.78	22.5
1874.78	23
1875.78	21.5
1876.78	23
1877.78	21
1878.77	27
1879.77	23.5
1880.77	21
1881.77	28
1882.77	27
1883.77	21
1884.76	25.5
1885.76	25.5
1886.76	23.5
1887.75	21
1888.75	24
1889.75	24
1890.75	29
1891.74	23
1892.74	26
1893.73	23.5
1894.73	22
1895.73	23
1896.72	23.5
1897.72	22.5
1898.71	25.5
1899.71	24
1900.7	27
1901.7	22.5
1902.69	24.5
1903.69	23
1904.68	25.5
1905.68	24.5
1906.67	24
1907.67	23
1908.66	25.5
1909.65	25
1910.65	24
1911.64	28.5
1912.63	21
1913.63	22.5
1914.62	23
1915.61	24
1916.61	23.5
1917.6	28.5
1918.59	25
1919.58	23.5
1920.58	22.5
1921.57	22
1922.56	22
1923.55	24
1924.54	24.5
1925.54	26
1926.53	22.5
1927.52	27
1928.51	23.5
1929.5	25.5
1930.49	24
1931.48	26
1932.47	23
1933.46	22.5
1934.45	23.5
1935.44	26
1936.43	28.5
1937.42	24.5
1938.41	26
1939.4	25
1940.39	20
1941.38	26
1942.37	20.5
1943.35	21
1944.34	23
1945.33	27
1946.32	25
1947.31	26
1948.3	25.25
1949.28	23.5
1950.27	25
1951.26	24
1952.25	20.5
1953.23	24.5
1954.22	24.5
1955.21	23.5
1956.19	21.5
1957.18	23.5
1958.17	26
1959.15	24
1960.14	20.5
1961.12	24.5
1962.11	23
1963.1	20
1964.08	26
1965.07	23.5
1966.05	26.5
1967.04	24
1968.02	24
1969.01	21
1969.99	26.5
1970.98	25
1971.96	23
1972.94	22
1973.93	23.5
1974.91	24
1975.9	22.5
1976.88	22
1977.86	22.5
1978.85	26.5
1979.83	21.5
1980.81	25
1981.79	26
1982.78	20
1983.76	23.5
1984.74	24
1985.72	22
1986.71	24
1987.69	27
1988.67	26
1989.65	22
1990.63	22
1991.61	22.5
1992.59	19
1993.57	23
1994.56	25
1995.54	23
1996.52	24.5
1997.5	22
1998.48	25
1999.46	18
2000.44	24
2001.42	26
2002.4	25.5
2003.38	26.5
2004.36	22.5
2005.33	26.5
2006.31	23.5
2007.29	27.5
2008.27	23.5
2009.25	23
2010.23	21
2011.21	23.5
2012.18	25
2013.16	27
2014.14	21.5
2015.12	25.5
2016.09	20.5
2017.07	22.5
2018.05	28
2019.03	23
2020	24.5
2020.98	25
2021.96	26.5
2022.93	27.5
2023.91	26
2024.89	22
2025.86	21
2026.84	20
2027.81	21.5
2028.79	24.5
2029.76	26.5
2030.74	23
2031.71	26.5
2032.69	22.5
2033.66	22.5
2034.64	24.5
2035.61	28
2036.59	25
2037.56	25.5
2038.54	24.5
2039.51	24
2040.48	23
2041.46	21.5
2042.43	25.5
2043.4	20
2044.38	25
2045.35	25
2046.32	23
2047.29	23
2048.27	21
2049.24	24.5
2050.21	22
2051.18	22.5
2052.16	27
2053.13	22.5
2054.1	25
2055.07	23.5
2056.04	23
2057.01	26
2057.98	21.5
2058.96	25.5
2059.93	25
2060.9	24.5
2061.87	23.5
2062.84	25
2063.81	25.5
2064.78	22
2065.75	20.5
2066.72	24
2067.69	18.5
2068.66	22
2069.63	26
2070.6	25
2071.56	23.5
2072.53	28
2073.5	24
2074.47	22
2075.44	24.5
2076.41	23
2077.38	25.5
2078.34	18.5
2079.31	26
2080.28	22
2081.25	23
2082.21	21.5
2083.18	21
2084.15	22
2085.11	23
2086.08	24
2087.05	23.5
2088.01	24.5
2088.98	23
2089.95	20.5
2090.91	24
2091.88	22.5
2092.84	26
2093.81	22.5
2094.78	27
2095.74	25.5
2096.71	24.5
2097.67	26
2098.64	21
2099.6	24.5
2100.57	25.5
2101.53	24.5
2102.49	22
2103.46	24
2104.42	27
2105.39	19.5
2106.35	21.5
2107.31	19.5
2108.28	23.5
2109.24	25.5
2110.2	19
2111.17	22.5
2112.13	20.5
2113.09	22.5
2114.05	23
2115.02	24
2115.98	24
2116.94	26.5
2117.9	20.5
2118.86	24
2119.83	28
2120.79	25.5
2121.75	24
2122.71	27.5
2123.67	23
2124.63	25
2125.59	26
2126.55	24
2127.51	21.5
2128.47	27
2129.43	24
2130.39	25.5
2131.35	20
2132.31	24
2133.27	21
2134.23	26
2135.19	19.5
2136.15	23
2137.11	21.5
2138.07	23.5
2139.03	24.5
2139.99	26
2140.94	25
2141.9	20
2142.86	20.9937
2143.82	22.9182
2144.78	23.9503
2145.73	24.9898
2146.69	21.8966
2147.65	22.0594
2148.61	26.4522
2149.56	23.067
2150.52	21.9042
2151.48	24.9783
2152.43	19.9287
2153.39	20.9919
2154.35	23.6522
2155.3	23.5896
2156.26	23.7904
2157.21	20.3951
2158.17	24.692
2159.13	22.925
2160.08	23.9109
2161.04	25.4221
2161.99	21.7491
2162.95	23.3475
2163.9	23.4932
2164.86	21.1164
2165.81	23.9063
2166.77	23.0451
2167.72	22.0871
2168.67	19.1422
2169.63	25.1048
2170.58	22.8568
2171.54	21.8108
2172.49	23.799
2173.44	19.005
2174.4	23.1459
2175.35	19.6675
2176.3	20.6853
2177.26	24.11
2178.21	22.3285
2179.16	21.9499
2180.11	23.0734
2181.07	23.0005
2182.02	23.6917
2182.97	18.3318
2183.92	23.0925
2184.87	21.5571
2185.82	21.9653
2186.78	23.2048
2187.73	23.0813
2188.68	22.0196
2189.63	21.0028
2190.58	23.1952
2191.53	22.4433
2192.48	23.589
2193.43	22.219
2194.38	22.4527
2195.33	22.0065
2196.28	24.1152
2197.23	22.6992
2198.18	20.8101
2199.13	20.9581
2200.08	20
2201.03	21.0873
2201.98	19.4345
2202.93	20.1917
2203.88	24.3401
2204.83	22.5587
2205.77	24.0761
2206.72	23.8017
2207.67	24.0493
2208.62	20.7637
2209.57	23.3167
2210.52	20.3196
2211.46	21.9211
2212.41	20.7528
2213.36	20.585
2214.31	21.534
2215.25	25.7083
2216.2	24.8731
2217.15	23.0308
2218.09	20.5338
2219.04	21.5515
2219.99	24.1262
2220.93	19.4388
2221.88	21.0931
2222.82	20.1932
2223.77	21.9543
2224.72	20.3172
2225.66	23.1407
2226.61	23.6844
2227.55	22.0425
2228.5	23.152
2229.44	24.4809
2230.39	22.3954
2231.33	21.1703
2232.28	20.2562
2233.22	23.0559
2234.16	23.0325
2235.11	23.5282
2236.05	21.9498
2237	21.6889
2237.94	22.0243
2238.88	21.3551
2239.83	23.0414
2240.13	24
2241.08	23
2242.03	24.5
2242.98	23.5
2243.92	17.5
2244.87	23
2245.82	26
2246.76	23.5
2247.71	20
2248.66	20.5
2249.61	22
2250.55	21
2251.5	19.5
2252.45	23.5
2253.39	20.5
2254.34	21.5
2255.28	21
2256.23	21
2257.18	20
2258.12	20
2259.07	22
2260.01	19.5
2260.96	21
2261.9	22
2262.85	21
2263.79	21.5
2264.74	21
2265.68	20
2266.63	21.5
2267.57	23
2268.51	25
2269.46	20
2270.4	22
2271.35	23
2272.29	24
2273.23	22
2274.18	20.5
2275.12	18.5
2276.06	23.5
2277	25.5
2277.95	24.5
2278.89	23
2279.83	23
2280.78	21
2281.72	28.5
2282.66	23.5
2283.6	20
2284.54	25
2285.48	23.5
2286.43	22
2287.37	20.5
2288.31	23
2289.25	23
2290.19	25
2291.13	22
2292.07	22
2293.01	24
2293.95	21
2294.89	22.5
2295.83	20
2296.77	22
2297.71	23.5
2298.65	21
2299.59	22
2300.53	19.5
2301.47	20.5
2302.41	23
2303.35	21.5
2304.29	20
2305.22	27.5
2306.16	20.5
2307.1	21.5
2308.04	23.5
2308.98	20
2309.91	21.5
2310.85	19.5
2311.79	24
2312.73	23
2313.66	25.5
2314.6	22
2315.54	23.5
2316.48	24.5
2317.41	24
2318.35	22.5
2319.29	25.5
2320.22	22.5
2321.16	22.5
2322.09	22
2323.03	23.5
2323.97	25
2324.9	25.5
2325.84	22
2326.77	18.5
2327.71	23.5
2328.64	24
2329.58	23.5
2330.51	23
2331.45	24.5
2332.38	19.5
2333.32	22
2334.25	24.5
2335.18	24
2336.12	25.5
2337.05	19
2337.99	25
2338.92	21
2339.85	20.5
2340.79	23.5
2341.72	24
2342.65	25.5
2343.59	25
2344.52	23.5
2345.45	23
2346.38	23
2347.32	21.5
2348.25	24.5
2349.18	22.5
2350.11	25
2351.04	23
2351.98	21
2352.91	25
2353.84	26
2354.77	21.5
2355.7	26
2356.63	25
2357.56	23
2358.49	21
2359.42	22
2360.35	22
2361.28	23
2362.21	25.5
2363.14	22
2364.07	25.5
2365	23.5
2365.93	24.5
2366.86	25
2367.79	24
2368.72	24
2369.65	23
2370.58	20.5
2371.51	22.5
2372.44	22.5
2373.36	24
2374.29	22.5
2375.22	25
2376.15	26
2377.08	26
2378	22
2378.93	24.5
2379.86	23
2380.79	24
2381.71	24
2382.64	22.5
2383.57	25
2384.49	24
2385.42	21.5
2386.35	21.5
2387.27	20
2388.2	24.5
2389.13	23
2390.05	22
2390.98	24.5
2391.9	22
2392.83	23
2393.76	26.5
2394.68	24.5
2395.61	23.5
2396.53	25.5
2397.46	23
2398.38	24
2399.3	23
2400.23	24
2401.15	20.5
2402.08	23.5
2403	23
2403.93	22.5
2404.85	23.5
2405.77	25.5
2406.7	23
2407.62	24
2408.54	23
2409.47	22.5
2410.39	25
2411.31	23
2412.24	22
2413.16	19
2414.08	25
2415	23
2415.92	22
2416.85	24
2417.77	25
2418.69	19
2419.61	20.5
2420.53	25
2421.45	25
2422.38	23.5
2423.3	24.5
2424.22	23
2425.14	24.5
2426.06	23
2426.98	26.5
2427.9	27
2428.82	23
2429.74	25
2430.66	23
2431.58	21.5
2432.5	24.5
2433.42	20
2434.34	26
2435.26	24.5
2436.18	21
2437.1	26
2438.01	23
2438.93	25
2439.85	25
2440.77	28
2441.69	25
2442.61	21.5
2443.52	22
2444.44	24
2445.36	22.5
2446.28	22
2447.2	22
2448.11	21
2449.03	22.5
2449.95	23.5
2450.86	23
2451.78	21
2452.7	25.5
2453.61	25.5
2454.53	17
2455.45	29
2456.36	23.5
2457.28	23
2458.2	25
2459.11	24
2460.03	25.5
2460.94	22
2461.86	23.5
2462.77	23.5
2463.69	23.5
2464.6	25.5
2465.52	25
2466.43	23.5
2467.35	19.5
2468.26	26.5
2469.18	24.5
2470.09	22.5
2471	25.5
2471.92	23
2472.83	25
2473.74	19.5
2474.66	26
2475.57	25.5
2476.48	23
2477.4	26.5
2478.31	23.5
2479.22	21.5
2480.14	22.5
2481.05	24
2481.96	23.5
2482.87	24
2483.79	26.5
2484.7	23.5
2485.61	20
2486.52	22.5
2487.43	19.5
2488.34	24.5
2489.25	22.5
2490.17	24.5
2491.08	20.5
2491.99	24
2492.9	28.5
2493.81	25.5
2494.72	19
2495.63	25.5
2496.54	25
2497.45	26.5
2498.36	20
2499.27	26
2500.18	25
2501.09	20.5
2502	25
2502.91	29.5
2503.82	23.5
2504.73	23
2505.63	19.5
2506.54	24
2507.45	22.5
2508.36	26
2509.27	24
2510.18	27
2511.09	23
2511.99	26
2512.9	21.5
2513.81	29
2514.72	22.5
2515.62	21
2516.53	23
2517.44	23
2518.34	27
2519.25	26.5
2520.16	29
2521.06	22.5
2521.97	28
2522.88	26.5
2523.78	23
2524.69	26
2525.6	24.5
2526.5	22.5
2527.41	27.5
2528.31	23.5
2529.22	26.5
2530.12	25
2531.03	21.5
2531.93	22.5
2532.84	24
2533.74	26
2534.65	26.5
2535.55	20
2536.46	22
2537.36	21.5
2538.27	26
2539.17	24.5
2540.07	22.5
2540.98	24.5
2541.88	23.5
2542.78	21.5
2543.69	24
2544.59	20
2545.49	22.5
2546.4	22
2547.3	28
2548.2	23.5
2549.1	21
2550.01	23
2550.91	28.5
2551.81	22.5
2552.71	27
2553.61	21
2554.52	25
2555.42	25
2556.32	20
2557.22	24.5
2558.12	24
2559.02	26
2559.92	19
2560.82	23.5
2561.72	24
2562.62	25.5
2563.53	19.5
2564.43	25
2565.33	21.5
2566.23	25.5
2567.13	24.5
2568.03	24.5
2568.92	21.5
2569.82	25.5
2570.72	27.5
2571.62	27
2572.52	25
2573.42	21.5
2574.32	21.5
2575.22	24
2576.12	24
2577.02	23.5
2577.91	21
2578.81	23
2579.71	26
2580.61	25
2581.5	23
2582.4	24.5
2583.3	21
2584.2	22.5
2585.09	24.5
2585.99	18.5
2586.89	21.5
2587.78	22
2588.68	24.5
2589.58	25.5
2590.47	28
2591.37	25
2592.27	21
2593.16	25.5
2594.06	28
2594.95	23.5
2595.85	24.5
2596.75	24
2597.64	26.5
2598.54	25.5
2599.43	22.5
2600.33	23
2601.22	21.5
2602.12	20
2603.01	28
2603.9	24.5
2604.8	24
2605.69	24
2606.59	24
2607.48	28
2608.37	26
2609.27	24
2610.16	23
2611.05	22.5
2611.95	20.5
2612.84	24.5
2613.73	24.5
2614.63	27.5
2615.52	28.5
2616.41	26.5
2617.3	24
2618.2	23
2619.09	20.5
2619.98	27.5
2620.87	23
2621.76	25
2622.66	21
2623.55	25
2624.44	25
2625.33	26
2626.22	21
2627.11	24
2628	22.5
2628.9	25
2629.79	29
2630.68	27
2631.57	25
2632.46	24.5
2633.35	22.5
2634.24	25.5
2635.13	24
2636.02	25.5
2636.91	24
2637.8	25.5
2638.68	26.5
2639.57	23
2640.46	25
2641.35	20
2642.24	26
2643.13	24
2644.02	23
2644.91	25
2645.79	25
2646.68	20.5
2647.57	22.5
2648.46	23.5
2649.35	23.5
2650.23	27
2651.12	25
2652.01	24.5
2652.9	25
2653.78	23
2654.67	22.5
2655.56	23.5
2656.44	21.5
2657.33	23
2658.22	22
2659.1	23.5
2659.99	26.5
2660.88	24.5
2661.76	27
2662.65	21
2663.53	25.5
2664.42	23
2665.3	21.5
2666.19	27
2667.07	26.5
2667.96	21
2668.84	23.5
2669.73	24.5
2670.61	22
2671.5	29.5
2672.38	26
2673.27	24.5
2674.15	20
2675.04	27.5
2675.92	26
2676.8	23
2677.69	28
2678.57	26
2679.45	24
2680.34	25
2681.22	26
2682.1	27.5
2682.99	25.5
2683.87	22.5
2684.75	23.5
2685.63	24
2686.52	23
2687.4	23
2688.28	21
2689.16	20.5
2690.04	24.5
2690.93	26.5
2691.81	23.5
2692.69	23
2693.57	24
2694.45	23
2695.33	25
2696.21	23
2697.09	23.5
2697.97	22.5
2698.85	23
2699.74	22
2700.62	22
2701.5	24
2702.38	24
2703.26	26.5
2704.14	25
2705.02	26.5
2705.89	20
2706.77	26
2707.65	25
2708.53	23.5
2709.41	26.5
2710.29	25
2711.17	26
2712.05	24
2712.93	26.5
2713.8	24
2714.68	23.5
2715.56	26
2716.44	23
2717.32	23
2718.19	23.5
2719.07	23
2719.95	24.5
2720.83	25
2721.7	27.5
2722.58	25
2723.46	23
2724.33	23
2725.21	26
2726.09	21
2726.97	23
2727.84	22.5
2728.72	24
2729.59	21
2730.47	22.5
2731.35	25.5
2732.22	29.5
2733.1	23
2733.97	23.5
2734.85	22
2735.72	27
2736.6	21.5
2737.47	27
2738.35	21
2739.22	27.5
2740.1	22.5
2740.97	26.5
2741.84	23.5
2742.72	24.5
2743.59	28.5
2744.47	23.5
2745.34	25
2746.21	24.5
2747.09	24
2747.96	22
2748.83	29
2749.71	21
2750.58	24.5
2751.45	21
2752.33	19.5
2753.2	23
2754.07	22
2754.94	20.5
2755.82	20.5
2756.69	22
2757.56	21
2758.43	23.5
2759.3	26
2760.18	24.5
2761.05	25.5
2761.92	21
2762.79	21.5
2763.66	23
2764.53	24
2765.4	23.5
2766.27	27.5
2767.14	20
2768.01	23.5
2768.88	24
2769.75	23.5
2770.62	25
2771.49	28.5
2772.36	23
2773.23	27
2774.1	25
2774.97	25.5
2775.84	21.5
2776.71	25
2777.58	26
2778.45	26.5
2779.32	29
2780.19	24
2781.06	24.5
2781.92	25.5
2782.79	26
2783.66	25
2784.53	26
2785.4	26
2786.26	26
2787.13	29
2788	19.5
2788.87	20.5
2789.73	25.5
2790.6	23
2791.47	29.5
2792.34	25.5
2793.2	24.5
2794.07	23.5
2794.94	24
2795.8	28
2796.67	25
2797.53	23.5
2798.4	28
2799.27	23.5
2800.13	26.5
2801	26
2801.86	25
2802.73	25.5
2803.59	33
2804.46	29.5
2805.32	26
2806.19	25
2807.05	26.5
2807.92	27.5
2808.78	21.5
2809.65	31
2810.51	31.5
2811.38	25
2812.24	27.5
2813.1	26
2813.97	25
2814.83	26
2815.7	21
2816.56	24
2817.42	23
2818.29	29.5
2819.15	30.5
2820.01	26
2820.87	26.5
2821.74	22.5
2822.6	27.5
2823.46	25
2824.32	21
2825.19	27
2826.05	26
2826.91	27.5
2827.77	23.5
2828.63	28
2829.5	24
2830.36	21.5
2831.22	24
2832.08	21
2832.94	22
2833.8	25
2834.66	22.5
2835.52	25.5
2836.38	27.5
2837.24	28.5
2838.1	24.5
2838.96	23
2839.82	24
2840.68	24
2841.54	26
2842.4	26
2843.26	27.5
2844.12	25.5
2844.98	25.5
2845.84	25
2846.7	22.5
2847.56	28
2848.42	28
2849.28	23.5
2850.14	23.5
2850.99	24.5
2851.85	31.5
2852.71	23
2853.57	26
2854.43	23.5
2855.28	24
2856.14	24
2857	29.5
2857.86	25.5
2858.71	27
2859.57	28
2860.43	28
2861.28	23.5
2862.14	25
2863	27
2863.86	25
2864.71	24
2865.57	24
2866.42	23.5
2867.28	29
2868.14	29
2868.99	26.5
2869.85	26
2870.7	27.5
2871.56	25.5
2872.41	29.5
2873.27	26
2874.13	32.5
2874.98	29.5
2875.83	25
2876.69	32
2877.54	29.5
2878.4	32
2879.25	35
2880.11	30
2880.96	34
2881.81	33
2882.67	34
2883.52	33.5
2884.38	35
2885.23	36.5
2886.08	34.5
2886.94	37
2887.79	33
2888.64	37.5
2889.5	34.5
2890.35	40
2891.2	41.5
2892.05	37.5
2892.91	40
2893.76	40
2894.61	42.5
2895.46	43.5
2896.31	45
2897.17	53
2898.02	53
2898.87	49.5
2899.72	53.5
2900.57	59.5
2901.42	57.5
2902.27	64
2903.12	61
2903.98	71
2904.83	71
2905.68	75.5
2906.53	71.5
2907.38	71
2908.23	66
2909.08	68.5
2909.93	70.5
2910.78	58
2911.63	62
2912.48	57
2913.33	54
2914.18	51.5
2915.02	53
2915.87	44
2916.72	45.5
2917.57	38.5
2918.42	37.5
2919.27	42.5
2920.12	38
2920.97	36.5
2921.81	34
2922.66	32.5
2923.51	33
2924.36	32.5
2925.21	32
2926.05	27.5
2926.9	34.5
2927.75	28
2928.59	28
2929.44	30
2930.29	33
2931.14	26.5
2931.98	27
2932.83	27.5
2933.68	27
2934.52	30.5
2935.37	25
2936.21	29.5
2937.06	28.5
2937.91	26
2938.75	26
2939.6	30.5
2940.44	30.5
2941.29	32.5
2942.14	26.5
2942.98	31
2943.82	26
2944.67	25.5
2945.51	25.5
2946.36	25
2947.2	24
2948.05	31
2948.89	26
2949.74	29
2950.58	29.5
2951.43	31.5
2952.27	29
2953.11	26.5
2953.96	29.5
2954.8	33.5
2955.64	29
2956.49	36.5
2957.33	32
2958.17	32.5
2959.02	37
2959.86	42.5
2960.7	35.5
2961.54	42.5
2962.39	43
2963.23	43
2964.07	40
2964.91	49.5
2965.75	42
2966.6	42
2967.44	42
2968.28	43
2969.12	42
2969.96	36
2970.8	40.5
2971.64	45.4684
2972.48	39.86
2973.33	35.5283
2974.17	35.3741
2975.01	34.9911
2975.85	36.2198
2976.69	33.7224
2977.53	33.175
2978.37	32.1731
2979.21	32.0465
2980.05	27.6857
2980.89	32.5988
2981.73	25.7124
2982.57	30.0831
2983.41	29.5859
2984.25	26.4942
2985.08	29.0801
2985.92	26.0214
2986.76	27.2102
2987.6	27.771
2988.44	28.9739
2989.28	30.4563
2990.12	23.8979
2990.96	24.3516
2991.79	22.9776
2992.63	25.7171
2993.47	22.5748
2994.31	24.4417
2995.14	23.8022
2995.98	24.0439
2996.82	26.7605
2997.66	24.5195
2998.49	22.544
2999.33	23.9534
3000.17	23.0749
3001	24.1193
3001.84	23.839
3002.68	25.3101
3003.51	20.6376
3004.35	23.989
3005.19	23.6489
3006.02	24.0603
3006.86	23.8285
3007.7	25.3327
3008.53	25.1359
3009.37	23.4368
3010.2	21.9724
3011.04	24.161
3011.87	23.5479
3012.71	20.89
3013.54	23.1905
3014.38	22.096
3015.21	22.6594
3016.05	20.1604
3016.88	22.1226
3017.72	22.3461
3018.55	24.6281
3019.39	23.3341
3020.22	22.4222
3021.05	21.6317
3021.89	24.7375
3022.72	23.946
3023.55	23.4906
3024.39	22.7622
3025.22	22.2558
3026.05	20.6123
3026.89	22.3971
3027.72	22.9121
3028.55	23.9022
3029.39	23.7131
3030.22	22.5883
3031.05	22.5
3031.88	21.7597
3032.72	23.4621
3033.55	24.0928
3034.38	22.076
3035.21	22.5132
3036.04	22.3808
3036.88	21.3158
3037.71	22.2792
3038.54	21.554
3039.37	23.9698
3040.2	24.1124
3041.03	23.4306
3041.86	23.3878
3042.69	23.7236
3043.52	23.9452
3044.36	22.3641
3045.19	24.0418
3046.02	22.3182
3046.85	20.4138
3047.68	22.3112
3048.51	21.8199
3049.34	21.96
3050.17	22.8039
3051	24.2816
3051.83	21.9801
3052.66	20.6245
3053.48	23.8889
3054.31	24.551
3055.14	23.2646
3055.97	22.7371
3056.8	23.8871
3057.29	23
3058.12	22.5
3058.95	22.5
3059.79	24
3060.62	23.5
3061.45	24.5
3062.29	21.5
3063.12	21
3063.95	22
3064.78	23
3065.62	22.5
3066.45	17
3067.28	25.5
3068.11	22.5
3068.94	21
3069.77	22
3070.61	24
3071.44	18
3072.27	19
3073.1	21
3073.93	24
3074.76	23
3075.59	19
3076.42	21
3077.25	24
3078.08	20.5
3078.92	19
3079.74	22
3080.57	19.5
3081.41	25.5
3082.24	26
3083.06	24
3083.89	24.5
3084.72	23.5
3085.55	22.5
3086.38	18
3087.21	21
3088.04	24
3088.87	23.5
3089.7	22.5
3090.53	22.5
3091.36	21.5
3092.18	23.5
3093.01	20
3093.84	24
3094.67	23
3095.5	20.5
3096.32	25.5
3097.15	27
3097.98	24
3098.81	21
3099.64	22
3100.46	21.5
3101.29	25.5
3102.12	23
3102.94	25
3103.77	20
3104.6	24.5
3105.42	23
3106.25	21
3107.08	20.5
3107.9	20
3108.73	24.5
3109.56	21
3110.38	22
3111.21	19
3112.03	25.5
3112.86	22
3113.68	22.5
3114.51	23.5
3115.33	21
3116.16	20.5
3116.98	19
3117.81	24
3118.63	22
3119.46	22.5
3120.28	23
3121.11	23
3121.93	19
3122.76	21
3123.58	23.5
3124.4	23.5
3125.23	25.5
3126.05	20.5
3126.87	22
3127.7	20.5
3128.52	23
3129.34	23
3130.17	24
3130.99	24.5
3131.81	24
3132.64	24
3133.46	25.5
3134.28	21.5
3135.1	23
3135.93	21
3136.75	22.5
3137.57	26.5
3138.39	23
3139.21	24.5
3140.04	28.5
3140.86	18
3141.68	20.5
3142.5	23.5
3143.32	27
3144.14	23
3144.96	22.5
3145.78	27.5
3146.61	21
3147.43	23
3148.25	23.5
3149.07	20.5
3149.89	22.5
3150.71	20.5
3151.53	22
3152.35	22
3153.17	19.5
3153.99	21.5
3154.81	25.5
3155.63	22.5
3156.45	26
3157.27	19
3158.08	18.5
3158.9	24.5
3159.72	24.5
3160.54	22
3161.36	24
3162.18	25.5
3163	23.5
3163.82	19.5
3164.63	21.5
3165.45	22
3166.27	25
3167.09	25.5
3167.91	23
3168.72	22
3169.54	23.5
3170.36	24
3171.18	21.5
3171.99	21
3172.81	21
3173.63	17.5
3174.44	23.5
3175.26	21
3176.08	25
3176.89	24.5
3177.71	22.5
3178.53	25.5
3179.34	21
3180.16	26.5
3180.97	22
3181.79	21
3182.61	25
3183.42	21
3184.24	20
3185.05	21.5
3185.87	26
3186.68	27
3187.5	24
3188.31	25.5
3189.13	21.5
3189.94	20
3190.76	23
3191.57	22
3192.39	21
3193.2	18
3194.02	24
3194.83	22
3195.64	24
3196.46	27.5
3197.27	21.5
3198.08	22
3198.9	23
3199.71	22.5
3200.52	20.5
3201.34	23
3202.15	21.5
3202.96	26.5
3203.78	21.5
3204.59	23.5
3205.4	24
3206.21	22.5
3207.03	26
3207.84	22
3208.65	22.5
3209.46	21.5
3210.27	22
3211.09	23.5
3211.9	27
3212.71	25.5
3213.52	20
3214.33	24.5
3215.14	26
3215.95	24
3216.77	26.5
3217.58	24.5
3218.39	23.5
3219.2	23.5
3220.01	24
3220.82	24
3221.63	21.5
3222.44	24
3223.25	24
3224.06	25
3224.87	23
3225.68	26
3226.49	19.5
3227.3	22.5
3228.11	18
3228.92	23
3229.73	24
3230.53	24.5
3231.34	24
3232.15	24
3232.96	25
3233.77	24.5
3234.58	25
3235.39	23
3236.19	26
3237	25
3237.81	27.5
3238.62	25
3239.43	19.5
3240.23	17.5
3241.04	23.5
3241.85	21.5
3242.66	21.5
3243.46	23
3244.27	24
3245.08	22
3245.89	22
3246.69	23
3247.5	24
3248.31	22
3249.11	21
3249.92	24.5
3250.72	26.5
3251.53	22
3252.34	21
3253.14	24.5
3253.95	23
3254.75	21.5
3255.56	21
3256.36	25
3257.17	22.5
3257.98	21
3258.78	24.5
3259.59	24.5
3260.39	25.5
3261.19	28
3262	24.5
3262.8	23.5
3263.61	24
3264.41	23
3265.22	22.5
3266.02	22.5
3266.83	21
3267.63	22
3268.43	24.5
3269.24	21
3270.04	21
3270.84	24.5
3271.65	23.5
3272.45	22
3273.25	23
3274.06	24
3274.86	21
3275.66	27.5
3276.46	25
3277.27	25
3278.07	23.5
3278.87	27.5
3279.67	22.5
3280.48	24.5
3281.28	21
3282.08	24
3282.88	21.5
3283.68	21
3284.48	17.5
3285.29	20.5
3286.09	20
3286.89	27.5
3287.69	26
3288.49	24
3289.29	19.5
3290.09	22
3290.89	26.5
3291.69	21.5
3292.49	24
3293.29	25
3294.09	22
3294.89	23
3295.69	20
3296.49	24.5
3297.29	23
3298.09	26
3298.89	20.5
3299.69	22.5
3300.49	24
3301.29	23.5
3302.09	23
3302.89	24
3303.69	22
3304.49	23
3305.28	29.5
3306.08	26
3306.88	24
3307.68	25
3308.48	27
3309.28	26.5
3310.07	26
3310.87	26
3311.67	25
3312.47	21.5
3313.26	26.5
3314.06	23
3314.86	27.5
3315.66	26
3316.45	26
3317.25	22
3318.05	25.5
3318.84	26
3319.64	25
3320.44	23
3321.23	20.5
3322.03	26
3322.83	23.5
3323.62	25
3324.42	26
3325.21	23.5
3326.01	22
3326.81	22.5
3327.6	22
3328.4	22
3329.19	25.5
3329.99	21.5
3330.78	23
3331.58	22
3332.37	24.5
3333.17	27
3333.96	28.5
3334.76	23
3335.55	22
3336.34	23.5
3337.14	23
3337.93	26.5
3338.73	22
3339.52	25
3340.31	22.5
3341.11	24
3341.9	21.5
3342.69	26.5
3343.49	24
3344.28	22
3345.07	25
3345.87	20.5
3346.66	24
3347.45	24
3348.25	24
3349.04	26
3349.83	25.5
3350.62	19.5
3351.42	24.5
3352.21	22
3353	28
3353.79	21.5
3354.58	21
3355.37	25.5
3356.17	28
3356.96	24.5
3357.75	18.5
3358.54	25.5
3359.33	24
3360.12	24
3360.91	22
3361.7	23
3362.49	25
3363.29	20.5
3364.08	25.5
3364.87	25
3365.66	26
3366.45	20.5
3367.24	26.5
3368.03	25
3368.82	21.5
3369.61	25
3370.4	18.5
3371.19	25
3371.97	22.5
3372.76	20.5
3373.55	26
3374.34	23
3375.13	25.5
3375.92	23.5
3376.71	21
3377.5	18
3378.29	27
3379.07	23
3379.86	21.5
3380.65	29.5
3381.44	22.5
3382.23	24
3383.01	24.5
3383.8	25
3384.59	26.5
3385.38	25
3386.16	28
3386.95	23
3387.74	19.5
3388.53	25
3389.31	26
3390.1	20
3390.89	23
3391.67	23
3392.46	18
3393.25	24.5
3394.03	25
3394.82	24
3395.6	27
3396.39	23.5
3397.18	22.5
3397.96	23
3398.75	23
3399.53	20.5
3400.32	24
3401.1	27.5
3401.89	25.5
3402.67	23.5
3403.46	26
3404.24	24
3405.03	20.5
3405.81	26
3406.6	27
3407.38	23.5
3408.17	25.5
3408.95	25.5
3409.74	22
3410.52	24
3411.3	24.5
3412.09	23
3412.87	23.5
3413.65	28
3414.44	23
3415.22	25
3416	23
3416.79	21
3417.57	22
3418.35	27.5
3419.14	20.5
3419.92	24
3420.7	20
3421.48	23.5
3422.27	24.5
3423.05	23.5
3423.83	18
3424.61	27
3425.4	22.5
3426.18	23
3426.96	23.5
3427.74	24.5
3428.52	24
3429.3	23.5
3430.08	22
3430.87	22
3431.65	27
3432.43	23
3433.21	22.5
3433.99	23.5
3434.77	24.5
3435.55	21.5
3436.33	24.5
3437.11	25.5
3437.89	24.5
3438.67	23.5
3439.45	22
3440.23	20
3441.01	23.5
3441.79	25.5
3442.57	28
3443.35	23.5
3444.13	24
3444.91	21
3445.69	24.5
3446.47	24.5
3447.25	26.5
3448.03	25
3448.8	22
3449.58	24
3450.36	22
3451.14	24
3451.92	23
3452.7	23.5
3453.47	25
3454.25	19
3455.03	22
3455.81	25.5
3456.59	22
3457.36	22
3458.14	22.5
3458.92	23
3459.69	24.5
3460.47	25
3461.25	25.5
3462.03	23.5
3462.8	19.5
3463.58	25
3464.36	22.5
3465.13	23
3465.91	22.5
3466.69	24
3467.46	23
3468.24	19
3469.01	23.5
3469.79	22
3470.57	20
3471.34	25
3472.12	23
3472.89	24.5
3473.67	21
3474.44	28.5
3475.22	26
3475.99	24.5
3476.77	22
3477.54	24
3478.32	24
3479.09	22
3479.87	22.5
3480.64	23.5
3481.41	21
3482.19	25.5
3482.96	23.5
3483.74	20
3484.51	26.5
3485.28	23
3486.06	23
3486.83	19
3487.6	25.5
3488.38	25
3489.15	21
3489.92	25.5
3490.7	23.5
3491.47	26
3492.24	25
3493.01	25.5
3493.79	23.5
3494.56	26
3495.33	21.5
3496.1	27.5
3496.88	27.5
3497.65	23
3498.42	22
3499.19	19
3499.96	22
