#Acq. time (s)=	5
#Accumulations=	5
#Range (cm-¹)=	100...3500
#Windows=	4
#Autofocus=	Off
#AutoExposure=	Off
#Spike filter=	Multiple accum.
#Delay time (s)=	0
#Binning=	1
#Readout mode=	Signal
#DeNoise=	Off
#ICS correction=	Off
#Dark correction=	Off
#Inst. Process=	Off
#Instrument=	LabRAM HR Evol
#Detector=	Syncerity OE
#Objective=	x100_VIS
#Grating=	600 (500nm)
#ND Filter=	25%
#Laser=	633nm_Edge
#Hole=	100.021
#Range=	Visible
#Project=	verificaciones
#Sample=	at3
#Site=	lined
#Title=	bolusat3lined
#Remark=	
#Date=	14.01.2026 13:02
#Acquired=	14.01.2026 13:02:51
100.618	29.5
101.901	35
103.185	32.5
104.468	30
105.751	31
107.033	29.5
108.316	29
109.598	30
110.88	32
112.162	30
113.445	32
114.727	30
116.008	32
117.289	33
118.57	31.5
119.85	31.5
121.13	35
122.411	33
123.691	32
124.97	35
126.25	36
127.529	29.5
128.808	34
130.086	31
131.364	35
132.643	37.5
133.921	39.5
135.199	36
136.477	34.5
137.755	36
139.032	38.5
140.309	41
141.586	40.5
142.863	39.5
144.14	37
145.415	45.5
146.691	43
147.967	44.5
149.243	45
150.518	40
151.794	43.5
153.067	41
154.342	47.5
155.617	44.5
156.892	45
158.166	35
159.439	45.5
160.712	43.5
161.986	45
163.26	42
164.531	41
165.805	38
167.077	44.5
168.35	39
169.621	44
170.893	46.5
172.165	41.5
173.437	37.5
174.707	41
175.979	41
177.25	44
178.519	42
179.79	42
181.061	43
182.33	40.5
183.6	44
184.87	44.5
186.138	40
187.408	45.5
188.676	43.5
189.945	43
191.214	43.5
192.481	44.5
193.75	40
195.016	48
196.285	41.5
197.552	43
198.819	39.5
200.086	42
201.352	37
202.619	38.5
203.884	38
205.151	39
206.416	41.5
207.682	38.5
208.947	34.5
210.213	34
211.477	39.5
212.742	36
214.006	35.5
215.271	37
216.535	36.5
217.799	36.5
219.062	36.5
220.326	28.5
221.589	34
222.851	38
224.115	35.5
225.377	30.5
226.64	33.5
227.901	30.5
229.163	34.5
230.425	31
231.686	30
232.947	34
234.209	34
235.469	37
236.729	37
237.991	28
239.25	34
240.51	32
241.771	31.5
243.03	32.5
244.288	28
245.549	30
246.807	31
248.065	30
249.323	35.5
250.583	29
251.84	28
253.098	31.5
254.355	26.5
255.613	31.5
256.87	32
258.127	29
259.383	31.5
260.639	27
261.897	29.5
263.153	32.5
264.408	34.5
265.664	22
266.919	28.5
268.174	32.5
269.43	25
270.685	33
271.939	24
273.193	28
274.447	31.5
275.701	30
276.955	31
278.208	31.5
279.461	29.5
280.714	33.5
281.968	24.5
283.221	32
284.473	27
285.726	32.5
286.977	28.5
288.229	27.5
289.481	30
290.732	30
291.983	28
293.234	28
294.485	30.5
295.736	27.5
296.986	31.5
298.236	31.5
299.486	30
300.736	30
301.985	31
303.233	32
304.482	27
305.731	29
306.98	30.5
308.228	21
309.477	31
310.725	30
311.973	25
313.22	29.5
314.468	32
315.714	29.5
316.961	29
318.208	30.5
319.455	29
320.701	29
321.947	28.5
323.192	30.5
324.438	30
325.684	29
326.929	29.5
328.175	28
329.418	25.5
330.663	27
331.908	31
333.152	30.5
334.395	29.5
335.639	32
336.883	31
338.127	30
339.369	30.5
340.612	27
341.855	30
343.097	28.5
344.34	26.5
345.582	29
346.823	25
348.065	29
349.307	28
350.547	31.5
351.789	32.5
353.03	32
354.27	34
355.511	32
356.75	31.5
357.991	29.5
359.231	28.5
360.47	30
361.709	29.5
362.948	29.5
364.187	29
365.427	30
366.664	33
367.903	32
369.14	26.5
370.379	28.5
371.616	32.5
372.854	27.5
374.091	27.5
375.328	29
376.564	29
377.802	32
379.037	29
380.274	32
381.51	28
382.745	25
383.981	27
385.216	29
386.452	31
387.686	29
388.922	27
390.155	31
391.389	28
392.624	30
393.857	29.5
395.091	28
396.325	32
397.558	25.5
398.79	28
400.024	26
401.256	31
402.488	25
403.721	31.5
404.953	31.5
406.184	28
407.417	30.5
408.648	27.5
409.878	31
411.109	29
412.341	26.5
413.571	29
414.801	26.5
416.031	34
417.262	33
418.491	31.5
419.72	26
420.949	30
422.178	31
423.408	24
424.637	24.5
425.865	27
427.093	30
428.32	31
429.548	25.5
430.777	29.5
432.004	32
433.231	28.5
434.458	29.5
435.685	25.5
436.911	30
438.137	27.5
439.363	31.5
440.589	32.5
441.815	31.5
443.042	26
444.267	29.5
445.492	31
446.717	32
447.942	33
449.166	31
450.39	28.5
451.615	28.5
452.838	31
454.062	32
455.286	28.5
456.509	34.5
457.732	32
458.955	34
460.178	30
461.399	33
462.621	30
463.843	31
465.065	29
466.287	32
467.508	31
468.73	32
469.951	32.5
471.172	36
472.393	37.5
473.612	37.5
474.832	36.5
476.052	41.5
477.272	43.5
478.492	49
479.712	52
480.93	53
482.149	53.5
483.368	57
484.587	62
485.806	60
487.023	64
488.241	62
489.459	66
490.677	61
491.893	64.5
493.111	56.5
494.328	57
495.543	53
496.76	52.5
497.977	49
499.194	51
500.409	46.5
501.625	43.5
502.841	42.5
504.055	38.5
505.27	39.5
506.486	39
507.699	42.5
508.914	39.5
510.128	40
511.342	39
512.557	36.5
513.77	33.5
514.984	34.5
516.196	34
517.41	32
518.623	35
519.835	35
521.048	27.5
522.259	33.5
523.472	31
524.683	35
525.895	34.5
527.106	27.5
528.318	31
529.528	32.5
530.74	30
531.949	35.5
533.161	27.5
534.37	33
535.581	29
536.79	31
537.999	29.5
539.209	31.5
540.418	31
541.627	33
542.835	32
544.043	27
545.253	30
546.46	33.5
547.669	28
548.876	30.5
550.083	31
551.292	27
552.498	30
553.705	31.5
554.912	28.5
556.118	30.5
557.324	28.5
558.53	24.5
559.737	29.5
560.942	32
562.147	29
563.353	29
564.558	31
565.763	27
566.967	32
568.173	29
569.377	30
570.58	27
571.784	31
572.987	32
574.192	30
575.395	29
576.598	32
577.8	26
579.003	27.5
580.205	29.5
581.407	29.5
582.61	27
583.812	31
585.014	31.5
586.215	31
587.416	28
588.617	26
589.818	31
591.018	30.5
592.219	31
593.419	31
594.619	28
595.819	30
597.02	30
598.219	27.5
599.418	30
600.617	24
601.816	26
603.015	30
604.213	27.5
605.41	28.5
606.608	29
607.806	30.5
609.004	30.5
610.201	29.5
611.399	28
612.596	31
613.793	25
614.989	30.5
616.186	27.5
617.382	30.5
618.579	30
619.775	33.5
620.969	30.5
622.165	30
623.36	30.5
624.555	29
625.75	34.5
626.945	28
628.139	25.5
629.333	28
630.527	29
631.721	34.5
632.915	31.5
634.108	30
635.301	28
636.495	31
637.688	27
638.88	32
640.072	28.5
641.265	29.5
642.456	26.5
643.648	30.5
644.84	30.5
646.032	27
647.222	30
648.414	28
649.605	30
650.795	28
651.986	30
653.177	30
654.366	28.5
655.556	28.5
656.745	33.5
657.935	25
659.125	34
660.313	33.5
661.503	31
662.69	28
663.879	28
665.067	28
666.256	34
667.444	29
668.631	31
669.819	30.5
671.006	32.5
672.194	29.5
673.38	30.5
674.567	30
675.753	33.5
676.94	32.5
678.125	31.5
679.311	34
680.497	34.5
681.682	30.5
682.868	36
684.053	39
685.238	37
686.422	35
687.606	32
688.792	34
689.975	35.5
691.159	32.5
692.343	32.5
693.526	41
694.71	35
695.893	34.5
697.076	39.5
698.259	37
699.441	33
700.623	39
701.805	40
702.988	40
704.169	41
705.35	50.5
706.533	47.5
707.714	53
708.894	52
710.075	55.5
711.255	51
712.436	45
713.616	44
714.796	37
715.975	37
717.155	33
718.335	35.5
719.514	32
720.693	34
721.872	33.5
723.05	24
724.228	29.5
725.406	29
726.585	30
727.763	27.5
728.941	25
730.118	29
731.295	27
732.472	29.5
733.649	31
734.825	27
736.002	32
737.178	31
738.354	25.5
739.53	27.5
740.705	28.5
741.881	33
743.056	30
744.231	24
745.406	28
746.581	32.5
747.755	28.5
748.93	27.5
750.104	35
751.278	29.5
752.452	30
753.625	32.5
754.799	27.5
755.972	26.5
757.144	29
758.317	32
759.489	30
760.662	28
761.834	30
763.006	26
764.178	27
765.349	33.5
766.521	29.5
767.692	26
768.863	27.5
770.034	28
771.204	30
772.374	34
773.545	24
774.715	29
775.885	31
777.054	28.5
778.224	27.5
779.393	34
780.562	27.5
781.731	35
782.9	26
784.069	36
785.236	26.5
786.405	33
787.573	35
788.74	34.5
789.908	28.5
791.074	34
792.242	33
793.409	32.5
794.575	28
795.742	30.5
796.909	33.5
798.074	31
799.241	30
800.406	29.5
801.572	28
802.737	33
803.902	29
805.067	30
806.232	30
807.396	27.5
808.561	30.5
809.725	28
810.889	30
812.052	29
813.217	29
814.38	30
815.544	28.5
816.706	27
817.87	27.5
819.032	26.5
820.195	27
821.357	26.5
822.518	26.5
823.681	27.5
824.842	24.5
826.005	29.5
827.165	27
828.326	31.5
829.488	28
830.648	23.5
831.808	33.5
832.97	25
834.129	29
835.289	27
836.45	29
837.609	26.5
838.768	29
839.927	28.5
841.087	26
842.245	29.5
843.404	30
844.562	25
845.721	27.5
846.879	29
848.036	28.5
849.194	30.5
850.351	30.5
851.509	28.5
852.666	34
853.823	29.5
854.979	31
856.136	25.5
857.292	30.5
858.448	31
859.605	32.5
860.761	30
861.916	31.5
863.071	31.5
864.226	31.5
865.381	30
866.536	28
867.691	26
868.845	25.5
869.999	30
871.153	31
872.307	30.5
873.461	28.5
874.614	27
875.767	32
876.92	29.5
878.073	30.5
879.226	29.5
880.379	29
881.531	29
882.683	28.5
883.835	27
884.987	28
886.139	29
887.291	28
888.442	28.5
889.593	30
890.743	26.5
891.893	31
893.044	25
894.195	24
895.345	30.5
896.495	25
897.643	27.5
898.793	31
899.943	29.5
901.092	27
902.241	28
903.389	30.5
904.538	27
905.687	23.5
906.835	28
907.982	29
909.13	29
910.278	29.5
911.426	28
912.572	29
913.72	26.5
914.867	27
916.013	27
917.16	21.5
918.306	24
919.451	29.5
920.598	25.5
921.744	28
922.889	28.5
924.035	28.5
925.18	28.5
926.324	30
927.47	28.5
928.614	23.5
929.758	27.5
930.902	24
932.047	21
933.191	23
934.334	27.5
935.478	27.5
936.621	25.5
937.764	29.5
938.906	30
940.05	27
941.192	27
942.335	22.5
943.476	29
944.619	26.5
945.76	30
946.901	27
948.043	27.5
949.184	30.5
950.326	25.5
951.466	26.5
952.606	24.5
953.747	25.5
954.887	28.5
956.028	27
957.167	27
958.307	31
959.447	28
960.586	25
961.725	25.5
962.865	21
964.003	27.5
965.141	27
966.279	30
967.418	29.5
968.556	25.5
969.693	25.5
970.831	26.5
971.969	26
973.106	26.5
974.243	29.5
975.38	28
976.517	28.5
977.654	25
978.79	26.5
979.926	28.5
981.061	29.5
982.197	23.5
983.334	27.5
984.469	22
985.604	30
986.739	26
987.873	28
989.008	27.5
990.142	23
991.277	25
992.411	28
993.544	30
994.679	29.5
995.813	26.5
996.946	22
998.079	26
999.212	26.5
1000.35	28.5
1001.48	24.5
1002.61	25
1003.74	27
1004.87	27.5
1006.01	28.5
1007.14	28
1008.27	32
1009.4	25.5
1010.53	27.5
1011.66	24.5
1012.79	24
1013.92	30.5
1015.05	26.5
1016.18	24
1017.31	28.5
1018.44	28
1019.57	25
1020.7	28
1021.83	29.5
1022.96	28
1024.09	27
1025.22	26.5
1026.35	27
1027.48	25.5
1028.6	26
1029.73	27
1030.86	25
1031.99	27
1033.12	22
1034.24	29
1035.37	22.5
1036.5	26
1037.62	25
1038.75	28
1039.88	21
1041	26
1042.13	25.5
1043.25	25.5
1044.38	31
1045.5	26
1046.63	26.5
1047.76	26.5
1048.88	24.5
1050	28.5
1051.13	25
1052.25	27.5
1053.38	25.5
1054.5	27
1055.63	25.5
1056.75	26
1057.87	26
1058.99	28
1060.12	24
1061.24	30.5
1062.36	21
1063.49	32
1064.61	23
1065.73	26
1066.85	26.5
1067.97	28.5
1069.1	26
1070.22	24.5
1071.34	23
1072.46	29
1073.58	25
1074.7	26
1075.82	30
1076.94	25.5
1078.06	25
1079.18	23.5
1080.3	23
1081.42	23.5
1082.54	26
1083.66	23.5
1084.78	25
1085.9	24.5
1087.02	24.5
1088.13	27.5
1089.25	23
1090.37	24.5
1091.49	24.5
1092.61	25.5
1093.72	26
1094.84	26.5
1095.96	28.5
1097.08	24.5
1098.19	28
1099.31	24.5
1100.42	23.5
1101.54	29
1102.66	23
1103.77	27
1104.89	24
1106	22.5
1107.12	27
1108.23	28.5
1109.35	23
1110.46	25
1111.58	27.5
1112.69	25.5
1113.81	26.5
1114.92	23.5
1116.04	26.5
1117.15	29
1118.26	25
1119.38	26.5
1120.49	28.5
1121.6	26.5
1122.72	26.5
1123.83	19
1124.94	24
1126.05	25
1127.17	24
1128.28	26.5
1129.39	26
1130.5	23.5
1131.61	26
1132.72	24
1133.83	27
1134.94	22
1136.06	26
1137.17	27
1138.27	24
1139.39	24
1140.5	27.5
1141.61	23.5
1142.72	25
1143.82	26
1144.93	26
1146.04	23.5
1147.15	29.5
1148.26	23.5
1149.37	26.5
1150.48	25
1151.58	27
1152.69	30
1153.8	25
1154.91	27
1156.02	26
1157.12	27.5
1158.23	26.5
1159.34	25
1160.44	22
1161.55	30
1162.66	25.5
1163.76	26
1164.87	25
1165.97	23.5
1167.08	29
1168.18	29
1169.29	24.5
1170.39	26
1171.5	26.5
1172.6	22
1173.71	22
1174.81	28
1175.92	25.5
1177.02	25
1178.13	20.5
1179.23	27
1180.33	26
1181.44	19.5
1182.54	20
1183.64	25.5
1184.74	24
1185.85	27.5
1186.95	25
1188.05	27
1189.15	27
1190.26	27
1191.36	26
1192.46	24
1193.56	30
1194.66	25.9888
1195.76	28.3856
1196.86	23.6279
1197.96	22.1231
1199.06	25.1055
1200.16	29.7781
1201.26	24.4142
1202.36	26.9334
1203.46	26.6129
1204.56	25.3941
1205.66	23.6066
1206.76	21.4387
1207.86	24.2012
1208.96	25.7397
1210.06	21.994
1211.16	27.2746
1212.25	25.6602
1213.35	25.0012
1214.45	25.4102
1215.55	24.6267
1216.65	25.7935
1217.74	20.5221
1218.84	25.6466
1219.94	26.3194
1221.03	25.067
1222.13	25.7201
1223.23	24.5061
1224.32	23.1221
1225.42	24.1039
1226.52	25.3747
1227.61	23.6414
1228.71	25.7034
1229.8	24.8181
1230.9	20.5335
1231.99	21.5776
1233.09	25.2304
1234.18	25.4118
1235.28	22.7834
1236.37	22.8601
1237.47	24.1905
1238.56	21.8715
1239.65	24.6533
1240.75	22.331
1241.84	26.1553
1242.93	23.684
1244.03	22.6442
1245.12	25.8228
1246.21	24.2648
1247.31	23.967
1248.4	26.338
1249.49	23.41
1250.58	23.2105
1251.67	25.0093
1252.77	25.5783
1253.86	26.2631
1254.95	23.2685
1256.04	26.935
1257.13	28.8373
1258.22	27.2564
1259.31	27.8762
1260.4	28.3383
1261.49	26.8573
1262.58	27.4717
1263.67	26.3732
1264.76	26.0382
1265.85	24.2731
1266.94	25.745
1268.03	26.73
1269.12	27.165
1270.21	26.8495
1271.3	25.573
1272.39	26.6492
1273.47	23.8495
1274.56	25.1115
1275.65	25.9438
1276.74	23.7807
1277.83	24.7658
1278.91	27.1018
1280	25.6347
1281.09	26.0315
1282.17	26.2092
1283.26	26.2096
1284.35	25
1285.43	26.7257
1286.52	23.4905
1287.61	24.3645
1288.69	25.5901
1289.78	24.3795
1290.86	25.1025
1291.95	25.4989
1293.03	23.2667
1294.12	23.8594
1295.2	23.767
1296.29	22.7089
1297.37	21.7204
1298.46	25.5718
1299.54	24.7213
1300.63	22.9202
1301.71	26.2663
1302.79	26.4209
1303.88	24.1485
1304.96	23.2555
1306.04	26.167
1306.5	28.5
1307.59	28.5
1308.68	22.5
1309.76	26
1310.85	22.5
1311.94	24
1313.03	26
1314.11	27.5
1315.2	27.5
1316.29	24
1317.37	26
1318.46	23.5
1319.55	24
1320.63	20.5
1321.72	26
1322.81	25
1323.89	26
1324.98	26.5
1326.06	28
1327.15	25.5
1328.23	23.5
1329.32	27
1330.4	26
1331.49	25
1332.57	26
1333.66	23.5
1334.74	26
1335.82	27
1336.91	24
1337.99	25.5
1339.07	29
1340.16	24.5
1341.24	23
1342.32	27.5
1343.4	22
1344.49	27.5
1345.57	26
1346.65	25
1347.73	25.5
1348.82	29
1349.9	23
1350.98	27
1352.06	23
1353.14	26
1354.22	27.5
1355.3	24
1356.38	24.5
1357.46	25
1358.54	29.5
1359.62	26.5
1360.7	27
1361.78	26.5
1362.86	27.5
1363.94	28.5
1365.02	22.5
1366.1	22
1367.18	25.5
1368.26	25.5
1369.34	24
1370.41	26.5
1371.49	26
1372.57	24
1373.65	25
1374.72	28.5
1375.8	23.5
1376.88	23.5
1377.96	26
1379.03	21
1380.11	27.5
1381.19	27
1382.26	26
1383.34	26.5
1384.42	25
1385.49	26
1386.57	28
1387.64	28.5
1388.72	28
1389.79	30.5
1390.87	25
1391.94	30
1393.02	27
1394.09	29
1395.17	26.5
1396.24	27
1397.31	27.5
1398.39	28.5
1399.46	33.5
1400.54	29
1401.61	25.5
1402.68	28
1403.76	35.5
1404.83	29.5
1405.9	32
1406.97	30
1408.05	32
1409.12	24
1410.19	29.5
1411.26	34
1412.33	33
1413.4	31
1414.48	32.5
1415.55	31.5
1416.62	28.5
1417.69	30
1418.76	30.5
1419.83	30.5
1420.9	29
1421.97	23
1423.04	27.5
1424.11	28
1425.18	30
1426.25	29
1427.32	28
1428.39	28
1429.46	30
1430.52	27
1431.59	28
1432.66	30.5
1433.73	26
1434.8	28.5
1435.87	27.5
1436.93	25.5
1438	24
1439.07	27
1440.14	27
1441.2	28.5
1442.27	28.5
1443.34	28
1444.4	23.5
1445.47	27.5
1446.54	24
1447.6	30
1448.67	24
1449.73	26
1450.8	26
1451.86	28.5
1452.93	29.5
1453.99	27.5
1455.06	25.5
1456.12	26.5
1457.19	25.5
1458.25	23.5
1459.32	25
1460.38	25
1461.45	27.5
1462.51	25
1463.57	24.5
1464.64	25
1465.7	25
1466.76	27.5
1467.82	24.5
1468.89	24.5
1469.95	27.5
1471.01	29
1472.07	26.5
1473.14	23
1474.2	27.5
1475.26	25
1476.32	30
1477.38	27.5
1478.44	27
1479.5	27
1480.57	22
1481.63	29
1482.69	26.5
1483.75	31.5
1484.81	31
1485.87	26.5
1486.93	28
1487.99	27.5
1489.05	28
1490.1	28
1491.17	26.5
1492.22	28.5
1493.28	23
1494.34	28.5
1495.4	26.5
1496.46	30.5
1497.52	29.5
1498.57	24.5
1499.63	27
1500.69	24
1501.75	23.5
1502.8	24.5
1503.86	26
1504.92	26
1505.98	24
1507.03	27.5
1508.09	27
1509.15	26.5
1510.2	28
1511.26	23
1512.31	21
1513.37	26
1514.42	26.5
1515.48	28.5
1516.53	28.5
1517.59	31.5
1518.64	27
1519.7	25.5
1520.75	27
1521.81	25
1522.86	20
1523.92	24
1524.97	24.5
1526.02	26.5
1527.08	23
1528.13	22.5
1529.18	24.5
1530.24	22
1531.29	25
1532.34	26
1533.39	27
1534.45	23
1535.5	22.5
1536.55	27.5
1537.6	29
1538.65	27.5
1539.71	28.5
1540.76	24
1541.81	29.5
1542.86	24.5
1543.91	25.5
1544.96	26
1546.01	26
1547.06	26.5
1548.11	29
1549.16	27.5
1550.21	26
1551.26	25.5
1552.31	27.5
1553.36	27.5
1554.41	26.5
1555.46	21
1556.51	22.5
1557.56	27
1558.6	25
1559.65	25
1560.7	26
1561.75	25.5
1562.8	26.5
1563.84	23.5
1564.89	28.5
1565.94	27
1566.99	29.5
1568.03	27
1569.08	27.5
1570.13	29
1571.17	24.5
1572.22	25.5
1573.27	27.5
1574.31	21
1575.36	26.5
1576.4	25.5
1577.45	23.5
1578.5	26.5
1579.54	23.5
1580.59	25
1581.63	22
1582.68	23.5
1583.72	24
1584.76	29
1585.81	27
1586.85	25.5
1587.9	24.5
1588.94	25.5
1589.98	28
1591.03	27.5
1592.07	24.5
1593.11	25.5
1594.16	24.5
1595.2	24.5
1596.24	22
1597.29	27.5
1598.33	26.5
1599.37	27.5
1600.41	22
1601.45	24.5
1602.49	27
1603.54	29
1604.58	22
1605.62	22
1606.66	25.5
1607.7	28.5
1608.74	24
1609.78	25
1610.82	28
1611.86	23.5
1612.9	29
1613.94	26.5
1614.98	28
1616.02	21.5
1617.06	26.5
1618.1	25.5
1619.14	24
1620.18	25
1621.22	27
1622.25	24.5
1623.29	24.5
1624.33	25
1625.37	26.5
1626.41	25
1627.45	25
1628.48	26
1629.52	20.5
1630.56	20
1631.59	29.5
1632.63	26
1633.67	28
1634.7	29
1635.74	20.5
1636.78	30
1637.81	27
1638.85	28
1639.88	28
1640.92	24.5
1641.96	25.5
1642.99	28.5
1644.03	23.5
1645.06	25.5
1646.1	25
1647.13	29
1648.17	22.5
1649.2	24.5
1650.23	24.5
1651.27	25.5
1652.3	25.5
1653.33	24
1654.37	22
1655.4	22.5
1656.44	29.5
1657.47	26
1658.5	24.5
1659.53	26
1660.57	24.5
1661.6	24
1662.63	27.5
1663.66	28
1664.69	24.5
1665.73	30.5
1666.76	24
1667.79	22.5
1668.82	22
1669.85	23.5
1670.88	25
1671.91	24.5
1672.94	25
1673.97	24.5
1675.01	27.5
1676.03	27
1677.07	26
1678.1	24
1679.12	26
1680.15	24
1681.18	23.5
1682.21	26
1683.24	24
1684.27	25.5
1685.3	27
1686.33	26.5
1687.36	24
1688.38	23.5
1689.41	27
1690.44	24
1691.47	23.5
1692.5	27.5
1693.52	26.5
1694.55	25
1695.58	23.5
1696.6	25
1697.63	22
1698.66	25.5
1699.68	27.5
1700.71	27
1701.74	28
1702.76	22
1703.79	27
1704.81	25.5
1705.84	27.5
1706.86	28
1707.89	28
1708.91	26
1709.94	23
1710.96	25.5
1711.99	25.5
1713.01	27.5
1714.04	22
1715.06	27
1716.08	24
1717.11	25.5
1718.13	29.5
1719.16	23.5
1720.18	26
1721.2	28
1722.22	25
1723.25	25
1724.27	27.5
1725.29	23
1726.31	28.5
1727.34	25.5
1728.36	28.5
1729.38	22
1730.4	23
1731.42	27
1732.44	25
1733.47	24.5
1734.49	30.5
1735.51	25
1736.53	26
1737.55	26
1738.57	27
1739.59	26.5
1740.61	26
1741.63	27
1742.65	28
1743.67	27
1744.69	24
1745.71	26
1746.73	24
1747.75	24
1748.76	25
1749.78	26
1750.8	23
1751.82	28.5
1752.84	25.5
1753.86	23.5
1754.87	24.5
1755.89	25
1756.91	25.5
1757.93	26
1758.94	27.5
1759.96	27.5
1760.98	24
1761.99	25
1763.01	23.5
1764.03	25
1765.04	23
1766.06	28
1767.08	21
1768.09	25.5
1769.11	24.5
1770.12	33.5
1771.14	25.5
1772.15	26.5
1773.17	23.5
1774.18	21
1775.2	27
1776.21	23.5
1777.23	24
1778.24	26
1779.25	22.5
1780.27	23.5
1781.28	26
1782.3	26
1783.31	26
1784.32	23
1785.34	27
1786.35	22.5
1787.36	27
1788.37	29
1789.39	29.5
1790.4	21.5
1791.41	27.5
1792.42	26
1793.43	23
1794.45	25
1795.46	24
1796.47	24
1797.48	27
1798.49	25.5
1799.5	26.5
1800.51	26
1801.52	24.5
1802.53	25
1803.54	23.5
1804.55	25.5
1805.56	29
1806.57	27.5
1807.58	26.5
1808.59	24
1809.6	26.5
1810.61	28.5
1811.62	26
1812.63	29
1813.64	28.5
1814.65	22
1815.66	25.5
1816.66	20.5
1817.67	28.5
1818.68	28.5
1819.69	25.5
1820.69	24.5
1821.7	26
1822.71	25.5
1823.72	23.5
1824.72	25.5
1825.73	25
1826.74	26.5
1827.74	25
1828.75	26
1829.76	25
1830.76	25
1831.77	25
1832.77	26
1833.78	24
1834.79	22.5
1835.79	26.5
1836.8	25
1837.8	23.5
1838.81	26
1839.81	23.5
1840.81	27
1841.82	23.5
1842.82	26
1843.83	24.5
1844.83	24.5
1845.83	26
1846.84	24.5
1847.84	24
1848.84	22
1849.85	21
1850.85	26
1851.85	22
1852.86	24.5
1853.86	22.5
1854.86	29.5
1855.86	27.5
1856.86	29
1857.87	29
1858.87	27
1859.87	31.5
1860.87	26
1861.87	28
1862.87	24.5
1863.88	26
1864.88	25
1865.88	30
1866.88	26
1867.88	25
1868.88	26
1869.88	29.5
1870.88	21.5
1871.88	24
1872.88	29.5
1873.88	23
1874.87	24.5
1875.87	22.5
1876.87	25
1877.87	26
1878.87	24.5
1879.87	26.5
1880.87	23
1881.86	25.5
1882.86	27
1883.86	25.5
1884.86	23
1885.86	26
1886.85	28
1887.85	25.5
1888.85	27
1889.84	25
1890.84	25
1891.84	26.5
1892.83	29
1893.83	25.5
1894.83	25.5
1895.82	26
1896.82	28
1897.81	25.5
1898.81	25
1899.81	27.5
1900.8	25
1901.8	25
1902.79	24.5
1903.78	26
1904.78	21.5
1905.77	27
1906.77	28
1907.76	25
1908.76	25.5
1909.75	22.5
1910.74	24.5
1911.74	25.5
1912.73	25
1913.72	24.5
1914.72	26.5
1915.71	24.5
1916.7	28
1917.7	25
1918.69	28
1919.68	25
1920.67	25.5
1921.66	26.5
1922.66	23.5
1923.65	22.5
1924.64	23
1925.63	27
1926.62	28
1927.61	27.5
1928.6	20
1929.59	29.5
1930.59	27
1931.58	22.5
1932.57	26
1933.56	23
1934.55	27
1935.54	24.5
1936.53	24.5
1937.52	27
1938.51	23
1939.49	26
1940.48	23.5
1941.47	23
1942.46	24.5
1943.45	22.5
1944.44	22.5
1945.43	26
1946.42	24
1947.4	25.5
1948.39	24.5
1949.38	22
1950.37	24
1951.35	27
1952.34	26.5
1953.33	25
1954.31	27
1955.3	26
1956.29	23.5
1957.27	26.5
1958.26	28
1959.25	25
1960.23	22.5
1961.22	23.5
1962.21	22.5
1963.19	25.5
1964.18	26
1965.16	23
1966.15	24.5
1967.13	30.5
1968.12	25.5
1969.1	23.5
1970.09	24.5
1971.07	26
1972.05	26.5
1973.04	25
1974.02	23
1975.01	26
1975.99	29
1976.97	25
1977.96	22.5
1978.94	25
1979.92	26.5
1980.91	23.5
1981.89	27.5
1982.87	26
1983.85	24.5
1984.84	26
1985.82	23
1986.8	26
1987.78	27
1988.76	23.5
1989.74	25
1990.73	22.5
1991.71	22.5
1992.69	27
1993.67	23
1994.65	24.5
1995.63	26.5
1996.61	28.5
1997.59	23
1998.57	21.5
1999.55	23
2000.53	23.5
2001.51	24
2002.49	26
2003.47	25.5
2004.45	25
2005.43	25
2006.41	22
2007.39	19.5
2008.37	24
2009.34	24
2010.32	24.5
2011.3	22
2012.28	24
2013.26	23.5
2014.23	27.5
2015.21	24
2016.19	25.5
2017.17	25.5
2018.14	26
2019.12	22.5
2020.1	22
2021.07	28
2022.05	23.5
2023.03	28
2024	25.5
2024.98	19.5
2025.96	22
2026.93	24.5
2027.91	24
2028.88	24.5
2029.86	20.5
2030.83	26
2031.81	18.5
2032.78	22
2033.76	23
2034.73	25
2035.71	26.5
2036.68	21
2037.66	23
2038.63	26.5
2039.6	29.5
2040.58	23
2041.55	22
2042.52	23
2043.5	24
2044.47	25.5
2045.44	23.5
2046.42	23.5
2047.39	24.5
2048.36	21
2049.33	22.5
2050.31	27.5
2051.28	23.5
2052.25	24
2053.22	19
2054.19	20
2055.17	22.5
2056.14	23
2057.11	25.5
2058.08	23
2059.05	26
2060.02	23.5
2060.99	22.5
2061.96	23.5
2062.93	23
2063.9	22.5
2064.87	26.5
2065.84	24.5
2066.81	27
2067.78	23
2068.75	24.5
2069.72	23
2070.69	28
2071.66	25
2072.63	24.5
2073.6	25
2074.56	26
2075.53	20.5
2076.5	24
2077.47	22
2078.44	22
2079.4	24.5
2080.37	26
2081.34	23
2082.31	23
2083.27	27
2084.24	24
2085.21	23.5
2086.18	25
2087.14	20.5
2088.11	20
2089.07	25.5
2090.04	23
2091.01	24
2091.97	28
2092.94	21
2093.9	23.5
2094.87	22
2095.83	22.5
2096.8	23
2097.76	25
2098.73	24
2099.69	21
2100.66	24
2101.62	26
2102.59	23
2103.55	25
2104.52	18
2105.48	27
2106.44	24
2107.41	22.5
2108.37	25
2109.33	25
2110.3	25.5
2111.26	21.5
2112.22	24.5
2113.18	24
2114.15	19.5
2115.11	24.5
2116.07	30
2117.03	24
2118	24.5
2118.96	28.5
2119.92	25
2120.88	23
2121.84	21
2122.8	21.5
2123.76	26.5
2124.72	24
2125.68	23
2126.65	23
2127.61	25.5
2128.57	23
2129.53	25
2130.49	25
2131.45	22.5
2132.41	21
2133.36	20
2134.32	24.5
2135.28	24
2136.24	20.5
2137.2	24.5
2138.16	24
2139.12	24
2140.08	22
2141.04	22.5
2141.99	26
2142.95	27.4823
2143.91	27.4446
2144.87	22.5655
2145.83	24.4553
2146.78	23.0693
2147.74	24.0668
2148.7	20.1671
2149.66	24.8322
2150.61	26.7383
2151.57	21.1373
2152.53	21.9995
2153.48	22.2985
2154.44	21.3249
2155.4	22.5032
2156.35	27.1069
2157.31	20.7257
2158.26	22.3716
2159.22	20.9243
2160.17	23.4539
2161.13	24.0404
2162.08	20.9289
2163.04	21.1847
2163.99	25.2031
2164.95	21.3933
2165.9	22.0256
2166.86	22.3777
2167.81	22.569
2168.77	23.9281
2169.72	26.5095
2170.67	26.6773
2171.63	23.4548
2172.58	24.2926
2173.54	25.2296
2174.49	23.1651
2175.44	24.0331
2176.39	25.0671
2177.35	23.001
2178.3	20.9001
2179.25	23.5331
2180.2	21.3759
2181.16	23.466
2182.11	24.2681
2183.06	22.6318
2184.01	22.7112
2184.96	22.01
2185.92	23.3015
2186.87	23.917
2187.82	22.5656
2188.77	23.8266
2189.72	22.169
2190.67	22.3307
2191.62	24.0314
2192.57	21.4903
2193.52	22.0804
2194.47	23.8228
2195.42	24.8878
2196.37	23.6227
2197.32	22.3889
2198.27	22.4978
2199.22	21.8738
2200.17	21.2704
2201.12	21.3548
2202.07	24.2409
2203.02	24.1308
2203.97	23.1515
2204.92	24.5005
2205.87	21
2206.81	21.0838
2207.76	23.0195
2208.71	25.1195
2209.66	22.9254
2210.61	20.8506
2211.55	20.1855
2212.5	22.8864
2213.45	26.3514
2214.4	24.4996
2215.34	23.6154
2216.29	22.5094
2217.24	21.3676
2218.18	22.5145
2219.13	26.7039
2220.08	23.7571
2221.02	24.7725
2221.97	25.4837
2222.92	25.4752
2223.86	24.9784
2224.81	24.1268
2225.75	19.6376
2226.7	25.249
2227.64	20.9704
2228.59	19.0792
2229.53	24.0775
2230.48	22.1408
2231.42	25.7121
2232.37	25.4674
2233.31	20.8217
2234.26	23.4071
2235.2	21.0633
2236.14	24.8242
2237.09	22.0775
2238.03	21.5364
2238.97	19.3153
2239.92	22.8625
2240.05	23.5
2241	24
2241.95	23
2242.89	24.5
2243.84	21.5
2244.79	19.5
2245.74	22.5
2246.68	25
2247.63	20.5
2248.58	25
2249.53	21
2250.47	21
2251.42	24
2252.36	26.5
2253.31	24
2254.26	26
2255.2	20.5
2256.15	24.5
2257.1	24.5
2258.04	21
2258.99	22
2259.93	22
2260.88	26
2261.82	24
2262.77	26.5
2263.71	22.5
2264.66	20
2265.6	24
2266.55	21
2267.49	29.5
2268.43	25.5
2269.38	26.5
2270.32	24
2271.26	26
2272.21	24.5
2273.15	26
2274.09	25
2275.04	19
2275.98	19.5
2276.92	22.5
2277.87	23.5
2278.81	26
2279.75	22
2280.69	24
2281.64	22.5
2282.58	23.5
2283.52	25.5
2284.46	23
2285.4	21
2286.34	22.5
2287.29	23.5
2288.23	24.5
2289.17	24
2290.11	25
2291.05	22.5
2291.99	23.5
2292.93	19.5
2293.87	26
2294.81	23
2295.75	21.5
2296.69	24.5
2297.63	25
2298.57	29
2299.51	22.5
2300.45	27
2301.39	21
2302.33	25
2303.27	21.5
2304.2	21.5
2305.14	23
2306.08	24
2307.02	23
2307.96	23.5
2308.9	26
2309.83	21
2310.77	24.5
2311.71	19
2312.65	22.5
2313.58	24.5
2314.52	26.5
2315.46	26.5
2316.39	21
2317.33	22.5
2318.27	24
2319.21	24.5
2320.14	25
2321.08	23.5
2322.01	24
2322.95	22.5
2323.89	24.5
2324.82	21
2325.76	22.5
2326.69	23
2327.63	23.5
2328.56	22
2329.5	24
2330.43	20
2331.37	18
2332.3	21.5
2333.24	22
2334.17	22.5
2335.1	22
2336.04	23.5
2336.97	24.5
2337.91	23
2338.84	24
2339.77	26
2340.71	23
2341.64	22.5
2342.57	26.5
2343.51	21
2344.44	23.5
2345.37	23
2346.3	24
2347.24	24.5
2348.17	22.5
2349.1	24.5
2350.03	24.5
2350.96	24.5
2351.89	25.5
2352.83	20
2353.76	27
2354.69	22
2355.62	28.5
2356.55	19.5
2357.48	24.5
2358.41	20
2359.34	24.5
2360.27	26
2361.2	24
2362.13	23
2363.06	24
2363.99	25
2364.92	22.5
2365.85	27
2366.78	23
2367.71	24.5
2368.64	16
2369.57	22
2370.5	23
2371.43	24
2372.36	29.5
2373.28	27
2374.21	25.5
2375.14	21
2376.07	24.5
2377	22.5
2377.93	23.5
2378.85	23
2379.78	26
2380.71	24
2381.63	27.5
2382.56	26.5
2383.49	23.5
2384.42	25
2385.34	23
2386.27	24.5
2387.2	23
2388.12	25
2389.05	23.5
2389.97	26
2390.9	24.5
2391.82	27
2392.75	23.5
2393.68	22.5
2394.6	22.5
2395.53	20
2396.45	30
2397.38	24
2398.3	24
2399.23	22.5
2400.15	26
2401.07	23
2402	26
2402.92	24
2403.85	26
2404.77	23.5
2405.69	25
2406.62	26
2407.54	23
2408.46	23.5
2409.39	22
2410.31	24
2411.23	24.5
2412.16	23
2413.08	24.5
2414	27.5
2414.92	23
2415.85	25.5
2416.77	27
2417.69	23.5
2418.61	25
2419.53	24.5
2420.45	27
2421.38	22
2422.3	24
2423.22	23
2424.14	24
2425.06	24
2425.98	23.5
2426.9	27
2427.82	26.5
2428.74	25.5
2429.66	23
2430.58	23
2431.5	22
2432.42	24
2433.34	21
2434.26	25
2435.18	22
2436.1	24
2437.02	22
2437.94	31
2438.85	27
2439.77	22
2440.69	24
2441.61	27.5
2442.53	23.5
2443.45	25
2444.36	26.5
2445.28	25
2446.2	21.5
2447.12	24
2448.03	24.5
2448.95	23
2449.87	22
2450.79	23
2451.7	24
2452.62	24
2453.54	24.5
2454.45	23
2455.37	24
2456.28	24
2457.2	24.5
2458.12	24
2459.03	24
2459.95	21
2460.86	25
2461.78	25
2462.69	26
2463.61	24.5
2464.52	26
2465.44	27
2466.35	23
2467.27	23.5
2468.18	26
2469.1	24
2470.01	22.5
2470.93	25
2471.84	24.5
2472.75	22
2473.67	26
2474.58	26.5
2475.49	24
2476.41	22
2477.32	28
2478.23	25
2479.15	26
2480.06	25
2480.97	25
2481.88	24.5
2482.79	29
2483.71	21.5
2484.62	28.5
2485.53	25.5
2486.44	24
2487.35	28.5
2488.26	28.5
2489.18	24
2490.09	24.5
2491	24.5
2491.91	25
2492.82	22.5
2493.73	25
2494.64	24.5
2495.55	25.5
2496.46	25
2497.37	26
2498.28	20
2499.19	24
2500.1	22
2501.01	28.5
2501.92	22
2502.83	25
2503.74	23.5
2504.65	25
2505.56	23
2506.47	23.5
2507.37	24
2508.28	25
2509.19	25
2510.1	24
2511.01	26
2511.92	24.5
2512.82	21.5
2513.73	27
2514.64	23
2515.55	24.5
2516.45	27
2517.36	25
2518.27	26
2519.17	24.5
2520.08	24.5
2520.99	26
2521.89	26.5
2522.8	24
2523.71	25
2524.61	20.5
2525.52	19.5
2526.42	21
2527.33	26
2528.24	22.5
2529.14	28
2530.05	27
2530.95	24.5
2531.86	18.5
2532.76	24
2533.67	20
2534.57	23.5
2535.48	24
2536.38	26.5
2537.28	22.5
2538.19	29
2539.09	25
2540	24
2540.9	25
2541.8	26.5
2542.71	26.5
2543.61	22
2544.51	24
2545.42	28
2546.32	24
2547.22	29
2548.12	23
2549.03	23
2549.93	20.5
2550.83	23
2551.73	25
2552.63	23
2553.54	24
2554.44	26.5
2555.34	22.5
2556.24	27
2557.14	25.5
2558.04	26.5
2558.94	26
2559.85	25
2560.75	24.5
2561.65	25
2562.55	29
2563.45	23.5
2564.35	24
2565.25	25.5
2566.15	26.5
2567.05	25.5
2567.95	27.5
2568.85	25
2569.75	26
2570.65	22.5
2571.55	22
2572.44	21.5
2573.34	24
2574.24	23
2575.14	25
2576.04	22.5
2576.94	24
2577.84	28
2578.73	24
2579.63	25
2580.53	23
2581.43	26
2582.33	22
2583.22	24.5
2584.12	25
2585.02	25.5
2585.91	25
2586.81	27.5
2587.71	23.5
2588.6	24
2589.5	25
2590.4	20
2591.29	21
2592.19	28.5
2593.09	26
2593.98	24.5
2594.88	26
2595.77	25
2596.67	22
2597.56	24.5
2598.46	19
2599.35	26
2600.25	19
2601.14	22
2602.04	31
2602.93	21
2603.83	23.5
2604.72	23.5
2605.62	22
2606.51	27.5
2607.4	24.5
2608.3	26.5
2609.19	26
2610.09	25
2610.98	27
2611.87	23
2612.76	24
2613.66	25
2614.55	22.5
2615.44	23
2616.34	22
2617.23	25.5
2618.12	24.5
2619.01	23.5
2619.9	26.5
2620.8	24.5
2621.69	31
2622.58	24
2623.47	24
2624.36	24
2625.25	25
2626.15	24.5
2627.04	26.5
2627.93	30.5
2628.82	26
2629.71	24
2630.6	22.5
2631.49	25.5
2632.38	27.5
2633.27	25
2634.16	25
2635.05	25.5
2635.94	28
2636.83	25
2637.72	23.5
2638.61	27
2639.5	23
2640.39	23.5
2641.28	25
2642.16	24
2643.05	26
2643.94	24
2644.83	24.5
2645.72	24.5
2646.61	26.5
2647.49	27
2648.38	27
2649.27	25.5
2650.16	25
2651.05	23
2651.93	29
2652.82	25
2653.71	23
2654.59	24
2655.48	25
2656.37	19
2657.25	28.5
2658.14	23
2659.03	23.5
2659.91	26
2660.8	26.5
2661.69	27.5
2662.57	25
2663.46	21.5
2664.34	23.5
2665.23	26.5
2666.11	22.5
2667	20.5
2667.88	21
2668.77	24
2669.65	22.5
2670.54	26
2671.42	24.5
2672.31	26
2673.19	21
2674.08	22
2674.96	23.5
2675.84	26.5
2676.73	21.5
2677.61	24.5
2678.49	24.5
2679.38	21
2680.26	25
2681.14	28
2682.03	25
2682.91	25
2683.79	26
2684.68	23
2685.56	24
2686.44	23.5
2687.32	24
2688.2	29
2689.09	25
2689.97	28.5
2690.85	22.5
2691.73	25
2692.61	24
2693.49	23.5
2694.38	24
2695.26	23
2696.14	24.5
2697.02	25
2697.9	21
2698.78	24
2699.66	22.5
2700.54	23.5
2701.42	20.5
2702.3	27.5
2703.18	24
2704.06	25.5
2704.94	29
2705.82	24
2706.7	26
2707.58	27
2708.46	23
2709.34	26
2710.21	26.5
2711.09	22
2711.97	26.5
2712.85	27
2713.73	20
2714.61	26
2715.49	23
2716.36	26
2717.24	26.5
2718.12	26.5
2719	30
2719.87	26
2720.75	21.5
2721.63	26
2722.51	28
2723.38	23
2724.26	22.5
2725.14	23.5
2726.01	26.5
2726.89	24
2727.77	24
2728.64	24.5
2729.52	22
2730.39	25
2731.27	24
2732.15	23
2733.02	25.5
2733.9	29
2734.77	27.5
2735.65	25
2736.52	28.5
2737.4	26
2738.27	24
2739.15	26
2740.02	24.5
2740.89	26
2741.77	23
2742.64	25.5
2743.52	27
2744.39	24.5
2745.27	28.5
2746.14	26
2747.01	23
2747.89	28
2748.76	27
2749.63	27
2750.51	24.5
2751.38	25
2752.25	24.5
2753.12	24.5
2754	20.5
2754.87	24.5
2755.74	25.5
2756.61	24
2757.48	24
2758.36	25
2759.23	22
2760.1	25.5
2760.97	25.5
2761.84	26.5
2762.71	25
2763.59	25
2764.46	25
2765.33	28.5
2766.2	24.5
2767.07	24
2767.94	26
2768.81	25
2769.68	22.5
2770.55	23.5
2771.42	28
2772.29	25.5
2773.16	20
2774.03	24.5
2774.9	24
2775.77	25
2776.64	29
2777.51	24.5
2778.37	26.5
2779.24	28
2780.11	25
2780.98	28.5
2781.85	26
2782.72	28.5
2783.59	26
2784.45	25
2785.32	26
2786.19	26.5
2787.06	24.5
2787.92	28.5
2788.79	26.5
2789.66	26.5
2790.53	24.5
2791.39	28
2792.26	26
2793.13	28.5
2793.99	26
2794.86	26
2795.73	27.5
2796.59	26.5
2797.46	26
2798.33	27
2799.19	24
2800.06	25.5
2800.92	27
2801.79	26
2802.65	28.5
2803.52	26.5
2804.39	27
2805.25	25
2806.11	24.5
2806.98	29.5
2807.84	22
2808.71	23
2809.57	31.5
2810.44	31.5
2811.3	24.5
2812.17	27.5
2813.03	25
2813.89	28
2814.76	25
2815.62	28.5
2816.49	26.5
2817.35	21.5
2818.21	28
2819.07	28
2819.94	30
2820.8	25.5
2821.66	18.5
2822.53	27
2823.39	26.5
2824.25	26
2825.11	23
2825.97	28
2826.84	28.5
2827.7	26
2828.56	24
2829.42	26
2830.28	28
2831.14	26
2832.01	26
2832.87	26.5
2833.73	29
2834.59	27
2835.45	27
2836.31	25.5
2837.17	25.5
2838.03	26
2838.89	23
2839.75	26.5
2840.61	24.5
2841.47	29.5
2842.33	29.5
2843.19	24
2844.05	25
2844.91	25
2845.77	23
2846.63	21.5
2847.48	25.5
2848.34	25.5
2849.2	28
2850.06	25
2850.92	27
2851.78	24.5
2852.64	19
2853.49	25
2854.35	29
2855.21	24
2856.07	25.5
2856.93	30
2857.78	29
2858.64	28.5
2859.5	26.5
2860.35	26
2861.21	26
2862.07	29
2862.93	22.5
2863.78	27.5
2864.64	28
2865.49	28
2866.35	30
2867.21	29.5
2868.06	25
2868.92	24.5
2869.77	28.5
2870.63	30.5
2871.49	29.5
2872.34	30
2873.2	32.5
2874.05	29
2874.91	31
2875.76	32.5
2876.62	28.5
2877.47	30
2878.32	30
2879.18	27
2880.03	32.5
2880.89	30.5
2881.74	29.5
2882.6	31
2883.45	30.5
2884.3	32.5
2885.16	34
2886.01	35.5
2886.86	36
2887.72	36
2888.57	32
2889.42	34.5
2890.27	38
2891.13	42
2891.98	41.5
2892.83	39.5
2893.68	45
2894.54	46.5
2895.39	45
2896.24	44
2897.09	54
2897.94	54
2898.8	50.5
2899.65	56
2900.5	58
2901.35	64.5
2902.2	62
2903.05	63.5
2903.9	65
2904.75	69.5
2905.6	66
2906.45	71
2907.3	73
2908.15	72
2909.01	72.5
2909.85	69
2910.7	64
2911.55	67
2912.4	58.5
2913.25	52
2914.1	54
2914.95	51.5
2915.8	48
2916.65	45
2917.5	42
2918.35	36
2919.2	42
2920.04	39
2920.89	35
2921.74	34
2922.59	34
2923.44	35.5
2924.29	35.5
2925.13	32
2925.98	33
2926.83	31
2927.68	30.5
2928.52	28
2929.37	30.5
2930.22	29
2931.06	31
2931.91	26.5
2932.76	30.5
2933.6	28.5
2934.45	28.5
2935.3	30
2936.14	28.5
2936.99	29
2937.83	33
2938.68	29.5
2939.53	27
2940.37	28.5
2941.22	33
2942.06	28.5
2942.91	31
2943.75	32.5
2944.6	32.5
2945.44	28.5
2946.29	22
2947.13	29.5
2947.98	34.5
2948.82	29.5
2949.66	26.5
2950.51	31
2951.35	34.5
2952.2	34.5
2953.04	33.5
2953.88	30
2954.73	34.5
2955.57	32
2956.41	35
2957.26	36.5
2958.1	36.5
2958.94	34
2959.79	39
2960.63	38.5
2961.47	42
2962.31	45.5
2963.15	39
2964	42.5
2964.84	45.5
2965.68	46
2966.52	47
2967.37	42
2968.21	44
2969.05	42
2969.89	43.5
2970.73	43
2971.57	37.9854
2972.41	35.5322
2973.25	36.9479
2974.09	38.9534
2974.93	34.4977
2975.77	35.9168
2976.62	33.9206
2977.46	29.1912
2978.3	33.2275
2979.14	32.6835
2979.98	28.1206
2980.81	30.3923
2981.65	32.0518
2982.49	24.6381
2983.33	29.2029
2984.17	32.8863
2985.01	29.9059
2985.85	28.8759
2986.69	27.1503
2987.53	22.4912
2988.37	25.3006
2989.21	27.7699
2990.04	24.0225
2990.88	23.6785
2991.72	25.0772
2992.56	24.7022
2993.4	24.0264
2994.23	22.957
2995.07	26.2435
2995.91	27.5737
2996.75	25.0345
2997.58	27.6998
2998.42	26.8867
2999.26	22.8803
3000.1	26.6815
3000.93	22.3022
3001.77	23.5182
3002.61	24.1621
3003.44	21.9529
3004.28	23.8326
3005.11	24.1068
3005.95	25.3347
3006.79	22.9033
3007.62	23.2983
3008.46	25.9449
3009.29	23.6524
3010.13	22.1508
3010.97	24.2263
3011.8	24.2646
3012.64	24.262
3013.47	25.5521
3014.31	23.5
3015.14	23.0931
3015.98	23
3016.81	27.266
3017.64	23.6451
3018.48	24.3544
3019.31	24.341
3020.15	23.4525
3020.98	21.6782
3021.82	22.1724
3022.65	22.8058
3023.48	23.2324
3024.32	25.6631
3025.15	24.3514
3025.98	23.358
3026.82	24.1202
3027.65	23.2905
3028.48	22.7143
3029.31	23.9674
3030.15	25.7926
3030.98	22.8214
3031.81	22.1841
3032.64	22.1025
3033.48	25.8838
3034.31	25.8988
3035.14	24.8714
3035.97	23.382
3036.8	23.8213
3037.64	24.5874
3038.47	24.5567
3039.3	22.6026
3040.13	24.0206
3040.96	24.2988
3041.79	23.5336
3042.62	24.8678
3043.45	24.8446
3044.28	24.4525
3045.12	23.1581
3045.95	21.3773
3046.78	22.0586
3047.61	21.1552
3048.44	20.5781
3049.27	20.3144
3050.1	22.5371
3050.92	23.5563
3051.75	24.8339
3052.58	23.1268
3053.41	21.2474
3054.24	23.8179
3055.07	22.3643
3055.9	23.1376
3056.73	23.3293
3057.26	23
3058.09	23
3058.93	28.5
3059.76	24
3060.59	21
3061.43	22.5
3062.26	23
3063.09	23.5
3063.92	21.5
3064.76	18
3065.59	24
3066.42	23
3067.25	23
3068.08	21
3068.92	23
3069.75	23.5
3070.58	24
3071.41	23
3072.24	20.5
3073.07	23.5
3073.9	23.5
3074.73	18
3075.57	27
3076.4	23
3077.23	18.5
3078.06	24
3078.89	22
3079.72	23.5
3080.55	21
3081.38	23.5
3082.21	23
3083.04	21.5
3083.87	24.5
3084.7	23
3085.53	24
3086.36	20.5
3087.19	25.5
3088.01	21
3088.84	23
3089.67	22
3090.5	22.5
3091.33	21
3092.16	23.5
3092.99	21
3093.81	25.5
3094.64	23
3095.47	28
3096.3	23
3097.13	27
3097.95	27.5
3098.78	24.5
3099.61	22
3100.44	25
3101.26	22.5
3102.09	23
3102.92	22.5
3103.74	26.5
3104.57	23.5
3105.4	25
3106.22	22.5
3107.05	25
3107.88	22
3108.7	26
3109.53	23.5
3110.35	26.5
3111.18	20.5
3112.01	22.5
3112.83	23
3113.66	22.5
3114.48	27.5
3115.31	24.5
3116.13	27
3116.96	21.5
3117.78	25.5
3118.61	26
3119.43	26.5
3120.26	23
3121.08	26
3121.9	21.5
3122.73	25.5
3123.55	23.5
3124.38	24.5
3125.2	27
3126.02	23
3126.85	22.5
3127.67	27.5
3128.49	25
3129.32	23
3130.14	24.5
3130.96	28.5
3131.79	23.5
3132.61	23.5
3133.43	24
3134.25	22
3135.08	19
3135.9	21
3136.72	22
3137.54	24
3138.37	22
3139.19	25
3140.01	30
3140.83	26
3141.65	28
3142.47	21
3143.29	24
3144.12	19
3144.94	23
3145.76	25
3146.58	21.5
3147.4	23
3148.22	25
3149.04	23
3149.86	23
3150.68	24
3151.5	24.5
3152.32	25
3153.14	24.5
3153.96	22.5
3154.78	19
3155.6	23
3156.42	25
3157.24	23
3158.06	24
3158.88	22.5
3159.7	24.5
3160.51	21.5
3161.33	23.5
3162.15	24
3162.97	25
3163.79	26.5
3164.61	25.5
3165.42	27
3166.24	23
3167.06	21
3167.88	26
3168.7	26
3169.51	26
3170.33	23
3171.15	26.5
3171.97	25
3172.78	27
3173.6	20
3174.42	28
3175.23	27
3176.05	22.5
3176.87	25
3177.68	23
3178.5	23.5
3179.32	25
3180.13	20.5
3180.95	22
3181.76	24
3182.58	26.5
3183.4	25
3184.21	23
3185.03	20
3185.84	24.5
3186.66	26
3187.47	22
3188.29	23
3189.1	23
3189.92	22.5
3190.73	24.5
3191.55	24
3192.36	24.5
3193.17	22
3193.99	21
3194.8	20.5
3195.62	26
3196.43	29.5
3197.24	23
3198.06	21.5
3198.87	22
3199.68	25.5
3200.5	22.5
3201.31	27
3202.12	22.5
3202.94	26.5
3203.75	24
3204.56	24.5
3205.38	20.5
3206.19	24.5
3207	23.5
3207.81	20.5
3208.62	26.5
3209.44	25.5
3210.25	27
3211.06	21
3211.87	22
3212.68	25
3213.49	23
3214.31	23
3215.12	20.5
3215.93	24
3216.74	24
3217.55	23
3218.36	25
3219.17	22
3219.98	24.5
3220.79	21.5
3221.6	21.5
3222.41	22
3223.22	28.5
3224.03	23
3224.84	23.5
3225.65	20.5
3226.46	27.5
3227.27	20.5
3228.08	24
3228.89	24.5
3229.7	23
3230.51	26
3231.32	23
3232.13	22
3232.94	22
3233.74	25
3234.55	27.5
3235.36	24
3236.17	26.5
3236.98	24
3237.78	19
3238.59	24.5
3239.4	24
3240.21	23
3241.02	24.5
3241.82	27
3242.63	24
3243.44	25.5
3244.25	24
3245.05	25.5
3245.86	22
3246.67	25
3247.47	20
3248.28	27
3249.09	19.5
3249.89	25
3250.7	23
3251.5	23
3252.31	23
3253.12	23
3253.92	25.5
3254.73	22
3255.53	23
3256.34	25
3257.14	24
3257.95	29.5
3258.75	21.5
3259.56	24.5
3260.36	27
3261.17	24
3261.97	24
3262.78	22.5
3263.58	22.5
3264.39	25
3265.19	20
3265.99	27
3266.8	23
3267.6	23
3268.41	27.5
3269.21	25.5
3270.01	27
3270.82	21.5
3271.62	23
3272.42	24
3273.23	24
3274.03	25
3274.83	25
3275.64	25
3276.44	24
3277.24	26.5
3278.04	22
3278.85	22
3279.65	24.5
3280.45	22.5
3281.25	26
3282.05	25.5
3282.85	21.5
3283.66	20
3284.46	21
3285.26	21.5
3286.06	25.5
3286.86	27.5
3287.66	24
3288.46	26
3289.27	24.5
3290.07	24
3290.87	26
3291.67	22
3292.47	24
3293.27	24
3294.07	21.5
3294.87	26
3295.67	24.5
3296.47	25.5
3297.27	24.5
3298.07	22.5
3298.87	24
3299.67	25
3300.47	23.5
3301.26	22
3302.06	21
3302.86	27
3303.66	24.5
3304.46	25
3305.26	28
3306.06	25
3306.86	27.5
3307.65	23
3308.45	26
3309.25	20.5
3310.05	23
3310.85	26.5
3311.64	24.5
3312.44	24.5
3313.24	22
3314.04	24.5
3314.83	26
3315.63	23.5
3316.43	23
3317.22	26.5
3318.02	25.5
3318.82	22
3319.62	28
3320.41	23.5
3321.21	26
3322	24
3322.8	22
3323.6	28
3324.39	23.5
3325.19	24
3325.98	28.5
3326.78	22
3327.58	24
3328.37	24.5
3329.17	24
3329.96	28
3330.76	25
3331.55	26.5
3332.35	25.5
3333.14	23
3333.94	25
3334.73	24
3335.52	24.5
3336.32	23
3337.11	25.5
3337.91	25.5
3338.7	24
3339.5	27.5
3340.29	25
3341.08	26
3341.88	22
3342.67	26
3343.46	22.5
3344.26	22
3345.05	22
3345.84	26
3346.63	26
3347.43	27
3348.22	26
3349.01	27.5
3349.8	28
3350.6	24.5
3351.39	29
3352.18	22.5
3352.97	24.5
3353.77	26.5
3354.56	25
3355.35	27
3356.14	26
3356.93	24
3357.72	22.5
3358.51	24.5
3359.31	24.5
3360.1	28.5
3360.89	27
3361.68	24
3362.47	25
3363.26	23
3364.05	22
3364.84	21
3365.63	24.5
3366.42	25
3367.21	25.5
3368	27.5
3368.79	23.5
3369.58	21.5
3370.37	22.5
3371.16	26
3371.95	26
3372.74	26
3373.53	26.5
3374.32	21
3375.1	22
3375.89	25
3376.68	24.5
3377.47	24
3378.26	23
3379.05	23.5
3379.84	26
3380.62	27.5
3381.41	22
3382.2	22.5
3382.99	23
3383.78	23
3384.56	23.5
3385.35	23
3386.14	25
3386.93	25
3387.71	24
3388.5	22.5
3389.29	23.5
3390.07	20.5
3390.86	26.5
3391.65	22.5
3392.43	26.5
3393.22	23.5
3394.01	25
3394.79	22.5
3395.58	23
3396.36	23
3397.15	26.5
3397.94	22.5
3398.72	24
3399.51	21.5
3400.29	24
3401.08	23
3401.86	24
3402.65	23.5
3403.43	25
3404.22	23
3405	23
3405.79	25
3406.57	24.5
3407.36	20
3408.14	26.5
3408.93	25
3409.71	24.5
3410.49	22
3411.28	26
3412.06	20
3412.84	23
3413.63	27
3414.41	24
3415.2	24.5
3415.98	22.5
3416.76	25
3417.54	23.5
3418.33	24.5
3419.11	24
3419.89	21
3420.68	27
3421.46	24.5
3422.24	25
3423.02	26
3423.81	26.5
3424.59	22.5
3425.37	26
3426.15	27
3426.93	23.5
3427.71	27
3428.5	22.5
3429.28	23.5
3430.06	24.5
3430.84	23
3431.62	23
3432.4	23.5
3433.18	22
3433.96	24
3434.75	26
3435.53	25.5
3436.31	25
3437.09	24.5
3437.87	22.5
3438.65	26
3439.43	23.5
3440.21	26
3440.99	22.5
3441.77	28.5
3442.55	22
3443.33	24.5
3444.1	24.5
3444.88	27
3445.66	24.5
3446.44	23
3447.22	24
3448	26
3448.78	22.5
3449.56	23.5
3450.34	23.5
3451.11	25.5
3451.89	22.5
3452.67	24.5
3453.45	23
3454.23	27.5
3455	19.5
3455.78	27.5
3456.56	23
3457.34	27.5
3458.11	19
3458.89	24.5
3459.67	23
3460.45	23.5
3461.22	25
3462	24
3462.78	20
3463.55	24
3464.33	28
3465.11	23
3465.88	22
3466.66	27
3467.44	27
3468.21	22
3468.99	21.5
3469.76	24
3470.54	26
3471.32	21.5
3472.09	24
3472.87	22
3473.64	26.5
3474.42	23.5
3475.19	23.5
3475.97	24
3476.74	30
3477.52	21.5
3478.29	27
3479.07	26
3479.84	26.5
3480.61	26.5
3481.39	17.5
3482.16	25.5
3482.94	22.5
3483.71	22.5
3484.48	26
3485.26	25.5
3486.03	26
3486.81	24.5
3487.58	22.5
3488.35	23
3489.13	23
3489.9	23.5
3490.67	24.5
3491.44	23.5
3492.22	25.5
3492.99	23
3493.76	21.5
3494.54	18.5
3495.31	22.5
3496.08	23
3496.85	23.5
3497.62	26
3498.4	22
3499.17	24
3499.94	23.5
