#Acq. time (s)=	5
#Accumulations=	5
#Range (cm-¹)=	100...3500
#Windows=	4
#Autofocus=	Off
#AutoExposure=	Off
#Spike filter=	Multiple accum.
#Delay time (s)=	0
#Binning=	1
#Readout mode=	Signal
#DeNoise=	Off
#ICS correction=	Off
#Dark correction=	Off
#Inst. Process=	Off
#Instrument=	LabRAM HR Evol
#Detector=	Syncerity OE
#Objective=	x100_VIS
#Grating=	600 (500nm)
#ND Filter=	25%
#Laser=	633nm_Edge
#Hole=	100.021
#Range=	Visible
#Project=	verificaciones
#Sample=	at3
#Site=	plain
#Title=	bolusat3plain
#Remark=	com
#Date=	16.01.2026 16:59
#Acquired=	16.01.2026 16:59:09
100.564	28
101.847	31
103.131	35
104.414	35.5
105.697	31
106.979	30
108.262	29
109.544	28
110.826	29.5
112.109	31.5
113.391	30.5
114.672	32.5
115.954	36.5
117.235	28.5
118.515	29
119.796	33.5
121.076	34
122.357	31
123.637	27
124.916	31
126.196	30.5
127.475	31
128.754	35.5
130.033	28.5
131.31	36
132.589	35.5
133.867	32.5
135.145	35
136.423	38.5
137.701	36
138.978	31.5
140.256	35.5
141.533	35
142.809	37
144.086	35.5
145.361	41
146.637	41.5
147.913	44.5
149.189	37.5
150.464	35
151.74	40
153.014	41
154.288	42
155.563	38
156.838	41.5
158.112	39
159.385	42
160.659	43.5
161.932	38
163.206	39.5
164.479	40.5
165.751	42
167.024	32.5
168.296	38.5
169.567	41.5
170.84	39.5
172.112	35.5
173.383	37
174.654	42.5
175.925	39
177.196	37
178.466	40
179.737	41
181.007	45.5
182.276	37
183.546	45
184.816	44.5
186.085	42
187.354	43
188.624	37
189.891	44
191.16	41
192.427	33.5
193.696	42.5
194.964	41.5
196.231	37
197.499	37.5
198.765	38
200.033	40.5
201.298	38.5
202.566	35.5
203.831	37
205.098	40.5
206.363	39
207.629	36
208.894	36.5
210.159	37
211.424	35
212.689	33.5
213.953	31
215.218	33
216.481	36
217.746	37
219.009	36.5
220.273	35
221.536	28
222.798	27.5
224.062	34.5
225.323	32
226.587	28
227.848	34.5
229.109	32
230.372	31
231.633	35.5
232.894	29
234.156	30.5
235.416	26.5
236.678	29.5
237.937	29
239.197	30
240.457	26
241.717	28.5
242.976	30
244.235	34.5
245.495	30.5
246.754	29
248.012	29
249.27	28.5
250.529	28
251.787	30
253.045	31
254.302	30
255.56	30
256.817	32.5
258.074	28.5
259.33	29.5
260.586	30
261.844	28.5
263.1	28
264.355	33.5
265.611	28
266.866	27.5
268.121	27
269.377	29
270.632	30
271.886	30.5
273.14	27.5
274.394	28.5
275.648	27.5
276.902	31
278.155	28
279.408	26
280.663	30
281.915	30
283.168	29.5
284.42	29
285.673	30
286.925	23.5
288.176	32.5
289.428	28.5
290.679	28
291.93	29
293.181	27
294.432	27
295.683	26
296.933	25
298.183	29.5
299.433	26.5
300.683	29
301.932	31
303.182	32.5
304.429	27.5
305.678	30
306.927	27
308.176	26.5
309.424	30.5
310.672	28
311.92	27.5
313.168	28
314.415	28
315.661	28.5
316.908	28
318.155	27.5
319.402	28.5
320.648	31.5
321.895	29.5
323.139	30
324.385	31
325.631	25.5
326.877	30
328.122	28
329.366	28.5
330.611	26.5
331.855	26
333.1	27.5
334.343	29.5
335.587	26.5
336.831	26
338.074	28.5
339.317	27.5
340.56	28.5
341.803	27
343.044	31
344.287	30
345.53	26.5
346.771	28.5
348.013	28.5
349.255	26.5
350.495	30.5
351.736	25.5
352.978	26
354.217	29
355.458	30
356.699	28.5
357.938	28
359.178	30.5
360.417	29
361.657	26
362.895	28
364.135	28.5
365.374	33.5
366.612	31
367.851	29
369.088	29.5
370.327	26
371.564	26
372.802	29.5
374.038	29
375.276	31
376.512	29.5
377.749	27
378.985	27.5
380.222	29.5
381.457	29
382.692	29.5
383.929	30
385.164	27
386.4	28
387.634	27
388.869	25
390.103	27.5
391.337	29
392.572	29
393.805	29
395.038	23
396.273	28
397.506	26.5
398.74	28.5
399.972	29
401.204	29
402.437	28.5
403.669	28
404.901	26
406.132	27
407.365	22
408.596	25.5
409.826	25.5
411.058	26.5
412.289	30
413.519	26
414.749	31
415.98	23.5
417.21	28
418.439	28
419.668	30
420.897	28.5
422.128	32.5
423.356	29
424.585	28.5
425.813	25.5
427.041	26.5
428.269	26
429.498	23
430.725	26.5
431.952	27
433.179	28
434.406	31
435.633	29
436.859	26.5
438.085	25.5
439.312	27.5
440.537	25
441.764	26.5
442.99	25.5
444.215	24
445.44	30.5
446.665	25
447.89	22
449.114	29
450.339	26
451.563	29
452.787	32
454.01	28.5
455.234	30.5
456.457	27.5
457.68	31
458.903	28.5
460.126	31.5
461.348	26.5
462.569	30
463.792	32
465.013	34
466.235	35
467.457	34
468.678	31.5
469.899	31.5
471.12	35
472.341	37
473.56	36
474.781	36.5
476.001	36.5
477.221	39.5
478.441	43
479.66	47
480.878	49
482.098	48.5
483.317	47
484.535	58
485.754	55.5
486.971	56
488.189	60
489.407	64.5
490.625	59.5
491.842	58
493.059	59.5
494.276	54.5
495.493	53
496.709	42
497.926	46
499.142	50
500.357	50.5
501.573	43.5
502.789	48
504.003	37.5
505.219	35
506.434	42
507.648	36
508.863	35.5
510.078	35
511.291	32
512.505	37
513.718	31.5
514.932	30
516.145	32.5
517.358	33.5
518.572	26
519.783	31
520.997	30
522.208	29.5
523.421	33.5
524.632	32
525.844	29.5
527.055	31.5
528.266	30
529.477	29
530.688	30.5
531.898	29
533.109	30
534.319	27
535.53	29
536.739	30.5
537.948	30
539.158	24.5
540.366	31.5
541.576	27.5
542.784	29
543.994	26
545.201	27.5
546.409	32
547.618	31
548.825	29
550.032	27
551.24	29.5
552.447	30
553.654	29
554.861	27
556.067	27.5
557.273	22
558.48	33.5
559.686	25
560.891	24
562.096	27
563.302	27
564.507	28
565.712	27.5
566.916	29.5
568.122	30
569.326	26.5
570.529	31
571.733	25
572.936	28.5
574.141	27
575.344	28.5
576.547	29
577.75	28.5
578.952	27.5
580.154	30
581.358	25
582.56	28.5
583.761	27.5
584.963	28
586.164	28.5
587.365	29
588.566	27
589.767	26
590.967	25.5
592.168	24.5
593.369	27
594.569	24
595.769	27.5
596.969	26
598.168	26
599.367	28
600.566	27
601.765	30
602.964	26.5
604.162	25.5
605.361	29.5
606.559	29.5
607.757	22.5
608.953	28.5
610.151	26
611.348	26.5
612.545	26
613.742	27.5
614.939	30
616.135	28
617.332	31
618.528	29
619.724	25
620.918	26.5
622.114	28.5
623.309	26
624.505	30
625.7	27
626.895	29
628.088	28.5
629.282	31
630.477	30
631.671	28.5
632.865	32.5
634.057	25
635.251	28
636.444	28.5
637.637	28.5
638.829	28
640.022	32
641.214	27.5
642.407	29
643.598	30
644.79	30
645.982	25
647.172	29
648.364	30.5
649.555	26
650.745	25
651.936	28.5
653.126	30.5
654.315	26.5
655.506	29
656.696	28
657.885	29
659.074	28
660.263	27
661.452	29
662.64	29.5
663.829	29
665.018	27.5
666.205	31
667.394	28
668.581	31.5
669.769	29
670.955	29
672.143	30
673.329	31
674.517	27
675.703	29
676.89	36
678.075	30
679.262	31.5
680.447	35.5
681.632	34
682.818	35.5
684.002	32.5
685.188	33
686.372	34
687.556	33
688.741	34.5
689.925	31
691.11	33
692.293	33
693.476	36.5
694.66	36.5
695.843	36.5
697.025	35.5
698.209	34.5
699.391	34
700.573	38.5
701.756	41
702.938	37
704.119	41
705.3	43.5
706.483	47
707.664	48.5
708.844	53
710.025	51
711.206	49
712.386	46
713.566	45
714.746	37.5
715.925	37.5
717.106	36.5
718.285	34
719.464	30
720.643	30.5
721.822	29
723	31
724.178	29
725.358	26.5
726.536	29.5
727.713	30
728.891	29
730.068	25.5
731.245	29.5
732.422	22
733.599	25.5
734.775	28
735.952	26
737.128	28
738.304	29.5
739.48	30
740.656	31
741.831	23
743.006	29.5
744.181	26.5
745.356	30.5
746.531	23.5
747.706	29.5
748.88	25.5
750.054	25
751.228	32.5
752.402	25.5
753.576	28.5
754.749	30
755.922	27.5
757.095	29.5
758.267	30
759.44	30.5
760.612	25.5
761.785	23
762.957	24
764.129	28
765.301	27.5
766.471	29
767.642	27.5
768.814	26.5
769.985	28
771.156	32
772.325	22.5
773.495	25.5
774.666	28
775.836	23.5
777.005	27
778.174	31
779.344	23.5
780.513	30
781.681	29
782.85	30
784.019	26.5
785.187	32.5
786.355	32.5
787.523	31
788.69	33.5
789.858	30.5
791.026	32
792.192	32
793.36	31
794.526	30.5
795.693	33.5
796.86	30
798.025	26
799.191	31
800.356	32.5
801.523	26
802.689	28.5
803.853	30
805.019	29
806.183	25
807.348	28.5
808.512	29.5
809.677	27
810.84	26.5
812.005	31.5
813.167	30
814.332	24
815.494	27.5
816.657	31
817.82	28.5
818.982	28.5
820.146	26
821.307	28.5
822.47	29
823.632	23
824.793	27.5
825.955	27.5
827.116	25
828.277	29.5
829.439	28
830.599	25
831.759	26.5
832.92	28.5
834.08	26
835.24	28.5
836.4	23
837.56	28
838.719	29.5
839.877	24
841.037	25.5
842.196	30
843.354	26
844.512	23.5
845.672	26.5
846.83	25.5
847.987	28
849.145	27
850.302	26.5
851.46	27.5
852.617	27
853.774	22
854.93	29
856.087	29.5
857.243	27
858.4	28
859.556	34
860.712	30.5
861.867	30
863.022	34
864.177	23.5
865.332	26
866.487	29
867.642	25.5
868.796	23.5
869.95	29
871.104	31
872.258	26.5
873.412	30
874.565	29.5
875.718	28.5
876.872	26
878.024	30.5
879.177	27
880.33	27
881.482	28.5
882.635	29
883.787	25.5
884.938	25
886.09	27.5
887.242	28
888.393	21
889.544	28
890.695	20.5
891.845	28.5
892.995	25
894.146	25
895.296	28
896.446	31.5
897.596	28
898.744	30.5
899.894	27
901.043	27
902.193	25
903.342	27.5
904.489	23.5
905.638	23.5
906.786	23.5
907.935	24
909.081	27
910.229	25.5
911.377	27.5
912.525	24
913.671	24
914.818	25.5
915.965	25
917.111	28
918.258	30
919.404	25.5
920.549	27
921.695	22
922.84	26.5
923.986	24.5
925.132	26.5
926.276	24
927.421	28.5
928.565	26
929.71	29
930.855	24
931.998	24
933.142	26
934.285	29
935.429	26.5
936.572	23.5
937.716	25.5
938.858	25.5
940.001	26
941.143	21.5
942.286	25
943.428	24
944.57	29.5
945.712	27
946.854	25.5
947.995	25
949.135	24.5
950.277	27
951.418	28
952.559	29
953.699	26.5
954.839	25
955.98	25
957.119	25
958.258	29
959.399	27
960.538	24.5
961.676	28
962.816	27.5
963.955	24
965.093	26.5
966.232	26
967.37	25.5
968.508	28
969.645	26.5
970.784	26.75
971.921	25.5
973.058	22
974.195	22.5
975.333	26.5
976.469	24.5
977.605	23.5
978.741	28.5
979.877	26.5
981.013	28
982.15	34
983.285	25.5
984.421	24.5
985.556	23.5
986.691	23
987.825	22.5
988.96	27
990.094	25.5
991.228	26.5
992.364	21.5
993.497	26
994.631	24.5
995.765	25
996.898	27
998.031	25.5
999.164	22
1000.3	28
1001.43	25
1002.56	26.5
1003.69	24
1004.83	22
1005.96	25.5
1007.09	23
1008.22	28
1009.35	26
1010.48	31.5
1011.61	27
1012.74	25
1013.88	22.5
1015.01	25
1016.14	25.5
1017.27	28
1018.4	28.5
1019.53	27
1020.65	23
1021.78	27
1022.91	22
1024.04	26
1025.17	26
1026.3	23
1027.43	23.5
1028.56	21.5
1029.68	22
1030.81	27.5
1031.94	29
1033.07	25.5
1034.19	28
1035.32	27.5
1036.45	24
1037.58	25.5
1038.7	23
1039.83	21
1040.95	25
1042.08	24.5
1043.21	25
1044.33	22
1045.46	27
1046.58	25
1047.71	24.5
1048.83	23
1049.96	27.5
1051.08	24
1052.21	21.5
1053.33	25
1054.45	27.5
1055.58	29
1056.7	25.5
1057.82	22
1058.95	26
1060.07	25
1061.19	23
1062.32	26
1063.44	24
1064.56	23
1065.68	25
1066.81	26
1067.93	27
1069.05	25
1070.17	25.5
1071.29	24
1072.41	26.5
1073.53	27
1074.65	27.5
1075.77	23.5
1076.89	24
1078.01	26
1079.13	23
1080.25	25
1081.37	24
1082.49	24.5
1083.61	25.5
1084.73	21
1085.85	24.5
1086.97	24.5
1088.09	23
1089.2	23.5
1090.32	23
1091.44	24
1092.56	25
1093.68	22.5
1094.79	24
1095.91	23
1097.03	25.5
1098.14	25.5
1099.26	21
1100.38	26
1101.49	22.5
1102.61	27
1103.73	27
1104.84	25.5
1105.96	25
1107.07	25
1108.19	24
1109.3	24
1110.42	23.5
1111.53	25
1112.65	24
1113.76	23
1114.88	24.5
1115.99	23
1117.1	25.5
1118.22	25
1119.33	28
1120.44	23
1121.56	23
1122.67	24
1123.78	25
1124.89	29.5
1126.01	25.5
1127.12	26
1128.23	26
1129.34	27.5
1130.45	24
1131.56	27.5
1132.67	23
1133.79	27
1134.9	22
1136.01	25.5
1137.12	24.5
1138.23	28
1139.34	23.5
1140.45	24.5
1141.56	23
1142.67	22.5
1143.78	26
1144.89	25
1145.99	25.5
1147.1	24
1148.21	24.5
1149.32	29
1150.43	23.5
1151.54	23
1152.65	23.5
1153.75	24
1154.86	27
1155.97	22
1157.08	26
1158.18	27
1159.29	23.5
1160.4	27.5
1161.5	24
1162.61	24
1163.72	27.5
1164.82	26
1165.93	23.5
1167.03	29
1168.14	24
1169.24	27
1170.35	21
1171.45	26.5
1172.56	27
1173.66	17
1174.77	24.5
1175.87	25.5
1176.98	25
1178.08	26
1179.18	23
1180.29	24.5
1181.39	24
1182.49	21.5
1183.6	22
1184.7	23.5
1185.8	27
1186.9	26.5
1188	23.5
1189.11	23
1190.21	21
1191.31	26.5
1192.41	24
1193.51	23.5
1194.61	22.9909
1195.72	25.4454
1196.82	25.8733
1197.92	22.1313
1199.02	24.3519
1200.12	20.1068
1201.22	26.7004
1202.32	25.8556
1203.42	23.6438
1204.52	21.504
1205.62	23.7793
1206.71	20.4702
1207.81	22.1388
1208.91	24.1399
1210.01	24.2592
1211.11	24.3452
1212.21	20.9175
1213.31	22.522
1214.4	28.1006
1215.5	20.295
1216.6	22.9966
1217.7	22.5031
1218.79	25.73
1219.89	24.3292
1220.99	25.7436
1222.08	23.2687
1223.18	22.3706
1224.28	23.7004
1225.37	24.9106
1226.47	23.9354
1227.56	21.5901
1228.66	22.8029
1229.76	24.3727
1230.85	21.5138
1231.95	22.1737
1233.04	26.0904
1234.14	25.2973
1235.23	22.971
1236.32	23.062
1237.42	23.7352
1238.51	22.0415
1239.61	23.5295
1240.7	25.1451
1241.79	22.5485
1242.89	26.3321
1243.98	26.7819
1245.07	24.0766
1246.17	23.8952
1247.26	26.6176
1248.35	25.6648
1249.44	23.1526
1250.53	24.2789
1251.63	24.0403
1252.72	21.5323
1253.81	26.4482
1254.9	24.008
1255.99	23.6421
1257.08	26.1635
1258.17	23.551
1259.27	23.3994
1260.36	24.2877
1261.45	26.393
1262.54	27.5125
1263.63	26.3421
1264.72	25.6411
1265.81	28.6056
1266.89	25.8171
1267.98	23.3505
1269.07	26.2366
1270.16	25.0127
1271.25	25.2178
1272.34	24.4441
1273.43	22.7456
1274.52	22.5367
1275.6	23.5713
1276.69	24.4017
1277.78	26.1073
1278.87	25.1383
1279.95	23.9956
1281.04	22.9595
1282.13	22.6525
1283.22	24.0218
1284.3	24.2858
1285.39	23.8374
1286.48	24.0786
1287.56	21.3383
1288.65	22.4985
1289.73	24.7027
1290.82	23.4246
1291.9	22.1138
1292.99	22.0964
1294.07	24.9204
1295.16	21.9558
1296.24	20.723
1297.33	22.9098
1298.41	23.3069
1299.5	21.8836
1300.58	22.0962
1301.66	22.5655
1302.75	22.8305
1303.83	21.4779
1304.91	21.8456
1306	22.1892
1306.4	22
1307.48	24.5
1308.57	20.5
1309.66	22
1310.75	26
1311.84	21.5
1312.92	27
1314.01	24.5
1315.1	22.5
1316.18	21.5
1317.27	26.5
1318.36	18.5
1319.44	25
1320.53	26.5
1321.62	26
1322.7	23
1323.79	22
1324.87	21
1325.96	23
1327.04	23
1328.13	24.5
1329.21	19.5
1330.3	27
1331.38	28
1332.47	27
1333.55	26
1334.64	23.5
1335.72	26.5
1336.8	22.5
1337.89	28
1338.97	24
1340.05	25
1341.14	26.5
1342.22	26
1343.3	25
1344.38	25
1345.47	24.5
1346.55	21
1347.63	23.5
1348.71	21.5
1349.79	23.5
1350.87	26
1351.96	26
1353.04	24.5
1354.12	20.5
1355.2	21
1356.28	24.5
1357.36	24.5
1358.44	24.5
1359.52	22
1360.6	26
1361.68	25.5
1362.76	22
1363.84	25.5
1364.92	28
1366	21
1367.07	22.5
1368.15	27
1369.23	27.5
1370.31	26
1371.39	23
1372.47	23.5
1373.54	26.5
1374.62	22.5
1375.7	22.5
1376.78	24.5
1377.85	24
1378.93	26
1380.01	28.5
1381.08	27
1382.16	24
1383.24	23.5
1384.31	31
1385.39	28
1386.46	27.5
1387.54	28.5
1388.61	26
1389.69	24
1390.76	26.5
1391.84	23
1392.91	24.5
1393.99	26
1395.06	27
1396.14	22.5
1397.21	26
1398.29	29
1399.36	27.5
1400.43	29
1401.51	30
1402.58	31
1403.65	26.5
1404.72	32
1405.8	34.5
1406.87	28
1407.94	30
1409.02	30.5
1410.09	28.5
1411.16	30.5
1412.23	33
1413.3	29.5
1414.37	32
1415.44	30
1416.51	27
1417.59	26.5
1418.66	29.5
1419.73	26
1420.8	31.5
1421.87	31.5
1422.94	28
1424.01	30
1425.08	25
1426.15	29
1427.22	29
1428.28	30.5
1429.35	26
1430.42	22
1431.49	29
1432.56	21
1433.63	26
1434.7	26.5
1435.76	23
1436.83	28.5
1437.9	24
1438.97	26
1440.03	30.5
1441.1	25.5
1442.17	28.5
1443.23	26.5
1444.3	26
1445.37	24
1446.43	26
1447.5	25
1448.57	24
1449.63	26.5
1450.7	24.5
1451.76	22
1452.83	25.5
1453.89	26
1454.96	24
1456.02	24
1457.09	28
1458.15	26
1459.22	24.5
1460.28	26.5
1461.34	26.5
1462.41	30
1463.47	26.5
1464.53	24
1465.6	24
1466.66	25.5
1467.72	24
1468.78	21.5
1469.85	23.5
1470.91	28
1471.97	26
1473.03	23
1474.1	25
1475.16	24
1476.22	26
1477.28	23
1478.34	24
1479.4	24.5
1480.46	28
1481.52	26.5
1482.58	28
1483.65	27
1484.71	24
1485.77	25
1486.82	25
1487.89	27.5
1488.94	25.5
1490	26
1491.06	25
1492.12	26.5
1493.18	23.5
1494.24	26
1495.3	27
1496.36	26.5
1497.41	22
1498.47	29.5
1499.53	26
1500.59	25
1501.65	21
1502.7	24.5
1503.76	27
1504.82	23.5
1505.87	25
1506.93	25
1507.99	25
1509.04	27.5
1510.1	25
1511.16	25.5
1512.21	25.5
1513.27	26.5
1514.32	24.5
1515.38	24.5
1516.43	23.5
1517.49	28
1518.54	22
1519.6	22.5
1520.65	27
1521.71	26
1522.76	23
1523.81	24
1524.87	21
1525.92	24.5
1526.98	23.5
1528.03	26.5
1529.08	22
1530.14	25
1531.19	24
1532.24	27
1533.29	23
1534.35	26.5
1535.4	28.5
1536.45	28
1537.5	26
1538.55	24
1539.61	26.5
1540.66	26.5
1541.71	27
1542.76	24.5
1543.81	27.5
1544.86	28.5
1545.91	27.5
1546.96	23
1548.01	24
1549.06	23.5
1550.11	24
1551.16	29.5
1552.21	27
1553.26	24
1554.31	23.5
1555.36	22.5
1556.41	26
1557.46	23.5
1558.5	22
1559.55	28.5
1560.6	24.5
1561.65	27
1562.7	24
1563.74	24
1564.79	26.5
1565.84	28.5
1566.89	29.5
1567.93	29
1568.98	23.5
1570.03	24
1571.07	23.5
1572.12	21
1573.17	21
1574.21	25.5
1575.26	25
1576.3	24.5
1577.35	27
1578.4	22
1579.44	24
1580.49	25
1581.53	25
1582.58	22
1583.62	25.5
1584.66	27
1585.71	25.5
1586.75	26
1587.8	28
1588.84	27.5
1589.88	25
1590.93	24.5
1591.97	22
1593.01	24
1594.06	23
1595.1	26
1596.14	24
1597.18	26
1598.23	24
1599.27	24.5
1600.31	23.5
1601.35	22
1602.39	24
1603.44	25.5
1604.48	24.5
1605.52	25
1606.56	25.5
1607.6	25
1608.64	25.5
1609.68	26.5
1610.72	24.5
1611.76	23
1612.8	25
1613.84	26.5
1614.88	25
1615.92	27
1616.96	23.5
1618	25
1619.04	28
1620.08	21.5
1621.12	26
1622.16	21
1623.19	24.5
1624.23	28
1625.27	25.5
1626.31	23.5
1627.35	23
1628.38	25
1629.42	24
1630.46	21
1631.49	25
1632.53	28
1633.57	24
1634.6	24
1635.64	27
1636.68	26.5
1637.71	24.5
1638.75	26.5
1639.79	23.5
1640.82	22
1641.86	27
1642.89	25
1643.93	27
1644.96	23
1646	24
1647.03	25.5
1648.07	23
1649.1	27.5
1650.13	24.5
1651.17	24
1652.2	25
1653.24	27.5
1654.27	24.5
1655.3	23
1656.34	23.5
1657.37	25
1658.4	26
1659.43	27
1660.47	23
1661.5	28.5
1662.53	25.5
1663.56	25
1664.6	26.5
1665.63	23
1666.66	23
1667.69	25
1668.72	24.5
1669.75	22
1670.78	25.5
1671.81	24
1672.85	25
1673.88	21
1674.91	24
1675.94	24.5
1676.97	22.5
1678	29
1679.03	20.5
1680.06	23.5
1681.09	24.5
1682.11	25.5
1683.14	26.5
1684.17	27.5
1685.2	24.5
1686.23	28
1687.26	24
1688.29	23.5
1689.31	22.5
1690.34	27
1691.37	27
1692.4	23
1693.42	22.5
1694.45	24
1695.48	25
1696.51	29
1697.53	24.5
1698.56	24.5
1699.59	24
1700.61	26.5
1701.64	24
1702.66	23.5
1703.69	21.5
1704.72	24
1705.74	22.5
1706.77	26
1707.79	21
1708.82	22.5
1709.84	25.5
1710.87	21.5
1711.89	23
1712.91	24.5
1713.94	22
1714.96	25
1715.99	22
1717.01	27
1718.03	17.5
1719.06	24.5
1720.08	23
1721.1	24.5
1722.13	26
1723.15	29.5
1724.17	26.5
1725.19	22
1726.22	25.5
1727.24	26
1728.26	26.5
1729.28	25.5
1730.3	24
1731.33	23
1732.35	26
1733.37	26
1734.39	20
1735.41	25
1736.43	23
1737.45	25.5
1738.47	24.5
1739.49	25
1740.51	26.5
1741.53	22.5
1742.55	22.5
1743.57	23
1744.59	26.5
1745.61	24
1746.63	22
1747.65	24.5
1748.67	25
1749.69	24.5
1750.7	26
1751.72	22
1752.74	23.5
1753.76	27.5
1754.78	23.5
1755.79	27.5
1756.81	24
1757.83	26.5
1758.85	28.5
1759.86	27.5
1760.88	26.5
1761.9	26.5
1762.91	20
1763.93	29.5
1764.95	24
1765.96	24.5
1766.98	23
1767.99	22.5
1769.01	24.5
1770.02	28.5
1771.04	24
1772.06	25
1773.07	25.5
1774.09	24
1775.1	22.5
1776.11	25
1777.13	22
1778.14	27
1779.16	27
1780.17	27
1781.18	24.5
1782.2	22
1783.21	23.5
1784.22	21.5
1785.24	22
1786.25	29
1787.26	24
1788.28	23
1789.29	27
1790.3	28
1791.31	23
1792.33	25
1793.34	25
1794.35	25
1795.36	23
1796.37	24
1797.38	26.5
1798.39	25
1799.4	23.5
1800.42	25.5
1801.43	26
1802.44	24.5
1803.45	24
1804.46	23
1805.47	24
1806.48	24.5
1807.49	25
1808.5	24.5
1809.51	24
1810.51	23.5
1811.52	24
1812.53	26.5
1813.54	29
1814.55	27
1815.56	22.5
1816.57	24
1817.57	22.5
1818.58	25
1819.59	24
1820.6	20.5
1821.61	26
1822.61	23.5
1823.62	25.5
1824.63	22
1825.63	23.5
1826.64	22.5
1827.65	25
1828.65	23.5
1829.66	23
1830.67	26.5
1831.67	17.5
1832.68	28
1833.68	26
1834.69	21
1835.69	17.5
1836.7	26
1837.7	23
1838.71	23.5
1839.71	25.5
1840.72	22
1841.72	26.5
1842.73	21
1843.73	23
1844.73	25
1845.74	22
1846.74	26
1847.74	24
1848.75	25.5
1849.75	25.5
1850.75	26
1851.76	22
1852.76	24.5
1853.76	24
1854.76	26
1855.77	28
1856.77	24.5
1857.77	22
1858.77	23
1859.77	26
1860.77	27
1861.78	26
1862.78	25
1863.78	19.5
1864.78	21.5
1865.78	25.5
1866.78	18
1867.78	23
1868.78	26
1869.78	26.5
1870.78	27.5
1871.78	26
1872.78	23
1873.78	24.5
1874.78	24
1875.78	21
1876.78	21
1877.78	26.5
1878.77	25
1879.77	25.5
1880.77	27.5
1881.77	25
1882.77	27
1883.77	25.5
1884.76	25
1885.76	25.5
1886.76	24
1887.75	23.5
1888.75	23.5
1889.75	27
1890.75	21
1891.74	25
1892.74	26
1893.73	26
1894.73	22.5
1895.73	21
1896.72	25.5
1897.72	24
1898.71	25.5
1899.71	19
1900.7	22
1901.7	23
1902.69	25
1903.69	26.5
1904.68	25.5
1905.68	27
1906.67	21.5
1907.67	27.5
1908.66	27
1909.65	21
1910.65	22
1911.64	23
1912.63	21.5
1913.63	21.5
1914.62	26
1915.61	26.5
1916.61	22
1917.6	21
1918.59	25.5
1919.58	19.5
1920.58	24.5
1921.57	26.5
1922.56	24
1923.55	24
1924.54	25
1925.54	24
1926.53	25
1927.52	24
1928.51	26
1929.5	23.5
1930.49	25
1931.48	25
1932.47	21
1933.46	23.5
1934.45	25.5
1935.44	23
1936.43	27
1937.42	26
1938.41	23.5
1939.4	21
1940.39	25
1941.38	25
1942.37	24
1943.35	23
1944.34	25.5
1945.33	21
1946.32	24
1947.31	23
1948.3	23.5
1949.28	23.5
1950.27	25
1951.26	25.5
1952.25	24.5
1953.23	22.5
1954.22	28.5
1955.21	26
1956.19	24
1957.18	27
1958.17	24
1959.15	23
1960.14	25.5
1961.12	22.5
1962.11	27
1963.1	25
1964.08	23.5
1965.07	23
1966.05	24.5
1967.04	21.5
1968.02	20
1969.01	22
1969.99	20
1970.98	23
1971.96	27
1972.94	22.5
1973.93	20
1974.91	27
1975.9	20
1976.88	25.5
1977.86	20.5
1978.85	25
1979.83	29
1980.81	24
1981.79	21.5
1982.78	20.5
1983.76	23
1984.74	22.5
1985.72	21.5
1986.71	24
1987.69	21
1988.67	27.5
1989.65	19
1990.63	24
1991.61	23
1992.59	26
1993.57	22.5
1994.56	25.5
1995.54	21
1996.52	22
1997.5	20.5
1998.48	23.5
1999.46	22.5
2000.44	22.5
2001.42	20.5
2002.4	25
2003.38	25.5
2004.36	23
2005.33	18.5
2006.31	25
2007.29	25.5
2008.27	19.5
2009.25	19
2010.23	24
2011.21	19.5
2012.18	23.5
2013.16	23
2014.14	20.5
2015.12	20
2016.09	22
2017.07	20
2018.05	23
2019.03	28
2020	22.5
2020.98	25.5
2021.96	23.5
2022.93	21
2023.91	26.5
2024.89	24
2025.86	17.5
2026.84	24
2027.81	23.5
2028.79	19
2029.76	24
2030.74	24
2031.71	21
2032.69	21
2033.66	24
2034.64	23.5
2035.61	24.5
2036.59	27.5
2037.56	26.5
2038.54	22.5
2039.51	22.5
2040.48	22
2041.46	24.5
2042.43	21.5
2043.4	23.5
2044.38	24.5
2045.35	23
2046.32	24.5
2047.29	20.5
2048.27	23
2049.24	23
2050.21	21.5
2051.18	23.5
2052.16	26
2053.13	24
2054.1	23
2055.07	20.5
2056.04	22.5
2057.01	25.5
2057.98	23.5
2058.96	23.5
2059.93	25.5
2060.9	23
2061.87	24
2062.84	29
2063.81	20.5
2064.78	27.5
2065.75	21
2066.72	20
2067.69	25.5
2068.66	23
2069.63	26
2070.6	23.5
2071.56	23
2072.53	22.5
2073.5	23.5
2074.47	26
2075.44	22.5
2076.41	24.5
2077.38	21.5
2078.34	23
2079.31	20.5
2080.28	24
2081.25	22
2082.21	22.5
2083.18	20
2084.15	23.5
2085.11	21.5
2086.08	21
2087.05	23
2088.01	22
2088.98	22.5
2089.95	24
2090.91	25
2091.88	23
2092.84	22
2093.81	23
2094.78	20
2095.74	21
2096.71	25
2097.67	23.5
2098.64	20
2099.6	24
2100.57	22.5
2101.53	28
2102.49	20.5
2103.46	24
2104.42	24.5
2105.39	23.5
2106.35	21.5
2107.31	27.5
2108.28	27.5
2109.24	22.5
2110.2	18.5
2111.17	23
2112.13	20
2113.09	25.5
2114.05	23
2115.02	23
2115.98	27
2116.94	26
2117.9	26.5
2118.86	24.5
2119.83	26
2120.79	27
2121.75	26.5
2122.71	26.5
2123.67	22
2124.63	25
2125.59	21
2126.55	23.5
2127.51	20.5
2128.47	24.5
2129.43	21
2130.39	25
2131.35	24.5
2132.31	22.5
2133.27	24
2134.23	26
2135.19	25.5
2136.15	21
2137.11	22
2138.07	22.5
2139.03	23
2139.99	19.5
2140.94	24.5
2141.9	21
2142.86	20.0189
2143.82	20.9747
2144.78	26.9971
2145.73	21.2075
2146.69	25.3113
2147.65	23.4106
2148.61	21.9315
2149.56	22.824
2150.52	20.0759
2151.48	23.6124
2152.43	20.1025
2153.39	20.4442
2154.35	21.3351
2155.3	23.1812
2156.26	21.0334
2157.21	22.8603
2158.17	18.4462
2159.13	20.9051
2160.08	23.7001
2161.04	22.8138
2161.99	21.135
2162.95	23.8357
2163.9	24.0759
2164.86	24.2718
2165.81	25.8151
2166.77	24.9908
2167.72	21.8735
2168.67	22.9913
2169.63	23.5516
2170.58	21.935
2171.54	21.0368
2172.49	21.0154
2173.44	22.5801
2174.4	23.8686
2175.35	21.3698
2176.3	22.1595
2177.26	23.2419
2178.21	21.0773
2179.16	22.4828
2180.11	22.121
2181.07	23.392
2182.02	21.1017
2182.97	21.1307
2183.92	20.2322
2184.87	22.1976
2185.82	21.4884
2186.78	19.9931
2187.73	19.9187
2188.68	18.7548
2189.63	19.707
2190.58	21.396
2191.53	19.3635
2192.48	20.4332
2193.43	21.5175
2194.38	24.6509
2195.33	23.6586
2196.28	22.9876
2197.23	23.2425
2198.18	19.905
2199.13	22.1261
2200.08	21.5525
2201.03	21.0411
2201.98	20.5383
2202.93	20.534
2203.88	21.5588
2204.83	21.0533
2205.77	24.4936
2206.72	22.4276
2207.67	22.165
2208.62	19.6774
2209.57	20.0525
2210.52	21.6253
2211.46	20.8279
2212.41	20.8808
2213.36	23.6564
2214.31	21.3943
2215.25	21.1657
2216.2	23.5846
2217.15	23.7556
2218.09	23.8033
2219.04	24.5685
2219.99	22.6044
2220.93	23.0256
2221.88	25.6198
2222.82	24.6015
2223.77	25.2632
2224.72	22.154
2225.66	20.1854
2226.61	20.1335
2227.55	21.7111
2228.5	22.2728
2229.44	22.2097
2230.39	23.5078
2231.33	24.032
2232.28	23.0087
2233.22	22.8908
2234.16	24.5389
2235.11	23.4838
2236.05	21.953
2237	21.8699
2237.94	23.0219
2238.88	21.0971
2239.83	21.0328
2240.13	21.5
2241.08	20
2242.03	21
2242.98	21
2243.92	24.5
2244.87	24
2245.82	24
2246.76	23.5
2247.71	20.5
2248.66	20.5
2249.61	20
2250.55	22.5
2251.5	20
2252.45	22
2253.39	21.5
2254.34	19.5
2255.28	19.5
2256.23	24.5
2257.18	22.5
2258.12	22
2259.07	23
2260.01	23.5
2260.96	24
2261.9	20
2262.85	20
2263.79	23
2264.74	21
2265.68	21
2266.63	20
2267.57	24
2268.51	23
2269.46	22
2270.4	21
2271.35	24.5
2272.29	24
2273.23	25.5
2274.18	21
2275.12	16.5
2276.06	21
2277	20
2277.95	20
2278.89	24
2279.83	20.5
2280.78	24
2281.72	23.5
2282.66	22
2283.6	23
2284.54	26
2285.48	24
2286.43	23.5
2287.37	23.5
2288.31	24.5
2289.25	22
2290.19	25
2291.13	25
2292.07	22
2293.01	22
2293.95	24
2294.89	26
2295.83	18.5
2296.77	21
2297.71	22
2298.65	23
2299.59	20.5
2300.53	26
2301.47	24
2302.41	22
2303.35	25
2304.29	22
2305.22	24.5
2306.16	25
2307.1	23.5
2308.04	21
2308.98	24
2309.91	22
2310.85	23
2311.79	22
2312.73	21
2313.66	20
2314.6	21.5
2315.54	26
2316.48	20.5
2317.41	19
2318.35	19.5
2319.29	19
2320.22	21
2321.16	25.5
2322.09	26.5
2323.03	23.5
2323.97	26.5
2324.9	24.5
2325.84	17
2326.77	25.5
2327.71	23
2328.64	22
2329.58	22.5
2330.51	23
2331.45	23
2332.38	20.5
2333.32	23.5
2334.25	23.5
2335.18	26
2336.12	26.5
2337.05	25
2337.99	24.5
2338.92	26.5
2339.85	21
2340.79	23
2341.72	22
2342.65	25
2343.59	25
2344.52	24
2345.45	22.5
2346.38	24
2347.32	21.5
2348.25	20.5
2349.18	18.5
2350.11	26
2351.04	21
2351.98	24.5
2352.91	27
2353.84	25.5
2354.77	24
2355.7	20.5
2356.63	27
2357.56	26
2358.49	24.5
2359.42	20
2360.35	20
2361.28	20.5
2362.21	19
2363.14	26
2364.07	24.5
2365	22
2365.93	23
2366.86	26
2367.79	25
2368.72	21.5
2369.65	26.5
2370.58	23
2371.51	28
2372.44	21.5
2373.36	22
2374.29	24
2375.22	22.5
2376.15	27
2377.08	23.5
2378	24
2378.93	23.5
2379.86	22.5
2380.79	21.5
2381.71	22
2382.64	23
2383.57	22
2384.49	25.5
2385.42	21
2386.35	22
2387.27	23
2388.2	28
2389.13	23.5
2390.05	19.5
2390.98	21.5
2391.9	25.5
2392.83	20.5
2393.76	19.5
2394.68	25
2395.61	23.5
2396.53	22.5
2397.46	21
2398.38	24
2399.3	25
2400.23	24
2401.15	23
2402.08	24
2403	27.5
2403.93	25.5
2404.85	28
2405.77	24
2406.7	23
2407.62	23.5
2408.54	23
2409.47	23
2410.39	24
2411.31	24.5
2412.24	22.5
2413.16	25
2414.08	24
2415	23
2415.92	24
2416.85	20.5
2417.77	25.5
2418.69	21
2419.61	24
2420.53	25.5
2421.45	24.5
2422.38	22
2423.3	23
2424.22	22
2425.14	25
2426.06	23.5
2426.98	19.5
2427.9	23
2428.82	25.5
2429.74	26.5
2430.66	21
2431.58	22
2432.5	23
2433.42	22
2434.34	23
2435.26	21.5
2436.18	23.5
2437.1	21
2438.01	23
2438.93	23.5
2439.85	25.5
2440.77	26
2441.69	20.5
2442.61	25
2443.52	26
2444.44	23
2445.36	25.5
2446.28	26.5
2447.2	27
2448.11	21
2449.03	24.5
2449.95	25
2450.86	22.5
2451.78	24
2452.7	24
2453.61	25
2454.53	24
2455.45	27
2456.36	22
2457.28	21
2458.2	24
2459.11	21.5
2460.03	20.5
2460.94	21.5
2461.86	24.5
2462.77	22.5
2463.69	27
2464.6	25
2465.52	21.5
2466.43	24
2467.35	26
2468.26	24
2469.18	20
2470.09	21.5
2471	21.5
2471.92	23
2472.83	26
2473.74	20
2474.66	23
2475.57	23
2476.48	25
2477.4	22
2478.31	22
2479.22	24
2480.14	26.5
2481.05	22.5
2481.96	25.5
2482.87	27
2483.79	24
2484.7	27.5
2485.61	22.5
2486.52	28
2487.43	26
2488.34	20.5
2489.25	23
2490.17	28.5
2491.08	23
2491.99	26.5
2492.9	26
2493.81	22
2494.72	26.5
2495.63	25
2496.54	19.5
2497.45	26
2498.36	23
2499.27	24
2500.18	23
2501.09	23
2502	21
2502.91	24
2503.82	22.5
2504.73	22
2505.63	24
2506.54	27.5
2507.45	26.5
2508.36	20
2509.27	20
2510.18	27.5
2511.09	25
2511.99	25
2512.9	23
2513.81	24
2514.72	23
2515.62	24
2516.53	24
2517.44	18
2518.34	26
2519.25	23.5
2520.16	27
2521.06	20
2521.97	24
2522.88	24
2523.78	26
2524.69	27
2525.6	19.5
2526.5	26
2527.41	21.5
2528.31	26
2529.22	27
2530.12	23
2531.03	21
2531.93	20
2532.84	21.5
2533.74	26
2534.65	21.5
2535.55	22
2536.46	20.5
2537.36	22
2538.27	28.5
2539.17	22
2540.07	24.5
2540.98	20.5
2541.88	24
2542.78	24
2543.69	18
2544.59	26
2545.49	26
2546.4	25
2547.3	27
2548.2	24.5
2549.1	23
2550.01	21
2550.91	24
2551.81	23.5
2552.71	20.5
2553.61	28
2554.52	24
2555.42	22.5
2556.32	24
2557.22	26
2558.12	24
2559.02	25
2559.92	20.5
2560.82	25.5
2561.72	23
2562.62	27
2563.53	25
2564.43	24
2565.33	23.5
2566.23	24.5
2567.13	24.5
2568.03	22
2568.92	21.5
2569.82	25.5
2570.72	23.5
2571.62	22
2572.52	23
2573.42	23
2574.32	25.5
2575.22	21
2576.12	24
2577.02	23
2577.91	25.5
2578.81	24
2579.71	21
2580.61	22
2581.5	20.5
2582.4	21
2583.3	21.5
2584.2	26
2585.09	24
2585.99	23
2586.89	24.5
2587.78	23
2588.68	23.5
2589.58	21.5
2590.47	26.5
2591.37	22
2592.27	25.5
2593.16	25
2594.06	24.5
2594.95	19.5
2595.85	23
2596.75	24.5
2597.64	28.5
2598.54	26
2599.43	27.5
2600.33	22.5
2601.22	23.5
2602.12	25
2603.01	25.5
2603.9	21.5
2604.8	22
2605.69	25.5
2606.59	26
2607.48	26
2608.37	27
2609.27	27
2610.16	23.5
2611.05	24
2611.95	25.5
2612.84	25.5
2613.73	23.5
2614.63	24.5
2615.52	28
2616.41	25.5
2617.3	26
2618.2	23
2619.09	23
2619.98	26
2620.87	22.5
2621.76	26
2622.66	24
2623.55	26
2624.44	25.5
2625.33	22
2626.22	24.5
2627.11	23
2628	27.5
2628.9	25
2629.79	24
2630.68	27.5
2631.57	23
2632.46	23.5
2633.35	25.5
2634.24	26.5
2635.13	23.5
2636.02	23
2636.91	23.5
2637.8	26
2638.68	23.5
2639.57	26.5
2640.46	27
2641.35	23
2642.24	24.5
2643.13	26
2644.02	22
2644.91	25
2645.79	23
2646.68	27
2647.57	20.5
2648.46	26.5
2649.35	26.5
2650.23	20.5
2651.12	22.5
2652.01	24
2652.9	21
2653.78	20.5
2654.67	24
2655.56	24.5
2656.44	24.5
2657.33	23
2658.22	26
2659.1	23.5
2659.99	26
2660.88	26
2661.76	18.5
2662.65	23.5
2663.53	24
2664.42	23
2665.3	23.5
2666.19	28
2667.07	23
2667.96	21.5
2668.84	24
2669.73	21
2670.61	24.5
2671.5	24
2672.38	27
2673.27	23
2674.15	26.5
2675.04	26.5
2675.92	26.5
2676.8	22
2677.69	22
2678.57	24.5
2679.45	22.5
2680.34	25
2681.22	25
2682.1	28.5
2682.99	26
2683.87	28
2684.75	22
2685.63	23
2686.52	27
2687.4	23.5
2688.28	24.5
2689.16	23.5
2690.04	24
2690.93	24.5
2691.81	23
2692.69	24.5
2693.57	22.5
2694.45	24
2695.33	23
2696.21	22.5
2697.09	20
2697.97	24.5
2698.85	25
2699.74	27
2700.62	21
2701.5	23.5
2702.38	22.5
2703.26	25
2704.14	26
2705.02	23
2705.89	21
2706.77	19
2707.65	25.5
2708.53	26.5
2709.41	22.5
2710.29	23
2711.17	24
2712.05	24.5
2712.93	23.5
2713.8	26.5
2714.68	22
2715.56	30
2716.44	24
2717.32	22
2718.19	25
2719.07	27
2719.95	24
2720.83	24.5
2721.7	22
2722.58	25
2723.46	26
2724.33	21
2725.21	25
2726.09	26
2726.97	20
2727.84	24
2728.72	27.5
2729.59	26
2730.47	23
2731.35	23
2732.22	26
2733.1	24
2733.97	20.5
2734.85	25
2735.72	26
2736.6	23
2737.47	23.5
2738.35	18.5
2739.22	24.5
2740.1	23.5
2740.97	24.5
2741.84	23.5
2742.72	24
2743.59	25
2744.47	25
2745.34	21.5
2746.21	26
2747.09	24
2747.96	24.5
2748.83	22.5
2749.71	26
2750.58	23
2751.45	25
2752.33	27
2753.2	25
2754.07	24.5
2754.94	24.5
2755.82	22
2756.69	22
2757.56	22.5
2758.43	22
2759.3	26
2760.18	24.5
2761.05	25.5
2761.92	24.5
2762.79	23.5
2763.66	23.5
2764.53	24
2765.4	28.5
2766.27	23.5
2767.14	26
2768.01	27
2768.88	21.5
2769.75	25
2770.62	24
2771.49	27
2772.36	26.5
2773.23	25
2774.1	24
2774.97	23
2775.84	23.5
2776.71	24.5
2777.58	27.5
2778.45	24.5
2779.32	22.5
2780.19	27
2781.06	24
2781.92	22.5
2782.79	23
2783.66	23.5
2784.53	26.5
2785.4	22
2786.26	24.5
2787.13	23
2788	26
2788.87	23
2789.73	23.5
2790.6	25
2791.47	26
2792.34	20
2793.2	27
2794.07	28
2794.94	24
2795.8	24
2796.67	23.5
2797.53	23
2798.4	24.5
2799.27	29
2800.13	26
2801	25.75
2801.86	25.5
2802.73	22.5
2803.59	25.5
2804.46	28
2805.32	28.5
2806.19	22
2807.05	26
2807.92	26
2808.78	27
2809.65	27.5
2810.51	22
2811.38	28
2812.24	26.5
2813.1	25
2813.97	24
2814.83	27
2815.7	26.5
2816.56	26.5
2817.42	27
2818.29	22
2819.15	24.5
2820.01	29
2820.87	23
2821.74	25.5
2822.6	26.5
2823.46	23.5
2824.32	27
2825.19	28
2826.05	22
2826.91	28
2827.77	29
2828.63	25.5
2829.5	28
2830.36	24
2831.22	21.5
2832.08	22.5
2832.94	23
2833.8	26
2834.66	28
2835.52	23.5
2836.38	29
2837.24	26
2838.1	24.5
2838.96	30.5
2839.82	27.5
2840.68	25.5
2841.54	26
2842.4	26
2843.26	26
2844.12	26
2844.98	21.5
2845.84	20.5
2846.7	29
2847.56	24.5
2848.42	23
2849.28	22
2850.14	22
2850.99	25
2851.85	28
2852.71	23.5
2853.57	28
2854.43	27.5
2855.28	29
2856.14	24
2857	29.5
2857.86	26
2858.71	22
2859.57	26
2860.43	23.5
2861.28	24
2862.14	26.5
2863	25.5
2863.86	28.5
2864.71	22.5
2865.57	26.5
2866.42	29
2867.28	28
2868.14	25
2868.99	26.5
2869.85	25
2870.7	26.5
2871.56	26
2872.41	31.5
2873.27	28
2874.13	30
2874.98	34
2875.83	32
2876.69	30
2877.54	26
2878.4	27.5
2879.25	30.5
2880.11	32
2880.96	32.5
2881.81	29.5
2882.67	31
2883.52	32
2884.38	31.5
2885.23	29
2886.08	32.5
2886.94	34.5
2887.79	34.5
2888.64	34.5
2889.5	32.5
2890.35	38.5
2891.2	37.5
2892.05	37
2892.91	35.5
2893.76	41
2894.61	49.5
2895.46	41.5
2896.31	46
2897.17	49
2898.02	51
2898.87	51
2899.72	55
2900.57	57
2901.42	63
2902.27	58
2903.12	67.5
2903.98	60
2904.83	69.5
2905.68	69
2906.53	66
2907.38	70
2908.23	67.5
2909.08	65.5
2909.93	63
2910.78	63
2911.63	64.5
2912.48	52
2913.33	55
2914.18	49
2915.02	49
2915.87	46.5
2916.72	45
2917.57	47.5
2918.42	37
2919.27	40
2920.12	35.5
2920.97	37.5
2921.81	30
2922.66	37
2923.51	33
2924.36	34.5
2925.21	31
2926.05	29.5
2926.9	28
2927.75	30
2928.59	26
2929.44	28
2930.29	25
2931.14	29
2931.98	30
2932.83	29
2933.68	31
2934.52	32
2935.37	23
2936.21	25.5
2937.06	26.5
2937.91	26
2938.75	27.5
2939.6	28
2940.44	27
2941.29	26
2942.14	27.5
2942.98	29.5
2943.82	26.5
2944.67	30
2945.51	31.5
2946.36	24
2947.2	29.5
2948.05	32.5
2948.89	30
2949.74	30.5
2950.58	28.5
2951.43	31.5
2952.27	31
2953.11	28.5
2953.96	30.5
2954.8	31.5
2955.64	37
2956.49	34
2957.33	36
2958.17	37.5
2959.02	38.5
2959.86	42
2960.7	36
2961.54	42
2962.39	42
2963.23	38
2964.07	40
2964.91	47.5
2965.75	41.5
2966.6	35.5
2967.44	39.5
2968.28	37.5
2969.12	42
2969.96	38
2970.8	39.5
2971.64	36.0243
2972.48	35.8776
2973.33	42.8775
2974.17	35.4411
2975.01	37.4898
2975.85	37.2748
2976.69	35.0209
2977.53	32.1537
2978.37	30.102
2979.21	30.8732
2980.05	27.4717
2980.89	31.2501
2981.73	29.6116
2982.57	27.8621
2983.41	32.5936
2984.25	26.3444
2985.08	25.6166
2985.92	27.8321
2986.76	24.5967
2987.6	25.5
2988.44	26.1042
2989.28	22.5243
2990.12	26.1357
2990.96	24.5617
2991.79	25.2036
2992.63	26.9631
2993.47	22.5816
2994.31	28.8362
2995.14	26.7002
2995.98	25.6335
2996.82	24.5194
2997.66	24.8958
2998.49	25.9733
2999.33	23.0999
3000.17	21.9976
3001	24.2318
3001.84	23.1207
3002.68	23.9922
3003.51	20.3498
3004.35	25.0356
3005.19	24.6806
3006.02	24.6405
3006.86	26.0558
3007.7	21.4899
3008.53	24.2135
3009.37	22.1189
3010.2	23.9071
3011.04	20.6799
3011.87	24.3925
3012.71	23.3085
3013.54	23.4914
3014.38	23.327
3015.21	23.28
3016.05	25.5525
3016.88	23.4144
3017.72	23.7805
3018.55	23.5476
3019.39	23.2838
3020.22	22.538
3021.05	21.0386
3021.89	20.6476
3022.72	22.3704
3023.55	23.5187
3024.39	25.5508
3025.22	23.4851
3026.05	23.3594
3026.89	21.6297
3027.72	24.3299
3028.55	23.7328
3029.39	21.1436
3030.22	22.2458
3031.05	22.4232
3031.88	21.8885
3032.72	21.9006
3033.55	21.2074
3034.38	22.9072
3035.21	25.6511
3036.04	22.757
3036.88	23.78
3037.71	22.417
3038.54	21.6371
3039.37	22.4196
3040.2	23.221
3041.03	25.7356
3041.86	24.5337
3042.69	23.8558
3043.52	24.5662
3044.36	23.2939
3045.19	21.7887
3046.02	19.6373
3046.85	18.815
3047.68	19.9679
3048.51	22.2241
3049.34	25.1397
3050.17	25.6135
3051	22.803
3051.83	21.2062
3052.66	20.9454
3053.48	20.4773
3054.31	20.3528
3055.14	22.5267
3055.97	22.292
3056.8	21.5603
3057.29	23
3058.12	21
3058.95	22
3059.79	25
3060.62	22.5
3061.45	21
3062.29	22.5
3063.12	24.5
3063.95	24.5
3064.78	20.5
3065.62	19
3066.45	25
3067.28	24.5
3068.11	22
3068.94	20
3069.77	23
3070.61	21
3071.44	19
3072.27	22
3073.1	26.5
3073.93	24.5
3074.76	23
3075.59	22.5
3076.42	22.5
3077.25	21
3078.08	21
3078.92	21.5
3079.74	20
3080.57	23
3081.41	23
3082.24	26.5
3083.06	17
3083.89	22
3084.72	23.5
3085.55	24
3086.38	20
3087.21	24.5
3088.04	23.5
3088.87	24
3089.7	24
3090.53	25
3091.36	23
3092.18	21
3093.01	25
3093.84	21
3094.67	21.5
3095.5	24
3096.32	21.5
3097.15	29
3097.98	24
3098.81	21.5
3099.64	22
3100.46	27
3101.29	21.5
3102.12	20.5
3102.94	22
3103.77	24
3104.6	22.5
3105.42	20
3106.25	24
3107.08	23.5
3107.9	19
3108.73	23.5
3109.56	25.5
3110.38	25.5
3111.21	27
3112.03	23.5
3112.86	23.5
3113.68	22.5
3114.51	21.5
3115.33	25.5
3116.16	23
3116.98	27.5
3117.81	20.5
3118.63	25.5
3119.46	27.5
3120.28	27
3121.11	21.5
3121.93	26.5
3122.76	23.5
3123.58	23.5
3124.4	26
3125.23	23.5
3126.05	26
3126.87	23
3127.7	21.5
3128.52	26
3129.34	20.5
3130.17	24.5
3130.99	23
3131.81	19.5
3132.64	22
3133.46	22
3134.28	26.5
3135.1	24.5
3135.93	21.5
3136.75	22.5
3137.57	22
3138.39	24
3139.21	25
3140.04	29
3140.86	27.5
3141.68	25.5
3142.5	23.5
3143.32	24.5
3144.14	24.5
3144.96	23.5
3145.78	21.5
3146.61	21
3147.43	19
3148.25	22
3149.07	23.5
3149.89	26
3150.71	22.5
3151.53	25
3152.35	21
3153.17	24.5
3153.99	25
3154.81	22.5
3155.63	26.5
3156.45	20.5
3157.27	24
3158.08	22
3158.9	23.5
3159.72	19.5
3160.54	24.5
3161.36	23.5
3162.18	23
3163	22.5
3163.82	23.5
3164.63	25
3165.45	27
3166.27	28
3167.09	27.5
3167.91	26
3168.72	22
3169.54	26.5
3170.36	20.5
3171.18	22.5
3171.99	19
3172.81	22
3173.63	19
3174.44	23
3175.26	23
3176.08	21.5
3176.89	23
3177.71	22
3178.53	21.5
3179.34	23.5
3180.16	24
3180.97	24
3181.79	24.5
3182.61	24
3183.42	26
3184.24	23.5
3185.05	21
3185.87	26.5
3186.68	23.5
3187.5	20.5
3188.31	24
3189.13	22
3189.94	22
3190.76	27
3191.57	23
3192.39	20.5
3193.2	24
3194.02	24.5
3194.83	19.5
3195.64	20.5
3196.46	26
3197.27	21.5
3198.08	23
3198.9	25.5
3199.71	25
3200.52	20
3201.34	24.5
3202.15	24.5
3202.96	19
3203.78	19.5
3204.59	21.5
3205.4	23
3206.21	27.5
3207.03	23
3207.84	25
3208.65	25
3209.46	24.5
3210.27	19
3211.09	24
3211.9	23
3212.71	20
3213.52	21
3214.33	22
3215.14	22
3215.95	26
3216.77	24.5
3217.58	24.5
3218.39	26.5
3219.2	23.5
3220.01	19
3220.82	26.5
3221.63	20
3222.44	29
3223.25	21
3224.06	26
3224.87	26.5
3225.68	22.5
3226.49	22.5
3227.3	22
3228.11	20.5
3228.92	23
3229.73	25.5
3230.53	24
3231.34	26.5
3232.15	27.5
3232.96	21
3233.77	21.5
3234.58	24
3235.39	22.5
3236.19	26.5
3237	25
3237.81	21.5
3238.62	26
3239.43	20
3240.23	25
3241.04	23.5
3241.85	24
3242.66	24.5
3243.46	22
3244.27	23.5
3245.08	23
3245.89	21.5
3246.69	24
3247.5	23
3248.31	23
3249.11	24
3249.92	19.5
3250.72	27.5
3251.53	24
3252.34	23.5
3253.14	28.5
3253.95	22
3254.75	27
3255.56	25
3256.36	23.5
3257.17	23
3257.98	25
3258.78	24
3259.59	20.5
3260.39	26
3261.19	22
3262	21.5
3262.8	25
3263.61	23.5
3264.41	22.5
3265.22	20
3266.02	20
3266.83	24.5
3267.63	24
3268.43	20
3269.24	22
3270.04	23
3270.84	24
3271.65	25.5
3272.45	21.5
3273.25	25.5
3274.06	27
3274.86	25.5
3275.66	27
3276.46	21
3277.27	26
3278.07	21
3278.87	27
3279.67	22.5
3280.48	27
3281.28	26.5
3282.08	21.5
3282.88	23.5
3283.68	22
3284.48	26.5
3285.29	21
3286.09	23
3286.89	23
3287.69	22
3288.49	25.5
3289.29	22.5
3290.09	21.5
3290.89	26
3291.69	24.5
3292.49	23
3293.29	26.5
3294.09	24
3294.89	23
3295.69	25.5
3296.49	25
3297.29	19
3298.09	22
3298.89	24.5
3299.69	26.5
3300.49	23
3301.29	24.5
3302.09	21
3302.89	24.5
3303.69	23.5
3304.49	22.5
3305.28	25.5
3306.08	23
3306.88	22
3307.68	21.5
3308.48	22
3309.28	21.5
3310.07	19
3310.87	23.5
3311.67	24.5
3312.47	24
3313.26	21.5
3314.06	24.5
3314.86	24.5
3315.66	24
3316.45	21.5
3317.25	20
3318.05	20
3318.84	23
3319.64	21.5
3320.44	20
3321.23	26
3322.03	25.5
3322.83	23
3323.62	27
3324.42	25
3325.21	21
3326.01	22
3326.81	23
3327.6	27
3328.4	26
3329.19	24.5
3329.99	21
3330.78	23.5
3331.58	21
3332.37	21
3333.17	25
3333.96	21
3334.76	23.5
3335.55	26.5
3336.34	22
3337.14	26.5
3337.93	22.5
3338.73	23.5
3339.52	26.5
3340.31	25
3341.11	22
3341.9	23.5
3342.69	22.5
3343.49	21
3344.28	24
3345.07	24
3345.87	23.5
3346.66	25
3347.45	22
3348.25	27.5
3349.04	27
3349.83	23
3350.62	24
3351.42	24
3352.21	21
3353	23.5
3353.79	26.5
3354.58	23.5
3355.37	29.5
3356.17	22.5
3356.96	22.5
3357.75	21
3358.54	24
3359.33	28.5
3360.12	24
3360.91	23
3361.7	23.5
3362.49	24
3363.29	22
3364.08	23
3364.87	23.5
3365.66	22.5
3366.45	26
3367.24	24.5
3368.03	25
3368.82	25.5
3369.61	25.5
3370.4	25.5
3371.19	23
3371.97	24.5
3372.76	25.5
3373.55	22.5
3374.34	20
3375.13	20
3375.92	25
3376.71	20
3377.5	28
3378.29	25
3379.07	26
3379.86	24
3380.65	23.5
3381.44	28
3382.23	26
3383.01	27
3383.8	27.5
3384.59	29.5
3385.38	23
3386.16	24.5
3386.95	24.5
3387.74	21
3388.53	23
3389.31	22.5
3390.1	24
3390.89	20.5
3391.67	24.5
3392.46	23.5
3393.25	24
3394.03	26
3394.82	23
3395.6	22
3396.39	26.5
3397.18	23
3397.96	23.5
3398.75	24.5
3399.53	23.5
3400.32	25
3401.1	29
3401.89	27.5
3402.67	20
3403.46	24.5
3404.24	21
3405.03	19.5
3405.81	28
3406.6	24
3407.38	26
3408.17	22
3408.95	26.5
3409.74	23.5
3410.52	23
3411.3	19.5
3412.09	24
3412.87	22.5
3413.65	27
3414.44	21.5
3415.22	21.5
3416	24.5
3416.79	23
3417.57	20
3418.35	23.5
3419.14	22
3419.92	21
3420.7	22
3421.48	21.5
3422.27	20.5
3423.05	22.5
3423.83	23.5
3424.61	25.5
3425.4	28
3426.18	22.5
3426.96	24.5
3427.74	19.5
3428.52	24
3429.3	20
3430.08	22
3430.87	24.5
3431.65	22.5
3432.43	27
3433.21	24
3433.99	28.5
3434.77	24
3435.55	21
3436.33	27
3437.11	23
3437.89	23
3438.67	24
3439.45	21
3440.23	24
3441.01	26.5
3441.79	22.5
3442.57	23
3443.35	25.5
3444.13	22.5
3444.91	22.5
3445.69	29.5
3446.47	24
3447.25	25
3448.03	20.5
3448.8	24.5
3449.58	21
3450.36	18.5
3451.14	22
3451.92	25
3452.7	23.5
3453.47	25
3454.25	23
3455.03	21
3455.81	22
3456.59	23.5
3457.36	24.5
3458.14	25.5
3458.92	25
3459.69	20.5
3460.47	21.5
3461.25	29
3462.03	23
3462.8	22
3463.58	23
3464.36	24.5
3465.13	21
3465.91	22.5
3466.69	26.5
3467.46	27.5
3468.24	27
3469.01	23
3469.79	25
3470.57	22.5
3471.34	23
3472.12	22
3472.89	21
3473.67	24.5
3474.44	24
3475.22	22.5
3475.99	25.5
3476.77	24
3477.54	20.5
3478.32	25
3479.09	25
3479.87	23.5
3480.64	23.5
3481.41	23
3482.19	23.5
3482.96	20.5
3483.74	23
3484.51	19.5
3485.28	20
3486.06	24
3486.83	25.5
3487.6	29.5
3488.38	22
3489.15	24.5
3489.92	18.5
3490.7	22.5
3491.47	23.5
3492.24	25.5
3493.01	24
3493.79	22.5
3494.56	24
3495.33	23
3496.1	21.5
3496.88	23
3497.65	23.5
3498.42	23.5
3499.19	25
3499.96	23.5
