#Acq. time (s)=	5
#Accumulations=	5
#Range (cm-¹)=	100...3500
#Windows=	4
#Autofocus=	Off
#AutoExposure=	Off
#Spike filter=	Multiple accum.
#Delay time (s)=	0
#Binning=	1
#Readout mode=	Signal
#DeNoise=	Off
#ICS correction=	Off
#Dark correction=	Off
#Inst. Process=	Off
#Instrument=	LabRAM HR Evol
#Detector=	Syncerity OE
#Objective=	x100_VIS
#Grating=	600 (500nm)
#ND Filter=	25%
#Laser=	633nm_Edge
#Hole=	100.021
#Range=	Visible
#Project=	verificaciones
#Sample=	at3
#Site=	plain
#Title=	bolusat3plain
#Remark=	
#Date=	14.01.2026 12:08
#Acquired=	14.01.2026 12:08:01
100.618	21.5
101.901	27.5
103.185	28.5
104.468	26
105.751	26.5
107.033	27
108.316	25.5
109.598	25
110.88	32
112.162	26
113.445	21.5
114.727	28.5
116.008	31
117.289	27.5
118.57	29.5
119.85	24.5
121.13	24
122.411	27
123.691	24.5
124.97	21.5
126.25	24.5
127.529	25.5
128.808	26
130.086	25.5
131.364	29
132.643	26.5
133.921	28
135.199	30.5
136.477	26
137.755	24.5
139.032	29.5
140.309	26
141.586	23
142.863	28.5
144.14	27
145.415	25
146.691	31
147.967	23.5
149.243	27.5
150.518	24.5
151.794	25
153.067	31.5
154.342	30
155.617	25
156.892	28.5
158.166	26
159.439	28.5
160.712	28
161.986	27
163.26	25.5
164.531	24.5
165.805	28
167.077	28.5
168.35	30.5
169.621	28
170.893	30
172.165	28.5
173.437	26.5
174.707	27.5
175.979	28.5
177.25	25
178.519	25
179.79	25.5
181.061	25
182.33	30
183.6	28
184.87	29
186.138	30.5
187.408	29
188.676	28
189.945	24.5
191.214	29.5
192.481	30
193.75	31
195.016	26
196.285	29
197.552	30
198.819	30
200.086	26
201.352	28.5
202.619	25.5
203.884	26
205.151	29.5
206.416	27.5
207.682	21
208.947	28.5
210.213	25
211.477	29.5
212.742	28
214.006	20
215.271	28.5
216.535	26.5
217.799	24.5
219.062	29
220.326	30
221.589	29.5
222.851	24.5
224.115	30.5
225.377	28.5
226.64	23.5
227.901	25.5
229.163	27
230.425	27.5
231.686	28
232.947	29
234.209	25.5
235.469	30
236.729	29
237.991	24
239.25	25
240.51	28.5
241.771	30
243.03	18
244.288	24
245.549	27
246.807	27
248.065	30
249.323	24.5
250.583	24.5
251.84	25
253.098	27
254.355	28
255.613	28
256.87	23
258.127	30
259.383	27.5
260.639	27
261.897	27
263.153	28
264.408	27.5
265.664	27.5
266.919	32.5
268.174	26
269.43	27
270.685	29
271.939	26
273.193	24.5
274.447	29
275.701	26.5
276.955	26.5
278.208	27.5
279.461	28.5
280.714	28.5
281.968	23
283.221	26.5
284.473	28
285.726	28
286.977	24.5
288.229	24
289.481	22
290.732	23
291.983	25
293.234	25.5
294.485	30.5
295.736	29.5
296.986	28
298.236	25
299.486	23.5
300.736	25
301.985	27
303.233	25
304.482	25
305.731	26
306.98	27
308.228	28.5
309.477	27.5
310.725	26.5
311.973	28.5
313.22	22
314.468	24
315.714	32
316.961	26.5
318.208	21.5
319.455	26.5
320.701	29
321.947	26
323.192	28
324.438	24.5
325.684	28.5
326.929	28
328.175	21
329.418	29.5
330.663	24
331.908	27.5
333.152	28
334.395	23.5
335.639	28
336.883	31
338.127	25.5
339.369	25
340.612	25
341.855	28.5
343.097	24.5
344.34	26
345.582	18
346.823	24.5
348.065	25
349.307	25
350.547	26
351.789	27
353.03	24.5
354.27	28
355.511	27.5
356.75	27.5
357.991	23.5
359.231	28
360.47	27.5
361.709	20
362.948	29
364.187	23
365.427	24.5
366.664	25
367.903	24
369.14	28
370.379	27
371.616	27
372.854	27
374.091	28.5
375.328	29.5
376.564	25.5
377.802	24
379.037	28
380.274	28
381.51	24
382.745	26
383.981	28.5
385.216	24.5
386.452	25
387.686	28.5
388.922	24
390.155	29
391.389	29.5
392.624	27
393.857	27.5
395.091	30
396.325	24
397.558	28
398.79	29.5
400.024	24.5
401.256	30
402.488	26.5
403.721	29
404.953	27
406.184	30
407.417	25.5
408.648	26.5
409.878	24.5
411.109	24.5
412.341	28
413.571	28.5
414.801	28
416.031	25.5
417.262	25
418.491	29
419.72	25
420.949	29
422.178	26.5
423.408	26.5
424.637	30.5
425.865	27
427.093	28.5
428.32	25
429.548	27.5
430.777	27.5
432.004	25.5
433.231	21.5
434.458	30
435.685	25.5
436.911	29.5
438.137	23.5
439.363	27.5
440.589	26
441.815	24
443.042	27
444.267	25
445.492	28
446.717	24.5
447.942	29
449.166	24
450.39	26.5
451.615	26.5
452.838	27.5
454.062	29
455.286	29
456.509	27.5
457.732	25.5
458.955	27
460.178	27
461.399	25.5
462.621	30
463.843	29.5
465.065	26.5
466.287	23.5
467.508	26.5
468.73	32
469.951	29
471.172	27.5
472.393	30.5
473.612	27
474.832	30
476.052	27.5
477.272	27
478.492	27
479.712	32
480.93	30
482.149	28
483.368	25.5
484.587	33
485.806	29
487.023	28
488.241	34.5
489.459	32
490.677	30
491.893	30
493.111	31
494.328	34.5
495.543	34.5
496.76	28
497.977	29
499.194	30
500.409	29.5
501.625	30
502.841	30
504.055	27
505.27	28
506.486	31.5
507.699	25
508.914	28
510.128	30
511.342	27.5
512.557	29.5
513.77	26
514.984	28.5
516.196	26.5
517.41	26.5
518.623	27
519.835	23.5
521.048	27
522.259	27.5
523.472	23.5
524.683	28
525.895	27
527.106	28
528.318	25
529.528	28
530.74	24.5
531.949	30
533.161	26
534.37	28.5
535.581	27.5
536.79	27
537.999	26
539.209	27
540.418	24
541.627	25
542.835	28
544.043	24
545.253	25
546.46	28.5
547.669	25
548.876	25
550.083	26
551.292	24
552.498	26.5
553.705	25
554.912	29
556.118	27.5
557.324	27
558.53	29.5
559.737	25
560.942	26
562.147	29
563.353	29
564.558	28.5
565.763	26.5
566.967	27
568.173	28
569.377	26.5
570.58	25.5
571.784	28
572.987	25
574.192	26
575.395	30.5
576.598	28.5
577.8	28
579.003	26.5
580.205	27
581.407	29.5
582.61	26
583.812	26
585.014	27
586.215	29
587.416	26
588.617	30
589.818	27
591.018	31
592.219	25
593.419	28
594.619	28
595.819	24.5
597.02	30
598.219	24
599.418	30
600.617	22.5
601.816	30
603.015	26
604.213	24
605.41	25.5
606.608	30
607.806	27.5
609.004	29
610.201	27
611.399	28
612.596	26
613.793	29
614.989	30.5
616.186	29
617.382	26
618.579	25
619.775	25
620.969	28.5
622.165	27
623.36	29
624.555	27.5
625.75	30.5
626.945	25.5
628.139	30
629.333	28.5
630.527	25.5
631.721	24.5
632.915	27.5
634.108	28
635.301	27.5
636.495	31.5
637.688	24.5
638.88	28
640.072	26
641.265	29
642.456	25
643.648	28
644.84	25
646.032	25.5
647.222	24
648.414	27.5
649.605	23.5
650.795	25.5
651.986	28
653.177	26
654.366	23
655.556	29
656.745	28.5
657.935	27
659.125	28
660.313	25.5
661.503	30
662.69	28.5
663.879	27
665.067	26.5
666.256	27.5
667.444	28
668.631	32
669.819	28
671.006	26.5
672.194	24.5
673.38	27.5
674.567	29
675.753	29
676.94	24
678.125	26
679.311	31.5
680.497	31
681.682	29
682.868	30
684.053	27
685.238	28.5
686.422	28
687.606	28.5
688.792	29.5
689.975	27
691.159	25.5
692.343	27.5
693.526	29
694.71	29
695.893	27.5
697.076	29
698.259	25
699.441	26
700.623	28
701.805	26.5
702.988	24
704.169	32
705.35	27
706.533	30
707.714	29.5
708.894	32
710.075	35.5
711.255	27.5
712.436	31
713.616	30
714.796	29.5
715.975	30
717.155	26.5
718.335	28
719.514	26.5
720.693	26
721.872	26
723.05	25.5
724.228	26.5
725.406	21.5
726.585	28
727.763	27
728.941	27
730.118	26
731.295	28
732.472	27
733.649	31
734.825	30.5
736.002	26
737.178	27.5
738.354	24.5
739.53	25
740.705	27
741.881	22.5
743.056	27
744.231	26.5
745.406	25.5
746.581	27
747.755	27.5
748.93	21
750.104	22.5
751.278	29
752.452	24.5
753.625	24.5
754.799	28
755.972	26
757.144	25
758.317	28.5
759.489	26.5
760.662	28
761.834	27
763.006	22.5
764.178	26.5
765.349	23.5
766.521	24
767.692	29
768.863	27
770.034	29
771.204	28
772.374	26.5
773.545	24
774.715	26.5
775.885	23
777.054	28.5
778.224	27.5
779.393	29
780.562	23.5
781.731	27
782.9	28.5
784.069	28
785.236	29.5
786.405	27
787.573	26.5
788.74	31
789.908	27
791.074	27.5
792.242	28
793.409	28
794.575	28
795.742	26
796.909	28.5
798.074	23
799.241	28.5
800.406	26.5
801.572	27.5
802.737	25
803.902	27
805.067	25.5
806.232	25
807.396	24.5
808.561	27
809.725	23
810.889	30
812.052	21.5
813.217	32
814.38	24
815.544	30
816.706	22
817.87	26
819.032	23
820.195	31
821.357	27
822.518	30
823.681	26.5
824.842	27.5
826.005	24
827.165	27
828.326	23
829.488	29
830.648	29
831.808	25
832.97	27
834.129	27
835.289	26.5
836.45	26.5
837.609	24
838.768	22
839.927	26
841.087	23.5
842.245	26
843.404	28.5
844.562	23
845.721	18.5
846.879	30
848.036	25
849.194	26.5
850.351	27.5
851.509	27.5
852.666	27
853.823	28
854.979	23
856.136	24.5
857.292	27
858.448	29
859.605	23
860.761	29.5
861.916	31
863.071	27
864.226	29
865.381	24
866.536	24
867.691	26
868.845	24.5
869.999	28
871.153	26.5
872.307	27
873.461	23
874.614	27
875.767	26
876.92	25
878.073	25
879.226	27
880.379	26.5
881.531	29
882.683	30
883.835	26
884.987	26.5
886.139	27.5
887.291	25.5
888.442	25
889.593	26
890.743	22.5
891.893	27
893.044	24
894.195	21
895.345	27
896.495	24.5
897.643	26
898.793	25
899.943	24.5
901.092	28
902.241	25.5
903.389	27.5
904.538	26.5
905.687	26.5
906.835	27
907.982	27.5
909.13	23
910.278	27.5
911.426	20.5
912.572	25
913.72	28
914.867	24.5
916.013	27
917.16	27.5
918.306	22
919.451	27.5
920.598	21.5
921.744	25
922.889	27
924.035	22
925.18	23.5
926.324	24.5
927.47	23
928.614	26.5
929.758	25.5
930.902	22.5
932.047	27.5
933.191	27
934.334	28.5
935.478	24.5
936.621	30
937.764	26
938.906	30
940.05	26
941.192	24
942.335	24
943.476	23.5
944.619	24.5
945.76	26
946.901	24
948.043	26
949.184	24.5
950.326	28
951.466	26
952.606	28.5
953.747	25.5
954.887	22.5
956.028	24
957.167	26.5
958.307	26
959.447	28
960.586	25.5
961.725	26
962.865	25
964.003	21
965.141	26
966.279	27.5
967.418	23.5
968.556	25
969.693	24.5
970.831	26.25
971.969	28
973.106	24.5
974.243	25
975.38	30
976.517	26
977.654	27
978.79	26
979.926	26
981.061	24.5
982.197	22.5
983.334	27
984.469	26
985.604	26
986.739	29
987.873	27
989.008	24
990.142	26.5
991.277	27.5
992.411	25
993.544	24
994.679	29
995.813	24
996.946	24
998.079	25
999.212	24.5
1000.35	22.5
1001.48	29.5
1002.61	28.5
1003.74	26
1004.87	25
1006.01	25.5
1007.14	23
1008.27	28.5
1009.4	25
1010.53	27
1011.66	27
1012.79	26
1013.92	23
1015.05	23.5
1016.18	23.5
1017.31	26
1018.44	24.5
1019.57	25.5
1020.7	25.5
1021.83	28
1022.96	26
1024.09	26.5
1025.22	26
1026.35	23
1027.48	23.5
1028.6	27
1029.73	22
1030.86	25
1031.99	24
1033.12	23.5
1034.24	28
1035.37	25
1036.5	25
1037.62	25.5
1038.75	24.5
1039.88	23
1041	22
1042.13	23.5
1043.25	24
1044.38	30.5
1045.5	26.5
1046.63	27
1047.76	20.5
1048.88	24.5
1050	27.5
1051.13	27
1052.25	21.5
1053.38	25
1054.5	26.5
1055.63	23
1056.75	28.5
1057.87	25
1058.99	24.5
1060.12	25.5
1061.24	22.5
1062.36	25.5
1063.49	26
1064.61	27.5
1065.73	23
1066.85	24
1067.97	25
1069.1	25
1070.22	22.5
1071.34	26.5
1072.46	23
1073.58	26
1074.7	25
1075.82	21.5
1076.94	25
1078.06	27
1079.18	23
1080.3	26.5
1081.42	22.5
1082.54	26.5
1083.66	24.5
1084.78	22
1085.9	24.5
1087.02	29
1088.13	22.5
1089.25	27
1090.37	24
1091.49	26
1092.61	27.5
1093.72	23.5
1094.84	26
1095.96	26.5
1097.08	25.5
1098.19	29
1099.31	24
1100.42	24
1101.54	26.5
1102.66	27
1103.77	23.5
1104.89	22
1106	25.5
1107.12	23.5
1108.23	23
1109.35	26
1110.46	28
1111.58	24
1112.69	22
1113.81	29
1114.92	25
1116.04	25.5
1117.15	26.5
1118.26	26
1119.38	24
1120.49	26.5
1121.6	23.5
1122.72	24
1123.83	25
1124.94	22
1126.05	25
1127.17	22
1128.28	25
1129.39	26.5
1130.5	27.5
1131.61	25
1132.72	25
1133.83	27.5
1134.94	28
1136.06	26
1137.17	26
1138.27	23
1139.39	23.5
1140.5	25.5
1141.61	21
1142.72	23
1143.82	23
1144.93	22
1146.04	21.5
1147.15	27
1148.26	22.5
1149.37	23.5
1150.48	26
1151.58	24
1152.69	24
1153.8	26.5
1154.91	25.5
1156.02	26.5
1157.12	23
1158.23	27
1159.34	24
1160.44	26.5
1161.55	25
1162.66	21
1163.76	26
1164.87	27.5
1165.97	27.5
1167.08	27
1168.18	25.5
1169.29	22
1170.39	23
1171.5	24
1172.6	25.5
1173.71	26.5
1174.81	22.5
1175.92	26.5
1177.02	25
1178.13	22
1179.23	28.5
1180.33	24.5
1181.44	23.5
1182.54	21
1183.64	26.5
1184.74	27.5
1185.85	25
1186.95	24
1188.05	22.5
1189.15	25.5
1190.26	22.5
1191.36	25
1192.46	25
1193.56	23.5
1194.66	23.5124
1195.76	20.0115
1196.86	26.9433
1197.96	23.1318
1199.06	27.3945
1200.16	26.0142
1201.26	24.3393
1202.36	24.7195
1203.46	24.0319
1204.56	26.054
1205.66	26.0366
1206.76	21.9508
1207.86	23.5561
1208.96	25.0477
1210.06	22.9157
1211.16	22.1997
1212.25	21.9199
1213.35	25.1586
1214.45	24.1427
1215.55	26.2414
1216.65	26.7996
1217.74	22.9929
1218.84	23.4507
1219.94	24.7518
1221.03	22.3176
1222.13	23.8757
1223.23	23.9794
1224.32	23.4731
1225.42	23.5055
1226.52	26.6037
1227.61	24.7597
1228.71	25.4774
1229.8	23.949
1230.9	22.6087
1231.99	25.6578
1233.09	22.8559
1234.18	24.8198
1235.28	23.7442
1236.37	24.0891
1237.47	23.5915
1238.56	19.0888
1239.65	25.1049
1240.75	23.4184
1241.84	24.2396
1242.93	23.652
1244.03	26.9721
1245.12	24.3566
1246.21	22.0182
1247.31	23.0882
1248.4	22.489
1249.49	22.7702
1250.58	21.7948
1251.67	23.4901
1252.77	24.3735
1253.86	26.293
1254.95	23.6125
1256.04	24.797
1257.13	22.8866
1258.22	23.5905
1259.31	23.4579
1260.4	23.512
1261.49	21.6621
1262.58	24.7914
1263.67	21.5666
1264.76	22.7664
1265.85	22.3807
1266.94	22.1729
1268.03	24.9523
1269.12	22.6654
1270.21	24.6535
1271.3	24.274
1272.39	24.856
1273.47	23.1738
1274.56	23.6599
1275.65	23.099
1276.74	21.3325
1277.83	22.5085
1278.91	21.9442
1280	22.4314
1281.09	21.9272
1282.17	21.917
1283.26	20.9995
1284.35	24.8855
1285.43	26.0947
1286.52	22.168
1287.61	26.0882
1288.69	26.4116
1289.78	24.1922
1290.86	23.3465
1291.95	23.8034
1293.03	24.6833
1294.12	25.2849
1295.2	22.7646
1296.29	20.4251
1297.37	21.0861
1298.46	26.1772
1299.54	24.1115
1300.63	22.0198
1301.71	23.1177
1302.79	23.9897
1303.88	23.3363
1304.96	24.8492
1306.04	24.169
1306.5	22.5
1307.59	21
1308.68	24.5
1309.76	23.5
1310.85	24.5
1311.94	23
1313.03	24
1314.11	24.5
1315.2	24
1316.29	26
1317.37	18.5
1318.46	25.5
1319.55	26
1320.63	25
1321.72	24.5
1322.81	24.5
1323.89	25.5
1324.98	22
1326.06	25
1327.15	22
1328.23	24.5
1329.32	19
1330.4	24.5
1331.49	25
1332.57	22.5
1333.66	22
1334.74	27
1335.82	27
1336.91	26.5
1337.99	21
1339.07	25.5
1340.16	25.5
1341.24	24.5
1342.32	24
1343.4	23
1344.49	26.5
1345.57	23
1346.65	20
1347.73	23
1348.82	20
1349.9	27
1350.98	24
1352.06	26
1353.14	24
1354.22	23.5
1355.3	22
1356.38	23
1357.46	21.5
1358.54	27.5
1359.62	25.5
1360.7	26
1361.78	26
1362.86	25
1363.94	28
1365.02	22
1366.1	22.5
1367.18	25.5
1368.26	23.5
1369.34	25.5
1370.41	23.5
1371.49	22.5
1372.57	25
1373.65	23.5
1374.72	20
1375.8	27
1376.88	29
1377.96	21
1379.03	21.5
1380.11	22.5
1381.19	26
1382.26	25.5
1383.34	23.5
1384.42	22
1385.49	25
1386.57	22
1387.64	24.5
1388.72	26
1389.79	21
1390.87	21
1391.94	26
1393.02	23
1394.09	23.5
1395.17	22.5
1396.24	24.5
1397.31	26
1398.39	26
1399.46	27
1400.54	27.5
1401.61	28
1402.68	27.5
1403.76	23.5
1404.83	25
1405.9	25
1406.97	23
1408.05	28.5
1409.12	21.5
1410.19	24.5
1411.26	23
1412.33	29
1413.4	25
1414.48	30
1415.55	23
1416.62	24
1417.69	29
1418.76	27
1419.83	25.5
1420.9	27
1421.97	27
1423.04	21
1424.11	21.5
1425.18	28
1426.25	25
1427.32	23
1428.39	26.5
1429.46	25
1430.52	23.5
1431.59	18.5
1432.66	23
1433.73	21
1434.8	24.5
1435.87	23
1436.93	24
1438	23
1439.07	24.5
1440.14	25
1441.2	27.5
1442.27	21.5
1443.34	26.5
1444.4	22
1445.47	22.5
1446.54	23.5
1447.6	24
1448.67	24
1449.73	26
1450.8	27
1451.86	27
1452.93	23
1453.99	25.5
1455.06	26
1456.12	26
1457.19	25.5
1458.25	24
1459.32	25
1460.38	25
1461.45	21.5
1462.51	24.5
1463.57	24.5
1464.64	20
1465.7	23
1466.76	24.5
1467.82	24
1468.89	24
1469.95	26
1471.01	24.5
1472.07	24.5
1473.14	25
1474.2	24
1475.26	22.5
1476.32	23
1477.38	24.5
1478.44	27
1479.5	25.5
1480.57	27
1481.63	22
1482.69	19.5
1483.75	24.5
1484.81	29
1485.87	22
1486.93	25
1487.99	28
1489.05	24.5
1490.1	25.5
1491.17	30
1492.22	25
1493.28	25
1494.34	24.5
1495.4	26
1496.46	26.5
1497.52	21.5
1498.57	22.5
1499.63	23
1500.69	25
1501.75	21
1502.8	23
1503.86	22
1504.92	24
1505.98	25
1507.03	21
1508.09	20.5
1509.15	26
1510.2	23
1511.26	24
1512.31	25.5
1513.37	24
1514.42	26.5
1515.48	27
1516.53	26.5
1517.59	26
1518.64	22
1519.7	24
1520.75	23
1521.81	23
1522.86	26
1523.92	25
1524.97	25
1526.02	29
1527.08	25
1528.13	26.5
1529.18	23
1530.24	26.5
1531.29	29.5
1532.34	26
1533.39	24
1534.45	24.5
1535.5	20.5
1536.55	25.5
1537.6	25.5
1538.65	27
1539.71	24
1540.76	24
1541.81	27.5
1542.86	28
1543.91	22
1544.96	24.5
1546.01	24.5
1547.06	20.5
1548.11	25
1549.16	28
1550.21	25
1551.26	22
1552.31	28.5
1553.36	25
1554.41	27.5
1555.46	23.5
1556.51	26.5
1557.56	23.5
1558.6	25
1559.65	21.5
1560.7	28
1561.75	28
1562.8	27
1563.84	20
1564.89	23.5
1565.94	22
1566.99	24.5
1568.03	23
1569.08	24.5
1570.13	25
1571.17	25
1572.22	22.5
1573.27	26
1574.31	20
1575.36	25
1576.4	23.5
1577.45	23.5
1578.5	23
1579.54	25
1580.59	23.5
1581.63	23
1582.68	24.5
1583.72	24.5
1584.76	28.5
1585.81	26
1586.85	21.5
1587.9	27
1588.94	26
1589.98	22
1591.03	23.5
1592.07	23.5
1593.11	24.5
1594.16	23
1595.2	30
1596.24	29
1597.29	26
1598.33	23.5
1599.37	21
1600.41	22.5
1601.45	22.5
1602.49	25
1603.54	25
1604.58	23
1605.62	24.5
1606.66	26
1607.7	29.5
1608.74	25
1609.78	22.5
1610.82	22.5
1611.86	23
1612.9	23.5
1613.94	25.5
1614.98	25
1616.02	25
1617.06	23
1618.1	27
1619.14	24
1620.18	24
1621.22	26
1622.25	25
1623.29	26.5
1624.33	21.5
1625.37	28
1626.41	26
1627.45	24
1628.48	23.5
1629.52	23.5
1630.56	23
1631.59	25.5
1632.63	22.5
1633.67	27
1634.7	24
1635.74	31
1636.78	23
1637.81	28.5
1638.85	26.5
1639.88	24
1640.92	23.5
1641.96	25
1642.99	21
1644.03	23
1645.06	23
1646.1	26.5
1647.13	26
1648.17	27.5
1649.2	25
1650.23	24
1651.27	25
1652.3	25
1653.33	23
1654.37	28
1655.4	23.5
1656.44	27
1657.47	24.5
1658.5	28.5
1659.53	23
1660.57	23.5
1661.6	24
1662.63	24.5
1663.66	22.5
1664.69	23.5
1665.73	25
1666.76	25
1667.79	25
1668.82	26
1669.85	24
1670.88	24.5
1671.91	24
1672.94	23
1673.97	22
1675.01	24
1676.03	27
1677.07	21
1678.1	19
1679.12	23
1680.15	24
1681.18	28.5
1682.21	24.5
1683.24	23
1684.27	30
1685.3	25.5
1686.33	28.5
1687.36	26
1688.38	23
1689.41	23.5
1690.44	26.5
1691.47	27
1692.5	24
1693.52	25
1694.55	27
1695.58	27
1696.6	27
1697.63	25.5
1698.66	24
1699.68	26
1700.71	25.5
1701.74	26
1702.76	24
1703.79	27.5
1704.81	24
1705.84	25
1706.86	24.5
1707.89	26
1708.91	25.5
1709.94	25
1710.96	26
1711.99	24.5
1713.01	25
1714.04	24
1715.06	24
1716.08	26
1717.11	24.5
1718.13	24
1719.16	21
1720.18	25
1721.2	25
1722.22	24
1723.25	24.5
1724.27	25.5
1725.29	27
1726.31	27.5
1727.34	24
1728.36	27
1729.38	24
1730.4	27.5
1731.42	24.5
1732.44	26
1733.47	25
1734.49	27
1735.51	24.5
1736.53	25
1737.55	26
1738.57	22.5
1739.59	24.5
1740.61	27.5
1741.63	22
1742.65	27
1743.67	24
1744.69	25
1745.71	22.5
1746.73	22
1747.75	25.5
1748.76	26
1749.78	23.5
1750.8	27
1751.82	21
1752.84	25
1753.86	24.5
1754.87	24
1755.89	22
1756.91	23.5
1757.93	25.5
1758.94	23.5
1759.96	24.5
1760.98	27
1761.99	25
1763.01	22.5
1764.03	26
1765.04	27
1766.06	25.5
1767.08	21.5
1768.09	26
1769.11	23
1770.12	24
1771.14	25
1772.15	22
1773.17	21.5
1774.18	21
1775.2	25.5
1776.21	27.5
1777.23	24
1778.24	21
1779.25	27
1780.27	26
1781.28	24
1782.3	26
1783.31	24
1784.32	24
1785.34	25.5
1786.35	21
1787.36	26
1788.37	26
1789.39	24
1790.4	27
1791.41	26.5
1792.42	24
1793.43	19
1794.45	23.5
1795.46	26
1796.47	22.5
1797.48	27
1798.49	25.5
1799.5	27.5
1800.51	26.5
1801.52	26
1802.53	26.5
1803.54	25
1804.55	23
1805.56	25.5
1806.57	23.5
1807.58	26.5
1808.59	22.5
1809.6	26.5
1810.61	24
1811.62	26.5
1812.63	22
1813.64	25
1814.65	26.5
1815.66	24
1816.66	27
1817.67	23
1818.68	23
1819.69	23
1820.69	23
1821.7	24
1822.71	25.5
1823.72	23
1824.72	24
1825.73	25
1826.74	27
1827.74	25
1828.75	24
1829.76	26.5
1830.76	22
1831.77	25
1832.77	24
1833.78	24
1834.79	24.5
1835.79	27
1836.8	18.5
1837.8	25.5
1838.81	23.5
1839.81	27
1840.81	23.5
1841.82	24.5
1842.82	25
1843.83	29.5
1844.83	27
1845.83	22.5
1846.84	21
1847.84	22
1848.84	26.5
1849.85	23
1850.85	24.5
1851.85	26
1852.86	27.5
1853.86	23
1854.86	23.5
1855.86	22
1856.86	23.5
1857.87	24
1858.87	24
1859.87	23.5
1860.87	25
1861.87	28
1862.87	26
1863.88	25.5
1864.88	27
1865.88	24.5
1866.88	24
1867.88	25.5
1868.88	24.5
1869.88	26.5
1870.88	26.5
1871.88	27.5
1872.88	24
1873.88	22
1874.87	21.5
1875.87	20
1876.87	24
1877.87	21.5
1878.87	25.5
1879.87	27.5
1880.87	24
1881.86	25.5
1882.86	23
1883.86	25
1884.86	25
1885.86	30
1886.85	26
1887.85	22
1888.85	26.5
1889.84	26.5
1890.84	26.5
1891.84	23.5
1892.83	28
1893.83	25
1894.83	23.5
1895.82	21.5
1896.82	26
1897.81	27
1898.81	22.5
1899.81	26.5
1900.8	25.5
1901.8	28
1902.79	26.5
1903.78	25.5
1904.78	23
1905.77	24
1906.77	25.5
1907.76	23.5
1908.76	24
1909.75	25
1910.74	23.5
1911.74	28
1912.73	22.5
1913.72	22
1914.72	22
1915.71	23.5
1916.7	23.5
1917.7	28
1918.69	24
1919.68	22.5
1920.67	27
1921.66	24
1922.66	21
1923.65	25
1924.64	26
1925.63	24
1926.62	23
1927.61	29
1928.6	27
1929.59	23
1930.59	25.5
1931.58	21.5
1932.57	27.5
1933.56	24
1934.55	23
1935.54	24.5
1936.53	25
1937.52	26
1938.51	25
1939.49	21.5
1940.48	25.5
1941.47	22.5
1942.46	24.5
1943.45	22
1944.44	26.5
1945.43	26
1946.42	22.5
1947.4	22.5
1948.39	22.75
1949.38	22.5
1950.37	28
1951.35	24
1952.34	24.5
1953.33	24
1954.31	20
1955.3	22
1956.29	27
1957.27	20.5
1958.26	28.5
1959.25	23.5
1960.23	25.5
1961.22	25.5
1962.21	24
1963.19	21
1964.18	22
1965.16	24
1966.15	25
1967.13	26.5
1968.12	26
1969.1	27.5
1970.09	24
1971.07	23
1972.05	23
1973.04	24
1974.02	27
1975.01	23.5
1975.99	23.5
1976.97	28
1977.96	24.5
1978.94	23.5
1979.92	21
1980.91	26
1981.89	26
1982.87	27
1983.85	22.5
1984.84	24
1985.82	24
1986.8	25
1987.78	20
1988.76	24
1989.74	24.5
1990.73	24
1991.71	25.5
1992.69	27.5
1993.67	24
1994.65	24
1995.63	27
1996.61	24
1997.59	25.5
1998.57	22.5
1999.55	28
2000.53	21
2001.51	24
2002.49	23.5
2003.47	25
2004.45	25.5
2005.43	25.5
2006.41	24.5
2007.39	27
2008.37	22.5
2009.34	26.5
2010.32	23.5
2011.3	24
2012.28	25
2013.26	25
2014.23	23
2015.21	25.5
2016.19	26
2017.17	24
2018.14	22.5
2019.12	24
2020.1	26
2021.07	23.5
2022.05	24.5
2023.03	26
2024	24.5
2024.98	22
2025.96	21
2026.93	23.5
2027.91	21
2028.88	22
2029.86	25.5
2030.83	27
2031.81	23.5
2032.78	28.5
2033.76	21
2034.73	18.5
2035.71	26.5
2036.68	22.5
2037.66	24
2038.63	23
2039.6	25
2040.58	28
2041.55	24
2042.52	25
2043.5	20
2044.47	22.5
2045.44	22
2046.42	23.5
2047.39	25.5
2048.36	23
2049.33	25
2050.31	23.5
2051.28	24
2052.25	23
2053.22	19
2054.19	16
2055.17	25
2056.14	21
2057.11	23.5
2058.08	20
2059.05	26
2060.02	24.5
2060.99	24
2061.96	24.5
2062.93	20.5
2063.9	24
2064.87	21
2065.84	24.5
2066.81	24
2067.78	25.5
2068.75	21
2069.72	24
2070.69	24.5
2071.66	19
2072.63	25
2073.6	22
2074.56	26
2075.53	27
2076.5	21.5
2077.47	23
2078.44	20
2079.4	22.5
2080.37	25
2081.34	23.5
2082.31	21.5
2083.27	21.5
2084.24	23
2085.21	24.5
2086.18	24
2087.14	21.5
2088.11	21.5
2089.07	22
2090.04	24
2091.01	22.5
2091.97	22
2092.94	20
2093.9	27.5
2094.87	21
2095.83	24
2096.8	24.5
2097.76	22
2098.73	24
2099.69	22.5
2100.66	25
2101.62	26.5
2102.59	23.5
2103.55	23
2104.52	22.5
2105.48	23
2106.44	24.5
2107.41	21
2108.37	23
2109.33	21.5
2110.3	25.5
2111.26	23
2112.22	23
2113.18	23
2114.15	23.5
2115.11	23
2116.07	22
2117.03	21
2118	23
2118.96	21
2119.92	22.5
2120.88	29
2121.84	22.5
2122.8	25
2123.76	24.5
2124.72	23
2125.68	25.5
2126.65	30.5
2127.61	24.5
2128.57	19
2129.53	24
2130.49	22
2131.45	21
2132.41	25
2133.36	24
2134.32	21.5
2135.28	24.5
2136.24	24.5
2137.2	24
2138.16	23
2139.12	25
2140.08	22.5
2141.04	22.5
2141.99	22.5
2142.95	20.0026
2143.91	22.003
2144.87	24.5502
2145.83	28.2938
2146.78	23.3072
2147.74	20.0629
2148.7	20.0501
2149.66	21.8433
2150.61	22.3773
2151.57	26.1161
2152.53	21.2377
2153.48	24.8154
2154.44	23.3571
2155.4	20.0003
2156.35	24.3856
2157.31	21.6795
2158.26	19.9005
2159.22	20.3398
2160.17	21.8427
2161.13	20.9467
2162.08	27.6633
2163.04	24.4782
2163.99	21.0557
2164.95	20.6622
2165.9	19.8298
2166.86	22.4697
2167.81	21.3577
2168.77	21.0657
2169.72	24.1699
2170.67	25.9587
2171.63	23.8049
2172.58	20.722
2173.54	23.2991
2174.49	22.1178
2175.44	23.3424
2176.39	23.2259
2177.35	19.9358
2178.3	21.1249
2179.25	21.9393
2180.2	22.1741
2181.16	22.0016
2182.11	24.0759
2183.06	21.9968
2184.01	23.6526
2184.96	22.1849
2185.92	23.1678
2186.87	21.2328
2187.82	22.6395
2188.77	22.1787
2189.72	21.5773
2190.67	22.9265
2191.62	21.5322
2192.57	24.3962
2193.52	24.9824
2194.47	21.8519
2195.42	22.2349
2196.37	21.3561
2197.32	22.4261
2198.27	21.7313
2199.22	23.4272
2200.17	22.5025
2201.12	19.9205
2202.07	23.0197
2203.02	21.9015
2203.97	20.7485
2204.92	21.4463
2205.87	23.9053
2206.81	23.8373
2207.76	21.0586
2208.71	23.6424
2209.66	22.6484
2210.61	23.0548
2211.55	21.9196
2212.5	22.746
2213.45	20.1299
2214.4	24.0344
2215.34	23.9987
2216.29	22.7596
2217.24	23.6135
2218.18	21.7938
2219.13	21.6723
2220.08	21.4073
2221.02	22.1089
2221.97	23.1241
2222.92	22.8204
2223.86	23.1932
2224.81	19.9505
2225.75	22.095
2226.7	24.9977
2227.64	24.527
2228.59	22.0476
2229.53	22.8706
2230.48	24.4345
2231.42	21.5239
2232.37	21.7438
2233.31	23.3475
2234.26	23.8549
2235.2	23.5271
2236.14	21.3706
2237.09	20.6614
2238.03	22.6732
2238.97	23.8389
2239.92	24.8368
2240.05	25
2241	21
2241.95	23.5
2242.89	20
2243.84	24.5
2244.79	21
2245.74	19.5
2246.68	21
2247.63	23.5
2248.58	24.5
2249.53	24
2250.47	21.5
2251.42	20
2252.36	24
2253.31	19.5
2254.26	23.5
2255.2	20
2256.15	25.5
2257.1	22
2258.04	24
2258.99	25
2259.93	19.5
2260.88	25
2261.82	23
2262.77	26
2263.71	19
2264.66	23.5
2265.6	22.5
2266.55	24.5
2267.49	26
2268.43	25.5
2269.38	25
2270.32	22
2271.26	23.5
2272.21	23
2273.15	24.5
2274.09	23.5
2275.04	20.5
2275.98	20.5
2276.92	21.5
2277.87	25.5
2278.81	25
2279.75	20
2280.69	23
2281.64	22
2282.58	20.5
2283.52	21.5
2284.46	21
2285.4	20.5
2286.34	20
2287.29	24
2288.23	22
2289.17	20
2290.11	27
2291.05	25
2291.99	24.5
2292.93	22
2293.87	21
2294.81	23.5
2295.75	19
2296.69	22.5
2297.63	23.5
2298.57	26
2299.51	23.5
2300.45	23
2301.39	21.5
2302.33	27.5
2303.27	24
2304.2	23.5
2305.14	24
2306.08	21.5
2307.02	24.5
2307.96	26
2308.9	19.5
2309.83	21
2310.77	24
2311.71	27
2312.65	23
2313.58	24.5
2314.52	22.5
2315.46	21.5
2316.39	22.5
2317.33	22.5
2318.27	23
2319.21	21
2320.14	25.5
2321.08	22
2322.01	20.5
2322.95	26.5
2323.89	23.5
2324.82	22
2325.76	23
2326.69	22
2327.63	23.5
2328.56	22
2329.5	23.5
2330.43	22
2331.37	22.5
2332.3	26
2333.24	24
2334.17	30
2335.1	25.5
2336.04	22
2336.97	22.5
2337.91	24
2338.84	23
2339.77	21.5
2340.71	23
2341.64	25.5
2342.57	21.5
2343.51	24
2344.44	24.5
2345.37	20.5
2346.3	21
2347.24	25
2348.17	23
2349.1	25
2350.03	25.5
2350.96	23.5
2351.89	18
2352.83	25
2353.76	23.5
2354.69	22.5
2355.62	24
2356.55	21
2357.48	24.5
2358.41	25.5
2359.34	22
2360.27	25
2361.2	30
2362.13	23
2363.06	23.5
2363.99	25
2364.92	22
2365.85	24.5
2366.78	26.5
2367.71	23
2368.64	22
2369.57	24
2370.5	23.5
2371.43	23
2372.36	23
2373.28	23
2374.21	23
2375.14	23
2376.07	20
2377	22
2377.93	25
2378.85	22
2379.78	23
2380.71	25.5
2381.63	23.5
2382.56	24.5
2383.49	22
2384.42	21.5
2385.34	20.5
2386.27	20
2387.2	25.5
2388.12	21
2389.05	23.5
2389.97	25
2390.9	24
2391.82	23
2392.75	25
2393.68	23.5
2394.6	20.5
2395.53	22
2396.45	22
2397.38	23.5
2398.3	20
2399.23	21.5
2400.15	27.5
2401.07	23
2402	24
2402.92	20
2403.85	24
2404.77	24.5
2405.69	23.5
2406.62	22.5
2407.54	23
2408.46	23.5
2409.39	21
2410.31	23
2411.23	24
2412.16	22.5
2413.08	24
2414	21.5
2414.92	25
2415.85	23
2416.77	24
2417.69	24.5
2418.61	25
2419.53	21.5
2420.45	25
2421.38	22.5
2422.3	21
2423.22	27.5
2424.14	27.5
2425.06	21.5
2425.98	23
2426.9	28
2427.82	26.5
2428.74	23.5
2429.66	23
2430.58	23.5
2431.5	24.5
2432.42	25
2433.34	22.5
2434.26	25
2435.18	24
2436.1	22.5
2437.02	27
2437.94	28
2438.85	23.5
2439.77	21
2440.69	26.5
2441.61	27
2442.53	23.5
2443.45	22.5
2444.36	23.5
2445.28	24.5
2446.2	22.5
2447.12	22.5
2448.03	21.5
2448.95	25
2449.87	22
2450.79	25.5
2451.7	21.5
2452.62	23
2453.54	24
2454.45	20
2455.37	22
2456.28	26
2457.2	22
2458.12	25
2459.03	23.5
2459.95	20
2460.86	24
2461.78	22
2462.69	26
2463.61	24.5
2464.52	23.5
2465.44	22
2466.35	23.5
2467.27	25.5
2468.18	26
2469.1	24.5
2470.01	21
2470.93	19.5
2471.84	24.5
2472.75	25.5
2473.67	25
2474.58	22.5
2475.49	19.5
2476.41	26.5
2477.32	20
2478.23	22.5
2479.15	27.5
2480.06	24
2480.97	27.5
2481.88	21.5
2482.79	22
2483.71	25
2484.62	23
2485.53	22.5
2486.44	23.5
2487.35	19
2488.26	22
2489.18	25.5
2490.09	19.5
2491	24
2491.91	24
2492.82	21
2493.73	27
2494.64	24
2495.55	24
2496.46	23.5
2497.37	24.5
2498.28	20
2499.19	26
2500.1	22.5
2501.01	26
2501.92	21
2502.83	23.5
2503.74	25.5
2504.65	22.5
2505.56	24
2506.47	25
2507.37	23
2508.28	25
2509.19	25.5
2510.1	24
2511.01	21
2511.92	22
2512.82	22.5
2513.73	24.5
2514.64	26
2515.55	19
2516.45	23
2517.36	22
2518.27	22.5
2519.17	23.5
2520.08	25.5
2520.99	25
2521.89	21
2522.8	22
2523.71	23.5
2524.61	21.5
2525.52	21
2526.42	23.5
2527.33	27
2528.24	24
2529.14	23.5
2530.05	28
2530.95	24.5
2531.86	24
2532.76	22
2533.67	23
2534.57	29.5
2535.48	22
2536.38	26.5
2537.28	25.5
2538.19	26.5
2539.09	25
2540	25
2540.9	24
2541.8	25
2542.71	25.5
2543.61	23.5
2544.51	24
2545.42	22.5
2546.32	22.5
2547.22	27
2548.12	25
2549.03	24.5
2549.93	22
2550.83	24
2551.73	24.5
2552.63	25
2553.54	25
2554.44	29
2555.34	26.5
2556.24	22.5
2557.14	25
2558.04	22.5
2558.94	20.5
2559.85	22.5
2560.75	25
2561.65	25
2562.55	24
2563.45	23.5
2564.35	23
2565.25	23
2566.15	25
2567.05	23.5
2567.95	22.5
2568.85	23
2569.75	22
2570.65	25.5
2571.55	26
2572.44	21
2573.34	24.5
2574.24	24.5
2575.14	24
2576.04	22
2576.94	23.5
2577.84	23
2578.73	22
2579.63	21
2580.53	23
2581.43	26
2582.33	28.5
2583.22	22
2584.12	23.5
2585.02	18
2585.91	28
2586.81	26
2587.71	26
2588.6	19.5
2589.5	25.5
2590.4	28
2591.29	24.5
2592.19	23.5
2593.09	23
2593.98	22.5
2594.88	24.5
2595.77	24
2596.67	22.5
2597.56	21.5
2598.46	25.5
2599.35	27.5
2600.25	24
2601.14	26.5
2602.04	26
2602.93	25
2603.83	21.5
2604.72	25
2605.62	24.5
2606.51	26.5
2607.4	29.5
2608.3	25.5
2609.19	26.5
2610.09	20
2610.98	21.5
2611.87	25.5
2612.76	24
2613.66	27
2614.55	26.5
2615.44	22.5
2616.34	21.5
2617.23	26
2618.12	25
2619.01	24
2619.9	26
2620.8	20
2621.69	24.5
2622.58	20
2623.47	28.5
2624.36	25
2625.25	21
2626.15	26
2627.04	24
2627.93	24
2628.82	23
2629.71	27
2630.6	23
2631.49	27
2632.38	23.5
2633.27	23.5
2634.16	26
2635.05	23.5
2635.94	27.5
2636.83	29
2637.72	25
2638.61	25.5
2639.5	24
2640.39	26
2641.28	22.5
2642.16	24
2643.05	23.5
2643.94	21.5
2644.83	23.5
2645.72	27.5
2646.61	23
2647.49	23
2648.38	24.5
2649.27	21.5
2650.16	25
2651.05	25
2651.93	25.5
2652.82	24.5
2653.71	25
2654.59	21
2655.48	26.5
2656.37	22
2657.25	29
2658.14	22.5
2659.03	24.5
2659.91	26
2660.8	23.5
2661.69	27
2662.57	24.5
2663.46	22
2664.34	25.5
2665.23	24
2666.11	21
2667	24
2667.88	25.5
2668.77	21.5
2669.65	24.5
2670.54	24
2671.42	24
2672.31	25.5
2673.19	25
2674.08	24
2674.96	25.5
2675.84	22
2676.73	17
2677.61	23
2678.49	25.5
2679.38	21.5
2680.26	26
2681.14	27
2682.03	21
2682.91	26.5
2683.79	25
2684.68	24.5
2685.56	25.5
2686.44	21.5
2687.32	23
2688.2	25.5
2689.09	24
2689.97	26
2690.85	24
2691.73	23
2692.61	23
2693.49	30.5
2694.38	20
2695.26	22.5
2696.14	25
2697.02	21.5
2697.9	25
2698.78	22
2699.66	24.5
2700.54	24.5
2701.42	24.5
2702.3	23.5
2703.18	24.5
2704.06	25.5
2704.94	27
2705.82	23.5
2706.7	26.5
2707.58	22
2708.46	22.5
2709.34	22
2710.21	27
2711.09	22.5
2711.97	24
2712.85	22
2713.73	21.5
2714.61	20
2715.49	28.5
2716.36	24
2717.24	25
2718.12	23
2719	27
2719.87	21.5
2720.75	25
2721.63	27
2722.51	25
2723.38	28
2724.26	26
2725.14	23.5
2726.01	22.5
2726.89	23
2727.77	25.5
2728.64	25
2729.52	25
2730.39	26
2731.27	19
2732.15	24
2733.02	26.5
2733.9	26.5
2734.77	22.5
2735.65	24
2736.52	24.5
2737.4	26
2738.27	27
2739.15	24
2740.02	24.5
2740.89	24
2741.77	23
2742.64	25
2743.52	24
2744.39	25
2745.27	22.5
2746.14	25.5
2747.01	23
2747.89	27.5
2748.76	23
2749.63	23
2750.51	28.5
2751.38	24
2752.25	24.5
2753.12	22.5
2754	21
2754.87	26.5
2755.74	23.5
2756.61	22
2757.48	21.5
2758.36	25
2759.23	22.5
2760.1	21.5
2760.97	21
2761.84	24.5
2762.71	21.5
2763.59	25.5
2764.46	29
2765.33	25
2766.2	27
2767.07	26.5
2767.94	29.5
2768.81	26
2769.68	22
2770.55	22
2771.42	26
2772.29	22
2773.16	23
2774.03	22
2774.9	23
2775.77	26.5
2776.64	23.5
2777.51	22.5
2778.37	24.5
2779.24	21.5
2780.11	22
2780.98	23.5
2781.85	21
2782.72	21.5
2783.59	26.5
2784.45	23
2785.32	24.5
2786.19	22
2787.06	26
2787.92	21
2788.79	24
2789.66	24
2790.53	25
2791.39	26.5
2792.26	24.5
2793.13	23.5
2793.99	23.5
2794.86	26
2795.73	24
2796.59	25
2797.46	21.5
2798.33	21
2799.19	21.5
2800.06	24
2800.92	23.75
2801.79	21.5
2802.65	22.5
2803.52	23
2804.39	27.5
2805.25	26
2806.11	26.5
2806.98	22.5
2807.84	27.5
2808.71	23.5
2809.57	24
2810.44	30
2811.3	23.5
2812.17	26.5
2813.03	27.5
2813.89	22
2814.76	23
2815.62	25
2816.49	24
2817.35	23
2818.21	21.5
2819.07	25.5
2819.94	22
2820.8	21.5
2821.66	20
2822.53	28
2823.39	24.5
2824.25	23.5
2825.11	22
2825.97	26.5
2826.84	23
2827.7	26
2828.56	24
2829.42	26
2830.28	23.5
2831.14	24.5
2832.01	23.5
2832.87	26
2833.73	26.5
2834.59	23
2835.45	20.5
2836.31	25.5
2837.17	25.5
2838.03	25.5
2838.89	23.5
2839.75	24.5
2840.61	24
2841.47	23.5
2842.33	24
2843.19	25
2844.05	23
2844.91	22.5
2845.77	26
2846.63	25
2847.48	22.5
2848.34	21.5
2849.2	26.5
2850.06	24
2850.92	23.5
2851.78	22
2852.64	21
2853.49	21.5
2854.35	25
2855.21	24.5
2856.07	21.5
2856.93	22.5
2857.78	26
2858.64	25
2859.5	21
2860.35	20.5
2861.21	26.5
2862.07	22
2862.93	24.5
2863.78	22.5
2864.64	21.5
2865.49	26.5
2866.35	26
2867.21	26
2868.06	24.5
2868.92	23
2869.77	27
2870.63	21.5
2871.49	25.5
2872.34	22.5
2873.2	26.5
2874.05	22
2874.91	24
2875.76	24
2876.62	27.5
2877.47	26.5
2878.32	27.5
2879.18	23.5
2880.03	22
2880.89	27.5
2881.74	21
2882.6	26
2883.45	26
2884.3	24.5
2885.16	26.5
2886.01	26
2886.86	25
2887.72	27
2888.57	24.5
2889.42	25
2890.27	23.5
2891.13	25.5
2891.98	24
2892.83	27.5
2893.68	26.5
2894.54	24
2895.39	26
2896.24	25.5
2897.09	30.5
2897.94	28.5
2898.8	28.5
2899.65	25
2900.5	29
2901.35	31.5
2902.2	30
2903.05	27
2903.9	34.5
2904.75	33
2905.6	33
2906.45	37.5
2907.3	29.5
2908.15	32.5
2909.01	34.5
2909.85	29.5
2910.7	27.5
2911.55	29.5
2912.4	26.5
2913.25	31.5
2914.1	31
2914.95	28
2915.8	26.5
2916.65	29.5
2917.5	28
2918.35	24
2919.2	28.5
2920.04	20
2920.89	26
2921.74	27.5
2922.59	25
2923.44	22
2924.29	22
2925.13	23
2925.98	22
2926.83	23.5
2927.68	20
2928.52	22
2929.37	24.5
2930.22	26
2931.06	24
2931.91	21.5
2932.76	23.5
2933.6	24
2934.45	24.5
2935.3	23.5
2936.14	19.5
2936.99	21
2937.83	21
2938.68	27
2939.53	22
2940.37	22
2941.22	26
2942.06	24
2942.91	25
2943.75	25
2944.6	22
2945.44	21.5
2946.29	21
2947.13	23
2947.98	25
2948.82	26
2949.66	22.5
2950.51	23
2951.35	24
2952.2	25
2953.04	25
2953.88	27.5
2954.73	24.5
2955.57	25
2956.41	25.5
2957.26	29
2958.1	21.5
2958.94	23
2959.79	23.5
2960.63	25
2961.47	28
2962.31	25
2963.15	25
2964	29
2964.84	29
2965.68	25
2966.52	22.5
2967.37	26
2968.21	26
2969.05	27.5
2969.89	25.5
2970.73	25.5
2971.57	24.9903
2972.41	26.4095
2973.25	26.4623
2974.09	25.1233
2974.93	25.4394
2975.77	23.9969
2976.62	21.63
2977.46	25.818
2978.3	22.5825
2979.14	22.9267
2979.98	25.5047
2980.81	24.0453
2981.65	22.2383
2982.49	22.9826
2983.33	25.5891
2984.17	23.1877
2985.01	22.3344
2985.85	21.7157
2986.69	20.0828
2987.53	25.73
2988.37	24.6824
2989.21	21.4577
2990.04	21.1266
2990.88	21.7598
2991.72	25.6145
2992.56	24.9822
2993.4	19.1753
2994.23	22.2822
2995.07	22.1383
2995.91	26.5332
2996.75	21.8511
2997.58	22.2742
2998.42	20.8512
2999.26	23.1752
3000.1	22.3505
3000.93	21.9551
3001.77	21.2837
3002.61	21.9219
3003.44	24.7153
3004.28	21.0921
3005.11	22.1253
3005.95	23.1172
3006.79	22.7997
3007.62	24.4436
3008.46	23.1231
3009.29	24.5332
3010.13	21.9783
3010.97	24.5705
3011.8	21.554
3012.64	23.9883
3013.47	22.5938
3014.31	23.1385
3015.14	23.2897
3015.98	19.1253
3016.81	22.8132
3017.64	23.1527
3018.48	22.617
3019.31	22.0143
3020.15	21.8845
3020.98	22.3609
3021.82	20.807
3022.65	20.8324
3023.48	21.0112
3024.32	21.7383
3025.15	22.9002
3025.98	20.5667
3026.82	20.3973
3027.65	21.8447
3028.48	22.5493
3029.31	22.3089
3030.15	21.2884
3030.98	23.4107
3031.81	22.6101
3032.64	20.6284
3033.48	22.1761
3034.31	23.487
3035.14	23.6048
3035.97	21.8723
3036.8	19.9552
3037.64	21.958
3038.47	23.8716
3039.3	20.7585
3040.13	21.9724
3040.96	23.7439
3041.79	21.7244
3042.62	23.3024
3043.45	24.977
3044.28	24.3416
3045.12	22.8331
3045.95	21.7954
3046.78	22.6151
3047.61	22.5288
3048.44	23.0456
3049.27	21.9516
3050.1	20.942
3050.92	20.8874
3051.75	22.433
3052.58	21.6569
3053.41	20.5493
3054.24	21.4514
3055.07	21.9086
3055.9	22.5282
3056.73	20.7194
3057.26	22
3058.09	22.5
3058.93	23
3059.76	24.5
3060.59	20.5
3061.43	19.5
3062.26	23
3063.09	20.5
3063.92	18
3064.76	24
3065.59	24.5
3066.42	25.5
3067.25	20.5
3068.08	17
3068.92	18.5
3069.75	24
3070.58	20
3071.41	19.5
3072.24	25.5
3073.07	23
3073.9	21.5
3074.73	22.5
3075.57	26
3076.4	21.5
3077.23	19.5
3078.06	22
3078.89	23
3079.72	23.5
3080.55	25
3081.38	21
3082.21	28.5
3083.04	24
3083.87	23
3084.7	24
3085.53	23.5
3086.36	18.5
3087.19	23
3088.01	20.5
3088.84	20.5
3089.67	19.5
3090.5	17.5
3091.33	23.5
3092.16	23.5
3092.99	23
3093.81	18
3094.64	26.5
3095.47	21
3096.3	23.5
3097.13	21.5
3097.95	21
3098.78	23.5
3099.61	22
3100.44	22
3101.26	19.5
3102.09	22.5
3102.92	20.5
3103.74	19.5
3104.57	22
3105.4	23
3106.22	23
3107.05	23.5
3107.88	23.5
3108.7	16.5
3109.53	19.5
3110.35	23
3111.18	22
3112.01	21.5
3112.83	24
3113.66	23.5
3114.48	23
3115.31	23
3116.13	20
3116.96	23.5
3117.78	20.5
3118.61	19
3119.43	23
3120.26	20
3121.08	24
3121.9	21
3122.73	23.5
3123.55	20
3124.38	23.5
3125.2	25.5
3126.02	21.5
3126.85	23.5
3127.67	21.5
3128.49	22
3129.32	24.5
3130.14	26.5
3130.96	22.5
3131.79	22
3132.61	23
3133.43	22.5
3134.25	21
3135.08	23.5
3135.9	23.5
3136.72	18.5
3137.54	23
3138.37	24
3139.19	20.5
3140.01	25.5
3140.83	22.5
3141.65	23
3142.47	23.5
3143.29	26.5
3144.12	23
3144.94	22
3145.76	23.5
3146.58	23.5
3147.4	25
3148.22	27.5
3149.04	23.5
3149.86	24.5
3150.68	22.5
3151.5	24.5
3152.32	23
3153.14	23.5
3153.96	20
3154.78	23
3155.6	23.5
3156.42	22
3157.24	24
3158.06	24.5
3158.88	29
3159.7	23.5
3160.51	21.5
3161.33	21
3162.15	21
3162.97	23
3163.79	22.5
3164.61	24.5
3165.42	22.5
3166.24	27.5
3167.06	24
3167.88	19
3168.7	21
3169.51	25.5
3170.33	24
3171.15	23.5
3171.97	22
3172.78	25
3173.6	22
3174.42	24.5
3175.23	25
3176.05	25
3176.87	23
3177.68	20
3178.5	22
3179.32	26
3180.13	23.5
3180.95	23
3181.76	25.5
3182.58	22.5
3183.4	24.5
3184.21	24.5
3185.03	23.5
3185.84	23
3186.66	25
3187.47	21
3188.29	21.5
3189.1	25
3189.92	23
3190.73	24.5
3191.55	22
3192.36	24.5
3193.17	22
3193.99	24
3194.8	23.5
3195.62	24.5
3196.43	22.5
3197.24	22
3198.06	24
3198.87	23
3199.68	22
3200.5	22
3201.31	25.5
3202.12	24
3202.94	27.5
3203.75	24
3204.56	23
3205.38	27
3206.19	22
3207	22
3207.81	24
3208.62	27
3209.44	21
3210.25	22
3211.06	22.5
3211.87	24.5
3212.68	23
3213.49	25
3214.31	21.5
3215.12	26
3215.93	25
3216.74	24
3217.55	21.5
3218.36	18.5
3219.17	19.5
3219.98	24
3220.79	24.5
3221.6	23
3222.41	21
3223.22	21.5
3224.03	23
3224.84	23
3225.65	20
3226.46	23
3227.27	25
3228.08	21.5
3228.89	26.5
3229.7	26
3230.51	23
3231.32	25.5
3232.13	24
3232.94	22
3233.74	28
3234.55	26
3235.36	22
3236.17	22
3236.98	21
3237.78	27.5
3238.59	25.5
3239.4	24.5
3240.21	23
3241.02	25.5
3241.82	23
3242.63	22
3243.44	25
3244.25	22.5
3245.05	24.5
3245.86	20
3246.67	24.5
3247.47	22
3248.28	23
3249.09	24.5
3249.89	22.5
3250.7	23.5
3251.5	27
3252.31	26
3253.12	24
3253.92	19.5
3254.73	25.5
3255.53	20
3256.34	22.5
3257.14	25.5
3257.95	27.5
3258.75	25
3259.56	25
3260.36	22
3261.17	24
3261.97	25.5
3262.78	23.5
3263.58	25.5
3264.39	24
3265.19	23.5
3265.99	22
3266.8	22.5
3267.6	22
3268.41	22
3269.21	24.5
3270.01	22
3270.82	24
3271.62	23
3272.42	22
3273.23	21.5
3274.03	23
3274.83	25
3275.64	21
3276.44	26
3277.24	25.5
3278.04	24
3278.85	21
3279.65	25
3280.45	23
3281.25	23
3282.05	26.5
3282.85	22
3283.66	21.5
3284.46	26
3285.26	23.5
3286.06	27
3286.86	24
3287.66	27
3288.46	23
3289.27	20
3290.07	24
3290.87	29
3291.67	21
3292.47	19
3293.27	20.5
3294.07	25.5
3294.87	24.5
3295.67	25
3296.47	22
3297.27	26.5
3298.07	24
3298.87	24.5
3299.67	23
3300.47	25.5
3301.26	28
3302.06	21.5
3302.86	27
3303.66	24.5
3304.46	24
3305.26	21
3306.06	22
3306.86	24.5
3307.65	23.5
3308.45	24.5
3309.25	24.5
3310.05	24.5
3310.85	23.5
3311.64	24
3312.44	26.5
3313.24	23
3314.04	22
3314.83	26
3315.63	22.5
3316.43	21
3317.22	23
3318.02	25
3318.82	21
3319.62	25
3320.41	26
3321.21	25.5
3322	24.5
3322.8	25
3323.6	23.5
3324.39	24
3325.19	26
3325.98	26.5
3326.78	25.5
3327.58	25.5
3328.37	22
3329.17	24.5
3329.96	21
3330.76	24
3331.55	23.5
3332.35	22.5
3333.14	27.5
3333.94	23.5
3334.73	22.5
3335.52	21
3336.32	27
3337.11	28.5
3337.91	22.5
3338.7	21.5
3339.5	21
3340.29	23.5
3341.08	26.5
3341.88	25
3342.67	24.5
3343.46	23.5
3344.26	23
3345.05	20
3345.84	26.5
3346.63	23
3347.43	23.5
3348.22	22
3349.01	24
3349.8	23
3350.6	23
3351.39	26.5
3352.18	22
3352.97	26
3353.77	24
3354.56	26
3355.35	27
3356.14	24
3356.93	24.5
3357.72	23.5
3358.51	25.5
3359.31	24.5
3360.1	22
3360.89	23.5
3361.68	21.5
3362.47	23.5
3363.26	23
3364.05	24.5
3364.84	25
3365.63	25.5
3366.42	25
3367.21	27
3368	23.5
3368.79	21
3369.58	18
3370.37	25.5
3371.16	23
3371.95	23.5
3372.74	22.5
3373.53	25
3374.32	25.5
3375.1	24
3375.89	23.5
3376.68	24.5
3377.47	26.5
3378.26	23
3379.05	25
3379.84	25
3380.62	26
3381.41	22
3382.2	26
3382.99	24
3383.78	28.5
3384.56	23
3385.35	24
3386.14	27.5
3386.93	22
3387.71	24
3388.5	24.5
3389.29	23
3390.07	24
3390.86	24
3391.65	26.5
3392.43	21.5
3393.22	19
3394.01	23
3394.79	27
3395.58	23.5
3396.36	22.5
3397.15	25.5
3397.94	22
3398.72	26
3399.51	22
3400.29	24.5
3401.08	19
3401.86	28
3402.65	23
3403.43	25.5
3404.22	25
3405	24
3405.79	23.5
3406.57	23
3407.36	22.5
3408.14	24
3408.93	28
3409.71	20
3410.49	24.5
3411.28	22
3412.06	23
3412.84	25.5
3413.63	25
3414.41	24.5
3415.2	21.5
3415.98	26
3416.76	24.5
3417.54	22
3418.33	24
3419.11	26
3419.89	20.5
3420.68	22
3421.46	26.5
3422.24	22
3423.02	23.5
3423.81	21.5
3424.59	23.5
3425.37	23
3426.15	22.5
3426.93	17
3427.71	23
3428.5	25
3429.28	24.5
3430.06	22
3430.84	23.5
3431.62	25.5
3432.4	21.5
3433.18	20.5
3433.96	24
3434.75	24
3435.53	22
3436.31	23.5
3437.09	26
3437.87	23.5
3438.65	22.5
3439.43	20.5
3440.21	23.5
3440.99	20
3441.77	24.5
3442.55	24
3443.33	26
3444.1	25
3444.88	26
3445.66	27.5
3446.44	25.5
3447.22	24.5
3448	25
3448.78	24
3449.56	23
3450.34	27.5
3451.11	27
3451.89	21
3452.67	25
3453.45	22.5
3454.23	19
3455	23
3455.78	24
3456.56	25
3457.34	25.5
3458.11	24.5
3458.89	21.5
3459.67	26
3460.45	23
3461.22	23
3462	25.5
3462.78	22.5
3463.55	23.5
3464.33	25
3465.11	23
3465.88	22
3466.66	28
3467.44	25
3468.21	25
3468.99	19.5
3469.76	23.5
3470.54	27
3471.32	24.5
3472.09	28.5
3472.87	23
3473.64	25
3474.42	24
3475.19	24
3475.97	22
3476.74	25.5
3477.52	23.5
3478.29	22
3479.07	26.5
3479.84	27.5
3480.61	21
3481.39	22.5
3482.16	23.5
3482.94	22.5
3483.71	23.5
3484.48	26.5
3485.26	26.5
3486.03	22.5
3486.81	24.5
3487.58	24
3488.35	21
3489.13	23
3489.9	21.5
3490.67	23
3491.44	25.5
3492.22	25
3492.99	20
3493.76	22.5
3494.54	20
3495.31	27.5
3496.08	24.5
3496.85	27
3497.62	23
3498.4	24
3499.17	26.5
3499.94	21.5
