#Acq. time (s)=	5
#Accumulations=	5
#Range (cm-¹)=	100...3500
#Windows=	4
#Autofocus=	Off
#AutoExposure=	Off
#Spike filter=	Multiple accum.
#Delay time (s)=	0
#Binning=	1
#Readout mode=	Signal
#DeNoise=	Off
#ICS correction=	Off
#Dark correction=	Off
#Inst. Process=	Off
#Instrument=	LabRAM HR Evol
#Detector=	Syncerity OE
#Objective=	x100_VIS
#Grating=	600 (500nm)
#ND Filter=	25%
#Laser=	633nm_Edge
#Hole=	100.021
#Range=	Visible
#Project=	verificaciones
#Sample=	at3
#Site=	plain
#Title=	bolusat3plain
#Remark=	com
#Date=	16.01.2026 16:51
#Acquired=	16.01.2026 16:51:30
100.564	28
101.847	35.5
103.131	35
104.414	31.5
105.697	33
106.979	28.5
108.262	28
109.544	31
110.826	33.5
112.109	30
113.391	28.5
114.672	26
115.954	32
117.235	33
118.515	30
119.796	29
121.076	31
122.357	29
123.637	30
124.916	34.5
126.196	30.5
127.475	33
128.754	33.5
130.033	31.5
131.31	32
132.589	37
133.867	34
135.145	32.5
136.423	34
137.701	32.5
138.978	33
140.256	37
141.533	35
142.809	36.5
144.086	41
145.361	36
146.637	39
147.913	42.5
149.189	37
150.464	38
151.74	44
153.014	41.5
154.288	36
155.563	43.5
156.838	45
158.112	46.5
159.385	43.5
160.659	37
161.932	40
163.206	41
164.479	38
165.751	38
167.024	38.5
168.296	45
169.567	40
170.84	42
172.112	37.5
173.383	38
174.654	38.5
175.925	40
177.196	40.5
178.466	37.5
179.737	41
181.007	36.5
182.276	42
183.546	46
184.816	43.5
186.085	46
187.354	44
188.624	43.5
189.891	39.5
191.16	40
192.427	39
193.696	37
194.964	44.5
196.231	41
197.499	38
198.765	44.5
200.033	39.5
201.298	40
202.566	40
203.831	40
205.098	40.5
206.363	35
207.629	36.5
208.894	36.5
210.159	34
211.424	33
212.689	39
213.953	35
215.218	33
216.481	33.5
217.746	33.5
219.009	34.5
220.273	34.5
221.536	32.5
222.798	32.5
224.062	34
225.323	39.5
226.587	30.5
227.848	33
229.109	33.5
230.372	29
231.633	32
232.894	28
234.156	32.5
235.416	30.5
236.678	30
237.937	32
239.197	29.5
240.457	34.5
241.717	28.5
242.976	26
244.235	28
245.495	29
246.754	29.5
248.012	33.5
249.27	30.5
250.529	30
251.787	27
253.045	30
254.302	30
255.56	29.5
256.817	30
258.074	28.5
259.33	29
260.586	33
261.844	30
263.1	32
264.355	33.5
265.611	29
266.866	32
268.121	29.5
269.377	30
270.632	30
271.886	24.5
273.14	30.5
274.394	28
275.648	31
276.902	27.5
278.155	26.5
279.408	24
280.663	30.5
281.915	29
283.168	27.5
284.42	28
285.673	27.5
286.925	30.5
288.176	31
289.428	28.5
290.679	29
291.93	27
293.181	27.5
294.432	29
295.683	30.5
296.933	30.5
298.183	30.5
299.433	28.5
300.683	27.5
301.932	28
303.182	29
304.429	28
305.678	26
306.927	27
308.176	34.5
309.424	26.5
310.672	32
311.92	30
313.168	34
314.415	32.5
315.661	25
316.908	28.5
318.155	29
319.402	27
320.648	32.5
321.895	28
323.139	28
324.385	31
325.631	26
326.877	27
328.122	29
329.366	28
330.611	26
331.855	30.5
333.1	26.5
334.343	30.5
335.587	30
336.831	31
338.074	26.5
339.317	28
340.56	29
341.803	29.5
343.044	27
344.287	28
345.53	27
346.771	25
348.013	28
349.255	28
350.495	27
351.736	27
352.978	23
354.217	31
355.458	29.5
356.699	26.5
357.938	26
359.178	30.5
360.417	26
361.657	28.5
362.895	27
364.135	28.5
365.374	30
366.612	30.5
367.851	22.5
369.088	27
370.327	26.5
371.564	27
372.802	30.5
374.038	32
375.276	27.5
376.512	30.5
377.749	29.5
378.985	29
380.222	27.5
381.457	27.5
382.692	27
383.929	28
385.164	28.5
386.4	25.5
387.634	30.5
388.869	27.5
390.103	28.5
391.337	32
392.572	24.5
393.805	29
395.038	24
396.273	27
397.506	25.5
398.74	30.5
399.972	26
401.204	27
402.437	25
403.669	27
404.901	23.5
406.132	30.5
407.365	27.5
408.596	26.5
409.826	28.5
411.058	27.5
412.289	30
413.519	26
414.749	28
415.98	29
417.21	30
418.439	27
419.668	26
420.897	31
422.128	29.5
423.356	25
424.585	24.5
425.813	25.5
427.041	30
428.269	27
429.498	25
430.725	23
431.952	25.5
433.179	24
434.406	28.5
435.633	28
436.859	28
438.085	25.5
439.312	30.5
440.537	25
441.764	24.5
442.99	28
444.215	26.5
445.44	26
446.665	27
447.89	28.5
449.114	30.5
450.339	27.5
451.563	31
452.787	32.5
454.01	28.5
455.234	30
456.457	29
457.68	33
458.903	27
460.126	28.5
461.348	35
462.569	30.5
463.792	31.5
465.013	33
466.235	32
467.457	33.5
468.678	29
469.899	36
471.12	34
472.341	32
473.56	37
474.781	36.5
476.001	37.5
477.221	42.5
478.441	41.5
479.66	47
480.878	47.5
482.098	48.5
483.317	53
484.535	58
485.754	59.5
486.971	64
488.189	59
489.407	62
490.625	64.5
491.842	54.5
493.059	61
494.276	62
495.493	57
496.709	49
497.926	45
499.142	46
500.357	49
501.573	43
502.789	35
504.003	37.5
505.219	36.5
506.434	40.5
507.648	35.5
508.863	35
510.078	36
511.291	36
512.505	31.5
513.718	34
514.932	34
516.145	33.5
517.358	31
518.572	31.5
519.783	29
520.997	30
522.208	32
523.421	29
524.632	35
525.844	30
527.055	27.5
528.266	31
529.477	27.5
530.688	27
531.898	28.5
533.109	32
534.319	29
535.53	31
536.739	29.5
537.948	28
539.158	31
540.366	26
541.576	27
542.784	30
543.994	28.5
545.201	29
546.409	29
547.618	28.5
548.825	27.5
550.032	29
551.24	30
552.447	28
553.654	29.5
554.861	27
556.067	28
557.273	29
558.48	30.5
559.686	29.5
560.891	25
562.096	28.5
563.302	27
564.507	30
565.712	31.5
566.916	28
568.122	29
569.326	29
570.529	26.5
571.733	27.5
572.936	26.5
574.141	26
575.344	26
576.547	27.5
577.75	26
578.952	27
580.154	28.5
581.358	27
582.56	26.5
583.761	28
584.963	29
586.164	28.5
587.365	27.5
588.566	27.5
589.767	29
590.967	34.5
592.168	27.5
593.369	27
594.569	29
595.769	24
596.969	29
598.168	26
599.367	27.5
600.566	29.5
601.765	30
602.964	28.5
604.162	30.5
605.361	20.5
606.559	23
607.757	28
608.953	28
610.151	29.5
611.348	26
612.545	28
613.742	28
614.939	26.5
616.135	30
617.332	30.5
618.528	25.5
619.724	23
620.918	27.5
622.114	25.5
623.309	29
624.505	26.5
625.7	30
626.895	28.5
628.088	23
629.282	28.5
630.477	26.5
631.671	26
632.865	21.5
634.057	27
635.251	24
636.444	23.5
637.637	31.5
638.829	28.5
640.022	29
641.214	29
642.407	29.5
643.598	30.5
644.79	27.5
645.982	30.5
647.172	26
648.364	30
649.555	29
650.745	27
651.936	27.5
653.126	29
654.315	32
655.506	25.5
656.696	28.5
657.885	27.5
659.074	23
660.263	30.5
661.452	27
662.64	26
663.829	30.5
665.018	31
666.205	31.5
667.394	29
668.581	28
669.769	32
670.955	28.5
672.143	33
673.329	30.5
674.517	31
675.703	32
676.89	29.5
678.075	29.5
679.262	31.5
680.447	34
681.632	36.5
682.818	32.5
684.002	29.5
685.188	34.5
686.372	35
687.556	34.5
688.741	36.5
689.925	40.5
691.11	31.5
692.293	32.5
693.476	34.5
694.66	36.5
695.843	37.5
697.025	35.5
698.209	37
699.391	33.5
700.573	39
701.756	31
702.938	45.5
704.119	41.5
705.3	46
706.483	48
707.664	45
708.844	55.5
710.025	52.5
711.206	54
712.386	46
713.566	44
714.746	40
715.925	36
717.106	34.5
718.285	32.5
719.464	35
720.643	30.5
721.822	31.5
723	30.5
724.178	27.5
725.358	30.5
726.536	28.5
727.713	27
728.891	28.5
730.068	28
731.245	31
732.422	33.5
733.599	31
734.775	24.5
735.952	25.5
737.128	26.5
738.304	28.5
739.48	29
740.656	27.5
741.831	27
743.006	31.5
744.181	27.5
745.356	27.5
746.531	26
747.706	32
748.88	26.5
750.054	35.5
751.228	29.5
752.402	27
753.576	26
754.749	31
755.922	26.5
757.095	27.5
758.267	26
759.44	25
760.612	32.5
761.785	27
762.957	28
764.129	26.5
765.301	31
766.471	26.5
767.642	28
768.814	26
769.985	25
771.156	30.5
772.325	29
773.495	31
774.666	30.5
775.836	27
777.005	30
778.174	24.5
779.344	29.5
780.513	32
781.681	29
782.85	28
784.019	30
785.187	28
786.355	34
787.523	31.5
788.69	31
789.858	29.5
791.026	29.5
792.192	30.5
793.36	27.5
794.526	27.5
795.693	29
796.86	27
798.025	28
799.191	26
800.356	29.5
801.523	28
802.689	31
803.853	22
805.019	31
806.183	28
807.348	29.5
808.512	28
809.677	31.5
810.84	26.5
812.005	29.5
813.167	30
814.332	26
815.494	29
816.657	29
817.82	26.5
818.982	27.5
820.146	29.5
821.307	27
822.47	27.5
823.632	26
824.793	26.5
825.955	29.5
827.116	32.5
828.277	28
829.439	23
830.599	30
831.759	30
832.92	26
834.08	26
835.24	29
836.4	27.5
837.56	28
838.719	29
839.877	25.5
841.037	27
842.196	30
843.354	26
844.512	29.5
845.672	27
846.83	26.5
847.987	26.5
849.145	29.5
850.302	27.5
851.46	27
852.617	32
853.774	25.5
854.93	26.5
856.087	27.5
857.243	26
858.4	27.5
859.556	28.5
860.712	28
861.867	27
863.022	31
864.177	28.5
865.332	30
866.487	26
867.642	30
868.796	28
869.95	30
871.104	23
872.258	29
873.412	30
874.565	30
875.718	29
876.872	27.5
878.024	25.5
879.177	26.5
880.33	28.5
881.482	27
882.635	27.5
883.787	26
884.938	26.5
886.09	29
887.242	26
888.393	26.5
889.544	27
890.695	29
891.845	25
892.995	26.5
894.146	26.5
895.296	24.5
896.446	27.5
897.596	24.5
898.744	26
899.894	30
901.043	27.5
902.193	23.5
903.342	24.5
904.489	29
905.638	30
906.786	30
907.935	25.5
909.081	25
910.229	23.5
911.377	25
912.525	22.5
913.671	22.5
914.818	25.5
915.965	30
917.111	23.5
918.258	30.5
919.404	26.5
920.549	26.5
921.695	27.5
922.84	27
923.986	29.5
925.132	24.5
926.276	23.5
927.421	26.5
928.565	25
929.71	24.5
930.855	25
931.998	25
933.142	22.5
934.285	24.5
935.429	27.5
936.572	27
937.716	24.5
938.858	25
940.001	28
941.143	28.5
942.286	25.5
943.428	23
944.57	22.5
945.712	29
946.854	26
947.995	27.5
949.135	27.5
950.277	25.5
951.418	25
952.559	26
953.699	25
954.839	25
955.98	20
957.119	27
958.258	25
959.399	27.5
960.538	24.5
961.676	23.5
962.816	29.5
963.955	25.5
965.093	24
966.232	25
967.37	26.5
968.508	25
969.645	26.5
970.784	27.75
971.921	28.5
973.058	26
974.195	25
975.333	29
976.469	23.5
977.605	26.5
978.741	29
979.877	29
981.013	27
982.15	30
983.285	25.5
984.421	27
985.556	25.5
986.691	30
987.825	21
988.96	27
990.094	29
991.228	25
992.364	23
993.497	23
994.631	31.5
995.765	25.5
996.898	24.5
998.031	27
999.164	26.5
1000.3	26.5
1001.43	26.5
1002.56	26.5
1003.69	26
1004.83	28
1005.96	26
1007.09	28.5
1008.22	26
1009.35	26
1010.48	29
1011.61	24
1012.74	27.5
1013.88	26.5
1015.01	26
1016.14	26.5
1017.27	25.5
1018.4	24.5
1019.53	24
1020.65	27.5
1021.78	24.5
1022.91	22.5
1024.04	24
1025.17	25
1026.3	26.5
1027.43	24
1028.56	27.5
1029.68	24
1030.81	27.5
1031.94	24.5
1033.07	26.5
1034.19	27.5
1035.32	25.5
1036.45	22.5
1037.58	27.5
1038.7	25
1039.83	24.5
1040.95	26
1042.08	25.5
1043.21	24
1044.33	29
1045.46	24.5
1046.58	28
1047.71	22.5
1048.83	25.5
1049.96	22.5
1051.08	24.5
1052.21	24.5
1053.33	25
1054.45	26
1055.58	27
1056.7	24
1057.82	25
1058.95	26.5
1060.07	23.5
1061.19	26
1062.32	26.5
1063.44	24
1064.56	26.5
1065.68	27
1066.81	28
1067.93	26.5
1069.05	24
1070.17	26.5
1071.29	20
1072.41	26.5
1073.53	27
1074.65	24
1075.77	25
1076.89	27
1078.01	30.5
1079.13	25
1080.25	23
1081.37	26
1082.49	23.5
1083.61	23
1084.73	29
1085.85	23
1086.97	19
1088.09	22.5
1089.2	30
1090.32	26
1091.44	25.5
1092.56	22.5
1093.68	25
1094.79	22
1095.91	26
1097.03	20
1098.14	23.5
1099.26	23
1100.38	24
1101.49	24
1102.61	28.5
1103.73	19.5
1104.84	25
1105.96	22.5
1107.07	26.5
1108.19	23
1109.3	25
1110.42	27
1111.53	22
1112.65	24
1113.76	26.5
1114.88	27.5
1115.99	24.5
1117.1	24
1118.22	23.5
1119.33	24.5
1120.44	23.5
1121.56	27
1122.67	24.5
1123.78	27.5
1124.89	22.5
1126.01	27
1127.12	24.5
1128.23	27.5
1129.34	19
1130.45	24.5
1131.56	23
1132.67	22.5
1133.79	24
1134.9	24
1136.01	21.5
1137.12	26.5
1138.23	22
1139.34	25
1140.45	23
1141.56	24.5
1142.67	22.5
1143.78	24
1144.89	23.5
1145.99	27.5
1147.1	28
1148.21	24
1149.32	25
1150.43	24.5
1151.54	25.5
1152.65	24.5
1153.75	24
1154.86	24
1155.97	27.5
1157.08	24
1158.18	26.5
1159.29	21.5
1160.4	26
1161.5	25
1162.61	25
1163.72	29
1164.82	29
1165.93	25
1167.03	24
1168.14	27
1169.24	27.5
1170.35	21
1171.45	21
1172.56	24.5
1173.66	26
1174.77	24
1175.87	23.5
1176.98	23.5
1178.08	25
1179.18	22.5
1180.29	25
1181.39	23.5
1182.49	23
1183.6	26
1184.7	24
1185.8	28.5
1186.9	25.5
1188	24.5
1189.11	23.5
1190.21	27
1191.31	23
1192.41	23
1193.51	21
1194.61	22.5057
1195.72	25.9426
1196.82	21.6238
1197.92	21.8032
1199.02	24.5534
1200.12	23.9846
1201.22	23.161
1202.32	22.2772
1203.42	28.5571
1204.52	22.7709
1205.62	22.8358
1206.71	22.1761
1207.81	20.9811
1208.91	25.277
1210.01	22.7006
1211.11	24.5392
1212.21	25.1948
1213.31	23.4382
1214.4	22.453
1215.5	22.9807
1216.6	26.3699
1217.7	24.2602
1218.79	25.4736
1219.89	24.3752
1220.99	22.8501
1222.08	22.7524
1223.18	23.4809
1224.28	20.467
1225.37	21.9971
1226.47	24.4976
1227.56	21.4421
1228.66	26.421
1229.76	24.3422
1230.85	24.2007
1231.95	22.3122
1233.04	25.1618
1234.14	23.0391
1235.23	23.3351
1236.32	24.3885
1237.42	24.2964
1238.51	23.5047
1239.61	25.3946
1240.7	23.6322
1241.79	23.4297
1242.89	22.0374
1243.98	24.1449
1245.07	21.8263
1246.17	23.3395
1247.26	24.9989
1248.35	24.3626
1249.44	25.312
1250.53	24.1923
1251.63	26.9067
1252.72	23.3307
1253.81	21.4566
1254.9	24.838
1255.99	25.5694
1257.08	25.8956
1258.17	21.4588
1259.27	24.1982
1260.36	25.6717
1261.45	25.49
1262.54	25.1059
1263.63	24.0534
1264.72	24.469
1265.81	26.3115
1266.89	22.6528
1267.98	23.2123
1269.07	25.7678
1270.16	23.762
1271.25	24.1578
1272.34	23.9764
1273.43	22.8466
1274.52	24.2617
1275.6	25.7506
1276.69	24.1229
1277.78	22.9953
1278.87	22.2476
1279.95	22.7205
1281.04	25.9363
1282.13	24.1834
1283.22	26.0034
1284.3	24.5657
1285.39	24.7462
1286.48	25.3718
1287.56	26.9265
1288.65	25.7999
1289.73	24.4216
1290.82	22.2334
1291.9	23.1726
1292.99	24.2295
1294.07	23.6941
1295.16	25.3437
1296.24	25.9615
1297.33	25.1346
1298.41	24.2341
1299.5	22.8472
1300.58	24.4788
1301.66	25.7689
1302.75	23.3053
1303.83	22.3384
1304.91	24.3655
1306	25.1625
1306.4	25
1307.48	20
1308.57	28.5
1309.66	23.5
1310.75	24.5
1311.84	25
1312.92	24
1314.01	27.5
1315.1	27
1316.18	22
1317.27	25
1318.36	24.5
1319.44	25
1320.53	24
1321.62	21.5
1322.7	25
1323.79	25
1324.87	24
1325.96	23.5
1327.04	24
1328.13	18
1329.21	24.5
1330.3	23
1331.38	22
1332.47	22.5
1333.55	22.5
1334.64	22
1335.72	25
1336.8	24.5
1337.89	24.5
1338.97	23.5
1340.05	24
1341.14	25
1342.22	27
1343.3	23
1344.38	20.5
1345.47	25.5
1346.55	23
1347.63	28
1348.71	21.5
1349.79	25
1350.87	28
1351.96	23.5
1353.04	18.5
1354.12	23.5
1355.2	23
1356.28	23
1357.36	22
1358.44	25
1359.52	25
1360.6	25
1361.68	26.5
1362.76	24.5
1363.84	23
1364.92	25
1366	21.5
1367.07	23
1368.15	22.5
1369.23	22
1370.31	23
1371.39	23
1372.47	24.5
1373.54	27
1374.62	26.5
1375.7	26
1376.78	20.5
1377.85	24
1378.93	24.5
1380.01	26.5
1381.08	26
1382.16	27
1383.24	27
1384.31	23
1385.39	24.5
1386.46	22.5
1387.54	25
1388.61	25
1389.69	25
1390.76	25
1391.84	25.5
1392.91	29
1393.99	24.5
1395.06	27.5
1396.14	27.5
1397.21	26
1398.29	26
1399.36	29
1400.43	29
1401.51	28
1402.58	27
1403.65	30
1404.72	30
1405.8	33
1406.87	28
1407.94	30
1409.02	27.5
1410.09	29
1411.16	28.5
1412.23	29
1413.3	33
1414.37	32.5
1415.44	31
1416.51	32
1417.59	32
1418.66	25
1419.73	29
1420.8	28
1421.87	27
1422.94	26
1424.01	25
1425.08	27
1426.15	27.5
1427.22	27
1428.28	26.5
1429.35	24.5
1430.42	27.5
1431.49	25
1432.56	21.5
1433.63	26
1434.7	26
1435.76	29
1436.83	25
1437.9	26.5
1438.97	26
1440.03	26
1441.1	28.5
1442.17	22
1443.23	25.5
1444.3	23.5
1445.37	24
1446.43	22.5
1447.5	26.5
1448.57	29.5
1449.63	24
1450.7	25.5
1451.76	26
1452.83	24.5
1453.89	25
1454.96	28
1456.02	27
1457.09	26.5
1458.15	27
1459.22	25.5
1460.28	23.5
1461.34	28
1462.41	24.5
1463.47	21
1464.53	28
1465.6	25.5
1466.66	26
1467.72	29.5
1468.78	21
1469.85	27.5
1470.91	23
1471.97	25
1473.03	27
1474.1	28
1475.16	26
1476.22	28.5
1477.28	26
1478.34	26.5
1479.4	22
1480.46	24.5
1481.52	23
1482.58	27
1483.65	25
1484.71	27
1485.77	23
1486.82	23
1487.89	25
1488.94	24.5
1490	25
1491.06	23
1492.12	23
1493.18	30
1494.24	27
1495.3	23
1496.36	29
1497.41	21.5
1498.47	24
1499.53	22.5
1500.59	24
1501.65	28
1502.7	29
1503.76	29
1504.82	22.5
1505.87	23.5
1506.93	27.5
1507.99	26.5
1509.04	28
1510.1	22.5
1511.16	26.5
1512.21	26.5
1513.27	24
1514.32	25.5
1515.38	25
1516.43	25
1517.49	28
1518.54	24.5
1519.6	26
1520.65	25
1521.71	24
1522.76	21
1523.81	25.5
1524.87	25.5
1525.92	23
1526.98	33
1528.03	23
1529.08	23
1530.14	27
1531.19	26
1532.24	26
1533.29	25.5
1534.35	24
1535.4	28
1536.45	27.5
1537.5	20
1538.55	25.5
1539.61	23
1540.66	28.5
1541.71	23
1542.76	25
1543.81	23
1544.86	25.5
1545.91	27.5
1546.96	26.5
1548.01	24.5
1549.06	23
1550.11	23.5
1551.16	21.5
1552.21	25
1553.26	26.5
1554.31	22
1555.36	26.5
1556.41	24.5
1557.46	26
1558.5	21
1559.55	24.5
1560.6	25.5
1561.65	24
1562.7	25
1563.74	29.5
1564.79	24
1565.84	25.5
1566.89	24.5
1567.93	27.5
1568.98	26
1570.03	23.5
1571.07	22.5
1572.12	23
1573.17	21.5
1574.21	25
1575.26	26.5
1576.3	23
1577.35	26
1578.4	27.5
1579.44	25
1580.49	26.5
1581.53	20.5
1582.58	20
1583.62	25.5
1584.66	25.5
1585.71	25
1586.75	21.5
1587.8	26
1588.84	26
1589.88	24
1590.93	28
1591.97	24
1593.01	28
1594.06	24
1595.1	26
1596.14	22.5
1597.18	27
1598.23	25.5
1599.27	25.5
1600.31	27
1601.35	27
1602.39	25
1603.44	26
1604.48	22
1605.52	30.5
1606.56	24
1607.6	24
1608.64	25.5
1609.68	23
1610.72	26
1611.76	22.5
1612.8	26
1613.84	26.5
1614.88	25.5
1615.92	27
1616.96	27.5
1618	27
1619.04	23.5
1620.08	24.5
1621.12	24
1622.16	27
1623.19	23
1624.23	26
1625.27	22
1626.31	21
1627.35	24.5
1628.38	23
1629.42	27
1630.46	26
1631.49	19.5
1632.53	22.5
1633.57	25
1634.6	27
1635.64	20.5
1636.68	24.5
1637.71	30.5
1638.75	26
1639.79	26
1640.82	25.5
1641.86	28
1642.89	21.5
1643.93	25.5
1644.96	25
1646	23
1647.03	29
1648.07	25
1649.1	25
1650.13	27.5
1651.17	23.5
1652.2	24
1653.24	23
1654.27	26
1655.3	23.5
1656.34	25
1657.37	22
1658.4	26.5
1659.43	22.5
1660.47	27
1661.5	23.5
1662.53	25.5
1663.56	22
1664.6	25
1665.63	26.5
1666.66	22
1667.69	26
1668.72	24.5
1669.75	24
1670.78	28
1671.81	23
1672.85	24
1673.88	26
1674.91	24
1675.94	25
1676.97	24.5
1678	24
1679.03	24
1680.06	25
1681.09	25
1682.11	26
1683.14	25.5
1684.17	26.5
1685.2	28.5
1686.23	29.5
1687.26	25
1688.29	27
1689.31	27
1690.34	22
1691.37	21.5
1692.4	28.5
1693.42	25
1694.45	23
1695.48	27.5
1696.51	26
1697.53	27.5
1698.56	26.5
1699.59	27
1700.61	23
1701.64	19.5
1702.66	25
1703.69	25.5
1704.72	26.5
1705.74	31.5
1706.77	25
1707.79	27.5
1708.82	27
1709.84	27.5
1710.87	25
1711.89	24.5
1712.91	26
1713.94	23.5
1714.96	27.5
1715.99	31
1717.01	22.5
1718.03	24
1719.06	24
1720.08	24
1721.1	23.5
1722.13	23.5
1723.15	25.5
1724.17	26
1725.19	25
1726.22	22
1727.24	21.5
1728.26	26
1729.28	22.5
1730.3	26
1731.33	24
1732.35	28
1733.37	26
1734.39	24.5
1735.41	27.5
1736.43	28
1737.45	26
1738.47	25
1739.49	22
1740.51	25.5
1741.53	24
1742.55	22
1743.57	23
1744.59	25.5
1745.61	24
1746.63	27
1747.65	24
1748.67	25
1749.69	24
1750.7	28
1751.72	23.5
1752.74	24.5
1753.76	23.5
1754.78	24
1755.79	23.5
1756.81	24.5
1757.83	22.5
1758.85	26.5
1759.86	23
1760.88	27
1761.9	25.5
1762.91	26
1763.93	25
1764.95	22
1765.96	24
1766.98	24.5
1767.99	24
1769.01	24
1770.02	29
1771.04	24.5
1772.06	25.5
1773.07	23
1774.09	24
1775.1	26.5
1776.11	25
1777.13	25.5
1778.14	22.5
1779.16	22.5
1780.17	24
1781.18	25
1782.2	25.5
1783.21	28.5
1784.22	25
1785.24	23.5
1786.25	23
1787.26	22
1788.28	23.5
1789.29	26.5
1790.3	21
1791.31	20
1792.33	26
1793.34	23
1794.35	25
1795.36	24.5
1796.37	25
1797.38	27
1798.39	26
1799.4	26
1800.42	23.5
1801.43	25
1802.44	26
1803.45	20.5
1804.46	22
1805.47	23.5
1806.48	22
1807.49	22
1808.5	22.5
1809.51	27.5
1810.51	25.5
1811.52	23.5
1812.53	25
1813.54	28
1814.55	23
1815.56	19.5
1816.57	24.5
1817.57	27
1818.58	21.5
1819.59	25
1820.6	21
1821.61	23
1822.61	28
1823.62	24.5
1824.63	21
1825.63	23.5
1826.64	22
1827.65	24.5
1828.65	25.5
1829.66	26
1830.67	28
1831.67	25.5
1832.68	21
1833.68	24
1834.69	25.5
1835.69	22.5
1836.7	27
1837.7	21.5
1838.71	26.5
1839.71	22.5
1840.72	26
1841.72	27
1842.73	22
1843.73	23
1844.73	23.5
1845.74	23
1846.74	26
1847.74	23.5
1848.75	24.5
1849.75	24
1850.75	21
1851.76	23.5
1852.76	27
1853.76	22
1854.76	24
1855.77	25
1856.77	22
1857.77	22
1858.77	24.5
1859.77	22
1860.77	26
1861.78	24.5
1862.78	22.5
1863.78	25
1864.78	24.5
1865.78	24
1866.78	23
1867.78	24.5
1868.78	26.5
1869.78	21
1870.78	25
1871.78	23.5
1872.78	25
1873.78	21.5
1874.78	25
1875.78	26.5
1876.78	21
1877.78	26.5
1878.77	24
1879.77	24.5
1880.77	26
1881.77	24.5
1882.77	21.5
1883.77	25
1884.76	22
1885.76	27.5
1886.76	23.5
1887.75	23.5
1888.75	25
1889.75	25.5
1890.75	19
1891.74	22.5
1892.74	23
1893.73	23
1894.73	20
1895.73	25.5
1896.72	25
1897.72	20
1898.71	26.5
1899.71	22
1900.7	22
1901.7	24
1902.69	20
1903.69	26
1904.68	24
1905.68	26
1906.67	23
1907.67	27
1908.66	28
1909.65	28
1910.65	25.5
1911.64	25
1912.63	21
1913.63	23
1914.62	24.5
1915.61	23
1916.61	22
1917.6	27
1918.59	22.5
1919.58	21
1920.58	23.5
1921.57	22
1922.56	22.5
1923.55	20.5
1924.54	23
1925.54	25.5
1926.53	25
1927.52	23.5
1928.51	23.5
1929.5	23
1930.49	22.5
1931.48	24
1932.47	21.5
1933.46	20
1934.45	24.5
1935.44	22
1936.43	23
1937.42	21.5
1938.41	26.5
1939.4	23
1940.39	25
1941.38	24
1942.37	25.5
1943.35	25
1944.34	21
1945.33	24.5
1946.32	26.5
1947.31	17
1948.3	21.5
1949.28	24
1950.27	18.5
1951.26	25
1952.25	26
1953.23	20
1954.22	26.5
1955.21	25.5
1956.19	22
1957.18	22
1958.17	26.5
1959.15	23.5
1960.14	25
1961.12	26
1962.11	24
1963.1	22.5
1964.08	23
1965.07	19
1966.05	25
1967.04	22
1968.02	21
1969.01	24
1969.99	23.5
1970.98	25.5
1971.96	22
1972.94	25.5
1973.93	25
1974.91	24
1975.9	22
1976.88	23
1977.86	24
1978.85	25
1979.83	24.5
1980.81	26
1981.79	27
1982.78	22.5
1983.76	26
1984.74	23
1985.72	23.5
1986.71	24
1987.69	28.5
1988.67	20.5
1989.65	20.5
1990.63	22
1991.61	23
1992.59	22
1993.57	22.5
1994.56	23.5
1995.54	17.5
1996.52	23
1997.5	18.5
1998.48	24
1999.46	21
2000.44	23
2001.42	22.5
2002.4	24
2003.38	24.5
2004.36	25
2005.33	23
2006.31	23
2007.29	24.5
2008.27	25
2009.25	23.5
2010.23	21.5
2011.21	21.5
2012.18	22.5
2013.16	22
2014.14	24.5
2015.12	24
2016.09	22.5
2017.07	22.5
2018.05	21
2019.03	21.5
2020	22.5
2020.98	21.5
2021.96	25.5
2022.93	21
2023.91	24.5
2024.89	25
2025.86	22
2026.84	26
2027.81	24
2028.79	23
2029.76	25
2030.74	23
2031.71	20
2032.69	21.5
2033.66	25.5
2034.64	22
2035.61	21.5
2036.59	24.5
2037.56	22
2038.54	23.5
2039.51	19.5
2040.48	21
2041.46	22
2042.43	25.5
2043.4	21
2044.38	28.5
2045.35	20
2046.32	21.5
2047.29	27
2048.27	21
2049.24	22
2050.21	17.5
2051.18	21
2052.16	23
2053.13	25.5
2054.1	24.5
2055.07	22
2056.04	21
2057.01	25.5
2057.98	19
2058.96	20
2059.93	25.5
2060.9	27
2061.87	22
2062.84	21
2063.81	25
2064.78	24
2065.75	26
2066.72	25
2067.69	26
2068.66	22
2069.63	28
2070.6	20
2071.56	26.5
2072.53	23.5
2073.5	24.5
2074.47	24.5
2075.44	25
2076.41	27.5
2077.38	25
2078.34	19
2079.31	23.5
2080.28	22
2081.25	24
2082.21	22
2083.18	22
2084.15	20
2085.11	21.5
2086.08	21.5
2087.05	23.5
2088.01	19.5
2088.98	23
2089.95	28
2090.91	22
2091.88	21.5
2092.84	28
2093.81	22
2094.78	25
2095.74	21
2096.71	22
2097.67	23
2098.64	23
2099.6	25
2100.57	26
2101.53	23
2102.49	26
2103.46	25
2104.42	23
2105.39	24.5
2106.35	21
2107.31	23
2108.28	25.5
2109.24	23.5
2110.2	19.5
2111.17	24.5
2112.13	24.5
2113.09	22
2114.05	25.5
2115.02	21.5
2115.98	24.5
2116.94	17.5
2117.9	24
2118.86	23
2119.83	18.5
2120.79	27
2121.75	25.5
2122.71	25
2123.67	22
2124.63	22.5
2125.59	20
2126.55	25
2127.51	23
2128.47	18.5
2129.43	25.5
2130.39	20
2131.35	25.5
2132.31	20.5
2133.27	24
2134.23	23.5
2135.19	22
2136.15	23
2137.11	22.5
2138.07	20
2139.03	21.5
2139.99	21.5
2140.94	25
2141.9	20.5
2142.86	22.0034
2143.82	20.9824
2144.78	20.5353
2145.73	20.1786
2146.69	24.3908
2147.65	22.0187
2148.61	23.9567
2149.56	23.7389
2150.52	23.4573
2151.48	22.2581
2152.43	22.8114
2153.39	21.1117
2154.35	21.1385
2155.3	23.4523
2156.26	23.9076
2157.21	22.8606
2158.17	15.9225
2159.13	22.7354
2160.08	21.1498
2161.04	22.3088
2161.99	23.7139
2162.95	23.8094
2163.9	25.2759
2164.86	22.6457
2165.81	22.0807
2166.77	25.0146
2167.72	21.668
2168.67	22.4352
2169.63	25.0883
2170.58	18.5908
2171.54	25.2376
2172.49	20.9725
2173.44	22.3092
2174.4	21.4821
2175.35	20.9975
2176.3	22.5044
2177.26	21.3925
2178.21	21.7744
2179.16	18.4845
2180.11	22.3264
2181.07	23.087
2182.02	22.4016
2182.97	21.3855
2183.92	21.9442
2184.87	20.9954
2185.82	22.6979
2186.78	22.7289
2187.73	20.453
2188.68	22.8055
2189.63	22.4483
2190.58	23.1578
2191.53	22.2784
2192.48	22.0034
2193.43	23.2384
2194.38	21.0673
2195.33	24.5687
2196.28	21.8683
2197.23	22.4324
2198.18	22.4145
2199.13	21.9074
2200.08	23.2904
2201.03	23.0727
2201.98	19.3893
2202.93	25.1074
2203.88	20.7871
2204.83	22.0656
2205.77	24.1663
2206.72	22.6645
2207.67	23.4016
2208.62	22.2012
2209.57	22.9207
2210.52	22.3613
2211.46	22.1522
2212.41	20.532
2213.36	23.7566
2214.31	23.8284
2215.25	21.2433
2216.2	23.4266
2217.15	22.674
2218.09	22.8859
2219.04	22.8733
2219.99	23.3956
2220.93	23.5
2221.88	24.6995
2222.82	22.3019
2223.77	23.956
2224.72	23.138
2225.66	23.4177
2226.61	22.1042
2227.55	22.3491
2228.5	24.5698
2229.44	24.9131
2230.39	24.5226
2231.33	21.2884
2232.28	21.6113
2233.22	23.2913
2234.16	24.3015
2235.11	22.7774
2236.05	22.9814
2237	22.4073
2237.94	24.344
2238.88	23.0316
2239.83	22.0146
2240.13	22
2241.08	22.5
2242.03	21.5
2242.98	23.5
2243.92	21.5
2244.87	24
2245.82	20
2246.76	26.5
2247.71	23.5
2248.66	21
2249.61	24
2250.55	23
2251.5	24.5
2252.45	21
2253.39	19
2254.34	23
2255.28	20
2256.23	21
2257.18	24
2258.12	21.5
2259.07	23
2260.01	23
2260.96	23.5
2261.9	21.5
2262.85	24
2263.79	24.5
2264.74	24
2265.68	22.5
2266.63	23.5
2267.57	24.5
2268.51	27
2269.46	23.5
2270.4	26.5
2271.35	25
2272.29	23.5
2273.23	23
2274.18	21
2275.12	21
2276.06	22
2277	20
2277.95	22
2278.89	24.5
2279.83	25.5
2280.78	20.5
2281.72	21
2282.66	23
2283.6	25.5
2284.54	23.5
2285.48	23.5
2286.43	24
2287.37	23
2288.31	23.5
2289.25	21
2290.19	22.5
2291.13	18.5
2292.07	22
2293.01	22.5
2293.95	21
2294.89	25
2295.83	21
2296.77	23.5
2297.71	23.5
2298.65	25
2299.59	23.5
2300.53	24.5
2301.47	23
2302.41	19.5
2303.35	24.5
2304.29	23.5
2305.22	23
2306.16	24.5
2307.1	20
2308.04	23
2308.98	19
2309.91	24
2310.85	23
2311.79	20
2312.73	22
2313.66	21
2314.6	21.5
2315.54	24.5
2316.48	27
2317.41	24.5
2318.35	23
2319.29	19
2320.22	23
2321.16	26.5
2322.09	24
2323.03	26
2323.97	25
2324.9	21
2325.84	20.5
2326.77	23.5
2327.71	24
2328.64	23
2329.58	20
2330.51	24.5
2331.45	28
2332.38	22
2333.32	25
2334.25	25
2335.18	24
2336.12	21.5
2337.05	21
2337.99	20
2338.92	24
2339.85	27
2340.79	23
2341.72	22
2342.65	26.5
2343.59	26.5
2344.52	25.5
2345.45	25.5
2346.38	23.5
2347.32	22.5
2348.25	22.5
2349.18	26.5
2350.11	23.5
2351.04	20.5
2351.98	23
2352.91	24
2353.84	26.5
2354.77	24.5
2355.7	22
2356.63	21
2357.56	25
2358.49	21
2359.42	22.5
2360.35	23
2361.28	25
2362.21	24
2363.14	22.5
2364.07	24.5
2365	21.5
2365.93	23
2366.86	25
2367.79	23.5
2368.72	21
2369.65	20.5
2370.58	21.5
2371.51	27.5
2372.44	21.5
2373.36	25.5
2374.29	23.5
2375.22	21.5
2376.15	24.5
2377.08	24
2378	22.5
2378.93	24.5
2379.86	22.5
2380.79	24
2381.71	22
2382.64	26
2383.57	20
2384.49	23
2385.42	25.5
2386.35	23
2387.27	24
2388.2	21
2389.13	22.5
2390.05	23
2390.98	21
2391.9	21
2392.83	20.5
2393.76	24.5
2394.68	23
2395.61	23.5
2396.53	23.5
2397.46	20.5
2398.38	22.5
2399.3	23
2400.23	20
2401.15	23
2402.08	22
2403	23.5
2403.93	18
2404.85	20
2405.77	22
2406.7	20.5
2407.62	23.5
2408.54	24.5
2409.47	22
2410.39	26
2411.31	23.5
2412.24	16.5
2413.16	21
2414.08	23.5
2415	23
2415.92	20.5
2416.85	26
2417.77	26
2418.69	23.5
2419.61	21
2420.53	25
2421.45	21
2422.38	25
2423.3	23
2424.22	22
2425.14	23
2426.06	20
2426.98	22
2427.9	25.5
2428.82	24
2429.74	23
2430.66	21
2431.58	20
2432.5	23.5
2433.42	22
2434.34	25.5
2435.26	26
2436.18	27
2437.1	30
2438.01	23.5
2438.93	25
2439.85	24.5
2440.77	25
2441.69	22
2442.61	25.5
2443.52	22
2444.44	24.5
2445.36	23
2446.28	23
2447.2	23.5
2448.11	27
2449.03	20.5
2449.95	25
2450.86	22.5
2451.78	22
2452.7	24
2453.61	20
2454.53	23
2455.45	23.5
2456.36	23.5
2457.28	26
2458.2	27
2459.11	22.5
2460.03	22.5
2460.94	28
2461.86	25
2462.77	25.5
2463.69	24.5
2464.6	22.5
2465.52	24
2466.43	23.5
2467.35	27
2468.26	27
2469.18	22
2470.09	23
2471	23.5
2471.92	24.5
2472.83	21.5
2473.74	24.5
2474.66	26
2475.57	23
2476.48	19.5
2477.4	26
2478.31	21.5
2479.22	28
2480.14	22
2481.05	23
2481.96	22
2482.87	21
2483.79	26
2484.7	21.5
2485.61	26
2486.52	23.5
2487.43	23.5
2488.34	20
2489.25	25.5
2490.17	24.5
2491.08	24
2491.99	24.5
2492.9	23
2493.81	25.5
2494.72	23
2495.63	25
2496.54	24
2497.45	26
2498.36	22.5
2499.27	23.5
2500.18	24.5
2501.09	24.5
2502	22
2502.91	27.5
2503.82	24.5
2504.73	24.5
2505.63	21.5
2506.54	24.5
2507.45	28
2508.36	25
2509.27	26
2510.18	23.5
2511.09	22.5
2511.99	27.5
2512.9	24
2513.81	23
2514.72	23.5
2515.62	25
2516.53	24
2517.44	23
2518.34	26.5
2519.25	23
2520.16	27.5
2521.06	21
2521.97	21.5
2522.88	27
2523.78	24
2524.69	24
2525.6	23
2526.5	27
2527.41	21.5
2528.31	26
2529.22	29
2530.12	27
2531.03	24.5
2531.93	25
2532.84	23
2533.74	24
2534.65	23
2535.55	25
2536.46	25.5
2537.36	28.5
2538.27	25.5
2539.17	20
2540.07	20
2540.98	21
2541.88	24.5
2542.78	17.5
2543.69	26
2544.59	29.5
2545.49	24.5
2546.4	25.5
2547.3	24.5
2548.2	21
2549.1	22.5
2550.01	25.5
2550.91	19
2551.81	23
2552.71	30.5
2553.61	26.5
2554.52	22
2555.42	27
2556.32	23
2557.22	25
2558.12	21
2559.02	22
2559.92	24.5
2560.82	20
2561.72	24.5
2562.62	26
2563.53	23
2564.43	24
2565.33	22
2566.23	22
2567.13	23
2568.03	25.5
2568.92	23.5
2569.82	29
2570.72	27
2571.62	23.5
2572.52	23
2573.42	24.5
2574.32	23.5
2575.22	28.5
2576.12	22.5
2577.02	24.5
2577.91	24.5
2578.81	25.5
2579.71	22
2580.61	21.5
2581.5	27
2582.4	23.5
2583.3	23.5
2584.2	22
2585.09	25
2585.99	26
2586.89	22.5
2587.78	24
2588.68	21.5
2589.58	25
2590.47	23
2591.37	21.5
2592.27	24
2593.16	26
2594.06	25
2594.95	14
2595.85	23
2596.75	24.5
2597.64	23.5
2598.54	23
2599.43	26.5
2600.33	25
2601.22	23
2602.12	26.5
2603.01	26
2603.9	22
2604.8	22.5
2605.69	27.5
2606.59	24
2607.48	24
2608.37	27.5
2609.27	24
2610.16	23.5
2611.05	23
2611.95	26
2612.84	25
2613.73	25
2614.63	28
2615.52	23
2616.41	20.5
2617.3	25.5
2618.2	20.5
2619.09	22
2619.98	23
2620.87	24.5
2621.76	22.5
2622.66	22
2623.55	26
2624.44	26.5
2625.33	24
2626.22	23
2627.11	22.5
2628	21.5
2628.9	23.5
2629.79	26
2630.68	28.5
2631.57	23.5
2632.46	22
2633.35	24
2634.24	22
2635.13	25.5
2636.02	23.5
2636.91	26
2637.8	25
2638.68	21
2639.57	20.5
2640.46	23
2641.35	22.5
2642.24	24.5
2643.13	23.5
2644.02	26.5
2644.91	26
2645.79	24.5
2646.68	23.5
2647.57	26
2648.46	27
2649.35	24
2650.23	27.5
2651.12	21
2652.01	24
2652.9	25.5
2653.78	25.5
2654.67	25
2655.56	21.5
2656.44	23.5
2657.33	27.5
2658.22	22
2659.1	19.5
2659.99	26
2660.88	21.5
2661.76	22.5
2662.65	22.5
2663.53	19
2664.42	21.5
2665.3	21.5
2666.19	25
2667.07	23
2667.96	25
2668.84	23.5
2669.73	23
2670.61	24
2671.5	24
2672.38	25
2673.27	20.5
2674.15	23.5
2675.04	25.5
2675.92	22.5
2676.8	23
2677.69	23.5
2678.57	20.5
2679.45	24.5
2680.34	19
2681.22	22
2682.1	25.5
2682.99	26
2683.87	23
2684.75	19
2685.63	26.5
2686.52	24
2687.4	23.5
2688.28	26
2689.16	25.5
2690.04	24.5
2690.93	26
2691.81	24
2692.69	23
2693.57	22
2694.45	24.5
2695.33	23
2696.21	24
2697.09	22.5
2697.97	26.5
2698.85	26
2699.74	23.5
2700.62	23
2701.5	24.5
2702.38	23
2703.26	23
2704.14	26
2705.02	23
2705.89	26.5
2706.77	25
2707.65	22
2708.53	22.5
2709.41	27.5
2710.29	23
2711.17	23
2712.05	27
2712.93	26
2713.8	24.5
2714.68	25
2715.56	23.5
2716.44	22.5
2717.32	23.5
2718.19	23.5
2719.07	24
2719.95	27.5
2720.83	24
2721.7	24.5
2722.58	22
2723.46	27
2724.33	21
2725.21	24
2726.09	21
2726.97	23
2727.84	25
2728.72	23.5
2729.59	25
2730.47	27.5
2731.35	26
2732.22	24.5
2733.1	27.5
2733.97	23.5
2734.85	26.5
2735.72	20
2736.6	26
2737.47	26.5
2738.35	25
2739.22	24.5
2740.1	23
2740.97	22
2741.84	27
2742.72	22.5
2743.59	23.5
2744.47	18
2745.34	25
2746.21	24
2747.09	23
2747.96	25.5
2748.83	24
2749.71	24.5
2750.58	27
2751.45	25
2752.33	23.5
2753.2	23.5
2754.07	23.5
2754.94	24
2755.82	23
2756.69	22.5
2757.56	23.5
2758.43	23
2759.3	24.5
2760.18	26
2761.05	23.5
2761.92	22
2762.79	20.5
2763.66	25.5
2764.53	25
2765.4	26
2766.27	27.5
2767.14	26
2768.01	21
2768.88	23.5
2769.75	20
2770.62	24.5
2771.49	23.5
2772.36	25
2773.23	24.5
2774.1	24.5
2774.97	27
2775.84	23
2776.71	24.5
2777.58	27
2778.45	21.5
2779.32	24
2780.19	23
2781.06	27
2781.92	23.5
2782.79	24
2783.66	24.5
2784.53	23.5
2785.4	28
2786.26	25.5
2787.13	25.5
2788	25.5
2788.87	25
2789.73	25
2790.6	29
2791.47	24
2792.34	25.5
2793.2	23
2794.07	22
2794.94	30
2795.8	25
2796.67	25.5
2797.53	27
2798.4	23
2799.27	26
2800.13	24.5
2801	24.25
2801.86	24
2802.73	25.5
2803.59	26
2804.46	25
2805.32	24
2806.19	23.5
2807.05	26
2807.92	25.5
2808.78	25
2809.65	30.5
2810.51	26.5
2811.38	25
2812.24	24.5
2813.1	26
2813.97	26
2814.83	26
2815.7	24.5
2816.56	28
2817.42	25
2818.29	27
2819.15	26
2820.01	27
2820.87	21
2821.74	26
2822.6	25.5
2823.46	25.5
2824.32	25
2825.19	22.5
2826.05	25.5
2826.91	24
2827.77	26.5
2828.63	28
2829.5	27.5
2830.36	23.5
2831.22	21.5
2832.08	30
2832.94	24.5
2833.8	22
2834.66	22.5
2835.52	23
2836.38	24.5
2837.24	25.5
2838.1	26.5
2838.96	25.5
2839.82	23
2840.68	27
2841.54	24.5
2842.4	25.5
2843.26	25.5
2844.12	23
2844.98	23
2845.84	25.5
2846.7	22.5
2847.56	25
2848.42	23.5
2849.28	26
2850.14	26
2850.99	22
2851.85	22
2852.71	25.5
2853.57	26.5
2854.43	26
2855.28	27
2856.14	24.5
2857	23
2857.86	26.5
2858.71	27.5
2859.57	29
2860.43	23.5
2861.28	29.5
2862.14	24
2863	25.5
2863.86	27
2864.71	24
2865.57	28
2866.42	24.5
2867.28	24.5
2868.14	26
2868.99	27
2869.85	25.5
2870.7	30
2871.56	24.5
2872.41	28
2873.27	27.5
2874.13	31
2874.98	32
2875.83	26
2876.69	29
2877.54	26.5
2878.4	33
2879.25	33.5
2880.11	32
2880.96	34.5
2881.81	30.5
2882.67	35
2883.52	33.5
2884.38	30
2885.23	26
2886.08	32
2886.94	32.5
2887.79	34
2888.64	36.5
2889.5	31
2890.35	37
2891.2	38
2892.05	34
2892.91	42
2893.76	42
2894.61	46.5
2895.46	49.5
2896.31	46
2897.17	45
2898.02	54
2898.87	55
2899.72	55
2900.57	57
2901.42	61
2902.27	67
2903.12	57
2903.98	60
2904.83	65
2905.68	70.5
2906.53	66.5
2907.38	69
2908.23	68
2909.08	68
2909.93	69.5
2910.78	63
2911.63	65
2912.48	55.5
2913.33	54.5
2914.18	50.5
2915.02	46
2915.87	47.5
2916.72	43
2917.57	42
2918.42	39
2919.27	39
2920.12	41
2920.97	37
2921.81	35
2922.66	34
2923.51	35
2924.36	31
2925.21	31
2926.05	31
2926.9	29.5
2927.75	29.5
2928.59	32
2929.44	31
2930.29	27.5
2931.14	33
2931.98	30.5
2932.83	26.5
2933.68	28.5
2934.52	31.5
2935.37	27
2936.21	27.5
2937.06	24
2937.91	27.5
2938.75	32.5
2939.6	29.5
2940.44	30
2941.29	31.5
2942.14	29
2942.98	31.5
2943.82	29
2944.67	28
2945.51	27.5
2946.36	28.5
2947.2	27
2948.05	28
2948.89	30
2949.74	24
2950.58	28.5
2951.43	30.5
2952.27	32
2953.11	32
2953.96	30
2954.8	33
2955.64	32
2956.49	36
2957.33	34
2958.17	37
2959.02	37.5
2959.86	35
2960.7	35
2961.54	42
2962.39	38.5
2963.23	44
2964.07	42
2964.91	42
2965.75	41
2966.6	45.5
2967.44	46
2968.28	41.5
2969.12	42
2969.96	41
2970.8	37.5
2971.64	37.4951
2972.48	38.9078
2973.33	33.1266
2974.17	38.0492
2975.01	34.9292
2975.85	32.0034
2976.69	35.3674
2977.53	32.6317
2978.37	35.8689
2979.21	27.2728
2980.05	29.2678
2980.89	33.7637
2981.73	27.2876
2982.57	30.1143
2983.41	29.8981
2984.25	29.0919
2985.08	24.9588
2985.92	27.5977
2986.76	24.4848
2987.6	24.1117
2988.44	26.4052
2989.28	26.5638
2990.12	26.7649
2990.96	22.916
2991.79	25.2474
2992.63	22.3536
2993.47	25.7626
2994.31	24.1381
2995.14	23.9404
2995.98	26.7293
2996.82	25.3334
2997.66	22.1409
2998.49	26.2691
2999.33	22.3846
3000.17	24.0249
3001	23.6386
3001.84	24.639
3002.68	23.9749
3003.51	22.4818
3004.35	22.0809
3005.19	23.9591
3006.02	25.8396
3006.86	23.6309
3007.7	24.7669
3008.53	21.9396
3009.37	23.2597
3010.2	24.7109
3011.04	24.3797
3011.87	24.8239
3012.71	21.9786
3013.54	23.7038
3014.38	22.096
3015.21	23.8439
3016.05	24.7049
3016.88	23.0389
3017.72	21.664
3018.55	21.5412
3019.39	22.5871
3020.22	23.4626
3021.05	23.1723
3021.89	20.7088
3022.72	22.6619
3023.55	22.6208
3024.39	21.6917
3025.22	22.4672
3026.05	23.1076
3026.89	23.9778
3027.72	24.1987
3028.55	25.8345
3029.39	24.6558
3030.22	24.1137
3031.05	21.2614
3031.88	22.0556
3032.72	23.3178
3033.55	22.7985
3034.38	20.6722
3035.21	23.7426
3036.04	22.1779
3036.88	22.2558
3037.71	21.8422
3038.54	20.9903
3039.37	22.6429
3040.2	23.9829
3041.03	23.1059
3041.86	22.9378
3042.69	22.7988
3043.52	24.0995
3044.36	23.9127
3045.19	24.141
3046.02	24.0865
3046.85	20.7654
3047.68	20.8766
3048.51	23.2004
3049.34	20.9139
3050.17	22.4356
3051	23.3096
3051.83	20.8809
3052.66	18.9787
3053.48	20.2857
3054.31	24.3528
3055.14	25.0712
3055.97	23.949
3056.8	23.5817
3057.29	23
3058.12	23
3058.95	26
3059.79	18
3060.62	27
3061.45	20
3062.29	23.5
3063.12	23
3063.95	24
3064.78	19.5
3065.62	24.5
3066.45	25.5
3067.28	24
3068.11	22
3068.94	22
3069.77	19
3070.61	23
3071.44	21.5
3072.27	20
3073.1	17
3073.93	24.5
3074.76	26
3075.59	20
3076.42	25.5
3077.25	20.5
3078.08	21.5
3078.92	22.5
3079.74	23
3080.57	21
3081.41	24
3082.24	25
3083.06	22.5
3083.89	26
3084.72	23
3085.55	23
3086.38	20
3087.21	19
3088.04	21
3088.87	24.5
3089.7	22.5
3090.53	23.5
3091.36	23.5
3092.18	23
3093.01	23.5
3093.84	23
3094.67	22
3095.5	22.5
3096.32	24.5
3097.15	20
3097.98	23.5
3098.81	25
3099.64	21
3100.46	23
3101.29	23
3102.12	23
3102.94	20.5
3103.77	23
3104.6	25.5
3105.42	21.5
3106.25	21.5
3107.08	27
3107.9	21
3108.73	22.5
3109.56	24.5
3110.38	23.5
3111.21	22.5
3112.03	25
3112.86	26
3113.68	22.5
3114.51	21
3115.33	23.5
3116.16	24.5
3116.98	21
3117.81	20
3118.63	24.5
3119.46	25.5
3120.28	21
3121.11	23
3121.93	22
3122.76	23
3123.58	24
3124.4	24
3125.23	24.5
3126.05	24
3126.87	24
3127.7	24
3128.52	19
3129.34	23.5
3130.17	23.5
3130.99	26
3131.81	23.5
3132.64	24.5
3133.46	25
3134.28	24.5
3135.1	25
3135.93	19.5
3136.75	23
3137.57	21.5
3138.39	23.5
3139.21	25
3140.04	23
3140.86	20.5
3141.68	25
3142.5	23
3143.32	21.5
3144.14	29
3144.96	24.5
3145.78	21.5
3146.61	21
3147.43	24
3148.25	23
3149.07	23.5
3149.89	23.5
3150.71	26
3151.53	25.5
3152.35	25
3153.17	24.5
3153.99	25.5
3154.81	24.5
3155.63	19
3156.45	25.5
3157.27	25
3158.08	25.5
3158.9	24
3159.72	24
3160.54	24
3161.36	22
3162.18	22
3163	23.5
3163.82	19
3164.63	23
3165.45	24
3166.27	26.5
3167.09	24.5
3167.91	23
3168.72	20.5
3169.54	24
3170.36	22.5
3171.18	25
3171.99	20
3172.81	24.5
3173.63	23.5
3174.44	19.5
3175.26	25
3176.08	22.5
3176.89	23
3177.71	26.5
3178.53	22
3179.34	22
3180.16	22.5
3180.97	20
3181.79	21.5
3182.61	21.5
3183.42	20.5
3184.24	22.5
3185.05	21
3185.87	21
3186.68	23
3187.5	24.5
3188.31	21
3189.13	21
3189.94	25
3190.76	23
3191.57	23
3192.39	22.5
3193.2	19.5
3194.02	24.5
3194.83	23.5
3195.64	25.5
3196.46	25
3197.27	21.5
3198.08	19
3198.9	23.5
3199.71	23
3200.52	21
3201.34	21
3202.15	25
3202.96	21
3203.78	22
3204.59	24.5
3205.4	19
3206.21	22
3207.03	20.5
3207.84	22
3208.65	23
3209.46	18
3210.27	25
3211.09	22
3211.9	28
3212.71	27
3213.52	20
3214.33	26.5
3215.14	20
3215.95	24
3216.77	23.5
3217.58	23.5
3218.39	26
3219.2	27
3220.01	20.5
3220.82	21
3221.63	23
3222.44	21
3223.25	22
3224.06	21
3224.87	20
3225.68	23
3226.49	26
3227.3	26
3228.11	24.5
3228.92	21
3229.73	24
3230.53	22.5
3231.34	22.5
3232.15	25.5
3232.96	24
3233.77	22.5
3234.58	22.5
3235.39	26
3236.19	22.5
3237	24.5
3237.81	23
3238.62	24.5
3239.43	22
3240.23	24
3241.04	19
3241.85	23
3242.66	24
3243.46	25
3244.27	23.5
3245.08	24
3245.89	27
3246.69	20
3247.5	21.5
3248.31	21
3249.11	24
3249.92	26
3250.72	24.5
3251.53	26.5
3252.34	20
3253.14	26
3253.95	27
3254.75	24.5
3255.56	23.5
3256.36	24.5
3257.17	24
3257.98	26
3258.78	22.5
3259.59	22
3260.39	25
3261.19	21
3262	26
3262.8	23
3263.61	21.5
3264.41	25.5
3265.22	25
3266.02	20.5
3266.83	19.5
3267.63	21.5
3268.43	25.5
3269.24	27
3270.04	25
3270.84	21.5
3271.65	23
3272.45	21
3273.25	25.5
3274.06	23
3274.86	22.5
3275.66	23.5
3276.46	22
3277.27	24
3278.07	24
3278.87	26
3279.67	24.5
3280.48	25
3281.28	24
3282.08	21.5
3282.88	24.5
3283.68	22
3284.48	22
3285.29	22
3286.09	22.5
3286.89	27.5
3287.69	24.5
3288.49	23.5
3289.29	24
3290.09	26.5
3290.89	24
3291.69	24.5
3292.49	21.5
3293.29	21
3294.09	22.5
3294.89	24.5
3295.69	28
3296.49	22.5
3297.29	20.5
3298.09	24.5
3298.89	21
3299.69	24
3300.49	23
3301.29	25.5
3302.09	22.5
3302.89	22.5
3303.69	24.5
3304.49	25.5
3305.28	22.5
3306.08	24.5
3306.88	21.5
3307.68	21.5
3308.48	21.5
3309.28	23.5
3310.07	24.5
3310.87	24.5
3311.67	25
3312.47	27
3313.26	21.5
3314.06	20.5
3314.86	23.5
3315.66	23.5
3316.45	23
3317.25	21.5
3318.05	23.5
3318.84	26
3319.64	24
3320.44	21
3321.23	25
3322.03	21.5
3322.83	26
3323.62	24.5
3324.42	20
3325.21	23
3326.01	21.5
3326.81	21.5
3327.6	22.5
3328.4	22
3329.19	26.5
3329.99	22
3330.78	22.5
3331.58	24
3332.37	21
3333.17	24
3333.96	20.5
3334.76	23
3335.55	22
3336.34	23.5
3337.14	21
3337.93	24
3338.73	23.5
3339.52	22
3340.31	24.5
3341.11	25
3341.9	22.5
3342.69	26
3343.49	21
3344.28	22.5
3345.07	24
3345.87	23.5
3346.66	21
3347.45	25.5
3348.25	20
3349.04	25
3349.83	23
3350.62	25
3351.42	23
3352.21	25.5
3353	27
3353.79	25.5
3354.58	24
3355.37	23.5
3356.17	24
3356.96	26
3357.75	18.5
3358.54	28
3359.33	23
3360.12	23
3360.91	26.5
3361.7	23
3362.49	24.5
3363.29	25
3364.08	22.5
3364.87	24.5
3365.66	22
3366.45	22.5
3367.24	24.5
3368.03	19
3368.82	19
3369.61	22.5
3370.4	20
3371.19	23
3371.97	18.5
3372.76	24
3373.55	26.5
3374.34	24.5
3375.13	21.5
3375.92	25
3376.71	23.5
3377.5	23
3378.29	22.5
3379.07	25
3379.86	24
3380.65	26.5
3381.44	26
3382.23	21
3383.01	22
3383.8	21
3384.59	26
3385.38	25.5
3386.16	25
3386.95	26
3387.74	23.5
3388.53	24
3389.31	26.5
3390.1	22
3390.89	25
3391.67	23
3392.46	24
3393.25	23
3394.03	23.5
3394.82	24
3395.6	24.5
3396.39	22.5
3397.18	17
3397.96	24
3398.75	23.5
3399.53	26
3400.32	23.5
3401.1	23.5
3401.89	25
3402.67	22
3403.46	21
3404.24	25.5
3405.03	25
3405.81	23.5
3406.6	24.5
3407.38	26
3408.17	22.5
3408.95	26
3409.74	24
3410.52	23.5
3411.3	22
3412.09	26.5
3412.87	22.5
3413.65	23
3414.44	23
3415.22	25
3416	21
3416.79	24.5
3417.57	23
3418.35	24
3419.14	22
3419.92	28
3420.7	21.5
3421.48	26.5
3422.27	25
3423.05	24.5
3423.83	24
3424.61	25
3425.4	23
3426.18	20.5
3426.96	23.5
3427.74	21
3428.52	23
3429.3	24.5
3430.08	24.5
3430.87	26
3431.65	24.5
3432.43	22.5
3433.21	25
3433.99	24
3434.77	21.5
3435.55	29
3436.33	25.5
3437.11	27.5
3437.89	25.5
3438.67	22
3439.45	25.5
3440.23	25
3441.01	21
3441.79	20.5
3442.57	20
3443.35	27
3444.13	24
3444.91	26
3445.69	22.5
3446.47	25
3447.25	23.5
3448.03	24
3448.8	21.5
3449.58	21
3450.36	23.5
3451.14	22
3451.92	25
3452.7	21.5
3453.47	21
3454.25	25
3455.03	23.5
3455.81	23.5
3456.59	23
3457.36	23.5
3458.14	24
3458.92	22
3459.69	25
3460.47	24.5
3461.25	23.5
3462.03	22
3462.8	25
3463.58	20
3464.36	24.5
3465.13	26.5
3465.91	20.5
3466.69	18
3467.46	26
3468.24	22.5
3469.01	25.5
3469.79	23.5
3470.57	24.5
3471.34	24
3472.12	26
3472.89	27
3473.67	20.5
3474.44	24
3475.22	24
3475.99	20.5
3476.77	21
3477.54	24.5
3478.32	22
3479.09	25
3479.87	23
3480.64	25
3481.41	21
3482.19	25
3482.96	22.5
3483.74	26
3484.51	23
3485.28	24
3486.06	22
3486.83	27.5
3487.6	22
3488.38	25
3489.15	24
3489.92	23
3490.7	21.5
3491.47	25.5
3492.24	23.5
3493.01	21
3493.79	23
3494.56	23.5
3495.33	25
3496.1	22
3496.88	22
3497.65	23.5
3498.42	24
3499.19	23
3499.96	23
