#Acq. time (s)=	5
#Accumulations=	5
#Range (cm-¹)=	100...3500
#Windows=	4
#Autofocus=	Off
#AutoExposure=	Off
#Spike filter=	Multiple accum.
#Delay time (s)=	0
#Binning=	1
#Readout mode=	Signal
#DeNoise=	Off
#ICS correction=	Off
#Dark correction=	Off
#Inst. Process=	Off
#Instrument=	LabRAM HR Evol
#Detector=	Syncerity OE
#Objective=	x100_VIS
#Grating=	600 (500nm)
#ND Filter=	25%
#Laser=	633nm_Edge
#Hole=	100.021
#Range=	Visible
#Project=	verificaciones
#Sample=	at3
#Site=	plain
#Title=	bolusat3plain
#Remark=	com
#Date=	16.01.2026 16:46
#Acquired=	16.01.2026 16:46:12
100.564	26
101.847	27
103.131	32.5
104.414	26.5
105.697	29
106.979	34
108.262	29
109.544	32
110.826	31
112.109	34
113.391	29.5
114.672	35
115.954	27
117.235	36
118.515	32.5
119.796	33.5
121.076	30.5
122.357	35
123.637	30
124.916	28.5
126.196	37
127.475	29.5
128.754	32.5
130.033	34
131.31	29.5
132.589	35.5
133.867	37.5
135.145	31
136.423	34.5
137.701	38
138.978	34
140.256	33
141.533	33
142.809	36.5
144.086	30.5
145.361	38.5
146.637	39
147.913	39.5
149.189	39.5
150.464	39.5
151.74	43.5
153.014	41.5
154.288	33
155.563	42.5
156.838	43
158.112	43.5
159.385	42
160.659	42
161.932	38.5
163.206	40
164.479	42.5
165.751	38.5
167.024	37
168.296	46
169.567	40.5
170.84	41.5
172.112	41.5
173.383	37
174.654	43
175.925	38
177.196	39
178.466	37
179.737	40.5
181.007	39.5
182.276	44.5
183.546	42.5
184.816	44.5
186.085	41
187.354	44
188.624	40.5
189.891	43.5
191.16	38
192.427	41.5
193.696	44
194.964	40.5
196.231	39.5
197.499	37
198.765	42
200.033	38.5
201.298	38.5
202.566	36
203.831	36
205.098	42.5
206.363	35
207.629	35.5
208.894	35.5
210.159	36.5
211.424	35.5
212.689	35
213.953	40
215.218	30
216.481	35.5
217.746	36
219.009	33
220.273	33.5
221.536	28.5
222.798	31.5
224.062	37.5
225.323	34
226.587	37
227.848	30
229.109	35
230.372	32.5
231.633	31
232.894	33.5
234.156	33.5
235.416	30
236.678	31.5
237.937	32.5
239.197	30
240.457	28
241.717	34.5
242.976	32.5
244.235	25.5
245.495	27
246.754	28
248.012	29.5
249.27	26
250.529	29.5
251.787	29.5
253.045	29
254.302	29.5
255.56	30.5
256.817	33
258.074	26.5
259.33	27
260.586	28
261.844	28
263.1	32
264.355	28
265.611	31
266.866	26
268.121	29
269.377	32
270.632	33
271.886	27
273.14	31.5
274.394	25.5
275.648	29
276.902	24
278.155	28.5
279.408	30
280.663	27
281.915	30.5
283.168	26
284.42	30.5
285.673	26.5
286.925	28.5
288.176	26.5
289.428	31
290.679	26.5
291.93	27.5
293.181	31.5
294.432	27.5
295.683	29.5
296.933	28.5
298.183	30
299.433	29
300.683	30.5
301.932	32
303.182	25.5
304.429	27
305.678	26
306.927	30.5
308.176	26
309.424	26
310.672	27
311.92	25
313.168	29
314.415	26
315.661	32.5
316.908	30
318.155	26.5
319.402	27
320.648	28.5
321.895	25.5
323.139	31
324.385	29
325.631	26
326.877	28.5
328.122	27
329.366	30.5
330.611	24
331.855	27.5
333.1	22
334.343	29
335.587	27.5
336.831	32
338.074	27.5
339.317	30
340.56	27.5
341.803	24.5
343.044	25
344.287	28
345.53	26.5
346.771	28
348.013	27.5
349.255	28
350.495	26
351.736	26.5
352.978	30
354.217	32.5
355.458	25.5
356.699	25
357.938	28
359.178	31.5
360.417	28.5
361.657	28.5
362.895	30
364.135	31
365.374	30.5
366.612	29
367.851	29
369.088	29
370.327	29
371.564	28
372.802	31.5
374.038	32
375.276	24.5
376.512	28.5
377.749	29
378.985	27
380.222	25
381.457	29
382.692	25
383.929	23
385.164	27
386.4	26.5
387.634	27
388.869	33
390.103	24.5
391.337	30
392.572	26
393.805	27
395.038	28
396.273	29
397.506	24
398.74	30
399.972	23.5
401.204	29
402.437	28
403.669	27
404.901	29
406.132	33
407.365	26
408.596	26.5
409.826	27.5
411.058	30
412.289	28.5
413.519	31.5
414.749	25.5
415.98	30.5
417.21	29
418.439	24
419.668	28
420.897	31
422.128	29
423.356	28.5
424.585	30.5
425.813	26
427.041	25.5
428.269	29.5
429.498	22.5
430.725	28.5
431.952	31
433.179	28.5
434.406	27.5
435.633	28
436.859	25
438.085	29.5
439.312	28.5
440.537	27
441.764	31
442.99	34
444.215	28.5
445.44	26.5
446.665	31
447.89	27
449.114	29
450.339	26
451.563	26.5
452.787	31
454.01	30.5
455.234	32
456.457	30
457.68	27
458.903	29.5
460.126	30.5
461.348	31
462.569	29.5
463.792	32
465.013	29
466.235	31
467.457	36
468.678	32
469.899	31.5
471.12	36
472.341	36.5
473.56	37
474.781	43
476.001	38.5
477.221	41
478.441	45.5
479.66	43
480.878	53.5
482.098	53.5
483.317	53.5
484.535	56.5
485.754	60
486.971	61.5
488.189	61
489.407	67.5
490.625	59.5
491.842	55.5
493.059	58.5
494.276	57
495.493	54
496.709	51.5
497.926	47
499.142	46.5
500.357	42.5
501.573	48
502.789	43.5
504.003	43
505.219	37.5
506.434	40
507.648	39
508.863	36
510.078	39
511.291	35.5
512.505	32
513.718	37.5
514.932	31
516.145	37.5
517.358	32.5
518.572	33
519.783	32
520.997	31
522.208	28
523.421	32
524.632	31.5
525.844	30.5
527.055	31.5
528.266	33.5
529.477	31.5
530.688	29
531.898	30
533.109	28
534.319	30.5
535.53	30.5
536.739	30.5
537.948	30
539.158	28
540.366	28
541.576	29.5
542.784	27.5
543.994	26.5
545.201	29.5
546.409	33
547.618	30
548.825	28
550.032	24
551.24	33
552.447	25
553.654	33.5
554.861	27
556.067	27
557.273	25
558.48	28
559.686	31
560.891	28
562.096	29.5
563.302	26
564.507	26
565.712	28
566.916	27.5
568.122	28
569.326	27.5
570.529	28.5
571.733	27.5
572.936	28
574.141	28.5
575.344	28
576.547	31
577.75	25.5
578.952	23
580.154	28.5
581.358	26.5
582.56	29
583.761	31.5
584.963	26
586.164	29.5
587.365	30.5
588.566	32.5
589.767	27.5
590.967	29.5
592.168	26.5
593.369	30
594.569	24.5
595.769	33.5
596.969	30
598.168	25
599.367	27
600.566	26.5
601.765	27.5
602.964	23
604.162	25.5
605.361	27
606.559	28.5
607.757	27.5
608.953	25
610.151	27
611.348	31
612.545	28
613.742	27.5
614.939	26.5
616.135	29
617.332	30
618.528	29.5
619.724	27.5
620.918	28
622.114	29
623.309	31
624.505	27.5
625.7	28
626.895	27
628.088	30
629.282	28.5
630.477	27.5
631.671	28
632.865	29
634.057	27
635.251	29
636.444	30
637.637	29.5
638.829	29
640.022	30.5
641.214	30
642.407	27.5
643.598	27
644.79	31
645.982	28.5
647.172	27
648.364	28
649.555	28
650.745	29
651.936	28
653.126	28
654.315	29
655.506	26
656.696	31
657.885	27
659.074	26
660.263	31.5
661.452	30
662.64	32
663.829	25
665.018	28
666.205	33
667.394	32.5
668.581	29
669.769	32.5
670.955	32
672.143	33
673.329	33
674.517	26.5
675.703	30.5
676.89	31.5
678.075	34.5
679.262	28
680.447	35
681.632	32
682.818	35.5
684.002	33
685.188	39
686.372	35.5
687.556	36
688.741	33
689.925	38
691.11	36.5
692.293	34.5
693.476	36
694.66	34
695.843	34
697.025	34
698.209	36.5
699.391	34
700.573	37.5
701.756	42
702.938	39
704.119	43
705.3	47
706.483	51
707.664	53.5
708.844	60
710.025	47.5
711.206	47.5
712.386	42.5
713.566	42
714.746	38
715.925	40
717.106	37
718.285	30
719.464	32
720.643	30.5
721.822	32
723	28.5
724.178	31.5
725.358	30
726.536	29.5
727.713	29.5
728.891	31
730.068	28
731.245	25.5
732.422	27.5
733.599	28.5
734.775	31.5
735.952	27.5
737.128	31
738.304	26
739.48	29
740.656	23
741.831	30.5
743.006	28
744.181	25
745.356	23
746.531	28
747.706	29.5
748.88	29
750.054	26.5
751.228	24.5
752.402	23.5
753.576	29
754.749	23
755.922	25
757.095	28.5
758.267	29.5
759.44	29
760.612	30
761.785	25
762.957	28.5
764.129	23.5
765.301	27
766.471	26
767.642	28.5
768.814	28.5
769.985	28.5
771.156	26
772.325	30
773.495	27.5
774.666	30.5
775.836	25.5
777.005	29.5
778.174	32.5
779.344	23.5
780.513	28.5
781.681	31
782.85	28.5
784.019	29
785.187	33
786.355	31.5
787.523	31.5
788.69	29
789.858	30.5
791.026	30.5
792.192	31
793.36	29.5
794.526	32.5
795.693	26.5
796.86	29
798.025	23.5
799.191	31.5
800.356	29.5
801.523	36
802.689	31
803.853	29
805.019	31
806.183	31
807.348	27.5
808.512	32.5
809.677	29.5
810.84	26.5
812.005	31.5
813.167	28
814.332	29.5
815.494	32.5
816.657	27.5
817.82	29
818.982	24.5
820.146	25.5
821.307	27
822.47	28.5
823.632	22
824.793	28
825.955	30
827.116	27.5
828.277	24.5
829.439	24
830.599	27
831.759	23.5
832.92	25.5
834.08	30
835.24	26.5
836.4	27.5
837.56	27
838.719	26.5
839.877	29.5
841.037	24
842.196	29
843.354	28.5
844.512	29
845.672	27
846.83	26
847.987	28.5
849.145	27
850.302	28.5
851.46	25.5
852.617	29
853.774	31
854.93	24
856.087	27.5
857.243	25
858.4	28
859.556	28.5
860.712	31
861.867	28
863.022	34.5
864.177	33
865.332	34
866.487	28
867.642	29.5
868.796	32
869.95	29
871.104	28.5
872.258	26
873.412	24
874.565	26
875.718	30
876.872	23
878.024	28
879.177	26.5
880.33	27
881.482	28
882.635	28.5
883.787	27.5
884.938	24.5
886.09	26
887.242	27.5
888.393	27.5
889.544	28
890.695	23
891.845	27
892.995	27
894.146	28
895.296	29
896.446	26
897.596	28.5
898.744	29
899.894	29
901.043	25.5
902.193	24.5
903.342	29
904.489	26
905.638	24.5
906.786	23
907.935	25.5
909.081	25
910.229	28
911.377	26
912.525	29
913.671	29
914.818	27.5
915.965	26
917.111	26.5
918.258	26.5
919.404	23.5
920.549	27
921.695	26.5
922.84	24
923.986	32
925.132	27.5
926.276	27
927.421	29.5
928.565	25
929.71	26.5
930.855	24.5
931.998	24.5
933.142	23
934.285	27.5
935.429	27
936.572	25
937.716	26.5
938.858	27.5
940.001	25
941.143	27.5
942.286	23.5
943.428	24
944.57	25
945.712	30.5
946.854	27
947.995	27.5
949.135	24.5
950.277	26.5
951.418	20
952.559	25
953.699	25
954.839	27
955.98	25
957.119	30
958.258	26.5
959.399	25
960.538	23
961.676	25
962.816	32
963.955	25.5
965.093	25.5
966.232	22.5
967.37	28.5
968.508	27.5
969.645	28.5
970.784	28.75
971.921	28
973.058	24
974.195	21
975.333	21.5
976.469	28
977.605	24
978.741	25.5
979.877	26
981.013	24
982.15	29.5
983.285	29
984.421	23.5
985.556	26
986.691	19.5
987.825	22
988.96	25
990.094	25
991.228	27
992.364	25.5
993.497	25.5
994.631	27.5
995.765	27
996.898	22
998.031	23
999.164	23
1000.3	24
1001.43	20
1002.56	29.5
1003.69	25
1004.83	26.5
1005.96	27
1007.09	26.5
1008.22	29.5
1009.35	23
1010.48	26
1011.61	23
1012.74	27.5
1013.88	26
1015.01	23
1016.14	26.5
1017.27	24.5
1018.4	24
1019.53	25.5
1020.65	25
1021.78	24.5
1022.91	28
1024.04	24
1025.17	28
1026.3	28
1027.43	23.5
1028.56	26
1029.68	24
1030.81	24
1031.94	27.5
1033.07	29.5
1034.19	26.5
1035.32	25
1036.45	27
1037.58	22
1038.7	24
1039.83	23
1040.95	22
1042.08	28
1043.21	24.5
1044.33	24
1045.46	26
1046.58	30
1047.71	27
1048.83	23.5
1049.96	25.5
1051.08	27.5
1052.21	23.5
1053.33	23
1054.45	25.5
1055.58	27
1056.7	25.5
1057.82	28.5
1058.95	24.5
1060.07	26
1061.19	26.5
1062.32	29
1063.44	28
1064.56	26
1065.68	25
1066.81	26
1067.93	30
1069.05	21
1070.17	25.5
1071.29	28
1072.41	26.5
1073.53	24
1074.65	24.5
1075.77	25
1076.89	25
1078.01	25
1079.13	27.5
1080.25	24.5
1081.37	26
1082.49	25.5
1083.61	19
1084.73	26
1085.85	26
1086.97	22
1088.09	28
1089.2	28
1090.32	27.5
1091.44	26
1092.56	24.5
1093.68	24
1094.79	24
1095.91	23.5
1097.03	25
1098.14	26
1099.26	23.5
1100.38	25
1101.49	31
1102.61	29.5
1103.73	22
1104.84	27
1105.96	26.5
1107.07	23.5
1108.19	28
1109.3	25
1110.42	23.5
1111.53	23
1112.65	22.5
1113.76	26
1114.88	29
1115.99	25
1117.1	27
1118.22	23
1119.33	25.5
1120.44	24.5
1121.56	21
1122.67	25
1123.78	24
1124.89	21
1126.01	26
1127.12	27
1128.23	29.5
1129.34	28
1130.45	26
1131.56	22
1132.67	21.5
1133.79	29
1134.9	25
1136.01	29
1137.12	20
1138.23	23.5
1139.34	24.5
1140.45	26
1141.56	22
1142.67	23.5
1143.78	23.5
1144.89	24
1145.99	25
1147.1	27.5
1148.21	27
1149.32	25
1150.43	29
1151.54	24.5
1152.65	27.5
1153.75	25.5
1154.86	25.5
1155.97	27
1157.08	25.5
1158.18	28.5
1159.29	24.5
1160.4	22.5
1161.5	25
1162.61	24
1163.72	24.5
1164.82	24
1165.93	25.5
1167.03	22.5
1168.14	27
1169.24	26
1170.35	24.5
1171.45	24.5
1172.56	22.5
1173.66	25
1174.77	24
1175.87	25
1176.98	25
1178.08	24.5
1179.18	23
1180.29	28
1181.39	26
1182.49	24
1183.6	22
1184.7	22
1185.8	27.5
1186.9	24.5
1188	25
1189.11	23
1190.21	27
1191.31	26.5
1192.41	24
1193.51	23
1194.61	22.5347
1195.72	26.4226
1196.82	22.0985
1197.92	26.0052
1199.02	23.9564
1200.12	21.8483
1201.22	26.6122
1202.32	24.446
1203.42	24.2486
1204.52	24.6469
1205.62	27.0076
1206.71	24.8523
1207.81	21.3666
1208.91	23.8865
1210.01	23.2368
1211.11	19.6143
1212.21	23.2021
1213.31	20.8465
1214.4	26.9384
1215.5	23.1893
1216.6	24.3733
1217.7	20.822
1218.79	23.038
1219.89	25.4319
1220.99	23.9983
1222.08	23.8723
1223.18	23.8621
1224.28	25.1335
1225.37	24.0534
1226.47	25.933
1227.56	23.3397
1228.66	24.4319
1229.76	24.6173
1230.85	21.9954
1231.95	24.6343
1233.04	24.996
1234.14	22.0631
1235.23	24.9828
1236.32	21.8824
1237.42	26.028
1238.51	24.2211
1239.61	24.456
1240.7	21.0555
1241.79	22.5422
1242.89	23.1765
1243.98	22.1733
1245.07	24
1246.17	24.4172
1247.26	22.8813
1248.35	22.8043
1249.44	26.1206
1250.53	23.7789
1251.63	24.5821
1252.72	23.3572
1253.81	24.4852
1254.9	26.4223
1255.99	25.4896
1257.08	24.0452
1258.17	24.7791
1259.27	22.2114
1260.36	24.2667
1261.45	27.2919
1262.54	24.9435
1263.63	24.903
1264.72	25.5247
1265.81	24.2441
1266.89	25.2011
1267.98	28.4766
1269.07	27.9617
1270.16	23.3888
1271.25	23.9318
1272.34	23.5266
1273.43	24.1656
1274.52	24.3243
1275.6	25.0561
1276.69	26.5386
1277.78	26.7542
1278.87	25.2597
1279.95	25.7172
1281.04	25.1946
1282.13	24.8534
1283.22	22.4948
1284.3	22.7556
1285.39	24.3695
1286.48	21.5258
1287.56	20.7459
1288.65	25.5565
1289.73	27.2476
1290.82	25.4814
1291.9	24.0412
1292.99	25.1716
1294.07	23.2737
1295.16	22.7675
1296.24	27.0642
1297.33	24.4893
1298.41	22.2263
1299.5	24.6745
1300.58	22.88
1301.66	22.4687
1302.75	25.2283
1303.83	26.7049
1304.91	24.1181
1306	22.8084
1306.4	23
1307.48	26
1308.57	26
1309.66	24.5
1310.75	25
1311.84	23
1312.92	22.5
1314.01	24
1315.1	23
1316.18	25.5
1317.27	21
1318.36	22.5
1319.44	22.5
1320.53	24
1321.62	23.5
1322.7	25
1323.79	24
1324.87	23.5
1325.96	23.5
1327.04	21.5
1328.13	24.5
1329.21	18
1330.3	21.5
1331.38	26
1332.47	25.5
1333.55	24
1334.64	22
1335.72	24.5
1336.8	24.5
1337.89	24
1338.97	25
1340.05	23
1341.14	24
1342.22	25
1343.3	26
1344.38	23
1345.47	19.5
1346.55	22
1347.63	23
1348.71	22
1349.79	24.5
1350.87	22
1351.96	26.5
1353.04	20
1354.12	25.5
1355.2	26.5
1356.28	25.5
1357.36	23
1358.44	23.5
1359.52	25.5
1360.6	24.5
1361.68	26
1362.76	22.5
1363.84	25
1364.92	26.5
1366	21
1367.07	27
1368.15	22.5
1369.23	25
1370.31	23
1371.39	21.5
1372.47	26
1373.54	24
1374.62	24.5
1375.7	27
1376.78	25.5
1377.85	22
1378.93	29.5
1380.01	27
1381.08	28.5
1382.16	24.5
1383.24	25
1384.31	24.5
1385.39	27
1386.46	22
1387.54	25.5
1388.61	25.5
1389.69	31
1390.76	24.5
1391.84	24.5
1392.91	26
1393.99	26.5
1395.06	26.5
1396.14	28.5
1397.21	26.5
1398.29	29.5
1399.36	31.5
1400.43	24
1401.51	29.5
1402.58	27
1403.65	31
1404.72	25.5
1405.8	29.5
1406.87	30
1407.94	34
1409.02	33.5
1410.09	32
1411.16	34
1412.23	32
1413.3	31
1414.37	35
1415.44	30
1416.51	28.5
1417.59	31
1418.66	29
1419.73	32
1420.8	29
1421.87	20
1422.94	28
1424.01	28.5
1425.08	31.5
1426.15	25
1427.22	24
1428.28	26.5
1429.35	27
1430.42	22
1431.49	28.5
1432.56	24
1433.63	22.5
1434.7	28
1435.76	22
1436.83	28.5
1437.9	26.5
1438.97	27
1440.03	25.5
1441.1	31.5
1442.17	23
1443.23	26
1444.3	24.5
1445.37	21.5
1446.43	27
1447.5	23
1448.57	26.5
1449.63	27
1450.7	30.5
1451.76	22
1452.83	23.5
1453.89	27.5
1454.96	22.5
1456.02	29
1457.09	27
1458.15	23.5
1459.22	27
1460.28	26
1461.34	26
1462.41	24
1463.47	26.5
1464.53	28.5
1465.6	23.5
1466.66	26.5
1467.72	24
1468.78	24
1469.85	24
1470.91	24.5
1471.97	27.5
1473.03	25
1474.1	28
1475.16	24.5
1476.22	24.5
1477.28	24
1478.34	23
1479.4	25.5
1480.46	25
1481.52	22
1482.58	28
1483.65	22.5
1484.71	27
1485.77	28.5
1486.82	23.5
1487.89	24.5
1488.94	26.5
1490	23.5
1491.06	28
1492.12	29.5
1493.18	28
1494.24	25
1495.3	25.5
1496.36	25.5
1497.41	27.5
1498.47	23.5
1499.53	24
1500.59	29
1501.65	27
1502.7	25
1503.76	24
1504.82	27.5
1505.87	24.5
1506.93	25
1507.99	25
1509.04	26.5
1510.1	27
1511.16	27
1512.21	23
1513.27	21.5
1514.32	28.5
1515.38	26.5
1516.43	25.5
1517.49	21
1518.54	26
1519.6	27
1520.65	25
1521.71	30
1522.76	26
1523.81	25
1524.87	25.5
1525.92	23
1526.98	24.5
1528.03	25.5
1529.08	26.5
1530.14	25.5
1531.19	31.5
1532.24	28
1533.29	25
1534.35	31
1535.4	23
1536.45	31
1537.5	26.5
1538.55	25.5
1539.61	23
1540.66	27
1541.71	24.5
1542.76	21
1543.81	26
1544.86	25.5
1545.91	29
1546.96	26
1548.01	23
1549.06	27
1550.11	25.5
1551.16	23
1552.21	25.5
1553.26	21.5
1554.31	26.5
1555.36	23.5
1556.41	27.5
1557.46	22.5
1558.5	27
1559.55	24
1560.6	29
1561.65	25
1562.7	23.5
1563.74	24.5
1564.79	27.5
1565.84	25.5
1566.89	25.5
1567.93	30.5
1568.98	25
1570.03	28
1571.07	23
1572.12	25
1573.17	26.5
1574.21	26.5
1575.26	23.5
1576.3	26
1577.35	28.5
1578.4	23
1579.44	23
1580.49	26
1581.53	26.5
1582.58	27.5
1583.62	24.5
1584.66	26.5
1585.71	24.5
1586.75	24.5
1587.8	21
1588.84	25
1589.88	26
1590.93	19
1591.97	27
1593.01	28.5
1594.06	26
1595.1	29.5
1596.14	23
1597.18	26
1598.23	25.5
1599.27	24.5
1600.31	25.5
1601.35	28
1602.39	20
1603.44	26
1604.48	26.5
1605.52	30
1606.56	25.5
1607.6	23.5
1608.64	28.5
1609.68	25.5
1610.72	23.5
1611.76	22
1612.8	24
1613.84	25.5
1614.88	24.5
1615.92	25
1616.96	22.5
1618	29.5
1619.04	25.5
1620.08	25.5
1621.12	24
1622.16	24
1623.19	27
1624.23	28
1625.27	26.5
1626.31	27
1627.35	24.5
1628.38	23
1629.42	27
1630.46	23.5
1631.49	24
1632.53	27
1633.57	22.5
1634.6	27
1635.64	26
1636.68	29.5
1637.71	24
1638.75	26.5
1639.79	27
1640.82	27
1641.86	32
1642.89	23
1643.93	28
1644.96	23.5
1646	26
1647.03	25.5
1648.07	23.5
1649.1	26
1650.13	25
1651.17	25
1652.2	22.5
1653.24	25
1654.27	25.5
1655.3	25.5
1656.34	18.5
1657.37	24.5
1658.4	23.5
1659.43	25
1660.47	24.5
1661.5	22
1662.53	26.5
1663.56	24.5
1664.6	20.5
1665.63	25
1666.66	25.5
1667.69	25.5
1668.72	22
1669.75	29
1670.78	26
1671.81	27
1672.85	23
1673.88	26
1674.91	24
1675.94	25
1676.97	27.5
1678	28.5
1679.03	27.5
1680.06	21.5
1681.09	20.5
1682.11	27
1683.14	23.5
1684.17	26
1685.2	23.5
1686.23	28.5
1687.26	24.5
1688.29	26.5
1689.31	25
1690.34	30
1691.37	23
1692.4	27
1693.42	27
1694.45	27.5
1695.48	25
1696.51	24
1697.53	26
1698.56	24.5
1699.59	19
1700.61	26.5
1701.64	24.5
1702.66	23
1703.69	24.5
1704.72	26.5
1705.74	22
1706.77	20.5
1707.79	29.5
1708.82	25
1709.84	24
1710.87	23.5
1711.89	28
1712.91	20
1713.94	23.5
1714.96	24
1715.99	26
1717.01	26.5
1718.03	21.5
1719.06	29
1720.08	26.5
1721.1	24.5
1722.13	24
1723.15	22.5
1724.17	25
1725.19	24
1726.22	27.5
1727.24	27.5
1728.26	22
1729.28	26.5
1730.3	23.5
1731.33	26
1732.35	26
1733.37	19
1734.39	25
1735.41	23.5
1736.43	22
1737.45	25
1738.47	22.5
1739.49	21.5
1740.51	28
1741.53	28.5
1742.55	23.5
1743.57	25
1744.59	25.5
1745.61	25.5
1746.63	24
1747.65	26
1748.67	25.5
1749.69	26
1750.7	26.5
1751.72	26
1752.74	26
1753.76	24
1754.78	26
1755.79	28
1756.81	23
1757.83	25.5
1758.85	22.5
1759.86	29.5
1760.88	25
1761.9	23.5
1762.91	21
1763.93	23
1764.95	22.5
1765.96	23
1766.98	23
1767.99	26
1769.01	25
1770.02	23
1771.04	22
1772.06	23
1773.07	21.5
1774.09	25
1775.1	24.5
1776.11	22
1777.13	25.5
1778.14	23.5
1779.16	24
1780.17	25
1781.18	29.5
1782.2	24.5
1783.21	26.5
1784.22	21.5
1785.24	26
1786.25	26.5
1787.26	25.5
1788.28	25
1789.29	27
1790.3	25.5
1791.31	24
1792.33	25
1793.34	25
1794.35	25
1795.36	26.5
1796.37	29.5
1797.38	21.5
1798.39	23.5
1799.4	24.5
1800.42	24
1801.43	26
1802.44	23
1803.45	26
1804.46	24
1805.47	26
1806.48	26
1807.49	20
1808.5	28
1809.51	24
1810.51	27
1811.52	28.5
1812.53	23
1813.54	25.5
1814.55	26.5
1815.56	24
1816.57	26.5
1817.57	25.5
1818.58	24
1819.59	21
1820.6	26
1821.61	27.5
1822.61	21.5
1823.62	21
1824.63	23.5
1825.63	25
1826.64	26
1827.65	24
1828.65	23.5
1829.66	26
1830.67	26
1831.67	27.5
1832.68	23
1833.68	26
1834.69	26
1835.69	23.5
1836.7	22
1837.7	24
1838.71	24.5
1839.71	27
1840.72	26
1841.72	24
1842.73	32.5
1843.73	23
1844.73	22.5
1845.74	23
1846.74	23
1847.74	27.5
1848.75	21
1849.75	24
1850.75	22.5
1851.76	23
1852.76	27
1853.76	28
1854.76	23
1855.77	24.5
1856.77	22.5
1857.77	26.5
1858.77	20
1859.77	24
1860.77	24.5
1861.78	28
1862.78	23.5
1863.78	25.5
1864.78	26.5
1865.78	24.5
1866.78	26
1867.78	25
1868.78	23
1869.78	25
1870.78	24.5
1871.78	26
1872.78	24
1873.78	20.5
1874.78	24.5
1875.78	24
1876.78	22.5
1877.78	24
1878.77	19
1879.77	20
1880.77	26.5
1881.77	25
1882.77	23.5
1883.77	24.5
1884.76	27
1885.76	17
1886.76	23.5
1887.75	23
1888.75	24
1889.75	21
1890.75	28
1891.74	21
1892.74	21
1893.73	24.5
1894.73	24.5
1895.73	24.5
1896.72	21.5
1897.72	28.5
1898.71	24.5
1899.71	25
1900.7	22.5
1901.7	22.5
1902.69	25.5
1903.69	25.5
1904.68	23.5
1905.68	24.5
1906.67	24
1907.67	27.5
1908.66	22
1909.65	23.5
1910.65	23.5
1911.64	24.5
1912.63	24.5
1913.63	24.5
1914.62	25.5
1915.61	29
1916.61	20.5
1917.6	25
1918.59	26
1919.58	23
1920.58	19.5
1921.57	25
1922.56	26
1923.55	24
1924.54	24.5
1925.54	26
1926.53	25
1927.52	21
1928.51	28
1929.5	23
1930.49	21
1931.48	24
1932.47	25.5
1933.46	25.5
1934.45	19.5
1935.44	23
1936.43	22
1937.42	24.5
1938.41	23
1939.4	26
1940.39	22.5
1941.38	23
1942.37	26
1943.35	24
1944.34	24.5
1945.33	21
1946.32	21
1947.31	22.5
1948.3	23.5
1949.28	22.5
1950.27	25
1951.26	24
1952.25	23.5
1953.23	21.5
1954.22	24
1955.21	21
1956.19	20.5
1957.18	21.5
1958.17	25
1959.15	23
1960.14	25.5
1961.12	24.5
1962.11	25.5
1963.1	21.5
1964.08	22
1965.07	20
1966.05	23
1967.04	24
1968.02	28
1969.01	27
1969.99	24
1970.98	25
1971.96	22.5
1972.94	23
1973.93	21.5
1974.91	23.5
1975.9	24
1976.88	22.5
1977.86	24
1978.85	28
1979.83	25.5
1980.81	29.5
1981.79	22.5
1982.78	24
1983.76	22.5
1984.74	25
1985.72	24.5
1986.71	25
1987.69	22
1988.67	21
1989.65	23
1990.63	24
1991.61	23
1992.59	23
1993.57	24
1994.56	21.5
1995.54	22
1996.52	20.5
1997.5	22
1998.48	26
1999.46	21.5
2000.44	23.5
2001.42	22.5
2002.4	25
2003.38	24.5
2004.36	24
2005.33	24
2006.31	25
2007.29	22
2008.27	24.5
2009.25	26
2010.23	25
2011.21	21.5
2012.18	23
2013.16	23.5
2014.14	21.5
2015.12	24
2016.09	22
2017.07	25
2018.05	23
2019.03	23.5
2020	24.5
2020.98	23.5
2021.96	23
2022.93	24
2023.91	24.5
2024.89	21
2025.86	25.5
2026.84	25
2027.81	25.5
2028.79	23.5
2029.76	22
2030.74	26
2031.71	25
2032.69	24
2033.66	24.5
2034.64	20.5
2035.61	22
2036.59	23.5
2037.56	25.5
2038.54	24
2039.51	22.5
2040.48	24
2041.46	23.5
2042.43	24
2043.4	24.5
2044.38	21.5
2045.35	25
2046.32	23
2047.29	20.5
2048.27	22
2049.24	24
2050.21	25
2051.18	24
2052.16	25
2053.13	22
2054.1	27
2055.07	22
2056.04	22
2057.01	23
2057.98	26
2058.96	21.5
2059.93	24
2060.9	22
2061.87	26.5
2062.84	23
2063.81	24.5
2064.78	26
2065.75	25
2066.72	26
2067.69	23
2068.66	22
2069.63	27
2070.6	22.5
2071.56	19
2072.53	24
2073.5	22
2074.47	24.5
2075.44	28.5
2076.41	24.5
2077.38	24
2078.34	23
2079.31	25
2080.28	23
2081.25	20
2082.21	24.5
2083.18	23.5
2084.15	21.5
2085.11	24
2086.08	24
2087.05	24.5
2088.01	24.5
2088.98	21.5
2089.95	23.5
2090.91	23
2091.88	19.5
2092.84	25.5
2093.81	16.5
2094.78	22
2095.74	20.5
2096.71	23
2097.67	24
2098.64	23
2099.6	29
2100.57	23
2101.53	21
2102.49	18
2103.46	25
2104.42	23.5
2105.39	19
2106.35	27.5
2107.31	22
2108.28	27
2109.24	25
2110.2	26.5
2111.17	22
2112.13	23
2113.09	24
2114.05	25.5
2115.02	19.5
2115.98	25.5
2116.94	26
2117.9	24.5
2118.86	24
2119.83	25
2120.79	25.5
2121.75	19
2122.71	22.5
2123.67	23.5
2124.63	23.5
2125.59	20.5
2126.55	26.5
2127.51	20.5
2128.47	24.5
2129.43	23
2130.39	23
2131.35	21
2132.31	28
2133.27	18
2134.23	25
2135.19	24
2136.15	26
2137.11	18
2138.07	22.5
2139.03	24
2139.99	19.5
2140.94	21
2141.9	23.5
2142.86	24.9752
2143.82	18.9924
2144.78	20.0537
2145.73	23.917
2146.69	24.4584
2147.65	23.3979
2148.61	18.6938
2149.56	26.9416
2150.52	24.751
2151.48	24.9395
2152.43	26.1559
2153.39	23.2696
2154.35	22.6051
2155.3	24.3594
2156.26	23.5334
2157.21	20.2821
2158.17	24.3109
2159.13	23.9547
2160.08	21.93
2161.04	22.5798
2161.99	22.345
2162.95	21.4337
2163.9	23.1822
2164.86	22.1141
2165.81	22.8524
2166.77	23.2296
2167.72	20.2607
2168.67	19.8104
2169.63	22.2517
2170.58	22.237
2171.54	23.6965
2172.49	23.9502
2173.44	21.1439
2174.4	21.9123
2175.35	22.5151
2176.3	23.6128
2177.26	21.9868
2178.21	25.0819
2179.16	23.1267
2180.11	22.7919
2181.07	22.1091
2182.02	20.9975
2182.97	23.2533
2183.92	23.7654
2184.87	21.5588
2185.82	22.3316
2186.78	22.1009
2187.73	22.6917
2188.68	20.3717
2189.63	23.1821
2190.58	24.0638
2191.53	21.5426
2192.48	21.6881
2193.43	21.0876
2194.38	22.4126
2195.33	23.1286
2196.28	24.2092
2197.23	24.8986
2198.18	22.6449
2199.13	22.8232
2200.08	22.7701
2201.03	22.0646
2201.98	22.6966
2202.93	26.019
2203.88	23.842
2204.83	22.5632
2205.77	23.0863
2206.72	22.8277
2207.67	23.0504
2208.62	20.6631
2209.57	20.1572
2210.52	20.1949
2211.46	22.8048
2212.41	22.1815
2213.36	23.3807
2214.31	22.8006
2215.25	19.495
2216.2	18.3518
2217.15	21.52
2218.09	22.0801
2219.04	19.162
2219.99	19.5631
2220.93	20.8089
2221.88	20.568
2222.82	23.7563
2223.77	25.0752
2224.72	22.0547
2225.66	22.7798
2226.61	23.8592
2227.55	22.9629
2228.5	22
2229.44	21.0191
2230.39	20.6019
2231.33	23.0911
2232.28	23.8388
2233.22	24.091
2234.16	24.4684
2235.11	21.3353
2236.05	21.8687
2237	23.6267
2237.94	25.5495
2238.88	24.7857
2239.83	21.6475
2240.13	20.5
2241.08	23
2242.03	23
2242.98	23
2243.92	22.5
2244.87	24.5
2245.82	21
2246.76	22.5
2247.71	24
2248.66	24
2249.61	23.5
2250.55	21
2251.5	19.5
2252.45	18
2253.39	23.5
2254.34	23
2255.28	21.5
2256.23	24
2257.18	22
2258.12	19.5
2259.07	21
2260.01	19
2260.96	27
2261.9	24
2262.85	20
2263.79	24
2264.74	24.5
2265.68	22.5
2266.63	27
2267.57	24
2268.51	24.5
2269.46	24
2270.4	20
2271.35	24
2272.29	23
2273.23	21.5
2274.18	20
2275.12	24
2276.06	23
2277	21
2277.95	22
2278.89	20.5
2279.83	18.5
2280.78	21
2281.72	22
2282.66	20.5
2283.6	24
2284.54	24.5
2285.48	25
2286.43	22.5
2287.37	21.5
2288.31	20.5
2289.25	21
2290.19	20.5
2291.13	24.5
2292.07	24.5
2293.01	27.5
2293.95	24
2294.89	21
2295.83	19
2296.77	24
2297.71	21
2298.65	22.5
2299.59	19.5
2300.53	22
2301.47	22.5
2302.41	24
2303.35	25
2304.29	19
2305.22	22
2306.16	22.5
2307.1	22
2308.04	24.5
2308.98	24.5
2309.91	19
2310.85	22
2311.79	22.5
2312.73	23
2313.66	23
2314.6	21.5
2315.54	23.5
2316.48	23
2317.41	21.5
2318.35	25
2319.29	21
2320.22	24.5
2321.16	23.5
2322.09	25.5
2323.03	22.5
2323.97	23
2324.9	24.5
2325.84	22.5
2326.77	23.5
2327.71	22.5
2328.64	22
2329.58	21.5
2330.51	21.5
2331.45	25
2332.38	22.5
2333.32	21.5
2334.25	22
2335.18	25
2336.12	20
2337.05	23
2337.99	22
2338.92	24.5
2339.85	22
2340.79	24.5
2341.72	21.5
2342.65	20
2343.59	28
2344.52	21.5
2345.45	25
2346.38	24
2347.32	24.5
2348.25	22.5
2349.18	28
2350.11	21
2351.04	23
2351.98	22
2352.91	26.5
2353.84	23.5
2354.77	23.5
2355.7	23.5
2356.63	23.5
2357.56	25
2358.49	26
2359.42	29
2360.35	24
2361.28	23.5
2362.21	24
2363.14	22
2364.07	24
2365	23.5
2365.93	24.5
2366.86	25
2367.79	23
2368.72	22.5
2369.65	23
2370.58	22.5
2371.51	24.5
2372.44	24.5
2373.36	25
2374.29	25.5
2375.22	23.5
2376.15	20
2377.08	24
2378	22.5
2378.93	17
2379.86	24
2380.79	20
2381.71	23.5
2382.64	23.5
2383.57	26
2384.49	22
2385.42	24.5
2386.35	23
2387.27	22.5
2388.2	19.5
2389.13	22
2390.05	23
2390.98	20.5
2391.9	30.5
2392.83	25
2393.76	21.5
2394.68	26.5
2395.61	22.5
2396.53	24.5
2397.46	26
2398.38	23
2399.3	27.5
2400.23	22.5
2401.15	23.5
2402.08	24
2403	25
2403.93	23
2404.85	25
2405.77	23
2406.7	23.5
2407.62	21
2408.54	24.5
2409.47	21.5
2410.39	22.5
2411.31	24.5
2412.24	20.5
2413.16	23
2414.08	20
2415	26
2415.92	23.5
2416.85	24.5
2417.77	22
2418.69	24.5
2419.61	25
2420.53	25
2421.45	21.5
2422.38	25.5
2423.3	25
2424.22	22
2425.14	25.5
2426.06	28
2426.98	22.5
2427.9	24
2428.82	27.5
2429.74	25
2430.66	18
2431.58	23
2432.5	20.5
2433.42	24
2434.34	22
2435.26	24
2436.18	25.5
2437.1	28.5
2438.01	23.5
2438.93	26
2439.85	24
2440.77	24
2441.69	26
2442.61	29
2443.52	21.5
2444.44	22.5
2445.36	21
2446.28	25
2447.2	21
2448.11	24
2449.03	25
2449.95	26
2450.86	23
2451.78	21.5
2452.7	24
2453.61	23
2454.53	24.5
2455.45	23
2456.36	25.5
2457.28	28.5
2458.2	22
2459.11	23.5
2460.03	21
2460.94	24.5
2461.86	23
2462.77	23.5
2463.69	26
2464.6	23
2465.52	26
2466.43	26
2467.35	25.5
2468.26	24.5
2469.18	23.5
2470.09	26.5
2471	26
2471.92	25.5
2472.83	24
2473.74	27.5
2474.66	25
2475.57	23
2476.48	24.5
2477.4	23.5
2478.31	23.5
2479.22	23
2480.14	24
2481.05	22.5
2481.96	25
2482.87	25
2483.79	21.5
2484.7	24.5
2485.61	24.5
2486.52	26
2487.43	25.5
2488.34	25.5
2489.25	25
2490.17	20.5
2491.08	24.5
2491.99	24
2492.9	24
2493.81	25.5
2494.72	22
2495.63	22.5
2496.54	28
2497.45	22
2498.36	22.5
2499.27	25
2500.18	19.5
2501.09	22
2502	24
2502.91	26.5
2503.82	21.5
2504.73	24
2505.63	25.5
2506.54	26.5
2507.45	21
2508.36	22
2509.27	25
2510.18	24.5
2511.09	24.5
2511.99	23.5
2512.9	22.5
2513.81	24
2514.72	23.5
2515.62	23
2516.53	26
2517.44	28
2518.34	21.5
2519.25	25
2520.16	23
2521.06	23.5
2521.97	21.5
2522.88	25.5
2523.78	25.5
2524.69	24
2525.6	27
2526.5	23
2527.41	23.5
2528.31	22
2529.22	25.5
2530.12	25.5
2531.03	24.5
2531.93	23.5
2532.84	21.5
2533.74	25.5
2534.65	27
2535.55	26
2536.46	24
2537.36	24
2538.27	21
2539.17	21
2540.07	25.5
2540.98	24.5
2541.88	23.5
2542.78	26.5
2543.69	20.5
2544.59	25
2545.49	22
2546.4	22.5
2547.3	23.5
2548.2	21
2549.1	24.5
2550.01	22.5
2550.91	26
2551.81	23.5
2552.71	23
2553.61	22
2554.52	24.5
2555.42	25
2556.32	20
2557.22	26.5
2558.12	25.5
2559.02	20.5
2559.92	26
2560.82	24.5
2561.72	20
2562.62	24.5
2563.53	24
2564.43	23.5
2565.33	25
2566.23	23
2567.13	25.5
2568.03	25.5
2568.92	24
2569.82	24.5
2570.72	22.5
2571.62	23.5
2572.52	24.5
2573.42	23
2574.32	27.5
2575.22	25.5
2576.12	17
2577.02	23
2577.91	22
2578.81	23
2579.71	24
2580.61	20
2581.5	25
2582.4	28.5
2583.3	23.5
2584.2	25
2585.09	25
2585.99	22.5
2586.89	25.5
2587.78	27
2588.68	23.5
2589.58	24.5
2590.47	24.5
2591.37	24
2592.27	25
2593.16	22.5
2594.06	24
2594.95	22
2595.85	23
2596.75	24
2597.64	23
2598.54	26
2599.43	22
2600.33	25
2601.22	26
2602.12	23.5
2603.01	25.5
2603.9	23
2604.8	24
2605.69	24.5
2606.59	25
2607.48	27.5
2608.37	29
2609.27	20.5
2610.16	22
2611.05	23
2611.95	26
2612.84	23
2613.73	25
2614.63	23
2615.52	25.5
2616.41	19
2617.3	26
2618.2	20.5
2619.09	24
2619.98	23
2620.87	26.5
2621.76	22
2622.66	25
2623.55	26
2624.44	23
2625.33	25
2626.22	25
2627.11	23.5
2628	24.5
2628.9	26
2629.79	25.5
2630.68	20.5
2631.57	20.5
2632.46	23.5
2633.35	26
2634.24	23.5
2635.13	22
2636.02	21.5
2636.91	24
2637.8	23
2638.68	26
2639.57	22
2640.46	24.5
2641.35	26
2642.24	19.5
2643.13	22
2644.02	26
2644.91	27
2645.79	23
2646.68	24.5
2647.57	24.5
2648.46	21.5
2649.35	23
2650.23	25
2651.12	26.5
2652.01	24.5
2652.9	24
2653.78	21
2654.67	25
2655.56	27
2656.44	22.5
2657.33	24
2658.22	22.5
2659.1	24
2659.99	26
2660.88	24
2661.76	23
2662.65	24
2663.53	25
2664.42	25.5
2665.3	27
2666.19	22.5
2667.07	21
2667.96	20
2668.84	23
2669.73	21
2670.61	23.5
2671.5	22
2672.38	22.5
2673.27	21.5
2674.15	22.5
2675.04	24
2675.92	22.5
2676.8	23
2677.69	24
2678.57	24
2679.45	23.5
2680.34	24.5
2681.22	24
2682.1	22.5
2682.99	21
2683.87	22
2684.75	24
2685.63	25
2686.52	24
2687.4	26
2688.28	28
2689.16	22.5
2690.04	24.5
2690.93	27
2691.81	26
2692.69	22
2693.57	22.5
2694.45	22.5
2695.33	23
2696.21	25
2697.09	25
2697.97	24
2698.85	24
2699.74	25
2700.62	22
2701.5	26
2702.38	25.5
2703.26	25
2704.14	23.5
2705.02	22
2705.89	24
2706.77	25.5
2707.65	27
2708.53	25.5
2709.41	19.5
2710.29	22.5
2711.17	26.5
2712.05	23
2712.93	24.5
2713.8	25.5
2714.68	23.5
2715.56	23
2716.44	22
2717.32	25.5
2718.19	26
2719.07	24
2719.95	24
2720.83	23
2721.7	27.5
2722.58	22.5
2723.46	21
2724.33	24.5
2725.21	23
2726.09	26.5
2726.97	21.5
2727.84	28
2728.72	24
2729.59	25
2730.47	24.5
2731.35	26.5
2732.22	25
2733.1	24.5
2733.97	19
2734.85	28
2735.72	22
2736.6	24.5
2737.47	25
2738.35	25
2739.22	25
2740.1	23
2740.97	23.5
2741.84	22.5
2742.72	25.5
2743.59	26
2744.47	22
2745.34	26
2746.21	19
2747.09	25
2747.96	23
2748.83	19.5
2749.71	24.5
2750.58	22
2751.45	22
2752.33	23.5
2753.2	22
2754.07	22.5
2754.94	22
2755.82	29
2756.69	24.5
2757.56	22
2758.43	21
2759.3	26
2760.18	21
2761.05	25.5
2761.92	22
2762.79	24
2763.66	26.5
2764.53	24
2765.4	27
2766.27	25.5
2767.14	27.5
2768.01	27
2768.88	22.5
2769.75	24
2770.62	24.5
2771.49	24.5
2772.36	19
2773.23	24.5
2774.1	24
2774.97	22.5
2775.84	27.5
2776.71	25.5
2777.58	28.5
2778.45	23.5
2779.32	21.5
2780.19	24.5
2781.06	23
2781.92	24.5
2782.79	23
2783.66	23.5
2784.53	24
2785.4	23.5
2786.26	24
2787.13	23.5
2788	27
2788.87	25.5
2789.73	28
2790.6	23
2791.47	25.5
2792.34	25.5
2793.2	25
2794.07	25
2794.94	26
2795.8	25
2796.67	23
2797.53	25.5
2798.4	25
2799.27	24.5
2800.13	22
2801	26
2801.86	29
2802.73	26.5
2803.59	25
2804.46	27
2805.32	28
2806.19	25.5
2807.05	20.5
2807.92	27
2808.78	26
2809.65	25
2810.51	25.5
2811.38	23
2812.24	27.5
2813.1	27.5
2813.97	22.5
2814.83	24.5
2815.7	24.5
2816.56	32
2817.42	21.5
2818.29	28
2819.15	25
2820.01	28
2820.87	23
2821.74	20.5
2822.6	21
2823.46	23
2824.32	24
2825.19	24
2826.05	23.5
2826.91	30
2827.77	23.5
2828.63	26
2829.5	27
2830.36	25
2831.22	25.5
2832.08	26
2832.94	26.5
2833.8	23.5
2834.66	26.5
2835.52	30
2836.38	24.5
2837.24	25
2838.1	23
2838.96	27
2839.82	25
2840.68	26
2841.54	24.5
2842.4	26
2843.26	27.5
2844.12	24.5
2844.98	26.5
2845.84	25.5
2846.7	27
2847.56	26.5
2848.42	25.5
2849.28	24
2850.14	27
2850.99	23.5
2851.85	22.5
2852.71	26
2853.57	26
2854.43	28.5
2855.28	24
2856.14	28
2857	25
2857.86	28.5
2858.71	24.5
2859.57	23
2860.43	27.5
2861.28	29.5
2862.14	22.5
2863	26.5
2863.86	24.5
2864.71	28.5
2865.57	26.5
2866.42	28.5
2867.28	26
2868.14	26.5
2868.99	28.5
2869.85	25
2870.7	29
2871.56	28.5
2872.41	30
2873.27	31
2874.13	30
2874.98	29
2875.83	29
2876.69	34.5
2877.54	28
2878.4	32
2879.25	31.5
2880.11	36.5
2880.96	30.5
2881.81	33.5
2882.67	30
2883.52	34.5
2884.38	31
2885.23	34
2886.08	31
2886.94	36
2887.79	35.5
2888.64	33
2889.5	39.5
2890.35	37.5
2891.2	39
2892.05	38.5
2892.91	39.5
2893.76	44.5
2894.61	41.5
2895.46	45
2896.31	42
2897.17	55.5
2898.02	49
2898.87	51
2899.72	56
2900.57	61
2901.42	60.5
2902.27	65.5
2903.12	64
2903.98	67
2904.83	71
2905.68	68.5
2906.53	71
2907.38	69
2908.23	69.5
2909.08	68
2909.93	65
2910.78	65.5
2911.63	62
2912.48	56
2913.33	49.5
2914.18	56
2915.02	45
2915.87	43
2916.72	43.5
2917.57	37.5
2918.42	43.5
2919.27	39.5
2920.12	39.5
2920.97	34.5
2921.81	34.5
2922.66	34
2923.51	35
2924.36	30
2925.21	33.5
2926.05	27.5
2926.9	32
2927.75	30.5
2928.59	29
2929.44	27.5
2930.29	25
2931.14	27
2931.98	29.5
2932.83	29.5
2933.68	25.5
2934.52	30
2935.37	27.5
2936.21	32.5
2937.06	29
2937.91	29
2938.75	28
2939.6	27
2940.44	30
2941.29	29
2942.14	27.5
2942.98	29
2943.82	28
2944.67	25
2945.51	29.5
2946.36	29
2947.2	25.5
2948.05	28.5
2948.89	33
2949.74	28
2950.58	32
2951.43	32
2952.27	30.5
2953.11	29
2953.96	36
2954.8	33
2955.64	32
2956.49	35
2957.33	33
2958.17	37
2959.02	38.5
2959.86	41
2960.7	39.5
2961.54	44
2962.39	36.5
2963.23	43.5
2964.07	39
2964.91	45
2965.75	44.5
2966.6	45.5
2967.44	46.5
2968.28	43.5
2969.12	38.5
2969.96	41
2970.8	45.5
2971.64	44.4539
2972.48	37.4357
2973.33	36.4613
2974.17	30.669
2975.01	35.3354
2975.85	31.7482
2976.69	30.2519
2977.53	30.9176
2978.37	31.3349
2979.21	28.9616
2980.05	26.3789
2980.89	35.176
2981.73	28.6699
2982.57	27.9101
2983.41	30.0786
2984.25	22.7299
2985.08	26.8374
2985.92	27.5752
2986.76	26.8085
2987.6	23.3228
2988.44	28.538
2989.28	27.5663
2990.12	23.7649
2990.96	24.6414
2991.79	23.803
2992.63	24.3553
2993.47	23.5776
2994.31	25.5583
2995.14	24.5024
2995.98	28.7635
2996.82	23.7017
2997.66	24.6934
2998.49	25.3098
2999.33	23.8124
3000.17	23.744
3001	21.1531
3001.84	25.7172
3002.68	24.6595
3003.51	24.6587
3004.35	25.5643
3005.19	22.9909
3006.02	22.1554
3006.86	21.3428
3007.7	23.0541
3008.53	22.3012
3009.37	25.2525
3010.2	22.4286
3011.04	21.1704
3011.87	22.0588
3012.71	23.3771
3013.54	21.4709
3014.38	23.808
3015.21	23.3467
3016.05	23.9806
3016.88	22.9727
3017.72	23.0966
3018.55	23.0466
3019.39	23.3956
3020.22	23.4499
3021.05	21.1399
3021.89	20.854
3022.72	23.1871
3023.55	21.0433
3024.39	23.9376
3025.22	26.236
3026.05	23.3664
3026.89	20.6928
3027.72	20.8722
3028.55	23.7067
3029.39	25.3302
3030.22	21.447
3031.05	21.3103
3031.88	25.7037
3032.72	25.5704
3033.55	22.9681
3034.38	22.576
3035.21	23.114
3036.04	22.4155
3036.88	22.4284
3037.71	21.9173
3038.54	23.193
3039.37	23.9771
3040.2	23.7015
3041.03	23.0427
3041.86	22.0388
3042.69	21.714
3043.52	22.2736
3044.36	22.0025
3045.19	21.7816
3046.02	22.1164
3046.85	22.6476
3047.68	22.166
3048.51	21.9455
3049.34	23.7046
3050.17	24.2858
3051	24.8709
3051.83	24.9354
3052.66	23.4946
3053.48	23.5551
3054.31	21.785
3055.14	22.8964
3055.97	24.2826
3056.8	22.4135
3057.29	23
3058.12	24
3058.95	24
3059.79	25
3060.62	24
3061.45	24.5
3062.29	24
3063.12	21.5
3063.95	25
3064.78	25.5
3065.62	22.5
3066.45	24
3067.28	20.5
3068.11	24
3068.94	20.5
3069.77	24
3070.61	25
3071.44	21.5
3072.27	24
3073.1	24
3073.93	22
3074.76	22
3075.59	22.5
3076.42	20.5
3077.25	24
3078.08	21
3078.92	20.5
3079.74	24
3080.57	23.5
3081.41	27
3082.24	24.5
3083.06	25.5
3083.89	23
3084.72	24
3085.55	25
3086.38	24
3087.21	23.5
3088.04	23
3088.87	25.5
3089.7	23
3090.53	21.5
3091.36	26
3092.18	26
3093.01	23.5
3093.84	21.5
3094.67	23.5
3095.5	21.5
3096.32	24
3097.15	20
3097.98	24.5
3098.81	20.5
3099.64	23.5
3100.46	24
3101.29	24
3102.12	22
3102.94	20
3103.77	25
3104.6	24
3105.42	24
3106.25	22
3107.08	24
3107.9	24.5
3108.73	26.5
3109.56	23
3110.38	22.5
3111.21	26
3112.03	25
3112.86	20
3113.68	21.5
3114.51	19.5
3115.33	21.5
3116.16	26
3116.98	23
3117.81	27
3118.63	23.5
3119.46	22
3120.28	19
3121.11	24
3121.93	23.5
3122.76	23
3123.58	23
3124.4	19.5
3125.23	23
3126.05	24.5
3126.87	19
3127.7	17.5
3128.52	26
3129.34	23.5
3130.17	21
3130.99	20
3131.81	22
3132.64	23
3133.46	22.5
3134.28	22
3135.1	22.5
3135.93	24
3136.75	24
3137.57	23
3138.39	26.5
3139.21	26.5
3140.04	28.5
3140.86	26.5
3141.68	23
3142.5	22.5
3143.32	20.5
3144.14	27
3144.96	21.5
3145.78	26
3146.61	23.5
3147.43	24
3148.25	19.5
3149.07	27
3149.89	25
3150.71	23
3151.53	25
3152.35	24
3153.17	21.5
3153.99	22
3154.81	22
3155.63	26
3156.45	23.5
3157.27	22
3158.08	22.5
3158.9	20.5
3159.72	24.5
3160.54	20.5
3161.36	23
3162.18	24.5
3163	24
3163.82	21
3164.63	25.5
3165.45	22.5
3166.27	24
3167.09	22.5
3167.91	23
3168.72	23
3169.54	23.5
3170.36	22.5
3171.18	24
3171.99	21
3172.81	24.5
3173.63	20.5
3174.44	24.5
3175.26	22
3176.08	23
3176.89	24.5
3177.71	25.5
3178.53	20.5
3179.34	25
3180.16	23
3180.97	21
3181.79	23
3182.61	23.5
3183.42	25
3184.24	23
3185.05	25
3185.87	21.5
3186.68	22.5
3187.5	23.5
3188.31	19
3189.13	20.5
3189.94	23
3190.76	26.5
3191.57	24
3192.39	21.5
3193.2	25.5
3194.02	22.5
3194.83	21
3195.64	19
3196.46	19.5
3197.27	24
3198.08	27
3198.9	23
3199.71	24
3200.52	21.5
3201.34	22.5
3202.15	24
3202.96	23
3203.78	24.5
3204.59	25
3205.4	18.5
3206.21	22
3207.03	24.5
3207.84	20
3208.65	25
3209.46	20.5
3210.27	22.5
3211.09	23.5
3211.9	28
3212.71	23.5
3213.52	22.5
3214.33	22
3215.14	23.5
3215.95	20
3216.77	25.5
3217.58	23
3218.39	21
3219.2	20.5
3220.01	21
3220.82	22
3221.63	23.5
3222.44	26.5
3223.25	20
3224.06	23
3224.87	23.5
3225.68	20
3226.49	24
3227.3	21.5
3228.11	22
3228.92	24
3229.73	24.5
3230.53	26
3231.34	21.5
3232.15	22
3232.96	24
3233.77	21.5
3234.58	18
3235.39	24.5
3236.19	26
3237	24
3237.81	26
3238.62	25
3239.43	22.5
3240.23	21
3241.04	25.5
3241.85	27
3242.66	20
3243.46	25
3244.27	26
3245.08	26
3245.89	26
3246.69	25.5
3247.5	24.5
3248.31	23
3249.11	24
3249.92	21.5
3250.72	28
3251.53	22
3252.34	23
3253.14	23.5
3253.95	24
3254.75	24
3255.56	19.5
3256.36	21
3257.17	21
3257.98	28
3258.78	23
3259.59	23
3260.39	22.5
3261.19	24
3262	23
3262.8	24
3263.61	21
3264.41	21
3265.22	23.5
3266.02	18
3266.83	24
3267.63	24.5
3268.43	24.5
3269.24	21.5
3270.04	22.5
3270.84	22.5
3271.65	27
3272.45	20.5
3273.25	26
3274.06	23
3274.86	23
3275.66	24
3276.46	26.5
3277.27	26.5
3278.07	23
3278.87	24
3279.67	24
3280.48	26.5
3281.28	22
3282.08	22
3282.88	22
3283.68	26
3284.48	24
3285.29	19
3286.09	21.5
3286.89	23.5
3287.69	24
3288.49	21.5
3289.29	25
3290.09	21.5
3290.89	25.5
3291.69	22
3292.49	20
3293.29	23
3294.09	22
3294.89	21.5
3295.69	21
3296.49	24.5
3297.29	20
3298.09	20.5
3298.89	21
3299.69	27.5
3300.49	25
3301.29	25
3302.09	27
3302.89	22
3303.69	22
3304.49	18.5
3305.28	23.5
3306.08	24.5
3306.88	25
3307.68	23.5
3308.48	23
3309.28	20
3310.07	25
3310.87	24
3311.67	26.5
3312.47	25
3313.26	24.5
3314.06	20
3314.86	26.5
3315.66	23
3316.45	17.5
3317.25	24
3318.05	25
3318.84	22
3319.64	24.5
3320.44	25
3321.23	25
3322.03	18
3322.83	26.5
3323.62	26
3324.42	25
3325.21	20
3326.01	21.5
3326.81	22
3327.6	23
3328.4	22.5
3329.19	21.5
3329.99	23
3330.78	23.5
3331.58	23
3332.37	23
3333.17	19.5
3333.96	22
3334.76	26.5
3335.55	23.5
3336.34	24
3337.14	21.5
3337.93	22
3338.73	23.5
3339.52	24
3340.31	26.5
3341.11	22.5
3341.9	22
3342.69	23.5
3343.49	23
3344.28	24
3345.07	22.5
3345.87	24
3346.66	23
3347.45	25.5
3348.25	22
3349.04	24
3349.83	25
3350.62	25
3351.42	23
3352.21	23.5
3353	25
3353.79	23.5
3354.58	24.5
3355.37	26
3356.17	24
3356.96	23
3357.75	25
3358.54	22.5
3359.33	28
3360.12	21.5
3360.91	23
3361.7	20
3362.49	20
3363.29	19.5
3364.08	23
3364.87	24
3365.66	26.5
3366.45	22
3367.24	24.5
3368.03	22.5
3368.82	25.5
3369.61	25
3370.4	23.5
3371.19	23
3371.97	23
3372.76	25
3373.55	22.5
3374.34	22.5
3375.13	21
3375.92	26.5
3376.71	20
3377.5	21.5
3378.29	24
3379.07	24.5
3379.86	25.5
3380.65	25.5
3381.44	22
3382.23	26
3383.01	22
3383.8	24
3384.59	22.5
3385.38	27.5
3386.16	21
3386.95	25
3387.74	25
3388.53	25.5
3389.31	25
3390.1	25
3390.89	21.5
3391.67	27
3392.46	22
3393.25	21.5
3394.03	22
3394.82	23.5
3395.6	21
3396.39	24
3397.18	23
3397.96	27.5
3398.75	22
3399.53	24
3400.32	20.5
3401.1	20.5
3401.89	27
3402.67	22.5
3403.46	24
3404.24	21
3405.03	26.5
3405.81	21.5
3406.6	21
3407.38	22.5
3408.17	22.5
3408.95	24
3409.74	21
3410.52	26
3411.3	26.5
3412.09	23
3412.87	21.5
3413.65	23.5
3414.44	22
3415.22	22.5
3416	29
3416.79	21
3417.57	23
3418.35	28
3419.14	19.5
3419.92	23
3420.7	21.5
3421.48	26
3422.27	20
3423.05	23
3423.83	25.5
3424.61	25
3425.4	21
3426.18	22.5
3426.96	22
3427.74	26.5
3428.52	24.5
3429.3	22
3430.08	23
3430.87	20.5
3431.65	21.5
3432.43	27
3433.21	22.5
3433.99	25.5
3434.77	24
3435.55	25
3436.33	21.5
3437.11	24
3437.89	22
3438.67	22.5
3439.45	21.5
3440.23	22
3441.01	23
3441.79	22.5
3442.57	20.5
3443.35	22
3444.13	24.5
3444.91	23
3445.69	26.5
3446.47	21
3447.25	23
3448.03	26
3448.8	26.5
3449.58	23.5
3450.36	23
3451.14	23
3451.92	22
3452.7	21
3453.47	19.5
3454.25	25.5
3455.03	24.5
3455.81	23.5
3456.59	21.5
3457.36	19.5
3458.14	26
3458.92	19
3459.69	26.5
3460.47	23
3461.25	19
3462.03	25.5
3462.8	22.5
3463.58	26
3464.36	23
3465.13	24.5
3465.91	24
3466.69	22.5
3467.46	22
3468.24	20.5
3469.01	22
3469.79	25
3470.57	24
3471.34	23
3472.12	24.5
3472.89	20
3473.67	25.5
3474.44	17.5
3475.22	22
3475.99	21.5
3476.77	21
3477.54	25.5
3478.32	25
3479.09	24
3479.87	26
3480.64	21.5
3481.41	23
3482.19	24.5
3482.96	24.5
3483.74	23.5
3484.51	25
3485.28	21
3486.06	22
3486.83	19.5
3487.6	24.5
3488.38	23.5
3489.15	23
3489.92	23
3490.7	25
3491.47	23.5
3492.24	23
3493.01	23
3493.79	22.5
3494.56	25
3495.33	18.5
3496.1	21
3496.88	22
3497.65	22.5
3498.42	23
3499.19	25.5
3499.96	20
