#Acq. time (s)=	5
#Accumulations=	5
#Range (cm-ｹ)=	100...3500
#Windows=	4
#Autofocus=	Off
#AutoExposure=	Off
#Spike filter=	Multiple accum.
#Delay time (s)=	0
#Binning=	1
#Readout mode=	Signal
#DeNoise=	Off
#ICS correction=	Off
#Dark correction=	Off
#Inst. Process=	Off
#Instrument=	LabRAM HR Evol
#Detector=	Syncerity OE
#Objective=	x100_VIS
#Grating=	600 (500nm)
#ND Filter=	25%
#Laser=	633nm_Edge
#Hole=	100.021
#Range=	Visible
#Project=	verificaciones
#Sample=	at3
#Site=	plain
#Title=	bolusat3plain
#Remark=	
#Date=	14.01.2026 12:53
#Acquired=	14.01.2026 12:53:24
100.618	28
101.901	30
103.185	34.5
104.468	32.5
105.751	35.5
107.033	30.5
108.316	33.5
109.598	31
110.88	35.5
112.162	30
113.445	27.5
114.727	33
116.008	32
117.289	33.5
118.57	35
119.85	31
121.13	32
122.411	29.5
123.691	33.5
124.97	30.5
126.25	35.5
127.529	32
128.808	30
130.086	33.5
131.364	33
132.643	34
133.921	37
135.199	37.5
136.477	39
137.755	39
139.032	37.5
140.309	41
141.586	42
142.863	40
144.14	38.5
145.415	41.5
146.691	38
147.967	41.5
149.243	44.5
150.518	47
151.794	40
153.067	41
154.342	40.5
155.617	43.5
156.892	45
158.166	46
159.439	45
160.712	47
161.986	47.5
163.26	40.5
164.531	35
165.805	42
167.077	36.5
168.35	45
169.621	46.5
170.893	40
172.165	36.5
173.437	40
174.707	41.5
175.979	40.5
177.25	40.5
178.519	44.5
179.79	35
181.061	40
182.33	41
183.6	46
184.87	43
186.138	44
187.408	45
188.676	50.5
189.945	40.5
191.214	46
192.481	44
193.75	43
195.016	42.5
196.285	43
197.552	44
198.819	40.5
200.086	41.5
201.352	39
202.619	44
203.884	38
205.151	39
206.416	36
207.682	38
208.947	35
210.213	35.5
211.477	37
212.742	34
214.006	35
215.271	37.5
216.535	37
217.799	34.5
219.062	34.5
220.326	33.5
221.589	32
222.851	33.5
224.115	34
225.377	37.5
226.64	35.5
227.901	31.5
229.163	28.5
230.425	26
231.686	32.5
232.947	31
234.209	32.5
235.469	33
236.729	33
237.991	31.5
239.25	32
240.51	30.5
241.771	31
243.03	31
244.288	29.5
245.549	30
246.807	27.5
248.065	29
249.323	31
250.583	35
251.84	27.5
253.098	30
254.355	30
255.613	29
256.87	28
258.127	30
259.383	27.5
260.639	29
261.897	28.5
263.153	34
264.408	28.5
265.664	26
266.919	32
268.174	28
269.43	25.5
270.685	35.5
271.939	32.5
273.193	29.5
274.447	31
275.701	27.5
276.955	24
278.208	34.5
279.461	26.5
280.714	26
281.968	29
283.221	32
284.473	26
285.726	31
286.977	31
288.229	28.5
289.481	31.5
290.732	31.5
291.983	25.5
293.234	29
294.485	29
295.736	30
296.986	28
298.236	26.5
299.486	30
300.736	29
301.985	24
303.233	29
304.482	30.5
305.731	28
306.98	28.5
308.228	27
309.477	31
310.725	28
311.973	26.5
313.22	30
314.468	27
315.714	29
316.961	23
318.208	29
319.455	30.5
320.701	31
321.947	30.5
323.192	28.5
324.438	31
325.684	29
326.929	29.5
328.175	29.5
329.418	29.5
330.663	30
331.908	24.5
333.152	29
334.395	24.5
335.639	28.5
336.883	28.5
338.127	27
339.369	30
340.612	28
341.855	30
343.097	25.5
344.34	28
345.582	31
346.823	31
348.065	31
349.307	26
350.547	25
351.789	29.5
353.03	29.5
354.27	32.5
355.511	28.5
356.75	31
357.991	26.5
359.231	29.5
360.47	27
361.709	27
362.948	29.5
364.187	31
365.427	30
366.664	31
367.903	25
369.14	27.5
370.379	27.5
371.616	28
372.854	29.5
374.091	30
375.328	28.5
376.564	28
377.802	29.5
379.037	30
380.274	30
381.51	27.5
382.745	28.5
383.981	28
385.216	27
386.452	29
387.686	26.5
388.922	29.5
390.155	30.5
391.389	30
392.624	26.5
393.857	30
395.091	28.5
396.325	31.5
397.558	25
398.79	27
400.024	27.5
401.256	30.5
402.488	30.5
403.721	31
404.953	26
406.184	24.5
407.417	28
408.648	30
409.878	29.5
411.109	31
412.341	28.5
413.571	28
414.801	27
416.031	25.5
417.262	27
418.491	29.5
419.72	27.5
420.949	29.5
422.178	32
423.408	29.5
424.637	27
425.865	28
427.093	29.5
428.32	26
429.548	30
430.777	29
432.004	29
433.231	27
434.458	32
435.685	25.5
436.911	25.5
438.137	29
439.363	29
440.589	26
441.815	28
443.042	27
444.267	29
445.492	27.5
446.717	26.5
447.942	29
449.166	33
450.39	33.5
451.615	24.5
452.838	30
454.062	31.5
455.286	29
456.509	27.5
457.732	31.5
458.955	25.5
460.178	29
461.399	34
462.621	30
463.843	33
465.065	36.5
466.287	33.5
467.508	34
468.73	36
469.951	33
471.172	34.5
472.393	32.5
473.612	38
474.832	37
476.052	41
477.272	44
478.492	44
479.712	47.5
480.93	49
482.149	59
483.368	51
484.587	60
485.806	65.5
487.023	60
488.241	67
489.459	64
490.677	61.5
491.893	60
493.111	59.5
494.328	58
495.543	56
496.76	50
497.977	53
499.194	49
500.409	45
501.625	45.5
502.841	41.5
504.055	38.5
505.27	41
506.486	38.5
507.699	39
508.914	34
510.128	36.5
511.342	34.5
512.557	36.5
513.77	36
514.984	33
516.196	33
517.41	36
518.623	35
519.835	38
521.048	31
522.259	31
523.472	27
524.683	34.5
525.895	35.5
527.106	33
528.318	35
529.528	33
530.74	28.5
531.949	31.5
533.161	27
534.37	33
535.581	25
536.79	29
537.999	31.5
539.209	33
540.418	24
541.627	28
542.835	32.5
544.043	27
545.253	30.5
546.46	31.5
547.669	25
548.876	32.5
550.083	30
551.292	28
552.498	26
553.705	28
554.912	25.5
556.118	30.5
557.324	30
558.53	33
559.737	31
560.942	26
562.147	27
563.353	28.5
564.558	28
565.763	30
566.967	28
568.173	27
569.377	31.5
570.58	29
571.784	31
572.987	25
574.192	28.5
575.395	27.5
576.598	30
577.8	27
579.003	29.5
580.205	27
581.407	28
582.61	29
583.812	28
585.014	23.5
586.215	27
587.416	28
588.617	28
589.818	27.5
591.018	29
592.219	29.5
593.419	28.5
594.619	27
595.819	27
597.02	31.5
598.219	28.5
599.418	26
600.617	26.5
601.816	23
603.015	28
604.213	24
605.41	33
606.608	28.5
607.806	28
609.004	28.5
610.201	30
611.399	30
612.596	32
613.793	27.5
614.989	29.5
616.186	25.5
617.382	27.5
618.579	27.5
619.775	30
620.969	25.5
622.165	25
623.36	30.5
624.555	30.5
625.75	29.5
626.945	27.5
628.139	30
629.333	28.5
630.527	29.5
631.721	30.5
632.915	33.5
634.108	29.5
635.301	29
636.495	24.5
637.688	28.5
638.88	29
640.072	34
641.265	27
642.456	27
643.648	27.5
644.84	30
646.032	29.5
647.222	31
648.414	25
649.605	24
650.795	31
651.986	28
653.177	29
654.366	29.5
655.556	32
656.745	29.5
657.935	29.5
659.125	25
660.313	30.5
661.503	28.5
662.69	30.5
663.879	29.5
665.067	32
666.256	30
667.444	27.5
668.631	31.5
669.819	31
671.006	32.5
672.194	34
673.38	28.5
674.567	29.5
675.753	28.5
676.94	31
678.125	30.5
679.311	33.5
680.497	35
681.682	36.5
682.868	31.5
684.053	39
685.238	34.5
686.422	38.5
687.606	36.5
688.792	38.5
689.975	35
691.159	37
692.343	35
693.526	35
694.71	35.5
695.893	35.5
697.076	37.5
698.259	40.5
699.441	31
700.623	41.5
701.805	36.5
702.988	38.5
704.169	47.5
705.35	47
706.533	47
707.714	55.5
708.894	56
710.075	52
711.255	51.5
712.436	46
713.616	42
714.796	40
715.975	36
717.155	37.5
718.335	33
719.514	30.5
720.693	30.5
721.872	30.5
723.05	33
724.228	30
725.406	27
726.585	26
727.763	31
728.941	26
730.118	31
731.295	25.5
732.472	32.5
733.649	26
734.825	30.5
736.002	25.5
737.178	26.5
738.354	28
739.53	29
740.705	27
741.881	27
743.056	28.5
744.231	31.5
745.406	30.5
746.581	27
747.755	29.5
748.93	30
750.104	28.5
751.278	28.5
752.452	29.5
753.625	29.5
754.799	31.5
755.972	28.5
757.144	31.5
758.317	27.5
759.489	23.5
760.662	30
761.834	30
763.006	25.5
764.178	27
765.349	31
766.521	31.5
767.692	23
768.863	29
770.034	30.5
771.204	29
772.374	24
773.545	30.5
774.715	27.5
775.885	29
777.054	29
778.224	29
779.393	30.5
780.562	31
781.731	27
782.9	29.5
784.069	29.5
785.236	33.5
786.405	33.5
787.573	32
788.74	33
789.908	32.5
791.074	35
792.242	35
793.409	26
794.575	35
795.742	29
796.909	27
798.074	29.5
799.241	30.5
800.406	32
801.572	30
802.737	30
803.902	26.5
805.067	31.5
806.232	29
807.396	28
808.561	30
809.725	27
810.889	29.5
812.052	32
813.217	26
814.38	29.5
815.544	33
816.706	28.5
817.87	26
819.032	31
820.195	22
821.357	26.5
822.518	29.5
823.681	29
824.842	28.5
826.005	30
827.165	31
828.326	22
829.488	30
830.648	29
831.808	24.5
832.97	27.5
834.129	26.5
835.289	30.5
836.45	25
837.609	23
838.768	30
839.927	26.5
841.087	26
842.245	30
843.404	32
844.562	28.5
845.721	28
846.879	27
848.036	28
849.194	25.5
850.351	22.5
851.509	29
852.666	30
853.823	27
854.979	26
856.136	29
857.292	30
858.448	29
859.605	29.5
860.761	27.5
861.916	35
863.071	31
864.226	27
865.381	30.5
866.536	31
867.691	24
868.845	31
869.999	28
871.153	29
872.307	25.5
873.461	33
874.614	29
875.767	28
876.92	28
878.073	28.5
879.226	29
880.379	23
881.531	29.5
882.683	23.5
883.835	27.5
884.987	29
886.139	27
887.291	30
888.442	24
889.593	28.5
890.743	27
891.893	25
893.044	27
894.195	26.5
895.345	26.5
896.495	29
897.643	29
898.793	25
899.943	29.5
901.092	29
902.241	30
903.389	26
904.538	28.5
905.687	24.5
906.835	24.5
907.982	21
909.13	25
910.278	26.5
911.426	27
912.572	27
913.72	28
914.867	25
916.013	25.5
917.16	28.5
918.306	27.5
919.451	28
920.598	27
921.744	29.5
922.889	29.5
924.035	31
925.18	25
926.324	26.5
927.47	26.5
928.614	25
929.758	29
930.902	28.5
932.047	27
933.191	28.5
934.334	24.5
935.478	26.5
936.621	25.5
937.764	26.5
938.906	26.5
940.05	24.5
941.192	28.5
942.335	27.5
943.476	25
944.619	23.5
945.76	28
946.901	28.5
948.043	26
949.184	24.5
950.326	27.5
951.466	23.5
952.606	26.5
953.747	27.5
954.887	27.5
956.028	29.5
957.167	22.5
958.307	29.5
959.447	28.5
960.586	25
961.725	27
962.865	27.5
964.003	27
965.141	23
966.279	29.5
967.418	27
968.556	30
969.693	26.5
970.831	26.25
971.969	25
973.106	26
974.243	25.5
975.38	24
976.517	30.5
977.654	23.5
978.79	24
979.926	28
981.061	27
982.197	30
983.334	24.5
984.469	26.5
985.604	27.5
986.739	23.5
987.873	28
989.008	29
990.142	31
991.277	28
992.411	25
993.544	26
994.679	27
995.813	27
996.946	25.5
998.079	25.5
999.212	23.5
1000.35	25.5
1001.48	27.5
1002.61	24.5
1003.74	27
1004.87	28
1006.01	27
1007.14	26.5
1008.27	26
1009.4	24
1010.53	24
1011.66	25
1012.79	19
1013.92	26.5
1015.05	26
1016.18	26.5
1017.31	27.5
1018.44	25
1019.57	23.5
1020.7	25
1021.83	28.5
1022.96	25.5
1024.09	27.5
1025.22	23.5
1026.35	28
1027.48	23.5
1028.6	23
1029.73	24.5
1030.86	25
1031.99	26
1033.12	24
1034.24	26.5
1035.37	26
1036.5	23.5
1037.62	26
1038.75	21
1039.88	29
1041	26.5
1042.13	28.5
1043.25	27.5
1044.38	26
1045.5	23
1046.63	26
1047.76	29
1048.88	23
1050	29
1051.13	23.5
1052.25	27.5
1053.38	23.5
1054.5	22
1055.63	25
1056.75	24
1057.87	25
1058.99	27.5
1060.12	28.5
1061.24	22
1062.36	23
1063.49	24
1064.61	26.5
1065.73	21.5
1066.85	24
1067.97	26.5
1069.1	25.5
1070.22	23.5
1071.34	28.5
1072.46	24.5
1073.58	27.5
1074.7	24.5
1075.82	24
1076.94	24
1078.06	27
1079.18	25.5
1080.3	25.5
1081.42	24.5
1082.54	22
1083.66	26
1084.78	27.5
1085.9	23
1087.02	27
1088.13	22.5
1089.25	29
1090.37	26
1091.49	24
1092.61	27.5
1093.72	22
1094.84	25
1095.96	23
1097.08	26
1098.19	30
1099.31	24.5
1100.42	28.5
1101.54	28.5
1102.66	27
1103.77	22
1104.89	20
1106	25
1107.12	23.5
1108.23	25.5
1109.35	26
1110.46	27.5
1111.58	19
1112.69	23.5
1113.81	27.5
1114.92	25.5
1116.04	27.5
1117.15	24
1118.26	27.5
1119.38	27.5
1120.49	24.5
1121.6	24.5
1122.72	25
1123.83	21
1124.94	24
1126.05	26.5
1127.17	26.5
1128.28	24.5
1129.39	26
1130.5	24
1131.61	25
1132.72	22.5
1133.83	26.5
1134.94	26.5
1136.06	23
1137.17	27.5
1138.27	22.5
1139.39	29
1140.5	24.5
1141.61	25.5
1142.72	24
1143.82	25
1144.93	26
1146.04	24.5
1147.15	29
1148.26	25
1149.37	26.5
1150.48	21.5
1151.58	22.5
1152.69	25.5
1153.8	22
1154.91	27
1156.02	27
1157.12	25.5
1158.23	26
1159.34	22.5
1160.44	25
1161.55	24.5
1162.66	24.5
1163.76	20.5
1164.87	24
1165.97	21.5
1167.08	24
1168.18	27.5
1169.29	27.5
1170.39	20.5
1171.5	24.5
1172.6	26.5
1173.71	22.5
1174.81	25.5
1175.92	21.5
1177.02	24
1178.13	28.5
1179.23	24.5
1180.33	25
1181.44	22.5
1182.54	27
1183.64	23.5
1184.74	27
1185.85	26
1186.95	24.5
1188.05	26
1189.15	22
1190.26	26
1191.36	24.5
1192.46	26.5
1193.56	25.5
1194.66	24.0027
1195.76	23.4402
1196.86	21.5776
1197.96	24.5947
1199.06	23.0449
1200.16	27.8173
1201.26	18.5049
1202.36	24.1256
1203.46	27.3203
1204.56	21.0534
1205.66	24.2433
1206.76	22.9442
1207.86	25.5844
1208.96	21.7144
1210.06	26.8639
1211.16	25.6741
1212.25	23.0801
1213.35	21.102
1214.45	25.1124
1215.55	26.8906
1216.65	25.8066
1217.74	21.6311
1218.84	26.8747
1219.94	21.9243
1221.03	24.1617
1222.13	25.3757
1223.23	25.3532
1224.32	23.8877
1225.42	26.8852
1226.52	26.9004
1227.61	26.342
1228.71	24.7381
1229.8	26.5922
1230.9	22.2276
1231.99	24.7718
1233.09	24.0282
1234.18	24.052
1235.28	24.1291
1236.37	24.8689
1237.47	24.5437
1238.56	24.8271
1239.65	22.7816
1240.75	25.1507
1241.84	25.1642
1242.93	25.284
1244.03	23.8712
1245.12	24.1922
1246.21	20.5568
1247.31	26.7606
1248.4	24.5835
1249.49	25.6608
1250.58	21.758
1251.67	28.4853
1252.77	24.1754
1253.86	25.2784
1254.95	25.4945
1256.04	24.739
1257.13	26.3493
1258.22	28.3415
1259.31	26.6683
1260.4	26.6636
1261.49	25.0257
1262.58	24.9494
1263.67	27.2433
1264.76	28.8165
1265.85	26.786
1266.94	27.9731
1268.03	25.968
1269.12	26.0711
1270.21	23.8648
1271.3	24.8681
1272.39	24.7964
1273.47	23.4993
1274.56	25.5012
1275.65	23.5456
1276.74	24.8312
1277.83	23.7684
1278.91	23.4539
1280	21.5244
1281.09	22.7499
1282.17	25.1617
1283.26	25.6249
1284.35	25.0024
1285.43	25.5104
1286.52	23.538
1287.61	25.8936
1288.69	24.5306
1289.78	24.3869
1290.86	27.0321
1291.95	25.519
1293.03	24.7823
1294.12	26.2873
1295.2	23.9831
1296.29	23.7739
1297.37	24.7842
1298.46	25.7105
1299.54	24.5327
1300.63	24.4397
1301.71	24.9563
1302.79	22.4143
1303.88	21.4729
1304.96	23.2037
1306.04	23.7165
1306.5	23.5
1307.59	21
1308.68	23
1309.76	27
1310.85	24.5
1311.94	25.5
1313.03	24.5
1314.11	23
1315.2	24.5
1316.29	27.5
1317.37	26
1318.46	24
1319.55	22
1320.63	22
1321.72	24
1322.81	24
1323.89	26
1324.98	22
1326.06	23
1327.15	25.5
1328.23	27.5
1329.32	24
1330.4	24.5
1331.49	24.5
1332.57	24
1333.66	26
1334.74	22
1335.82	24.5
1336.91	21
1337.99	24
1339.07	27.5
1340.16	27
1341.24	25.5
1342.32	25.5
1343.4	28
1344.49	26
1345.57	21.5
1346.65	27
1347.73	27
1348.82	27.5
1349.9	28
1350.98	24.5
1352.06	24
1353.14	20
1354.22	25.5
1355.3	23.5
1356.38	23.5
1357.46	27
1358.54	25.5
1359.62	23
1360.7	30
1361.78	26.5
1362.86	25
1363.94	23
1365.02	26.5
1366.1	26
1367.18	28.5
1368.26	28
1369.34	23.5
1370.41	24
1371.49	22
1372.57	25.5
1373.65	22.5
1374.72	23.5
1375.8	28.5
1376.88	28
1377.96	27
1379.03	23
1380.11	28
1381.19	30
1382.26	22
1383.34	28.5
1384.42	26
1385.49	22
1386.57	27
1387.64	27
1388.72	24
1389.79	27.5
1390.87	28
1391.94	26.5
1393.02	24
1394.09	29
1395.17	25
1396.24	33
1397.31	30
1398.39	28.5
1399.46	34
1400.54	29.5
1401.61	27
1402.68	26.5
1403.76	33.5
1404.83	28.5
1405.9	30
1406.97	29
1408.05	36
1409.12	30
1410.19	35
1411.26	30.5
1412.33	32.5
1413.4	29
1414.48	35.5
1415.55	32
1416.62	30.5
1417.69	29
1418.76	25
1419.83	27.5
1420.9	28.5
1421.97	28
1423.04	31.5
1424.11	24.5
1425.18	26
1426.25	26.5
1427.32	22.5
1428.39	27
1429.46	27.5
1430.52	28.5
1431.59	25
1432.66	21
1433.73	27.5
1434.8	25
1435.87	27.5
1436.93	24.5
1438	29.5
1439.07	27
1440.14	28.5
1441.2	26
1442.27	28
1443.34	27.5
1444.4	25.5
1445.47	26
1446.54	23.5
1447.6	22
1448.67	27.5
1449.73	30.5
1450.8	22
1451.86	28
1452.93	28.5
1453.99	26
1455.06	25.5
1456.12	26.5
1457.19	28
1458.25	27
1459.32	24
1460.38	26
1461.45	26
1462.51	25
1463.57	26.5
1464.64	26.5
1465.7	23.5
1466.76	25.5
1467.82	28.5
1468.89	24
1469.95	30
1471.01	26.5
1472.07	22.5
1473.14	22
1474.2	26
1475.26	25
1476.32	22
1477.38	24
1478.44	23.5
1479.5	29
1480.57	26.5
1481.63	27
1482.69	25.5
1483.75	26.5
1484.81	25
1485.87	25
1486.93	29
1487.99	26
1489.05	26
1490.1	27
1491.17	28.5
1492.22	26
1493.28	23
1494.34	25.5
1495.4	26.5
1496.46	25.5
1497.52	27
1498.57	25.5
1499.63	25
1500.69	23
1501.75	25
1502.8	26.5
1503.86	26.5
1504.92	21
1505.98	26
1507.03	26.5
1508.09	27.5
1509.15	26.5
1510.2	27.5
1511.26	24
1512.31	24
1513.37	26
1514.42	25.5
1515.48	26
1516.53	25
1517.59	25
1518.64	22.5
1519.7	24
1520.75	29
1521.81	25
1522.86	24.5
1523.92	25.5
1524.97	30.5
1526.02	23
1527.08	20.5
1528.13	28
1529.18	27.5
1530.24	26
1531.29	28
1532.34	30
1533.39	25
1534.45	22
1535.5	28
1536.55	26.5
1537.6	26.5
1538.65	27
1539.71	24.5
1540.76	21.5
1541.81	24.5
1542.86	26
1543.91	24
1544.96	27
1546.01	27
1547.06	24
1548.11	24
1549.16	24.5
1550.21	26.5
1551.26	25
1552.31	25
1553.36	31
1554.41	27.5
1555.46	23
1556.51	23.5
1557.56	30
1558.6	25
1559.65	25.5
1560.7	26.5
1561.75	26.5
1562.8	25
1563.84	24.5
1564.89	21
1565.94	25
1566.99	23.5
1568.03	26.5
1569.08	28
1570.13	23.5
1571.17	26
1572.22	27.5
1573.27	25
1574.31	25.5
1575.36	26
1576.4	22
1577.45	27
1578.5	25
1579.54	23.5
1580.59	26.5
1581.63	25
1582.68	23.5
1583.72	26
1584.76	25.5
1585.81	26
1586.85	27
1587.9	28
1588.94	24.5
1589.98	27.5
1591.03	23
1592.07	26.5
1593.11	26.5
1594.16	25.5
1595.2	29.5
1596.24	23
1597.29	23.5
1598.33	28
1599.37	23
1600.41	24
1601.45	25
1602.49	29.5
1603.54	22.5
1604.58	26
1605.62	26
1606.66	26
1607.7	28
1608.74	28
1609.78	24
1610.82	29
1611.86	22
1612.9	27.5
1613.94	23.5
1614.98	29.5
1616.02	26.5
1617.06	22
1618.1	26
1619.14	25.5
1620.18	27.5
1621.22	25.5
1622.25	26.5
1623.29	26
1624.33	27.5
1625.37	27
1626.41	23
1627.45	25
1628.48	24
1629.52	26.5
1630.56	26.5
1631.59	24
1632.63	23
1633.67	22
1634.7	22
1635.74	21.5
1636.78	23.5
1637.81	25
1638.85	26
1639.88	24
1640.92	26
1641.96	24
1642.99	21.5
1644.03	27.5
1645.06	25.5
1646.1	24
1647.13	29
1648.17	25
1649.2	21.5
1650.23	26.5
1651.27	23
1652.3	27.5
1653.33	23
1654.37	25
1655.4	25.5
1656.44	27.5
1657.47	24.5
1658.5	25
1659.53	22
1660.57	25
1661.6	25
1662.63	27
1663.66	27
1664.69	21
1665.73	23.5
1666.76	23.5
1667.79	26.5
1668.82	25
1669.85	27
1670.88	27.5
1671.91	26
1672.94	21
1673.97	27
1675.01	25
1676.03	24
1677.07	26
1678.1	24
1679.12	26
1680.15	26
1681.18	26.5
1682.21	24
1683.24	26
1684.27	25.5
1685.3	23
1686.33	27
1687.36	23.5
1688.38	28
1689.41	25
1690.44	29.5
1691.47	26.5
1692.5	26.5
1693.52	23.5
1694.55	27.5
1695.58	23.5
1696.6	24
1697.63	22.5
1698.66	26.5
1699.68	23.5
1700.71	22.5
1701.74	22
1702.76	29
1703.79	26.5
1704.81	23.5
1705.84	29.5
1706.86	28.5
1707.89	24
1708.91	29
1709.94	23
1710.96	27
1711.99	25
1713.01	29
1714.04	27.5
1715.06	24
1716.08	25
1717.11	27
1718.13	21.5
1719.16	24.5
1720.18	25
1721.2	24.5
1722.22	26
1723.25	27
1724.27	27
1725.29	27.5
1726.31	21
1727.34	26
1728.36	24.5
1729.38	23
1730.4	20.5
1731.42	28.5
1732.44	30
1733.47	23
1734.49	26.5
1735.51	25
1736.53	21
1737.55	23.5
1738.57	24.5
1739.59	22
1740.61	24.5
1741.63	23.5
1742.65	22.5
1743.67	21.5
1744.69	25.5
1745.71	26.5
1746.73	26
1747.75	25
1748.76	25
1749.78	28
1750.8	23
1751.82	26
1752.84	27
1753.86	23
1754.87	26.5
1755.89	23.5
1756.91	25.5
1757.93	24
1758.94	25
1759.96	25
1760.98	26
1761.99	21
1763.01	22
1764.03	24
1765.04	29
1766.06	23
1767.08	26.5
1768.09	22.5
1769.11	20
1770.12	28
1771.14	25
1772.15	23
1773.17	25.5
1774.18	21
1775.2	27
1776.21	27
1777.23	25.5
1778.24	27.5
1779.25	25
1780.27	24
1781.28	22.5
1782.3	26.5
1783.31	27
1784.32	26.5
1785.34	25
1786.35	27
1787.36	20.5
1788.37	28.5
1789.39	26.5
1790.4	27
1791.41	24
1792.42	25
1793.43	25
1794.45	26.5
1795.46	23.5
1796.47	23
1797.48	25.5
1798.49	26
1799.5	27
1800.51	27
1801.52	25.5
1802.53	23
1803.54	25.5
1804.55	26.5
1805.56	24.5
1806.57	26.5
1807.58	23
1808.59	26
1809.6	23
1810.61	24.5
1811.62	25.5
1812.63	24.5
1813.64	25.5
1814.65	26
1815.66	26
1816.66	22.5
1817.67	26
1818.68	23.5
1819.69	21.5
1820.69	24.5
1821.7	25
1822.71	20.5
1823.72	23
1824.72	25
1825.73	22.5
1826.74	25.5
1827.74	27
1828.75	24
1829.76	25
1830.76	26
1831.77	26
1832.77	27
1833.78	24.5
1834.79	28
1835.79	21
1836.8	24.5
1837.8	23.5
1838.81	26.5
1839.81	24.5
1840.81	24
1841.82	21
1842.82	22
1843.83	26.5
1844.83	24
1845.83	23
1846.84	25.5
1847.84	23
1848.84	23
1849.85	26
1850.85	26
1851.85	23
1852.86	25
1853.86	24.5
1854.86	26.5
1855.86	26
1856.86	23.5
1857.87	28
1858.87	26.5
1859.87	23
1860.87	23.5
1861.87	24.5
1862.87	24
1863.88	23.5
1864.88	30
1865.88	23.5
1866.88	25.5
1867.88	26
1868.88	22
1869.88	29
1870.88	24
1871.88	27
1872.88	24.5
1873.88	26.5
1874.87	23.5
1875.87	23.5
1876.87	27
1877.87	24
1878.87	22
1879.87	23
1880.87	20
1881.86	24.5
1882.86	24.5
1883.86	23
1884.86	22
1885.86	24
1886.85	26
1887.85	25
1888.85	23
1889.84	25
1890.84	25
1891.84	26
1892.83	24.5
1893.83	20
1894.83	26
1895.82	25.5
1896.82	24
1897.81	24
1898.81	28
1899.81	25
1900.8	27
1901.8	27
1902.79	24
1903.78	24.5
1904.78	21
1905.77	29
1906.77	20
1907.76	27.5
1908.76	21
1909.75	24.5
1910.74	24.5
1911.74	22
1912.73	23.5
1913.72	25
1914.72	24
1915.71	23.5
1916.7	25.5
1917.7	25.5
1918.69	26.5
1919.68	26
1920.67	25
1921.66	22
1922.66	26
1923.65	29
1924.64	24.5
1925.63	25
1926.62	24.5
1927.61	24
1928.6	22.5
1929.59	22.5
1930.59	22
1931.58	26
1932.57	24
1933.56	23
1934.55	28
1935.54	24.5
1936.53	27.5
1937.52	23.5
1938.51	25
1939.49	21
1940.48	21
1941.47	26
1942.46	27
1943.45	24.5
1944.44	26
1945.43	28
1946.42	23.5
1947.4	22.5
1948.39	24.25
1949.38	24.5
1950.37	23
1951.35	21.5
1952.34	28.5
1953.33	24
1954.31	22
1955.3	24
1956.29	27
1957.27	27.5
1958.26	28.5
1959.25	25.5
1960.23	24.5
1961.22	23.5
1962.21	23
1963.19	26.5
1964.18	25.5
1965.16	26
1966.15	23.5
1967.13	27
1968.12	24
1969.1	23.5
1970.09	27.5
1971.07	25
1972.05	23
1973.04	25.5
1974.02	23.5
1975.01	22.5
1975.99	23
1976.97	23.5
1977.96	19
1978.94	27
1979.92	28
1980.91	26.5
1981.89	24
1982.87	24.5
1983.85	22
1984.84	23
1985.82	23
1986.8	22
1987.78	21.5
1988.76	27
1989.74	31
1990.73	26.5
1991.71	26
1992.69	26.5
1993.67	26
1994.65	25.5
1995.63	25.5
1996.61	23.5
1997.59	25
1998.57	22
1999.55	22
2000.53	23.5
2001.51	22.5
2002.49	23
2003.47	20
2004.45	27
2005.43	22.5
2006.41	24
2007.39	25
2008.37	23
2009.34	24.5
2010.32	28.5
2011.3	25
2012.28	24.5
2013.26	23.5
2014.23	24
2015.21	26
2016.19	23.5
2017.17	24
2018.14	23
2019.12	26
2020.1	23
2021.07	21
2022.05	25
2023.03	23
2024	25
2024.98	22.5
2025.96	21
2026.93	25.5
2027.91	23.5
2028.88	21.5
2029.86	23.5
2030.83	28
2031.81	26
2032.78	23
2033.76	21.5
2034.73	22.5
2035.71	27.5
2036.68	25
2037.66	24.5
2038.63	25.5
2039.6	23.5
2040.58	24
2041.55	20.5
2042.52	23
2043.5	24
2044.47	24
2045.44	22
2046.42	27
2047.39	22.5
2048.36	27
2049.33	21
2050.31	22.5
2051.28	21
2052.25	24
2053.22	21
2054.19	26
2055.17	23.5
2056.14	25
2057.11	19
2058.08	27
2059.05	25.5
2060.02	23.5
2060.99	23.5
2061.96	24
2062.93	21.5
2063.9	24.5
2064.87	22
2065.84	23.5
2066.81	23
2067.78	25
2068.75	22
2069.72	23.5
2070.69	27
2071.66	24.5
2072.63	22.5
2073.6	20.5
2074.56	30.5
2075.53	25.5
2076.5	27.5
2077.47	25
2078.44	23
2079.4	22
2080.37	26
2081.34	24.5
2082.31	25
2083.27	24.5
2084.24	22.5
2085.21	22
2086.18	25.5
2087.14	25.5
2088.11	22.5
2089.07	27
2090.04	26
2091.01	25
2091.97	24.5
2092.94	24.5
2093.9	23.5
2094.87	20.5
2095.83	26
2096.8	23.5
2097.76	20
2098.73	19.5
2099.69	25
2100.66	25.5
2101.62	24.5
2102.59	20
2103.55	25
2104.52	22.5
2105.48	23
2106.44	24.5
2107.41	25.5
2108.37	25
2109.33	26.5
2110.3	25
2111.26	22.5
2112.22	27
2113.18	22
2114.15	26
2115.11	25
2116.07	24
2117.03	26
2118	26.5
2118.96	20.5
2119.92	25
2120.88	24
2121.84	20.5
2122.8	24.5
2123.76	23
2124.72	26
2125.68	20.5
2126.65	24
2127.61	21
2128.57	24
2129.53	25
2130.49	22
2131.45	24
2132.41	21.5
2133.36	24
2134.32	25
2135.28	25
2136.24	26.5
2137.2	21
2138.16	22.5
2139.12	24.5
2140.08	22
2141.04	21
2141.99	22
2142.95	26.9787
2143.91	20.5548
2144.87	21.1609
2145.83	24.0521
2146.78	23.4623
2147.74	23.9313
2148.7	24.4684
2149.66	24.8513
2150.61	25.171
2151.57	22.9694
2152.53	25.5757
2153.48	25.8096
2154.44	20.3406
2155.4	24.0863
2156.35	24.4384
2157.31	25.2593
2158.26	21.7611
2159.22	23.1699
2160.17	26.6447
2161.13	26.7422
2162.08	24.0357
2163.04	22.5543
2163.99	25.0467
2164.95	21.5837
2165.9	23.0243
2166.86	20.4031
2167.81	24.5347
2168.77	22.1324
2169.72	21.9619
2170.67	25.9899
2171.63	23.3178
2172.58	22.3192
2173.54	22.9473
2174.49	21.6857
2175.44	23.7261
2176.39	23.3107
2177.35	21.7485
2178.3	22.4352
2179.25	23.9288
2180.2	22.8343
2181.16	24.2338
2182.11	21.7341
2183.06	21.7063
2184.01	22.2888
2184.96	23.7384
2185.92	24.4539
2186.87	22.6046
2187.82	20.4372
2188.77	22.2354
2189.72	22.0778
2190.67	22.439
2191.62	24.9059
2192.57	22.3975
2193.52	23.3582
2194.47	24.5899
2195.42	23.4177
2196.37	20.271
2197.32	24.3144
2198.27	23.2403
2199.22	20.2597
2200.17	24.9827
2201.12	21.7525
2202.07	22.6796
2203.02	21.8244
2203.97	22.4243
2204.92	24.3226
2205.87	24.4043
2206.81	26.4848
2207.76	22.5634
2208.71	25.3023
2209.66	24.7422
2210.61	21.0413
2211.55	22.234
2212.5	21.8677
2213.45	22.4279
2214.4	24.7644
2215.34	21.7652
2216.29	23.362
2217.24	24.4079
2218.18	26.8227
2219.13	22.0607
2220.08	22.1124
2221.02	23.9123
2221.97	23.216
2222.92	24.7975
2223.86	22.7658
2224.81	22.9238
2225.75	24.4931
2226.7	23.3252
2227.64	20.1643
2228.59	21.4524
2229.53	20.7411
2230.48	24.2403
2231.42	22.0281
2232.37	21.8724
2233.31	25.5493
2234.26	19.5407
2235.2	23.4352
2236.14	22.2266
2237.09	23.3726
2238.03	19.6392
2238.97	19.0801
2239.92	22.0209
2240.05	22.5
2241	23.5
2241.95	27.5
2242.89	26
2243.84	21
2244.79	24
2245.74	22
2246.68	23
2247.63	20
2248.58	21.5
2249.53	21
2250.47	21.5
2251.42	24
2252.36	24
2253.31	26.5
2254.26	24
2255.2	23
2256.15	26
2257.1	27.5
2258.04	22.5
2258.99	24
2259.93	25.5
2260.88	19.5
2261.82	21.5
2262.77	22
2263.71	28.5
2264.66	24.5
2265.6	24
2266.55	25
2267.49	26.5
2268.43	23
2269.38	20.5
2270.32	23
2271.26	22.5
2272.21	22
2273.15	20
2274.09	24.5
2275.04	28
2275.98	23
2276.92	22
2277.87	26
2278.81	24
2279.75	18
2280.69	24.5
2281.64	22.5
2282.58	25.5
2283.52	21
2284.46	24
2285.4	20.5
2286.34	24.5
2287.29	23
2288.23	24
2289.17	22.5
2290.11	22
2291.05	21.5
2291.99	25.5
2292.93	23
2293.87	20
2294.81	23
2295.75	24.5
2296.69	20.5
2297.63	22.5
2298.57	23.5
2299.51	24
2300.45	24
2301.39	19.5
2302.33	24.5
2303.27	24
2304.2	25.5
2305.14	24
2306.08	22
2307.02	24.5
2307.96	19
2308.9	26
2309.83	21.5
2310.77	22.5
2311.71	22
2312.65	25
2313.58	24
2314.52	27
2315.46	21
2316.39	21
2317.33	27
2318.27	25
2319.21	19.5
2320.14	24.5
2321.08	25
2322.01	21
2322.95	24.5
2323.89	26
2324.82	26.5
2325.76	25
2326.69	23.5
2327.63	20
2328.56	25
2329.5	26
2330.43	22.5
2331.37	21
2332.3	21
2333.24	27
2334.17	29
2335.1	23.5
2336.04	22.5
2336.97	23.5
2337.91	27.5
2338.84	23
2339.77	20
2340.71	22
2341.64	22
2342.57	23
2343.51	24.5
2344.44	22
2345.37	22
2346.3	26
2347.24	22.5
2348.17	26
2349.1	24
2350.03	21.5
2350.96	23.5
2351.89	23
2352.83	24
2353.76	24
2354.69	23
2355.62	24.5
2356.55	26
2357.48	19.5
2358.41	20
2359.34	24
2360.27	24.5
2361.2	23.5
2362.13	23.5
2363.06	23.5
2363.99	22.5
2364.92	24.5
2365.85	24.5
2366.78	25.5
2367.71	27
2368.64	23
2369.57	23.5
2370.5	23
2371.43	24
2372.36	23.5
2373.28	23
2374.21	26.5
2375.14	22.5
2376.07	22.5
2377	26
2377.93	23
2378.85	23.5
2379.78	22
2380.71	23.5
2381.63	19.5
2382.56	25
2383.49	23.5
2384.42	27
2385.34	24
2386.27	24.5
2387.2	24
2388.12	21.5
2389.05	25
2389.97	23
2390.9	22.5
2391.82	24
2392.75	25
2393.68	26.5
2394.6	26.5
2395.53	22
2396.45	21.5
2397.38	26.5
2398.3	24.5
2399.23	24.5
2400.15	22.5
2401.07	25
2402	25
2402.92	24
2403.85	26
2404.77	30
2405.69	28.5
2406.62	25.5
2407.54	24
2408.46	24
2409.39	26.5
2410.31	18.5
2411.23	24.5
2412.16	26.5
2413.08	24
2414	25
2414.92	20
2415.85	25.5
2416.77	18
2417.69	23.5
2418.61	27.5
2419.53	26.5
2420.45	23.5
2421.38	22.5
2422.3	26.5
2423.22	22.5
2424.14	20
2425.06	23
2425.98	23.5
2426.9	26.5
2427.82	23
2428.74	23.5
2429.66	22.5
2430.58	25.5
2431.5	24
2432.42	22
2433.34	25
2434.26	22
2435.18	22.5
2436.1	25.5
2437.02	27.5
2437.94	24.5
2438.85	24
2439.77	21
2440.69	24.5
2441.61	22.5
2442.53	22
2443.45	24.5
2444.36	21.5
2445.28	23.5
2446.2	25.5
2447.12	25.5
2448.03	18.5
2448.95	24
2449.87	28
2450.79	24
2451.7	24.5
2452.62	25
2453.54	24
2454.45	24.5
2455.37	25.5
2456.28	20.5
2457.2	24
2458.12	22.5
2459.03	25.5
2459.95	25.5
2460.86	23.5
2461.78	22.5
2462.69	27
2463.61	18.5
2464.52	25.5
2465.44	23
2466.35	26
2467.27	24.5
2468.18	25
2469.1	28.5
2470.01	27.5
2470.93	25
2471.84	22
2472.75	24.5
2473.67	25.5
2474.58	23
2475.49	26.5
2476.41	26
2477.32	25
2478.23	23.5
2479.15	23
2480.06	24.5
2480.97	21.5
2481.88	23
2482.79	25.5
2483.71	23.5
2484.62	23.5
2485.53	26.5
2486.44	22
2487.35	22
2488.26	26.5
2489.18	24
2490.09	24
2491	24.5
2491.91	21.5
2492.82	27
2493.73	22
2494.64	25
2495.55	26
2496.46	26
2497.37	25
2498.28	27
2499.19	26.5
2500.1	25
2501.01	24.5
2501.92	23
2502.83	24
2503.74	28
2504.65	23.5
2505.56	27
2506.47	23
2507.37	25
2508.28	21.5
2509.19	26.5
2510.1	23
2511.01	22.5
2511.92	28.5
2512.82	26
2513.73	27.5
2514.64	24
2515.55	25
2516.45	29
2517.36	27.5
2518.27	23
2519.17	25
2520.08	25.5
2520.99	23
2521.89	25.5
2522.8	24
2523.71	24
2524.61	22
2525.52	24
2526.42	31
2527.33	26
2528.24	24
2529.14	24
2530.05	28
2530.95	23.5
2531.86	27.5
2532.76	25
2533.67	22.5
2534.57	25.5
2535.48	22.5
2536.38	23.5
2537.28	26
2538.19	23
2539.09	22.5
2540	26
2540.9	25.5
2541.8	26
2542.71	23
2543.61	25.5
2544.51	22.5
2545.42	22
2546.32	26
2547.22	22
2548.12	24
2549.03	23.5
2549.93	24.5
2550.83	25
2551.73	24
2552.63	22.5
2553.54	22.5
2554.44	20
2555.34	26
2556.24	25.5
2557.14	25
2558.04	29.5
2558.94	26
2559.85	26.5
2560.75	26.5
2561.65	24
2562.55	27.5
2563.45	28
2564.35	23
2565.25	25
2566.15	26.5
2567.05	26
2567.95	23.5
2568.85	19
2569.75	24.5
2570.65	25.5
2571.55	21.5
2572.44	25
2573.34	26.5
2574.24	26.5
2575.14	26
2576.04	26
2576.94	27
2577.84	24.5
2578.73	22
2579.63	24.5
2580.53	21.5
2581.43	21.5
2582.33	22
2583.22	28
2584.12	26
2585.02	26.5
2585.91	25
2586.81	27.5
2587.71	26.5
2588.6	23.5
2589.5	23.5
2590.4	25
2591.29	27
2592.19	27
2593.09	27.5
2593.98	25
2594.88	27
2595.77	21
2596.67	22.5
2597.56	27.5
2598.46	28.5
2599.35	20.5
2600.25	26.5
2601.14	23
2602.04	28
2602.93	26.5
2603.83	22
2604.72	26.5
2605.62	29
2606.51	23
2607.4	29
2608.3	24.5
2609.19	23.5
2610.09	23
2610.98	23
2611.87	26.5
2612.76	22.5
2613.66	24
2614.55	21
2615.44	24
2616.34	22.5
2617.23	24
2618.12	25
2619.01	25.5
2619.9	24.5
2620.8	22
2621.69	24.5
2622.58	25
2623.47	22
2624.36	25
2625.25	25
2626.15	25.5
2627.04	23
2627.93	20.5
2628.82	27
2629.71	23.5
2630.6	22.5
2631.49	27
2632.38	21
2633.27	22.5
2634.16	26
2635.05	24
2635.94	25.5
2636.83	26
2637.72	21
2638.61	24.5
2639.5	26.5
2640.39	27
2641.28	23
2642.16	24
2643.05	28.5
2643.94	26.5
2644.83	26.5
2645.72	23.5
2646.61	25
2647.49	25
2648.38	26
2649.27	21.5
2650.16	27
2651.05	23.5
2651.93	23
2652.82	29
2653.71	23.5
2654.59	26.5
2655.48	24
2656.37	26
2657.25	24
2658.14	26
2659.03	21
2659.91	25.5
2660.8	24
2661.69	26
2662.57	24.5
2663.46	24.5
2664.34	26
2665.23	24.5
2666.11	25
2667	26
2667.88	23.5
2668.77	25.5
2669.65	27
2670.54	25.5
2671.42	25.5
2672.31	23.5
2673.19	25
2674.08	25
2674.96	25
2675.84	22
2676.73	25
2677.61	25
2678.49	23.5
2679.38	23.5
2680.26	27
2681.14	29
2682.03	25
2682.91	22.5
2683.79	28.5
2684.68	25.5
2685.56	22
2686.44	27.5
2687.32	22
2688.2	22
2689.09	26.5
2689.97	20
2690.85	27.5
2691.73	21
2692.61	23
2693.49	28
2694.38	21.5
2695.26	23
2696.14	27
2697.02	26
2697.9	22
2698.78	23.5
2699.66	25.5
2700.54	23
2701.42	26
2702.3	24.5
2703.18	25
2704.06	26
2704.94	24
2705.82	24.5
2706.7	21.5
2707.58	22
2708.46	23
2709.34	25.5
2710.21	24.5
2711.09	27
2711.97	26.5
2712.85	23
2713.73	25
2714.61	23.5
2715.49	19
2716.36	26.5
2717.24	29.5
2718.12	24
2719	24
2719.87	25
2720.75	25
2721.63	24.5
2722.51	24
2723.38	25.5
2724.26	26
2725.14	22.5
2726.01	22.5
2726.89	25.5
2727.77	24.5
2728.64	25.5
2729.52	26
2730.39	26
2731.27	25
2732.15	26.5
2733.02	28
2733.9	26
2734.77	27.5
2735.65	27.5
2736.52	27.5
2737.4	23
2738.27	22.5
2739.15	26
2740.02	25.5
2740.89	28
2741.77	27
2742.64	22.5
2743.52	25
2744.39	25
2745.27	28
2746.14	23
2747.01	26
2747.89	24
2748.76	24
2749.63	25.5
2750.51	22
2751.38	23.5
2752.25	21.5
2753.12	23
2754	25
2754.87	25.5
2755.74	27
2756.61	24
2757.48	22
2758.36	22
2759.23	24
2760.1	27
2760.97	24
2761.84	24.5
2762.71	25.5
2763.59	24.5
2764.46	25
2765.33	28
2766.2	24
2767.07	19
2767.94	31
2768.81	22.5
2769.68	24.5
2770.55	27
2771.42	24
2772.29	27.5
2773.16	26
2774.03	26.5
2774.9	20.5
2775.77	22.5
2776.64	25.5
2777.51	27.5
2778.37	26.5
2779.24	25.5
2780.11	27
2780.98	29.5
2781.85	26
2782.72	26
2783.59	29
2784.45	25
2785.32	27
2786.19	23
2787.06	22.5
2787.92	29
2788.79	24
2789.66	27
2790.53	23
2791.39	21
2792.26	24
2793.13	27
2793.99	25.5
2794.86	25
2795.73	29
2796.59	29.5
2797.46	26.5
2798.33	27
2799.19	26
2800.06	27.5
2800.92	29.75
2801.79	31.5
2802.65	27
2803.52	29.5
2804.39	23
2805.25	23.5
2806.11	25.5
2806.98	26.5
2807.84	29
2808.71	27
2809.57	28.5
2810.44	24.5
2811.3	23
2812.17	23
2813.03	26
2813.89	22
2814.76	26
2815.62	24
2816.49	26
2817.35	26.5
2818.21	27
2819.07	30.5
2819.94	26
2820.8	27
2821.66	23
2822.53	24.5
2823.39	29.5
2824.25	23.5
2825.11	27
2825.97	27
2826.84	25
2827.7	26.5
2828.56	24.5
2829.42	27
2830.28	25
2831.14	27
2832.01	28.5
2832.87	27
2833.73	25
2834.59	27.5
2835.45	22.5
2836.31	24.5
2837.17	25
2838.03	25
2838.89	25.5
2839.75	27.5
2840.61	25
2841.47	28
2842.33	23.5
2843.19	27
2844.05	21
2844.91	26.5
2845.77	25
2846.63	28.5
2847.48	25.5
2848.34	24.5
2849.2	24
2850.06	27
2850.92	24
2851.78	25
2852.64	30
2853.49	28
2854.35	26.5
2855.21	27
2856.07	29
2856.93	26
2857.78	26.5
2858.64	30
2859.5	26
2860.35	22.5
2861.21	25
2862.07	26
2862.93	24.5
2863.78	27
2864.64	31.5
2865.49	27.5
2866.35	28
2867.21	28
2868.06	27.5
2868.92	26.5
2869.77	28.5
2870.63	24.5
2871.49	26.5
2872.34	32.5
2873.2	30
2874.05	31.5
2874.91	33
2875.76	28
2876.62	30
2877.47	31
2878.32	32
2879.18	31
2880.03	33
2880.89	34.5
2881.74	31
2882.6	31.5
2883.45	37
2884.3	33
2885.16	36
2886.01	32.5
2886.86	35
2887.72	33.5
2888.57	37
2889.42	37
2890.27	37
2891.13	42
2891.98	44
2892.83	41
2893.68	49
2894.54	44
2895.39	48.5
2896.24	45
2897.09	53.5
2897.94	56.5
2898.8	58.5
2899.65	63
2900.5	67
2901.35	61
2902.2	60
2903.05	71.5
2903.9	71.5
2904.75	72
2905.6	71
2906.45	68.5
2907.3	72
2908.15	70.5
2909.01	68.5
2909.85	64
2910.7	66.5
2911.55	64.5
2912.4	61
2913.25	57
2914.1	50.5
2914.95	49
2915.8	50.5
2916.65	44
2917.5	43.5
2918.35	36
2919.2	41
2920.04	37.5
2920.89	32.5
2921.74	37.5
2922.59	34
2923.44	31.5
2924.29	34.5
2925.13	36
2925.98	30.5
2926.83	32
2927.68	29
2928.52	26.5
2929.37	28.5
2930.22	31
2931.06	28
2931.91	27.5
2932.76	27.5
2933.6	28
2934.45	30.5
2935.3	32.5
2936.14	20.5
2936.99	33
2937.83	29.5
2938.68	32
2939.53	28
2940.37	27
2941.22	32
2942.06	35.5
2942.91	25.5
2943.75	30.5
2944.6	25
2945.44	25
2946.29	27
2947.13	26.5
2947.98	29.5
2948.82	27
2949.66	27
2950.51	30.5
2951.35	32.5
2952.2	29
2953.04	32.5
2953.88	31.5
2954.73	30
2955.57	33
2956.41	35.5
2957.26	34.5
2958.1	42
2958.94	38
2959.79	37
2960.63	40
2961.47	41
2962.31	47
2963.15	43
2964	46
2964.84	50
2965.68	47.5
2966.52	48.5
2967.37	48
2968.21	43
2969.05	39
2969.89	41
2970.73	41
2971.57	35.9976
2972.41	35.4934
2973.25	36.0303
2974.09	39.8087
2974.93	35.835
2975.77	33.0174
2976.62	30.6616
2977.46	34.168
2978.3	36.0298
2979.14	31.2389
2979.98	28.4804
2980.81	34.0865
2981.65	33.7807
2982.49	29.2381
2983.33	28.6466
2984.17	24.7288
2985.01	26.1882
2985.85	28.8661
2986.69	28.3714
2987.53	27.0231
2988.37	30.1438
2989.21	28.5187
2990.04	28.256
2990.88	25.5556
2991.72	24.1349
2992.56	24.4312
2993.4	26.3012
2994.23	21.4005
2995.07	23.3287
2995.91	27.0332
2996.75	25.5004
2997.58	27.0463
2998.42	23.0814
2999.26	21.7702
3000.1	23.1675
3000.93	25.0289
3001.77	24.6211
3002.61	25.6476
3003.44	24.6858
3004.28	25.6119
3005.11	21.512
3005.95	24.8265
3006.79	24.5457
3007.62	25.666
3008.46	25.4199
3009.29	19.2019
3010.13	22.7959
3010.97	21.7588
3011.8	23.5454
3012.64	22.2092
3013.47	24.2542
3014.31	23.3555
3015.14	23.1714
3015.98	23.6063
3016.81	24.7841
3017.64	23.3586
3018.48	23.2388
3019.31	23.5798
3020.15	25.3484
3020.98	23.5671
3021.82	24.7051
3022.65	22.3731
3023.48	23.5429
3024.32	19.7494
3025.15	21.4784
3025.98	23.1331
3026.82	23.1169
3027.65	25.0351
3028.48	24.8301
3029.31	26.0285
3030.15	24.1882
3030.98	23.3978
3031.81	23.5919
3032.64	23.216
3033.48	24.2185
3034.31	24.8518
3035.14	25.8212
3035.97	24.367
3036.8	21.5841
3037.64	22.5773
3038.47	22.117
3039.3	21.8808
3040.13	21.4258
3040.96	21.9721
3041.79	23.1705
3042.62	22.3301
3043.45	21.8252
3044.28	21.9698
3045.12	23.3519
3045.95	23.115
3046.78	24.0607
3047.61	24.1322
3048.44	24.3818
3049.27	23.8335
3050.1	23.5706
3050.92	24
3051.75	21.1578
3052.58	21.2376
3053.41	22.4401
3054.24	24.3997
3055.07	23.98
3055.9	23.0583
3056.73	23.4538
3057.26	22.5
3058.09	21
3058.93	19.5
3059.76	25
3060.59	19.5
3061.43	26
3062.26	20.5
3063.09	24
3063.92	25.5
3064.76	20.5
3065.59	23.5
3066.42	24
3067.25	23.5
3068.08	25
3068.92	26
3069.75	25
3070.58	23.5
3071.41	21.5
3072.24	24
3073.07	24.5
3073.9	20.5
3074.73	25
3075.57	21
3076.4	21.5
3077.23	24
3078.06	23.5
3078.89	24.5
3079.72	24.5
3080.55	25.5
3081.38	21
3082.21	29.5
3083.04	21
3083.87	24.5
3084.7	26
3085.53	22
3086.36	25.5
3087.19	23.5
3088.01	22
3088.84	22
3089.67	22
3090.5	25
3091.33	21.5
3092.16	19.5
3092.99	25.5
3093.81	26
3094.64	27
3095.47	23
3096.3	31
3097.13	18
3097.95	25.5
3098.78	22
3099.61	22
3100.44	24
3101.26	22
3102.09	24
3102.92	25.5
3103.74	27.5
3104.57	24.5
3105.4	21.5
3106.22	25
3107.05	19
3107.88	25.5
3108.7	21
3109.53	24
3110.35	24
3111.18	20.5
3112.01	26.5
3112.83	22.5
3113.66	24.5
3114.48	26.5
3115.31	23
3116.13	20.5
3116.96	24.5
3117.78	20.5
3118.61	26
3119.43	22.5
3120.26	22
3121.08	23
3121.9	19.5
3122.73	23.5
3123.55	23.5
3124.38	27
3125.2	22.5
3126.02	23.5
3126.85	23.5
3127.67	20
3128.49	20.5
3129.32	24
3130.14	20.5
3130.96	27.5
3131.79	20.5
3132.61	21
3133.43	25.5
3134.25	24
3135.08	25.5
3135.9	25
3136.72	25
3137.54	22
3138.37	23.5
3139.19	21.5
3140.01	30.5
3140.83	18
3141.65	27.5
3142.47	22.5
3143.29	29
3144.12	22
3144.94	24
3145.76	24.5
3146.58	24
3147.4	23
3148.22	24
3149.04	22.5
3149.86	26
3150.68	23
3151.5	28
3152.32	18
3153.14	20.5
3153.96	25.5
3154.78	24
3155.6	24
3156.42	22
3157.24	25.5
3158.06	20.5
3158.88	20.5
3159.7	22.5
3160.51	25
3161.33	26
3162.15	21.5
3162.97	28
3163.79	24.5
3164.61	23
3165.42	21
3166.24	29.5
3167.06	22
3167.88	21
3168.7	28
3169.51	26
3170.33	27
3171.15	25.5
3171.97	24
3172.78	24
3173.6	22
3174.42	23.5
3175.23	27
3176.05	28.5
3176.87	25.5
3177.68	23.5
3178.5	23
3179.32	23
3180.13	24
3180.95	22.5
3181.76	27.5
3182.58	23.5
3183.4	24
3184.21	25
3185.03	24.5
3185.84	25
3186.66	20.5
3187.47	24
3188.29	22
3189.1	22.5
3189.92	25.5
3190.73	24.5
3191.55	21
3192.36	22.5
3193.17	24.5
3193.99	20.5
3194.8	24.5
3195.62	25.5
3196.43	23
3197.24	24.5
3198.06	24.5
3198.87	26
3199.68	24.5
3200.5	23
3201.31	27
3202.12	25
3202.94	20.5
3203.75	23
3204.56	25.5
3205.38	23.5
3206.19	25
3207	22
3207.81	27
3208.62	27.5
3209.44	20.5
3210.25	23
3211.06	23
3211.87	23
3212.68	23
3213.49	25.5
3214.31	23.5
3215.12	29
3215.93	26
3216.74	23
3217.55	27.5
3218.36	22.5
3219.17	27
3219.98	26
3220.79	22
3221.6	20.5
3222.41	22.5
3223.22	22.5
3224.03	21
3224.84	23
3225.65	22.5
3226.46	23.5
3227.27	24
3228.08	22
3228.89	24.5
3229.7	27
3230.51	27.5
3231.32	18
3232.13	26
3232.94	24
3233.74	28.5
3234.55	24
3235.36	19
3236.17	24
3236.98	23.5
3237.78	23.5
3238.59	21.5
3239.4	27
3240.21	28
3241.02	23.5
3241.82	27.5
3242.63	23
3243.44	24
3244.25	24
3245.05	23
3245.86	22.5
3246.67	21
3247.47	24.5
3248.28	22.5
3249.09	25
3249.89	25.5
3250.7	22
3251.5	21.5
3252.31	22
3253.12	24.5
3253.92	25
3254.73	24
3255.53	28.5
3256.34	23
3257.14	21.5
3257.95	22
3258.75	23
3259.56	22.5
3260.36	25.5
3261.17	25.5
3261.97	19.5
3262.78	24
3263.58	25
3264.39	26.5
3265.19	24.5
3265.99	24.5
3266.8	22
3267.6	26.5
3268.41	25
3269.21	24
3270.01	24.5
3270.82	26.5
3271.62	23.5
3272.42	24
3273.23	21
3274.03	22.5
3274.83	26.5
3275.64	24
3276.44	23
3277.24	21.5
3278.04	23
3278.85	25.5
3279.65	25
3280.45	25
3281.25	27.5
3282.05	23.5
3282.85	20.5
3283.66	21.5
3284.46	25
3285.26	24.5
3286.06	22.5
3286.86	24
3287.66	23.5
3288.46	24
3289.27	24.5
3290.07	24
3290.87	26
3291.67	20.5
3292.47	27
3293.27	20
3294.07	24
3294.87	25
3295.67	25.5
3296.47	22.5
3297.27	18.5
3298.07	24
3298.87	22.5
3299.67	22.5
3300.47	24
3301.26	28
3302.06	24
3302.86	24
3303.66	25
3304.46	20.5
3305.26	25
3306.06	24.5
3306.86	23.5
3307.65	26.5
3308.45	25
3309.25	23.5
3310.05	24
3310.85	22
3311.64	23
3312.44	29
3313.24	26
3314.04	26.5
3314.83	25
3315.63	26
3316.43	25
3317.22	23
3318.02	23.5
3318.82	26.5
3319.62	24
3320.41	23
3321.21	23
3322	24.5
3322.8	22
3323.6	23
3324.39	27.5
3325.19	20
3325.98	24
3326.78	26.5
3327.58	24.5
3328.37	24
3329.17	26.5
3329.96	22.5
3330.76	22
3331.55	25
3332.35	22
3333.14	22.5
3333.94	24.5
3334.73	22.5
3335.52	25
3336.32	24
3337.11	26.5
3337.91	25.5
3338.7	23
3339.5	22
3340.29	22.5
3341.08	26
3341.88	20.5
3342.67	24
3343.46	24.5
3344.26	23
3345.05	26.5
3345.84	24.5
3346.63	24.5
3347.43	25.5
3348.22	22.5
3349.01	22.5
3349.8	28.5
3350.6	25.5
3351.39	25
3352.18	24.5
3352.97	25
3353.77	22
3354.56	23
3355.35	27.5
3356.14	23
3356.93	25.5
3357.72	24
3358.51	22.5
3359.31	23
3360.1	24
3360.89	25
3361.68	27
3362.47	25.5
3363.26	22.5
3364.05	22.5
3364.84	24
3365.63	25
3366.42	27
3367.21	25
3368	24.5
3368.79	25.5
3369.58	22
3370.37	21
3371.16	23
3371.95	22.5
3372.74	23
3373.53	26
3374.32	25
3375.1	23
3375.89	28
3376.68	20.5
3377.47	24
3378.26	25.5
3379.05	23.5
3379.84	25
3380.62	26
3381.41	23.5
3382.2	23
3382.99	25
3383.78	27
3384.56	25.5
3385.35	22.5
3386.14	25
3386.93	26
3387.71	25
3388.5	25.5
3389.29	24
3390.07	22
3390.86	26
3391.65	25.5
3392.43	24.5
3393.22	25
3394.01	25.5
3394.79	25.5
3395.58	24
3396.36	25
3397.15	24
3397.94	26.5
3398.72	25
3399.51	24
3400.29	25
3401.08	21
3401.86	26
3402.65	22.5
3403.43	24
3404.22	24.5
3405	25.5
3405.79	27
3406.57	24
3407.36	21.5
3408.14	25.5
3408.93	26
3409.71	25.5
3410.49	25.5
3411.28	21
3412.06	28
3412.84	23
3413.63	26
3414.41	27.5
3415.2	23.5
3415.98	25.5
3416.76	27.5
3417.54	21.5
3418.33	27.5
3419.11	23
3419.89	24
3420.68	18.5
3421.46	26
3422.24	24
3423.02	27
3423.81	28
3424.59	27.5
3425.37	23
3426.15	21
3426.93	24.5
3427.71	24.5
3428.5	23
3429.28	23.5
3430.06	26
3430.84	24.5
3431.62	25
3432.4	22
3433.18	27
3433.96	25.5
3434.75	22
3435.53	22.5
3436.31	25.5
3437.09	23.5
3437.87	23
3438.65	24
3439.43	26
3440.21	22
3440.99	23.5
3441.77	22.5
3442.55	19.5
3443.33	26
3444.1	23.5
3444.88	23.5
3445.66	23
3446.44	25.5
3447.22	24
3448	25
3448.78	24
3449.56	25.5
3450.34	24
3451.11	21
3451.89	20.5
3452.67	23.5
3453.45	23.5
3454.23	24
3455	24
3455.78	24
3456.56	25
3457.34	25
3458.11	21
3458.89	23.5
3459.67	22
3460.45	26
3461.22	22
3462	24.5
3462.78	21
3463.55	26
3464.33	21
3465.11	25.5
3465.88	21.5
3466.66	26.5
3467.44	22.5
3468.21	22.5
3468.99	21
3469.76	25.5
3470.54	24
3471.32	24.5
3472.09	24
3472.87	28
3473.64	22
3474.42	23
3475.19	22.5
3475.97	24.5
3476.74	23.5
3477.52	22
3478.29	26.5
3479.07	24
3479.84	28.5
3480.61	22
3481.39	20
3482.16	23.5
3482.94	24.5
3483.71	26
3484.48	24.5
3485.26	26
3486.03	23
3486.81	24
3487.58	27
3488.35	24.5
3489.13	20
3489.9	24.5
3490.67	26
3491.44	25
3492.22	24
3492.99	23
3493.76	25
3494.54	25.5
3495.31	20.5
3496.08	23.5
3496.85	23
3497.62	22.5
3498.4	23.5
3499.17	24.5
3499.94	23.5
