#Acq. time (s)=	5
#Accumulations=	5
#Range (cm-¹)=	100...3500
#Windows=	4
#Autofocus=	Off
#AutoExposure=	Off
#Spike filter=	Multiple accum.
#Delay time (s)=	0
#Binning=	1
#Readout mode=	Signal
#DeNoise=	Off
#ICS correction=	Off
#Dark correction=	Off
#Inst. Process=	Off
#Instrument=	LabRAM HR Evol
#Detector=	Syncerity OE
#Objective=	x100_VIS
#Grating=	600 (500nm)
#ND Filter=	25%
#Laser=	633nm_Edge
#Hole=	100.021
#Range=	Visible
#Project=	verificaciones
#Sample=	at3
#Site=	plain
#Title=	bolusat3plain
#Remark=	
#Date=	14.01.2026 12:24
#Acquired=	14.01.2026 12:24:33
100.618	23.5
101.901	32.5
103.185	35.5
104.468	33.5
105.751	30
107.033	32.5
108.316	26.5
109.598	28
110.88	29.5
112.162	31
113.445	30
114.727	30.5
116.008	29.5
117.289	35
118.57	35
119.85	25.5
121.13	29.5
122.411	33.5
123.691	31
124.97	32
126.25	31.5
127.529	33.5
128.808	38
130.086	32.5
131.364	33
132.643	30.5
133.921	32.5
135.199	34
136.477	35.5
137.755	29
139.032	39.5
140.309	31
141.586	35
142.863	38.5
144.14	38
145.415	37.5
146.691	36.5
147.967	39
149.243	35.5
150.518	39
151.794	34
153.067	36
154.342	38.5
155.617	42
156.892	35.5
158.166	37.5
159.439	42
160.712	38.5
161.986	44.5
163.26	37
164.531	42
165.805	42
167.077	40
168.35	37.5
169.621	42
170.893	35.5
172.165	38
173.437	41
174.707	39
175.979	39.5
177.25	39
178.519	37.5
179.79	38.5
181.061	36
182.33	42
183.6	40.5
184.87	44
186.138	42.5
187.408	41
188.676	39.5
189.945	42
191.214	39
192.481	42.5
193.75	41.5
195.016	39.5
196.285	41
197.552	34.5
198.819	37
200.086	35.5
201.352	36
202.619	39
203.884	39
205.151	38
206.416	32
207.682	38.5
208.947	37.5
210.213	36
211.477	35.5
212.742	35
214.006	34.5
215.271	32
216.535	34
217.799	36.5
219.062	35
220.326	35
221.589	32.5
222.851	28.5
224.115	33.5
225.377	32
226.64	31
227.901	33
229.163	31
230.425	28.5
231.686	29.5
232.947	29
234.209	29.5
235.469	34
236.729	26
237.991	33
239.25	29
240.51	34.5
241.771	34.5
243.03	27.5
244.288	30
245.549	32.5
246.807	33
248.065	30
249.323	28.5
250.583	28
251.84	27
253.098	31.5
254.355	30.5
255.613	33
256.87	32.5
258.127	30.5
259.383	29.5
260.639	29.5
261.897	32.5
263.153	31
264.408	32
265.664	33.5
266.919	31
268.174	30
269.43	33.5
270.685	31
271.939	29
273.193	32
274.447	28.5
275.701	31
276.955	29
278.208	33
279.461	26.5
280.714	24.5
281.968	28
283.221	29
284.473	25
285.726	22.5
286.977	30.5
288.229	26
289.481	26
290.732	29
291.983	30.5
293.234	28.5
294.485	28.5
295.736	32
296.986	26.5
298.236	28.5
299.486	28
300.736	26
301.985	30.5
303.233	26
304.482	27
305.731	30
306.98	25
308.228	23
309.477	29
310.725	28.5
311.973	27
313.22	26.5
314.468	30
315.714	25
316.961	33
318.208	28
319.455	24.5
320.701	29
321.947	27
323.192	32
324.438	30.5
325.684	27.5
326.929	31.5
328.175	29
329.418	34
330.663	30.5
331.908	24
333.152	29.5
334.395	31.5
335.639	28
336.883	25.5
338.127	29
339.369	25.5
340.612	27.5
341.855	27
343.097	32
344.34	30.5
345.582	27
346.823	30
348.065	29.5
349.307	28.5
350.547	29
351.789	26
353.03	29
354.27	33
355.511	31
356.75	26.5
357.991	30
359.231	27
360.47	29
361.709	29
362.948	30.5
364.187	29
365.427	29.5
366.664	22.5
367.903	27
369.14	31
370.379	28
371.616	29.5
372.854	29
374.091	28.5
375.328	27
376.564	27.5
377.802	27.5
379.037	29.5
380.274	27.5
381.51	25
382.745	27.5
383.981	30
385.216	29
386.452	28.5
387.686	28
388.922	32
390.155	25
391.389	29
392.624	27.5
393.857	26.5
395.091	33.5
396.325	29
397.558	29
398.79	24.5
400.024	27.5
401.256	28.5
402.488	26.5
403.721	32
404.953	26
406.184	32
407.417	26
408.648	27
409.878	29
411.109	29
412.341	27
413.571	29.5
414.801	30
416.031	31
417.262	27.5
418.491	26.5
419.72	28
420.949	26
422.178	30.5
423.408	24
424.637	28
425.865	29
427.093	31.5
428.32	28
429.548	26
430.777	28
432.004	25
433.231	30
434.458	26
435.685	30
436.911	29.5
438.137	27.5
439.363	28.5
440.589	28.5
441.815	29.5
443.042	31
444.267	28
445.492	27
446.717	30
447.942	30.5
449.166	33.5
450.39	26
451.615	31
452.838	30
454.062	29
455.286	29.5
456.509	30
457.732	33
458.955	35
460.178	30.5
461.399	29
462.621	34
463.843	29
465.065	30
466.287	32
467.508	34
468.73	33
469.951	30
471.172	34
472.393	37.5
473.612	34.5
474.832	41
476.052	40
477.272	41
478.492	42.5
479.712	50
480.93	49
482.149	48.5
483.368	55
484.587	55
485.806	59
487.023	56.5
488.241	62
489.459	63
490.677	56.5
491.893	55
493.111	55.5
494.328	50
495.543	54
496.76	52.5
497.977	47.5
499.194	48
500.409	48.5
501.625	41
502.841	38.5
504.055	44
505.27	36
506.486	38
507.699	38
508.914	41
510.128	36
511.342	30
512.557	36
513.77	35.5
514.984	35.5
516.196	32
517.41	34
518.623	35
519.835	31
521.048	33.5
522.259	32.5
523.472	35
524.683	32.5
525.895	31.5
527.106	31
528.318	32
529.528	29.5
530.74	34
531.949	33
533.161	30.5
534.37	32.5
535.581	32.5
536.79	29
537.999	28.5
539.209	31
540.418	31
541.627	26.5
542.835	29
544.043	28.5
545.253	28
546.46	31.5
547.669	31
548.876	32.5
550.083	30
551.292	26
552.498	28.5
553.705	29
554.912	28.5
556.118	30.5
557.324	31
558.53	30.5
559.737	26
560.942	28
562.147	30
563.353	27.5
564.558	24
565.763	29.5
566.967	33
568.173	31
569.377	32.5
570.58	30
571.784	26.5
572.987	23.5
574.192	29
575.395	29.5
576.598	29
577.8	28.5
579.003	35
580.205	22
581.407	28.5
582.61	26.5
583.812	27.5
585.014	27
586.215	30
587.416	30.5
588.617	32
589.818	29
591.018	27
592.219	29
593.419	31
594.619	28.5
595.819	27
597.02	28
598.219	29
599.418	26.5
600.617	27.5
601.816	27.5
603.015	27
604.213	27
605.41	28
606.608	25
607.806	29
609.004	28.5
610.201	27
611.399	31.5
612.596	25
613.793	28
614.989	29
616.186	27
617.382	30
618.579	25.5
619.775	28
620.969	31
622.165	28
623.36	31
624.555	29
625.75	30
626.945	32
628.139	26
629.333	29
630.527	28.5
631.721	26
632.915	29.5
634.108	25
635.301	27
636.495	29
637.688	26
638.88	29.5
640.072	30
641.265	31
642.456	33
643.648	26.5
644.84	28.5
646.032	31
647.222	29
648.414	31
649.605	27
650.795	27.5
651.986	28
653.177	29.5
654.366	29
655.556	28
656.745	27.5
657.935	29
659.125	30
660.313	28.5
661.503	29.5
662.69	29
663.879	24
665.067	32
666.256	31
667.444	31
668.631	34
669.819	28.5
671.006	26
672.194	29
673.38	31
674.567	23.5
675.753	39.5
676.94	35.5
678.125	32
679.311	31
680.497	32
681.682	34.5
682.868	38
684.053	35
685.238	35.5
686.422	34.5
687.606	33.5
688.792	34
689.975	34
691.159	32
692.343	35.5
693.526	32
694.71	33
695.893	34
697.076	38
698.259	34.5
699.441	38
700.623	32
701.805	39
702.988	37.5
704.169	44.5
705.35	41.5
706.533	43
707.714	46
708.894	50.5
710.075	45.5
711.255	48
712.436	42.5
713.616	48.5
714.796	37.5
715.975	35.5
717.155	38
718.335	30
719.514	37
720.693	29
721.872	33.5
723.05	30.5
724.228	27.5
725.406	30
726.585	31.5
727.763	33
728.941	28.5
730.118	26.5
731.295	26
732.472	30.5
733.649	28.5
734.825	29
736.002	28
737.178	27.5
738.354	29.5
739.53	24
740.705	26.5
741.881	27
743.056	27
744.231	28
745.406	28.5
746.581	29
747.755	29.5
748.93	31.5
750.104	29
751.278	25.5
752.452	26.5
753.625	24
754.799	27
755.972	29.5
757.144	29.5
758.317	27.5
759.489	29.5
760.662	28
761.834	27.5
763.006	27
764.178	30
765.349	29.5
766.521	28
767.692	29.5
768.863	28.5
770.034	27
771.204	32
772.374	29
773.545	32.5
774.715	31.5
775.885	26.5
777.054	28
778.224	31.5
779.393	32.5
780.562	32.5
781.731	30
782.9	31.5
784.069	27.5
785.236	34
786.405	30.5
787.573	33.5
788.74	28.5
789.908	33
791.074	28
792.242	32
793.409	29
794.575	27.5
795.742	27
796.909	29.5
798.074	29
799.241	30.5
800.406	28
801.572	27
802.737	26
803.902	27.5
805.067	31
806.232	29
807.396	26.5
808.561	26
809.725	29
810.889	30
812.052	32
813.217	25
814.38	30
815.544	29.5
816.706	31.5
817.87	29.5
819.032	29
820.195	30.5
821.357	27
822.518	26
823.681	25.5
824.842	30
826.005	30.5
827.165	27
828.326	25
829.488	30.5
830.648	31
831.808	28
832.97	24
834.129	31.5
835.289	23
836.45	30.5
837.609	28.5
838.768	26
839.927	27
841.087	26.5
842.245	27.5
843.404	31.5
844.562	29.5
845.721	29
846.879	27
848.036	24
849.194	25.5
850.351	28.5
851.509	28.5
852.666	30
853.823	29.5
854.979	27
856.136	24.5
857.292	27
858.448	29.5
859.605	29.5
860.761	29.5
861.916	27.5
863.071	34.5
864.226	28.5
865.381	27
866.536	26.5
867.691	29
868.845	25
869.999	28.5
871.153	31
872.307	29.5
873.461	29
874.614	28
875.767	29.5
876.92	26
878.073	27
879.226	26
880.379	29.5
881.531	28.5
882.683	27
883.835	30
884.987	27
886.139	27
887.291	28.5
888.442	30
889.593	24.5
890.743	25
891.893	28
893.044	27
894.195	23
895.345	27.5
896.495	23
897.643	27.5
898.793	27.5
899.943	25
901.092	28.5
902.241	27.5
903.389	25.5
904.538	24
905.687	28.5
906.835	28.5
907.982	28
909.13	26
910.278	27
911.426	26
912.572	28.5
913.72	26.5
914.867	25.5
916.013	24
917.16	25.5
918.306	28.5
919.451	28.5
920.598	25
921.744	26
922.889	24
924.035	28.5
925.18	24.5
926.324	27.5
927.47	26
928.614	27
929.758	24
930.902	26.5
932.047	22.5
933.191	28.5
934.334	23.5
935.478	24.5
936.621	27
937.764	29
938.906	24.5
940.05	30.5
941.192	28.5
942.335	27.5
943.476	25.5
944.619	30.5
945.76	26.5
946.901	28
948.043	24.5
949.184	23
950.326	26
951.466	27
952.606	27
953.747	24
954.887	27.5
956.028	24
957.167	28
958.307	24
959.447	25.5
960.586	27
961.725	28
962.865	23.5
964.003	25
965.141	28.5
966.279	27.5
967.418	31.5
968.556	27.5
969.693	26.5
970.831	26.5
971.969	25
973.106	26
974.243	28
975.38	28.5
976.517	23.5
977.654	30
978.79	25.5
979.926	25.5
981.061	25
982.197	32
983.334	24.5
984.469	28
985.604	27
986.739	30
987.873	26
989.008	27
990.142	26.5
991.277	28.5
992.411	27.5
993.544	23.5
994.679	28
995.813	24.5
996.946	26.5
998.079	25
999.212	23
1000.35	25
1001.48	26
1002.61	28
1003.74	28
1004.87	23.5
1006.01	30
1007.14	23.5
1008.27	25.5
1009.4	29
1010.53	25.5
1011.66	27.5
1012.79	29
1013.92	27.5
1015.05	30
1016.18	25.5
1017.31	26
1018.44	24.5
1019.57	22.5
1020.7	25
1021.83	27.5
1022.96	24
1024.09	21
1025.22	25
1026.35	27
1027.48	30
1028.6	26.5
1029.73	28.5
1030.86	23.5
1031.99	23
1033.12	24
1034.24	26
1035.37	27
1036.5	26.5
1037.62	26.5
1038.75	24
1039.88	25.5
1041	24
1042.13	26
1043.25	28.5
1044.38	24.5
1045.5	26
1046.63	28.5
1047.76	28.5
1048.88	27.5
1050	29
1051.13	23
1052.25	29.5
1053.38	27
1054.5	25
1055.63	27
1056.75	23
1057.87	26
1058.99	23
1060.12	27
1061.24	26
1062.36	25
1063.49	27
1064.61	23
1065.73	28
1066.85	24
1067.97	25
1069.1	23
1070.22	26
1071.34	24.5
1072.46	23
1073.58	25
1074.7	26
1075.82	26
1076.94	30.5
1078.06	22.5
1079.18	25
1080.3	24
1081.42	24.5
1082.54	25
1083.66	24
1084.78	23.5
1085.9	25.5
1087.02	23.5
1088.13	24
1089.25	23
1090.37	25.5
1091.49	28
1092.61	27
1093.72	24.5
1094.84	28.5
1095.96	25
1097.08	26
1098.19	24
1099.31	27
1100.42	25
1101.54	24
1102.66	27
1103.77	25.5
1104.89	23.5
1106	26
1107.12	23.5
1108.23	23.5
1109.35	23.5
1110.46	27
1111.58	27.5
1112.69	24.5
1113.81	26.5
1114.92	23
1116.04	27.5
1117.15	27
1118.26	24
1119.38	23.5
1120.49	27.5
1121.6	27
1122.72	25
1123.83	21
1124.94	28
1126.05	24.5
1127.17	26
1128.28	22.5
1129.39	26.5
1130.5	26
1131.61	21.5
1132.72	24
1133.83	23
1134.94	26
1136.06	25.5
1137.17	22
1138.27	28
1139.39	29.5
1140.5	29
1141.61	26.5
1142.72	22.5
1143.82	24
1144.93	23.5
1146.04	25
1147.15	25.5
1148.26	26
1149.37	25
1150.48	24.5
1151.58	24.5
1152.69	25.5
1153.8	29.5
1154.91	27.5
1156.02	31.5
1157.12	27
1158.23	26
1159.34	24.5
1160.44	26.5
1161.55	24.5
1162.66	26
1163.76	26.5
1164.87	30.5
1165.97	28
1167.08	28.5
1168.18	28.5
1169.29	28
1170.39	26.5
1171.5	24.5
1172.6	22.5
1173.71	22
1174.81	23
1175.92	25
1177.02	27
1178.13	26.5
1179.23	26.5
1180.33	27
1181.44	28
1182.54	22.5
1183.64	26
1184.74	26
1185.85	24.5
1186.95	29
1188.05	26
1189.15	23.5
1190.26	22
1191.36	26
1192.46	23
1193.56	23.5
1194.66	26.9845
1195.76	24.4594
1196.86	21.5784
1197.96	26.0617
1199.06	25
1200.16	24.9958
1201.26	24.9083
1202.36	26.3466
1203.46	24.3108
1204.56	23.8553
1205.66	25.2538
1206.76	27.3338
1207.86	27.3752
1208.96	21.9541
1210.06	25.9395
1211.16	23.6515
1212.25	26
1213.35	20.9426
1214.45	25.45
1215.55	25.0067
1216.65	22.0113
1217.74	22.6115
1218.84	23.9399
1219.94	21.7635
1221.03	26.5196
1222.13	22.9032
1223.23	23.4843
1224.32	23.9005
1225.42	25.5929
1226.52	29.0041
1227.61	24.3386
1228.71	20.7105
1229.8	28.4447
1230.9	23.6516
1231.99	25.335
1233.09	24.5328
1234.18	23.0829
1235.28	24.1728
1236.37	23.4332
1237.47	23.1736
1238.56	24.3507
1239.65	26.9446
1240.75	23.8469
1241.84	23.6401
1242.93	26.0809
1244.03	23.8559
1245.12	25.9049
1246.21	25.9682
1247.31	23.9909
1248.4	23.9722
1249.49	27.0348
1250.58	23.3369
1251.67	27.7847
1252.77	24.4518
1253.86	25.7585
1254.95	27.1064
1256.04	24.415
1257.13	25.003
1258.22	26.8483
1259.31	25.1125
1260.4	26.6264
1261.49	27.0961
1262.58	25.866
1263.67	25.5692
1264.76	28.4689
1265.85	23.168
1266.94	24.8399
1268.03	24.2937
1269.12	27.4947
1270.21	25.3557
1271.3	22.6374
1272.39	22.1848
1273.47	24.858
1274.56	26.1408
1275.65	23.0349
1276.74	23.0696
1277.83	25.688
1278.91	26.5947
1280	25.467
1281.09	23.2367
1282.17	23.2908
1283.26	25.5214
1284.35	25.6574
1285.43	24.5742
1286.52	24.6796
1287.61	24.415
1288.69	25.9276
1289.78	26.2218
1290.86	24.3244
1291.95	24.5374
1293.03	25.6226
1294.12	23.8557
1295.2	25.5509
1296.29	25.0401
1297.37	24.1781
1298.46	25.3582
1299.54	23.6589
1300.63	26.4387
1301.71	25.2034
1302.79	24.2578
1303.88	23.0755
1304.96	23.0211
1306.04	25.1752
1306.5	26
1307.59	24
1308.68	25
1309.76	24.5
1310.85	24.5
1311.94	27.5
1313.03	25.5
1314.11	22
1315.2	23.5
1316.29	25
1317.37	27
1318.46	24
1319.55	28
1320.63	28
1321.72	24.5
1322.81	24
1323.89	22
1324.98	22
1326.06	23.5
1327.15	21.5
1328.23	24.5
1329.32	24
1330.4	21
1331.49	26.5
1332.57	23.5
1333.66	28
1334.74	27
1335.82	25.5
1336.91	27
1337.99	25
1339.07	27
1340.16	27.5
1341.24	27
1342.32	26
1343.4	24
1344.49	27.5
1345.57	27
1346.65	24.5
1347.73	26
1348.82	24.5
1349.9	29
1350.98	25
1352.06	22.5
1353.14	26.5
1354.22	25.5
1355.3	24.5
1356.38	27.5
1357.46	21.5
1358.54	26
1359.62	24
1360.7	23
1361.78	24.5
1362.86	26
1363.94	22.5
1365.02	24
1366.1	19.5
1367.18	25.5
1368.26	29
1369.34	23
1370.41	23
1371.49	27
1372.57	24
1373.65	21.5
1374.72	25.5
1375.8	26
1376.88	27.5
1377.96	28.5
1379.03	25
1380.11	26
1381.19	27
1382.26	23
1383.34	28
1384.42	24
1385.49	27
1386.57	26
1387.64	29.5
1388.72	27.5
1389.79	26.5
1390.87	27.5
1391.94	27
1393.02	25
1394.09	28.5
1395.17	25.5
1396.24	29
1397.31	29
1398.39	27
1399.46	30
1400.54	27.5
1401.61	27.5
1402.68	27
1403.76	28
1404.83	30.5
1405.9	26.5
1406.97	30
1408.05	33
1409.12	29.5
1410.19	30
1411.26	31
1412.33	30
1413.4	32.5
1414.48	34.5
1415.55	29.5
1416.62	28
1417.69	31.5
1418.76	29.5
1419.83	32
1420.9	29.5
1421.97	28.5
1423.04	30
1424.11	26.5
1425.18	34
1426.25	25
1427.32	24.5
1428.39	27
1429.46	29
1430.52	23
1431.59	26
1432.66	26
1433.73	25
1434.8	24.5
1435.87	26
1436.93	26
1438	27
1439.07	26
1440.14	26.5
1441.2	26.5
1442.27	26.5
1443.34	27.5
1444.4	23.5
1445.47	25
1446.54	27
1447.6	25.5
1448.67	29
1449.73	25.5
1450.8	25
1451.86	25
1452.93	25
1453.99	24
1455.06	27
1456.12	25.5
1457.19	28
1458.25	21
1459.32	25.5
1460.38	25
1461.45	24
1462.51	28
1463.57	26.5
1464.64	28.5
1465.7	28.5
1466.76	29.5
1467.82	26.5
1468.89	28
1469.95	24
1471.01	27.5
1472.07	27
1473.14	26
1474.2	25.5
1475.26	27
1476.32	28.5
1477.38	21
1478.44	25
1479.5	26
1480.57	21.5
1481.63	26
1482.69	23.5
1483.75	31
1484.81	27
1485.87	26
1486.93	25
1487.99	26
1489.05	28.5
1490.1	25
1491.17	25
1492.22	28.5
1493.28	27.5
1494.34	24
1495.4	29.5
1496.46	28.5
1497.52	23
1498.57	27
1499.63	26.5
1500.69	28
1501.75	24
1502.8	23
1503.86	26.5
1504.92	22
1505.98	29
1507.03	28
1508.09	28.5
1509.15	25
1510.2	26
1511.26	25
1512.31	28
1513.37	24
1514.42	24
1515.48	22.5
1516.53	31
1517.59	24
1518.64	27.5
1519.7	24
1520.75	29
1521.81	26.5
1522.86	26.5
1523.92	25.5
1524.97	26
1526.02	26
1527.08	27
1528.13	27
1529.18	21
1530.24	20
1531.29	28.5
1532.34	25
1533.39	26
1534.45	27.5
1535.5	24
1536.55	31.5
1537.6	25
1538.65	24.5
1539.71	25
1540.76	27
1541.81	24
1542.86	20.5
1543.91	29
1544.96	24.5
1546.01	23
1547.06	25
1548.11	24
1549.16	28.5
1550.21	30
1551.26	26
1552.31	25.5
1553.36	25
1554.41	25
1555.46	28.5
1556.51	27.5
1557.56	26
1558.6	28
1559.65	25
1560.7	25
1561.75	30.5
1562.8	23
1563.84	24
1564.89	22.5
1565.94	27.5
1566.99	25.5
1568.03	25
1569.08	23.5
1570.13	24
1571.17	23.5
1572.22	21.5
1573.27	26.5
1574.31	28.5
1575.36	24.5
1576.4	22.5
1577.45	29
1578.5	24.5
1579.54	26
1580.59	28.5
1581.63	21.5
1582.68	26
1583.72	28
1584.76	28.5
1585.81	25
1586.85	27
1587.9	26.5
1588.94	27
1589.98	24.5
1591.03	28
1592.07	28
1593.11	27
1594.16	23
1595.2	29.5
1596.24	27
1597.29	23
1598.33	24.5
1599.37	26
1600.41	26.5
1601.45	27
1602.49	24
1603.54	26
1604.58	24
1605.62	27
1606.66	27.5
1607.7	27.5
1608.74	21
1609.78	28
1610.82	28
1611.86	25
1612.9	27
1613.94	27
1614.98	26
1616.02	23
1617.06	25.5
1618.1	31.5
1619.14	25.5
1620.18	23.5
1621.22	30
1622.25	24
1623.29	26
1624.33	23.5
1625.37	21.5
1626.41	27
1627.45	22
1628.48	26.5
1629.52	27.5
1630.56	29.5
1631.59	28
1632.63	25.5
1633.67	27
1634.7	28
1635.74	25.5
1636.78	23
1637.81	24.5
1638.85	27.5
1639.88	28
1640.92	25
1641.96	24
1642.99	26
1644.03	26.5
1645.06	25.5
1646.1	25.5
1647.13	29
1648.17	22
1649.2	26.5
1650.23	24
1651.27	27
1652.3	28
1653.33	24.5
1654.37	26
1655.4	22
1656.44	28
1657.47	25
1658.5	26.5
1659.53	27
1660.57	19
1661.6	24.5
1662.63	22.5
1663.66	24
1664.69	29
1665.73	28
1666.76	23
1667.79	24.5
1668.82	27
1669.85	25
1670.88	23.5
1671.91	26.5
1672.94	25
1673.97	27
1675.01	28.5
1676.03	26
1677.07	26
1678.1	27
1679.12	24
1680.15	23.5
1681.18	26
1682.21	25.5
1683.24	24
1684.27	23
1685.3	26
1686.33	25.5
1687.36	27.5
1688.38	23
1689.41	28
1690.44	28
1691.47	25
1692.5	28
1693.52	27
1694.55	29.5
1695.58	20.5
1696.6	27
1697.63	31
1698.66	24.5
1699.68	23
1700.71	27
1701.74	24
1702.76	20.5
1703.79	27
1704.81	27
1705.84	23
1706.86	25.5
1707.89	24
1708.91	29
1709.94	23.5
1710.96	25
1711.99	23
1713.01	26
1714.04	23
1715.06	27.5
1716.08	23
1717.11	22
1718.13	30.5
1719.16	20
1720.18	22.5
1721.2	25
1722.22	26
1723.25	25
1724.27	26.5
1725.29	23
1726.31	27.5
1727.34	29
1728.36	27.5
1729.38	27
1730.4	23.5
1731.42	25
1732.44	27
1733.47	27
1734.49	26.5
1735.51	27
1736.53	22
1737.55	22
1738.57	26.5
1739.59	23.5
1740.61	27.5
1741.63	21
1742.65	26.5
1743.67	23.5
1744.69	26
1745.71	26.5
1746.73	24.5
1747.75	25
1748.76	25.5
1749.78	21
1750.8	28.5
1751.82	24.5
1752.84	30.5
1753.86	28
1754.87	29.5
1755.89	23.5
1756.91	30.5
1757.93	25
1758.94	30
1759.96	20
1760.98	26
1761.99	25
1763.01	28.5
1764.03	26
1765.04	25.5
1766.06	28.5
1767.08	20
1768.09	28.5
1769.11	23
1770.12	27
1771.14	26
1772.15	23
1773.17	25.5
1774.18	26.5
1775.2	23.5
1776.21	27
1777.23	24
1778.24	28
1779.25	22.5
1780.27	28
1781.28	25
1782.3	23
1783.31	26.5
1784.32	26
1785.34	23.5
1786.35	25.5
1787.36	23.5
1788.37	20
1789.39	25
1790.4	25.5
1791.41	24
1792.42	24.5
1793.43	25
1794.45	23
1795.46	25.5
1796.47	25
1797.48	22.5
1798.49	26.5
1799.5	30
1800.51	21
1801.52	25
1802.53	20.5
1803.54	25
1804.55	24
1805.56	23.5
1806.57	28.5
1807.58	26
1808.59	26
1809.6	27
1810.61	27
1811.62	31
1812.63	25.5
1813.64	21.5
1814.65	25
1815.66	24
1816.66	28
1817.67	23.5
1818.68	26
1819.69	27.5
1820.69	25
1821.7	22.5
1822.71	23
1823.72	26
1824.72	22.5
1825.73	24
1826.74	23
1827.74	23
1828.75	21.5
1829.76	23.5
1830.76	24
1831.77	24
1832.77	28.5
1833.78	24.5
1834.79	24.5
1835.79	22.5
1836.8	28
1837.8	23.5
1838.81	28
1839.81	23
1840.81	26
1841.82	25.5
1842.82	26
1843.83	25
1844.83	22
1845.83	24.5
1846.84	24
1847.84	23.5
1848.84	28.5
1849.85	24
1850.85	28
1851.85	26.5
1852.86	23
1853.86	25
1854.86	25
1855.86	27
1856.86	25.5
1857.87	25.5
1858.87	24
1859.87	26.5
1860.87	27
1861.87	23.5
1862.87	26
1863.88	25.5
1864.88	23.5
1865.88	27
1866.88	26.5
1867.88	32
1868.88	27
1869.88	26.5
1870.88	23
1871.88	24.5
1872.88	27
1873.88	23
1874.87	22
1875.87	24.5
1876.87	23
1877.87	24.5
1878.87	26
1879.87	25
1880.87	26.5
1881.86	25
1882.86	23
1883.86	22.5
1884.86	24
1885.86	23.5
1886.85	22
1887.85	24
1888.85	26
1889.84	25.5
1890.84	26.5
1891.84	26.5
1892.83	26.5
1893.83	24
1894.83	25.5
1895.82	25
1896.82	22
1897.81	29.5
1898.81	22.5
1899.81	24.5
1900.8	24
1901.8	25
1902.79	25.5
1903.78	21.5
1904.78	26
1905.77	24
1906.77	24.5
1907.76	26
1908.76	23.5
1909.75	25
1910.74	26.5
1911.74	22
1912.73	27
1913.72	27
1914.72	23
1915.71	26.5
1916.7	25.5
1917.7	26.5
1918.69	23
1919.68	23
1920.67	25.5
1921.66	22.5
1922.66	21
1923.65	29
1924.64	26.5
1925.63	24.5
1926.62	25.5
1927.61	25
1928.6	27
1929.59	21.5
1930.59	26
1931.58	22.5
1932.57	25.5
1933.56	23
1934.55	26
1935.54	25
1936.53	26.5
1937.52	26
1938.51	26.5
1939.49	23.5
1940.48	24
1941.47	22.5
1942.46	21.5
1943.45	23
1944.44	23
1945.43	25.5
1946.42	22.5
1947.4	29.5
1948.39	27.5
1949.38	25.5
1950.37	26
1951.35	24
1952.34	24
1953.33	26.5
1954.31	21
1955.3	27
1956.29	24
1957.27	25
1958.26	29.5
1959.25	23.5
1960.23	25.5
1961.22	24.5
1962.21	28.5
1963.19	26.5
1964.18	28
1965.16	23
1966.15	22.5
1967.13	23
1968.12	25
1969.1	27
1970.09	24
1971.07	23
1972.05	22.5
1973.04	24
1974.02	22.5
1975.01	24
1975.99	24
1976.97	26.5
1977.96	25
1978.94	22.5
1979.92	24
1980.91	28
1981.89	22
1982.87	23.5
1983.85	25
1984.84	26
1985.82	25
1986.8	25.5
1987.78	24.5
1988.76	23
1989.74	28
1990.73	23.5
1991.71	23.5
1992.69	25.5
1993.67	27
1994.65	27
1995.63	23.5
1996.61	27.5
1997.59	23.5
1998.57	20.5
1999.55	25.5
2000.53	26.5
2001.51	26.5
2002.49	22
2003.47	25.5
2004.45	23
2005.43	24.5
2006.41	21
2007.39	23.5
2008.37	25
2009.34	27
2010.32	24
2011.3	24.5
2012.28	23.5
2013.26	23.5
2014.23	25
2015.21	23.5
2016.19	24
2017.17	26.5
2018.14	26
2019.12	25.5
2020.1	28
2021.07	22
2022.05	29
2023.03	25.5
2024	24
2024.98	26.5
2025.96	26
2026.93	27
2027.91	23.5
2028.88	26.5
2029.86	24.5
2030.83	22.5
2031.81	28
2032.78	22
2033.76	21
2034.73	26.5
2035.71	25
2036.68	27
2037.66	22.5
2038.63	25.5
2039.6	26
2040.58	23
2041.55	26.5
2042.52	21
2043.5	29.5
2044.47	25
2045.44	24.5
2046.42	24
2047.39	22.5
2048.36	24
2049.33	24.5
2050.31	25
2051.28	22.5
2052.25	25
2053.22	24.5
2054.19	24
2055.17	25
2056.14	25
2057.11	26.5
2058.08	23.5
2059.05	22.5
2060.02	26
2060.99	23.5
2061.96	23
2062.93	26
2063.9	24
2064.87	22
2065.84	24
2066.81	22
2067.78	27.5
2068.75	23
2069.72	23
2070.69	24
2071.66	25.5
2072.63	24.5
2073.6	24
2074.56	24
2075.53	23
2076.5	22.5
2077.47	27.5
2078.44	22
2079.4	21.5
2080.37	25
2081.34	23.5
2082.31	22.5
2083.27	23.5
2084.24	25.5
2085.21	27.5
2086.18	23.5
2087.14	21
2088.11	27
2089.07	24
2090.04	24.5
2091.01	24.5
2091.97	22.5
2092.94	26.5
2093.9	23
2094.87	25
2095.83	26
2096.8	21
2097.76	23
2098.73	24
2099.69	23
2100.66	23
2101.62	21
2102.59	27.5
2103.55	22
2104.52	20
2105.48	22.5
2106.44	19
2107.41	24
2108.37	26
2109.33	21.5
2110.3	26.5
2111.26	22.5
2112.22	18.5
2113.18	24.5
2114.15	19
2115.11	19
2116.07	28
2117.03	23.5
2118	24
2118.96	26
2119.92	21
2120.88	25
2121.84	28.5
2122.8	27.5
2123.76	22.5
2124.72	23.5
2125.68	22
2126.65	20.5
2127.61	25
2128.57	27
2129.53	22.5
2130.49	20
2131.45	27
2132.41	26
2133.36	25
2134.32	22
2135.28	27
2136.24	22
2137.2	24.5
2138.16	23
2139.12	23
2140.08	22
2141.04	21.5
2141.99	23
2142.95	22.0029
2143.91	20.023
2144.87	24.0333
2145.83	25.0153
2146.78	23.0655
2147.74	23.5439
2148.7	23.4314
2149.66	22.897
2150.61	27.2926
2151.57	27.5533
2152.53	23.8806
2153.48	23.115
2154.44	23.3141
2155.4	21.4556
2156.35	24.2112
2157.31	21.9863
2158.26	23.0967
2159.22	21.4777
2160.17	22.4141
2161.13	23.1213
2162.08	22.9257
2163.04	21.2836
2163.99	26.1989
2164.95	23.8933
2165.9	24.8834
2166.86	21.8325
2167.81	19.9338
2168.77	22.3996
2169.72	24.353
2170.67	24.495
2171.63	24.2833
2172.58	23.6942
2173.54	22.6927
2174.49	25.2221
2175.44	23.193
2176.39	23.7096
2177.35	22.5326
2178.3	21.8958
2179.25	25.3236
2180.2	21.7037
2181.16	21.6254
2182.11	21.1776
2183.06	22.8419
2184.01	21.4141
2184.96	23.3541
2185.92	23.9332
2186.87	24.8153
2187.82	25.3313
2188.77	21.942
2189.72	22.4024
2190.67	24.5541
2191.62	24.905
2192.57	20.1635
2193.52	21.5204
2194.47	23.0292
2195.42	24.0173
2196.37	22.3943
2197.32	22.0563
2198.27	22.6404
2199.22	22.2185
2200.17	23.1212
2201.12	24.9124
2202.07	23.5898
2203.02	22.7295
2203.97	21.6151
2204.92	23.1435
2205.87	21.726
2206.81	18.6536
2207.76	22.3008
2208.71	24.0081
2209.66	23.0148
2210.61	21.8941
2211.55	20.4446
2212.5	22.829
2213.45	21.5431
2214.4	20.338
2215.34	21.9762
2216.29	22.3736
2217.24	21.6378
2218.18	21.9636
2219.13	23.6262
2220.08	22.7577
2221.02	23.1255
2221.97	23.9615
2222.92	22.272
2223.86	26.449
2224.81	24.8531
2225.75	20.7353
2226.7	21.6329
2227.64	19.9819
2228.59	20.9593
2229.53	23.0369
2230.48	22.1675
2231.42	25.1606
2232.37	22.4805
2233.31	22.1092
2234.26	25.0522
2235.2	25.8928
2236.14	23.2962
2237.09	25.1518
2238.03	26.3256
2238.97	24.742
2239.92	22.3426
2240.05	22
2241	23.5
2241.95	22
2242.89	24.5
2243.84	22.5
2244.79	23
2245.74	20.5
2246.68	22
2247.63	21.5
2248.58	26.5
2249.53	24
2250.47	17
2251.42	18
2252.36	22.5
2253.31	21.5
2254.26	21
2255.2	23
2256.15	21
2257.1	22.5
2258.04	24
2258.99	22
2259.93	24.5
2260.88	21
2261.82	23
2262.77	22.5
2263.71	27
2264.66	24
2265.6	21
2266.55	23
2267.49	26.5
2268.43	24
2269.38	25
2270.32	22.5
2271.26	29
2272.21	23.5
2273.15	26
2274.09	22
2275.04	20.5
2275.98	24
2276.92	26
2277.87	21.5
2278.81	26
2279.75	25.5
2280.69	23.5
2281.64	23
2282.58	24
2283.52	21
2284.46	28
2285.4	24
2286.34	19.5
2287.29	25
2288.23	23.5
2289.17	26
2290.11	24.5
2291.05	21.5
2291.99	24.5
2292.93	23.5
2293.87	21
2294.81	23
2295.75	23.5
2296.69	25
2297.63	21.5
2298.57	22
2299.51	25
2300.45	22
2301.39	21.5
2302.33	22.5
2303.27	25
2304.2	22.5
2305.14	25
2306.08	20
2307.02	24.5
2307.96	27
2308.9	23
2309.83	25.5
2310.77	25
2311.71	24
2312.65	25
2313.58	21
2314.52	23.5
2315.46	21.5
2316.39	21.5
2317.33	22.5
2318.27	23.5
2319.21	24
2320.14	24.5
2321.08	23
2322.01	24
2322.95	21
2323.89	22
2324.82	26
2325.76	20.5
2326.69	25
2327.63	23.5
2328.56	24.5
2329.5	21.5
2330.43	24.5
2331.37	24
2332.3	25
2333.24	27
2334.17	22.5
2335.1	21
2336.04	21.5
2336.97	22.5
2337.91	26.5
2338.84	24
2339.77	25
2340.71	21
2341.64	21
2342.57	25
2343.51	23.5
2344.44	21
2345.37	24.5
2346.3	22.5
2347.24	22
2348.17	24
2349.1	26.5
2350.03	27
2350.96	26
2351.89	21
2352.83	25
2353.76	17.5
2354.69	22
2355.62	27.5
2356.55	23.5
2357.48	24.5
2358.41	24
2359.34	21.5
2360.27	23
2361.2	24.5
2362.13	17
2363.06	23.5
2363.99	23
2364.92	19
2365.85	27.5
2366.78	23
2367.71	23
2368.64	22
2369.57	23.5
2370.5	24.5
2371.43	25
2372.36	24
2373.28	24
2374.21	26.5
2375.14	28
2376.07	24
2377	26.5
2377.93	21
2378.85	23.5
2379.78	24
2380.71	22
2381.63	28
2382.56	22.5
2383.49	21.5
2384.42	24
2385.34	25
2386.27	20
2387.2	27
2388.12	27.5
2389.05	23
2389.97	24.5
2390.9	24.5
2391.82	25
2392.75	22
2393.68	24
2394.6	21.5
2395.53	24.5
2396.45	26.5
2397.38	24.5
2398.3	25
2399.23	26
2400.15	26
2401.07	21.5
2402	22
2402.92	22.5
2403.85	24.5
2404.77	28.5
2405.69	22
2406.62	24
2407.54	25.5
2408.46	27
2409.39	25.5
2410.31	24.5
2411.23	22.5
2412.16	27
2413.08	26.5
2414	25
2414.92	24.5
2415.85	25.5
2416.77	25.5
2417.69	24.5
2418.61	25.5
2419.53	25
2420.45	28.5
2421.38	23
2422.3	24
2423.22	27.5
2424.14	17.5
2425.06	21.5
2425.98	27.5
2426.9	22.5
2427.82	23.5
2428.74	24
2429.66	21.5
2430.58	23
2431.5	25.5
2432.42	26
2433.34	26.5
2434.26	24
2435.18	22.5
2436.1	27
2437.02	23.5
2437.94	25
2438.85	23
2439.77	19
2440.69	27.5
2441.61	26.5
2442.53	25
2443.45	23
2444.36	19
2445.28	26
2446.2	25
2447.12	23.5
2448.03	25.5
2448.95	24.5
2449.87	25
2450.79	20.5
2451.7	27
2452.62	20
2453.54	26
2454.45	27
2455.37	25.5
2456.28	25
2457.2	24
2458.12	25.5
2459.03	22
2459.95	23
2460.86	23
2461.78	24.5
2462.69	28.5
2463.61	21.5
2464.52	23.5
2465.44	24
2466.35	24.5
2467.27	23
2468.18	28
2469.1	26.5
2470.01	20.5
2470.93	24
2471.84	26
2472.75	22
2473.67	24
2474.58	21
2475.49	26
2476.41	29
2477.32	25.5
2478.23	24.5
2479.15	24.5
2480.06	25
2480.97	26
2481.88	23
2482.79	24.5
2483.71	23
2484.62	24.5
2485.53	20
2486.44	21
2487.35	26
2488.26	22.5
2489.18	22.5
2490.09	24
2491	24
2491.91	25
2492.82	24.5
2493.73	23.5
2494.64	24
2495.55	27
2496.46	21
2497.37	21.5
2498.28	24
2499.19	27.5
2500.1	25
2501.01	24.5
2501.92	21
2502.83	23
2503.74	21
2504.65	25.5
2505.56	23.5
2506.47	25
2507.37	23.5
2508.28	24.5
2509.19	25.5
2510.1	26
2511.01	23.5
2511.92	25
2512.82	25.5
2513.73	24
2514.64	24
2515.55	24
2516.45	25
2517.36	26
2518.27	21.5
2519.17	26.5
2520.08	25
2520.99	25
2521.89	23
2522.8	27
2523.71	26.5
2524.61	22
2525.52	22.5
2526.42	24
2527.33	24.5
2528.24	28.5
2529.14	26.5
2530.05	27.5
2530.95	24
2531.86	26
2532.76	25.5
2533.67	24.5
2534.57	23
2535.48	26
2536.38	28
2537.28	26
2538.19	30
2539.09	24.5
2540	26.5
2540.9	26
2541.8	23
2542.71	22.5
2543.61	29
2544.51	23
2545.42	24
2546.32	23.5
2547.22	22
2548.12	22.5
2549.03	24.5
2549.93	24
2550.83	23
2551.73	23
2552.63	27
2553.54	27
2554.44	23
2555.34	23
2556.24	26.5
2557.14	27
2558.04	24.5
2558.94	23.5
2559.85	23
2560.75	22
2561.65	28.5
2562.55	25.5
2563.45	24
2564.35	28
2565.25	21
2566.15	27
2567.05	27.5
2567.95	24.5
2568.85	26
2569.75	25
2570.65	27
2571.55	26.5
2572.44	23
2573.34	26.5
2574.24	27.5
2575.14	24
2576.04	23.5
2576.94	23
2577.84	23
2578.73	24
2579.63	25
2580.53	23
2581.43	22.5
2582.33	25
2583.22	25.5
2584.12	27
2585.02	27
2585.91	26
2586.81	23.5
2587.71	22
2588.6	25.5
2589.5	20
2590.4	22.5
2591.29	25
2592.19	24.5
2593.09	25.5
2593.98	27.5
2594.88	22
2595.77	26
2596.67	23
2597.56	24.5
2598.46	24
2599.35	25
2600.25	22.5
2601.14	28.5
2602.04	24.5
2602.93	24.5
2603.83	26.5
2604.72	23
2605.62	24
2606.51	27.5
2607.4	25.5
2608.3	24
2609.19	28.5
2610.09	25.5
2610.98	24
2611.87	27.5
2612.76	26
2613.66	25
2614.55	21.5
2615.44	23.5
2616.34	26.5
2617.23	25
2618.12	23
2619.01	23.5
2619.9	23.5
2620.8	28
2621.69	26.5
2622.58	24
2623.47	21.5
2624.36	21
2625.25	25
2626.15	26.5
2627.04	22.5
2627.93	23.5
2628.82	27
2629.71	22
2630.6	27
2631.49	20
2632.38	27
2633.27	27
2634.16	25
2635.05	23
2635.94	23
2636.83	22
2637.72	24.5
2638.61	25.5
2639.5	22.5
2640.39	25.5
2641.28	24
2642.16	26
2643.05	26
2643.94	26
2644.83	24
2645.72	24
2646.61	28.5
2647.49	19.5
2648.38	24.5
2649.27	27.5
2650.16	25
2651.05	26
2651.93	25
2652.82	28
2653.71	22
2654.59	24
2655.48	24.5
2656.37	21
2657.25	25
2658.14	21.5
2659.03	23
2659.91	25.5
2660.8	25
2661.69	25
2662.57	26.5
2663.46	27
2664.34	26
2665.23	24
2666.11	22
2667	26
2667.88	23
2668.77	22.5
2669.65	25
2670.54	28
2671.42	22
2672.31	23.5
2673.19	29
2674.08	24.5
2674.96	28.5
2675.84	27.5
2676.73	24
2677.61	24.5
2678.49	25
2679.38	27
2680.26	27
2681.14	26
2682.03	23.5
2682.91	23
2683.79	25.5
2684.68	24
2685.56	22
2686.44	23.5
2687.32	25.5
2688.2	25
2689.09	23
2689.97	27
2690.85	22
2691.73	24
2692.61	23
2693.49	25
2694.38	23
2695.26	22.5
2696.14	22
2697.02	25
2697.9	25
2698.78	22
2699.66	24.5
2700.54	25
2701.42	21.5
2702.3	24.5
2703.18	25
2704.06	27.5
2704.94	27.5
2705.82	26
2706.7	25.5
2707.58	23.5
2708.46	23
2709.34	25
2710.21	22
2711.09	25.5
2711.97	26
2712.85	27.5
2713.73	23.5
2714.61	20
2715.49	28.5
2716.36	28.5
2717.24	26.5
2718.12	25
2719	25
2719.87	23
2720.75	25
2721.63	24.5
2722.51	23
2723.38	24.5
2724.26	28.5
2725.14	25.5
2726.01	24
2726.89	23
2727.77	26
2728.64	25
2729.52	21
2730.39	28.5
2731.27	27
2732.15	24
2733.02	24
2733.9	29
2734.77	27
2735.65	19
2736.52	23.5
2737.4	25.5
2738.27	24
2739.15	25.5
2740.02	23.5
2740.89	26
2741.77	25
2742.64	27.5
2743.52	23
2744.39	23
2745.27	29
2746.14	26.5
2747.01	22.5
2747.89	25
2748.76	27
2749.63	26
2750.51	22.5
2751.38	26.5
2752.25	27
2753.12	27.5
2754	21.5
2754.87	22
2755.74	24.5
2756.61	27
2757.48	27.5
2758.36	24
2759.23	24.5
2760.1	23
2760.97	27
2761.84	22.5
2762.71	25.5
2763.59	23.5
2764.46	22
2765.33	25
2766.2	27
2767.07	25
2767.94	21.5
2768.81	27
2769.68	21
2770.55	26
2771.42	26
2772.29	28
2773.16	26
2774.03	25
2774.9	26
2775.77	25
2776.64	23
2777.51	23
2778.37	27
2779.24	27.5
2780.11	26
2780.98	25
2781.85	27.5
2782.72	23.5
2783.59	27.5
2784.45	27
2785.32	30.5
2786.19	25
2787.06	24
2787.92	28
2788.79	30.5
2789.66	27.5
2790.53	27
2791.39	28.5
2792.26	30
2793.13	26.5
2793.99	26
2794.86	25
2795.73	28.5
2796.59	30
2797.46	28
2798.33	27
2799.19	28
2800.06	28
2800.92	28.75
2801.79	29.5
2802.65	25.5
2803.52	29
2804.39	25
2805.25	27.5
2806.11	26.5
2806.98	25.5
2807.84	26
2808.71	31.5
2809.57	33
2810.44	24.5
2811.3	28.5
2812.17	23
2813.03	27.5
2813.89	28
2814.76	26.5
2815.62	25.5
2816.49	25.5
2817.35	26.5
2818.21	25.5
2819.07	30
2819.94	27.5
2820.8	29
2821.66	26.5
2822.53	28
2823.39	23.5
2824.25	23.5
2825.11	26.5
2825.97	24.5
2826.84	24
2827.7	20
2828.56	24.5
2829.42	29
2830.28	28.5
2831.14	28.5
2832.01	27
2832.87	26.5
2833.73	29.5
2834.59	27.5
2835.45	22
2836.31	24.5
2837.17	23
2838.03	26.5
2838.89	24.5
2839.75	23
2840.61	25
2841.47	26.5
2842.33	25.5
2843.19	27.5
2844.05	25.5
2844.91	25
2845.77	23
2846.63	23.5
2847.48	27
2848.34	26.5
2849.2	25
2850.06	26
2850.92	29
2851.78	26.5
2852.64	26
2853.49	30
2854.35	25
2855.21	30
2856.07	29
2856.93	25.5
2857.78	28
2858.64	27.5
2859.5	26
2860.35	22
2861.21	26.5
2862.07	27.5
2862.93	26.5
2863.78	28
2864.64	24.5
2865.49	27.5
2866.35	24.5
2867.21	28.5
2868.06	25.5
2868.92	27
2869.77	29.5
2870.63	28.5
2871.49	28
2872.34	32
2873.2	30.5
2874.05	25.5
2874.91	30
2875.76	27.5
2876.62	27.5
2877.47	25
2878.32	33
2879.18	33
2880.03	31.5
2880.89	27.5
2881.74	31
2882.6	32
2883.45	30
2884.3	33
2885.16	31
2886.01	38.5
2886.86	33.5
2887.72	35
2888.57	35.5
2889.42	40
2890.27	42
2891.13	36.5
2891.98	38
2892.83	38
2893.68	45.5
2894.54	45
2895.39	46
2896.24	50.5
2897.09	49
2897.94	47
2898.8	55.5
2899.65	54.5
2900.5	63.5
2901.35	61
2902.2	58
2903.05	62.5
2903.9	67
2904.75	64.5
2905.6	72
2906.45	69.5
2907.3	71
2908.15	65.5
2909.01	65.5
2909.85	65.5
2910.7	61.5
2911.55	55.5
2912.4	54.5
2913.25	56.5
2914.1	51
2914.95	44.5
2915.8	43
2916.65	48
2917.5	39.5
2918.35	37
2919.2	36
2920.04	36.5
2920.89	35
2921.74	33
2922.59	33
2923.44	34
2924.29	32.5
2925.13	30
2925.98	29.5
2926.83	35.5
2927.68	32
2928.52	30.5
2929.37	28
2930.22	30
2931.06	29.5
2931.91	27
2932.76	28
2933.6	30
2934.45	31
2935.3	27.5
2936.14	28
2936.99	29
2937.83	29
2938.68	24
2939.53	23
2940.37	30
2941.22	29
2942.06	28.5
2942.91	24.5
2943.75	32
2944.6	24
2945.44	28.5
2946.29	32
2947.13	30
2947.98	32
2948.82	30
2949.66	28
2950.51	34.5
2951.35	27
2952.2	33
2953.04	31.5
2953.88	36
2954.73	28.5
2955.57	34.5
2956.41	36
2957.26	37.5
2958.1	39
2958.94	36.5
2959.79	37
2960.63	39
2961.47	38.5
2962.31	41
2963.15	44.5
2964	43.5
2964.84	45
2965.68	39.5
2966.52	49
2967.37	41
2968.21	44
2969.05	42
2969.89	42.5
2970.73	38.5
2971.57	32.0243
2972.41	36.9341
2973.25	39.904
2974.09	33.6627
2974.93	33.9443
2975.77	34.6511
2976.62	30.5918
2977.46	34.7543
2978.3	31.8871
2979.14	30.6752
2979.98	28.8836
2980.81	27.0166
2981.65	30.7998
2982.49	28.5482
2983.33	27.0991
2984.17	28.6129
2985.01	26.6936
2985.85	24.6515
2986.69	25.2542
2987.53	27.3374
2988.37	28.5849
2989.21	23.9799
2990.04	28.9527
2990.88	26.595
2991.72	24.3281
2992.56	25.0462
2993.4	26.9709
2994.23	25.8325
2995.07	23.6383
2995.91	26.7459
2996.75	22.0922
2997.58	25.5689
2998.42	23.299
2999.26	23.5646
3000.1	23.8991
3000.93	20.6248
3001.77	24.5343
3002.61	27.3442
3003.44	22.8998
3004.28	26.2515
3005.11	24.4905
3005.95	22.0939
3006.79	21.8455
3007.62	23.5989
3008.46	24.134
3009.29	24.3055
3010.13	22.9995
3010.97	18.9305
3011.8	22.0941
3012.64	25.8257
3013.47	24.1834
3014.31	26.2922
3015.14	24.3965
3015.98	25.5492
3016.81	24.5532
3017.64	23.2555
3018.48	24.2966
3019.31	23.6025
3020.15	22.4548
3020.98	24.3218
3021.82	23.0351
3022.65	22.8272
3023.48	22.118
3024.32	22.1595
3025.15	21.5436
3025.98	23.445
3026.82	24.0028
3027.65	26.1144
3028.48	26.6306
3029.31	24.1747
3030.15	24.6264
3030.98	21.885
3031.81	24.1487
3032.64	24.7136
3033.48	24.9043
3034.31	23.3595
3035.14	22.5199
3035.97	21.87
3036.8	22.0791
3037.64	22.264
3038.47	22.2078
3039.3	23.0201
3040.13	22.3903
3040.96	22.7168
3041.79	23.1508
3042.62	26.9061
3043.45	24.3542
3044.28	22.2163
3045.12	23.5892
3045.95	23.1722
3046.78	22.6276
3047.61	23.0706
3048.44	22.8503
3049.27	24.5057
3050.1	25.5993
3050.92	24.9471
3051.75	25.4886
3052.58	23.1068
3053.41	24.6876
3054.24	25.0695
3055.07	21.8543
3055.9	22.0656
3056.73	21.5734
3057.26	19
3058.09	24.5
3058.93	26.5
3059.76	20
3060.59	21
3061.43	21
3062.26	24.5
3063.09	23
3063.92	24.5
3064.76	21
3065.59	21
3066.42	21.5
3067.25	27.5
3068.08	23
3068.92	26.5
3069.75	22.5
3070.58	27.5
3071.41	25.5
3072.24	23.5
3073.07	25.5
3073.9	23
3074.73	22
3075.57	20.5
3076.4	25.5
3077.23	24.5
3078.06	24
3078.89	24.5
3079.72	24
3080.55	25.5
3081.38	25.5
3082.21	25.5
3083.04	24
3083.87	21.5
3084.7	25.5
3085.53	23
3086.36	24.5
3087.19	23.5
3088.01	19.5
3088.84	21.5
3089.67	21
3090.5	25.5
3091.33	24
3092.16	21.5
3092.99	24
3093.81	21
3094.64	25
3095.47	26
3096.3	26.5
3097.13	27.5
3097.95	22
3098.78	24.5
3099.61	22
3100.44	23
3101.26	23.5
3102.09	24.5
3102.92	23.5
3103.74	26
3104.57	22.5
3105.4	23
3106.22	24.5
3107.05	25
3107.88	22
3108.7	21
3109.53	23.5
3110.35	24.5
3111.18	23
3112.01	24
3112.83	18
3113.66	25.5
3114.48	21
3115.31	23
3116.13	24
3116.96	23.5
3117.78	24
3118.61	23
3119.43	23
3120.26	25.5
3121.08	24
3121.9	22
3122.73	23.5
3123.55	26
3124.38	24.5
3125.2	22.5
3126.02	25
3126.85	23.5
3127.67	24.5
3128.49	22
3129.32	26
3130.14	24
3130.96	23.5
3131.79	23
3132.61	24
3133.43	24
3134.25	27.5
3135.08	22.5
3135.9	21
3136.72	26
3137.54	24
3138.37	22.5
3139.19	23
3140.01	25.5
3140.83	24.5
3141.65	24
3142.47	20.5
3143.29	24.5
3144.12	24
3144.94	23.5
3145.76	23.5
3146.58	25.5
3147.4	22
3148.22	26
3149.04	23
3149.86	27.5
3150.68	27
3151.5	26
3152.32	25.5
3153.14	25.5
3153.96	24.5
3154.78	20
3155.6	22.5
3156.42	23.5
3157.24	27
3158.06	25.5
3158.88	23
3159.7	23.5
3160.51	25
3161.33	22.5
3162.15	24
3162.97	20
3163.79	21.5
3164.61	23
3165.42	25
3166.24	22.5
3167.06	18.5
3167.88	27.5
3168.7	28
3169.51	27.5
3170.33	24.5
3171.15	24.5
3171.97	21.5
3172.78	20.5
3173.6	26
3174.42	17
3175.23	23
3176.05	23
3176.87	21
3177.68	22.5
3178.5	26
3179.32	23.5
3180.13	24
3180.95	24
3181.76	26.5
3182.58	23
3183.4	22.5
3184.21	20.5
3185.03	28
3185.84	21
3186.66	22
3187.47	19
3188.29	19
3189.1	25.5
3189.92	30.5
3190.73	21
3191.55	24.5
3192.36	22
3193.17	22.5
3193.99	20
3194.8	24
3195.62	23
3196.43	24.5
3197.24	19
3198.06	27
3198.87	24
3199.68	29
3200.5	22.5
3201.31	23
3202.12	22
3202.94	24.5
3203.75	24.5
3204.56	23
3205.38	25.5
3206.19	24
3207	24
3207.81	25
3208.62	21.5
3209.44	20.5
3210.25	26
3211.06	25.5
3211.87	23
3212.68	23
3213.49	26
3214.31	24.5
3215.12	26
3215.93	25.5
3216.74	25
3217.55	20.5
3218.36	25.5
3219.17	21.5
3219.98	22
3220.79	22
3221.6	23
3222.41	22
3223.22	27
3224.03	21
3224.84	28
3225.65	20.5
3226.46	23.5
3227.27	21
3228.08	25
3228.89	25.5
3229.7	31.5
3230.51	28
3231.32	22
3232.13	25
3232.94	21.5
3233.74	26
3234.55	25
3235.36	22
3236.17	25.5
3236.98	25
3237.78	28.5
3238.59	26
3239.4	22
3240.21	20.5
3241.02	24.5
3241.82	24
3242.63	23.5
3243.44	21.5
3244.25	24
3245.05	24.5
3245.86	19
3246.67	25
3247.47	24
3248.28	23
3249.09	24.5
3249.89	23.5
3250.7	26
3251.5	23
3252.31	22
3253.12	25
3253.92	24.5
3254.73	24
3255.53	21.5
3256.34	26.5
3257.14	25
3257.95	25.5
3258.75	21.5
3259.56	25.5
3260.36	22.5
3261.17	24.5
3261.97	27.5
3262.78	22
3263.58	22.5
3264.39	23
3265.19	24.5
3265.99	25.5
3266.8	23.5
3267.6	25
3268.41	24.5
3269.21	23
3270.01	27.5
3270.82	23.5
3271.62	23
3272.42	23.5
3273.23	24.5
3274.03	23.5
3274.83	22.5
3275.64	22
3276.44	21
3277.24	22.5
3278.04	24
3278.85	27
3279.65	27
3280.45	25
3281.25	25
3282.05	21
3282.85	23
3283.66	25.5
3284.46	25.5
3285.26	24.5
3286.06	26
3286.86	22.5
3287.66	25
3288.46	22
3289.27	25.5
3290.07	24
3290.87	24.5
3291.67	23.5
3292.47	25.5
3293.27	24.5
3294.07	21.5
3294.87	25
3295.67	20
3296.47	25
3297.27	24
3298.07	22
3298.87	22
3299.67	23.5
3300.47	24.5
3301.26	21.5
3302.06	26
3302.86	26.5
3303.66	26
3304.46	25
3305.26	24.5
3306.06	27
3306.86	26
3307.65	23
3308.45	24.5
3309.25	26
3310.05	20.5
3310.85	29
3311.64	27.5
3312.44	24
3313.24	25.5
3314.04	22
3314.83	25
3315.63	25.5
3316.43	23
3317.22	28.5
3318.02	23.5
3318.82	22
3319.62	22
3320.41	26.5
3321.21	22
3322	24.5
3322.8	25.5
3323.6	23
3324.39	24.5
3325.19	24.5
3325.98	21
3326.78	24
3327.58	21
3328.37	27
3329.17	24.5
3329.96	24
3330.76	25.5
3331.55	27
3332.35	22.5
3333.14	26
3333.94	21
3334.73	25.5
3335.52	24.5
3336.32	22
3337.11	26
3337.91	25
3338.7	24.5
3339.5	22
3340.29	26
3341.08	25
3341.88	26.5
3342.67	27
3343.46	23
3344.26	24
3345.05	26
3345.84	23.5
3346.63	22
3347.43	25
3348.22	26
3349.01	27
3349.8	23
3350.6	23
3351.39	21.5
3352.18	24
3352.97	24
3353.77	24
3354.56	27
3355.35	23
3356.14	26.5
3356.93	24
3357.72	24.5
3358.51	24.5
3359.31	25.5
3360.1	25
3360.89	25
3361.68	22.5
3362.47	24
3363.26	24
3364.05	25
3364.84	27.5
3365.63	26
3366.42	26.5
3367.21	26.5
3368	26
3368.79	24
3369.58	29
3370.37	22.5
3371.16	25.5
3371.95	24
3372.74	23
3373.53	24
3374.32	22.5
3375.1	21
3375.89	27
3376.68	26
3377.47	21.5
3378.26	20
3379.05	24
3379.84	23
3380.62	23
3381.41	23.5
3382.2	23.5
3382.99	23
3383.78	22.5
3384.56	24.5
3385.35	22
3386.14	25
3386.93	29.5
3387.71	22
3388.5	23
3389.29	26
3390.07	23
3390.86	20
3391.65	27
3392.43	22.5
3393.22	26
3394.01	22.5
3394.79	24.5
3395.58	24
3396.36	24
3397.15	26.5
3397.94	25
3398.72	23
3399.51	22.5
3400.29	25
3401.08	26
3401.86	24
3402.65	24
3403.43	23
3404.22	27.5
3405	23.5
3405.79	26
3406.57	27.5
3407.36	22
3408.14	22.5
3408.93	25
3409.71	24
3410.49	25
3411.28	24.5
3412.06	25.5
3412.84	26
3413.63	23
3414.41	22.5
3415.2	20.5
3415.98	25
3416.76	24
3417.54	24.5
3418.33	27.5
3419.11	20
3419.89	27
3420.68	23.5
3421.46	23.5
3422.24	21
3423.02	22
3423.81	24
3424.59	24.5
3425.37	25
3426.15	23.5
3426.93	25
3427.71	23
3428.5	27.5
3429.28	21
3430.06	22.5
3430.84	23
3431.62	24.5
3432.4	23
3433.18	24
3433.96	26.5
3434.75	22
3435.53	23.5
3436.31	26
3437.09	24
3437.87	23
3438.65	25.5
3439.43	24
3440.21	22
3440.99	21.5
3441.77	22.5
3442.55	20
3443.33	23.5
3444.1	28
3444.88	26.5
3445.66	25
3446.44	27
3447.22	26.5
3448	22
3448.78	26
3449.56	22.5
3450.34	23.5
3451.11	24.5
3451.89	25
3452.67	23
3453.45	24
3454.23	22.5
3455	23
3455.78	24
3456.56	26
3457.34	26
3458.11	24.5
3458.89	21.5
3459.67	24
3460.45	25
3461.22	24
3462	24.5
3462.78	25.5
3463.55	23
3464.33	23
3465.11	26
3465.88	20.5
3466.66	25
3467.44	21
3468.21	27
3468.99	25
3469.76	24.5
3470.54	23
3471.32	22
3472.09	22
3472.87	24.5
3473.64	24.5
3474.42	23
3475.19	21.5
3475.97	23.5
3476.74	23
3477.52	23
3478.29	23
3479.07	26
3479.84	25
3480.61	26
3481.39	25
3482.16	25.5
3482.94	20.5
3483.71	23
3484.48	26.5
3485.26	26
3486.03	22.5
3486.81	28
3487.58	28.5
3488.35	23
3489.13	23
3489.9	24
3490.67	25
3491.44	25
3492.22	24
3492.99	21
3493.76	24
3494.54	23
3495.31	24
3496.08	24.5
3496.85	23
3497.62	26
3498.4	22.5
3499.17	23
3499.94	21
