#Acq. time (s)=	5
#Accumulations=	5
#Range (cm-¹)=	100...3500
#Windows=	4
#Autofocus=	Off
#AutoExposure=	Off
#Spike filter=	Multiple accum.
#Delay time (s)=	0
#Binning=	1
#Readout mode=	Signal
#DeNoise=	Off
#ICS correction=	Off
#Dark correction=	Off
#Inst. Process=	Off
#Instrument=	LabRAM HR Evol
#Detector=	Syncerity OE
#Objective=	x100_VIS
#Grating=	600 (500nm)
#ND Filter=	25%
#Laser=	633nm_Edge
#Hole=	100.021
#Range=	Visible
#Project=	verificaciones
#Sample=	at3
#Site=	plain
#Title=	bolusat3plain
#Remark=	
#Date=	14.01.2026 11:46
#Acquired=	14.01.2026 11:46:57
100.618	25
101.901	26.5
103.185	29.5
104.468	31
105.751	29
107.033	30
108.316	23
109.598	26.5
110.88	26
112.162	27
113.445	23
114.727	27.5
116.008	28
117.289	28.5
118.57	26
119.85	26.5
121.13	30.5
122.411	25
123.691	32
124.97	27
126.25	27.5
127.529	32.5
128.808	26.5
130.086	33
131.364	33
132.643	27
133.921	29.5
135.199	31
136.477	29
137.755	28.5
139.032	28.5
140.309	31
141.586	29.5
142.863	31
144.14	25
145.415	26.5
146.691	28.5
147.967	31
149.243	26
150.518	28.5
151.794	29
153.067	31.5
154.342	30.5
155.617	28.5
156.892	26.5
158.166	30.5
159.439	28
160.712	28.5
161.986	29
163.26	28
164.531	29
165.805	24.5
167.077	26
168.35	28
169.621	28
170.893	27.5
172.165	27.5
173.437	31
174.707	28
175.979	29
177.25	29.5
178.519	33
179.79	25.5
181.061	29
182.33	27.5
183.6	34.5
184.87	32.5
186.138	25.5
187.408	32
188.676	24.5
189.945	31.5
191.214	24
192.481	29.5
193.75	28
195.016	31
196.285	29
197.552	28.5
198.819	30
200.086	28.5
201.352	28.5
202.619	29
203.884	26
205.151	30.5
206.416	27.5
207.682	25
208.947	23.5
210.213	30.5
211.477	32
212.742	27
214.006	25
215.271	29
216.535	26
217.799	30.5
219.062	29.5
220.326	31
221.589	26.5
222.851	28.5
224.115	31.5
225.377	27.5
226.64	30.5
227.901	29.5
229.163	32.5
230.425	25.5
231.686	27
232.947	31
234.209	25.5
235.469	24.5
236.729	29.5
237.991	29
239.25	29
240.51	25.5
241.771	30
243.03	31.5
244.288	29
245.549	28
246.807	29.5
248.065	26.5
249.323	25.5
250.583	23.5
251.84	30
253.098	30.5
254.355	22.5
255.613	28
256.87	23
258.127	25
259.383	27
260.639	25
261.897	24.5
263.153	22.5
264.408	28
265.664	27
266.919	31.5
268.174	24.5
269.43	27.5
270.685	28
271.939	28
273.193	26
274.447	27.5
275.701	29.5
276.955	25
278.208	25
279.461	27
280.714	26.5
281.968	28.5
283.221	24
284.473	24
285.726	24
286.977	27
288.229	25.5
289.481	25
290.732	28
291.983	29
293.234	26.5
294.485	29
295.736	27
296.986	27
298.236	25.5
299.486	29.5
300.736	23.5
301.985	26.5
303.233	25.5
304.482	24.5
305.731	28
306.98	23
308.228	25
309.477	25.5
310.725	27.5
311.973	25
313.22	29.5
314.468	24.5
315.714	25
316.961	30.5
318.208	28
319.455	23.5
320.701	27
321.947	27
323.192	28
324.438	25.5
325.684	29.5
326.929	26.5
328.175	29
329.418	27
330.663	27.5
331.908	24.5
333.152	26.5
334.395	23
335.639	29
336.883	30
338.127	27.5
339.369	29
340.612	26
341.855	22
343.097	27.5
344.34	27
345.582	26.5
346.823	26.5
348.065	28.5
349.307	25
350.547	25
351.789	26
353.03	25
354.27	27
355.511	28
356.75	29.5
357.991	25
359.231	24.5
360.47	23
361.709	29
362.948	22
364.187	25.5
365.427	26
366.664	27
367.903	27.5
369.14	26
370.379	28
371.616	25
372.854	25.5
374.091	27
375.328	31
376.564	25
377.802	30
379.037	30
380.274	27
381.51	30
382.745	28.5
383.981	25
385.216	24
386.452	29.5
387.686	26
388.922	28
390.155	27.5
391.389	29.5
392.624	28
393.857	27.5
395.091	27
396.325	29.5
397.558	25
398.79	26.5
400.024	26.5
401.256	27.5
402.488	24
403.721	24
404.953	26
406.184	27
407.417	25.5
408.648	29.5
409.878	30
411.109	25.5
412.341	23
413.571	29.5
414.801	28
416.031	26
417.262	24
418.491	25
419.72	29
420.949	26
422.178	28
423.408	24
424.637	22
425.865	28
427.093	30
428.32	25
429.548	26.5
430.777	26
432.004	25.5
433.231	28
434.458	31.5
435.685	23
436.911	30.5
438.137	25
439.363	24.5
440.589	27
441.815	31
443.042	26
444.267	25
445.492	27
446.717	28
447.942	26.5
449.166	22
450.39	25
451.615	28.5
452.838	28.5
454.062	30
455.286	25.5
456.509	28
457.732	30
458.955	29
460.178	29
461.399	25
462.621	30
463.843	30.5
465.065	30
466.287	28.5
467.508	28.5
468.73	33
469.951	28.5
471.172	28
472.393	29.5
473.612	29
474.832	30.5
476.052	30.5
477.272	27
478.492	31
479.712	31
480.93	32.5
482.149	33.5
483.368	32
484.587	34
485.806	34
487.023	36.5
488.241	35.5
489.459	36.5
490.677	39
491.893	36
493.111	30
494.328	32.5
495.543	32
496.76	32
497.977	29
499.194	29
500.409	27.5
501.625	32
502.841	30
504.055	31
505.27	30
506.486	28
507.699	28
508.914	30.5
510.128	28.5
511.342	28.5
512.557	25
513.77	28
514.984	25
516.196	28.5
517.41	26
518.623	28
519.835	30
521.048	28.5
522.259	32
523.472	28
524.683	28
525.895	25.5
527.106	26
528.318	27.5
529.528	26.5
530.74	27
531.949	29.5
533.161	28
534.37	23
535.581	25.5
536.79	30.5
537.999	27.5
539.209	25
540.418	26.5
541.627	30.5
542.835	29.5
544.043	25.5
545.253	28.5
546.46	26.5
547.669	29
548.876	26
550.083	28.5
551.292	25
552.498	26.5
553.705	29.5
554.912	30.5
556.118	29.5
557.324	28
558.53	28
559.737	27.5
560.942	25
562.147	26.5
563.353	26.5
564.558	28
565.763	27
566.967	29
568.173	26
569.377	22.5
570.58	28.5
571.784	26
572.987	28.5
574.192	26
575.395	29
576.598	26
577.8	29.5
579.003	19
580.205	28
581.407	26
582.61	28
583.812	26
585.014	29.5
586.215	28
587.416	27
588.617	24.5
589.818	25.5
591.018	29.5
592.219	26.5
593.419	28.5
594.619	26
595.819	28
597.02	26.5
598.219	23.5
599.418	24.5
600.617	29
601.816	23
603.015	28.5
604.213	29
605.41	28
606.608	28.5
607.806	23.5
609.004	25.5
610.201	25
611.399	27
612.596	27
613.793	30
614.989	29.5
616.186	26
617.382	29.5
618.579	28
619.775	29
620.969	30
622.165	28.5
623.36	25.5
624.555	26
625.75	28
626.945	25
628.139	28.5
629.333	24
630.527	26
631.721	26
632.915	25.5
634.108	26.5
635.301	27
636.495	27
637.688	26.5
638.88	27
640.072	28.5
641.265	24
642.456	32.5
643.648	29.5
644.84	28
646.032	25
647.222	27.5
648.414	24
649.605	23.5
650.795	28.5
651.986	28.5
653.177	28
654.366	25
655.556	25.5
656.745	31.5
657.935	26.5
659.125	30.5
660.313	28
661.503	29.5
662.69	25.5
663.879	27
665.067	28
666.256	28
667.444	32
668.631	24
669.819	26.5
671.006	30.5
672.194	27
673.38	27.5
674.567	22.5
675.753	29
676.94	28.5
678.125	27.5
679.311	29.5
680.497	26
681.682	27
682.868	30
684.053	29.5
685.238	32
686.422	28
687.606	32
688.792	29
689.975	24.5
691.159	30.5
692.343	32
693.526	27.5
694.71	25.5
695.893	29.5
697.076	29.5
698.259	29.5
699.441	28
700.623	31.5
701.805	27.5
702.988	28.5
704.169	32.5
705.35	30.5
706.533	33.5
707.714	33.5
708.894	31
710.075	31
711.255	29.5
712.436	33
713.616	33.5
714.796	27.5
715.975	26.5
717.155	28.5
718.335	32
719.514	29
720.693	23
721.872	25
723.05	27
724.228	28
725.406	24
726.585	24.5
727.763	29
728.941	25.5
730.118	28
731.295	26.5
732.472	25
733.649	27
734.825	28.5
736.002	26.5
737.178	31
738.354	26.5
739.53	28.5
740.705	22.5
741.881	23
743.056	26
744.231	27
745.406	29.5
746.581	27.5
747.755	27
748.93	29
750.104	31.5
751.278	24
752.452	27
753.625	29
754.799	27.5
755.972	30.5
757.144	25.5
758.317	25
759.489	29
760.662	26.5
761.834	23
763.006	27
764.178	24.5
765.349	24.5
766.521	28
767.692	23.5
768.863	27.5
770.034	29
771.204	25.5
772.374	31.5
773.545	26
774.715	27
775.885	30
777.054	26
778.224	28
779.393	24
780.562	27.5
781.731	27
782.9	28.5
784.069	27.5
785.236	26
786.405	27.5
787.573	24.5
788.74	24.5
789.908	30
791.074	27
792.242	29
793.409	27
794.575	28
795.742	28
796.909	29
798.074	28
799.241	24.5
800.406	29.5
801.572	27
802.737	31
803.902	25.5
805.067	27
806.232	28
807.396	28
808.561	26
809.725	29
810.889	26.5
812.052	27
813.217	25
814.38	27
815.544	26
816.706	29
817.87	30
819.032	25
820.195	27.5
821.357	23.5
822.518	25.5
823.681	22.5
824.842	25.5
826.005	28
827.165	27.5
828.326	26.5
829.488	26.5
830.648	26
831.808	22.5
832.97	23.5
834.129	27
835.289	27
836.45	28
837.609	27
838.768	29.5
839.927	28.5
841.087	28
842.245	21
843.404	26
844.562	29.5
845.721	24
846.879	25.5
848.036	28
849.194	28.5
850.351	30
851.509	26
852.666	24.5
853.823	27
854.979	30
856.136	27
857.292	28.5
858.448	29.5
859.605	31
860.761	28
861.916	24
863.071	33.5
864.226	30
865.381	28
866.536	27.5
867.691	25.5
868.845	23.5
869.999	30.5
871.153	28.5
872.307	30.5
873.461	31
874.614	27
875.767	27.5
876.92	28
878.073	25.5
879.226	27
880.379	26
881.531	31
882.683	28
883.835	25
884.987	26
886.139	25.5
887.291	25
888.442	21.5
889.593	23
890.743	24
891.893	26.5
893.044	26.5
894.195	30
895.345	26.5
896.495	25.5
897.643	26.5
898.793	29
899.943	27
901.092	29
902.241	26
903.389	24.5
904.538	26
905.687	23
906.835	29.5
907.982	22
909.13	26.5
910.278	23.5
911.426	28
912.572	29
913.72	26.5
914.867	26
916.013	26.5
917.16	22.5
918.306	26.5
919.451	26
920.598	23.5
921.744	22.5
922.889	24
924.035	28.5
925.18	27
926.324	25
927.47	25.5
928.614	27
929.758	27.5
930.902	21.5
932.047	26
933.191	25
934.334	25.5
935.478	25
936.621	27.5
937.764	23.5
938.906	25
940.05	25
941.192	26
942.335	21.5
943.476	30
944.619	24
945.76	24.5
946.901	26
948.043	26
949.184	23.5
950.326	28.5
951.466	26
952.606	29.5
953.747	26.5
954.887	23
956.028	25
957.167	26.5
958.307	25
959.447	25.5
960.586	24.5
961.725	21
962.865	24.5
964.003	22.5
965.141	26.5
966.279	24.5
967.418	28
968.556	27
969.693	24.5
970.831	26.5
971.969	26
973.106	25.5
974.243	25.5
975.38	28.5
976.517	24.5
977.654	26.5
978.79	28
979.926	22.5
981.061	23
982.197	28.5
983.334	26.5
984.469	24.5
985.604	25
986.739	24
987.873	25
989.008	25
990.142	27.5
991.277	28.5
992.411	28
993.544	26
994.679	24.5
995.813	26
996.946	28.5
998.079	26.5
999.212	31.5
1000.35	23
1001.48	26.5
1002.61	25
1003.74	24
1004.87	24
1006.01	26.5
1007.14	24.5
1008.27	26
1009.4	29
1010.53	22
1011.66	24.5
1012.79	30.5
1013.92	26.5
1015.05	26
1016.18	29.5
1017.31	25
1018.44	25.5
1019.57	25.5
1020.7	23
1021.83	20
1022.96	24.5
1024.09	26
1025.22	24
1026.35	27
1027.48	24
1028.6	28
1029.73	27.5
1030.86	25
1031.99	23
1033.12	24
1034.24	27
1035.37	26
1036.5	22.5
1037.62	26.5
1038.75	23.5
1039.88	21.5
1041	23
1042.13	27
1043.25	25
1044.38	26
1045.5	29
1046.63	26.5
1047.76	27
1048.88	27.5
1050	22
1051.13	24.5
1052.25	25
1053.38	26.5
1054.5	25.5
1055.63	31
1056.75	26.5
1057.87	24
1058.99	28.5
1060.12	25
1061.24	26
1062.36	23.5
1063.49	25.5
1064.61	24
1065.73	24.5
1066.85	27
1067.97	26.5
1069.1	27.5
1070.22	24.5
1071.34	24.5
1072.46	27.5
1073.58	26.5
1074.7	27
1075.82	19
1076.94	26
1078.06	25
1079.18	26.5
1080.3	21.5
1081.42	22
1082.54	24.5
1083.66	24
1084.78	26
1085.9	23
1087.02	24.5
1088.13	26.5
1089.25	28
1090.37	25.5
1091.49	23
1092.61	26
1093.72	23.5
1094.84	25
1095.96	26.5
1097.08	23.5
1098.19	27
1099.31	24
1100.42	28
1101.54	28.5
1102.66	26.5
1103.77	25
1104.89	23
1106	27
1107.12	24.5
1108.23	27
1109.35	23
1110.46	26
1111.58	26
1112.69	26.5
1113.81	25.5
1114.92	28
1116.04	25.5
1117.15	26
1118.26	22.5
1119.38	24
1120.49	22.5
1121.6	25.5
1122.72	28
1123.83	24.5
1124.94	23
1126.05	20
1127.17	25
1128.28	23
1129.39	28
1130.5	28
1131.61	24
1132.72	22
1133.83	28
1134.94	23
1136.06	24.5
1137.17	25.5
1138.27	24.5
1139.39	25
1140.5	22.5
1141.61	24
1142.72	23.5
1143.82	24
1144.93	24
1146.04	27.5
1147.15	28.5
1148.26	24.5
1149.37	24.5
1150.48	25
1151.58	24
1152.69	25
1153.8	20
1154.91	22.5
1156.02	24
1157.12	26
1158.23	24
1159.34	23
1160.44	24
1161.55	20.5
1162.66	23
1163.76	26
1164.87	26
1165.97	25.5
1167.08	28
1168.18	30.5
1169.29	20.5
1170.39	25.5
1171.5	25
1172.6	24
1173.71	27
1174.81	25.5
1175.92	26
1177.02	26.5
1178.13	23
1179.23	26
1180.33	23
1181.44	23
1182.54	24
1183.64	24.5
1184.74	24
1185.85	22.5
1186.95	22.5
1188.05	21.5
1189.15	25
1190.26	23.5
1191.36	24
1192.46	23.5
1193.56	23
1194.66	24.4774
1195.76	24.4147
1196.86	24.5583
1197.96	21.1519
1199.06	26.432
1200.16	23.0506
1201.26	21.6006
1202.36	24.0636
1203.46	20.1728
1204.56	23.1368
1205.66	23.1077
1206.76	22.0011
1207.86	26.8077
1208.96	24.9204
1210.06	24.3473
1211.16	21.2996
1212.25	23.5194
1213.35	20.5927
1214.45	22.536
1215.55	25.4053
1216.65	26.0062
1217.74	21.9079
1218.84	24.4475
1219.94	23.0515
1221.03	24.1675
1222.13	23.973
1223.23	21.0327
1224.32	22.9674
1225.42	24.1674
1226.52	27.1985
1227.61	24.5619
1228.71	21.7271
1229.8	23.8836
1230.9	23.6351
1231.99	23.3058
1233.09	26.1225
1234.18	24.8255
1235.28	23.6544
1236.37	23.6262
1237.47	23.446
1238.56	24.8865
1239.65	23.582
1240.75	23.7106
1241.84	26.7527
1242.93	25.784
1244.03	25.589
1245.12	23.5163
1246.21	21.1095
1247.31	22.043
1248.4	22.0958
1249.49	24.4144
1250.58	23.4605
1251.67	23
1252.77	23
1253.86	23.9801
1254.95	23.3021
1256.04	24.6104
1257.13	25.5461
1258.22	23.3728
1259.31	25.4579
1260.4	23.9674
1261.49	23.1684
1262.58	25.3087
1263.67	24.7145
1264.76	24.8322
1265.85	22.8641
1266.94	23.365
1268.03	24.1204
1269.12	24.3328
1270.21	26.8921
1271.3	22.9883
1272.39	22.8016
1273.47	23.3424
1274.56	23.0667
1275.65	23.0259
1276.74	24.616
1277.83	28.1759
1278.91	23.5076
1280	21.4558
1281.09	23.8263
1282.17	26.0846
1283.26	25.9804
1284.35	25.8891
1285.43	24.696
1286.52	21.9842
1287.61	24.3698
1288.69	24.8586
1289.78	24.3306
1290.86	24.02
1291.95	21.758
1293.03	22.232
1294.12	22.436
1295.2	21.8981
1296.29	22.745
1297.37	24.5307
1298.46	25.6723
1299.54	23.81
1300.63	23.4397
1301.71	25.7002
1302.79	21.7436
1303.88	23.567
1304.96	25.4317
1306.04	22.849
1306.5	22
1307.59	26.5
1308.68	26.5
1309.76	25
1310.85	27.5
1311.94	25
1313.03	21.5
1314.11	28
1315.2	23.5
1316.29	23
1317.37	22
1318.46	26
1319.55	26
1320.63	27.5
1321.72	23
1322.81	25
1323.89	26
1324.98	22.5
1326.06	25
1327.15	27.5
1328.23	25
1329.32	23
1330.4	22.5
1331.49	21
1332.57	21.5
1333.66	21.5
1334.74	24
1335.82	26
1336.91	22.5
1337.99	22.5
1339.07	27.5
1340.16	24
1341.24	23.5
1342.32	23.5
1343.4	20
1344.49	23.5
1345.57	26
1346.65	27
1347.73	25
1348.82	25
1349.9	26
1350.98	22
1352.06	21.5
1353.14	27
1354.22	23.5
1355.3	20
1356.38	25.5
1357.46	22.5
1358.54	21.5
1359.62	22
1360.7	24
1361.78	23.5
1362.86	23
1363.94	25
1365.02	28.5
1366.1	25.5
1367.18	25.5
1368.26	25
1369.34	24
1370.41	25.5
1371.49	23
1372.57	24
1373.65	20
1374.72	22.5
1375.8	27.5
1376.88	23.5
1377.96	22.5
1379.03	24.5
1380.11	22
1381.19	28
1382.26	23
1383.34	25
1384.42	22
1385.49	27
1386.57	26.5
1387.64	26
1388.72	25
1389.79	23.5
1390.87	22.5
1391.94	19
1393.02	23.5
1394.09	25.5
1395.17	27
1396.24	19.5
1397.31	25
1398.39	22
1399.46	27
1400.54	28
1401.61	22.5
1402.68	26.5
1403.76	25.5
1404.83	25.5
1405.9	24.5
1406.97	26
1408.05	24
1409.12	27
1410.19	27.5
1411.26	24
1412.33	28
1413.4	27
1414.48	29.5
1415.55	22
1416.62	25.5
1417.69	23.5
1418.76	29
1419.83	23
1420.9	25
1421.97	26.5
1423.04	28.5
1424.11	22
1425.18	25.5
1426.25	27
1427.32	23
1428.39	20.5
1429.46	23
1430.52	24
1431.59	26
1432.66	25.5
1433.73	25.5
1434.8	24.5
1435.87	24.5
1436.93	25
1438	21.5
1439.07	24.5
1440.14	27
1441.2	25
1442.27	27.5
1443.34	29
1444.4	27
1445.47	26.5
1446.54	25.5
1447.6	23
1448.67	22
1449.73	23.5
1450.8	22.5
1451.86	25.5
1452.93	24
1453.99	24
1455.06	27
1456.12	23.5
1457.19	25
1458.25	25
1459.32	22.5
1460.38	17
1461.45	24
1462.51	24
1463.57	23.5
1464.64	25
1465.7	24.5
1466.76	25
1467.82	29.5
1468.89	26.5
1469.95	23
1471.01	31
1472.07	21.5
1473.14	27
1474.2	22.5
1475.26	23.5
1476.32	23.5
1477.38	25.5
1478.44	25
1479.5	25.5
1480.57	25.5
1481.63	28.5
1482.69	26
1483.75	25
1484.81	25
1485.87	24.5
1486.93	25
1487.99	28
1489.05	24.5
1490.1	26.5
1491.17	24
1492.22	25.5
1493.28	26.5
1494.34	29
1495.4	24.5
1496.46	26.5
1497.52	24
1498.57	22.5
1499.63	24
1500.69	27.5
1501.75	21.5
1502.8	21
1503.86	25.5
1504.92	25.5
1505.98	25
1507.03	25
1508.09	24.5
1509.15	24
1510.2	26
1511.26	23.5
1512.31	24.5
1513.37	27
1514.42	28
1515.48	24.5
1516.53	28.5
1517.59	27
1518.64	25
1519.7	22
1520.75	26
1521.81	24
1522.86	21.5
1523.92	26.5
1524.97	25
1526.02	24
1527.08	23
1528.13	25
1529.18	22.5
1530.24	27.5
1531.29	25.5
1532.34	27
1533.39	24
1534.45	25
1535.5	23
1536.55	28
1537.6	26
1538.65	24.5
1539.71	22
1540.76	26
1541.81	26
1542.86	25
1543.91	23.5
1544.96	25.5
1546.01	28
1547.06	25.5
1548.11	26
1549.16	21.5
1550.21	27.5
1551.26	27
1552.31	22.5
1553.36	24
1554.41	21
1555.46	24
1556.51	28
1557.56	23
1558.6	28
1559.65	26
1560.7	23
1561.75	27
1562.8	23
1563.84	23.5
1564.89	22
1565.94	25.5
1566.99	25
1568.03	27
1569.08	21
1570.13	20.5
1571.17	25
1572.22	23.5
1573.27	23
1574.31	28
1575.36	26.5
1576.4	25.5
1577.45	26
1578.5	19
1579.54	25.5
1580.59	25.5
1581.63	24
1582.68	23
1583.72	26
1584.76	25
1585.81	22.5
1586.85	23.5
1587.9	26
1588.94	19.5
1589.98	29
1591.03	24
1592.07	26.5
1593.11	26
1594.16	26
1595.2	25.5
1596.24	26.5
1597.29	25.5
1598.33	25
1599.37	24.5
1600.41	25.5
1601.45	26
1602.49	25
1603.54	21
1604.58	21.5
1605.62	26.5
1606.66	31
1607.7	23.5
1608.74	21
1609.78	25
1610.82	28
1611.86	23.5
1612.9	25
1613.94	24
1614.98	24.5
1616.02	26.5
1617.06	23.5
1618.1	24.5
1619.14	26.5
1620.18	27
1621.22	26
1622.25	24.5
1623.29	25.5
1624.33	25
1625.37	21
1626.41	23.5
1627.45	27
1628.48	22
1629.52	24.5
1630.56	24.5
1631.59	20
1632.63	27.5
1633.67	21
1634.7	23
1635.74	19
1636.78	24
1637.81	25
1638.85	26.5
1639.88	27
1640.92	23
1641.96	27
1642.99	23.5
1644.03	23
1645.06	24
1646.1	22.5
1647.13	21.5
1648.17	24.5
1649.2	29.5
1650.23	23
1651.27	25.5
1652.3	26.5
1653.33	21
1654.37	24
1655.4	28
1656.44	27
1657.47	28
1658.5	27
1659.53	23.5
1660.57	27
1661.6	25
1662.63	23
1663.66	28
1664.69	25
1665.73	27
1666.76	23
1667.79	23
1668.82	26.5
1669.85	20.5
1670.88	26
1671.91	26
1672.94	23
1673.97	30
1675.01	23
1676.03	26
1677.07	25.5
1678.1	20.5
1679.12	24.5
1680.15	26.5
1681.18	23.5
1682.21	26.5
1683.24	27
1684.27	24.5
1685.3	25.5
1686.33	25
1687.36	27
1688.38	22.5
1689.41	25
1690.44	26
1691.47	23.5
1692.5	26.5
1693.52	22
1694.55	28.5
1695.58	25
1696.6	24.5
1697.63	25
1698.66	24.5
1699.68	25
1700.71	25
1701.74	24.5
1702.76	22
1703.79	27.5
1704.81	22
1705.84	23
1706.86	25.5
1707.89	24
1708.91	24
1709.94	25
1710.96	24.5
1711.99	25.5
1713.01	28
1714.04	25.5
1715.06	22
1716.08	24.5
1717.11	21.5
1718.13	31.5
1719.16	26
1720.18	25
1721.2	23
1722.22	25.5
1723.25	25.5
1724.27	24
1725.29	25.5
1726.31	23
1727.34	25
1728.36	25.5
1729.38	24.5
1730.4	26
1731.42	27.5
1732.44	24.5
1733.47	25.5
1734.49	27
1735.51	27.5
1736.53	24
1737.55	21
1738.57	25.5
1739.59	25.5
1740.61	25
1741.63	27
1742.65	22
1743.67	23
1744.69	24
1745.71	24
1746.73	23
1747.75	23
1748.76	26.5
1749.78	21.5
1750.8	23
1751.82	24.5
1752.84	24.5
1753.86	26
1754.87	27.5
1755.89	27.5
1756.91	28.5
1757.93	24
1758.94	23
1759.96	24
1760.98	24
1761.99	24.5
1763.01	25.5
1764.03	22
1765.04	23
1766.06	22.5
1767.08	27.5
1768.09	23
1769.11	24
1770.12	24
1771.14	28.5
1772.15	23
1773.17	24.5
1774.18	22.5
1775.2	27
1776.21	27
1777.23	23
1778.24	22
1779.25	24
1780.27	23
1781.28	24.5
1782.3	23
1783.31	23.5
1784.32	28
1785.34	21
1786.35	25.5
1787.36	21.5
1788.37	29
1789.39	28
1790.4	24.5
1791.41	25.5
1792.42	25.5
1793.43	28
1794.45	24.5
1795.46	27
1796.47	24
1797.48	23.5
1798.49	26
1799.5	26
1800.51	24
1801.52	28.5
1802.53	28
1803.54	23
1804.55	20.5
1805.56	26.5
1806.57	24
1807.58	25
1808.59	21.5
1809.6	23.5
1810.61	21.5
1811.62	22
1812.63	25
1813.64	25
1814.65	24
1815.66	24
1816.66	28
1817.67	22
1818.68	23.5
1819.69	23.5
1820.69	20.5
1821.7	24.5
1822.71	24
1823.72	25
1824.72	27.5
1825.73	24
1826.74	27.5
1827.74	27
1828.75	23.5
1829.76	22
1830.76	25.5
1831.77	25
1832.77	23
1833.78	25.5
1834.79	22
1835.79	25.5
1836.8	21
1837.8	25
1838.81	28
1839.81	29.5
1840.81	21
1841.82	24
1842.82	24.5
1843.83	27
1844.83	24.5
1845.83	26.5
1846.84	26
1847.84	26.5
1848.84	19
1849.85	26.5
1850.85	26.5
1851.85	27.5
1852.86	26.5
1853.86	24.5
1854.86	29
1855.86	25.5
1856.86	28.5
1857.87	23.5
1858.87	25
1859.87	24.5
1860.87	23
1861.87	26
1862.87	26
1863.88	27
1864.88	25.5
1865.88	25
1866.88	24
1867.88	26.5
1868.88	23.5
1869.88	25
1870.88	26
1871.88	23
1872.88	23
1873.88	27
1874.87	21
1875.87	21.5
1876.87	24.5
1877.87	24
1878.87	24
1879.87	24
1880.87	24
1881.86	25
1882.86	24
1883.86	22
1884.86	24
1885.86	25
1886.85	25
1887.85	23.5
1888.85	28.5
1889.84	27
1890.84	24.5
1891.84	23
1892.83	25
1893.83	25.5
1894.83	24
1895.82	22.5
1896.82	25.5
1897.81	24
1898.81	24.5
1899.81	25
1900.8	22
1901.8	23.5
1902.79	22.5
1903.78	28
1904.78	24.5
1905.77	24.5
1906.77	22.5
1907.76	25
1908.76	26.5
1909.75	25.5
1910.74	23.5
1911.74	24
1912.73	25
1913.72	22.5
1914.72	27.5
1915.71	24
1916.7	23
1917.7	22.5
1918.69	24.5
1919.68	24
1920.67	24
1921.66	24.5
1922.66	27
1923.65	25.5
1924.64	24
1925.63	25
1926.62	24
1927.61	28
1928.6	22.5
1929.59	25.5
1930.59	24.5
1931.58	22.5
1932.57	26
1933.56	23
1934.55	27.5
1935.54	26.5
1936.53	27.5
1937.52	24.5
1938.51	23.5
1939.49	23
1940.48	23
1941.47	24
1942.46	25
1943.45	23
1944.44	29
1945.43	24
1946.42	25.5
1947.4	24
1948.39	23.5
1949.38	23
1950.37	20
1951.35	23
1952.34	28
1953.33	24
1954.31	21.5
1955.3	24
1956.29	21.5
1957.27	23
1958.26	27.5
1959.25	21
1960.23	21
1961.22	23
1962.21	28.5
1963.19	24
1964.18	20
1965.16	23.5
1966.15	23.5
1967.13	24.5
1968.12	27
1969.1	25
1970.09	23.5
1971.07	23
1972.05	25.5
1973.04	22
1974.02	28
1975.01	24
1975.99	24
1976.97	24.5
1977.96	23.5
1978.94	23.5
1979.92	22
1980.91	21.5
1981.89	23.5
1982.87	27
1983.85	24
1984.84	23.5
1985.82	26
1986.8	27
1987.78	24.5
1988.76	19.5
1989.74	26
1990.73	24.5
1991.71	26
1992.69	24.5
1993.67	22
1994.65	25
1995.63	23.5
1996.61	28
1997.59	24
1998.57	24.5
1999.55	22
2000.53	21.5
2001.51	23
2002.49	24.5
2003.47	24.5
2004.45	25
2005.43	24.5
2006.41	23.5
2007.39	20.5
2008.37	23.5
2009.34	27
2010.32	24.5
2011.3	22
2012.28	26.5
2013.26	24
2014.23	24.5
2015.21	23
2016.19	18
2017.17	22.5
2018.14	24.5
2019.12	22
2020.1	25
2021.07	23.5
2022.05	23.5
2023.03	27
2024	21
2024.98	21
2025.96	24
2026.93	23.5
2027.91	22
2028.88	26
2029.86	24
2030.83	25.5
2031.81	25.5
2032.78	21.5
2033.76	25
2034.73	20
2035.71	19
2036.68	19.5
2037.66	23
2038.63	27.5
2039.6	19.5
2040.58	23
2041.55	23.5
2042.52	25
2043.5	21
2044.47	23.5
2045.44	21.5
2046.42	27.5
2047.39	26
2048.36	21.5
2049.33	23.5
2050.31	23
2051.28	25.5
2052.25	24.5
2053.22	24.5
2054.19	24
2055.17	24
2056.14	23.5
2057.11	23
2058.08	25
2059.05	25.5
2060.02	20
2060.99	19
2061.96	21
2062.93	23
2063.9	21.5
2064.87	21
2065.84	24
2066.81	24.5
2067.78	22
2068.75	23
2069.72	26.5
2070.69	25
2071.66	21.5
2072.63	22.5
2073.6	23.5
2074.56	26.5
2075.53	22.5
2076.5	22.5
2077.47	19
2078.44	23
2079.4	22
2080.37	22
2081.34	22.5
2082.31	24
2083.27	22.5
2084.24	23.5
2085.21	26.5
2086.18	29
2087.14	24.5
2088.11	20.5
2089.07	21
2090.04	21
2091.01	25
2091.97	24.5
2092.94	22
2093.9	23
2094.87	24.5
2095.83	23
2096.8	22.5
2097.76	22
2098.73	22.5
2099.69	21
2100.66	25
2101.62	22.5
2102.59	22.5
2103.55	23.5
2104.52	21.5
2105.48	23
2106.44	22
2107.41	24
2108.37	24.5
2109.33	19
2110.3	23
2111.26	23.5
2112.22	20
2113.18	26
2114.15	21
2115.11	22
2116.07	25
2117.03	26.5
2118	23
2118.96	24
2119.92	22.5
2120.88	26.5
2121.84	23.5
2122.8	21
2123.76	24.5
2124.72	24
2125.68	22.5
2126.65	24.5
2127.61	25.5
2128.57	22.5
2129.53	23
2130.49	24
2131.45	24.5
2132.41	23.5
2133.36	22
2134.32	26
2135.28	26
2136.24	23
2137.2	22
2138.16	21
2139.12	20.5
2140.08	24
2141.04	25
2141.99	26.5
2142.95	21.9874
2143.91	25.4056
2144.87	21.5697
2145.83	21.6439
2146.78	24.5618
2147.74	21.1411
2148.7	21.5168
2149.66	24.2877
2150.61	25.4012
2151.57	25.5533
2152.53	21.7959
2153.48	19.631
2154.44	20.6351
2155.4	18.7928
2156.35	22
2157.31	24.5485
2158.26	22.4441
2159.22	22.9908
2160.17	24.2791
2161.13	22.5818
2162.08	22.1027
2163.04	24.8166
2163.99	20.5164
2164.95	23.097
2165.9	28.3958
2166.86	24.0034
2167.81	22.609
2168.77	22.696
2169.72	23.5429
2170.67	22.5628
2171.63	21.6951
2172.58	24.6383
2173.54	23.3083
2174.49	21.7925
2175.44	20.4315
2176.39	21.7325
2177.35	22.6731
2178.3	23.9918
2179.25	20.1384
2180.2	23.3015
2181.16	21.9781
2182.11	22.8623
2183.06	22.6227
2184.01	21.2752
2184.96	23.5224
2185.92	23.1902
2186.87	22.5627
2187.82	23.1352
2188.77	22.0254
2189.72	21.4088
2190.67	23.4556
2191.62	22.3441
2192.57	21.622
2193.52	22.2119
2194.47	20.9102
2195.42	22.4313
2196.37	24.4395
2197.32	22.9207
2198.27	20.3191
2199.22	19.881
2200.17	21.2331
2201.12	22.3307
2202.07	24.4337
2203.02	22.4822
2203.97	20.4322
2204.92	20.9483
2205.87	25.1222
2206.81	21.6972
2207.76	22.6504
2208.71	22.1653
2209.66	21.9813
2210.61	21.6429
2211.55	22.5433
2212.5	22.2864
2213.45	23.2554
2214.4	23.3334
2215.34	24.2255
2216.29	24.7511
2217.24	23.0728
2218.18	22.6433
2219.13	22.8786
2220.08	21.6629
2221.02	20.628
2221.97	20.0059
2222.92	20.7
2223.86	25.4609
2224.81	21.7375
2225.75	25.039
2226.7	21.0454
2227.64	23.0181
2228.59	21.351
2229.53	22.5013
2230.48	20.9612
2231.42	20.9581
2232.37	23.2334
2233.31	24.3691
2234.26	23.0882
2235.2	23.8658
2236.14	23.8252
2237.09	21.3567
2238.03	20.2351
2238.97	21.3167
2239.92	23.2099
2240.05	23.5
2241	23
2241.95	22
2242.89	21.5
2243.84	24.5
2244.79	22.5
2245.74	22
2246.68	20
2247.63	20.5
2248.58	24
2249.53	24
2250.47	26
2251.42	24
2252.36	20
2253.31	24.5
2254.26	23
2255.2	26.5
2256.15	22
2257.1	22.5
2258.04	23
2258.99	24
2259.93	25.5
2260.88	22
2261.82	21.5
2262.77	22.5
2263.71	25.5
2264.66	25.5
2265.6	21
2266.55	24
2267.49	23
2268.43	24
2269.38	23
2270.32	23.5
2271.26	25
2272.21	24.5
2273.15	21.5
2274.09	23
2275.04	23.5
2275.98	22.5
2276.92	24
2277.87	24
2278.81	25
2279.75	27
2280.69	26
2281.64	26
2282.58	22.5
2283.52	24.5
2284.46	22.5
2285.4	21
2286.34	22.5
2287.29	19
2288.23	26
2289.17	22
2290.11	25
2291.05	23.5
2291.99	23
2292.93	22
2293.87	21.5
2294.81	20
2295.75	23
2296.69	24
2297.63	24
2298.57	24
2299.51	26.5
2300.45	20
2301.39	25.5
2302.33	25.5
2303.27	25.5
2304.2	23.5
2305.14	20.5
2306.08	23
2307.02	24
2307.96	23
2308.9	24
2309.83	21
2310.77	25
2311.71	20.5
2312.65	24
2313.58	22
2314.52	26
2315.46	21
2316.39	24
2317.33	20.5
2318.27	22
2319.21	19
2320.14	24.5
2321.08	25
2322.01	23
2322.95	22
2323.89	26
2324.82	23
2325.76	23
2326.69	25
2327.63	24.5
2328.56	24
2329.5	26
2330.43	25
2331.37	22
2332.3	22.5
2333.24	23.5
2334.17	25
2335.1	22.5
2336.04	27.5
2336.97	22
2337.91	23
2338.84	21
2339.77	24.5
2340.71	22
2341.64	24.5
2342.57	24.5
2343.51	22.5
2344.44	26
2345.37	19.5
2346.3	23
2347.24	21
2348.17	22
2349.1	26
2350.03	20
2350.96	20.5
2351.89	27.5
2352.83	21
2353.76	27.5
2354.69	25
2355.62	23.5
2356.55	22.5
2357.48	22
2358.41	25
2359.34	20.5
2360.27	24.5
2361.2	20
2362.13	19
2363.06	23.5
2363.99	23.5
2364.92	24.5
2365.85	24.5
2366.78	27
2367.71	25.5
2368.64	21.5
2369.57	20.5
2370.5	21.5
2371.43	22
2372.36	25.5
2373.28	22.5
2374.21	26.5
2375.14	19
2376.07	20
2377	22
2377.93	22.5
2378.85	24.5
2379.78	23.5
2380.71	24
2381.63	21.5
2382.56	26.5
2383.49	22.5
2384.42	23
2385.34	22
2386.27	23
2387.2	25
2388.12	27
2389.05	22
2389.97	26.5
2390.9	21.5
2391.82	22
2392.75	23.5
2393.68	19
2394.6	22
2395.53	25.5
2396.45	23.5
2397.38	23.5
2398.3	24.5
2399.23	25.5
2400.15	22
2401.07	24.5
2402	24
2402.92	23
2403.85	23
2404.77	26.5
2405.69	24
2406.62	23.5
2407.54	22.5
2408.46	19.5
2409.39	23.5
2410.31	25
2411.23	26.5
2412.16	26
2413.08	28.5
2414	20.5
2414.92	19.5
2415.85	24.5
2416.77	21
2417.69	22.5
2418.61	20.5
2419.53	24
2420.45	21.5
2421.38	23.5
2422.3	24
2423.22	20
2424.14	24
2425.06	26
2425.98	22
2426.9	25.5
2427.82	25
2428.74	22
2429.66	26
2430.58	22.5
2431.5	22
2432.42	20.5
2433.34	22.5
2434.26	24
2435.18	21.5
2436.1	24
2437.02	29
2437.94	23.5
2438.85	25.5
2439.77	24
2440.69	28.5
2441.61	27.5
2442.53	23
2443.45	26
2444.36	26.5
2445.28	27.5
2446.2	22
2447.12	24.5
2448.03	25.5
2448.95	19.5
2449.87	23
2450.79	21.5
2451.7	23
2452.62	23.5
2453.54	25
2454.45	21
2455.37	22
2456.28	21.5
2457.2	23
2458.12	23
2459.03	24
2459.95	23
2460.86	25
2461.78	23.5
2462.69	26
2463.61	23
2464.52	22
2465.44	24.5
2466.35	24.5
2467.27	24.5
2468.18	28
2469.1	21
2470.01	23.5
2470.93	26.5
2471.84	25
2472.75	25.5
2473.67	25.5
2474.58	24
2475.49	24
2476.41	23
2477.32	21
2478.23	23
2479.15	21.5
2480.06	25.5
2480.97	22
2481.88	22
2482.79	23
2483.71	25.5
2484.62	28
2485.53	23.5
2486.44	25
2487.35	23
2488.26	25
2489.18	24.5
2490.09	26
2491	23
2491.91	19.5
2492.82	25
2493.73	25.5
2494.64	24
2495.55	27.5
2496.46	22
2497.37	19.5
2498.28	25
2499.19	24
2500.1	24.5
2501.01	27.5
2501.92	26
2502.83	24
2503.74	24
2504.65	24
2505.56	23.5
2506.47	24
2507.37	24
2508.28	20
2509.19	24.5
2510.1	25
2511.01	26
2511.92	27.5
2512.82	24
2513.73	23.5
2514.64	27
2515.55	20.5
2516.45	21.5
2517.36	20.5
2518.27	22
2519.17	24
2520.08	19
2520.99	26.5
2521.89	26.5
2522.8	23.5
2523.71	27
2524.61	23
2525.52	24
2526.42	25
2527.33	21
2528.24	22
2529.14	24
2530.05	23
2530.95	26
2531.86	24
2532.76	22.5
2533.67	26
2534.57	26
2535.48	26.5
2536.38	23
2537.28	23.5
2538.19	26
2539.09	25.5
2540	22.5
2540.9	25
2541.8	26.5
2542.71	22.5
2543.61	24.5
2544.51	23
2545.42	24
2546.32	27.5
2547.22	21
2548.12	23
2549.03	28
2549.93	25
2550.83	28.5
2551.73	22.5
2552.63	23
2553.54	23.5
2554.44	24
2555.34	25.5
2556.24	25
2557.14	23
2558.04	26
2558.94	24.5
2559.85	27.5
2560.75	27
2561.65	25
2562.55	27
2563.45	23
2564.35	28
2565.25	24.5
2566.15	24.5
2567.05	22.5
2567.95	24
2568.85	26.5
2569.75	22
2570.65	22.5
2571.55	22
2572.44	25.5
2573.34	23
2574.24	25
2575.14	25.5
2576.04	26
2576.94	23.5
2577.84	26
2578.73	22
2579.63	21
2580.53	25
2581.43	26
2582.33	21
2583.22	24
2584.12	27.5
2585.02	26.5
2585.91	24.5
2586.81	26.5
2587.71	25.5
2588.6	27
2589.5	24
2590.4	22
2591.29	27
2592.19	27.5
2593.09	24.5
2593.98	25.5
2594.88	24.5
2595.77	23
2596.67	23
2597.56	23.5
2598.46	24.5
2599.35	24
2600.25	24
2601.14	22
2602.04	25
2602.93	26
2603.83	24
2604.72	24
2605.62	21
2606.51	24.5
2607.4	22.5
2608.3	23
2609.19	22
2610.09	25
2610.98	19.5
2611.87	27
2612.76	25
2613.66	26.5
2614.55	22.5
2615.44	26
2616.34	25
2617.23	30.5
2618.12	22.5
2619.01	24
2619.9	21
2620.8	24.5
2621.69	21.5
2622.58	26
2623.47	24
2624.36	22
2625.25	27
2626.15	23
2627.04	24.5
2627.93	26
2628.82	21
2629.71	23
2630.6	22.5
2631.49	27.5
2632.38	25
2633.27	25
2634.16	24
2635.05	26.5
2635.94	25.5
2636.83	22.5
2637.72	23
2638.61	20.5
2639.5	26.5
2640.39	24
2641.28	22.5
2642.16	24
2643.05	26
2643.94	23.5
2644.83	27
2645.72	24
2646.61	24
2647.49	23
2648.38	26.5
2649.27	22
2650.16	25
2651.05	22.5
2651.93	23
2652.82	23.5
2653.71	24.5
2654.59	23
2655.48	22
2656.37	22.5
2657.25	28
2658.14	22
2659.03	26
2659.91	26
2660.8	23
2661.69	19
2662.57	23
2663.46	21.5
2664.34	25
2665.23	24
2666.11	27
2667	22
2667.88	24
2668.77	26
2669.65	23.5
2670.54	24
2671.42	27.5
2672.31	22.5
2673.19	23.5
2674.08	23.5
2674.96	24.5
2675.84	21
2676.73	21
2677.61	25.5
2678.49	22.5
2679.38	26.5
2680.26	24
2681.14	28
2682.03	28
2682.91	24.5
2683.79	22.5
2684.68	23.5
2685.56	19
2686.44	22
2687.32	18.5
2688.2	23.5
2689.09	27.5
2689.97	28
2690.85	25
2691.73	24
2692.61	25.5
2693.49	24.5
2694.38	22
2695.26	22.5
2696.14	24
2697.02	24
2697.9	26.5
2698.78	25
2699.66	24.5
2700.54	22
2701.42	26.5
2702.3	25.5
2703.18	24
2704.06	25.5
2704.94	23
2705.82	23.5
2706.7	24
2707.58	25
2708.46	23
2709.34	25
2710.21	24
2711.09	25.5
2711.97	26
2712.85	23
2713.73	25
2714.61	20
2715.49	23
2716.36	20
2717.24	28.5
2718.12	26
2719	28
2719.87	23
2720.75	21.5
2721.63	26
2722.51	22
2723.38	23.5
2724.26	27.5
2725.14	27
2726.01	22.5
2726.89	25
2727.77	26.5
2728.64	26
2729.52	23
2730.39	25
2731.27	23.5
2732.15	25.5
2733.02	27.5
2733.9	23.5
2734.77	25
2735.65	24
2736.52	23
2737.4	24
2738.27	28
2739.15	25.5
2740.02	27
2740.89	22
2741.77	24
2742.64	20.5
2743.52	22
2744.39	24
2745.27	25
2746.14	23
2747.01	20.5
2747.89	24.5
2748.76	23
2749.63	23
2750.51	25.5
2751.38	22.5
2752.25	23.5
2753.12	23
2754	24
2754.87	26
2755.74	19
2756.61	22.5
2757.48	24.5
2758.36	26
2759.23	23
2760.1	24
2760.97	24
2761.84	26
2762.71	28
2763.59	24.5
2764.46	22.5
2765.33	27
2766.2	24
2767.07	22.5
2767.94	21.5
2768.81	23
2769.68	24.5
2770.55	25
2771.42	22.5
2772.29	23
2773.16	25
2774.03	27.5
2774.9	24
2775.77	22
2776.64	26.5
2777.51	24.5
2778.37	25.5
2779.24	23.5
2780.11	22.5
2780.98	24
2781.85	26.5
2782.72	29
2783.59	26.5
2784.45	22.5
2785.32	23.5
2786.19	24
2787.06	25
2787.92	25
2788.79	19
2789.66	21.5
2790.53	24
2791.39	26.5
2792.26	27.5
2793.13	22.5
2793.99	23
2794.86	25.5
2795.73	27
2796.59	26
2797.46	25.5
2798.33	24
2799.19	23
2800.06	23
2800.92	23.5
2801.79	23.5
2802.65	25
2803.52	22
2804.39	23
2805.25	25.5
2806.11	23
2806.98	25
2807.84	26
2808.71	24.5
2809.57	25.5
2810.44	23.5
2811.3	27
2812.17	24
2813.03	27.5
2813.89	21
2814.76	25.5
2815.62	24.5
2816.49	27
2817.35	23
2818.21	27.5
2819.07	28.5
2819.94	24.5
2820.8	24
2821.66	25
2822.53	26.5
2823.39	26.5
2824.25	26
2825.11	24
2825.97	22.5
2826.84	22.5
2827.7	24
2828.56	24
2829.42	28.5
2830.28	24.5
2831.14	22
2832.01	27
2832.87	21
2833.73	25
2834.59	23
2835.45	21
2836.31	25
2837.17	22
2838.03	25.5
2838.89	23.5
2839.75	20.5
2840.61	22.5
2841.47	29
2842.33	23
2843.19	23.5
2844.05	24
2844.91	27
2845.77	23.5
2846.63	27
2847.48	25.5
2848.34	24
2849.2	22.5
2850.06	24.5
2850.92	21.5
2851.78	23
2852.64	25
2853.49	25.5
2854.35	27
2855.21	22.5
2856.07	25.5
2856.93	23.5
2857.78	20
2858.64	23.5
2859.5	24.5
2860.35	22.5
2861.21	27.5
2862.07	22
2862.93	26
2863.78	26
2864.64	23.5
2865.49	22
2866.35	26
2867.21	26.5
2868.06	21
2868.92	21
2869.77	22
2870.63	23.5
2871.49	27
2872.34	28
2873.2	24.5
2874.05	21.5
2874.91	25.5
2875.76	25
2876.62	20
2877.47	24
2878.32	31.5
2879.18	23
2880.03	26.5
2880.89	21.5
2881.74	25.5
2882.6	27
2883.45	26
2884.3	23
2885.16	25.5
2886.01	25.5
2886.86	27
2887.72	26
2888.57	23
2889.42	30
2890.27	28
2891.13	27.5
2891.98	26
2892.83	28.5
2893.68	28
2894.54	30
2895.39	29
2896.24	33
2897.09	28.5
2897.94	30
2898.8	32
2899.65	25
2900.5	31.5
2901.35	34
2902.2	29.5
2903.05	37
2903.9	30.5
2904.75	34
2905.6	33
2906.45	33.5
2907.3	33
2908.15	33
2909.01	36
2909.85	28.5
2910.7	30.5
2911.55	30.5
2912.4	29
2913.25	29
2914.1	29.5
2914.95	29.5
2915.8	28
2916.65	31
2917.5	28.5
2918.35	28.5
2919.2	27.5
2920.04	26
2920.89	25.5
2921.74	25.5
2922.59	23.5
2923.44	23.5
2924.29	21.5
2925.13	25
2925.98	21.5
2926.83	25
2927.68	22
2928.52	20
2929.37	25
2930.22	23
2931.06	27
2931.91	22.5
2932.76	27
2933.6	25
2934.45	25
2935.3	26.5
2936.14	25
2936.99	21
2937.83	24.5
2938.68	25
2939.53	25
2940.37	22
2941.22	23
2942.06	26
2942.91	25
2943.75	22
2944.6	24
2945.44	21
2946.29	21
2947.13	23.5
2947.98	28
2948.82	26.5
2949.66	24
2950.51	23.5
2951.35	27.5
2952.2	24.5
2953.04	24
2953.88	18
2954.73	25
2955.57	27
2956.41	29
2957.26	27
2958.1	22
2958.94	29
2959.79	30.5
2960.63	24.5
2961.47	26.5
2962.31	29
2963.15	24
2964	28
2964.84	28
2965.68	30
2966.52	29
2967.37	27
2968.21	26
2969.05	27.5
2969.89	22
2970.73	24.5
2971.57	27.9927
2972.41	28.8845
2973.25	26.4744
2974.09	26.4982
2974.93	28.3932
2975.77	26.8287
2976.62	27.3308
2977.46	26.2317
2978.3	24.0553
2979.14	24.0126
2979.98	22.5216
2980.81	21.2626
2981.65	23.4486
2982.49	24.3586
2983.33	24.2242
2984.17	26.5993
2985.01	21.8772
2985.85	21.6709
2986.69	20.6617
2987.53	24.6177
2988.37	24.0589
2989.21	24.124
2990.04	24.8241
2990.88	22.7659
2991.72	21.7462
2992.56	20.9725
2993.4	22.2135
2994.23	20.1957
2995.07	24.1766
2995.91	26.4562
2996.75	23.9836
2997.58	24.9929
2998.42	22.547
2999.26	23.0152
3000.1	22.4631
3000.93	22.0441
3001.77	22.5427
3002.61	23.2777
3003.44	20.8676
3004.28	22.0413
3005.11	22.1542
3005.95	20.6437
3006.79	23.2708
3007.62	23.6447
3008.46	22.1314
3009.29	23.3814
3010.13	23.0217
3010.97	20.6174
3011.8	23.5568
3012.64	20.008
3013.47	22.1194
3014.31	21.8463
3015.14	22.1572
3015.98	21.8549
3016.81	22.4252
3017.64	22.8725
3018.48	23.4592
3019.31	23.5564
3020.15	23.9097
3020.98	23.428
3021.82	23.7718
3022.65	23.1044
3023.48	20.584
3024.32	21.1789
3025.15	22.6571
3025.98	24.2455
3026.82	22.3487
3027.65	21.0181
3028.48	23.5665
3029.31	22.882
3030.15	24.6062
3030.98	23.9587
3031.81	23.128
3032.64	20.5426
3033.48	20.6702
3034.31	21.1884
3035.14	25.1816
3035.97	22.7542
3036.8	21.2572
3037.64	23.1302
3038.47	23.3816
3039.3	22.0035
3040.13	23.5513
3040.96	22.9611
3041.79	21.8981
3042.62	22.5196
3043.45	22.4108
3044.28	22.9535
3045.12	24.0555
3045.95	23.2374
3046.78	22.0544
3047.61	21.6814
3048.44	21.8231
3049.27	23.085
3050.1	23.9545
3050.92	23.6888
3051.75	21.9448
3052.58	22.0521
3053.41	24.0526
3054.24	23.7346
3055.07	23.0343
3055.9	23.4417
3056.73	23.2194
3057.26	24.5
3058.09	23.5
3058.93	21.5
3059.76	22.5
3060.59	25
3061.43	24
3062.26	22
3063.09	22
3063.92	24.5
3064.76	23
3065.59	19
3066.42	25
3067.25	26.5
3068.08	23.5
3068.92	19
3069.75	23
3070.58	24.5
3071.41	22
3072.24	25
3073.07	23
3073.9	23
3074.73	19
3075.57	23
3076.4	22
3077.23	23
3078.06	22.5
3078.89	24
3079.72	24
3080.55	25
3081.38	24
3082.21	22.5
3083.04	22.5
3083.87	23.5
3084.7	22
3085.53	23
3086.36	24.5
3087.19	20.5
3088.01	24.5
3088.84	22
3089.67	23
3090.5	20.5
3091.33	24.5
3092.16	22
3092.99	23
3093.81	23.5
3094.64	22
3095.47	24
3096.3	21
3097.13	23.5
3097.95	24.5
3098.78	23
3099.61	22
3100.44	24
3101.26	21.5
3102.09	24
3102.92	25
3103.74	22.5
3104.57	22
3105.4	22.5
3106.22	23
3107.05	21.5
3107.88	23
3108.7	22
3109.53	22
3110.35	25.5
3111.18	24
3112.01	25.5
3112.83	23
3113.66	19
3114.48	21.5
3115.31	22.5
3116.13	18
3116.96	22.5
3117.78	20
3118.61	22.5
3119.43	25.5
3120.26	22.5
3121.08	18.5
3121.9	24
3122.73	19.5
3123.55	20
3124.38	24.5
3125.2	19
3126.02	24.5
3126.85	25
3127.67	28.5
3128.49	22.5
3129.32	24.5
3130.14	23
3130.96	26
3131.79	19.5
3132.61	24.5
3133.43	21.5
3134.25	22
3135.08	24
3135.9	23
3136.72	22
3137.54	21.5
3138.37	23.5
3139.19	24
3140.01	29
3140.83	23
3141.65	24.5
3142.47	21.5
3143.29	24.5
3144.12	18
3144.94	18.5
3145.76	24.5
3146.58	20
3147.4	21.5
3148.22	21
3149.04	26
3149.86	24
3150.68	23.5
3151.5	22.5
3152.32	22.5
3153.14	25
3153.96	23
3154.78	23.5
3155.6	21
3156.42	21.5
3157.24	22.5
3158.06	24
3158.88	25.5
3159.7	23
3160.51	24
3161.33	23.5
3162.15	24.5
3162.97	25
3163.79	23.5
3164.61	21.5
3165.42	23.5
3166.24	23
3167.06	26
3167.88	26
3168.7	23
3169.51	22
3170.33	22
3171.15	21
3171.97	22.5
3172.78	20.5
3173.6	21
3174.42	23.5
3175.23	23.5
3176.05	22.5
3176.87	22.5
3177.68	26
3178.5	24
3179.32	23.5
3180.13	26.5
3180.95	19.5
3181.76	21
3182.58	21
3183.4	21.5
3184.21	24
3185.03	24
3185.84	23.5
3186.66	21
3187.47	24
3188.29	25
3189.1	24
3189.92	25.5
3190.73	27
3191.55	23.5
3192.36	25.5
3193.17	22.5
3193.99	24
3194.8	19.5
3195.62	22.5
3196.43	28
3197.24	23.5
3198.06	27.5
3198.87	23
3199.68	23
3200.5	23.5
3201.31	23
3202.12	23.5
3202.94	25.5
3203.75	24
3204.56	23
3205.38	21.5
3206.19	24
3207	24
3207.81	25.5
3208.62	25
3209.44	22
3210.25	26
3211.06	22
3211.87	21.5
3212.68	24.5
3213.49	21
3214.31	25.5
3215.12	22
3215.93	26.5
3216.74	21
3217.55	27.5
3218.36	24.5
3219.17	21
3219.98	21
3220.79	24.5
3221.6	25.5
3222.41	23.5
3223.22	17
3224.03	24.5
3224.84	23.5
3225.65	23.5
3226.46	24.5
3227.27	27.5
3228.08	22
3228.89	24
3229.7	21
3230.51	22
3231.32	23
3232.13	26
3232.94	21
3233.74	26.5
3234.55	20.5
3235.36	25
3236.17	22
3236.98	23
3237.78	22
3238.59	22.5
3239.4	22
3240.21	21
3241.02	25.5
3241.82	23
3242.63	21.5
3243.44	23
3244.25	22.5
3245.05	25.5
3245.86	23
3246.67	23
3247.47	25
3248.28	19.5
3249.09	24.5
3249.89	22.5
3250.7	27
3251.5	25
3252.31	22
3253.12	28.5
3253.92	23
3254.73	24.5
3255.53	23.5
3256.34	23.5
3257.14	26.5
3257.95	23
3258.75	22.5
3259.56	23.5
3260.36	21
3261.17	24
3261.97	24.5
3262.78	23.5
3263.58	27
3264.39	24.5
3265.19	22
3265.99	23
3266.8	24.5
3267.6	23
3268.41	26.5
3269.21	23
3270.01	19.5
3270.82	26
3271.62	23.5
3272.42	27
3273.23	25
3274.03	23.5
3274.83	25.5
3275.64	26.5
3276.44	21.5
3277.24	20
3278.04	22.5
3278.85	22.5
3279.65	25
3280.45	21
3281.25	25
3282.05	20
3282.85	24.5
3283.66	22
3284.46	26
3285.26	21.5
3286.06	21
3286.86	24
3287.66	23.5
3288.46	23.5
3289.27	22
3290.07	22.5
3290.87	22
3291.67	26
3292.47	25
3293.27	24.5
3294.07	18.5
3294.87	23.5
3295.67	27
3296.47	26
3297.27	24
3298.07	24
3298.87	26
3299.67	21
3300.47	25
3301.26	26
3302.06	19.5
3302.86	24.5
3303.66	23
3304.46	19.5
3305.26	22.5
3306.06	23.5
3306.86	23
3307.65	23
3308.45	22.5
3309.25	24.5
3310.05	28
3310.85	24
3311.64	23
3312.44	25
3313.24	24.5
3314.04	23.5
3314.83	24
3315.63	24.5
3316.43	22.5
3317.22	20.5
3318.02	20
3318.82	25
3319.62	24.5
3320.41	23
3321.21	24
3322	24.5
3322.8	24
3323.6	24.5
3324.39	25
3325.19	25.5
3325.98	25
3326.78	23
3327.58	27
3328.37	24
3329.17	24.5
3329.96	25
3330.76	25.5
3331.55	26
3332.35	23.5
3333.14	24.5
3333.94	23
3334.73	25
3335.52	24
3336.32	25
3337.11	19.5
3337.91	26.5
3338.7	24
3339.5	27
3340.29	24
3341.08	29
3341.88	20.5
3342.67	22.5
3343.46	26
3344.26	26.5
3345.05	27.5
3345.84	25
3346.63	22
3347.43	23
3348.22	23
3349.01	27.5
3349.8	22.5
3350.6	23
3351.39	26.5
3352.18	22
3352.97	24
3353.77	24
3354.56	23
3355.35	24.5
3356.14	22
3356.93	20.5
3357.72	23.5
3358.51	21.5
3359.31	21.5
3360.1	25.5
3360.89	26
3361.68	24.5
3362.47	25
3363.26	22.5
3364.05	19
3364.84	25.5
3365.63	27
3366.42	21.5
3367.21	21.5
3368	23
3368.79	24
3369.58	22
3370.37	25.5
3371.16	26
3371.95	24.5
3372.74	24.5
3373.53	22.5
3374.32	23
3375.1	24.5
3375.89	25.5
3376.68	22.5
3377.47	26.5
3378.26	21.5
3379.05	24.5
3379.84	26
3380.62	24
3381.41	26
3382.2	20
3382.99	24
3383.78	20
3384.56	24.5
3385.35	18.5
3386.14	20
3386.93	25
3387.71	25
3388.5	26
3389.29	25.5
3390.07	20.5
3390.86	26
3391.65	22.5
3392.43	29
3393.22	21.5
3394.01	24
3394.79	22.5
3395.58	21
3396.36	25
3397.15	24
3397.94	24
3398.72	29
3399.51	25.5
3400.29	24
3401.08	24
3401.86	23.5
3402.65	23.5
3403.43	23
3404.22	28
3405	19.5
3405.79	26.5
3406.57	22
3407.36	22
3408.14	24
3408.93	22.5
3409.71	23.5
3410.49	22.5
3411.28	28
3412.06	26
3412.84	21.5
3413.63	26
3414.41	20
3415.2	21.5
3415.98	21
3416.76	25.5
3417.54	27.5
3418.33	28
3419.11	24.5
3419.89	24
3420.68	24
3421.46	24
3422.24	23.5
3423.02	22.5
3423.81	23.5
3424.59	21.5
3425.37	23.5
3426.15	23.5
3426.93	26
3427.71	25
3428.5	24
3429.28	29
3430.06	26.5
3430.84	22.5
3431.62	26.5
3432.4	26
3433.18	20.5
3433.96	25
3434.75	25
3435.53	26
3436.31	24
3437.09	21
3437.87	22.5
3438.65	22.5
3439.43	24
3440.21	27.5
3440.99	26
3441.77	24.5
3442.55	24.5
3443.33	23.5
3444.1	23
3444.88	22.5
3445.66	25.5
3446.44	23
3447.22	26.5
3448	24
3448.78	20
3449.56	27
3450.34	23.5
3451.11	21
3451.89	24.5
3452.67	20
3453.45	24
3454.23	25
3455	26
3455.78	24.5
3456.56	24
3457.34	20.5
3458.11	25
3458.89	25.5
3459.67	26.5
3460.45	23
3461.22	19
3462	26
3462.78	23.5
3463.55	26
3464.33	23.5
3465.11	27.5
3465.88	25
3466.66	25
3467.44	22.5
3468.21	23
3468.99	22
3469.76	21.5
3470.54	23.5
3471.32	23
3472.09	20
3472.87	25.5
3473.64	23
3474.42	25
3475.19	22.5
3475.97	22
3476.74	19
3477.52	26
3478.29	25
3479.07	29
3479.84	23
3480.61	24
3481.39	22
3482.16	21
3482.94	22.5
3483.71	24.5
3484.48	26
3485.26	23.5
3486.03	22
3486.81	21.5
3487.58	25.5
3488.35	28
3489.13	20.5
3489.9	23.5
3490.67	25
3491.44	24.5
3492.22	20
3492.99	24.5
3493.76	22.5
3494.54	27
3495.31	22.5
3496.08	23.5
3496.85	23.5
3497.62	23.5
3498.4	25
3499.17	23
3499.94	23.5
