#Acq. time (s)=	5
#Accumulations=	5
#Range (cm-¹)=	100...3500
#Windows=	4
#Autofocus=	Off
#AutoExposure=	Off
#Spike filter=	Multiple accum.
#Delay time (s)=	0
#Binning=	1
#Readout mode=	Signal
#DeNoise=	Off
#ICS correction=	Off
#Dark correction=	Off
#Inst. Process=	Off
#Instrument=	LabRAM HR Evol
#Detector=	Syncerity OE
#Objective=	x100_VIS
#Grating=	600 (500nm)
#ND Filter=	25%
#Laser=	633nm_Edge
#Hole=	100.021
#Range=	Visible
#Project=	verificaciones
#Sample=	at3
#Site=	plain
#Title=	bolusat3plain
#Remark=	
#Date=	14.01.2026 12:43
#Acquired=	14.01.2026 12:43:42
100.618	23.5
101.901	29.5
103.185	38
104.468	30
105.751	32.5
107.033	31.5
108.316	27
109.598	30.5
110.88	31.5
112.162	29
113.445	27.5
114.727	32
116.008	28
117.289	31
118.57	33.5
119.85	31
121.13	35
122.411	30.5
123.691	31
124.97	30
126.25	32
127.529	32
128.808	33.5
130.086	33.5
131.364	38
132.643	30
133.921	35
135.199	36
136.477	32
137.755	33.5
139.032	35
140.309	38
141.586	36.5
142.863	34.5
144.14	41
145.415	37.5
146.691	37.5
147.967	41
149.243	35
150.518	38
151.794	40.5
153.067	46
154.342	44
155.617	42
156.892	41.5
158.166	36.5
159.439	42
160.712	42
161.986	40
163.26	41
164.531	43.5
165.805	40
167.077	39.5
168.35	39
169.621	43
170.893	43.5
172.165	43
173.437	37.5
174.707	41
175.979	40
177.25	38
178.519	41
179.79	44.5
181.061	43.5
182.33	40.5
183.6	44
184.87	39
186.138	39
187.408	40
188.676	40.5
189.945	38
191.214	40
192.481	43
193.75	45
195.016	43.5
196.285	33
197.552	41.5
198.819	41
200.086	40.5
201.352	37.5
202.619	43
203.884	36
205.151	34
206.416	39.5
207.682	31
208.947	39.5
210.213	39
211.477	38
212.742	36
214.006	35.5
215.271	37
216.535	34.5
217.799	33.5
219.062	31
220.326	34
221.589	32.5
222.851	36
224.115	34
225.377	33
226.64	33
227.901	39
229.163	33.5
230.425	33
231.686	32
232.947	36.5
234.209	29
235.469	32
236.729	33
237.991	32
239.25	27
240.51	27
241.771	30
243.03	30
244.288	29.5
245.549	32
246.807	32
248.065	30
249.323	32
250.583	28.5
251.84	31
253.098	33
254.355	28.5
255.613	33.5
256.87	29
258.127	31.5
259.383	30
260.639	27.5
261.897	29
263.153	27
264.408	33.5
265.664	34.5
266.919	31
268.174	29.5
269.43	34
270.685	33
271.939	30
273.193	26
274.447	32.5
275.701	29
276.955	26
278.208	29
279.461	31.5
280.714	29.5
281.968	29
283.221	28.5
284.473	32
285.726	32.5
286.977	24.5
288.229	27.5
289.481	26
290.732	31
291.983	30
293.234	28
294.485	30
295.736	29
296.986	25
298.236	31.5
299.486	23.5
300.736	30.5
301.985	28
303.233	30
304.482	25
305.731	30
306.98	27
308.228	29.5
309.477	28.5
310.725	24.5
311.973	25
313.22	29
314.468	30
315.714	27.5
316.961	28.5
318.208	29
319.455	31.5
320.701	28
321.947	25
323.192	31.5
324.438	29.5
325.684	27.5
326.929	27
328.175	24
329.418	30
330.663	32.5
331.908	26.5
333.152	29
334.395	31
335.639	23.5
336.883	26.5
338.127	27.5
339.369	24.5
340.612	32.5
341.855	28.5
343.097	31
344.34	29
345.582	31.5
346.823	31
348.065	27
349.307	28
350.547	30
351.789	29
353.03	28
354.27	31
355.511	26
356.75	29.5
357.991	30.5
359.231	27
360.47	29
361.709	33
362.948	29
364.187	26.5
365.427	27.5
366.664	32.5
367.903	28
369.14	29
370.379	30.5
371.616	29.5
372.854	27
374.091	29
375.328	24.5
376.564	26
377.802	27.5
379.037	29.5
380.274	26
381.51	31
382.745	26
383.981	29.5
385.216	32
386.452	30
387.686	27.5
388.922	29
390.155	27
391.389	28
392.624	27
393.857	30.5
395.091	28
396.325	31
397.558	30
398.79	27
400.024	28.5
401.256	28.5
402.488	29.5
403.721	27.5
404.953	31.5
406.184	25.5
407.417	28
408.648	30.5
409.878	29
411.109	19
412.341	30
413.571	27
414.801	28.5
416.031	25.5
417.262	31.5
418.491	27
419.72	29.5
420.949	27
422.178	27.5
423.408	24
424.637	31.5
425.865	30
427.093	30
428.32	29
429.548	30.5
430.777	29
432.004	28
433.231	28.5
434.458	26.5
435.685	25.5
436.911	25.5
438.137	28
439.363	30
440.589	30
441.815	29.5
443.042	28.5
444.267	27.5
445.492	31
446.717	29
447.942	27
449.166	26
450.39	28
451.615	32
452.838	33
454.062	27
455.286	26
456.509	25.5
457.732	28.5
458.955	28
460.178	26.5
461.399	32
462.621	30.5
463.843	30.5
465.065	29.5
466.287	31
467.508	38
468.73	31
469.951	35
471.172	32
472.393	31
473.612	36.5
474.832	37
476.052	42
477.272	40
478.492	41
479.712	44
480.93	49.5
482.149	52
483.368	52.5
484.587	61
485.806	55
487.023	59.5
488.241	64
489.459	63
490.677	59.5
491.893	61
493.111	52
494.328	58.5
495.543	59.5
496.76	47.5
497.977	48
499.194	48
500.409	47
501.625	42
502.841	43
504.055	41
505.27	42
506.486	39.5
507.699	36
508.914	32.5
510.128	35.5
511.342	32.5
512.557	35
513.77	32.5
514.984	33
516.196	31
517.41	34.5
518.623	36
519.835	37
521.048	31
522.259	30.5
523.472	33
524.683	32
525.895	35
527.106	30.5
528.318	30.5
529.528	29.5
530.74	27.5
531.949	34
533.161	32
534.37	28
535.581	31
536.79	28.5
537.999	30
539.209	27
540.418	28
541.627	30.5
542.835	28.5
544.043	29.5
545.253	32
546.46	27
547.669	25.5
548.876	33.5
550.083	27
551.292	26
552.498	27
553.705	28
554.912	28.5
556.118	25.5
557.324	25
558.53	30
559.737	31
560.942	31
562.147	27
563.353	29.5
564.558	27
565.763	29
566.967	29.5
568.173	27.5
569.377	29
570.58	30
571.784	27.5
572.987	26.5
574.192	27.5
575.395	25.5
576.598	31
577.8	28
579.003	30.5
580.205	30
581.407	29
582.61	32
583.812	25
585.014	27.5
586.215	29.5
587.416	27
588.617	27
589.818	30.5
591.018	30
592.219	28
593.419	24.5
594.619	27.5
595.819	29.5
597.02	28
598.219	27.5
599.418	29.5
600.617	25
601.816	27.5
603.015	29
604.213	26
605.41	29
606.608	27.5
607.806	23
609.004	24.5
610.201	30.5
611.399	25.5
612.596	26.5
613.793	31.5
614.989	26.5
616.186	25.5
617.382	29
618.579	24
619.775	27
620.969	30
622.165	26.5
623.36	29
624.555	29
625.75	29
626.945	29.5
628.139	26.5
629.333	29.5
630.527	25.5
631.721	24.5
632.915	27.5
634.108	27
635.301	30.5
636.495	29
637.688	28.5
638.88	29
640.072	31
641.265	30.5
642.456	27
643.648	28
644.84	29
646.032	28
647.222	27.5
648.414	29
649.605	22.5
650.795	29
651.986	28
653.177	28.5
654.366	34.5
655.556	22.5
656.745	30.5
657.935	29.5
659.125	32.5
660.313	33
661.503	33
662.69	27
663.879	27.5
665.067	29.5
666.256	26.5
667.444	29
668.631	33.5
669.819	32
671.006	34
672.194	30.5
673.38	29.5
674.567	33
675.753	32
676.94	32.5
678.125	35.5
679.311	31
680.497	38
681.682	28
682.868	38.5
684.053	36.5
685.238	37
686.422	38
687.606	36.5
688.792	30.5
689.975	36.5
691.159	36
692.343	38
693.526	34
694.71	32
695.893	29
697.076	36.5
698.259	35.5
699.441	33.5
700.623	37
701.805	42.5
702.988	36.5
704.169	38
705.35	46.5
706.533	48.5
707.714	52
708.894	49
710.075	49.5
711.255	47
712.436	47
713.616	37
714.796	34.5
715.975	35
717.155	37
718.335	29
719.514	35
720.693	30
721.872	30
723.05	31
724.228	31.5
725.406	26
726.585	25.5
727.763	29.5
728.941	32
730.118	27.5
731.295	26
732.472	26
733.649	33.5
734.825	27
736.002	28
737.178	27
738.354	29.5
739.53	27
740.705	28.5
741.881	29
743.056	30
744.231	25.5
745.406	32.5
746.581	29.5
747.755	31
748.93	27
750.104	30
751.278	29
752.452	25
753.625	30
754.799	27.5
755.972	31.5
757.144	28
758.317	31.5
759.489	25.5
760.662	26.5
761.834	25.5
763.006	28.5
764.178	25
765.349	28
766.521	25.5
767.692	28
768.863	28.5
770.034	27.5
771.204	28
772.374	29.5
773.545	28
774.715	33
775.885	28
777.054	30.5
778.224	26.5
779.393	31.5
780.562	27.5
781.731	31.5
782.9	30.5
784.069	28.5
785.236	30
786.405	33
787.573	29
788.74	33
789.908	31.5
791.074	33
792.242	26.5
793.409	31
794.575	27
795.742	32.5
796.909	32
798.074	27.5
799.241	26
800.406	30
801.572	26
802.737	29
803.902	30.5
805.067	29
806.232	25
807.396	26.5
808.561	26
809.725	26
810.889	32
812.052	32
813.217	32
814.38	30.5
815.544	27.5
816.706	29.5
817.87	30
819.032	28.5
820.195	27
821.357	31.5
822.518	28.5
823.681	28.5
824.842	27.5
826.005	29
827.165	27
828.326	30.5
829.488	29
830.648	30
831.808	29
832.97	25
834.129	28.5
835.289	28.5
836.45	28
837.609	28
838.768	28
839.927	23.5
841.087	27.5
842.245	24.5
843.404	25.5
844.562	29
845.721	26
846.879	28.5
848.036	28.5
849.194	23.5
850.351	26
851.509	31
852.666	28.5
853.823	32
854.979	29
856.136	30
857.292	28
858.448	27.5
859.605	30
860.761	30
861.916	31.5
863.071	28
864.226	32
865.381	29
866.536	26
867.691	25.5
868.845	27
869.999	33
871.153	26
872.307	30
873.461	31
874.614	29.5
875.767	30.5
876.92	30.5
878.073	29.5
879.226	27
880.379	32.5
881.531	24.5
882.683	30.5
883.835	29.5
884.987	26
886.139	27.5
887.291	24
888.442	26.5
889.593	30
890.743	26
891.893	27.5
893.044	26
894.195	24.5
895.345	26
896.495	29
897.643	29
898.793	24
899.943	27.5
901.092	25.5
902.241	25
903.389	28
904.538	24
905.687	28.5
906.835	24
907.982	29.5
909.13	22.5
910.278	30
911.426	30.5
912.572	28
913.72	24
914.867	22.5
916.013	28
917.16	30.5
918.306	24
919.451	27
920.598	26.5
921.744	29
922.889	26
924.035	27.5
925.18	27.5
926.324	26
927.47	27
928.614	25
929.758	25.5
930.902	25
932.047	26
933.191	25
934.334	24.5
935.478	23.5
936.621	26
937.764	28.5
938.906	23.5
940.05	30
941.192	26.5
942.335	23.5
943.476	28.5
944.619	28.5
945.76	28
946.901	25.5
948.043	27.5
949.184	25
950.326	22.5
951.466	28.5
952.606	27
953.747	28.5
954.887	24
956.028	24.5
957.167	26
958.307	27.5
959.447	26.5
960.586	25.5
961.725	25
962.865	28
964.003	29
965.141	30
966.279	24.5
967.418	24
968.556	26
969.693	24.5
970.831	25.25
971.969	25
973.106	27.5
974.243	30
975.38	23
976.517	26
977.654	28
978.79	25
979.926	24.5
981.061	27.5
982.197	32
983.334	25
984.469	26
985.604	27.5
986.739	28.5
987.873	25
989.008	24
990.142	27.5
991.277	27.5
992.411	25.5
993.544	28
994.679	29
995.813	24
996.946	28.5
998.079	25
999.212	26
1000.35	25.5
1001.48	26
1002.61	28.5
1003.74	25
1004.87	25.5
1006.01	26
1007.14	29.5
1008.27	23
1009.4	26
1010.53	27.5
1011.66	27.5
1012.79	27
1013.92	25.5
1015.05	22.5
1016.18	22
1017.31	27
1018.44	27
1019.57	29.5
1020.7	26.5
1021.83	23.5
1022.96	27
1024.09	25.5
1025.22	28
1026.35	21
1027.48	27.5
1028.6	28
1029.73	28
1030.86	26
1031.99	27
1033.12	28
1034.24	28
1035.37	24
1036.5	25
1037.62	24.5
1038.75	27.5
1039.88	25
1041	28.5
1042.13	28
1043.25	27.5
1044.38	26.5
1045.5	27.5
1046.63	27.5
1047.76	23.5
1048.88	27.5
1050	24.5
1051.13	29
1052.25	27.5
1053.38	28
1054.5	23.5
1055.63	24
1056.75	28
1057.87	24.5
1058.99	24
1060.12	26.5
1061.24	27.5
1062.36	24.5
1063.49	28.5
1064.61	26.5
1065.73	26.5
1066.85	27
1067.97	24
1069.1	27
1070.22	26
1071.34	24
1072.46	25.5
1073.58	24
1074.7	25
1075.82	27.5
1076.94	27.5
1078.06	26.5
1079.18	30
1080.3	27.5
1081.42	24
1082.54	23.5
1083.66	27
1084.78	25.5
1085.9	26
1087.02	27
1088.13	27
1089.25	24
1090.37	26
1091.49	26
1092.61	23.5
1093.72	23
1094.84	27.5
1095.96	21.5
1097.08	24
1098.19	26
1099.31	28.5
1100.42	28
1101.54	23
1102.66	27
1103.77	26.5
1104.89	24
1106	25.5
1107.12	21.5
1108.23	28.5
1109.35	24.5
1110.46	27
1111.58	25.5
1112.69	25
1113.81	23.5
1114.92	28
1116.04	24
1117.15	28
1118.26	26
1119.38	26.5
1120.49	26
1121.6	28
1122.72	28
1123.83	23.5
1124.94	25
1126.05	24
1127.17	29
1128.28	26
1129.39	26
1130.5	24
1131.61	23
1132.72	21
1133.83	24
1134.94	25.5
1136.06	25
1137.17	27.5
1138.27	27.5
1139.39	23.5
1140.5	25
1141.61	24.5
1142.72	24.5
1143.82	26.5
1144.93	24
1146.04	26
1147.15	25.5
1148.26	21.5
1149.37	22.5
1150.48	23
1151.58	24.5
1152.69	25
1153.8	24.5
1154.91	24
1156.02	26
1157.12	28.5
1158.23	26
1159.34	22.5
1160.44	21
1161.55	25.5
1162.66	25.5
1163.76	24.5
1164.87	25
1165.97	22
1167.08	29
1168.18	28
1169.29	21
1170.39	25.5
1171.5	25.5
1172.6	26
1173.71	22.5
1174.81	26.5
1175.92	23
1177.02	25.5
1178.13	26
1179.23	26
1180.33	25
1181.44	21
1182.54	21
1183.64	23.5
1184.74	23
1185.85	26.5
1186.95	26
1188.05	23.5
1189.15	25
1190.26	25
1191.36	24.5
1192.46	24
1193.56	26
1194.66	24.9856
1195.76	24.9699
1196.86	24.11
1197.96	25.6096
1199.06	23.5437
1200.16	29.2302
1201.26	22.5676
1202.36	28.2513
1203.46	23.7795
1204.56	25.8064
1205.66	25.9566
1206.76	26.5545
1207.86	27.8134
1208.96	24.0646
1210.06	21.421
1211.16	25.9726
1212.25	25.3592
1213.35	28.3103
1214.45	23.7647
1215.55	25.4374
1216.65	25.5883
1217.74	23.9738
1218.84	22.8557
1219.94	26.4575
1221.03	27.0971
1222.13	23.8492
1223.23	24.3617
1224.32	22.9217
1225.42	23.0034
1226.52	26.624
1227.61	26.1415
1228.71	29.0798
1229.8	26.6405
1230.9	21.442
1231.99	22.534
1233.09	24.4665
1234.18	24.8399
1235.28	26.5714
1236.37	22.5359
1237.47	25.3174
1238.56	22.8705
1239.65	26.0562
1240.75	23.2911
1241.84	23.1183
1242.93	24.9489
1244.03	26.0121
1245.12	25.1953
1246.21	24.7102
1247.31	24.102
1248.4	22.9591
1249.49	25.9378
1250.58	24.75
1251.67	25.8041
1252.77	25.427
1253.86	28.1818
1254.95	26.6731
1256.04	26.3053
1257.13	25.4507
1258.22	25.6151
1259.31	24.6198
1260.4	28.4952
1261.49	24.0267
1262.58	24.2076
1263.67	25.6157
1264.76	24.3217
1265.85	26.182
1266.94	26.0721
1268.03	26.2767
1269.12	25.0055
1270.21	22.8344
1271.3	22.2527
1272.39	24.8434
1273.47	25.0311
1274.56	23.0651
1275.65	25.4622
1276.74	24.9428
1277.83	23.0221
1278.91	23.2402
1280	25.0617
1281.09	24.3883
1282.17	23.5106
1283.26	22.5432
1284.35	23.5013
1285.43	24.4053
1286.52	24.3104
1287.61	26.4271
1288.69	27.3421
1289.78	26.5864
1290.86	23.3526
1291.95	23.7189
1293.03	23.8524
1294.12	23.564
1295.2	24.1529
1296.29	27.0161
1297.37	26.1392
1298.46	25.8197
1299.54	25.1377
1300.63	25.4663
1301.71	23.3514
1302.79	24.7453
1303.88	24.6241
1304.96	23.3392
1306.04	23.7811
1306.5	24
1307.59	21.5
1308.68	29.5
1309.76	25.5
1310.85	21
1311.94	27.5
1313.03	23.5
1314.11	21
1315.2	23
1316.29	26
1317.37	23
1318.46	24
1319.55	26
1320.63	28
1321.72	22
1322.81	21
1323.89	23
1324.98	21
1326.06	27.5
1327.15	24
1328.23	24
1329.32	26
1330.4	28
1331.49	23.5
1332.57	21.5
1333.66	24.5
1334.74	25.5
1335.82	27
1336.91	21
1337.99	24
1339.07	25
1340.16	20
1341.24	26.5
1342.32	27
1343.4	29
1344.49	27.5
1345.57	20
1346.65	27
1347.73	24
1348.82	24
1349.9	24
1350.98	22
1352.06	26
1353.14	26
1354.22	24
1355.3	26.5
1356.38	21
1357.46	23
1358.54	22.5
1359.62	25.5
1360.7	24
1361.78	24
1362.86	22
1363.94	23
1365.02	24.5
1366.1	25.5
1367.18	23.5
1368.26	23
1369.34	20.5
1370.41	23.5
1371.49	25.5
1372.57	29
1373.65	28.5
1374.72	26
1375.8	27
1376.88	26.5
1377.96	26.5
1379.03	25
1380.11	24.5
1381.19	21
1382.26	23
1383.34	24
1384.42	27.5
1385.49	21
1386.57	25
1387.64	28
1388.72	22
1389.79	23.5
1390.87	25.5
1391.94	30
1393.02	27
1394.09	27.5
1395.17	28
1396.24	27.5
1397.31	28
1398.39	27
1399.46	32
1400.54	29
1401.61	30
1402.68	25.5
1403.76	31.5
1404.83	29.5
1405.9	31
1406.97	33
1408.05	32
1409.12	34
1410.19	32
1411.26	29
1412.33	31
1413.4	32.5
1414.48	35.5
1415.55	30
1416.62	32.5
1417.69	25
1418.76	30.5
1419.83	31
1420.9	26
1421.97	30.5
1423.04	30.5
1424.11	26
1425.18	28.5
1426.25	23
1427.32	25.5
1428.39	28
1429.46	22.5
1430.52	26
1431.59	26
1432.66	23
1433.73	24
1434.8	24
1435.87	24
1436.93	28
1438	27.5
1439.07	26.5
1440.14	27.5
1441.2	27.5
1442.27	25
1443.34	28
1444.4	25
1445.47	27
1446.54	23.5
1447.6	24
1448.67	27.5
1449.73	28
1450.8	27.5
1451.86	29.5
1452.93	23.5
1453.99	27
1455.06	20
1456.12	29.5
1457.19	24
1458.25	27
1459.32	26.5
1460.38	23.5
1461.45	24
1462.51	23.5
1463.57	23.5
1464.64	23.5
1465.7	23.5
1466.76	27
1467.82	29.5
1468.89	24
1469.95	26.5
1471.01	26
1472.07	26.5
1473.14	22.5
1474.2	23
1475.26	26
1476.32	28
1477.38	26.5
1478.44	25
1479.5	24.5
1480.57	24
1481.63	28
1482.69	25.5
1483.75	28
1484.81	23
1485.87	21
1486.93	26.5
1487.99	24.5
1489.05	25
1490.1	24
1491.17	21
1492.22	22.5
1493.28	29
1494.34	27.5
1495.4	24
1496.46	28
1497.52	26
1498.57	25.5
1499.63	22
1500.69	26
1501.75	28.5
1502.8	28
1503.86	23.5
1504.92	29.5
1505.98	24
1507.03	26.5
1508.09	25
1509.15	25
1510.2	28.5
1511.26	26
1512.31	25.5
1513.37	24
1514.42	28
1515.48	27.5
1516.53	24
1517.59	24
1518.64	24.5
1519.7	23
1520.75	22
1521.81	23.5
1522.86	23.5
1523.92	29
1524.97	25
1526.02	31.5
1527.08	26
1528.13	25.5
1529.18	26
1530.24	25
1531.29	28
1532.34	28
1533.39	27
1534.45	25.5
1535.5	23
1536.55	28
1537.6	27.5
1538.65	29
1539.71	24.5
1540.76	23.5
1541.81	27
1542.86	27
1543.91	24
1544.96	23.5
1546.01	28
1547.06	26.5
1548.11	24.5
1549.16	25
1550.21	29
1551.26	26
1552.31	25.5
1553.36	29
1554.41	26.5
1555.46	25.5
1556.51	27
1557.56	25.5
1558.6	28.5
1559.65	28
1560.7	26
1561.75	26.5
1562.8	24.5
1563.84	27
1564.89	25
1565.94	19
1566.99	28
1568.03	26.5
1569.08	26
1570.13	24.5
1571.17	25
1572.22	27
1573.27	27
1574.31	27
1575.36	22
1576.4	25.5
1577.45	21
1578.5	26.5
1579.54	23
1580.59	28.5
1581.63	22
1582.68	27.5
1583.72	27
1584.76	25
1585.81	28.5
1586.85	28
1587.9	23.5
1588.94	26
1589.98	23.5
1591.03	25.5
1592.07	26.5
1593.11	25
1594.16	20
1595.2	24
1596.24	27
1597.29	27
1598.33	26
1599.37	29.5
1600.41	20
1601.45	24
1602.49	21
1603.54	27
1604.58	25.5
1605.62	26
1606.66	24
1607.7	24.5
1608.74	24.5
1609.78	25
1610.82	27
1611.86	26
1612.9	26
1613.94	24
1614.98	26
1616.02	23.5
1617.06	30.5
1618.1	24.5
1619.14	26
1620.18	25.5
1621.22	24.5
1622.25	23.5
1623.29	25
1624.33	24.5
1625.37	20
1626.41	28.5
1627.45	24.5
1628.48	25
1629.52	25.5
1630.56	28.5
1631.59	26
1632.63	24
1633.67	25.5
1634.7	20
1635.74	26
1636.78	23.5
1637.81	22
1638.85	29.5
1639.88	23
1640.92	24
1641.96	26
1642.99	26.5
1644.03	26.5
1645.06	27
1646.1	24
1647.13	26.5
1648.17	27
1649.2	25
1650.23	28
1651.27	30
1652.3	27
1653.33	22.5
1654.37	26.5
1655.4	20.5
1656.44	25
1657.47	26
1658.5	25
1659.53	26
1660.57	22
1661.6	25.5
1662.63	26
1663.66	24.5
1664.69	28.5
1665.73	24.5
1666.76	24.5
1667.79	24
1668.82	26
1669.85	22.5
1670.88	26.5
1671.91	28
1672.94	22
1673.97	24
1675.01	24.5
1676.03	26.5
1677.07	25
1678.1	25
1679.12	22
1680.15	26.5
1681.18	28
1682.21	25
1683.24	21.5
1684.27	27.5
1685.3	26.5
1686.33	26
1687.36	33
1688.38	28.5
1689.41	27
1690.44	24.5
1691.47	25
1692.5	26
1693.52	26
1694.55	22.5
1695.58	24
1696.6	23
1697.63	24
1698.66	22.5
1699.68	24.5
1700.71	25
1701.74	27.5
1702.76	24
1703.79	27
1704.81	20.5
1705.84	23.5
1706.86	26
1707.89	25
1708.91	25.5
1709.94	24
1710.96	22
1711.99	28
1713.01	21
1714.04	22.5
1715.06	23.5
1716.08	24.5
1717.11	27.5
1718.13	27
1719.16	23
1720.18	25.5
1721.2	25
1722.22	28
1723.25	25
1724.27	25.5
1725.29	28
1726.31	22
1727.34	25
1728.36	25.5
1729.38	25
1730.4	30
1731.42	24.5
1732.44	26
1733.47	22.5
1734.49	23.5
1735.51	25.5
1736.53	25.5
1737.55	21.5
1738.57	27
1739.59	24
1740.61	25.5
1741.63	25
1742.65	25.5
1743.67	27
1744.69	27
1745.71	27.5
1746.73	25.5
1747.75	25
1748.76	24.5
1749.78	25
1750.8	26
1751.82	26.5
1752.84	24.5
1753.86	25
1754.87	26
1755.89	27
1756.91	26.5
1757.93	24
1758.94	25
1759.96	24
1760.98	27.5
1761.99	26
1763.01	24.5
1764.03	26
1765.04	22.5
1766.06	19.5
1767.08	23
1768.09	27.5
1769.11	29
1770.12	30
1771.14	27.5
1772.15	21.5
1773.17	28
1774.18	23
1775.2	25.5
1776.21	26
1777.23	23.5
1778.24	22
1779.25	26.5
1780.27	30
1781.28	25.5
1782.3	24
1783.31	26.5
1784.32	24
1785.34	22
1786.35	30
1787.36	28
1788.37	20.5
1789.39	30.5
1790.4	24.5
1791.41	21
1792.42	21
1793.43	26
1794.45	22.5
1795.46	21
1796.47	21
1797.48	22.5
1798.49	24
1799.5	25.5
1800.51	26
1801.52	27
1802.53	23
1803.54	24
1804.55	28.5
1805.56	26
1806.57	24
1807.58	24
1808.59	27
1809.6	23
1810.61	28
1811.62	27.5
1812.63	25
1813.64	25.5
1814.65	24.5
1815.66	22
1816.66	26
1817.67	26.5
1818.68	24.5
1819.69	26.5
1820.69	24.5
1821.7	29
1822.71	20
1823.72	23.5
1824.72	25
1825.73	25.5
1826.74	29.5
1827.74	26
1828.75	24.5
1829.76	25
1830.76	25.5
1831.77	25.5
1832.77	25
1833.78	25.5
1834.79	26.5
1835.79	22.5
1836.8	26
1837.8	23
1838.81	24
1839.81	26
1840.81	26
1841.82	25.5
1842.82	26
1843.83	26
1844.83	28
1845.83	23
1846.84	23.5
1847.84	25.5
1848.84	25.5
1849.85	22
1850.85	23.5
1851.85	27.5
1852.86	25.5
1853.86	23.5
1854.86	29.5
1855.86	28
1856.86	23
1857.87	26.5
1858.87	24
1859.87	25.5
1860.87	23.5
1861.87	25.5
1862.87	26
1863.88	26.5
1864.88	26.5
1865.88	26.5
1866.88	25.5
1867.88	26.5
1868.88	20
1869.88	25
1870.88	24.5
1871.88	26.5
1872.88	26
1873.88	20
1874.87	25.5
1875.87	25.5
1876.87	27.5
1877.87	26
1878.87	23
1879.87	24.5
1880.87	27
1881.86	26.5
1882.86	24
1883.86	27
1884.86	24
1885.86	28
1886.85	26.5
1887.85	27
1888.85	21.5
1889.84	27
1890.84	23
1891.84	26.5
1892.83	24
1893.83	25
1894.83	25
1895.82	24
1896.82	24.5
1897.81	28.5
1898.81	24.5
1899.81	25.5
1900.8	26
1901.8	23
1902.79	24
1903.78	20
1904.78	26
1905.77	25
1906.77	26
1907.76	25.5
1908.76	23
1909.75	26.5
1910.74	27
1911.74	24
1912.73	22.5
1913.72	26.5
1914.72	29
1915.71	24.5
1916.7	25.5
1917.7	25
1918.69	27.5
1919.68	21.5
1920.67	25.5
1921.66	23
1922.66	25
1923.65	25.5
1924.64	24
1925.63	24.5
1926.62	28
1927.61	22.5
1928.6	24
1929.59	25
1930.59	24.5
1931.58	26.5
1932.57	25.5
1933.56	23
1934.55	21
1935.54	24.5
1936.53	27.5
1937.52	26
1938.51	24
1939.49	26
1940.48	23
1941.47	26.5
1942.46	23
1943.45	23
1944.44	28.5
1945.43	25
1946.42	25
1947.4	24
1948.39	23.25
1949.38	22.5
1950.37	26.5
1951.35	26
1952.34	24.5
1953.33	23
1954.31	27.5
1955.3	26.5
1956.29	22.5
1957.27	25
1958.26	24
1959.25	28.5
1960.23	23.5
1961.22	27.5
1962.21	24
1963.19	24
1964.18	25
1965.16	20.5
1966.15	23.5
1967.13	27
1968.12	25.5
1969.1	26
1970.09	24
1971.07	27
1972.05	24
1973.04	25.5
1974.02	25.5
1975.01	24.5
1975.99	26
1976.97	22
1977.96	29.5
1978.94	26.5
1979.92	24.5
1980.91	26.5
1981.89	26
1982.87	22
1983.85	24.5
1984.84	22.5
1985.82	25.5
1986.8	26.5
1987.78	25
1988.76	25
1989.74	22
1990.73	22
1991.71	24
1992.69	26.5
1993.67	26.5
1994.65	28.5
1995.63	22.5
1996.61	25.5
1997.59	27
1998.57	25.5
1999.55	25
2000.53	24
2001.51	24.5
2002.49	25
2003.47	24.5
2004.45	28.5
2005.43	25
2006.41	21
2007.39	22.5
2008.37	23.5
2009.34	25.5
2010.32	22.5
2011.3	22.5
2012.28	24.5
2013.26	24.5
2014.23	22.5
2015.21	22.5
2016.19	21
2017.17	21
2018.14	22
2019.12	23
2020.1	27
2021.07	20
2022.05	25
2023.03	24.5
2024	24
2024.98	26
2025.96	22.5
2026.93	24.5
2027.91	27
2028.88	26
2029.86	24
2030.83	24.5
2031.81	23
2032.78	24
2033.76	22
2034.73	22
2035.71	26
2036.68	24.5
2037.66	22.5
2038.63	23.5
2039.6	27
2040.58	20.5
2041.55	23
2042.52	23
2043.5	22.5
2044.47	27
2045.44	23.5
2046.42	21.5
2047.39	27
2048.36	24
2049.33	25
2050.31	23
2051.28	23
2052.25	21
2053.22	24.5
2054.19	22
2055.17	23.5
2056.14	24
2057.11	20.5
2058.08	28
2059.05	19.5
2060.02	26
2060.99	23
2061.96	21
2062.93	22.5
2063.9	24.5
2064.87	22
2065.84	25
2066.81	25
2067.78	27
2068.75	25.5
2069.72	22
2070.69	23.5
2071.66	28
2072.63	23
2073.6	21.5
2074.56	24
2075.53	22
2076.5	25
2077.47	22.5
2078.44	23
2079.4	23
2080.37	24.5
2081.34	24
2082.31	25
2083.27	25
2084.24	21
2085.21	24
2086.18	30
2087.14	19
2088.11	22
2089.07	22
2090.04	24.5
2091.01	20.5
2091.97	24
2092.94	25.5
2093.9	26.5
2094.87	24
2095.83	24.5
2096.8	26
2097.76	22.5
2098.73	24
2099.69	24.5
2100.66	25.5
2101.62	25.5
2102.59	27.5
2103.55	22.5
2104.52	20.5
2105.48	20.5
2106.44	24
2107.41	26.5
2108.37	23
2109.33	20.5
2110.3	23
2111.26	30.5
2112.22	22
2113.18	23
2114.15	23
2115.11	24
2116.07	24.5
2117.03	23
2118	23
2118.96	25
2119.92	27
2120.88	25
2121.84	24.5
2122.8	28.5
2123.76	25
2124.72	22.5
2125.68	26
2126.65	26.5
2127.61	28
2128.57	24
2129.53	23
2130.49	27
2131.45	23
2132.41	23
2133.36	20.5
2134.32	24
2135.28	25.5
2136.24	23.5
2137.2	25
2138.16	20.5
2139.12	24.5
2140.08	22
2141.04	20.5
2141.99	24.5
2142.95	22.0019
2143.91	22.4848
2144.87	23.0788
2145.83	23.0968
2146.78	24.4186
2147.74	22.4733
2148.7	23.4053
2149.66	22.4383
2150.61	23.3078
2151.57	26.0699
2152.53	24.7959
2153.48	22.5581
2154.44	20.5803
2155.4	21.6247
2156.35	22.5397
2157.31	22.112
2158.26	21.136
2159.22	23.4238
2160.17	21.1971
2161.13	23.6751
2162.08	24.673
2163.04	24.2913
2163.99	24.2222
2164.95	22.5304
2165.9	24.4621
2166.86	22.8743
2167.81	24.0713
2168.77	20.963
2169.72	21.3969
2170.67	24.789
2171.63	25.294
2172.58	22.4734
2173.54	23.6413
2174.49	22.3495
2175.44	22.2104
2176.39	24.7979
2177.35	22.0926
2178.3	21.1422
2179.25	21.7832
2180.2	22.6697
2181.16	21.9984
2182.11	24.9694
2183.06	22.7885
2184.01	23.4149
2184.96	22.2505
2185.92	23.387
2186.87	21.9731
2187.82	22.0336
2188.77	20.5479
2189.72	23.6694
2190.67	21.1054
2191.62	23.0009
2192.57	22.7522
2193.52	24.7317
2194.47	22.8228
2195.42	23.8597
2196.37	21.8969
2197.32	20.4641
2198.27	22.171
2199.22	20.8058
2200.17	23.3635
2201.12	24.5314
2202.07	23.7474
2203.02	21.9963
2203.97	22
2204.92	24.9634
2205.87	23.4542
2206.81	21.3526
2207.76	24.0756
2208.71	25.102
2209.66	22.4088
2210.61	25.8047
2211.55	19.8215
2212.5	24.1901
2213.45	23.3996
2214.4	21.2028
2215.34	21.2388
2216.29	23.2356
2217.24	20.8785
2218.18	22.3931
2219.13	23.9806
2220.08	24.2423
2221.02	23.974
2221.97	24.6893
2222.92	23.8389
2223.86	23.691
2224.81	24.6095
2225.75	24.278
2226.7	20.2984
2227.64	23.4911
2228.59	21.669
2229.53	21.5558
2230.48	21.2427
2231.42	20.133
2232.37	20.285
2233.31	21.686
2234.26	22.3676
2235.2	21.6876
2236.14	21.4782
2237.09	21.0594
2238.03	23.1853
2238.97	22.1761
2239.92	25.4344
2240.05	26
2241	26.5
2241.95	25
2242.89	24.5
2243.84	23
2244.79	22.5
2245.74	25
2246.68	27
2247.63	25
2248.58	24
2249.53	19
2250.47	23
2251.42	21
2252.36	22.5
2253.31	22
2254.26	22
2255.2	23.5
2256.15	19.5
2257.1	21
2258.04	24
2258.99	18.5
2259.93	24.5
2260.88	22
2261.82	24.5
2262.77	27
2263.71	21.5
2264.66	22
2265.6	23
2266.55	26.5
2267.49	20
2268.43	28.5
2269.38	25
2270.32	24
2271.26	24
2272.21	22.5
2273.15	25.5
2274.09	25
2275.04	22.5
2275.98	23
2276.92	19.5
2277.87	22.5
2278.81	24
2279.75	21
2280.69	23
2281.64	23
2282.58	24.5
2283.52	23
2284.46	21
2285.4	25.5
2286.34	22.5
2287.29	23
2288.23	21
2289.17	19.5
2290.11	27
2291.05	24.5
2291.99	23.5
2292.93	23
2293.87	23
2294.81	19
2295.75	26
2296.69	24.5
2297.63	24.5
2298.57	22
2299.51	24
2300.45	24.5
2301.39	22
2302.33	22
2303.27	24
2304.2	19
2305.14	24
2306.08	24.5
2307.02	24
2307.96	22.5
2308.9	25.5
2309.83	23
2310.77	22
2311.71	25
2312.65	22.5
2313.58	23
2314.52	23.5
2315.46	26
2316.39	19.5
2317.33	24
2318.27	21
2319.21	22
2320.14	20
2321.08	24.5
2322.01	26.5
2322.95	27
2323.89	22
2324.82	26
2325.76	20
2326.69	23
2327.63	20
2328.56	22
2329.5	18
2330.43	22.5
2331.37	26
2332.3	23.5
2333.24	23
2334.17	27
2335.1	22
2336.04	21.5
2336.97	26
2337.91	24
2338.84	22.5
2339.77	22
2340.71	23.5
2341.64	27.5
2342.57	25.5
2343.51	24
2344.44	22
2345.37	21.5
2346.3	22.5
2347.24	27.5
2348.17	22.5
2349.1	21
2350.03	26
2350.96	24
2351.89	23.5
2352.83	25.5
2353.76	25.5
2354.69	24
2355.62	22.5
2356.55	25.5
2357.48	27.5
2358.41	24.5
2359.34	27
2360.27	24.5
2361.2	24
2362.13	24
2363.06	20.5
2363.99	26
2364.92	25.5
2365.85	25
2366.78	22
2367.71	22
2368.64	25
2369.57	23
2370.5	22
2371.43	25
2372.36	25
2373.28	23
2374.21	26.5
2375.14	23.5
2376.07	28
2377	26.5
2377.93	24
2378.85	23.5
2379.78	24.5
2380.71	22
2381.63	22
2382.56	24.5
2383.49	24.5
2384.42	24
2385.34	22.5
2386.27	25
2387.2	26.5
2388.12	24
2389.05	21.5
2389.97	20
2390.9	24
2391.82	23
2392.75	23.5
2393.68	22
2394.6	24
2395.53	23
2396.45	22.5
2397.38	23
2398.3	25
2399.23	22
2400.15	24.5
2401.07	21.5
2402	29
2402.92	23.5
2403.85	21
2404.77	22
2405.69	25
2406.62	23.5
2407.54	23
2408.46	24.5
2409.39	23.5
2410.31	30
2411.23	24.5
2412.16	23
2413.08	24.5
2414	25.5
2414.92	22
2415.85	24.5
2416.77	23.5
2417.69	20
2418.61	26
2419.53	23
2420.45	25
2421.38	23.5
2422.3	24.5
2423.22	24.5
2424.14	22.5
2425.06	17.5
2425.98	25
2426.9	23
2427.82	28
2428.74	21
2429.66	24
2430.58	24
2431.5	20
2432.42	24
2433.34	25
2434.26	28
2435.18	25
2436.1	27
2437.02	27
2437.94	25.5
2438.85	24.5
2439.77	25.5
2440.69	25.5
2441.61	24
2442.53	23
2443.45	26
2444.36	23
2445.28	27
2446.2	27.5
2447.12	27
2448.03	26
2448.95	23.5
2449.87	25
2450.79	24
2451.7	24
2452.62	25
2453.54	20.5
2454.45	24
2455.37	23
2456.28	21.5
2457.2	23
2458.12	22
2459.03	24.5
2459.95	25.5
2460.86	24
2461.78	25
2462.69	25.5
2463.61	25
2464.52	25.5
2465.44	28
2466.35	25
2467.27	25
2468.18	26.5
2469.1	22.5
2470.01	22
2470.93	24.5
2471.84	25
2472.75	26
2473.67	25
2474.58	26
2475.49	23.5
2476.41	26
2477.32	22.5
2478.23	26.5
2479.15	29.5
2480.06	24.5
2480.97	26
2481.88	20
2482.79	25
2483.71	20
2484.62	23
2485.53	25.5
2486.44	22
2487.35	21.5
2488.26	23.5
2489.18	23
2490.09	22
2491	23.5
2491.91	28.5
2492.82	26.5
2493.73	25.5
2494.64	31
2495.55	24.5
2496.46	21.5
2497.37	24
2498.28	24
2499.19	22.5
2500.1	23.5
2501.01	30
2501.92	23
2502.83	26
2503.74	28.5
2504.65	27
2505.56	28.5
2506.47	26.5
2507.37	26
2508.28	25.5
2509.19	24.5
2510.1	24
2511.01	24
2511.92	21.5
2512.82	24.5
2513.73	26.5
2514.64	22
2515.55	22.5
2516.45	22
2517.36	23.5
2518.27	26
2519.17	22
2520.08	22
2520.99	24
2521.89	23
2522.8	24.5
2523.71	22.5
2524.61	26
2525.52	23.5
2526.42	24
2527.33	23
2528.24	24
2529.14	25.5
2530.05	26.5
2530.95	26.5
2531.86	23.5
2532.76	27
2533.67	24.5
2534.57	24
2535.48	27
2536.38	27
2537.28	26.5
2538.19	25
2539.09	26
2540	20
2540.9	25
2541.8	24.5
2542.71	22.5
2543.61	25.5
2544.51	24
2545.42	22.5
2546.32	26
2547.22	26.5
2548.12	23
2549.03	25.5
2549.93	22.5
2550.83	25.5
2551.73	24
2552.63	24.5
2553.54	23.5
2554.44	27.5
2555.34	24
2556.24	24
2557.14	26
2558.04	20.5
2558.94	24.5
2559.85	23.5
2560.75	23.5
2561.65	24
2562.55	30
2563.45	22.5
2564.35	27
2565.25	26.5
2566.15	25
2567.05	25.5
2567.95	22.5
2568.85	22.5
2569.75	24.5
2570.65	27.5
2571.55	26.5
2572.44	25.5
2573.34	22
2574.24	22
2575.14	21
2576.04	27
2576.94	26
2577.84	25
2578.73	24
2579.63	27.5
2580.53	27
2581.43	23.5
2582.33	25.5
2583.22	23
2584.12	25
2585.02	20.5
2585.91	25
2586.81	24.5
2587.71	23
2588.6	24.5
2589.5	24.5
2590.4	24
2591.29	28.5
2592.19	24
2593.09	24
2593.98	24.5
2594.88	25
2595.77	27
2596.67	25
2597.56	20.5
2598.46	24
2599.35	23
2600.25	21
2601.14	21
2602.04	25.5
2602.93	24
2603.83	26.5
2604.72	22.5
2605.62	24
2606.51	26.5
2607.4	30
2608.3	22.5
2609.19	22
2610.09	26
2610.98	25
2611.87	25
2612.76	25.5
2613.66	21
2614.55	26
2615.44	25.5
2616.34	24.5
2617.23	27
2618.12	23
2619.01	22.5
2619.9	27
2620.8	22.5
2621.69	24
2622.58	25
2623.47	23.5
2624.36	26.5
2625.25	26.5
2626.15	21
2627.04	25.5
2627.93	25
2628.82	22.5
2629.71	25.5
2630.6	22
2631.49	25
2632.38	26.5
2633.27	23
2634.16	25
2635.05	25
2635.94	24
2636.83	26.5
2637.72	27.5
2638.61	25.5
2639.5	25.5
2640.39	25.5
2641.28	26.5
2642.16	21.5
2643.05	25
2643.94	25
2644.83	25.5
2645.72	22
2646.61	22.5
2647.49	19.5
2648.38	22.5
2649.27	25.5
2650.16	28.5
2651.05	23.5
2651.93	23
2652.82	22.5
2653.71	22.5
2654.59	25
2655.48	25
2656.37	25.5
2657.25	27.5
2658.14	25
2659.03	22
2659.91	23
2660.8	24.5
2661.69	23.5
2662.57	24.5
2663.46	20
2664.34	21.5
2665.23	24.5
2666.11	26
2667	25.5
2667.88	25.5
2668.77	19.5
2669.65	23
2670.54	21
2671.42	20.5
2672.31	25.5
2673.19	23
2674.08	23.5
2674.96	27
2675.84	23
2676.73	24.5
2677.61	25.5
2678.49	22
2679.38	21.5
2680.26	26.5
2681.14	25
2682.03	25.5
2682.91	24
2683.79	24.5
2684.68	26
2685.56	21.5
2686.44	30.5
2687.32	20.5
2688.2	25
2689.09	28
2689.97	23
2690.85	24
2691.73	26.5
2692.61	23
2693.49	25
2694.38	23.5
2695.26	26
2696.14	19
2697.02	23
2697.9	23
2698.78	20.5
2699.66	29.5
2700.54	24.5
2701.42	23
2702.3	23
2703.18	27
2704.06	22
2704.94	26
2705.82	28.5
2706.7	22
2707.58	26
2708.46	24.5
2709.34	24
2710.21	25
2711.09	22
2711.97	24
2712.85	26.5
2713.73	22
2714.61	24
2715.49	24.5
2716.36	24.5
2717.24	25.5
2718.12	24.5
2719	30.5
2719.87	24
2720.75	23
2721.63	28
2722.51	26
2723.38	24
2724.26	23
2725.14	21
2726.01	22.5
2726.89	23
2727.77	27
2728.64	21.5
2729.52	24
2730.39	26
2731.27	25
2732.15	24.5
2733.02	30.5
2733.9	22
2734.77	24
2735.65	26
2736.52	23.5
2737.4	26.5
2738.27	25
2739.15	24
2740.02	24
2740.89	30
2741.77	23
2742.64	27
2743.52	23
2744.39	26.5
2745.27	25
2746.14	25
2747.01	24.5
2747.89	23
2748.76	29
2749.63	25.5
2750.51	24.5
2751.38	23
2752.25	25.5
2753.12	25
2754	22.5
2754.87	26.5
2755.74	27.5
2756.61	23.5
2757.48	26.5
2758.36	27.5
2759.23	24.5
2760.1	26.5
2760.97	26.5
2761.84	24
2762.71	20
2763.59	27
2764.46	27.5
2765.33	27
2766.2	24
2767.07	26.5
2767.94	25
2768.81	27
2769.68	26
2770.55	22.5
2771.42	25
2772.29	24
2773.16	26.5
2774.03	27.5
2774.9	24
2775.77	23.5
2776.64	20
2777.51	25
2778.37	22
2779.24	24
2780.11	25.5
2780.98	27
2781.85	29
2782.72	25.5
2783.59	26
2784.45	21.5
2785.32	28
2786.19	25
2787.06	24
2787.92	25.5
2788.79	25.5
2789.66	25
2790.53	24.5
2791.39	28
2792.26	28.5
2793.13	21.5
2793.99	25.5
2794.86	25
2795.73	29
2796.59	26
2797.46	24.5
2798.33	28
2799.19	30.5
2800.06	25.5
2800.92	27
2801.79	28
2802.65	23
2803.52	28.5
2804.39	28
2805.25	27
2806.11	24
2806.98	25.5
2807.84	27.5
2808.71	25
2809.57	33.5
2810.44	28.5
2811.3	27.5
2812.17	27
2813.03	27
2813.89	26
2814.76	24
2815.62	29
2816.49	25
2817.35	25
2818.21	28.5
2819.07	32.5
2819.94	28
2820.8	26.5
2821.66	26.5
2822.53	27
2823.39	24.5
2824.25	25.5
2825.11	26.5
2825.97	22
2826.84	24
2827.7	28
2828.56	22.5
2829.42	26.5
2830.28	23
2831.14	21
2832.01	24.5
2832.87	26.5
2833.73	28
2834.59	28
2835.45	23.5
2836.31	26
2837.17	23.5
2838.03	21.5
2838.89	27
2839.75	24.5
2840.61	28
2841.47	25
2842.33	27.5
2843.19	23.5
2844.05	26
2844.91	24.5
2845.77	27
2846.63	26
2847.48	26
2848.34	22.5
2849.2	26.5
2850.06	21
2850.92	23.5
2851.78	23.5
2852.64	25
2853.49	24
2854.35	32.5
2855.21	26
2856.07	30
2856.93	22
2857.78	25
2858.64	28
2859.5	22.5
2860.35	26
2861.21	26.5
2862.07	24.5
2862.93	31
2863.78	28.5
2864.64	28.5
2865.49	29.5
2866.35	25
2867.21	23.5
2868.06	32
2868.92	23
2869.77	30
2870.63	26
2871.49	29
2872.34	28
2873.2	30
2874.05	31
2874.91	25.5
2875.76	30.5
2876.62	29.5
2877.47	29
2878.32	33
2879.18	28
2880.03	31
2880.89	33
2881.74	28.5
2882.6	30
2883.45	30
2884.3	32.5
2885.16	37.5
2886.01	33.5
2886.86	36.5
2887.72	28
2888.57	37.5
2889.42	34
2890.27	39
2891.13	40
2891.98	40.5
2892.83	39
2893.68	44.5
2894.54	46.5
2895.39	45.5
2896.24	49
2897.09	47.5
2897.94	51.5
2898.8	54
2899.65	57
2900.5	67
2901.35	57
2902.2	67
2903.05	66
2903.9	62
2904.75	67.5
2905.6	72.5
2906.45	70.5
2907.3	75
2908.15	67.5
2909.01	66
2909.85	58.5
2910.7	59.5
2911.55	63.5
2912.4	57.5
2913.25	50
2914.1	49
2914.95	46.5
2915.8	41.5
2916.65	44.5
2917.5	46.5
2918.35	40
2919.2	39.5
2920.04	35.5
2920.89	35.5
2921.74	37
2922.59	38
2923.44	33.5
2924.29	36
2925.13	33.5
2925.98	32
2926.83	31
2927.68	27
2928.52	32.5
2929.37	29.5
2930.22	32
2931.06	28
2931.91	30
2932.76	23.5
2933.6	28
2934.45	29
2935.3	27
2936.14	29
2936.99	28
2937.83	29.5
2938.68	26.5
2939.53	23.5
2940.37	27
2941.22	28.5
2942.06	27
2942.91	25
2943.75	33
2944.6	29.5
2945.44	28
2946.29	28.5
2947.13	25
2947.98	30
2948.82	33
2949.66	31
2950.51	32
2951.35	32
2952.2	34
2953.04	27
2953.88	33
2954.73	32.5
2955.57	37
2956.41	35
2957.26	37
2958.1	40
2958.94	35
2959.79	38.5
2960.63	40
2961.47	37
2962.31	43
2963.15	44
2964	45.5
2964.84	40.5
2965.68	44.5
2966.52	47.5
2967.37	48.5
2968.21	41.5
2969.05	39.5
2969.89	43.5
2970.73	42.5
2971.57	32.5316
2972.41	37.4032
2973.25	36.9828
2974.09	36.0947
2974.93	36.6868
2975.77	36.4337
2976.62	33.4799
2977.46	33.8954
2978.3	34.2991
2979.14	31.0922
2979.98	29.7549
2980.81	31.6672
2981.65	29.9721
2982.49	26.1381
2983.33	24.4109
2984.17	29.1238
2985.01	27.4199
2985.85	25.888
2986.69	27.2153
2987.53	29.3584
2988.37	26.1731
2989.21	24.5634
2990.04	28.2548
2990.88	30.6054
2991.72	26.3991
2992.56	28.1198
2993.4	26.4444
2994.23	24.5594
2995.07	25.4261
2995.91	26.9357
2996.75	24.6109
2997.58	24.3853
2998.42	27.4452
2999.26	23.2854
3000.1	23.3777
3000.93	24.1078
3001.77	22.5911
3002.61	24.682
3003.44	23.9886
3004.28	23.2759
3005.11	25.3982
3005.95	21.9487
3006.79	20.9771
3007.62	24.9643
3008.46	23.6314
3009.29	24.899
3010.13	20.8513
3010.97	22.1055
3011.8	24.6313
3012.64	25.3009
3013.47	25.8323
3014.31	25
3015.14	23.1572
3015.98	21.4131
3016.81	25.5441
3017.64	23.8085
3018.48	24.7912
3019.31	23.2154
3020.15	24.0703
3020.98	22.5671
3021.82	22.0219
3022.65	22.1277
3023.48	21.8668
3024.32	23.0231
3025.15	25.6564
3025.98	23.6711
3026.82	25.2083
3027.65	22.6202
3028.48	23.4901
3029.31	21.1057
3030.15	22.7561
3030.98	23.2389
3031.81	23.4646
3032.64	24.1963
3033.48	23.3242
3034.31	20.9807
3035.14	23.5331
3035.97	23.3099
3036.8	22.1744
3037.64	22.5398
3038.47	21.6227
3039.3	22.128
3040.13	22.4542
3040.96	22.2721
3041.79	22.0489
3042.62	24
3043.45	24.0571
3044.28	23.6807
3045.12	23.0631
3045.95	22.5
3046.78	23.1193
3047.61	23.0329
3048.44	23.4425
3049.27	23.2188
3050.1	23.0168
3050.92	22.7748
3051.75	22.0741
3052.58	23.8939
3053.41	23.7564
3054.24	25.017
3055.07	24.5872
3055.9	24.3843
3056.73	24.6391
3057.26	24
3058.09	24
3058.93	25.5
3059.76	24
3060.59	24
3061.43	21
3062.26	22
3063.09	23.5
3063.92	23.5
3064.76	22
3065.59	25.5
3066.42	24.5
3067.25	22
3068.08	22.5
3068.92	24
3069.75	18.5
3070.58	22
3071.41	29.5
3072.24	23.5
3073.07	25
3073.9	21
3074.73	22
3075.57	18
3076.4	21
3077.23	21
3078.06	24.5
3078.89	21
3079.72	24
3080.55	20.5
3081.38	26
3082.21	26.5
3083.04	28.5
3083.87	23
3084.7	26.5
3085.53	21
3086.36	24
3087.19	25.5
3088.01	27
3088.84	22
3089.67	22.5
3090.5	23
3091.33	24
3092.16	24
3092.99	23
3093.81	26.5
3094.64	23
3095.47	18
3096.3	18.5
3097.13	26.5
3097.95	21
3098.78	24
3099.61	22
3100.44	23
3101.26	22.5
3102.09	19.5
3102.92	24
3103.74	25.5
3104.57	23
3105.4	24
3106.22	22
3107.05	24
3107.88	23.5
3108.7	18.5
3109.53	26
3110.35	22.5
3111.18	25.5
3112.01	21
3112.83	22.5
3113.66	26.5
3114.48	21
3115.31	25
3116.13	22.5
3116.96	23
3117.78	23
3118.61	26
3119.43	24.5
3120.26	27
3121.08	24.5
3121.9	23.5
3122.73	27
3123.55	25
3124.38	20.5
3125.2	26.5
3126.02	22
3126.85	24.5
3127.67	23
3128.49	25.5
3129.32	21.5
3130.14	23.5
3130.96	25
3131.79	27
3132.61	24.5
3133.43	23.5
3134.25	24
3135.08	21.5
3135.9	24.5
3136.72	22
3137.54	21.5
3138.37	22.5
3139.19	26
3140.01	26
3140.83	23.5
3141.65	23
3142.47	22
3143.29	23
3144.12	24.5
3144.94	25.5
3145.76	22.5
3146.58	24
3147.4	22
3148.22	24.5
3149.04	24
3149.86	16.5
3150.68	22.5
3151.5	25
3152.32	21.5
3153.14	19.5
3153.96	25
3154.78	24
3155.6	26
3156.42	25
3157.24	28
3158.06	23
3158.88	21.5
3159.7	22.5
3160.51	20
3161.33	22.5
3162.15	21.5
3162.97	28.5
3163.79	30.5
3164.61	25
3165.42	23
3166.24	25.5
3167.06	21.5
3167.88	21
3168.7	23
3169.51	25
3170.33	23.5
3171.15	23.5
3171.97	23.5
3172.78	23.5
3173.6	22
3174.42	23
3175.23	22
3176.05	23.5
3176.87	25
3177.68	28.5
3178.5	20.5
3179.32	27
3180.13	26
3180.95	27
3181.76	24.5
3182.58	22
3183.4	21
3184.21	26
3185.03	23
3185.84	24
3186.66	26.5
3187.47	23.5
3188.29	24
3189.1	22
3189.92	26
3190.73	21.5
3191.55	25.5
3192.36	26
3193.17	22
3193.99	26.5
3194.8	21.5
3195.62	27
3196.43	29
3197.24	25
3198.06	23.5
3198.87	25
3199.68	21
3200.5	22
3201.31	25
3202.12	26
3202.94	27
3203.75	22
3204.56	22
3205.38	24
3206.19	20
3207	25
3207.81	25
3208.62	23
3209.44	25.5
3210.25	22
3211.06	22.5
3211.87	23
3212.68	24.5
3213.49	23.5
3214.31	26
3215.12	22.5
3215.93	23.5
3216.74	27
3217.55	27
3218.36	23.5
3219.17	20
3219.98	29
3220.79	25
3221.6	22
3222.41	21.5
3223.22	23.5
3224.03	21.5
3224.84	23
3225.65	20
3226.46	25
3227.27	24
3228.08	25
3228.89	23.5
3229.7	26
3230.51	22
3231.32	25
3232.13	26
3232.94	24
3233.74	24
3234.55	26.5
3235.36	21
3236.17	26.5
3236.98	23
3237.78	22
3238.59	22.5
3239.4	24.5
3240.21	25
3241.02	20.5
3241.82	27
3242.63	23.5
3243.44	24
3244.25	26.5
3245.05	22.5
3245.86	23
3246.67	22.5
3247.47	24
3248.28	21.5
3249.09	26
3249.89	25.5
3250.7	23
3251.5	24
3252.31	23.5
3253.12	26.5
3253.92	22
3254.73	25.5
3255.53	23.5
3256.34	23
3257.14	22.5
3257.95	29
3258.75	20.5
3259.56	23
3260.36	23.5
3261.17	22
3261.97	24
3262.78	22
3263.58	20.5
3264.39	19
3265.19	25.5
3265.99	24
3266.8	21
3267.6	23
3268.41	24.5
3269.21	22.5
3270.01	22.5
3270.82	24.5
3271.62	19.5
3272.42	23.5
3273.23	26
3274.03	26
3274.83	22.5
3275.64	26
3276.44	23
3277.24	22.5
3278.04	22.5
3278.85	27.5
3279.65	24.5
3280.45	21
3281.25	25
3282.05	25
3282.85	23.5
3283.66	23.5
3284.46	22
3285.26	24.5
3286.06	23.5
3286.86	27
3287.66	21
3288.46	26.5
3289.27	27
3290.07	25
3290.87	22
3291.67	25
3292.47	27
3293.27	23.5
3294.07	24.5
3294.87	25
3295.67	18
3296.47	25
3297.27	21.5
3298.07	25.5
3298.87	24.5
3299.67	23.5
3300.47	25.5
3301.26	24
3302.06	25.5
3302.86	20.5
3303.66	23.5
3304.46	25
3305.26	22
3306.06	24.5
3306.86	24
3307.65	21
3308.45	24.5
3309.25	25.5
3310.05	27.5
3310.85	28
3311.64	22
3312.44	26
3313.24	29
3314.04	26
3314.83	25
3315.63	21.5
3316.43	22
3317.22	23.5
3318.02	27
3318.82	23.5
3319.62	22.5
3320.41	25
3321.21	26.5
3322	21.5
3322.8	24.5
3323.6	22.5
3324.39	28.5
3325.19	20.5
3325.98	22.5
3326.78	22.5
3327.58	23.5
3328.37	26
3329.17	22.5
3329.96	22.5
3330.76	27
3331.55	27
3332.35	25.5
3333.14	22
3333.94	23
3334.73	28.5
3335.52	25.5
3336.32	23.5
3337.11	27.5
3337.91	22
3338.7	24
3339.5	23.5
3340.29	23
3341.08	23.5
3341.88	21
3342.67	26
3343.46	23.5
3344.26	23
3345.05	22.5
3345.84	25.5
3346.63	25.5
3347.43	22.5
3348.22	24.5
3349.01	23.5
3349.8	24
3350.6	23.5
3351.39	26
3352.18	23
3352.97	25.5
3353.77	29
3354.56	25
3355.35	25.5
3356.14	25
3356.93	18.5
3357.72	30.5
3358.51	23
3359.31	24.5
3360.1	21
3360.89	20.5
3361.68	22
3362.47	26.5
3363.26	23
3364.05	24.5
3364.84	24.5
3365.63	24
3366.42	23
3367.21	22.5
3368	23
3368.79	23.5
3369.58	24.5
3370.37	22
3371.16	23.5
3371.95	24
3372.74	22
3373.53	27.5
3374.32	25
3375.1	25.5
3375.89	27
3376.68	24.5
3377.47	23.5
3378.26	24
3379.05	26
3379.84	26.5
3380.62	27
3381.41	23
3382.2	21.5
3382.99	22.5
3383.78	25
3384.56	28
3385.35	26.5
3386.14	23.5
3386.93	23
3387.71	24.5
3388.5	25
3389.29	20
3390.07	24.5
3390.86	25
3391.65	26.5
3392.43	24.5
3393.22	21.5
3394.01	26
3394.79	25
3395.58	25.5
3396.36	24.5
3397.15	25.5
3397.94	21
3398.72	24
3399.51	27.5
3400.29	26
3401.08	23.5
3401.86	22.5
3402.65	21
3403.43	26.5
3404.22	26
3405	23
3405.79	25
3406.57	23
3407.36	21
3408.14	25.5
3408.93	24.5
3409.71	26
3410.49	19.5
3411.28	23.5
3412.06	20
3412.84	24.5
3413.63	25
3414.41	22.5
3415.2	19.5
3415.98	26
3416.76	22
3417.54	22
3418.33	24
3419.11	27
3419.89	25
3420.68	23
3421.46	20
3422.24	23
3423.02	23
3423.81	25
3424.59	25.5
3425.37	27
3426.15	24
3426.93	24.5
3427.71	25
3428.5	25.5
3429.28	24.5
3430.06	22
3430.84	24.5
3431.62	25
3432.4	24
3433.18	24
3433.96	25
3434.75	23.5
3435.53	27
3436.31	27
3437.09	23.5
3437.87	21.5
3438.65	23
3439.43	19.5
3440.21	21.5
3440.99	24
3441.77	26
3442.55	26
3443.33	25.5
3444.1	21.5
3444.88	26
3445.66	28
3446.44	23.5
3447.22	26.5
3448	27
3448.78	24
3449.56	27
3450.34	20
3451.11	22.5
3451.89	23
3452.67	26
3453.45	21.5
3454.23	22
3455	26.5
3455.78	24
3456.56	24
3457.34	27
3458.11	24.5
3458.89	24.5
3459.67	25
3460.45	21.5
3461.22	23.5
3462	23.5
3462.78	19.5
3463.55	22.5
3464.33	26.5
3465.11	26
3465.88	22
3466.66	24
3467.44	25
3468.21	22
3468.99	22
3469.76	25.5
3470.54	22
3471.32	24
3472.09	26.5
3472.87	23
3473.64	21
3474.42	23
3475.19	21
3475.97	26
3476.74	17.5
3477.52	24
3478.29	21
3479.07	30
3479.84	25
3480.61	22
3481.39	25.5
3482.16	25
3482.94	23
3483.71	27.5
3484.48	20
3485.26	26
3486.03	26
3486.81	25
3487.58	25
3488.35	27
3489.13	25
3489.9	22
3490.67	25.5
3491.44	26.5
3492.22	22
3492.99	24
3493.76	24.5
3494.54	21
3495.31	25
3496.08	22
3496.85	23.5
3497.62	25.5
3498.4	24
3499.17	23
3499.94	24
