#Acq. time (s)=	5
#Accumulations=	5
#Range (cm-¹)=	100...3500
#Windows=	4
#Autofocus=	Off
#AutoExposure=	Off
#Spike filter=	Multiple accum.
#Delay time (s)=	0
#Binning=	1
#Readout mode=	Signal
#DeNoise=	Off
#ICS correction=	Off
#Dark correction=	Off
#Inst. Process=	Off
#Instrument=	LabRAM HR Evol
#Detector=	Syncerity OE
#Objective=	x100_VIS
#Grating=	600 (500nm)
#ND Filter=	25%
#Laser=	633nm_Edge
#Hole=	100.021
#Range=	Visible
#Project=	verificaciones
#Sample=	at3
#Site=	lined
#Title=	bolusat3lined
#Remark=	
#Date=	14.01.2026 13:08
#Acquired=	14.01.2026 13:08:26
100.618	26.5
101.901	32
103.185	38.5
104.468	31.5
105.751	32
107.033	31
108.316	30
109.598	33.5
110.88	28
112.162	30
113.445	27
114.727	31.5
116.008	29
117.289	33.5
118.57	30.5
119.85	28.5
121.13	28
122.411	37
123.691	31.5
124.97	29
126.25	35
127.529	34.5
128.808	31
130.086	33.5
131.364	35
132.643	35
133.921	38.5
135.199	38
136.477	35.5
137.755	37.5
139.032	33.5
140.309	40
141.586	37
142.863	37.5
144.14	38
145.415	42
146.691	37
147.967	41.5
149.243	36.5
150.518	43.5
151.794	35
153.067	40
154.342	41.5
155.617	41.5
156.892	41
158.166	41.5
159.439	36.5
160.712	45.5
161.986	40
163.26	37
164.531	37.5
165.805	42.5
167.077	39.5
168.35	41
169.621	36.5
170.893	41
172.165	40
173.437	45
174.707	41
175.979	40
177.25	34.5
178.519	40
179.79	39
181.061	39
182.33	44.5
183.6	42
184.87	40
186.138	42
187.408	39
188.676	40
189.945	41.5
191.214	42
192.481	38.5
193.75	43
195.016	42.5
196.285	39
197.552	36
198.819	37
200.086	37.5
201.352	35.5
202.619	35.5
203.884	38
205.151	36
206.416	34
207.682	31.5
208.947	35
210.213	35
211.477	29
212.742	36
214.006	32.5
215.271	33.5
216.535	34
217.799	32.5
219.062	39
220.326	34.5
221.589	31.5
222.851	30
224.115	32
225.377	34.5
226.64	34
227.901	30
229.163	31.5
230.425	36
231.686	27.5
232.947	31
234.209	31
235.469	30
236.729	34.5
237.991	29.5
239.25	29
240.51	29.5
241.771	27
243.03	31.5
244.288	32
245.549	26.5
246.807	28
248.065	23.5
249.323	34.5
250.583	29.5
251.84	33.5
253.098	28.5
254.355	26.5
255.613	32
256.87	27
258.127	31.5
259.383	31
260.639	29
261.897	30.5
263.153	32
264.408	32
265.664	32.5
266.919	32
268.174	30
269.43	30
270.685	26
271.939	27.5
273.193	29
274.447	28.5
275.701	29.5
276.955	29.5
278.208	33
279.461	32
280.714	27.5
281.968	31
283.221	28.5
284.473	29.5
285.726	27
286.977	32
288.229	29
289.481	32
290.732	27.5
291.983	28.5
293.234	23.5
294.485	26.5
295.736	27.5
296.986	27
298.236	28.5
299.486	28
300.736	25
301.985	27
303.233	29.5
304.482	28
305.731	31.5
306.98	29.5
308.228	30
309.477	27.5
310.725	27.5
311.973	29.5
313.22	29
314.468	29.5
315.714	28.5
316.961	30.5
318.208	29.5
319.455	24
320.701	28.5
321.947	29.5
323.192	30
324.438	27.5
325.684	28
326.929	26.5
328.175	29
329.418	28
330.663	30
331.908	28
333.152	31
334.395	25
335.639	30
336.883	29.5
338.127	30
339.369	28
340.612	29.5
341.855	26.5
343.097	30.5
344.34	29
345.582	28
346.823	27.5
348.065	27
349.307	33
350.547	27
351.789	30
353.03	29
354.27	32
355.511	28.5
356.75	28
357.991	31
359.231	27.5
360.47	31
361.709	31.5
362.948	27.5
364.187	25.5
365.427	27.5
366.664	29
367.903	30
369.14	29
370.379	28
371.616	26.5
372.854	30
374.091	27.5
375.328	28
376.564	28
377.802	25
379.037	29
380.274	29.5
381.51	33
382.745	28.5
383.981	26
385.216	27.5
386.452	29.5
387.686	31
388.922	31
390.155	30.5
391.389	27.5
392.624	27
393.857	29.5
395.091	27
396.325	29.5
397.558	32
398.79	28.5
400.024	30
401.256	31.5
402.488	28.5
403.721	29.5
404.953	31.5
406.184	27
407.417	29
408.648	31
409.878	32
411.109	24.5
412.341	24.5
413.571	30
414.801	31.5
416.031	25.5
417.262	26
418.491	26
419.72	29.5
420.949	28
422.178	29.5
423.408	27
424.637	25.5
425.865	29.5
427.093	28
428.32	31
429.548	23
430.777	29
432.004	26.5
433.231	30.5
434.458	30.5
435.685	25.5
436.911	27
438.137	28
439.363	27.5
440.589	25
441.815	30
443.042	26
444.267	29.5
445.492	27
446.717	29
447.942	29
449.166	29
450.39	29
451.615	29.5
452.838	28
454.062	29.5
455.286	26
456.509	28
457.732	31
458.955	28
460.178	30
461.399	31.5
462.621	32
463.843	29.5
465.065	28.5
466.287	31.5
467.508	33
468.73	34.5
469.951	36
471.172	34
472.393	36.5
473.612	39
474.832	36.5
476.052	35
477.272	46
478.492	43
479.712	45.5
480.93	47.5
482.149	52.5
483.368	51.5
484.587	54.5
485.806	56
487.023	58
488.241	55.5
489.459	63
490.677	62
491.893	56.5
493.111	57
494.328	52.5
495.543	52.5
496.76	51
497.977	48
499.194	46
500.409	44
501.625	40
502.841	38
504.055	42
505.27	41
506.486	39
507.699	38.5
508.914	37
510.128	34.5
511.342	31.5
512.557	35.5
513.77	36.5
514.984	33.5
516.196	30.5
517.41	34.5
518.623	33
519.835	32
521.048	33
522.259	33.5
523.472	30.5
524.683	33.5
525.895	32.5
527.106	28.5
528.318	26
529.528	30.5
530.74	28
531.949	31.5
533.161	29.5
534.37	31
535.581	30
536.79	30
537.999	33
539.209	28
540.418	26
541.627	32.5
542.835	31
544.043	30.5
545.253	30
546.46	32
547.669	30
548.876	28
550.083	27.5
551.292	29
552.498	27.5
553.705	27.5
554.912	26.5
556.118	29
557.324	29
558.53	28.5
559.737	30
560.942	25.5
562.147	29
563.353	27
564.558	27
565.763	25
566.967	24
568.173	28.5
569.377	25
570.58	26.5
571.784	25.5
572.987	31
574.192	28
575.395	27.5
576.598	26.5
577.8	31.5
579.003	29
580.205	28
581.407	26
582.61	31
583.812	27.5
585.014	27
586.215	28
587.416	26
588.617	25.5
589.818	27
591.018	26
592.219	28.5
593.419	26.5
594.619	25
595.819	27.5
597.02	25.5
598.219	27
599.418	26
600.617	28.5
601.816	28.5
603.015	24.5
604.213	28.5
605.41	30.5
606.608	32
607.806	28
609.004	24.5
610.201	27
611.399	25
612.596	27.5
613.793	28.5
614.989	26.5
616.186	30.5
617.382	27
618.579	26
619.775	30.5
620.969	30
622.165	29.5
623.36	26
624.555	28
625.75	29
626.945	28.5
628.139	28.5
629.333	28.5
630.527	26
631.721	29
632.915	28
634.108	32
635.301	32.5
636.495	29
637.688	26
638.88	30.5
640.072	29.5
641.265	28
642.456	30.5
643.648	32
644.84	30
646.032	27
647.222	29.5
648.414	23.5
649.605	27
650.795	28.5
651.986	27.5
653.177	31
654.366	28
655.556	32.5
656.745	29
657.935	28.5
659.125	28
660.313	29
661.503	29
662.69	27
663.879	29
665.067	30
666.256	27.5
667.444	32.5
668.631	29
669.819	28
671.006	31
672.194	29.5
673.38	28.5
674.567	29
675.753	28.5
676.94	30.5
678.125	34.5
679.311	33
680.497	36.5
681.682	37
682.868	37.5
684.053	32.5
685.238	32
686.422	34
687.606	35
688.792	33
689.975	34.5
691.159	37
692.343	35
693.526	32
694.71	38.5
695.893	36.5
697.076	32
698.259	33
699.441	36
700.623	36
701.805	43
702.988	37.5
704.169	45
705.35	40
706.533	46
707.714	51
708.894	53.5
710.075	44
711.255	47.5
712.436	47.5
713.616	42.5
714.796	39.5
715.975	32
717.155	34.5
718.335	33.5
719.514	32
720.693	32
721.872	27
723.05	28.5
724.228	29.5
725.406	31.5
726.585	33.5
727.763	30.5
728.941	27.5
730.118	32.5
731.295	29.5
732.472	32.5
733.649	26
734.825	28
736.002	28.5
737.178	28
738.354	27
739.53	26
740.705	29.5
741.881	25
743.056	29.5
744.231	26
745.406	31.5
746.581	26
747.755	27
748.93	27.5
750.104	30.5
751.278	25
752.452	29.5
753.625	29
754.799	23
755.972	30
757.144	26
758.317	29
759.489	31
760.662	30.5
761.834	30.5
763.006	28.5
764.178	26
765.349	26.5
766.521	22
767.692	29
768.863	26
770.034	22
771.204	26
772.374	27.5
773.545	28
774.715	24.5
775.885	25.5
777.054	30.5
778.224	26.5
779.393	30.5
780.562	29.5
781.731	30.5
782.9	33.5
784.069	29
785.236	29
786.405	35.5
787.573	31.5
788.74	33
789.908	32
791.074	28.5
792.242	32.5
793.409	32
794.575	30
795.742	30.5
796.909	31.5
798.074	30.5
799.241	29.5
800.406	28.5
801.572	28.5
802.737	26.5
803.902	29
805.067	32
806.232	28
807.396	29
808.561	30
809.725	27.5
810.889	25.5
812.052	27
813.217	30
814.38	26.5
815.544	30.5
816.706	27
817.87	26.5
819.032	23
820.195	29.5
821.357	28
822.518	26
823.681	27.5
824.842	28.5
826.005	26
827.165	26
828.326	32.5
829.488	28.5
830.648	28.5
831.808	25
832.97	26
834.129	29
835.289	27
836.45	24.5
837.609	28
838.768	30.5
839.927	30
841.087	29.5
842.245	31
843.404	27.5
844.562	29
845.721	21
846.879	27.5
848.036	27.5
849.194	27
850.351	26.5
851.509	29
852.666	27
853.823	28
854.979	32
856.136	29
857.292	31.5
858.448	29.5
859.605	30
860.761	28.5
861.916	28
863.071	30
864.226	35
865.381	26
866.536	24.5
867.691	24
868.845	27.5
869.999	31.5
871.153	29.5
872.307	29
873.461	27
874.614	33.5
875.767	31
876.92	27
878.073	27
879.226	28.5
880.379	24
881.531	26
882.683	24.5
883.835	26
884.987	30
886.139	28.5
887.291	28.5
888.442	25.5
889.593	25.5
890.743	21
891.893	22
893.044	26
894.195	24.5
895.345	24
896.495	27.5
897.643	27.5
898.793	28.5
899.943	30.5
901.092	27
902.241	25.5
903.389	27
904.538	32
905.687	27
906.835	24
907.982	28
909.13	26
910.278	27
911.426	27
912.572	25
913.72	23.5
914.867	24
916.013	31.5
917.16	23
918.306	27
919.451	31
920.598	26
921.744	24
922.889	26.5
924.035	32.5
925.18	27
926.324	27
927.47	24.5
928.614	27.5
929.758	24.5
930.902	26.5
932.047	24
933.191	27.5
934.334	27
935.478	24.5
936.621	27.5
937.764	25.5
938.906	27
940.05	26.5
941.192	25
942.335	28
943.476	25
944.619	27.5
945.76	27
946.901	29
948.043	28.5
949.184	25.5
950.326	26
951.466	27
952.606	25
953.747	25.5
954.887	21
956.028	27
957.167	27.5
958.307	31
959.447	26.5
960.586	27.5
961.725	24
962.865	27.5
964.003	25.5
965.141	27.5
966.279	27
967.418	28
968.556	28
969.693	24
970.831	25.5
971.969	24.5
973.106	22.5
974.243	24.5
975.38	23.5
976.517	27.5
977.654	28.5
978.79	27
979.926	26.5
981.061	26
982.197	30
983.334	29
984.469	25
985.604	24
986.739	27.5
987.873	26
989.008	23.5
990.142	24.5
991.277	26
992.411	21
993.544	26.5
994.679	26.5
995.813	28
996.946	25
998.079	27
999.212	26
1000.35	25.5
1001.48	28
1002.61	29.5
1003.74	23
1004.87	25.5
1006.01	28
1007.14	25
1008.27	26.5
1009.4	24.5
1010.53	26
1011.66	25.5
1012.79	25
1013.92	27
1015.05	25
1016.18	27
1017.31	22.5
1018.44	27.5
1019.57	22
1020.7	22.5
1021.83	26
1022.96	27.5
1024.09	22
1025.22	25.5
1026.35	29.5
1027.48	21
1028.6	24
1029.73	23.5
1030.86	29
1031.99	26.5
1033.12	25
1034.24	22
1035.37	24.5
1036.5	26
1037.62	28.5
1038.75	24.5
1039.88	18
1041	26
1042.13	27.5
1043.25	25
1044.38	25
1045.5	25.5
1046.63	27
1047.76	22
1048.88	28
1050	26.5
1051.13	28
1052.25	27
1053.38	23.5
1054.5	22.5
1055.63	25
1056.75	25.5
1057.87	25
1058.99	25
1060.12	26.5
1061.24	26
1062.36	28
1063.49	27
1064.61	29
1065.73	26
1066.85	26
1067.97	23
1069.1	25.5
1070.22	24
1071.34	27
1072.46	30
1073.58	26
1074.7	28.5
1075.82	23
1076.94	27
1078.06	27
1079.18	24.5
1080.3	26.5
1081.42	27
1082.54	26.5
1083.66	27
1084.78	27
1085.9	28
1087.02	22
1088.13	26
1089.25	23
1090.37	27.5
1091.49	25.5
1092.61	26
1093.72	27
1094.84	23
1095.96	24.5
1097.08	27
1098.19	24.5
1099.31	23.5
1100.42	22
1101.54	25.5
1102.66	28.5
1103.77	26.5
1104.89	25
1106	26
1107.12	27
1108.23	24.5
1109.35	24.5
1110.46	21.5
1111.58	25.5
1112.69	26
1113.81	25
1114.92	24
1116.04	29
1117.15	23
1118.26	24
1119.38	23.5
1120.49	26
1121.6	25.5
1122.72	26
1123.83	25.5
1124.94	22.5
1126.05	26
1127.17	24
1128.28	26
1129.39	24
1130.5	26
1131.61	24
1132.72	24
1133.83	23.5
1134.94	25
1136.06	24
1137.17	24
1138.27	25
1139.39	23
1140.5	25.5
1141.61	23.5
1142.72	23.5
1143.82	21.5
1144.93	23.5
1146.04	25
1147.15	23
1148.26	29.5
1149.37	22.5
1150.48	25
1151.58	27
1152.69	24
1153.8	24
1154.91	23.5
1156.02	20
1157.12	25.5
1158.23	25.5
1159.34	23
1160.44	28
1161.55	22
1162.66	24
1163.76	26.5
1164.87	24.5
1165.97	22.5
1167.08	26.5
1168.18	29
1169.29	26
1170.39	24.5
1171.5	24
1172.6	24.5
1173.71	24
1174.81	26
1175.92	18.5
1177.02	23.5
1178.13	26
1179.23	27
1180.33	29
1181.44	28
1182.54	23
1183.64	29
1184.74	25
1185.85	30.5
1186.95	26
1188.05	23
1189.15	27.5
1190.26	21
1191.36	28
1192.46	26
1193.56	24
1194.66	26.469
1195.76	25.9381
1196.86	24.0291
1197.96	24.621
1199.06	24.6855
1200.16	24.9761
1201.26	24.0872
1202.36	24.3877
1203.46	22.4634
1204.56	23.9433
1205.66	24.0586
1206.76	23.3271
1207.86	23.4439
1208.96	21.527
1210.06	25.6388
1211.16	24.9989
1212.25	22.2403
1213.35	23.3386
1214.45	27.55
1215.55	23.724
1216.65	24.9906
1217.74	25.9951
1218.84	24.4036
1219.94	25.3227
1221.03	25.09
1222.13	24.569
1223.23	21.9867
1224.32	24.6079
1225.42	24.6914
1226.52	28.4158
1227.61	25.6448
1228.71	24.5018
1229.8	27.0267
1230.9	23.2287
1231.99	22.8617
1233.09	22.6271
1234.18	25.1708
1235.28	23.417
1236.37	25.214
1237.47	23.5965
1238.56	26.8865
1239.65	23.6041
1240.75	26.5359
1241.84	23.8206
1242.93	21.7351
1244.03	26.7237
1245.12	25.1297
1246.21	26.0777
1247.31	22.2815
1248.4	25.252
1249.49	25.6649
1250.58	25.9974
1251.67	26.368
1252.77	27.9437
1253.86	25.8711
1254.95	25.0177
1256.04	26.1291
1257.13	25.8193
1258.22	28.2033
1259.31	26.4297
1260.4	28.3273
1261.49	27.5462
1262.58	25.3374
1263.67	26.4484
1264.76	28.0761
1265.85	23.909
1266.94	25.0529
1268.03	25.6206
1269.12	26.0759
1270.21	28.0896
1271.3	29.1272
1272.39	25.8629
1273.47	26.0558
1274.56	23.9756
1275.65	24.3161
1276.74	24.3433
1277.83	23.8834
1278.91	23.9588
1280	24.3611
1281.09	23.0473
1282.17	23.34
1283.26	25.6878
1284.35	24.9698
1285.43	24.1789
1286.52	23.8714
1287.61	26.0068
1288.69	22.8386
1289.78	24.1133
1290.86	23.8244
1291.95	25.2058
1293.03	23.8287
1294.12	22.154
1295.2	23.3495
1296.29	24.3617
1297.37	27.0166
1298.46	24.501
1299.54	23.2464
1300.63	23.3538
1301.71	20.9776
1302.79	24.3095
1303.88	25.1362
1304.96	24.3427
1306.04	22.6738
1306.5	21
1307.59	27
1308.68	27
1309.76	27.5
1310.85	24
1311.94	24.5
1313.03	23
1314.11	27
1315.2	23.5
1316.29	24
1317.37	26.5
1318.46	25.5
1319.55	30
1320.63	26.5
1321.72	28
1322.81	27
1323.89	25.5
1324.98	25
1326.06	25
1327.15	26
1328.23	24
1329.32	23.5
1330.4	26.5
1331.49	25
1332.57	21
1333.66	25
1334.74	27
1335.82	25
1336.91	23
1337.99	25.5
1339.07	27.5
1340.16	23.5
1341.24	20.5
1342.32	26.5
1343.4	28.5
1344.49	22
1345.57	23
1346.65	27
1347.73	24
1348.82	22.5
1349.9	25
1350.98	23
1352.06	25
1353.14	26
1354.22	24
1355.3	23.5
1356.38	24.5
1357.46	20.5
1358.54	28.5
1359.62	24
1360.7	24
1361.78	26
1362.86	24
1363.94	26.5
1365.02	25
1366.1	25.5
1367.18	25.5
1368.26	26.5
1369.34	26
1370.41	27
1371.49	25.5
1372.57	26
1373.65	20.5
1374.72	26.5
1375.8	24
1376.88	26
1377.96	24
1379.03	27
1380.11	26
1381.19	28.5
1382.26	25.5
1383.34	25
1384.42	24.5
1385.49	28
1386.57	22.5
1387.64	26.5
1388.72	26
1389.79	24.5
1390.87	22
1391.94	29
1393.02	21
1394.09	25.5
1395.17	23.5
1396.24	23
1397.31	27
1398.39	25.5
1399.46	27.5
1400.54	26.5
1401.61	33
1402.68	32
1403.76	31
1404.83	28.5
1405.9	31
1406.97	27.5
1408.05	28.5
1409.12	26
1410.19	35
1411.26	32
1412.33	26.5
1413.4	33
1414.48	32
1415.55	28
1416.62	29
1417.69	28
1418.76	29
1419.83	29
1420.9	24.5
1421.97	30
1423.04	26
1424.11	28
1425.18	27
1426.25	27
1427.32	25
1428.39	26.5
1429.46	25.5
1430.52	23.5
1431.59	22
1432.66	25
1433.73	26.5
1434.8	26
1435.87	27
1436.93	22.5
1438	27.5
1439.07	23
1440.14	26.5
1441.2	29.5
1442.27	29
1443.34	26.5
1444.4	21.5
1445.47	26.5
1446.54	23
1447.6	26
1448.67	22
1449.73	23
1450.8	24.5
1451.86	29
1452.93	26.5
1453.99	26
1455.06	23.5
1456.12	28
1457.19	25
1458.25	26.5
1459.32	27
1460.38	22.5
1461.45	27.5
1462.51	26
1463.57	27.5
1464.64	26.5
1465.7	26
1466.76	26
1467.82	25.5
1468.89	25.5
1469.95	24
1471.01	26
1472.07	27
1473.14	26
1474.2	27
1475.26	26.5
1476.32	25
1477.38	22
1478.44	29.5
1479.5	21.5
1480.57	24.5
1481.63	27.5
1482.69	24.5
1483.75	23
1484.81	26
1485.87	24.5
1486.93	24.5
1487.99	30.5
1489.05	25
1490.1	27
1491.17	26
1492.22	21.5
1493.28	27
1494.34	27.5
1495.4	26
1496.46	24
1497.52	27
1498.57	24.5
1499.63	27
1500.69	26.5
1501.75	23
1502.8	26
1503.86	27.5
1504.92	27
1505.98	28
1507.03	23.5
1508.09	22.5
1509.15	25.5
1510.2	25
1511.26	26
1512.31	26.5
1513.37	27.5
1514.42	27.5
1515.48	28.5
1516.53	26
1517.59	25.5
1518.64	23
1519.7	31
1520.75	29
1521.81	19
1522.86	28.5
1523.92	27
1524.97	25.5
1526.02	26
1527.08	23
1528.13	28.5
1529.18	30
1530.24	26.5
1531.29	29
1532.34	25
1533.39	25.5
1534.45	22.5
1535.5	27
1536.55	26.5
1537.6	26
1538.65	24.5
1539.71	27
1540.76	16
1541.81	28.5
1542.86	21
1543.91	24
1544.96	24.5
1546.01	28.5
1547.06	27
1548.11	25
1549.16	24.5
1550.21	26.5
1551.26	23
1552.31	29
1553.36	23.5
1554.41	27
1555.46	26
1556.51	23
1557.56	25
1558.6	26.5
1559.65	22
1560.7	24
1561.75	25
1562.8	21.5
1563.84	27.5
1564.89	24
1565.94	24.5
1566.99	23.5
1568.03	26.5
1569.08	29
1570.13	27
1571.17	28
1572.22	25
1573.27	26.5
1574.31	26
1575.36	22
1576.4	29
1577.45	29
1578.5	23.5
1579.54	26.5
1580.59	27
1581.63	26
1582.68	25.5
1583.72	26.5
1584.76	27.5
1585.81	21
1586.85	26.5
1587.9	26.5
1588.94	24.5
1589.98	24
1591.03	26
1592.07	28.5
1593.11	25.5
1594.16	24
1595.2	27
1596.24	23
1597.29	25.5
1598.33	28.5
1599.37	25.5
1600.41	25
1601.45	22
1602.49	23.5
1603.54	27.5
1604.58	26
1605.62	27.5
1606.66	26.5
1607.7	21
1608.74	24.5
1609.78	23.5
1610.82	29
1611.86	25.5
1612.9	21
1613.94	25.5
1614.98	28.5
1616.02	26.5
1617.06	24.5
1618.1	22
1619.14	20.5
1620.18	25.5
1621.22	26
1622.25	23.5
1623.29	24.5
1624.33	29
1625.37	22.5
1626.41	26
1627.45	23.5
1628.48	23.5
1629.52	26.5
1630.56	30
1631.59	22
1632.63	25.5
1633.67	23.5
1634.7	29
1635.74	22
1636.78	28
1637.81	25
1638.85	30
1639.88	27
1640.92	26
1641.96	26.5
1642.99	27
1644.03	27
1645.06	24.5
1646.1	26
1647.13	26.5
1648.17	28.5
1649.2	24
1650.23	22.5
1651.27	29
1652.3	30
1653.33	25
1654.37	29.5
1655.4	25.5
1656.44	24
1657.47	22
1658.5	21
1659.53	25
1660.57	28
1661.6	27.5
1662.63	28.5
1663.66	22.5
1664.69	24
1665.73	26.5
1666.76	26
1667.79	24
1668.82	28.5
1669.85	23.5
1670.88	23.5
1671.91	27.5
1672.94	25
1673.97	27.5
1675.01	22
1676.03	28.5
1677.07	28
1678.1	22.5
1679.12	23
1680.15	30
1681.18	28.5
1682.21	26
1683.24	29
1684.27	26
1685.3	28
1686.33	21
1687.36	24.5
1688.38	28
1689.41	28
1690.44	24
1691.47	25.5
1692.5	26.5
1693.52	27.5
1694.55	26
1695.58	27
1696.6	27.5
1697.63	27
1698.66	25
1699.68	28
1700.71	24
1701.74	29
1702.76	25.5
1703.79	23.5
1704.81	23
1705.84	25.5
1706.86	25.5
1707.89	26
1708.91	24.5
1709.94	23
1710.96	28.5
1711.99	25
1713.01	25.5
1714.04	26
1715.06	28
1716.08	29
1717.11	25
1718.13	28.5
1719.16	25
1720.18	25.5
1721.2	29
1722.22	25.5
1723.25	24.5
1724.27	26
1725.29	28.5
1726.31	25
1727.34	27.5
1728.36	24.5
1729.38	29
1730.4	27
1731.42	25
1732.44	26.5
1733.47	25.5
1734.49	24.5
1735.51	24
1736.53	25.5
1737.55	27.5
1738.57	28
1739.59	23
1740.61	26.5
1741.63	27
1742.65	27
1743.67	26
1744.69	27
1745.71	29.5
1746.73	28.5
1747.75	25
1748.76	28
1749.78	27
1750.8	27
1751.82	27
1752.84	24
1753.86	24.5
1754.87	27
1755.89	24.5
1756.91	26.5
1757.93	24
1758.94	29
1759.96	27
1760.98	27.5
1761.99	24.5
1763.01	25
1764.03	22.5
1765.04	27.5
1766.06	20
1767.08	27.5
1768.09	24.5
1769.11	25.5
1770.12	24
1771.14	25
1772.15	25.5
1773.17	26
1774.18	27.5
1775.2	25
1776.21	26.5
1777.23	24
1778.24	22
1779.25	25
1780.27	29
1781.28	28
1782.3	22.5
1783.31	23
1784.32	24.5
1785.34	26
1786.35	25
1787.36	25
1788.37	23
1789.39	26.5
1790.4	25.5
1791.41	26.5
1792.42	24
1793.43	24.5
1794.45	24.5
1795.46	23
1796.47	28.5
1797.48	25.5
1798.49	23.5
1799.5	26
1800.51	27.5
1801.52	24
1802.53	26
1803.54	27
1804.55	25.5
1805.56	26
1806.57	26.5
1807.58	25
1808.59	26
1809.6	24.5
1810.61	26.5
1811.62	26
1812.63	25.5
1813.64	30
1814.65	25.5
1815.66	22.5
1816.66	26
1817.67	24
1818.68	26
1819.69	23.5
1820.69	28.5
1821.7	22
1822.71	24.5
1823.72	27.5
1824.72	25
1825.73	26.5
1826.74	20.5
1827.74	23.5
1828.75	27
1829.76	28.5
1830.76	25
1831.77	25
1832.77	24.5
1833.78	21
1834.79	26.5
1835.79	29
1836.8	26
1837.8	26.5
1838.81	24
1839.81	26
1840.81	25.5
1841.82	24.5
1842.82	27
1843.83	25.5
1844.83	20.5
1845.83	23
1846.84	23.5
1847.84	30
1848.84	30.5
1849.85	25
1850.85	24
1851.85	28
1852.86	25.5
1853.86	25
1854.86	23
1855.86	27
1856.86	29.5
1857.87	25
1858.87	25.5
1859.87	28.5
1860.87	22.5
1861.87	25
1862.87	21.5
1863.88	27.5
1864.88	28
1865.88	25.5
1866.88	23.5
1867.88	22
1868.88	22
1869.88	27
1870.88	25
1871.88	24
1872.88	28
1873.88	27
1874.87	25
1875.87	26.5
1876.87	25.5
1877.87	24.5
1878.87	26
1879.87	22
1880.87	26
1881.86	23
1882.86	25.5
1883.86	23
1884.86	26
1885.86	22.5
1886.85	23.5
1887.85	29.5
1888.85	23.5
1889.84	23
1890.84	25
1891.84	22
1892.83	25
1893.83	25
1894.83	26.5
1895.82	28.5
1896.82	21
1897.81	24
1898.81	29
1899.81	26.5
1900.8	26
1901.8	27.5
1902.79	24
1903.78	28.5
1904.78	25.5
1905.77	25
1906.77	24
1907.76	27
1908.76	24
1909.75	22
1910.74	23.5
1911.74	22
1912.73	24.5
1913.72	21
1914.72	28
1915.71	24.5
1916.7	25.5
1917.7	26
1918.69	26
1919.68	25.5
1920.67	27
1921.66	22
1922.66	23.5
1923.65	30
1924.64	24
1925.63	22.5
1926.62	28
1927.61	26.5
1928.6	25
1929.59	22
1930.59	25.5
1931.58	27.5
1932.57	25
1933.56	22
1934.55	24
1935.54	19.5
1936.53	25
1937.52	23
1938.51	25.5
1939.49	25.5
1940.48	26.5
1941.47	26.5
1942.46	25.5
1943.45	26
1944.44	26.5
1945.43	27
1946.42	24.5
1947.4	25
1948.39	25.5
1949.38	26
1950.37	23
1951.35	24.5
1952.34	27.5
1953.33	24.5
1954.31	27
1955.3	25
1956.29	23.5
1957.27	25.5
1958.26	23.5
1959.25	24
1960.23	26.5
1961.22	24
1962.21	24
1963.19	25
1964.18	25.5
1965.16	23.5
1966.15	26
1967.13	26.5
1968.12	24.5
1969.1	20.5
1970.09	28
1971.07	25.5
1972.05	22.5
1973.04	23
1974.02	26.5
1975.01	21
1975.99	21.5
1976.97	24
1977.96	23
1978.94	27
1979.92	24
1980.91	27.5
1981.89	24
1982.87	25.5
1983.85	28.5
1984.84	23
1985.82	27
1986.8	24
1987.78	24
1988.76	25.5
1989.74	24
1990.73	23
1991.71	22
1992.69	20
1993.67	22
1994.65	28
1995.63	24
1996.61	22
1997.59	20
1998.57	25.5
1999.55	24.5
2000.53	24.5
2001.51	24
2002.49	23
2003.47	22
2004.45	25
2005.43	26
2006.41	25.5
2007.39	24
2008.37	24
2009.34	16.5
2010.32	23
2011.3	23
2012.28	28
2013.26	24
2014.23	24.5
2015.21	22.5
2016.19	25.5
2017.17	19.5
2018.14	23.5
2019.12	23
2020.1	24.5
2021.07	23
2022.05	26
2023.03	20
2024	24.5
2024.98	24
2025.96	27
2026.93	23
2027.91	20
2028.88	25.5
2029.86	26.5
2030.83	26
2031.81	27
2032.78	26.5
2033.76	24.5
2034.73	23
2035.71	25
2036.68	26.5
2037.66	23
2038.63	23
2039.6	21
2040.58	22
2041.55	25
2042.52	25.5
2043.5	22.5
2044.47	24
2045.44	24
2046.42	22.5
2047.39	21
2048.36	26
2049.33	22.5
2050.31	20
2051.28	21
2052.25	27.5
2053.22	21.5
2054.19	24.5
2055.17	25
2056.14	27.5
2057.11	21
2058.08	19.5
2059.05	23.5
2060.02	26
2060.99	25.5
2061.96	23
2062.93	20.5
2063.9	24
2064.87	22
2065.84	23.5
2066.81	24
2067.78	20
2068.75	24
2069.72	21.5
2070.69	25.5
2071.66	20
2072.63	25.5
2073.6	24.5
2074.56	26
2075.53	26
2076.5	23
2077.47	22.5
2078.44	19
2079.4	23.5
2080.37	26
2081.34	25
2082.31	24
2083.27	25
2084.24	23.5
2085.21	19.5
2086.18	22
2087.14	23
2088.11	22
2089.07	17.5
2090.04	22.5
2091.01	23.5
2091.97	23.5
2092.94	24.5
2093.9	21.5
2094.87	19
2095.83	21.5
2096.8	24
2097.76	25
2098.73	26
2099.69	26.5
2100.66	23
2101.62	25
2102.59	23
2103.55	27
2104.52	21
2105.48	21
2106.44	25.5
2107.41	24.5
2108.37	23
2109.33	24
2110.3	26
2111.26	24.5
2112.22	22
2113.18	18.5
2114.15	21
2115.11	25
2116.07	26.5
2117.03	26
2118	23
2118.96	27
2119.92	26
2120.88	23
2121.84	25.5
2122.8	25
2123.76	23
2124.72	23
2125.68	24
2126.65	25
2127.61	19
2128.57	22
2129.53	23.5
2130.49	23
2131.45	27
2132.41	24
2133.36	23.5
2134.32	28
2135.28	27
2136.24	22
2137.2	20
2138.16	24
2139.12	20
2140.08	20
2141.04	25
2141.99	23.5
2142.95	22.4898
2143.91	26.8956
2144.87	23.5107
2145.83	24.9071
2146.78	21.9563
2147.74	23.8875
2148.7	24.872
2149.66	25.81
2150.61	25.4001
2151.57	22.4239
2152.53	21.17
2153.48	23.2414
2154.44	22.7123
2155.4	23.1663
2156.35	23.8168
2157.31	23.8264
2158.26	21.6844
2159.22	24.2199
2160.17	22.1685
2161.13	21.4053
2162.08	24.1759
2163.04	24.0318
2163.99	23.8781
2164.95	24.1097
2165.9	22.9336
2166.86	23.3526
2167.81	22.323
2168.77	23.9683
2169.72	22.4913
2170.67	24.6255
2171.63	24.4531
2172.58	22.4428
2173.54	23.2276
2174.49	23.7752
2175.44	22.4672
2176.39	22.4533
2177.35	21.889
2178.3	22.3429
2179.25	20.8188
2180.2	21.8739
2181.16	22.2694
2182.11	22.929
2183.06	22.552
2184.01	22.4707
2184.96	25.9433
2185.92	22.13
2186.87	22.8789
2187.82	21.211
2188.77	24.5128
2189.72	23.0775
2190.67	25.3678
2191.62	21.5932
2192.57	22.6024
2193.52	24.6716
2194.47	23.1481
2195.42	21.877
2196.37	21.9967
2197.32	22.6788
2198.27	20.5252
2199.22	20.2281
2200.17	22.6099
2201.12	19.149
2202.07	22.4545
2203.02	22.5214
2203.97	24.0828
2204.92	23.0123
2205.87	21.723
2206.81	22.1663
2207.76	24.1797
2208.71	24.934
2209.66	23.2994
2210.61	23.8393
2211.55	23.3519
2212.5	23.8916
2213.45	19.8532
2214.4	22.4281
2215.34	20.4269
2216.29	23.0953
2217.24	21.4162
2218.18	20.3715
2219.13	25.2306
2220.08	22.1746
2221.02	22.7607
2221.97	19.1468
2222.92	22.493
2223.86	22.776
2224.81	20.4411
2225.75	20.0043
2226.7	22.3005
2227.64	23.3728
2228.59	19.7097
2229.53	23.1332
2230.48	20.0267
2231.42	22.2978
2232.37	24.2758
2233.31	19.7489
2234.26	24.2053
2235.2	23.8215
2236.14	27.0532
2237.09	21.9682
2238.03	24.0716
2238.97	23.6392
2239.92	24.3635
2240.05	24.5
2241	25
2241.95	22.5
2242.89	25
2243.84	18
2244.79	26
2245.74	23
2246.68	22
2247.63	25
2248.58	18
2249.53	22
2250.47	25.5
2251.42	24
2252.36	22.5
2253.31	22.5
2254.26	25.5
2255.2	27
2256.15	25
2257.1	21
2258.04	24
2258.99	24
2259.93	22
2260.88	23.5
2261.82	26
2262.77	19.5
2263.71	24.5
2264.66	23
2265.6	21.5
2266.55	23
2267.49	23
2268.43	24
2269.38	24.5
2270.32	21.5
2271.26	24
2272.21	21.5
2273.15	24
2274.09	22.5
2275.04	22.5
2275.98	20
2276.92	24
2277.87	21.5
2278.81	20.5
2279.75	22
2280.69	24
2281.64	22
2282.58	20.5
2283.52	19
2284.46	25
2285.4	21
2286.34	24
2287.29	25.5
2288.23	20
2289.17	17
2290.11	23
2291.05	24.5
2291.99	26.5
2292.93	20
2293.87	24.5
2294.81	22
2295.75	25
2296.69	25.5
2297.63	25
2298.57	22.5
2299.51	22.5
2300.45	24
2301.39	23
2302.33	23.5
2303.27	26
2304.2	20
2305.14	23.5
2306.08	22.5
2307.02	22
2307.96	25.5
2308.9	24.5
2309.83	26.5
2310.77	24
2311.71	26.5
2312.65	26
2313.58	23.5
2314.52	24.5
2315.46	19.5
2316.39	24
2317.33	19.5
2318.27	25.5
2319.21	19.5
2320.14	23
2321.08	27.5
2322.01	23
2322.95	25
2323.89	23
2324.82	26.5
2325.76	22
2326.69	20
2327.63	23.5
2328.56	24
2329.5	22.5
2330.43	23.5
2331.37	21
2332.3	24
2333.24	23
2334.17	27
2335.1	25
2336.04	25.5
2336.97	24
2337.91	25.5
2338.84	24
2339.77	21
2340.71	21.5
2341.64	23.5
2342.57	23
2343.51	27.5
2344.44	21.5
2345.37	24
2346.3	20.5
2347.24	22
2348.17	20
2349.1	27
2350.03	26.5
2350.96	22
2351.89	20.5
2352.83	18
2353.76	23
2354.69	26
2355.62	23
2356.55	28
2357.48	24
2358.41	25
2359.34	23
2360.27	25
2361.2	23
2362.13	24.5
2363.06	23
2363.99	26
2364.92	26
2365.85	27
2366.78	26
2367.71	26.5
2368.64	20.5
2369.57	20
2370.5	24
2371.43	20
2372.36	26
2373.28	28.5
2374.21	20
2375.14	23
2376.07	19.5
2377	21.5
2377.93	26.5
2378.85	24
2379.78	27
2380.71	23
2381.63	24.5
2382.56	22
2383.49	25
2384.42	24
2385.34	25
2386.27	26.5
2387.2	27.5
2388.12	27.5
2389.05	26.5
2389.97	20.5
2390.9	22
2391.82	21
2392.75	26
2393.68	22.5
2394.6	22.5
2395.53	24.5
2396.45	26.5
2397.38	25
2398.3	25.5
2399.23	23
2400.15	23.5
2401.07	23
2402	26
2402.92	22.5
2403.85	26.5
2404.77	25.5
2405.69	26.5
2406.62	24
2407.54	24
2408.46	23.5
2409.39	24
2410.31	21
2411.23	22
2412.16	26
2413.08	24.5
2414	26
2414.92	23
2415.85	25.5
2416.77	21.5
2417.69	26
2418.61	24.5
2419.53	25.5
2420.45	23
2421.38	19.5
2422.3	23.5
2423.22	24
2424.14	22
2425.06	22.5
2425.98	19
2426.9	23.5
2427.82	22.5
2428.74	24
2429.66	21.5
2430.58	25.5
2431.5	23.5
2432.42	25
2433.34	25
2434.26	25.5
2435.18	23
2436.1	27
2437.02	25.5
2437.94	24.5
2438.85	24
2439.77	23
2440.69	21.5
2441.61	26.5
2442.53	25.5
2443.45	21.5
2444.36	24
2445.28	25
2446.2	22
2447.12	22.5
2448.03	23.5
2448.95	22.5
2449.87	25
2450.79	22.5
2451.7	30
2452.62	21.5
2453.54	25
2454.45	24.5
2455.37	23
2456.28	21
2457.2	20.5
2458.12	23
2459.03	22
2459.95	22.5
2460.86	24
2461.78	24.5
2462.69	24
2463.61	21.5
2464.52	27
2465.44	26.5
2466.35	27
2467.27	29
2468.18	29
2469.1	22
2470.01	25
2470.93	25
2471.84	20
2472.75	27.5
2473.67	23
2474.58	20
2475.49	21
2476.41	22.5
2477.32	22
2478.23	25
2479.15	25.5
2480.06	26
2480.97	25
2481.88	23.5
2482.79	27
2483.71	24
2484.62	25
2485.53	25
2486.44	25
2487.35	26.5
2488.26	25.5
2489.18	24
2490.09	21.5
2491	21
2491.91	25.5
2492.82	24
2493.73	23.5
2494.64	26
2495.55	22
2496.46	24.5
2497.37	25.5
2498.28	27
2499.19	24
2500.1	23.5
2501.01	24.5
2501.92	22.5
2502.83	22.5
2503.74	24
2504.65	23.5
2505.56	24
2506.47	25
2507.37	24.5
2508.28	25
2509.19	25.5
2510.1	22
2511.01	24.5
2511.92	26.5
2512.82	22.5
2513.73	25
2514.64	27
2515.55	22
2516.45	22.5
2517.36	27
2518.27	24.5
2519.17	25.5
2520.08	23.5
2520.99	21.5
2521.89	25
2522.8	23
2523.71	25.5
2524.61	24
2525.52	21.5
2526.42	23.5
2527.33	28
2528.24	22
2529.14	21
2530.05	28
2530.95	23.5
2531.86	27.5
2532.76	25.5
2533.67	24
2534.57	24
2535.48	22
2536.38	21
2537.28	26
2538.19	26.5
2539.09	20.5
2540	24
2540.9	23
2541.8	27
2542.71	24
2543.61	21.5
2544.51	20.5
2545.42	22
2546.32	23
2547.22	26
2548.12	22.5
2549.03	27
2549.93	20.5
2550.83	21.5
2551.73	24
2552.63	23
2553.54	23
2554.44	23.5
2555.34	27
2556.24	25
2557.14	22.5
2558.04	23
2558.94	25
2559.85	21
2560.75	24
2561.65	26.5
2562.55	24.5
2563.45	24.5
2564.35	25
2565.25	30
2566.15	22
2567.05	22.5
2567.95	23.5
2568.85	25.5
2569.75	22.5
2570.65	24.5
2571.55	23.5
2572.44	24
2573.34	20
2574.24	25.5
2575.14	25
2576.04	25.5
2576.94	26
2577.84	22.5
2578.73	22
2579.63	28
2580.53	24.5
2581.43	24.5
2582.33	23
2583.22	24.5
2584.12	24.5
2585.02	27.5
2585.91	23.5
2586.81	25.5
2587.71	19.5
2588.6	24.5
2589.5	24.5
2590.4	27.5
2591.29	20.5
2592.19	23
2593.09	23
2593.98	25
2594.88	25.5
2595.77	25.5
2596.67	23
2597.56	26.5
2598.46	25
2599.35	26
2600.25	24
2601.14	23
2602.04	25
2602.93	24
2603.83	24
2604.72	22
2605.62	27
2606.51	25.5
2607.4	26
2608.3	24
2609.19	25
2610.09	27
2610.98	22.5
2611.87	26
2612.76	24
2613.66	25
2614.55	26.5
2615.44	26.5
2616.34	24
2617.23	24
2618.12	25
2619.01	25
2619.9	27
2620.8	25.5
2621.69	27
2622.58	23
2623.47	28.5
2624.36	21.5
2625.25	25
2626.15	24.5
2627.04	22.5
2627.93	25.5
2628.82	24.5
2629.71	29
2630.6	23.5
2631.49	25.5
2632.38	25
2633.27	24
2634.16	23
2635.05	25
2635.94	29.5
2636.83	24.5
2637.72	24
2638.61	25
2639.5	25
2640.39	24
2641.28	24.5
2642.16	26.5
2643.05	22
2643.94	26.5
2644.83	23.5
2645.72	23.5
2646.61	24.5
2647.49	24.5
2648.38	26
2649.27	27
2650.16	25
2651.05	25.5
2651.93	27
2652.82	24
2653.71	20.5
2654.59	25
2655.48	22.5
2656.37	24
2657.25	25.5
2658.14	25.5
2659.03	22
2659.91	25
2660.8	27.5
2661.69	21.5
2662.57	19
2663.46	21
2664.34	20
2665.23	25
2666.11	23.5
2667	25.5
2667.88	22
2668.77	25
2669.65	21
2670.54	24
2671.42	20.5
2672.31	22
2673.19	19
2674.08	22
2674.96	27.5
2675.84	23
2676.73	26.5
2677.61	21.5
2678.49	26
2679.38	24.5
2680.26	27
2681.14	25
2682.03	24
2682.91	27.5
2683.79	27.5
2684.68	23.5
2685.56	29
2686.44	21
2687.32	22.5
2688.2	25.5
2689.09	25
2689.97	24
2690.85	26
2691.73	25.5
2692.61	24.5
2693.49	23
2694.38	24
2695.26	27.5
2696.14	22
2697.02	22
2697.9	25
2698.78	25.5
2699.66	26.5
2700.54	23.5
2701.42	25
2702.3	20
2703.18	23.5
2704.06	25
2704.94	28.5
2705.82	27.5
2706.7	24.5
2707.58	23.5
2708.46	24
2709.34	26
2710.21	27
2711.09	20
2711.97	25.5
2712.85	23.5
2713.73	24.5
2714.61	27.5
2715.49	24.5
2716.36	20
2717.24	22
2718.12	26
2719	31
2719.87	26
2720.75	27
2721.63	24
2722.51	23.5
2723.38	24.5
2724.26	28
2725.14	28
2726.01	18.5
2726.89	22
2727.77	26
2728.64	25.5
2729.52	23
2730.39	27
2731.27	20.5
2732.15	25.5
2733.02	27
2733.9	22.5
2734.77	26
2735.65	23.5
2736.52	27
2737.4	22
2738.27	24.5
2739.15	25
2740.02	23
2740.89	26.5
2741.77	23.5
2742.64	22.5
2743.52	24
2744.39	25
2745.27	26.5
2746.14	23
2747.01	27
2747.89	27
2748.76	24.5
2749.63	28.5
2750.51	23.5
2751.38	26
2752.25	24
2753.12	24
2754	28
2754.87	25
2755.74	22
2756.61	23
2757.48	25.5
2758.36	25
2759.23	26
2760.1	24.5
2760.97	26
2761.84	21.5
2762.71	22.5
2763.59	24.5
2764.46	25
2765.33	22
2766.2	25
2767.07	25.5
2767.94	23
2768.81	26.5
2769.68	23
2770.55	26
2771.42	24.5
2772.29	27
2773.16	22.5
2774.03	27.5
2774.9	24
2775.77	22
2776.64	25
2777.51	26.5
2778.37	24.5
2779.24	21.5
2780.11	28
2780.98	24.5
2781.85	25
2782.72	25
2783.59	23.5
2784.45	28.5
2785.32	24.5
2786.19	26.5
2787.06	22
2787.92	24.5
2788.79	22
2789.66	25
2790.53	24.5
2791.39	27.5
2792.26	26.5
2793.13	21.5
2793.99	25.5
2794.86	26
2795.73	27
2796.59	26
2797.46	27
2798.33	27.5
2799.19	26
2800.06	24.5
2800.92	24.75
2801.79	25
2802.65	27
2803.52	25
2804.39	27.5
2805.25	23.5
2806.11	27.5
2806.98	25
2807.84	25
2808.71	28.5
2809.57	27
2810.44	21.5
2811.3	24.5
2812.17	27
2813.03	26
2813.89	30.5
2814.76	26
2815.62	25
2816.49	24
2817.35	27
2818.21	23.5
2819.07	26
2819.94	24.5
2820.8	23.5
2821.66	21.5
2822.53	22
2823.39	24
2824.25	23
2825.11	24.5
2825.97	24
2826.84	24
2827.7	24
2828.56	23
2829.42	26.5
2830.28	21.5
2831.14	26
2832.01	21
2832.87	25
2833.73	26
2834.59	27.5
2835.45	27
2836.31	25.5
2837.17	28
2838.03	26
2838.89	26.5
2839.75	26
2840.61	24
2841.47	29
2842.33	23.5
2843.19	28.5
2844.05	27
2844.91	27
2845.77	27
2846.63	27
2847.48	28.5
2848.34	26
2849.2	22
2850.06	28
2850.92	25.5
2851.78	25.5
2852.64	24.5
2853.49	26.5
2854.35	22
2855.21	23.5
2856.07	28.5
2856.93	26.5
2857.78	24.5
2858.64	26
2859.5	26
2860.35	23
2861.21	25.5
2862.07	24
2862.93	24
2863.78	23.5
2864.64	26.5
2865.49	25
2866.35	26
2867.21	28
2868.06	25.5
2868.92	28
2869.77	27.5
2870.63	24
2871.49	30.5
2872.34	28.5
2873.2	30.5
2874.05	27.5
2874.91	32
2875.76	28
2876.62	29.5
2877.47	27
2878.32	29.5
2879.18	30
2880.03	27
2880.89	28.5
2881.74	23
2882.6	35
2883.45	33
2884.3	32
2885.16	35
2886.01	31.5
2886.86	35
2887.72	34
2888.57	37
2889.42	33.5
2890.27	39.5
2891.13	37
2891.98	44.5
2892.83	43
2893.68	40.5
2894.54	42
2895.39	44
2896.24	49
2897.09	50
2897.94	48.5
2898.8	52
2899.65	54.5
2900.5	56.5
2901.35	61.5
2902.2	62.5
2903.05	61
2903.9	61
2904.75	62.5
2905.6	62.5
2906.45	67.5
2907.3	63
2908.15	64
2909.01	67
2909.85	62
2910.7	62.5
2911.55	58.5
2912.4	51
2913.25	44.5
2914.1	49
2914.95	46.5
2915.8	41.5
2916.65	43.5
2917.5	40.5
2918.35	36
2919.2	37
2920.04	35
2920.89	35
2921.74	38.5
2922.59	37.5
2923.44	33.5
2924.29	28.5
2925.13	27
2925.98	32.5
2926.83	28
2927.68	31.5
2928.52	27
2929.37	33
2930.22	28
2931.06	34.5
2931.91	25.5
2932.76	27.5
2933.6	24.5
2934.45	30
2935.3	27.5
2936.14	27.5
2936.99	27
2937.83	29
2938.68	25
2939.53	29.5
2940.37	28.5
2941.22	26
2942.06	25
2942.91	24
2943.75	25
2944.6	27
2945.44	28.5
2946.29	28
2947.13	25
2947.98	30
2948.82	29
2949.66	26.5
2950.51	29
2951.35	34
2952.2	29.5
2953.04	28
2953.88	30.5
2954.73	34.5
2955.57	36
2956.41	34
2957.26	32
2958.1	37
2958.94	37
2959.79	43
2960.63	41.5
2961.47	44
2962.31	39
2963.15	43
2964	48
2964.84	42
2965.68	44
2966.52	39.5
2967.37	42.5
2968.21	38.5
2969.05	36
2969.89	44
2970.73	35
2971.57	38.966
2972.41	37.4594
2973.25	37.9817
2974.09	35.4008
2974.93	34.0097
2975.77	33.0565
2976.62	38.4627
2977.46	32.1907
2978.3	28.1075
2979.14	32.733
2979.98	29.5592
2980.81	32.8242
2981.65	29.7197
2982.49	28.6344
2983.33	28.7872
2984.17	29.2358
2985.01	28.1236
2985.85	25.8759
2986.69	25.6006
2987.53	24.1909
2988.37	27.5199
2989.21	28.5393
2990.04	28.0139
2990.88	26.4793
2991.72	26.5737
2992.56	24.6051
2993.4	27.2866
2994.23	28.2555
2995.07	25.5769
2995.91	25.7958
2996.75	25.3511
2997.58	26.1213
2998.42	23.9098
2999.26	23.0702
3000.1	23.4227
3000.93	23.2258
3001.77	23.6737
3002.61	23.0519
3003.44	23.1446
3004.28	22.8709
3005.11	22.273
3005.95	22.7528
3006.79	24.1546
3007.62	25.1453
3008.46	19.6621
3009.29	24.1165
3010.13	22.8234
3010.97	21.9219
3011.8	22.1318
3012.64	23.9588
3013.47	23.7997
3014.31	24.3404
3015.14	22.7109
3015.98	22.9802
3016.81	24.364
3017.64	23.3085
3018.48	25.9815
3019.31	22.6978
3020.15	22.615
3020.98	21.2112
3021.82	23.4757
3022.65	22.6003
3023.48	24.4307
3024.32	24.3083
3025.15	24.4829
3025.98	20.6387
3026.82	20.1122
3027.65	23.0623
3028.48	23.1134
3029.31	21.9349
3030.15	22.9447
3030.98	20.7131
3031.81	22.8887
3032.64	21.7993
3033.48	22.8994
3034.31	23.7662
3035.14	23.9876
3035.97	21.6286
3036.8	23.0399
3037.64	22.2159
3038.47	21.8142
3039.3	23.5895
3040.13	22.5101
3040.96	22.2142
3041.79	23.1878
3042.62	23.4347
3043.45	23.5952
3044.28	23.6411
3045.12	24.8337
3045.95	24.0165
3046.78	21.8537
3047.61	22.2152
3048.44	24.0803
3049.27	23.6406
3050.1	24.207
3050.92	23.5529
3051.75	20.8782
3052.58	20.532
3053.41	20.6585
3054.24	21.3535
3055.07	20.3643
3055.9	21.7833
3056.73	23.178
3057.26	23.5
3058.09	26
3058.93	27
3059.76	20.5
3060.59	22.5
3061.43	24
3062.26	22.5
3063.09	24.5
3063.92	22
3064.76	23.5
3065.59	22.5
3066.42	22
3067.25	20.5
3068.08	23.5
3068.92	21.5
3069.75	25
3070.58	22
3071.41	23
3072.24	22.5
3073.07	25
3073.9	22.5
3074.73	23
3075.57	22.5
3076.4	23.5
3077.23	26
3078.06	21
3078.89	24.5
3079.72	27
3080.55	23
3081.38	25.5
3082.21	26.5
3083.04	22
3083.87	22.5
3084.7	23
3085.53	24
3086.36	25
3087.19	22
3088.01	18.5
3088.84	22
3089.67	25.5
3090.5	21.5
3091.33	19
3092.16	21.5
3092.99	26.5
3093.81	23
3094.64	24.5
3095.47	26
3096.3	24
3097.13	26
3097.95	25
3098.78	24
3099.61	21
3100.44	24.5
3101.26	23.5
3102.09	23
3102.92	27.5
3103.74	22
3104.57	22
3105.4	23
3106.22	24.5
3107.05	20
3107.88	22.5
3108.7	20.5
3109.53	24
3110.35	23
3111.18	24.5
3112.01	25
3112.83	23
3113.66	24.5
3114.48	23
3115.31	26
3116.13	22
3116.96	26.5
3117.78	20.5
3118.61	23.5
3119.43	21
3120.26	24
3121.08	21
3121.9	20
3122.73	21
3123.55	25.5
3124.38	21
3125.2	25
3126.02	23
3126.85	24
3127.67	20
3128.49	26
3129.32	25
3130.14	27
3130.96	23.5
3131.79	24
3132.61	24.5
3133.43	24
3134.25	20.5
3135.08	25
3135.9	25
3136.72	25
3137.54	23
3138.37	25
3139.19	24
3140.01	27
3140.83	26.5
3141.65	24
3142.47	27
3143.29	23.5
3144.12	20
3144.94	24.5
3145.76	28
3146.58	22
3147.4	24
3148.22	26.5
3149.04	24
3149.86	21.5
3150.68	22
3151.5	24.5
3152.32	25
3153.14	22.5
3153.96	22.5
3154.78	23.5
3155.6	21
3156.42	24.5
3157.24	25.5
3158.06	21.5
3158.88	24
3159.7	23
3160.51	23.5
3161.33	26
3162.15	26
3162.97	24.5
3163.79	23
3164.61	24
3165.42	24
3166.24	22.5
3167.06	26
3167.88	26
3168.7	21
3169.51	22
3170.33	22.5
3171.15	26.5
3171.97	22.5
3172.78	23.5
3173.6	25.5
3174.42	23.5
3175.23	23.5
3176.05	22.5
3176.87	26
3177.68	21
3178.5	21
3179.32	26
3180.13	24.5
3180.95	24.5
3181.76	23
3182.58	24
3183.4	23.5
3184.21	25
3185.03	24.5
3185.84	26
3186.66	22.5
3187.47	25
3188.29	25.5
3189.1	26
3189.92	20
3190.73	25
3191.55	24.5
3192.36	21
3193.17	25
3193.99	24.5
3194.8	21.5
3195.62	21.5
3196.43	23
3197.24	24.5
3198.06	26
3198.87	25
3199.68	26
3200.5	26.5
3201.31	20.5
3202.12	27
3202.94	25.5
3203.75	26
3204.56	24.5
3205.38	20.5
3206.19	22
3207	20
3207.81	24.5
3208.62	23.5
3209.44	21.5
3210.25	24
3211.06	21.5
3211.87	21
3212.68	20
3213.49	25.5
3214.31	23.5
3215.12	18
3215.93	24
3216.74	24
3217.55	24
3218.36	21
3219.17	25
3219.98	25.5
3220.79	22
3221.6	20
3222.41	23
3223.22	23
3224.03	27.5
3224.84	22
3225.65	24
3226.46	21
3227.27	25
3228.08	22
3228.89	24
3229.7	28.5
3230.51	22
3231.32	23.5
3232.13	23.5
3232.94	23.5
3233.74	27.5
3234.55	22
3235.36	20.5
3236.17	24
3236.98	23.5
3237.78	28
3238.59	21
3239.4	25.5
3240.21	19
3241.02	22.5
3241.82	28.5
3242.63	20.5
3243.44	27
3244.25	20.5
3245.05	24.5
3245.86	21
3246.67	21
3247.47	24.5
3248.28	24
3249.09	25.5
3249.89	25.5
3250.7	25.5
3251.5	25
3252.31	21
3253.12	27
3253.92	26
3254.73	21.5
3255.53	25.5
3256.34	19
3257.14	24.5
3257.95	24
3258.75	21
3259.56	23
3260.36	25
3261.17	23.5
3261.97	26.5
3262.78	22.5
3263.58	19
3264.39	28
3265.19	23
3265.99	24
3266.8	21
3267.6	25.5
3268.41	20.5
3269.21	22
3270.01	25.5
3270.82	26.5
3271.62	22
3272.42	24
3273.23	22.5
3274.03	22
3274.83	26
3275.64	23.5
3276.44	25
3277.24	23.5
3278.04	23
3278.85	23.5
3279.65	25
3280.45	26
3281.25	22
3282.05	26.5
3282.85	24
3283.66	25
3284.46	23
3285.26	21.5
3286.06	23.5
3286.86	19
3287.66	23.5
3288.46	21.5
3289.27	25
3290.07	22
3290.87	21
3291.67	25.5
3292.47	19.5
3293.27	23
3294.07	26.5
3294.87	22
3295.67	22.5
3296.47	26.5
3297.27	22
3298.07	23.5
3298.87	22
3299.67	25
3300.47	28
3301.26	22
3302.06	22.5
3302.86	21
3303.66	22.5
3304.46	23
3305.26	22
3306.06	23.5
3306.86	22
3307.65	21.5
3308.45	26
3309.25	24
3310.05	25
3310.85	27.5
3311.64	22
3312.44	25.5
3313.24	24.5
3314.04	24.5
3314.83	24
3315.63	23
3316.43	22
3317.22	23
3318.02	20.5
3318.82	28
3319.62	22
3320.41	22.5
3321.21	24
3322	23.5
3322.8	21
3323.6	22.5
3324.39	25
3325.19	22.5
3325.98	24.5
3326.78	23
3327.58	23
3328.37	22.5
3329.17	21.5
3329.96	28
3330.76	27
3331.55	24
3332.35	22.5
3333.14	25
3333.94	25
3334.73	21
3335.52	25
3336.32	24
3337.11	25
3337.91	23.5
3338.7	24
3339.5	26.5
3340.29	26.5
3341.08	25
3341.88	25
3342.67	26
3343.46	21.5
3344.26	25.5
3345.05	26
3345.84	25
3346.63	25.5
3347.43	27
3348.22	26
3349.01	24
3349.8	20
3350.6	27
3351.39	16.5
3352.18	24.5
3352.97	23.5
3353.77	24.5
3354.56	26
3355.35	24.5
3356.14	26
3356.93	25
3357.72	29
3358.51	25
3359.31	26
3360.1	23.5
3360.89	24
3361.68	24.5
3362.47	22
3363.26	20
3364.05	24
3364.84	18.5
3365.63	24
3366.42	24
3367.21	23
3368	21
3368.79	25
3369.58	24
3370.37	21
3371.16	20
3371.95	24.5
3372.74	25.5
3373.53	26
3374.32	21.5
3375.1	23.5
3375.89	30.5
3376.68	29.5
3377.47	28
3378.26	26
3379.05	22
3379.84	23
3380.62	23
3381.41	26.5
3382.2	27
3382.99	21
3383.78	25
3384.56	20
3385.35	23.5
3386.14	22.5
3386.93	23.5
3387.71	23
3388.5	26
3389.29	24
3390.07	26
3390.86	21.5
3391.65	24
3392.43	19.5
3393.22	22
3394.01	25
3394.79	23
3395.58	23.5
3396.36	26.5
3397.15	26.5
3397.94	26.5
3398.72	22
3399.51	24
3400.29	23.5
3401.08	26
3401.86	27.5
3402.65	24.5
3403.43	22.5
3404.22	25.5
3405	25.5
3405.79	26
3406.57	24
3407.36	21.5
3408.14	22
3408.93	21
3409.71	23.5
3410.49	21.5
3411.28	22
3412.06	21
3412.84	27
3413.63	20.5
3414.41	21.5
3415.2	25.5
3415.98	23
3416.76	23
3417.54	22.5
3418.33	23.5
3419.11	23
3419.89	24
3420.68	25
3421.46	27
3422.24	22.5
3423.02	25.5
3423.81	23.5
3424.59	27
3425.37	23
3426.15	20
3426.93	26.5
3427.71	24.5
3428.5	24
3429.28	24
3430.06	21
3430.84	22.5
3431.62	25.5
3432.4	23
3433.18	20
3433.96	24
3434.75	26
3435.53	27
3436.31	28
3437.09	20.5
3437.87	22
3438.65	26
3439.43	26
3440.21	22.5
3440.99	21.5
3441.77	23.5
3442.55	21
3443.33	28
3444.1	21.5
3444.88	25.5
3445.66	24.5
3446.44	24.5
3447.22	23
3448	22
3448.78	25
3449.56	24
3450.34	25
3451.11	24.5
3451.89	25
3452.67	20
3453.45	22
3454.23	25
3455	23.5
3455.78	23.5
3456.56	28
3457.34	22
3458.11	25
3458.89	25.5
3459.67	25.5
3460.45	22.5
3461.22	25.5
3462	18
3462.78	25
3463.55	26
3464.33	25
3465.11	21
3465.88	22
3466.66	22
3467.44	22
3468.21	25
3468.99	25.5
3469.76	22.5
3470.54	27.5
3471.32	21
3472.09	24.5
3472.87	22.5
3473.64	26
3474.42	23.5
3475.19	26.5
3475.97	28.5
3476.74	22
3477.52	24.5
3478.29	23
3479.07	28
3479.84	23
3480.61	23.5
3481.39	23.5
3482.16	23.5
3482.94	25
3483.71	25.5
3484.48	26
3485.26	20
3486.03	23.5
3486.81	24
3487.58	24.5
3488.35	20.5
3489.13	22.5
3489.9	21.5
3490.67	22
3491.44	26
3492.22	24
3492.99	25
3493.76	19
3494.54	22
3495.31	22.5
3496.08	22.5
3496.85	20.5
3497.62	21.5
3498.4	22.5
3499.17	26
3499.94	23
