#Acq. time (s)=	5
#Accumulations=	5
#Range (cm-¹)=	100...3500
#Windows=	4
#Autofocus=	Off
#AutoExposure=	Off
#Spike filter=	Multiple accum.
#Delay time (s)=	0
#Binning=	1
#Readout mode=	Signal
#DeNoise=	Off
#ICS correction=	Off
#Dark correction=	Off
#Inst. Process=	Off
#Instrument=	LabRAM HR Evol
#Detector=	Syncerity OE
#Objective=	x100_VIS
#Grating=	600 (500nm)
#ND Filter=	25%
#Laser=	633nm_Edge
#Hole=	100.021
#Range=	Visible
#Project=	verificaciones
#Sample=	at3
#Site=	lined
#Title=	bolusat3lined
#Remark=	
#Date=	14.01.2026 13:05
#Acquired=	14.01.2026 13:05:55
100.618	26
101.901	33.5
103.185	32.5
104.468	31.5
105.751	34
107.033	30
108.316	28
109.598	32.5
110.88	33
112.162	29.5
113.445	34.5
114.727	30.5
116.008	31
117.289	33
118.57	31
119.85	30.5
121.13	29.5
122.411	33
123.691	28.5
124.97	33.5
126.25	31
127.529	31
128.808	32
130.086	35
131.364	34
132.643	31
133.921	34
135.199	33
136.477	35
137.755	37
139.032	40
140.309	38
141.586	36
142.863	36.5
144.14	32
145.415	39.5
146.691	43.5
147.967	38.5
149.243	36.5
150.518	43
151.794	37.5
153.067	42.5
154.342	44
155.617	45
156.892	38.5
158.166	37.5
159.439	37
160.712	41.5
161.986	38
163.26	46
164.531	42
165.805	35.5
167.077	41
168.35	40
169.621	37
170.893	41
172.165	39.5
173.437	35
174.707	42
175.979	39.5
177.25	41.5
178.519	41.5
179.79	45
181.061	40.5
182.33	43.5
183.6	42
184.87	40.5
186.138	41
187.408	42
188.676	39
189.945	45.5
191.214	35.5
192.481	45.5
193.75	39.5
195.016	40
196.285	38.5
197.552	42
198.819	40.5
200.086	36
201.352	35.5
202.619	38.5
203.884	36
205.151	40
206.416	36.5
207.682	38.5
208.947	33
210.213	36
211.477	33
212.742	32.5
214.006	33.5
215.271	42.5
216.535	36
217.799	32
219.062	34.5
220.326	32.5
221.589	34
222.851	29.5
224.115	27.5
225.377	35
226.64	34.5
227.901	31
229.163	29
230.425	35.5
231.686	32
232.947	28
234.209	32
235.469	33
236.729	27.5
237.991	34
239.25	33.5
240.51	28
241.771	32
243.03	34
244.288	31
245.549	31
246.807	31
248.065	34.5
249.323	28.5
250.583	31
251.84	31
253.098	30.5
254.355	28
255.613	32
256.87	29
258.127	30
259.383	30.5
260.639	25
261.897	31.5
263.153	29
264.408	33
265.664	32.5
266.919	30
268.174	24.5
269.43	29
270.685	28
271.939	33
273.193	30
274.447	27
275.701	27.5
276.955	29
278.208	22
279.461	30
280.714	27
281.968	26.5
283.221	30.5
284.473	30
285.726	29
286.977	27.5
288.229	28.5
289.481	29.5
290.732	30
291.983	32
293.234	26.5
294.485	27
295.736	30
296.986	31
298.236	28
299.486	28.5
300.736	28.5
301.985	27
303.233	27.5
304.482	29.5
305.731	25
306.98	30
308.228	24
309.477	29
310.725	25
311.973	28.5
313.22	25.5
314.468	28
315.714	29.5
316.961	31.5
318.208	27.5
319.455	27.5
320.701	30
321.947	28.5
323.192	28
324.438	28
325.684	30.5
326.929	28.5
328.175	30.5
329.418	31
330.663	31.5
331.908	26.5
333.152	31
334.395	30
335.639	28.5
336.883	30.5
338.127	27.5
339.369	28.5
340.612	32
341.855	29.5
343.097	26.5
344.34	30
345.582	28
346.823	27
348.065	31
349.307	26
350.547	28.5
351.789	31
353.03	25
354.27	32
355.511	30.5
356.75	30
357.991	30.5
359.231	27
360.47	30.5
361.709	29
362.948	30
364.187	30
365.427	32.5
366.664	29
367.903	28.5
369.14	26
370.379	29.5
371.616	29.5
372.854	26.5
374.091	30
375.328	32
376.564	32.5
377.802	26.5
379.037	27
380.274	33.5
381.51	30
382.745	29.5
383.981	27
385.216	29.5
386.452	29.5
387.686	30.5
388.922	29
390.155	29.5
391.389	23
392.624	28
393.857	24
395.091	31.5
396.325	26
397.558	27
398.79	28.5
400.024	30
401.256	30
402.488	29
403.721	27
404.953	28.5
406.184	31.5
407.417	24.5
408.648	28.5
409.878	29.5
411.109	30
412.341	28.5
413.571	27.5
414.801	28
416.031	27
417.262	29
418.491	30
419.72	28
420.949	32.5
422.178	28
423.408	28
424.637	29
425.865	28
427.093	32
428.32	30
429.548	28
430.777	25
432.004	30
433.231	27
434.458	29
435.685	30
436.911	27
438.137	32.5
439.363	27
440.589	32.5
441.815	29
443.042	28.5
444.267	28
445.492	30
446.717	30
447.942	29.5
449.166	30.5
450.39	31.5
451.615	26
452.838	33
454.062	29.5
455.286	30
456.509	28
457.732	29
458.955	23
460.178	26
461.399	29
462.621	30
463.843	32.5
465.065	28
466.287	31.5
467.508	32.5
468.73	30
469.951	34
471.172	37
472.393	34
473.612	30
474.832	35
476.052	38
477.272	43.5
478.492	40
479.712	43
480.93	51
482.149	53
483.368	54
484.587	55.5
485.806	57.5
487.023	56.5
488.241	54.5
489.459	62
490.677	61.5
491.893	56
493.111	54
494.328	45.5
495.543	51.5
496.76	49
497.977	49.5
499.194	45.5
500.409	48.5
501.625	44
502.841	44.5
504.055	40
505.27	37
506.486	40.5
507.699	42
508.914	35
510.128	38
511.342	37
512.557	33
513.77	35.5
514.984	37.5
516.196	36
517.41	36
518.623	35.5
519.835	36.5
521.048	33
522.259	31
523.472	32.5
524.683	34
525.895	33
527.106	32
528.318	34.5
529.528	32
530.74	28.5
531.949	34.5
533.161	32
534.37	30.5
535.581	29
536.79	27
537.999	30.5
539.209	31
540.418	33
541.627	33
542.835	30.5
544.043	31
545.253	28
546.46	30.5
547.669	34.5
548.876	28
550.083	32
551.292	28
552.498	27
553.705	31
554.912	30
556.118	30.5
557.324	29.5
558.53	27.5
559.737	25.5
560.942	29.5
562.147	29
563.353	28.5
564.558	30.5
565.763	28
566.967	34.5
568.173	29
569.377	29
570.58	29
571.784	31
572.987	29.5
574.192	29
575.395	28.5
576.598	27.5
577.8	28.5
579.003	26
580.205	27.5
581.407	26
582.61	31.5
583.812	28.5
585.014	27.5
586.215	27
587.416	32
588.617	32
589.818	31
591.018	27.5
592.219	31
593.419	24.5
594.619	25
595.819	28.5
597.02	28.5
598.219	30
599.418	29
600.617	31.5
601.816	29
603.015	29.5
604.213	31
605.41	25
606.608	29
607.806	30
609.004	26.5
610.201	33.5
611.399	29
612.596	28.5
613.793	28.5
614.989	27
616.186	30
617.382	30
618.579	26
619.775	29
620.969	28
622.165	24.5
623.36	29
624.555	24
625.75	30.5
626.945	30
628.139	28
629.333	31
630.527	25.5
631.721	31.5
632.915	27.5
634.108	25
635.301	28
636.495	23.5
637.688	27
638.88	28.5
640.072	28
641.265	29
642.456	31
643.648	29
644.84	29.5
646.032	31.5
647.222	30
648.414	24.5
649.605	29.5
650.795	29.5
651.986	29.5
653.177	28
654.366	29.5
655.556	31.5
656.745	25.5
657.935	29.5
659.125	30
660.313	30.5
661.503	27
662.69	28.5
663.879	26
665.067	27
666.256	28
667.444	29
668.631	30
669.819	28.5
671.006	27
672.194	30
673.38	30
674.567	30.5
675.753	30.5
676.94	30
678.125	37.5
679.311	35
680.497	27
681.682	33.5
682.868	36
684.053	33
685.238	39
686.422	37.5
687.606	34
688.792	32
689.975	35
691.159	35
692.343	37
693.526	36.5
694.71	36.5
695.893	41
697.076	37.5
698.259	35.5
699.441	39.5
700.623	33
701.805	39
702.988	39.5
704.169	40
705.35	47
706.533	51
707.714	46.5
708.894	50
710.075	50
711.255	50
712.436	42
713.616	43.5
714.796	42
715.975	34
717.155	34
718.335	32.5
719.514	34
720.693	31.5
721.872	28.5
723.05	31
724.228	24
725.406	26
726.585	34
727.763	33.5
728.941	34
730.118	27
731.295	25.5
732.472	27
733.649	29
734.825	28.5
736.002	29
737.178	29
738.354	29.5
739.53	32
740.705	29.5
741.881	28.5
743.056	27.5
744.231	29
745.406	28
746.581	27.5
747.755	25.5
748.93	28
750.104	33.5
751.278	30
752.452	29.5
753.625	27.5
754.799	29
755.972	29.5
757.144	27
758.317	27
759.489	27.5
760.662	26.5
761.834	30
763.006	30.5
764.178	29
765.349	29
766.521	30
767.692	28
768.863	29
770.034	28.5
771.204	27.5
772.374	26.5
773.545	28.5
774.715	32.5
775.885	29.5
777.054	28.5
778.224	29
779.393	28
780.562	28.5
781.731	30.5
782.9	30
784.069	30.5
785.236	29.5
786.405	31.5
787.573	30
788.74	35
789.908	31
791.074	31.5
792.242	34.5
793.409	29.5
794.575	29
795.742	32
796.909	28
798.074	34
799.241	28.5
800.406	30.5
801.572	26
802.737	28.5
803.902	27
805.067	28.5
806.232	27.5
807.396	31.5
808.561	30.5
809.725	31.5
810.889	25
812.052	31.5
813.217	28.5
814.38	29
815.544	30
816.706	29
817.87	22
819.032	28.5
820.195	26.5
821.357	26
822.518	24
823.681	27
824.842	25
826.005	29
827.165	25
828.326	32
829.488	25.5
830.648	28.5
831.808	29
832.97	28
834.129	29
835.289	26.5
836.45	29
837.609	25
838.768	28.5
839.927	30.5
841.087	26
842.245	29.5
843.404	24
844.562	29.5
845.721	27
846.879	25.5
848.036	29
849.194	25
850.351	28
851.509	31
852.666	26
853.823	31
854.979	29
856.136	29.5
857.292	27
858.448	29.5
859.605	25
860.761	32
861.916	28.5
863.071	37
864.226	28.5
865.381	31
866.536	26
867.691	29.5
868.845	29.5
869.999	31
871.153	27.5
872.307	25.5
873.461	29
874.614	27.5
875.767	31
876.92	26
878.073	29.5
879.226	29
880.379	30
881.531	32
882.683	27
883.835	25.5
884.987	23.5
886.139	26.5
887.291	25
888.442	27
889.593	28
890.743	25.5
891.893	30
893.044	28.5
894.195	25.5
895.345	28.5
896.495	25.5
897.643	25
898.793	28
899.943	27.5
901.092	26
902.241	27
903.389	27
904.538	25
905.687	28
906.835	25.5
907.982	26
909.13	26.5
910.278	28.5
911.426	28.5
912.572	29.5
913.72	26
914.867	30.5
916.013	24.5
917.16	26.5
918.306	28.5
919.451	27
920.598	26.5
921.744	25
922.889	32
924.035	29
925.18	26.5
926.324	25.5
927.47	30
928.614	25.5
929.758	27
930.902	27
932.047	27.5
933.191	24
934.334	27
935.478	29.5
936.621	29.5
937.764	27.5
938.906	29
940.05	29.5
941.192	27.5
942.335	24.5
943.476	28
944.619	27
945.76	28.5
946.901	28
948.043	26
949.184	24.5
950.326	24.5
951.466	26
952.606	24.5
953.747	26
954.887	27
956.028	24.5
957.167	25.5
958.307	29.5
959.447	27
960.586	25.5
961.725	24.5
962.865	28.5
964.003	25.5
965.141	28.5
966.279	27
967.418	26
968.556	28
969.693	28
970.831	26.25
971.969	23
973.106	25
974.243	24.5
975.38	25
976.517	29
977.654	25.5
978.79	26
979.926	21
981.061	28.5
982.197	29
983.334	28
984.469	25
985.604	28
986.739	27
987.873	28
989.008	28
990.142	26.5
991.277	25
992.411	27.5
993.544	27.5
994.679	29
995.813	26
996.946	27.5
998.079	27
999.212	24.5
1000.35	26
1001.48	24.5
1002.61	27.5
1003.74	22
1004.87	28.5
1006.01	26.5
1007.14	24.5
1008.27	29.5
1009.4	27
1010.53	28.5
1011.66	29
1012.79	25.5
1013.92	29
1015.05	23
1016.18	29
1017.31	26.5
1018.44	25.5
1019.57	26
1020.7	26
1021.83	30
1022.96	28.5
1024.09	27.5
1025.22	21.5
1026.35	27
1027.48	27
1028.6	26.5
1029.73	23
1030.86	24.5
1031.99	28
1033.12	25.5
1034.24	25.5
1035.37	23
1036.5	29.5
1037.62	25.5
1038.75	26
1039.88	23.5
1041	28.5
1042.13	24
1043.25	25
1044.38	23.5
1045.5	25.5
1046.63	25
1047.76	27
1048.88	27
1050	25
1051.13	28.5
1052.25	25
1053.38	28
1054.5	27.5
1055.63	24
1056.75	22
1057.87	23
1058.99	27
1060.12	30
1061.24	26
1062.36	24
1063.49	24.5
1064.61	28.5
1065.73	30
1066.85	26
1067.97	29
1069.1	23.5
1070.22	26.5
1071.34	27.5
1072.46	26
1073.58	26
1074.7	26.5
1075.82	30
1076.94	24
1078.06	23
1079.18	26.5
1080.3	25
1081.42	24.5
1082.54	26.5
1083.66	24.5
1084.78	23
1085.9	28
1087.02	26
1088.13	21
1089.25	24.5
1090.37	26.5
1091.49	29.5
1092.61	24.5
1093.72	28.5
1094.84	27.5
1095.96	24.5
1097.08	25
1098.19	28.5
1099.31	24
1100.42	26.5
1101.54	29.5
1102.66	23
1103.77	25
1104.89	28
1106	27.5
1107.12	28
1108.23	29.5
1109.35	27
1110.46	23.5
1111.58	27.5
1112.69	24
1113.81	25.5
1114.92	24
1116.04	24
1117.15	25
1118.26	24.5
1119.38	26.5
1120.49	24.5
1121.6	24.5
1122.72	26.5
1123.83	22
1124.94	26.5
1126.05	27
1127.17	26.5
1128.28	28.5
1129.39	24
1130.5	29
1131.61	24
1132.72	24.5
1133.83	23
1134.94	25
1136.06	25.5
1137.17	22
1138.27	26
1139.39	27.5
1140.5	25
1141.61	27.5
1142.72	25
1143.82	25
1144.93	27
1146.04	27.5
1147.15	23.5
1148.26	27
1149.37	27.5
1150.48	24.5
1151.58	27
1152.69	24
1153.8	26
1154.91	25.5
1156.02	25
1157.12	25.5
1158.23	29
1159.34	22
1160.44	26
1161.55	25.5
1162.66	23
1163.76	25.5
1164.87	28.5
1165.97	25.5
1167.08	29
1168.18	28
1169.29	24.5
1170.39	24
1171.5	23.5
1172.6	25
1173.71	20
1174.81	25
1175.92	25.5
1177.02	19.5
1178.13	23
1179.23	22
1180.33	25.5
1181.44	23
1182.54	24.5
1183.64	26
1184.74	26.5
1185.85	28
1186.95	27.5
1188.05	26.5
1189.15	24
1190.26	28
1191.36	23
1192.46	24
1193.56	26
1194.66	24.0071
1195.76	23.4444
1196.86	24.1036
1197.96	24.0319
1199.06	25.432
1200.16	23.4844
1201.26	24.6563
1202.36	24.6348
1203.46	27.1255
1204.56	23.8019
1205.66	26.0517
1206.76	26.2714
1207.86	26.8852
1208.96	23.8004
1210.06	25.3374
1211.16	23.725
1212.25	25.6796
1213.35	23.8155
1214.45	25.2739
1215.55	24.8987
1216.65	22.5075
1217.74	24.1844
1218.84	26.9078
1219.94	27.3559
1221.03	23.7725
1222.13	23.4574
1223.23	24.2718
1224.32	25.5218
1225.42	26.077
1226.52	26.738
1227.61	24.4044
1228.71	26.3993
1229.8	27.0465
1230.9	24.4178
1231.99	23.7768
1233.09	22.7802
1234.18	23.9513
1235.28	23.6636
1236.37	25.5409
1237.47	23.6929
1238.56	27.1021
1239.65	24.2985
1240.75	25.2422
1241.84	27.0481
1242.93	24.7611
1244.03	24.589
1245.12	23.5011
1246.21	24.1325
1247.31	22.2746
1248.4	23.511
1249.49	23.2354
1250.58	26.1658
1251.67	26.0192
1252.77	23.7022
1253.86	25.9265
1254.95	26.0621
1256.04	24.6237
1257.13	23.1656
1258.22	24.9963
1259.31	26.5558
1260.4	26.2194
1261.49	27.0651
1262.58	23.9728
1263.67	24.9815
1264.76	27.0843
1265.85	26.1975
1266.94	23.7028
1268.03	24.0866
1269.12	25.0023
1270.21	22.921
1271.3	23.7998
1272.39	24.5094
1273.47	25.6604
1274.56	26
1275.65	24.5287
1276.74	22.7861
1277.83	24.1904
1278.91	22.5874
1280	25.0172
1281.09	23.7477
1282.17	23.5139
1283.26	26.4594
1284.35	25.8323
1285.43	25.206
1286.52	23.7126
1287.61	25.2237
1288.69	25.8586
1289.78	22.9251
1290.86	22.1125
1291.95	21.7348
1293.03	22.6567
1294.12	22.6035
1295.2	23.3349
1296.29	22.5734
1297.37	23.9659
1298.46	24.0329
1299.54	24.4606
1300.63	23.0207
1301.71	23.0879
1302.79	23.8131
1303.88	22.5484
1304.96	22.9847
1306.04	24.5718
1306.5	25
1307.59	27
1308.68	24
1309.76	23
1310.85	24.5
1311.94	26
1313.03	20
1314.11	24
1315.2	26
1316.29	22.5
1317.37	28
1318.46	24.5
1319.55	30.5
1320.63	21
1321.72	27
1322.81	24.5
1323.89	21
1324.98	23
1326.06	23
1327.15	24.5
1328.23	26.5
1329.32	22
1330.4	24
1331.49	24
1332.57	24
1333.66	22.5
1334.74	28
1335.82	24
1336.91	28
1337.99	22
1339.07	28
1340.16	24.5
1341.24	26
1342.32	27.5
1343.4	23
1344.49	24
1345.57	23.5
1346.65	22
1347.73	27
1348.82	22.5
1349.9	26
1350.98	23
1352.06	25
1353.14	22.5
1354.22	25
1355.3	23.5
1356.38	21
1357.46	23.5
1358.54	25
1359.62	24
1360.7	26.5
1361.78	21
1362.86	24
1363.94	28
1365.02	25
1366.1	24
1367.18	23
1368.26	24.5
1369.34	26.5
1370.41	24
1371.49	27.5
1372.57	29
1373.65	28.5
1374.72	26
1375.8	27
1376.88	25.5
1377.96	24.5
1379.03	27.5
1380.11	26.5
1381.19	24
1382.26	27
1383.34	26.5
1384.42	29
1385.49	27
1386.57	25
1387.64	29
1388.72	25
1389.79	23
1390.87	25
1391.94	22
1393.02	25.5
1394.09	28
1395.17	26
1396.24	27.5
1397.31	25
1398.39	29.5
1399.46	26
1400.54	27.5
1401.61	31
1402.68	33
1403.76	30
1404.83	30.5
1405.9	32
1406.97	31
1408.05	34
1409.12	29
1410.19	28
1411.26	30.5
1412.33	28
1413.4	33.5
1414.48	35
1415.55	31
1416.62	32.5
1417.69	28.5
1418.76	28
1419.83	29
1420.9	24.5
1421.97	29
1423.04	27
1424.11	21
1425.18	33.5
1426.25	28.5
1427.32	31.5
1428.39	26.5
1429.46	26.5
1430.52	27
1431.59	30
1432.66	26.5
1433.73	25
1434.8	23.5
1435.87	29.5
1436.93	28.5
1438	27
1439.07	24
1440.14	28
1441.2	29.5
1442.27	24.5
1443.34	24.5
1444.4	26
1445.47	26
1446.54	27
1447.6	26
1448.67	28
1449.73	29.5
1450.8	26.5
1451.86	28
1452.93	25.5
1453.99	26.5
1455.06	28.5
1456.12	26.5
1457.19	29.5
1458.25	28
1459.32	30.5
1460.38	21.5
1461.45	22.5
1462.51	27
1463.57	27.5
1464.64	23.5
1465.7	26
1466.76	25.5
1467.82	26.5
1468.89	27.5
1469.95	26
1471.01	28.5
1472.07	26.5
1473.14	23
1474.2	22
1475.26	26.5
1476.32	28
1477.38	27.5
1478.44	29
1479.5	27.5
1480.57	26
1481.63	27
1482.69	22
1483.75	27.5
1484.81	25.5
1485.87	27.5
1486.93	25.5
1487.99	28
1489.05	22
1490.1	29.5
1491.17	27
1492.22	26.5
1493.28	24.5
1494.34	27
1495.4	29.5
1496.46	30.5
1497.52	22
1498.57	22
1499.63	26
1500.69	26
1501.75	25.5
1502.8	24
1503.86	27.5
1504.92	27
1505.98	26
1507.03	26.5
1508.09	22
1509.15	28
1510.2	28
1511.26	24.5
1512.31	28
1513.37	27.5
1514.42	25
1515.48	30
1516.53	24.5
1517.59	20.5
1518.64	26
1519.7	27.5
1520.75	28
1521.81	26
1522.86	24.5
1523.92	23.5
1524.97	21
1526.02	25.5
1527.08	26
1528.13	20.5
1529.18	32
1530.24	23
1531.29	30
1532.34	30.5
1533.39	26.5
1534.45	21
1535.5	29
1536.55	26.5
1537.6	26.5
1538.65	22.5
1539.71	28
1540.76	21.5
1541.81	27.5
1542.86	22
1543.91	23.5
1544.96	28
1546.01	22.5
1547.06	27
1548.11	25.5
1549.16	25.5
1550.21	28.5
1551.26	24
1552.31	26.5
1553.36	23
1554.41	25.5
1555.46	23.5
1556.51	26
1557.56	25.5
1558.6	27
1559.65	26.5
1560.7	26.5
1561.75	28.5
1562.8	29
1563.84	26.5
1564.89	23.5
1565.94	25
1566.99	29.5
1568.03	26
1569.08	23
1570.13	28.5
1571.17	27
1572.22	29
1573.27	27
1574.31	23.5
1575.36	23.5
1576.4	26.5
1577.45	26
1578.5	29
1579.54	20.5
1580.59	31
1581.63	23.5
1582.68	25
1583.72	23.5
1584.76	25.5
1585.81	27.5
1586.85	29
1587.9	24.5
1588.94	25
1589.98	22.5
1591.03	26
1592.07	25.5
1593.11	26
1594.16	24.5
1595.2	28
1596.24	23
1597.29	23
1598.33	30
1599.37	26
1600.41	29.5
1601.45	23
1602.49	24.5
1603.54	24
1604.58	22
1605.62	28
1606.66	25
1607.7	25
1608.74	22
1609.78	21
1610.82	27
1611.86	25.5
1612.9	26.5
1613.94	25
1614.98	23
1616.02	28
1617.06	29
1618.1	28.5
1619.14	24.5
1620.18	24.5
1621.22	26
1622.25	24.5
1623.29	25.5
1624.33	25.5
1625.37	25.5
1626.41	24
1627.45	26
1628.48	27.5
1629.52	26
1630.56	24
1631.59	26
1632.63	27
1633.67	26.5
1634.7	25.5
1635.74	27
1636.78	22
1637.81	30
1638.85	32
1639.88	23.5
1640.92	25.5
1641.96	25.5
1642.99	26
1644.03	24
1645.06	23.5
1646.1	26.5
1647.13	25
1648.17	24.5
1649.2	25
1650.23	27.5
1651.27	27
1652.3	20.5
1653.33	23.5
1654.37	26
1655.4	25
1656.44	27
1657.47	26
1658.5	24.5
1659.53	25
1660.57	27
1661.6	21.5
1662.63	24
1663.66	27.5
1664.69	26.5
1665.73	25
1666.76	28.5
1667.79	27
1668.82	22
1669.85	25
1670.88	26
1671.91	27.5
1672.94	26
1673.97	24
1675.01	28.5
1676.03	28.5
1677.07	26
1678.1	31
1679.12	25
1680.15	27
1681.18	25.5
1682.21	25.5
1683.24	25
1684.27	24.5
1685.3	23.5
1686.33	27.5
1687.36	25
1688.38	24
1689.41	24
1690.44	24.5
1691.47	27.5
1692.5	29
1693.52	24.5
1694.55	23
1695.58	24
1696.6	24
1697.63	27
1698.66	26
1699.68	24
1700.71	23
1701.74	26
1702.76	24.5
1703.79	26.5
1704.81	24.5
1705.84	24
1706.86	25.5
1707.89	26
1708.91	29.5
1709.94	24.5
1710.96	24.5
1711.99	28
1713.01	23.5
1714.04	27.5
1715.06	24
1716.08	27
1717.11	27.5
1718.13	23
1719.16	24.5
1720.18	28
1721.2	25
1722.22	25.5
1723.25	25
1724.27	23
1725.29	27
1726.31	26
1727.34	30
1728.36	25
1729.38	29
1730.4	24.5
1731.42	28
1732.44	25.5
1733.47	28.5
1734.49	20.5
1735.51	24
1736.53	22
1737.55	27.5
1738.57	26
1739.59	26.5
1740.61	26.5
1741.63	26
1742.65	27
1743.67	23
1744.69	28.5
1745.71	23
1746.73	28
1747.75	24.5
1748.76	27
1749.78	24.5
1750.8	26.5
1751.82	26.5
1752.84	29
1753.86	24.5
1754.87	21.5
1755.89	25.5
1756.91	26.5
1757.93	28
1758.94	27
1759.96	26
1760.98	26
1761.99	28.5
1763.01	27
1764.03	25.5
1765.04	25.5
1766.06	25
1767.08	24
1768.09	24.5
1769.11	29.5
1770.12	29
1771.14	26.5
1772.15	22
1773.17	27.5
1774.18	25
1775.2	29
1776.21	26.5
1777.23	25.5
1778.24	23
1779.25	25.5
1780.27	26.5
1781.28	28
1782.3	23
1783.31	24.5
1784.32	25
1785.34	23
1786.35	28
1787.36	23
1788.37	25
1789.39	28.5
1790.4	25.5
1791.41	26
1792.42	25.5
1793.43	25.5
1794.45	24.5
1795.46	24
1796.47	22
1797.48	22
1798.49	24.5
1799.5	25
1800.51	22
1801.52	24
1802.53	24
1803.54	23
1804.55	28.5
1805.56	24
1806.57	22
1807.58	24.5
1808.59	27.5
1809.6	27
1810.61	31
1811.62	25
1812.63	25.5
1813.64	24
1814.65	24.5
1815.66	24.5
1816.66	26.5
1817.67	25.5
1818.68	23
1819.69	20
1820.69	21
1821.7	25.5
1822.71	27
1823.72	22
1824.72	28
1825.73	24.5
1826.74	27
1827.74	24.5
1828.75	22
1829.76	24.5
1830.76	19
1831.77	25
1832.77	28
1833.78	26
1834.79	26.5
1835.79	27
1836.8	28
1837.8	27.5
1838.81	24
1839.81	25
1840.81	25.5
1841.82	27.5
1842.82	24.5
1843.83	28.5
1844.83	24
1845.83	22
1846.84	26.5
1847.84	23.5
1848.84	22.5
1849.85	26.5
1850.85	29.5
1851.85	27
1852.86	26.5
1853.86	25
1854.86	28
1855.86	22
1856.86	27.5
1857.87	25.5
1858.87	26.5
1859.87	24
1860.87	24.5
1861.87	24.5
1862.87	25.5
1863.88	22
1864.88	28.5
1865.88	25
1866.88	25
1867.88	24
1868.88	25
1869.88	26.5
1870.88	28
1871.88	23.5
1872.88	20
1873.88	24.5
1874.87	24
1875.87	25
1876.87	24
1877.87	24.5
1878.87	21.5
1879.87	22.5
1880.87	26
1881.86	24
1882.86	28.5
1883.86	23
1884.86	27
1885.86	25.5
1886.85	22.5
1887.85	29
1888.85	22
1889.84	25.5
1890.84	23.5
1891.84	26.5
1892.83	21.5
1893.83	24.5
1894.83	26
1895.82	24.5
1896.82	27.5
1897.81	26.5
1898.81	23.5
1899.81	25
1900.8	22
1901.8	21.5
1902.79	26
1903.78	22
1904.78	25
1905.77	24
1906.77	25
1907.76	20
1908.76	25.5
1909.75	27
1910.74	23
1911.74	28
1912.73	26
1913.72	24
1914.72	27
1915.71	21
1916.7	22.5
1917.7	25
1918.69	25.5
1919.68	25
1920.67	23.5
1921.66	27
1922.66	24
1923.65	23.5
1924.64	22.5
1925.63	24
1926.62	24.5
1927.61	25
1928.6	25
1929.59	22.5
1930.59	23
1931.58	25
1932.57	25
1933.56	29.5
1934.55	25
1935.54	25.5
1936.53	27.5
1937.52	19
1938.51	25
1939.49	23.5
1940.48	26.5
1941.47	24.5
1942.46	28
1943.45	20
1944.44	23
1945.43	25.5
1946.42	21
1947.4	26.5
1948.39	28.5
1949.38	27
1950.37	26
1951.35	24
1952.34	23
1953.33	24
1954.31	29.5
1955.3	23.5
1956.29	23.5
1957.27	28
1958.26	28
1959.25	24
1960.23	24
1961.22	28
1962.21	26
1963.19	23.5
1964.18	26
1965.16	22
1966.15	25.5
1967.13	22
1968.12	23.5
1969.1	28.5
1970.09	28
1971.07	25
1972.05	27.5
1973.04	26
1974.02	26.5
1975.01	23
1975.99	26
1976.97	25.5
1977.96	24.5
1978.94	26
1979.92	23.5
1980.91	27.5
1981.89	26.5
1982.87	25
1983.85	21.5
1984.84	24
1985.82	24
1986.8	25
1987.78	23
1988.76	25.5
1989.74	25.5
1990.73	25
1991.71	22.5
1992.69	26.5
1993.67	25
1994.65	24.5
1995.63	23
1996.61	24.5
1997.59	24.5
1998.57	22
1999.55	26.5
2000.53	26
2001.51	24
2002.49	24.5
2003.47	25.5
2004.45	24
2005.43	26.5
2006.41	24.5
2007.39	25.5
2008.37	26.5
2009.34	21
2010.32	24
2011.3	20.5
2012.28	25.5
2013.26	21
2014.23	23.5
2015.21	22
2016.19	26
2017.17	26.5
2018.14	23
2019.12	25
2020.1	29.5
2021.07	26.5
2022.05	25
2023.03	23.5
2024	22.5
2024.98	22.5
2025.96	22.5
2026.93	26
2027.91	27
2028.88	22.5
2029.86	23
2030.83	25
2031.81	23
2032.78	22
2033.76	25.5
2034.73	27.5
2035.71	23.5
2036.68	24.5
2037.66	27
2038.63	29
2039.6	26
2040.58	26
2041.55	22
2042.52	22
2043.5	19.5
2044.47	26
2045.44	22.5
2046.42	24
2047.39	22.5
2048.36	24.5
2049.33	24
2050.31	25
2051.28	23
2052.25	27
2053.22	25
2054.19	25
2055.17	22
2056.14	22.5
2057.11	25
2058.08	26
2059.05	22.5
2060.02	22
2060.99	24.5
2061.96	25.5
2062.93	21
2063.9	22
2064.87	24
2065.84	23
2066.81	24.5
2067.78	23
2068.75	19
2069.72	22
2070.69	26
2071.66	23.5
2072.63	27
2073.6	27
2074.56	27
2075.53	24
2076.5	27
2077.47	23
2078.44	23.5
2079.4	22
2080.37	24.5
2081.34	24
2082.31	21
2083.27	19.5
2084.24	24
2085.21	22
2086.18	23
2087.14	26
2088.11	23.5
2089.07	19
2090.04	25
2091.01	22
2091.97	20
2092.94	24
2093.9	23
2094.87	21.5
2095.83	23.5
2096.8	24
2097.76	24.5
2098.73	25.5
2099.69	25
2100.66	23.5
2101.62	25
2102.59	23
2103.55	24
2104.52	20
2105.48	24
2106.44	26
2107.41	23.5
2108.37	27.5
2109.33	22
2110.3	28.5
2111.26	26
2112.22	26.5
2113.18	20
2114.15	22.5
2115.11	24
2116.07	24
2117.03	27
2118	25.5
2118.96	21.5
2119.92	21
2120.88	24
2121.84	23
2122.8	24
2123.76	26
2124.72	22
2125.68	22.5
2126.65	23.5
2127.61	20
2128.57	22.5
2129.53	23.5
2130.49	27
2131.45	22
2132.41	23
2133.36	22.5
2134.32	22
2135.28	26
2136.24	23.5
2137.2	21.5
2138.16	23.5
2139.12	20
2140.08	22.5
2141.04	24.5
2141.99	22
2142.95	25.9807
2143.91	21.983
2144.87	21.1002
2145.83	22.0289
2146.78	21.9443
2147.74	23.9313
2148.7	22.1262
2149.66	23.0096
2150.61	25.6286
2151.57	27.4316
2152.53	22.9152
2153.48	21.9806
2154.44	25.634
2155.4	24.9313
2156.35	25.39
2157.31	25.0313
2158.26	20.9033
2159.22	24.0815
2160.17	23.2345
2161.13	23.5538
2162.08	22.4005
2163.04	24.4027
2163.99	25.0822
2164.95	22.0422
2165.9	22.9067
2166.86	21.7861
2167.81	21.2522
2168.77	21.1664
2169.72	23.4132
2170.67	26.4613
2171.63	21.5235
2172.58	22.7367
2173.54	23.4918
2174.49	21.9296
2175.44	23.8376
2176.39	21.4339
2177.35	22.8056
2178.3	22.4793
2179.25	23.0761
2180.2	23.6221
2181.16	22.1594
2182.11	23.6044
2183.06	26.2621
2184.01	23.2167
2184.96	20.196
2185.92	23.0925
2186.87	22.0076
2187.82	20.4655
2188.77	22.8102
2189.72	21.8379
2190.67	18.0028
2191.62	21.8754
2192.57	22.367
2193.52	22.7091
2194.47	21.9418
2195.42	22.7202
2196.37	25.482
2197.32	23.4525
2198.27	21.7479
2199.22	20.0777
2200.17	21.8626
2201.12	23.1993
2202.07	23.6133
2203.02	22.6308
2203.97	23.279
2204.92	21.4708
2205.87	23.0163
2206.81	19.8902
2207.76	20.9325
2208.71	25.2269
2209.66	21.187
2210.61	22.4452
2211.55	24.1851
2212.5	22.9916
2213.45	22.2818
2214.4	23.6688
2215.34	24.6247
2216.29	21.8953
2217.24	22.7379
2218.18	21.4782
2219.13	22.034
2220.08	21.7321
2221.02	22.0094
2221.97	24.701
2222.92	23.021
2223.86	24.8539
2224.81	23.8571
2225.75	24.6735
2226.7	23.9581
2227.64	21.3817
2228.59	22.0538
2229.53	20.0023
2230.48	22.5364
2231.42	23.5042
2232.37	23.7074
2233.31	22.4074
2234.26	19.9731
2235.2	19.6335
2236.14	26.3969
2237.09	21.9257
2238.03	22.7361
2238.97	25.5532
2239.92	22.9767
2240.05	22.5
2241	24.5
2241.95	25.5
2242.89	21
2243.84	23
2244.79	21.5
2245.74	22.5
2246.68	21.5
2247.63	24
2248.58	22
2249.53	25
2250.47	25.5
2251.42	22.5
2252.36	22
2253.31	23
2254.26	25
2255.2	21
2256.15	26
2257.1	21.5
2258.04	22
2258.99	25
2259.93	22
2260.88	24
2261.82	21.5
2262.77	24.5
2263.71	24
2264.66	18
2265.6	25.5
2266.55	22.5
2267.49	24
2268.43	28
2269.38	20
2270.32	20.5
2271.26	19
2272.21	23
2273.15	26
2274.09	22.5
2275.04	22.5
2275.98	25
2276.92	22
2277.87	23.5
2278.81	23
2279.75	19
2280.69	21.5
2281.64	25
2282.58	22.5
2283.52	24.5
2284.46	26
2285.4	27.5
2286.34	25
2287.29	25
2288.23	22
2289.17	21.5
2290.11	21
2291.05	25
2291.99	23
2292.93	23
2293.87	22.5
2294.81	27.5
2295.75	26.5
2296.69	22
2297.63	23
2298.57	22
2299.51	23
2300.45	21.5
2301.39	20
2302.33	20.5
2303.27	23.5
2304.2	23
2305.14	20.5
2306.08	18
2307.02	22
2307.96	23
2308.9	25
2309.83	22
2310.77	24.5
2311.71	22.5
2312.65	26.5
2313.58	26.5
2314.52	24.5
2315.46	24.5
2316.39	22.5
2317.33	24.5
2318.27	20
2319.21	23
2320.14	22.5
2321.08	23.5
2322.01	26
2322.95	21.5
2323.89	25
2324.82	23.5
2325.76	20.5
2326.69	24
2327.63	22
2328.56	25.5
2329.5	21
2330.43	26
2331.37	20
2332.3	28.5
2333.24	22
2334.17	25.5
2335.1	27.5
2336.04	20
2336.97	26.5
2337.91	23
2338.84	21
2339.77	22
2340.71	22.5
2341.64	26
2342.57	25
2343.51	30
2344.44	27
2345.37	23
2346.3	22
2347.24	26.5
2348.17	26.5
2349.1	22.5
2350.03	21
2350.96	21
2351.89	25.5
2352.83	23.5
2353.76	22
2354.69	24
2355.62	24
2356.55	25.5
2357.48	24.5
2358.41	20
2359.34	20.5
2360.27	26.5
2361.2	22.5
2362.13	22
2363.06	24
2363.99	23.5
2364.92	24.5
2365.85	21.5
2366.78	21.5
2367.71	22
2368.64	26.5
2369.57	25.5
2370.5	25.5
2371.43	27
2372.36	27.5
2373.28	24
2374.21	23.5
2375.14	22.5
2376.07	27
2377	24
2377.93	25
2378.85	23
2379.78	24
2380.71	23.5
2381.63	19.5
2382.56	24.5
2383.49	25
2384.42	24
2385.34	24.5
2386.27	23
2387.2	25.5
2388.12	24
2389.05	22
2389.97	23
2390.9	24.5
2391.82	21
2392.75	25
2393.68	20
2394.6	25
2395.53	28.5
2396.45	23.5
2397.38	22
2398.3	28
2399.23	20.5
2400.15	26
2401.07	20
2402	25.5
2402.92	22.5
2403.85	28
2404.77	24
2405.69	29
2406.62	23
2407.54	24
2408.46	19.5
2409.39	25
2410.31	25
2411.23	25.5
2412.16	24.5
2413.08	23.5
2414	24.5
2414.92	26
2415.85	26
2416.77	28
2417.69	24.5
2418.61	23.5
2419.53	28.5
2420.45	25
2421.38	22.5
2422.3	24.5
2423.22	24
2424.14	24.5
2425.06	23
2425.98	28
2426.9	25
2427.82	22
2428.74	27.5
2429.66	22.5
2430.58	24.5
2431.5	23.5
2432.42	22.5
2433.34	21.5
2434.26	24
2435.18	29
2436.1	25.5
2437.02	28
2437.94	25
2438.85	22.5
2439.77	25.5
2440.69	23.5
2441.61	21
2442.53	24.5
2443.45	22.5
2444.36	23.5
2445.28	24.5
2446.2	23
2447.12	26
2448.03	25.5
2448.95	21
2449.87	23.5
2450.79	25.5
2451.7	24
2452.62	22.5
2453.54	20.5
2454.45	24
2455.37	26.5
2456.28	25.5
2457.2	20.5
2458.12	24
2459.03	23.5
2459.95	26
2460.86	25.5
2461.78	25
2462.69	28
2463.61	24
2464.52	27
2465.44	22.5
2466.35	24
2467.27	25.5
2468.18	23
2469.1	21.5
2470.01	26
2470.93	25
2471.84	25.5
2472.75	26
2473.67	24.5
2474.58	27
2475.49	22
2476.41	26
2477.32	24
2478.23	22
2479.15	24
2480.06	20.5
2480.97	22
2481.88	25
2482.79	29
2483.71	26
2484.62	23.5
2485.53	24.5
2486.44	25
2487.35	25
2488.26	23.5
2489.18	22
2490.09	26
2491	22
2491.91	26.5
2492.82	20.5
2493.73	26
2494.64	21
2495.55	25
2496.46	25
2497.37	24
2498.28	25.5
2499.19	23.5
2500.1	24
2501.01	24.5
2501.92	23.5
2502.83	27.5
2503.74	24
2504.65	22.5
2505.56	24
2506.47	20.5
2507.37	20
2508.28	25
2509.19	26
2510.1	24
2511.01	26.5
2511.92	26
2512.82	24
2513.73	24.5
2514.64	27.5
2515.55	26
2516.45	27
2517.36	22
2518.27	24.5
2519.17	24
2520.08	27
2520.99	27
2521.89	23.5
2522.8	27
2523.71	24.5
2524.61	25
2525.52	26
2526.42	24
2527.33	26.5
2528.24	20
2529.14	26
2530.05	26
2530.95	24
2531.86	24
2532.76	23.5
2533.67	25
2534.57	24
2535.48	26.5
2536.38	27.5
2537.28	29
2538.19	30
2539.09	24.5
2540	23.5
2540.9	25.5
2541.8	23
2542.71	24
2543.61	28
2544.51	24
2545.42	25
2546.32	24
2547.22	24.5
2548.12	25
2549.03	24
2549.93	23.5
2550.83	23
2551.73	24.5
2552.63	22
2553.54	26.5
2554.44	23
2555.34	28
2556.24	25.5
2557.14	25.5
2558.04	22.5
2558.94	22
2559.85	23.5
2560.75	23
2561.65	26
2562.55	22
2563.45	22
2564.35	27
2565.25	21.5
2566.15	24
2567.05	22.5
2567.95	25
2568.85	25
2569.75	23
2570.65	25.5
2571.55	25
2572.44	27
2573.34	25
2574.24	24.5
2575.14	27
2576.04	22
2576.94	21.5
2577.84	27
2578.73	21.5
2579.63	21.5
2580.53	23.5
2581.43	25
2582.33	28
2583.22	27
2584.12	24
2585.02	24.5
2585.91	28.5
2586.81	22.5
2587.71	25.5
2588.6	27
2589.5	26.5
2590.4	26
2591.29	26
2592.19	25.5
2593.09	26
2593.98	25
2594.88	23.5
2595.77	23.5
2596.67	27
2597.56	24
2598.46	25
2599.35	28
2600.25	26.5
2601.14	23
2602.04	25
2602.93	26.5
2603.83	25.5
2604.72	23
2605.62	27
2606.51	25
2607.4	27
2608.3	26
2609.19	26
2610.09	25.5
2610.98	21.5
2611.87	24.5
2612.76	27
2613.66	26
2614.55	21.5
2615.44	26
2616.34	25
2617.23	26.5
2618.12	26
2619.01	22
2619.9	28.5
2620.8	25.5
2621.69	25.5
2622.58	27
2623.47	25.5
2624.36	23
2625.25	24
2626.15	24.5
2627.04	21
2627.93	23
2628.82	23
2629.71	26
2630.6	24.5
2631.49	22
2632.38	23
2633.27	25
2634.16	24
2635.05	27.5
2635.94	25
2636.83	26
2637.72	27.5
2638.61	23.5
2639.5	23.5
2640.39	25.5
2641.28	25
2642.16	23.5
2643.05	22
2643.94	26.5
2644.83	26
2645.72	28
2646.61	24.5
2647.49	24
2648.38	28
2649.27	20
2650.16	26
2651.05	25.5
2651.93	23
2652.82	25
2653.71	27.5
2654.59	22.5
2655.48	26.5
2656.37	23.5
2657.25	26.5
2658.14	24.5
2659.03	26.5
2659.91	23
2660.8	20
2661.69	26
2662.57	23
2663.46	25.5
2664.34	24
2665.23	25
2666.11	25.5
2667	23.5
2667.88	26
2668.77	23
2669.65	25.5
2670.54	25
2671.42	20.5
2672.31	26
2673.19	20.5
2674.08	27
2674.96	27.5
2675.84	22
2676.73	26
2677.61	24
2678.49	22.5
2679.38	29
2680.26	20.5
2681.14	26.5
2682.03	23.5
2682.91	27
2683.79	24
2684.68	25.5
2685.56	25.5
2686.44	23
2687.32	21.5
2688.2	20.5
2689.09	23
2689.97	21.5
2690.85	25.5
2691.73	23
2692.61	27.5
2693.49	26
2694.38	26
2695.26	24
2696.14	24.5
2697.02	24.5
2697.9	26
2698.78	27
2699.66	23.5
2700.54	21.5
2701.42	26.5
2702.3	25.5
2703.18	28
2704.06	24
2704.94	24
2705.82	23
2706.7	21
2707.58	24
2708.46	23.5
2709.34	25
2710.21	23.5
2711.09	29
2711.97	23.5
2712.85	24
2713.73	24
2714.61	29
2715.49	25
2716.36	25.5
2717.24	23
2718.12	23
2719	29
2719.87	26
2720.75	25
2721.63	25.5
2722.51	26.5
2723.38	24
2724.26	27.5
2725.14	26
2726.01	24.5
2726.89	24
2727.77	23
2728.64	24
2729.52	22.5
2730.39	25
2731.27	22.5
2732.15	24.5
2733.02	24.5
2733.9	25
2734.77	26
2735.65	26
2736.52	24.5
2737.4	26
2738.27	20.5
2739.15	23
2740.02	26
2740.89	24
2741.77	20.5
2742.64	25
2743.52	20
2744.39	26
2745.27	23.5
2746.14	22.5
2747.01	22.5
2747.89	26.5
2748.76	22.5
2749.63	20.5
2750.51	30
2751.38	24
2752.25	24
2753.12	27
2754	21
2754.87	23
2755.74	27
2756.61	24
2757.48	25.5
2758.36	28
2759.23	27
2760.1	22.5
2760.97	26.5
2761.84	24.5
2762.71	25.5
2763.59	24
2764.46	24.5
2765.33	29
2766.2	27
2767.07	25.5
2767.94	25
2768.81	27.5
2769.68	21
2770.55	23.5
2771.42	23
2772.29	23
2773.16	28
2774.03	25
2774.9	27
2775.77	22
2776.64	28.5
2777.51	20.5
2778.37	23
2779.24	23
2780.11	27.5
2780.98	26
2781.85	26
2782.72	25
2783.59	26.5
2784.45	24
2785.32	26.5
2786.19	23.5
2787.06	24.5
2787.92	27
2788.79	25.5
2789.66	23
2790.53	26.5
2791.39	25
2792.26	23.5
2793.13	26
2793.99	25
2794.86	26
2795.73	22
2796.59	24
2797.46	27
2798.33	25.5
2799.19	26.5
2800.06	26
2800.92	26.75
2801.79	24
2802.65	29.5
2803.52	28.5
2804.39	29
2805.25	31.5
2806.11	25
2806.98	22
2807.84	26.5
2808.71	26
2809.57	28.5
2810.44	25
2811.3	25
2812.17	24
2813.03	25.5
2813.89	26.5
2814.76	26
2815.62	26
2816.49	25
2817.35	27
2818.21	27
2819.07	28
2819.94	26.5
2820.8	27.5
2821.66	24.5
2822.53	26.5
2823.39	21.5
2824.25	27
2825.11	27
2825.97	23
2826.84	24.5
2827.7	26.5
2828.56	25.5
2829.42	25
2830.28	26
2831.14	26.5
2832.01	28
2832.87	25
2833.73	23
2834.59	28
2835.45	28
2836.31	26.5
2837.17	26
2838.03	22.5
2838.89	25
2839.75	23
2840.61	27.5
2841.47	28
2842.33	24
2843.19	25
2844.05	25
2844.91	26.5
2845.77	26
2846.63	28.5
2847.48	26
2848.34	26
2849.2	24.5
2850.06	22.5
2850.92	25.5
2851.78	28
2852.64	24.5
2853.49	27
2854.35	28
2855.21	27
2856.07	24
2856.93	26
2857.78	22
2858.64	26.5
2859.5	28.5
2860.35	24
2861.21	29.5
2862.07	23
2862.93	28.5
2863.78	22
2864.64	27.5
2865.49	25.5
2866.35	28.5
2867.21	27
2868.06	30.5
2868.92	26.5
2869.77	29.5
2870.63	31
2871.49	29
2872.34	32
2873.2	28
2874.05	26.5
2874.91	29.5
2875.76	30
2876.62	30.5
2877.47	27.5
2878.32	32
2879.18	31
2880.03	29.5
2880.89	28.5
2881.74	30
2882.6	30.5
2883.45	29
2884.3	27.5
2885.16	32
2886.01	36.5
2886.86	38
2887.72	32
2888.57	34.5
2889.42	31
2890.27	38.5
2891.13	38
2891.98	40
2892.83	41.5
2893.68	40.5
2894.54	43.5
2895.39	42.5
2896.24	45
2897.09	53
2897.94	54.5
2898.8	54.5
2899.65	62.5
2900.5	60
2901.35	61.5
2902.2	61
2903.05	72.5
2903.9	70
2904.75	67.5
2905.6	69.5
2906.45	68
2907.3	72
2908.15	65
2909.01	67
2909.85	64
2910.7	63
2911.55	63
2912.4	51
2913.25	59
2914.1	53.5
2914.95	48.5
2915.8	45
2916.65	41.5
2917.5	40
2918.35	41.5
2919.2	33.5
2920.04	40
2920.89	37.5
2921.74	33
2922.59	30.5
2923.44	37
2924.29	33
2925.13	31
2925.98	30
2926.83	33.5
2927.68	28
2928.52	30
2929.37	28
2930.22	31.5
2931.06	28
2931.91	29.5
2932.76	27
2933.6	29
2934.45	30
2935.3	27
2936.14	27
2936.99	29
2937.83	30.5
2938.68	27
2939.53	26
2940.37	30
2941.22	27.5
2942.06	28
2942.91	32
2943.75	32.5
2944.6	25.5
2945.44	29
2946.29	26.5
2947.13	30
2947.98	30.5
2948.82	29.5
2949.66	30
2950.51	26.5
2951.35	32
2952.2	36
2953.04	31
2953.88	34.5
2954.73	34
2955.57	33.5
2956.41	31.5
2957.26	37
2958.1	37.5
2958.94	37.5
2959.79	41.5
2960.63	42
2961.47	39
2962.31	40.5
2963.15	47
2964	51.5
2964.84	42.5
2965.68	43
2966.52	46
2967.37	47
2968.21	41
2969.05	44
2969.89	40.5
2970.73	39
2971.57	38.4976
2972.41	33.9792
2973.25	36.0993
2974.09	39.9884
2974.93	33.891
2975.77	37.2206
2976.62	35.4216
2977.46	34.709
2978.3	28.4212
2979.14	32.0349
2979.98	30.5298
2980.81	29.6282
2981.65	30.477
2982.49	25.5104
2983.33	28.2544
2984.17	25.4261
2985.01	31.5575
2985.85	26.2462
2986.69	26.9267
2987.53	28.1981
2988.37	27.1609
2989.21	25.8528
2990.04	24.7161
2990.88	24.3559
2991.72	26.6932
2992.56	24.4635
2993.4	26.7107
2994.23	24.4287
2995.07	28.5655
2995.91	27.7407
2996.75	26.0377
2997.58	24.5498
2998.42	26.2684
2999.26	25.4576
3000.1	27.7316
3000.93	23.5162
3001.77	25.813
3002.61	21.4708
3003.44	25.6571
3004.28	27.1594
3005.11	22.9855
3005.95	24.3659
3006.79	24.7937
3007.62	24.933
3008.46	25.1128
3009.29	23.4892
3010.13	22.8724
3010.97	20.8404
3011.8	21.9924
3012.64	23.6603
3013.47	21.9455
3014.31	22.5904
3015.14	24.0886
3015.98	23.4612
3016.81	23.9372
3017.64	24.1534
3018.48	22.4699
3019.31	21.9169
3020.15	23.5428
3020.98	22.8056
3021.82	23.5741
3022.65	25.7792
3023.48	24.5992
3024.32	24.4874
3025.15	22.8823
3025.98	21.2888
3026.82	21.1489
3027.65	23.1633
3028.48	24.1257
3029.31	24.8536
3030.15	22.9208
3030.98	22.4493
3031.81	22.9269
3032.64	23.784
3033.48	24.5
3034.31	23.5393
3035.14	24.4622
3035.97	21.9425
3036.8	19.5243
3037.64	21.3239
3038.47	23.3206
3039.3	23.4288
3040.13	23.444
3040.96	23.3931
3041.79	22.0807
3042.62	21.9813
3043.45	23.4861
3044.28	22.352
3045.12	23.3606
3045.95	24.8363
3046.78	22.2635
3047.61	21.7874
3048.44	22.551
3049.27	22.6383
3050.1	22.7685
3050.92	21.9966
3051.75	22.3138
3052.58	24.3658
3053.41	23.3947
3054.24	24.0671
3055.07	23.7851
3055.9	24.7813
3056.73	21.5438
3057.26	22.5
3058.09	25
3058.93	21
3059.76	24
3060.59	22
3061.43	26
3062.26	20.5
3063.09	20
3063.92	24
3064.76	21
3065.59	23.5
3066.42	20.5
3067.25	19
3068.08	20
3068.92	25
3069.75	24
3070.58	22
3071.41	22
3072.24	24.5
3073.07	24
3073.9	21
3074.73	24
3075.57	22
3076.4	23.5
3077.23	23.5
3078.06	21.5
3078.89	22.5
3079.72	23.5
3080.55	24
3081.38	27.5
3082.21	23
3083.04	21.5
3083.87	23
3084.7	22.5
3085.53	24
3086.36	21.5
3087.19	25.5
3088.01	21
3088.84	25
3089.67	22.5
3090.5	24.5
3091.33	25
3092.16	23
3092.99	25.5
3093.81	28.5
3094.64	27
3095.47	24
3096.3	25.5
3097.13	23
3097.95	24
3098.78	23
3099.61	23
3100.44	23.5
3101.26	24
3102.09	25
3102.92	25.5
3103.74	24
3104.57	19
3105.4	23.5
3106.22	24
3107.05	23.5
3107.88	21
3108.7	24
3109.53	25
3110.35	24
3111.18	23.5
3112.01	23
3112.83	23
3113.66	22.5
3114.48	23
3115.31	26
3116.13	24.5
3116.96	25.5
3117.78	21.5
3118.61	23
3119.43	21
3120.26	25
3121.08	23
3121.9	25
3122.73	24
3123.55	21
3124.38	23
3125.2	23
3126.02	29
3126.85	24
3127.67	23.5
3128.49	24
3129.32	26
3130.14	25
3130.96	21
3131.79	23
3132.61	22
3133.43	18
3134.25	21.5
3135.08	21
3135.9	21
3136.72	23.5
3137.54	24
3138.37	24.5
3139.19	24
3140.01	27.5
3140.83	22.5
3141.65	25
3142.47	24.5
3143.29	27
3144.12	27.5
3144.94	21
3145.76	25
3146.58	26
3147.4	24
3148.22	20.5
3149.04	24.5
3149.86	23
3150.68	26.5
3151.5	26
3152.32	21
3153.14	25
3153.96	23
3154.78	22
3155.6	22
3156.42	26.5
3157.24	23.5
3158.06	24
3158.88	27.5
3159.7	23
3160.51	24
3161.33	20
3162.15	20
3162.97	27.5
3163.79	20
3164.61	26
3165.42	22
3166.24	26
3167.06	20.5
3167.88	21.5
3168.7	26
3169.51	23
3170.33	21
3171.15	26.5
3171.97	25.5
3172.78	24
3173.6	22.5
3174.42	25
3175.23	23.5
3176.05	25
3176.87	27
3177.68	23.5
3178.5	26
3179.32	25
3180.13	24.5
3180.95	21.5
3181.76	26
3182.58	23
3183.4	19
3184.21	26
3185.03	24
3185.84	25
3186.66	27
3187.47	20.5
3188.29	26
3189.1	24
3189.92	24
3190.73	23
3191.55	23.5
3192.36	22
3193.17	20
3193.99	20
3194.8	25
3195.62	22.5
3196.43	24
3197.24	24
3198.06	20
3198.87	22.5
3199.68	25
3200.5	27
3201.31	25
3202.12	24.5
3202.94	26.5
3203.75	21
3204.56	26
3205.38	22.5
3206.19	27.5
3207	24
3207.81	24
3208.62	20
3209.44	23.5
3210.25	19
3211.06	23.5
3211.87	23
3212.68	25
3213.49	24
3214.31	21
3215.12	21
3215.93	25
3216.74	23
3217.55	21.5
3218.36	25
3219.17	22
3219.98	23
3220.79	22.5
3221.6	20
3222.41	21
3223.22	25.5
3224.03	26
3224.84	24
3225.65	23.5
3226.46	23
3227.27	24
3228.08	22.5
3228.89	22
3229.7	25
3230.51	23.5
3231.32	22
3232.13	21
3232.94	27.5
3233.74	25.5
3234.55	23
3235.36	20.5
3236.17	24
3236.98	23
3237.78	25
3238.59	23
3239.4	25.5
3240.21	24
3241.02	23
3241.82	24
3242.63	24.5
3243.44	21.5
3244.25	24.5
3245.05	22
3245.86	21.5
3246.67	22
3247.47	21.5
3248.28	24
3249.09	24
3249.89	28.5
3250.7	23.5
3251.5	20
3252.31	26.5
3253.12	26.5
3253.92	25.5
3254.73	21.5
3255.53	25
3256.34	23
3257.14	24
3257.95	27.5
3258.75	19
3259.56	21
3260.36	24.5
3261.17	23
3261.97	24
3262.78	27.5
3263.58	23.5
3264.39	24
3265.19	22
3265.99	24.5
3266.8	26
3267.6	22
3268.41	23.5
3269.21	24
3270.01	19
3270.82	25
3271.62	25
3272.42	23
3273.23	26
3274.03	21
3274.83	21.5
3275.64	25
3276.44	23
3277.24	24.5
3278.04	22
3278.85	26.5
3279.65	19
3280.45	23
3281.25	24.5
3282.05	23
3282.85	25
3283.66	26
3284.46	23.5
3285.26	22.5
3286.06	25
3286.86	23
3287.66	23.5
3288.46	25
3289.27	25.5
3290.07	21.5
3290.87	23.5
3291.67	23
3292.47	21.5
3293.27	25
3294.07	23
3294.87	24
3295.67	26
3296.47	20
3297.27	24.5
3298.07	22.5
3298.87	22.5
3299.67	27.5
3300.47	24
3301.26	22
3302.06	23
3302.86	26
3303.66	24
3304.46	24.5
3305.26	22
3306.06	26.5
3306.86	23.5
3307.65	23
3308.45	21.5
3309.25	26
3310.05	25
3310.85	26
3311.64	26
3312.44	26.5
3313.24	22
3314.04	21
3314.83	23.5
3315.63	24.5
3316.43	22
3317.22	22
3318.02	21.5
3318.82	28
3319.62	24
3320.41	23
3321.21	23
3322	22
3322.8	24.5
3323.6	25.5
3324.39	24
3325.19	24
3325.98	21.5
3326.78	24
3327.58	22
3328.37	25
3329.17	20.5
3329.96	24.5
3330.76	28.5
3331.55	22.5
3332.35	26
3333.14	29.5
3333.94	24
3334.73	22.5
3335.52	23.5
3336.32	25.5
3337.11	25
3337.91	27
3338.7	28.5
3339.5	25.5
3340.29	23.5
3341.08	25
3341.88	24.5
3342.67	25.5
3343.46	26.5
3344.26	21
3345.05	27
3345.84	22.5
3346.63	25
3347.43	26.5
3348.22	24
3349.01	29
3349.8	22.5
3350.6	25
3351.39	25
3352.18	21.5
3352.97	27
3353.77	24
3354.56	24
3355.35	24
3356.14	27
3356.93	25
3357.72	25.5
3358.51	21.5
3359.31	21
3360.1	21.5
3360.89	27
3361.68	25.5
3362.47	25
3363.26	27.5
3364.05	27
3364.84	22
3365.63	24
3366.42	24.5
3367.21	23
3368	21
3368.79	24.5
3369.58	22.5
3370.37	28
3371.16	28.5
3371.95	25
3372.74	25.5
3373.53	25
3374.32	25.5
3375.1	23.5
3375.89	22
3376.68	23
3377.47	21.5
3378.26	25
3379.05	21
3379.84	25
3380.62	25
3381.41	25
3382.2	28
3382.99	21
3383.78	27.5
3384.56	24
3385.35	24
3386.14	25
3386.93	23
3387.71	22
3388.5	29
3389.29	20
3390.07	26.5
3390.86	25
3391.65	24.5
3392.43	20
3393.22	26
3394.01	27.5
3394.79	23.5
3395.58	23
3396.36	24
3397.15	19
3397.94	26
3398.72	24.5
3399.51	23.5
3400.29	23.5
3401.08	25
3401.86	28.5
3402.65	26
3403.43	24.5
3404.22	25.5
3405	23.5
3405.79	22
3406.57	28
3407.36	22
3408.14	26
3408.93	27.5
3409.71	21
3410.49	28
3411.28	24
3412.06	19
3412.84	23.5
3413.63	26
3414.41	23
3415.2	24.5
3415.98	26
3416.76	23.5
3417.54	27.5
3418.33	28.5
3419.11	26.5
3419.89	24
3420.68	24
3421.46	25.5
3422.24	24.5
3423.02	22
3423.81	23.5
3424.59	26
3425.37	22.5
3426.15	25.5
3426.93	20.5
3427.71	22.5
3428.5	25
3429.28	23
3430.06	24.5
3430.84	26
3431.62	23.5
3432.4	21
3433.18	25.5
3433.96	28
3434.75	23.5
3435.53	25
3436.31	20
3437.09	24.5
3437.87	26
3438.65	26
3439.43	23.5
3440.21	26
3440.99	21.5
3441.77	25
3442.55	21
3443.33	28
3444.1	21.5
3444.88	26
3445.66	25
3446.44	25.5
3447.22	21.5
3448	27
3448.78	22.5
3449.56	29
3450.34	20.5
3451.11	22
3451.89	21
3452.67	22
3453.45	27
3454.23	22.5
3455	24.5
3455.78	25.5
3456.56	25
3457.34	23
3458.11	24.5
3458.89	21
3459.67	23.5
3460.45	23.5
3461.22	23.5
3462	27
3462.78	21
3463.55	25
3464.33	28
3465.11	22
3465.88	24
3466.66	25.5
3467.44	23
3468.21	24.5
3468.99	23
3469.76	23.5
3470.54	27.5
3471.32	21.5
3472.09	23.5
3472.87	25
3473.64	22
3474.42	20
3475.19	26.5
3475.97	19
3476.74	24.5
3477.52	22.5
3478.29	27
3479.07	27.5
3479.84	26
3480.61	23
3481.39	20.5
3482.16	21
3482.94	26
3483.71	23
3484.48	21
3485.26	23.5
3486.03	26
3486.81	23.5
3487.58	22
3488.35	26
3489.13	22
3489.9	21.5
3490.67	24
3491.44	28
3492.22	19.5
3492.99	24.5
3493.76	26
3494.54	21
3495.31	25.5
3496.08	27
3496.85	23
3497.62	25.5
3498.4	21.5
3499.17	24.5
3499.94	21.5
