#Acq. time (s)=	5
#Accumulations=	5
#Range (cm-¹)=	100...3500
#Windows=	4
#Autofocus=	Off
#AutoExposure=	Off
#Spike filter=	Multiple accum.
#Delay time (s)=	0
#Binning=	1
#Readout mode=	Signal
#DeNoise=	Off
#ICS correction=	Off
#Dark correction=	Off
#Inst. Process=	Off
#Instrument=	LabRAM HR Evol
#Detector=	Syncerity OE
#Objective=	x100_VIS
#Grating=	600 (500nm)
#ND Filter=	25%
#Laser=	633nm_Edge
#Hole=	100.021
#Range=	Visible
#Project=	verificaciones
#Sample=	at3
#Site=	lined
#Title=	bolusat3lined
#Remark=	
#Date=	14.01.2026 12:58
#Acquired=	14.01.2026 12:58:55
100.618	26.5
101.901	33.5
103.185	35
104.468	31.5
105.751	32.5
107.033	29
108.316	31
109.598	31
110.88	24
112.162	29.5
113.445	31.5
114.727	31
116.008	29.5
117.289	33
118.57	29.5
119.85	31
121.13	33.5
122.411	30
123.691	28
124.97	30
126.25	29.5
127.529	29.5
128.808	27
130.086	28.5
131.364	34.5
132.643	31
133.921	38.5
135.199	33
136.477	32.5
137.755	33
139.032	34.5
140.309	37
141.586	38.5
142.863	28.5
144.14	37
145.415	35.5
146.691	32
147.967	35.5
149.243	35
150.518	37
151.794	36.5
153.067	36.5
154.342	39
155.617	37.5
156.892	37.5
158.166	37
159.439	42.5
160.712	35.5
161.986	39
163.26	35
164.531	38.5
165.805	34.5
167.077	41
168.35	37
169.621	38.5
170.893	35.5
172.165	37
173.437	35
174.707	36
175.979	37.5
177.25	38
178.519	38
179.79	39.5
181.061	36
182.33	40.5
183.6	35
184.87	33
186.138	37.5
187.408	41
188.676	36
189.945	33.5
191.214	37
192.481	38.5
193.75	38.5
195.016	38
196.285	35
197.552	37
198.819	37
200.086	33
201.352	37
202.619	37
203.884	36
205.151	33.5
206.416	34
207.682	37.5
208.947	35.5
210.213	35
211.477	31
212.742	35
214.006	34
215.271	32
216.535	32
217.799	34.5
219.062	34
220.326	36
221.589	35.5
222.851	29.5
224.115	33.5
225.377	30.5
226.64	33
227.901	29.5
229.163	33
230.425	31.5
231.686	30
232.947	30.5
234.209	28
235.469	34.5
236.729	30
237.991	29.5
239.25	31
240.51	29
241.771	30.5
243.03	29
244.288	27.5
245.549	29
246.807	31.5
248.065	30.5
249.323	25
250.583	30.5
251.84	26.5
253.098	28.5
254.355	30.5
255.613	30.5
256.87	26
258.127	26.5
259.383	27
260.639	31
261.897	24
263.153	29
264.408	30
265.664	29
266.919	30
268.174	29
269.43	33
270.685	29
271.939	27
273.193	27
274.447	27
275.701	28
276.955	28.5
278.208	32.5
279.461	25.5
280.714	32
281.968	28
283.221	29
284.473	29
285.726	28.5
286.977	30
288.229	33
289.481	30
290.732	31.5
291.983	31
293.234	31.5
294.485	33
295.736	26.5
296.986	30
298.236	28.5
299.486	25
300.736	27
301.985	28
303.233	30.5
304.482	31
305.731	30
306.98	29.5
308.228	25
309.477	29
310.725	29.5
311.973	27.5
313.22	31
314.468	29
315.714	28.5
316.961	29.5
318.208	27
319.455	31
320.701	32.5
321.947	27
323.192	29.5
324.438	30.5
325.684	30
326.929	24
328.175	27.5
329.418	28
330.663	29
331.908	29.5
333.152	27.5
334.395	31
335.639	29.5
336.883	28.5
338.127	28
339.369	29
340.612	27
341.855	31
343.097	29
344.34	27
345.582	28
346.823	30
348.065	29.5
349.307	28
350.547	31
351.789	28
353.03	28.5
354.27	29
355.511	30.5
356.75	25
357.991	30.5
359.231	25.5
360.47	25
361.709	25
362.948	32
364.187	32
365.427	32
366.664	27
367.903	29.5
369.14	25
370.379	33.5
371.616	30
372.854	29.5
374.091	24
375.328	24
376.564	28.5
377.802	28
379.037	28
380.274	34
381.51	30
382.745	27
383.981	34
385.216	26
386.452	28.5
387.686	29
388.922	29.5
390.155	27.5
391.389	28
392.624	30
393.857	29
395.091	26.5
396.325	28
397.558	28.5
398.79	26.5
400.024	30
401.256	29.5
402.488	29.5
403.721	32.5
404.953	25
406.184	29.5
407.417	26.5
408.648	30.5
409.878	27
411.109	29
412.341	26
413.571	29
414.801	29
416.031	26
417.262	26
418.491	26
419.72	27
420.949	25
422.178	26.5
423.408	28
424.637	27
425.865	30
427.093	26
428.32	25.5
429.548	24.5
430.777	28.5
432.004	28
433.231	30
434.458	29
435.685	27.5
436.911	34.5
438.137	26.5
439.363	28
440.589	29
441.815	31
443.042	29
444.267	27.5
445.492	26.5
446.717	26
447.942	26.5
449.166	27
450.39	29.5
451.615	28
452.838	29
454.062	24
455.286	30
456.509	31.5
457.732	33.5
458.955	25.5
460.178	32
461.399	33.5
462.621	29.5
463.843	28
465.065	31.5
466.287	28.5
467.508	28
468.73	29
469.951	33.5
471.172	30.5
472.393	35.5
473.612	35
474.832	35
476.052	33
477.272	40.5
478.492	39
479.712	40.5
480.93	38.5
482.149	48
483.368	44
484.587	48
485.806	53
487.023	51
488.241	49
489.459	54.5
490.677	53
491.893	53
493.111	49
494.328	49
495.543	47.5
496.76	46.5
497.977	41.5
499.194	42.5
500.409	43
501.625	39
502.841	34
504.055	39
505.27	37
506.486	34
507.699	32.5
508.914	37.5
510.128	32.5
511.342	37
512.557	35.5
513.77	35.5
514.984	34.5
516.196	35
517.41	34
518.623	30.5
519.835	29
521.048	27
522.259	30.5
523.472	30
524.683	31
525.895	26
527.106	27
528.318	28.5
529.528	24.5
530.74	31.5
531.949	35
533.161	25.5
534.37	31
535.581	28
536.79	26.5
537.999	29
539.209	30
540.418	28
541.627	28
542.835	28
544.043	28.5
545.253	28
546.46	31
547.669	33
548.876	28
550.083	27
551.292	28.5
552.498	31
553.705	31
554.912	26
556.118	30
557.324	27
558.53	23
559.737	28
560.942	31
562.147	26.5
563.353	30.5
564.558	30
565.763	28.5
566.967	28
568.173	28.5
569.377	32
570.58	28
571.784	27.5
572.987	30.5
574.192	30.5
575.395	33.5
576.598	27
577.8	27
579.003	31
580.205	28.5
581.407	28
582.61	28
583.812	28
585.014	28
586.215	26.5
587.416	28
588.617	28
589.818	29
591.018	30
592.219	26
593.419	30.5
594.619	28
595.819	24.5
597.02	31
598.219	26.5
599.418	26
600.617	24.5
601.816	27
603.015	28
604.213	25.5
605.41	27
606.608	30.5
607.806	31.5
609.004	26
610.201	27.5
611.399	32
612.596	27
613.793	31
614.989	32
616.186	31
617.382	33
618.579	25
619.775	31.5
620.969	29.5
622.165	25
623.36	27.5
624.555	35.5
625.75	28
626.945	30.5
628.139	26.5
629.333	28.5
630.527	29.5
631.721	31
632.915	27
634.108	27.5
635.301	29
636.495	30.5
637.688	30
638.88	27.5
640.072	29
641.265	31
642.456	30.5
643.648	29
644.84	27
646.032	28.5
647.222	31
648.414	27
649.605	31.5
650.795	31
651.986	33
653.177	30
654.366	28
655.556	27
656.745	32
657.935	27
659.125	30.5
660.313	29
661.503	29.5
662.69	27
663.879	28.5
665.067	29.5
666.256	31.5
667.444	25.5
668.631	27.5
669.819	27.5
671.006	27
672.194	29
673.38	34
674.567	28.5
675.753	30
676.94	31.5
678.125	25
679.311	29.5
680.497	34
681.682	32.5
682.868	38
684.053	39.5
685.238	29
686.422	32.5
687.606	38
688.792	31
689.975	30
691.159	33
692.343	30
693.526	33
694.71	31
695.893	33
697.076	36
698.259	33
699.441	40
700.623	31
701.805	40.5
702.988	34.5
704.169	42.5
705.35	43
706.533	45
707.714	44.5
708.894	43.5
710.075	46.5
711.255	44
712.436	40
713.616	40
714.796	37
715.975	36
717.155	33
718.335	30.5
719.514	32
720.693	34
721.872	35.5
723.05	33
724.228	33.5
725.406	26
726.585	26
727.763	26.5
728.941	30
730.118	30
731.295	29
732.472	32
733.649	27
734.825	29
736.002	30.5
737.178	28.5
738.354	29.5
739.53	26
740.705	26
741.881	28.5
743.056	29
744.231	25.5
745.406	28.5
746.581	25.5
747.755	24
748.93	26.5
750.104	29
751.278	27
752.452	28
753.625	29
754.799	29
755.972	29
757.144	25.5
758.317	28
759.489	23
760.662	27
761.834	27
763.006	28
764.178	25
765.349	27.5
766.521	29
767.692	29.5
768.863	27.5
770.034	23
771.204	31
772.374	30
773.545	29
774.715	30.5
775.885	29
777.054	31
778.224	30
779.393	25
780.562	27
781.731	30.5
782.9	30
784.069	33.5
785.236	29
786.405	33.5
787.573	29
788.74	32.5
789.908	31
791.074	30.5
792.242	31
793.409	27
794.575	34
795.742	29
796.909	33
798.074	27.5
799.241	28
800.406	27
801.572	29
802.737	26.5
803.902	32.5
805.067	27
806.232	28
807.396	26
808.561	30.5
809.725	26.5
810.889	31
812.052	27
813.217	28
814.38	28
815.544	30
816.706	28
817.87	23
819.032	29.5
820.195	29.5
821.357	31
822.518	28.5
823.681	26.5
824.842	29
826.005	25.5
827.165	29.5
828.326	28.5
829.488	28
830.648	26.5
831.808	26
832.97	24
834.129	29
835.289	28
836.45	30.5
837.609	30
838.768	28.5
839.927	27.5
841.087	28.5
842.245	28.5
843.404	28.5
844.562	26.5
845.721	25
846.879	30.5
848.036	26
849.194	30
850.351	27
851.509	31.5
852.666	28
853.823	28.5
854.979	29
856.136	32.5
857.292	29.5
858.448	28
859.605	21
860.761	29
861.916	30.5
863.071	35
864.226	31.5
865.381	30
866.536	26
867.691	30
868.845	28.5
869.999	25
871.153	30
872.307	30
873.461	30
874.614	27
875.767	29
876.92	29.5
878.073	29.5
879.226	30
880.379	29
881.531	28.5
882.683	27.5
883.835	27.5
884.987	23
886.139	28.5
887.291	26
888.442	31
889.593	28.5
890.743	27
891.893	26
893.044	26
894.195	28.5
895.345	28
896.495	29
897.643	26.5
898.793	26
899.943	31
901.092	29.5
902.241	25.5
903.389	22.5
904.538	27
905.687	31.5
906.835	25
907.982	25
909.13	26
910.278	27
911.426	24.5
912.572	28
913.72	28.5
914.867	26
916.013	26.5
917.16	30
918.306	21
919.451	28.5
920.598	32
921.744	26
922.889	23.5
924.035	27.5
925.18	28
926.324	26
927.47	26.5
928.614	27.5
929.758	29
930.902	27
932.047	32.5
933.191	24.5
934.334	29.5
935.478	23.5
936.621	26
937.764	28.5
938.906	29
940.05	30
941.192	29
942.335	26.5
943.476	30
944.619	22
945.76	27.5
946.901	22.5
948.043	27.5
949.184	23
950.326	27.5
951.466	29.5
952.606	27
953.747	30.5
954.887	28
956.028	30
957.167	27.5
958.307	25
959.447	27.5
960.586	25.5
961.725	29
962.865	26
964.003	27
965.141	28
966.279	27
967.418	27
968.556	28.5
969.693	27.5
970.831	28.5
971.969	29.5
973.106	27.5
974.243	25.5
975.38	28
976.517	25.5
977.654	28
978.79	22
979.926	27
981.061	28
982.197	25
983.334	24
984.469	28
985.604	23.5
986.739	28
987.873	25.5
989.008	25
990.142	25
991.277	26.5
992.411	27
993.544	26
994.679	27
995.813	27
996.946	25
998.079	26.5
999.212	27
1000.35	27.5
1001.48	31
1002.61	27
1003.74	21.5
1004.87	25.5
1006.01	26
1007.14	24
1008.27	31.5
1009.4	25
1010.53	29
1011.66	28
1012.79	24
1013.92	23
1015.05	29.5
1016.18	24
1017.31	25
1018.44	23.5
1019.57	24
1020.7	26
1021.83	22.5
1022.96	26
1024.09	27
1025.22	24.5
1026.35	28
1027.48	26.5
1028.6	27.5
1029.73	27
1030.86	23.5
1031.99	26
1033.12	25.5
1034.24	23.5
1035.37	24
1036.5	28.5
1037.62	27.5
1038.75	26
1039.88	28
1041	28
1042.13	24.5
1043.25	23
1044.38	26.5
1045.5	25.5
1046.63	28
1047.76	25
1048.88	27.5
1050	28
1051.13	29
1052.25	25
1053.38	30
1054.5	25.5
1055.63	26
1056.75	28
1057.87	27.5
1058.99	26
1060.12	21.5
1061.24	26.5
1062.36	27.5
1063.49	28
1064.61	26
1065.73	29
1066.85	25
1067.97	26.5
1069.1	26
1070.22	26
1071.34	28
1072.46	28.5
1073.58	25
1074.7	27
1075.82	26.5
1076.94	27
1078.06	27
1079.18	24
1080.3	28
1081.42	25
1082.54	25.5
1083.66	23
1084.78	28.5
1085.9	25
1087.02	28.5
1088.13	23
1089.25	30
1090.37	26
1091.49	26
1092.61	26
1093.72	27
1094.84	26
1095.96	24
1097.08	21
1098.19	26
1099.31	25.5
1100.42	27.5
1101.54	27.5
1102.66	25
1103.77	24
1104.89	25.5
1106	23.5
1107.12	24
1108.23	24.5
1109.35	29.5
1110.46	25
1111.58	28.5
1112.69	27
1113.81	29.5
1114.92	26
1116.04	27.5
1117.15	27
1118.26	20.5
1119.38	30.5
1120.49	22
1121.6	25.5
1122.72	27
1123.83	24
1124.94	25.5
1126.05	26
1127.17	23.5
1128.28	24
1129.39	26
1130.5	25
1131.61	26
1132.72	26
1133.83	30.5
1134.94	28
1136.06	27
1137.17	23.5
1138.27	26
1139.39	24.5
1140.5	28
1141.61	26.5
1142.72	26
1143.82	23.5
1144.93	26
1146.04	25
1147.15	27
1148.26	27.5
1149.37	21.5
1150.48	27
1151.58	21
1152.69	26
1153.8	24
1154.91	26.5
1156.02	26
1157.12	24
1158.23	27
1159.34	24
1160.44	26.5
1161.55	25
1162.66	23.5
1163.76	25
1164.87	25
1165.97	23.5
1167.08	24.5
1168.18	24
1169.29	28
1170.39	27
1171.5	25
1172.6	25.5
1173.71	21
1174.81	24.5
1175.92	25
1177.02	25
1178.13	24
1179.23	26
1180.33	25
1181.44	21.5
1182.54	25.5
1183.64	22
1184.74	27.5
1185.85	24
1186.95	24.5
1188.05	21
1189.15	28
1190.26	19.5
1191.36	24.5
1192.46	25.5
1193.56	26.5
1194.66	22.015
1195.76	27.3986
1196.86	23.1068
1197.96	25.9979
1199.06	26.904
1200.16	25.7611
1201.26	24.3497
1202.36	26.3513
1203.46	21.2141
1204.56	25.5416
1205.66	21.8058
1206.76	26.7038
1207.86	25.4753
1208.96	25.7967
1210.06	24.4781
1211.16	24.1487
1212.25	23.7597
1213.35	24.7443
1214.45	27.9233
1215.55	25.0588
1216.65	25.7959
1217.74	27.364
1218.84	26.2056
1219.94	23.4171
1221.03	26.7344
1222.13	23.4849
1223.23	22.9235
1224.32	23.8439
1225.42	26.577
1226.52	29.8698
1227.61	26.4111
1228.71	25.7966
1229.8	26.6888
1230.9	23.9868
1231.99	23.3617
1233.09	23.2983
1234.18	23.8742
1235.28	24.2995
1236.37	26.0878
1237.47	23.7323
1238.56	28.2863
1239.65	21.2983
1240.75	24.5934
1241.84	27.3391
1242.93	25.4749
1244.03	25.4232
1245.12	26.436
1246.21	22.7488
1247.31	23.8849
1248.4	22.7209
1249.49	25.899
1250.58	24.1237
1251.67	24.3625
1252.77	25.8467
1253.86	27.2745
1254.95	24.4309
1256.04	23.6634
1257.13	25.6686
1258.22	25.9791
1259.31	26.1092
1260.4	28.0446
1261.49	25.6568
1262.58	26.966
1263.67	27.5271
1264.76	25.3599
1265.85	25.2115
1266.94	27.7659
1268.03	26.5639
1269.12	25.2484
1270.21	24.7341
1271.3	23.916
1272.39	24.7036
1273.47	25.7163
1274.56	24.5203
1275.65	23.6552
1276.74	23.4113
1277.83	26.4644
1278.91	24.2381
1280	23.3767
1281.09	25.2633
1282.17	26.7156
1283.26	24.6021
1284.35	21.6513
1285.43	23.4663
1286.52	23.7665
1287.61	24.2519
1288.69	26.1243
1289.78	24.7519
1290.86	25.1702
1291.95	25.2711
1293.03	26.5658
1294.12	23.9939
1295.2	23.915
1296.29	23.6512
1297.37	25.1722
1298.46	25.7129
1299.54	23.0958
1300.63	23.9329
1301.71	26.1262
1302.79	25.7504
1303.88	25.0879
1304.96	24.6136
1306.04	23.7117
1306.5	23.5
1307.59	20
1308.68	25
1309.76	23
1310.85	21.5
1311.94	28
1313.03	23
1314.11	24
1315.2	22
1316.29	25
1317.37	25
1318.46	23.5
1319.55	25.5
1320.63	24.5
1321.72	24.5
1322.81	25
1323.89	26.5
1324.98	23
1326.06	24
1327.15	26
1328.23	23.5
1329.32	23.5
1330.4	26
1331.49	23
1332.57	26
1333.66	25.5
1334.74	25
1335.82	22
1336.91	26.5
1337.99	24.5
1339.07	28.5
1340.16	22
1341.24	24
1342.32	23.5
1343.4	30.5
1344.49	25.5
1345.57	26
1346.65	23
1347.73	23.5
1348.82	26
1349.9	24
1350.98	22
1352.06	26
1353.14	24
1354.22	29.5
1355.3	25
1356.38	26.5
1357.46	24
1358.54	23
1359.62	20.5
1360.7	29.5
1361.78	24
1362.86	21.5
1363.94	23
1365.02	27.5
1366.1	26
1367.18	26
1368.26	24.5
1369.34	25.5
1370.41	25.5
1371.49	24.5
1372.57	26
1373.65	27.5
1374.72	25
1375.8	29
1376.88	27
1377.96	25
1379.03	28
1380.11	26.5
1381.19	25.5
1382.26	24
1383.34	26.5
1384.42	23
1385.49	27
1386.57	29.5
1387.64	28
1388.72	27
1389.79	26
1390.87	23
1391.94	25
1393.02	25
1394.09	29
1395.17	26
1396.24	28
1397.31	27
1398.39	26
1399.46	24
1400.54	31.5
1401.61	26
1402.68	26.5
1403.76	26
1404.83	27
1405.9	28
1406.97	25.5
1408.05	30
1409.12	28.5
1410.19	28
1411.26	29
1412.33	24.5
1413.4	29
1414.48	32
1415.55	32
1416.62	27
1417.69	26.5
1418.76	26.5
1419.83	29
1420.9	29
1421.97	30
1423.04	22.5
1424.11	28
1425.18	30.5
1426.25	24.5
1427.32	26
1428.39	26
1429.46	27.5
1430.52	24
1431.59	26
1432.66	27
1433.73	23
1434.8	19.5
1435.87	27
1436.93	25
1438	22.5
1439.07	25.5
1440.14	28
1441.2	28
1442.27	26
1443.34	25
1444.4	27.5
1445.47	24.5
1446.54	26
1447.6	24.5
1448.67	31.5
1449.73	27
1450.8	25.5
1451.86	22.5
1452.93	29.5
1453.99	26.5
1455.06	27
1456.12	24
1457.19	26.5
1458.25	25
1459.32	25
1460.38	27
1461.45	23.5
1462.51	27
1463.57	29
1464.64	26
1465.7	27.5
1466.76	25
1467.82	26.5
1468.89	23.5
1469.95	24.5
1471.01	27
1472.07	21.5
1473.14	25.5
1474.2	23
1475.26	27
1476.32	24
1477.38	24
1478.44	27.5
1479.5	25
1480.57	27.5
1481.63	24
1482.69	25
1483.75	32
1484.81	23.5
1485.87	26
1486.93	23
1487.99	28
1489.05	24.5
1490.1	22.5
1491.17	28
1492.22	23.5
1493.28	26.5
1494.34	25.5
1495.4	29
1496.46	26
1497.52	22
1498.57	27
1499.63	27
1500.69	27
1501.75	27.5
1502.8	26
1503.86	23.5
1504.92	24.5
1505.98	22
1507.03	24.5
1508.09	27
1509.15	24.5
1510.2	27
1511.26	23
1512.31	24
1513.37	30.5
1514.42	28.5
1515.48	28
1516.53	25.5
1517.59	26.5
1518.64	27.5
1519.7	26.5
1520.75	20
1521.81	23
1522.86	22.5
1523.92	22.5
1524.97	26
1526.02	23
1527.08	24
1528.13	25.5
1529.18	26.5
1530.24	27.5
1531.29	24
1532.34	27.5
1533.39	27
1534.45	23
1535.5	22.5
1536.55	23
1537.6	23.5
1538.65	26
1539.71	31.5
1540.76	27.5
1541.81	25.5
1542.86	29
1543.91	29
1544.96	24
1546.01	25
1547.06	27
1548.11	24.5
1549.16	27
1550.21	23.5
1551.26	25
1552.31	28.5
1553.36	30
1554.41	29
1555.46	27.5
1556.51	25
1557.56	25
1558.6	21.5
1559.65	26
1560.7	23.5
1561.75	27.5
1562.8	26
1563.84	26
1564.89	27
1565.94	22.5
1566.99	25
1568.03	29.5
1569.08	25
1570.13	26.5
1571.17	23.5
1572.22	29
1573.27	24.5
1574.31	25
1575.36	27
1576.4	25.5
1577.45	29.5
1578.5	23.5
1579.54	26
1580.59	25
1581.63	25
1582.68	23.5
1583.72	22
1584.76	22
1585.81	27
1586.85	23.5
1587.9	24
1588.94	25
1589.98	25
1591.03	25
1592.07	24.5
1593.11	28
1594.16	24.5
1595.2	26
1596.24	25
1597.29	23.5
1598.33	24.5
1599.37	26.5
1600.41	25.5
1601.45	25
1602.49	27
1603.54	29.5
1604.58	22.5
1605.62	26
1606.66	27
1607.7	24
1608.74	26
1609.78	28.5
1610.82	26
1611.86	25
1612.9	25.5
1613.94	27.5
1614.98	27
1616.02	25
1617.06	28
1618.1	25.5
1619.14	24.5
1620.18	23.5
1621.22	26
1622.25	26
1623.29	30
1624.33	29
1625.37	26
1626.41	26
1627.45	22.5
1628.48	25
1629.52	23
1630.56	26.5
1631.59	24
1632.63	24
1633.67	23.5
1634.7	25
1635.74	25
1636.78	27.5
1637.81	25
1638.85	25
1639.88	27.5
1640.92	24.5
1641.96	28.5
1642.99	22
1644.03	26
1645.06	28
1646.1	21
1647.13	25.5
1648.17	28
1649.2	23
1650.23	29
1651.27	27
1652.3	26
1653.33	27.5
1654.37	26.5
1655.4	30.5
1656.44	26
1657.47	25
1658.5	25
1659.53	23.5
1660.57	18.5
1661.6	27
1662.63	24.5
1663.66	25.5
1664.69	28
1665.73	23.5
1666.76	29
1667.79	24
1668.82	27.5
1669.85	26
1670.88	26
1671.91	23
1672.94	25.5
1673.97	28
1675.01	26
1676.03	29.5
1677.07	24
1678.1	30.5
1679.12	25.5
1680.15	25
1681.18	26
1682.21	26
1683.24	25
1684.27	24
1685.3	27
1686.33	27.5
1687.36	24.5
1688.38	27.5
1689.41	25
1690.44	24
1691.47	24
1692.5	22
1693.52	24.5
1694.55	24
1695.58	25.5
1696.6	26
1697.63	26
1698.66	27
1699.68	26
1700.71	24
1701.74	25.5
1702.76	26
1703.79	25.5
1704.81	22
1705.84	29.5
1706.86	27
1707.89	22
1708.91	26
1709.94	21.5
1710.96	25.5
1711.99	25.5
1713.01	23.5
1714.04	20.5
1715.06	25.5
1716.08	25
1717.11	24
1718.13	24
1719.16	26.5
1720.18	25
1721.2	27
1722.22	24
1723.25	27
1724.27	25.5
1725.29	25
1726.31	26
1727.34	25.5
1728.36	29
1729.38	26.5
1730.4	27
1731.42	25.5
1732.44	19
1733.47	27.5
1734.49	23
1735.51	23
1736.53	24
1737.55	27
1738.57	29
1739.59	24.5
1740.61	30
1741.63	29
1742.65	28.5
1743.67	27.5
1744.69	26
1745.71	28.5
1746.73	27
1747.75	22
1748.76	26
1749.78	29.5
1750.8	25
1751.82	23.5
1752.84	26
1753.86	29
1754.87	28
1755.89	25
1756.91	29.5
1757.93	26.5
1758.94	23.5
1759.96	24
1760.98	29
1761.99	27.5
1763.01	28.5
1764.03	20
1765.04	20
1766.06	26.5
1767.08	26
1768.09	23
1769.11	25
1770.12	27.5
1771.14	25
1772.15	26
1773.17	23.5
1774.18	23.5
1775.2	22.5
1776.21	27
1777.23	24.5
1778.24	30
1779.25	22
1780.27	25
1781.28	26
1782.3	27
1783.31	25
1784.32	25.5
1785.34	25
1786.35	28
1787.36	27.5
1788.37	21
1789.39	27
1790.4	24.5
1791.41	23
1792.42	22
1793.43	29
1794.45	23
1795.46	23
1796.47	24
1797.48	29
1798.49	25.5
1799.5	24.5
1800.51	23
1801.52	26.5
1802.53	25
1803.54	25
1804.55	27
1805.56	31.5
1806.57	23
1807.58	28
1808.59	25.5
1809.6	25
1810.61	25
1811.62	27.5
1812.63	21.5
1813.64	26.5
1814.65	24
1815.66	23.5
1816.66	25.5
1817.67	24.5
1818.68	24.5
1819.69	27.5
1820.69	25
1821.7	23.5
1822.71	28.5
1823.72	27
1824.72	22.5
1825.73	25
1826.74	26.5
1827.74	28.5
1828.75	26.5
1829.76	24.5
1830.76	27
1831.77	24.5
1832.77	23.5
1833.78	23
1834.79	23.5
1835.79	22.5
1836.8	23
1837.8	25.5
1838.81	25
1839.81	27
1840.81	27.5
1841.82	24
1842.82	22.5
1843.83	24.5
1844.83	28.5
1845.83	28.5
1846.84	24.5
1847.84	20
1848.84	27.5
1849.85	25.5
1850.85	26
1851.85	23.5
1852.86	25
1853.86	26
1854.86	27.5
1855.86	27
1856.86	25
1857.87	24.5
1858.87	20
1859.87	25.5
1860.87	21.5
1861.87	26
1862.87	27.5
1863.88	26
1864.88	22.5
1865.88	23
1866.88	26.5
1867.88	25
1868.88	25.5
1869.88	25.5
1870.88	33
1871.88	22
1872.88	25
1873.88	26.5
1874.87	26
1875.87	27
1876.87	24.5
1877.87	23.5
1878.87	24
1879.87	23.5
1880.87	28
1881.86	26.5
1882.86	22
1883.86	23
1884.86	21.5
1885.86	23
1886.85	25
1887.85	24
1888.85	26.5
1889.84	26
1890.84	24
1891.84	26.5
1892.83	24.5
1893.83	27
1894.83	22
1895.82	24.5
1896.82	23.5
1897.81	25
1898.81	22
1899.81	26
1900.8	23.5
1901.8	22.5
1902.79	23
1903.78	27.5
1904.78	27
1905.77	21.5
1906.77	27
1907.76	23
1908.76	24.5
1909.75	25.5
1910.74	26
1911.74	28.5
1912.73	24.5
1913.72	23
1914.72	24.5
1915.71	24.5
1916.7	27
1917.7	25.5
1918.69	23
1919.68	25
1920.67	25.5
1921.66	24.5
1922.66	23.5
1923.65	25
1924.64	28.5
1925.63	24.5
1926.62	25.5
1927.61	25.5
1928.6	26
1929.59	24.5
1930.59	22.5
1931.58	26.5
1932.57	23
1933.56	27
1934.55	23
1935.54	25
1936.53	23.5
1937.52	22.5
1938.51	25.5
1939.49	27.5
1940.48	27.5
1941.47	27.5
1942.46	22
1943.45	22.5
1944.44	22
1945.43	27
1946.42	26
1947.4	22
1948.39	25.25
1949.38	26.5
1950.37	24
1951.35	26.5
1952.34	27
1953.33	22.5
1954.31	26.5
1955.3	25.5
1956.29	25.5
1957.27	23
1958.26	29.5
1959.25	25
1960.23	23
1961.22	25
1962.21	23.5
1963.19	24
1964.18	21.5
1965.16	21
1966.15	20.5
1967.13	21
1968.12	22
1969.1	26
1970.09	26
1971.07	24.5
1972.05	27.5
1973.04	24.5
1974.02	25.5
1975.01	24
1975.99	22.5
1976.97	25
1977.96	23
1978.94	25.5
1979.92	27
1980.91	24.5
1981.89	24.5
1982.87	25.5
1983.85	25.5
1984.84	20
1985.82	27
1986.8	28.5
1987.78	26.5
1988.76	23
1989.74	21
1990.73	23
1991.71	25.5
1992.69	23
1993.67	25
1994.65	27
1995.63	23.5
1996.61	25
1997.59	19
1998.57	25
1999.55	23
2000.53	23
2001.51	21
2002.49	25.5
2003.47	23
2004.45	22.5
2005.43	23
2006.41	21.5
2007.39	23.5
2008.37	24.5
2009.34	28.5
2010.32	25
2011.3	20
2012.28	27
2013.26	26
2014.23	25.5
2015.21	22
2016.19	23
2017.17	24
2018.14	22
2019.12	24.5
2020.1	25
2021.07	19.5
2022.05	24.5
2023.03	23
2024	25.5
2024.98	23
2025.96	24.5
2026.93	25.5
2027.91	21
2028.88	22
2029.86	25
2030.83	23
2031.81	25
2032.78	23
2033.76	25
2034.73	23
2035.71	26.5
2036.68	27
2037.66	24.5
2038.63	22.5
2039.6	24.5
2040.58	20.5
2041.55	23.5
2042.52	23
2043.5	23
2044.47	25
2045.44	28
2046.42	26
2047.39	24
2048.36	26
2049.33	25.5
2050.31	23
2051.28	24
2052.25	26
2053.22	26
2054.19	24
2055.17	25.5
2056.14	22
2057.11	25.5
2058.08	27
2059.05	25
2060.02	24.5
2060.99	25
2061.96	23.5
2062.93	23
2063.9	24.5
2064.87	22.5
2065.84	25.5
2066.81	20
2067.78	24.5
2068.75	24
2069.72	25
2070.69	20
2071.66	21
2072.63	27
2073.6	24.5
2074.56	25
2075.53	26
2076.5	22.5
2077.47	23.5
2078.44	25.5
2079.4	24.5
2080.37	23.5
2081.34	20.5
2082.31	22.5
2083.27	24.5
2084.24	25.5
2085.21	28
2086.18	23.5
2087.14	19.5
2088.11	24
2089.07	23.5
2090.04	26
2091.01	22
2091.97	23.5
2092.94	24
2093.9	18.5
2094.87	22
2095.83	20.5
2096.8	25.5
2097.76	25
2098.73	23
2099.69	24.5
2100.66	25
2101.62	25.5
2102.59	27
2103.55	27
2104.52	21.5
2105.48	22
2106.44	24
2107.41	25
2108.37	23
2109.33	21
2110.3	26.5
2111.26	23.5
2112.22	25
2113.18	22.5
2114.15	19
2115.11	27
2116.07	23.5
2117.03	28
2118	21
2118.96	22
2119.92	26
2120.88	30
2121.84	22.5
2122.8	25
2123.76	21
2124.72	23.5
2125.68	24
2126.65	23
2127.61	25.5
2128.57	24.5
2129.53	20.5
2130.49	22.5
2131.45	21.5
2132.41	27.5
2133.36	20
2134.32	27
2135.28	26
2136.24	24
2137.2	26.5
2138.16	21
2139.12	21.5
2140.08	22
2141.04	24
2141.99	21
2142.95	25.9687
2143.91	24.942
2144.87	20.629
2145.83	24.0323
2146.78	26.3591
2147.74	23.4199
2148.7	22.9814
2149.66	25.3402
2150.61	22.9034
2151.57	22.5166
2152.53	23.6698
2153.48	21.9101
2154.44	21.2877
2155.4	23.1931
2156.35	20.2112
2157.31	24.0254
2158.26	24.3109
2159.22	20.9815
2160.17	23.2267
2161.13	25.7699
2162.08	23.1763
2163.04	22.3963
2163.99	24.6569
2164.95	22.7829
2165.9	22.3742
2166.86	22.7289
2167.81	23.7929
2168.77	24.0975
2169.72	24.561
2170.67	25.7587
2171.63	21.7945
2172.58	22.2792
2173.54	24.4746
2174.49	24.1299
2175.44	23.203
2176.39	24.8761
2177.35	21.8187
2178.3	23.4496
2179.25	23.6245
2180.2	22.755
2181.16	23.5542
2182.11	22.2774
2183.06	20.3446
2184.01	23.2405
2184.96	23.138
2185.92	24.5154
2186.87	22.1725
2187.82	22.756
2188.77	24.4468
2189.72	22.8048
2190.67	25.1323
2191.62	24.9991
2192.57	22.4001
2193.52	24.9923
2194.47	24.1772
2195.42	23.4612
2196.37	22.4864
2197.32	24.7635
2198.27	23.3992
2199.22	22.6699
2200.17	19.7762
2201.12	21.8934
2202.07	23.1758
2203.02	23.7831
2203.97	21.8565
2204.92	25.2446
2205.87	26.722
2206.81	22.5
2207.76	22.3325
2208.71	23.4434
2209.66	21.4274
2210.61	26.1496
2211.55	22.2278
2212.5	20.639
2213.45	19.6055
2214.4	24.0004
2215.34	24.6273
2216.29	23.8772
2217.24	19.9382
2218.18	23.3346
2219.13	22.1481
2220.08	21.4073
2221.02	21.5
2221.97	22.846
2222.92	21.6267
2223.86	22.5427
2224.81	21.7909
2225.75	18.4578
2226.7	22.9049
2227.64	21.9615
2228.59	24.3725
2229.53	21.5901
2230.48	20.4733
2231.42	22.9792
2232.37	24.4897
2233.31	23.1161
2234.26	20.6498
2235.2	21.4455
2236.14	24.6908
2237.09	24.4745
2238.03	23.2131
2238.97	23.4413
2239.92	23.0695
2240.05	23
2241	21.5
2241.95	23.5
2242.89	20.5
2243.84	26
2244.79	21
2245.74	24
2246.68	26.5
2247.63	28
2248.58	22
2249.53	26
2250.47	23
2251.42	22.5
2252.36	21.5
2253.31	23
2254.26	20.5
2255.2	20
2256.15	22.5
2257.1	20
2258.04	23
2258.99	20.5
2259.93	20.5
2260.88	24.5
2261.82	20.5
2262.77	24
2263.71	20
2264.66	20.5
2265.6	25.5
2266.55	25
2267.49	27
2268.43	25.5
2269.38	21
2270.32	23
2271.26	24.5
2272.21	23.5
2273.15	21.5
2274.09	20.5
2275.04	21.5
2275.98	22.5
2276.92	23
2277.87	22.5
2278.81	22
2279.75	24
2280.69	23
2281.64	22.5
2282.58	24.5
2283.52	21
2284.46	23
2285.4	27
2286.34	23.5
2287.29	23.5
2288.23	24.5
2289.17	22
2290.11	20.5
2291.05	26
2291.99	22
2292.93	23.5
2293.87	24
2294.81	23.5
2295.75	23
2296.69	23.5
2297.63	25.5
2298.57	21
2299.51	23
2300.45	23
2301.39	21.5
2302.33	19.5
2303.27	20.5
2304.2	23.5
2305.14	24.5
2306.08	20
2307.02	23.5
2307.96	21
2308.9	26
2309.83	24
2310.77	23
2311.71	22.5
2312.65	21.5
2313.58	24
2314.52	20.5
2315.46	23
2316.39	23
2317.33	22
2318.27	21.5
2319.21	20
2320.14	24.5
2321.08	25.5
2322.01	24
2322.95	22
2323.89	24
2324.82	25.5
2325.76	21
2326.69	23
2327.63	24.5
2328.56	24
2329.5	25.5
2330.43	27
2331.37	24
2332.3	23
2333.24	21.5
2334.17	31.5
2335.1	22.5
2336.04	23
2336.97	21.5
2337.91	28
2338.84	24.5
2339.77	23
2340.71	24
2341.64	22.5
2342.57	20.5
2343.51	26
2344.44	27.5
2345.37	24
2346.3	24
2347.24	26
2348.17	24
2349.1	24
2350.03	25
2350.96	26
2351.89	24
2352.83	24.5
2353.76	24.5
2354.69	22
2355.62	25
2356.55	25.5
2357.48	23
2358.41	24.5
2359.34	23.5
2360.27	18.5
2361.2	24
2362.13	26.5
2363.06	23
2363.99	23.5
2364.92	25
2365.85	23.5
2366.78	23
2367.71	21.5
2368.64	23.5
2369.57	25
2370.5	25.5
2371.43	22
2372.36	22
2373.28	23
2374.21	23
2375.14	25.5
2376.07	22.5
2377	24
2377.93	25
2378.85	23.5
2379.78	25
2380.71	23
2381.63	25.5
2382.56	20.5
2383.49	24
2384.42	24.5
2385.34	23.5
2386.27	19
2387.2	26.5
2388.12	24.5
2389.05	23
2389.97	24
2390.9	27
2391.82	24.5
2392.75	22.5
2393.68	24
2394.6	24.5
2395.53	21
2396.45	23.5
2397.38	25
2398.3	25.5
2399.23	23
2400.15	24.5
2401.07	24
2402	27
2402.92	24
2403.85	24.5
2404.77	24
2405.69	24
2406.62	26
2407.54	25.5
2408.46	25
2409.39	26.5
2410.31	22.5
2411.23	26.5
2412.16	22
2413.08	23.5
2414	25
2414.92	24.5
2415.85	26.5
2416.77	24
2417.69	23.5
2418.61	23.5
2419.53	20.5
2420.45	21
2421.38	26.5
2422.3	23
2423.22	23.5
2424.14	24.5
2425.06	22.5
2425.98	25
2426.9	23
2427.82	25.5
2428.74	22.5
2429.66	24.5
2430.58	26
2431.5	25.5
2432.42	24
2433.34	25
2434.26	25.5
2435.18	26.5
2436.1	26.5
2437.02	29
2437.94	22.5
2438.85	24
2439.77	25
2440.69	27
2441.61	25
2442.53	26.5
2443.45	28
2444.36	25
2445.28	23
2446.2	23
2447.12	25
2448.03	26.5
2448.95	26.5
2449.87	21
2450.79	24.5
2451.7	21
2452.62	24
2453.54	23
2454.45	27
2455.37	21
2456.28	20.5
2457.2	27
2458.12	23.5
2459.03	28.5
2459.95	23
2460.86	25
2461.78	25.5
2462.69	23
2463.61	25.5
2464.52	28
2465.44	24
2466.35	22.5
2467.27	22
2468.18	27.5
2469.1	22.5
2470.01	26
2470.93	21.5
2471.84	23.5
2472.75	26
2473.67	22.5
2474.58	24
2475.49	21
2476.41	26.5
2477.32	25
2478.23	26.5
2479.15	26
2480.06	21
2480.97	26
2481.88	23
2482.79	25
2483.71	24.5
2484.62	22
2485.53	23.5
2486.44	24.5
2487.35	26.5
2488.26	22
2489.18	24
2490.09	25
2491	24
2491.91	27.5
2492.82	24
2493.73	22
2494.64	25.5
2495.55	21
2496.46	23
2497.37	25
2498.28	23
2499.19	26
2500.1	24
2501.01	28
2501.92	20
2502.83	26
2503.74	27.5
2504.65	24
2505.56	22
2506.47	22.5
2507.37	25.5
2508.28	26
2509.19	22
2510.1	23.5
2511.01	26
2511.92	25.5
2512.82	26
2513.73	22.5
2514.64	25.5
2515.55	27
2516.45	22
2517.36	23
2518.27	27
2519.17	25.5
2520.08	23
2520.99	25
2521.89	28
2522.8	26
2523.71	24
2524.61	26
2525.52	23
2526.42	27
2527.33	26
2528.24	24
2529.14	25
2530.05	22.5
2530.95	23
2531.86	23
2532.76	22
2533.67	19.5
2534.57	23
2535.48	26.5
2536.38	25
2537.28	26
2538.19	26.5
2539.09	23.5
2540	22.5
2540.9	24.5
2541.8	23.5
2542.71	25.5
2543.61	25
2544.51	28
2545.42	28
2546.32	27
2547.22	29.5
2548.12	24.5
2549.03	24.5
2549.93	20.5
2550.83	23
2551.73	23
2552.63	21
2553.54	22
2554.44	25
2555.34	25
2556.24	24
2557.14	27.5
2558.04	21
2558.94	21
2559.85	22
2560.75	24
2561.65	26
2562.55	29
2563.45	25
2564.35	26.5
2565.25	25
2566.15	22.5
2567.05	23.5
2567.95	27
2568.85	20.5
2569.75	23.5
2570.65	26.5
2571.55	26.5
2572.44	26.5
2573.34	26
2574.24	25
2575.14	25.5
2576.04	24
2576.94	25.5
2577.84	20.5
2578.73	24.5
2579.63	21.5
2580.53	24
2581.43	24
2582.33	25.5
2583.22	28
2584.12	24.5
2585.02	24.5
2585.91	23.5
2586.81	25
2587.71	22
2588.6	22
2589.5	20
2590.4	26
2591.29	27
2592.19	26
2593.09	25
2593.98	25.5
2594.88	22
2595.77	24
2596.67	28
2597.56	27
2598.46	27
2599.35	25.5
2600.25	24.5
2601.14	27.5
2602.04	23
2602.93	25
2603.83	24.5
2604.72	25
2605.62	29
2606.51	27
2607.4	23.5
2608.3	28
2609.19	25.5
2610.09	25.5
2610.98	23
2611.87	26
2612.76	25.5
2613.66	23
2614.55	22
2615.44	21.5
2616.34	22
2617.23	26
2618.12	23
2619.01	22.5
2619.9	26.5
2620.8	22
2621.69	27.5
2622.58	26
2623.47	26.5
2624.36	23
2625.25	25
2626.15	25
2627.04	26
2627.93	24
2628.82	29
2629.71	27.5
2630.6	26.5
2631.49	27
2632.38	25
2633.27	26.5
2634.16	25
2635.05	23
2635.94	26
2636.83	20.5
2637.72	26
2638.61	26.5
2639.5	22.5
2640.39	29
2641.28	25
2642.16	24.5
2643.05	24
2643.94	28
2644.83	25.5
2645.72	24
2646.61	28
2647.49	23
2648.38	26.5
2649.27	24
2650.16	30
2651.05	22.5
2651.93	27
2652.82	22.5
2653.71	27.5
2654.59	24
2655.48	22.5
2656.37	19.5
2657.25	24
2658.14	24
2659.03	26
2659.91	24
2660.8	24.5
2661.69	27.5
2662.57	27.5
2663.46	24.5
2664.34	25
2665.23	25
2666.11	21
2667	27
2667.88	22.5
2668.77	23.5
2669.65	22
2670.54	27.5
2671.42	24.5
2672.31	24.5
2673.19	23
2674.08	24
2674.96	23
2675.84	24.5
2676.73	23
2677.61	24
2678.49	23.5
2679.38	22
2680.26	23
2681.14	27
2682.03	25.5
2682.91	28.5
2683.79	25
2684.68	22
2685.56	27
2686.44	23.5
2687.32	24.5
2688.2	26.5
2689.09	24
2689.97	26
2690.85	25
2691.73	26
2692.61	22
2693.49	23
2694.38	24.5
2695.26	22.5
2696.14	21.5
2697.02	25
2697.9	24
2698.78	24.5
2699.66	25.5
2700.54	24
2701.42	26
2702.3	23
2703.18	26
2704.06	26
2704.94	28
2705.82	24
2706.7	24.5
2707.58	24.5
2708.46	23.5
2709.34	25.5
2710.21	19
2711.09	20
2711.97	25.5
2712.85	26.5
2713.73	25
2714.61	25.5
2715.49	19
2716.36	23.5
2717.24	24
2718.12	27
2719	25
2719.87	22
2720.75	26.5
2721.63	25.5
2722.51	27.5
2723.38	21.5
2724.26	22
2725.14	28
2726.01	27
2726.89	26.5
2727.77	25
2728.64	23.5
2729.52	23
2730.39	24
2731.27	25
2732.15	25
2733.02	25.5
2733.9	23
2734.77	24.5
2735.65	24
2736.52	24.5
2737.4	23.5
2738.27	26.5
2739.15	25
2740.02	25.5
2740.89	26.5
2741.77	24.5
2742.64	26
2743.52	24.5
2744.39	20
2745.27	25.5
2746.14	25.5
2747.01	24.5
2747.89	26
2748.76	24.5
2749.63	25.5
2750.51	27
2751.38	25
2752.25	25
2753.12	23.5
2754	26
2754.87	21
2755.74	25.5
2756.61	23
2757.48	25.5
2758.36	23
2759.23	23
2760.1	28.5
2760.97	22.5
2761.84	24.5
2762.71	24.5
2763.59	25.5
2764.46	27
2765.33	22
2766.2	24
2767.07	28
2767.94	18.5
2768.81	21.5
2769.68	24
2770.55	25.5
2771.42	28
2772.29	24
2773.16	24
2774.03	26
2774.9	28.5
2775.77	27.5
2776.64	28.5
2777.51	25
2778.37	24
2779.24	23
2780.11	26
2780.98	27
2781.85	24
2782.72	22.5
2783.59	26
2784.45	24
2785.32	23.5
2786.19	25
2787.06	24.5
2787.92	29
2788.79	21
2789.66	23
2790.53	23
2791.39	25.5
2792.26	27
2793.13	24
2793.99	22
2794.86	23
2795.73	25.5
2796.59	25
2797.46	25
2798.33	25
2799.19	25
2800.06	25.5
2800.92	26
2801.79	25
2802.65	26
2803.52	21.5
2804.39	28
2805.25	21
2806.11	25
2806.98	25
2807.84	27
2808.71	24.5
2809.57	27
2810.44	25.5
2811.3	26.5
2812.17	26.5
2813.03	26.5
2813.89	28.5
2814.76	27
2815.62	20.5
2816.49	25
2817.35	29
2818.21	25.5
2819.07	25
2819.94	23
2820.8	23.5
2821.66	27
2822.53	26
2823.39	26
2824.25	22
2825.11	26.5
2825.97	25
2826.84	25
2827.7	26
2828.56	27.5
2829.42	31
2830.28	25
2831.14	25.5
2832.01	25.5
2832.87	26
2833.73	25
2834.59	20
2835.45	25
2836.31	24
2837.17	27.5
2838.03	25
2838.89	24
2839.75	24.5
2840.61	27.5
2841.47	29
2842.33	26
2843.19	24.5
2844.05	21
2844.91	27
2845.77	27.5
2846.63	26
2847.48	29
2848.34	27.5
2849.2	24.5
2850.06	25
2850.92	24.5
2851.78	28
2852.64	25
2853.49	29.5
2854.35	26
2855.21	26
2856.07	24.5
2856.93	27
2857.78	25
2858.64	26.5
2859.5	24.5
2860.35	28.5
2861.21	29.5
2862.07	23.5
2862.93	28
2863.78	27
2864.64	20.5
2865.49	23.5
2866.35	24.5
2867.21	27.5
2868.06	24
2868.92	23
2869.77	27
2870.63	26
2871.49	30
2872.34	27.5
2873.2	32.5
2874.05	28.5
2874.91	23.5
2875.76	25
2876.62	28.5
2877.47	30
2878.32	28.5
2879.18	26.5
2880.03	29
2880.89	28
2881.74	30
2882.6	32
2883.45	30
2884.3	27.5
2885.16	31.5
2886.01	27
2886.86	31
2887.72	31.5
2888.57	30
2889.42	33.5
2890.27	35
2891.13	35
2891.98	33
2892.83	30.5
2893.68	34
2894.54	36
2895.39	39
2896.24	44
2897.09	40.5
2897.94	43.5
2898.8	49.5
2899.65	50
2900.5	46.5
2901.35	53
2902.2	50.5
2903.05	55.5
2903.9	55
2904.75	56
2905.6	62
2906.45	58.5
2907.3	60.5
2908.15	55
2909.01	49
2909.85	50
2910.7	46.5
2911.55	50
2912.4	48.5
2913.25	47
2914.1	40
2914.95	41
2915.8	39.5
2916.65	42
2917.5	38.5
2918.35	34.5
2919.2	34.5
2920.04	32.5
2920.89	29
2921.74	29.5
2922.59	26
2923.44	28.5
2924.29	31
2925.13	29
2925.98	25
2926.83	26
2927.68	29.5
2928.52	26
2929.37	27
2930.22	26.5
2931.06	30.5
2931.91	31.5
2932.76	26
2933.6	23.5
2934.45	30
2935.3	27
2936.14	23
2936.99	28.5
2937.83	24.5
2938.68	23.5
2939.53	23.5
2940.37	28
2941.22	26.5
2942.06	28
2942.91	28
2943.75	26
2944.6	33
2945.44	24.5
2946.29	30
2947.13	28
2947.98	27
2948.82	28
2949.66	29
2950.51	28
2951.35	29.5
2952.2	29.5
2953.04	28.5
2953.88	34
2954.73	29
2955.57	31.5
2956.41	33.5
2957.26	35.5
2958.1	33
2958.94	30
2959.79	32
2960.63	36
2961.47	32.5
2962.31	38
2963.15	37
2964	39.5
2964.84	41
2965.68	40
2966.52	34.5
2967.37	40
2968.21	35
2969.05	38
2969.89	35.5
2970.73	36.5
2971.57	34.9903
2972.41	32.4546
2973.25	32.6114
2974.09	30.8429
2974.93	33.8591
2975.77	30.4826
2976.62	32.7829
2977.46	28.141
2978.3	29.8567
2979.14	30.7631
2979.98	27.4707
2980.81	27.6031
2981.65	27.2807
2982.49	25.5586
2983.33	26.6496
2984.17	26.6365
2985.01	25.1843
2985.85	27.2604
2986.69	24.6229
2987.53	26.9284
2988.37	24.8384
2989.21	25.9144
2990.04	25.3427
2990.88	25.024
2991.72	26.1598
2992.56	22.89
2993.4	24.3129
2994.23	26.8297
2995.07	23.5601
2995.91	27.0357
2996.75	23.7952
2997.58	24.3562
2998.42	21.0179
2999.26	24.2394
3000.1	25.2102
3000.93	24.0475
3001.77	22.3942
3002.61	23.4655
3003.44	22.8962
3004.28	24.9403
3005.11	23.9112
3005.95	25.5464
3006.79	23.9947
3007.62	17.9664
3008.46	23.7821
3009.29	21.9966
3010.13	22.6947
3010.97	21.6414
3011.8	22.318
3012.64	22.6476
3013.47	21.4764
3014.31	24.5211
3015.14	22.284
3015.98	23.1158
3016.81	23.1943
3017.64	21.7836
3018.48	23.7519
3019.31	22.8729
3020.15	22.1155
3020.98	23.829
3021.82	20.8799
3022.65	24.2386
3023.48	23.517
3024.32	24.8978
3025.15	22.5733
3025.98	22.5316
3026.82	24.263
3027.65	23.6714
3028.48	23.3301
3029.31	23.5529
3030.15	23.4406
3030.98	23.659
3031.81	23
3032.64	22.7136
3033.48	23.2715
3034.31	22.088
3035.14	21.4767
3035.97	22.4987
3036.8	23.198
3037.64	22.4257
3038.47	23.3504
3039.3	23.4306
3040.13	23.8421
3040.96	22.921
3041.79	21.6858
3042.62	21.7549
3043.45	22.0321
3044.28	22.0554
3045.12	22.1997
3045.95	21.7539
3046.78	24
3047.61	25.1502
3048.44	23.693
3049.27	24.1631
3050.1	25.0293
3050.92	26.0961
3051.75	23.0477
3052.58	22.0013
3053.41	24.9255
3054.24	26.1521
3055.07	24.17
3055.9	23.7095
3056.73	23.5876
3057.26	25.5
3058.09	25
3058.93	22
3059.76	19.5
3060.59	24
3061.43	22
3062.26	23
3063.09	19
3063.92	24
3064.76	23
3065.59	23.5
3066.42	24.5
3067.25	20
3068.08	20.5
3068.92	21
3069.75	23
3070.58	26
3071.41	25
3072.24	26
3073.07	26.5
3073.9	20
3074.73	25.5
3075.57	19.5
3076.4	20
3077.23	20
3078.06	22
3078.89	25.5
3079.72	23.5
3080.55	21
3081.38	22
3082.21	26
3083.04	26.5
3083.87	23
3084.7	27
3085.53	19
3086.36	27
3087.19	24.5
3088.01	23
3088.84	20
3089.67	26.5
3090.5	22
3091.33	22.5
3092.16	25
3092.99	26
3093.81	23
3094.64	22.5
3095.47	25
3096.3	22
3097.13	24.5
3097.95	22.5
3098.78	22.5
3099.61	24.5
3100.44	22
3101.26	24.5
3102.09	21.5
3102.92	25
3103.74	19.5
3104.57	22
3105.4	26.5
3106.22	23
3107.05	22
3107.88	25
3108.7	19
3109.53	25
3110.35	19
3111.18	21
3112.01	22.5
3112.83	22.5
3113.66	23
3114.48	24
3115.31	27.5
3116.13	27
3116.96	22.5
3117.78	26
3118.61	24.5
3119.43	25
3120.26	25
3121.08	27
3121.9	23
3122.73	27
3123.55	25.5
3124.38	22
3125.2	23
3126.02	21.5
3126.85	21
3127.67	23
3128.49	26
3129.32	22.5
3130.14	25
3130.96	24.5
3131.79	21
3132.61	25.5
3133.43	25
3134.25	21
3135.08	24
3135.9	25
3136.72	24.5
3137.54	25.5
3138.37	21.5
3139.19	24
3140.01	24.5
3140.83	23
3141.65	28
3142.47	25
3143.29	23.5
3144.12	22.5
3144.94	25
3145.76	23
3146.58	23
3147.4	25
3148.22	23
3149.04	23
3149.86	22
3150.68	25.5
3151.5	24
3152.32	26.5
3153.14	27
3153.96	23
3154.78	23
3155.6	26
3156.42	26
3157.24	24.5
3158.06	24.5
3158.88	24
3159.7	21
3160.51	23
3161.33	24
3162.15	23
3162.97	23
3163.79	24
3164.61	23.5
3165.42	22
3166.24	25.5
3167.06	22
3167.88	25.5
3168.7	22
3169.51	25
3170.33	22.5
3171.15	21
3171.97	25.5
3172.78	21
3173.6	22.5
3174.42	24
3175.23	24
3176.05	22
3176.87	24.5
3177.68	24
3178.5	21.5
3179.32	24
3180.13	22
3180.95	26.5
3181.76	23.5
3182.58	21
3183.4	23.5
3184.21	23.5
3185.03	25
3185.84	26
3186.66	24
3187.47	22
3188.29	22
3189.1	24
3189.92	22
3190.73	28.5
3191.55	23
3192.36	25
3193.17	24
3193.99	27
3194.8	25
3195.62	21
3196.43	22.5
3197.24	22.5
3198.06	23
3198.87	21.5
3199.68	25
3200.5	21
3201.31	25
3202.12	24
3202.94	19.5
3203.75	23
3204.56	24
3205.38	19.5
3206.19	23.5
3207	25.5
3207.81	24.5
3208.62	24.5
3209.44	24.5
3210.25	23
3211.06	23
3211.87	25.5
3212.68	24
3213.49	22.5
3214.31	22
3215.12	22.5
3215.93	28.5
3216.74	23
3217.55	25
3218.36	21
3219.17	27.5
3219.98	24
3220.79	25.5
3221.6	24
3222.41	23.5
3223.22	25
3224.03	29
3224.84	21
3225.65	30.5
3226.46	21
3227.27	24
3228.08	26
3228.89	26
3229.7	24
3230.51	24.5
3231.32	25
3232.13	24.5
3232.94	22.5
3233.74	28
3234.55	27.5
3235.36	24
3236.17	19.5
3236.98	25.5
3237.78	24
3238.59	24
3239.4	24
3240.21	24
3241.02	27
3241.82	24
3242.63	27
3243.44	24.5
3244.25	26
3245.05	22.5
3245.86	27
3246.67	23
3247.47	20
3248.28	21.5
3249.09	25
3249.89	20
3250.7	23
3251.5	26
3252.31	24
3253.12	24
3253.92	23
3254.73	20
3255.53	21.5
3256.34	24
3257.14	20
3257.95	24
3258.75	25.5
3259.56	22
3260.36	22
3261.17	23
3261.97	27
3262.78	25.5
3263.58	23.5
3264.39	23
3265.19	27.5
3265.99	26
3266.8	25
3267.6	26
3268.41	25.5
3269.21	21.5
3270.01	25.5
3270.82	28
3271.62	20.5
3272.42	26
3273.23	22
3274.03	21
3274.83	22.5
3275.64	23
3276.44	24
3277.24	26.5
3278.04	23.5
3278.85	23.5
3279.65	27
3280.45	23
3281.25	22.5
3282.05	22.5
3282.85	23.5
3283.66	24
3284.46	20
3285.26	24
3286.06	22
3286.86	24
3287.66	24.5
3288.46	26
3289.27	21
3290.07	21
3290.87	26
3291.67	22
3292.47	24
3293.27	25.5
3294.07	21
3294.87	25
3295.67	29
3296.47	28.5
3297.27	24
3298.07	24.5
3298.87	23.5
3299.67	24
3300.47	25
3301.26	25.5
3302.06	24
3302.86	24.5
3303.66	22
3304.46	24
3305.26	24
3306.06	21
3306.86	25.5
3307.65	24
3308.45	23.5
3309.25	24.5
3310.05	25.5
3310.85	27
3311.64	25.5
3312.44	27
3313.24	24.5
3314.04	24
3314.83	28
3315.63	20
3316.43	25.5
3317.22	26
3318.02	24
3318.82	22.5
3319.62	24.5
3320.41	30
3321.21	22
3322	26
3322.8	24.5
3323.6	23
3324.39	28
3325.19	27
3325.98	22.5
3326.78	26
3327.58	23.5
3328.37	25.5
3329.17	27
3329.96	23
3330.76	28
3331.55	26
3332.35	22
3333.14	24
3333.94	22
3334.73	24.5
3335.52	23
3336.32	24
3337.11	24
3337.91	26.5
3338.7	24
3339.5	25
3340.29	30
3341.08	20
3341.88	25
3342.67	24
3343.46	24.5
3344.26	23
3345.05	25
3345.84	23
3346.63	26.5
3347.43	28
3348.22	18.5
3349.01	25.5
3349.8	24
3350.6	27
3351.39	23
3352.18	27
3352.97	21
3353.77	25.5
3354.56	21
3355.35	25.5
3356.14	23.5
3356.93	27.5
3357.72	26.5
3358.51	26
3359.31	24.5
3360.1	26.5
3360.89	21
3361.68	20
3362.47	25
3363.26	21
3364.05	24.5
3364.84	25.5
3365.63	24
3366.42	25
3367.21	26
3368	28.5
3368.79	22.5
3369.58	22.5
3370.37	24
3371.16	27
3371.95	22
3372.74	28
3373.53	27
3374.32	25
3375.1	23.5
3375.89	22.5
3376.68	25.5
3377.47	23
3378.26	28
3379.05	23
3379.84	25.5
3380.62	23.5
3381.41	30
3382.2	22.5
3382.99	25.5
3383.78	24.5
3384.56	26.5
3385.35	22
3386.14	28.5
3386.93	24
3387.71	20
3388.5	29
3389.29	26
3390.07	25
3390.86	25
3391.65	24.5
3392.43	22
3393.22	25
3394.01	21
3394.79	23.5
3395.58	23
3396.36	27.5
3397.15	25
3397.94	26.5
3398.72	24.5
3399.51	27
3400.29	25
3401.08	24
3401.86	25
3402.65	27.5
3403.43	23.5
3404.22	20
3405	28.5
3405.79	26
3406.57	25
3407.36	27.5
3408.14	27.5
3408.93	24.5
3409.71	20
3410.49	21.5
3411.28	23
3412.06	23
3412.84	23.5
3413.63	25
3414.41	24
3415.2	25.5
3415.98	24.5
3416.76	24.5
3417.54	21
3418.33	26
3419.11	23.5
3419.89	20.5
3420.68	23
3421.46	21
3422.24	24.5
3423.02	23.5
3423.81	23
3424.59	24.5
3425.37	24
3426.15	22.5
3426.93	23.5
3427.71	24.5
3428.5	27.5
3429.28	26
3430.06	23
3430.84	25
3431.62	26.5
3432.4	20
3433.18	23
3433.96	24
3434.75	22
3435.53	24.5
3436.31	26.5
3437.09	19
3437.87	25
3438.65	22.5
3439.43	23.5
3440.21	26
3440.99	22
3441.77	22
3442.55	22
3443.33	24
3444.1	18.5
3444.88	28.5
3445.66	25
3446.44	24
3447.22	25
3448	25
3448.78	21.5
3449.56	26
3450.34	25
3451.11	22
3451.89	31.5
3452.67	26
3453.45	24.5
3454.23	24
3455	21.5
3455.78	22.5
3456.56	25.5
3457.34	25
3458.11	21.5
3458.89	25
3459.67	25
3460.45	21.5
3461.22	26
3462	23
3462.78	21
3463.55	22.5
3464.33	24
3465.11	24
3465.88	28
3466.66	22.5
3467.44	26
3468.21	24
3468.99	25.5
3469.76	23
3470.54	22.5
3471.32	26
3472.09	24.5
3472.87	24
3473.64	22
3474.42	23.5
3475.19	20
3475.97	25
3476.74	24.5
3477.52	26.5
3478.29	23.5
3479.07	32
3479.84	21.5
3480.61	22
3481.39	21.5
3482.16	26
3482.94	21
3483.71	23
3484.48	26
3485.26	25
3486.03	26
3486.81	26.5
3487.58	25.5
3488.35	24.5
3489.13	24
3489.9	23
3490.67	24.5
3491.44	27
3492.22	23.5
3492.99	24
3493.76	25.5
3494.54	23.5
3495.31	25
3496.08	24
3496.85	27
3497.62	21
3498.4	24.5
3499.17	22
3499.94	22
