#Acq. time (s)=	5
#Accumulations=	5
#Range (cm-ｹ)=	100...3500
#Windows=	4
#Autofocus=	Off
#AutoExposure=	Off
#Spike filter=	Multiple accum.
#Delay time (s)=	0
#Binning=	1
#Readout mode=	Signal
#DeNoise=	Off
#ICS correction=	Off
#Dark correction=	Off
#Inst. Process=	Off
#Instrument=	LabRAM HR Evol
#Detector=	Syncerity OE
#Objective=	x100_VIS
#Grating=	600 (500nm)
#ND Filter=	25%
#Laser=	633nm_Edge
#Hole=	100.021
#Range=	Visible
#Project=	verificaciones
#Sample=	at3
#Site=	plain
#Title=	bolusat3plain
#Remark=	com
#Date=	16.01.2026 16:54
#Acquired=	16.01.2026 16:54:04
100.564	26.5
101.847	24
103.131	34
104.414	28
105.697	31
106.979	31.5
108.262	32
109.544	30.5
110.826	33
112.109	27
113.391	32
114.672	29
115.954	29
117.235	29
118.515	28.5
119.796	29.5
121.076	31
122.357	33.5
123.637	31.5
124.916	33
126.196	30
127.475	32
128.754	34
130.033	33
131.31	36
132.589	34
133.867	37.5
135.145	39
136.423	32
137.701	32
138.978	33.5
140.256	34.5
141.533	37.5
142.809	38
144.086	40.5
145.361	41.5
146.637	37.5
147.913	37.5
149.189	41.5
150.464	39.5
151.74	38.5
153.014	39.5
154.288	43.5
155.563	37.5
156.838	41
158.112	43
159.385	41.5
160.659	43
161.932	42.5
163.206	42.5
164.479	35
165.751	39.5
167.024	42
168.296	38
169.567	39
170.84	40
172.112	37
173.383	42.5
174.654	39.5
175.925	40
177.196	38.5
178.466	41.5
179.737	44.5
181.007	40.5
182.276	41
183.546	44.5
184.816	36
186.085	44
187.354	41
188.624	40.5
189.891	44.5
191.16	41.5
192.427	42
193.696	39
194.964	40.5
196.231	40.5
197.499	37.5
198.765	42
200.033	41
201.298	39
202.566	41.5
203.831	38.5
205.098	38
206.363	38.5
207.629	40
208.894	34.5
210.159	38.5
211.424	36.5
212.689	34
213.953	31
215.218	35
216.481	33
217.746	33.5
219.009	32.5
220.273	34
221.536	32
222.798	34
224.062	33.5
225.323	35
226.587	33
227.848	32
229.109	32
230.372	31.5
231.633	30.5
232.894	29
234.156	31.5
235.416	35.5
236.678	31.5
237.937	29.5
239.197	33
240.457	29.5
241.717	30.5
242.976	29.5
244.235	33
245.495	29
246.754	32.5
248.012	29.5
249.27	28
250.529	29.5
251.787	31
253.045	29.5
254.302	29
255.56	34
256.817	29
258.074	33
259.33	30.5
260.586	27
261.844	30
263.1	33
264.355	28
265.611	27
266.866	29
268.121	28.5
269.377	26
270.632	31.5
271.886	30.5
273.14	26.5
274.394	29
275.648	26
276.902	27.5
278.155	26.5
279.408	26
280.663	22.5
281.915	30
283.168	28.5
284.42	28
285.673	27
286.925	30.5
288.176	29.5
289.428	30
290.679	28
291.93	27
293.181	26.5
294.432	26
295.683	28
296.933	28.5
298.183	27.5
299.433	28.5
300.683	26.5
301.932	26.5
303.182	29.5
304.429	23
305.678	27.5
306.927	29
308.176	29
309.424	28.5
310.672	30.5
311.92	31
313.168	31
314.415	29.5
315.661	26.5
316.908	26
318.155	27.5
319.402	31.5
320.648	26
321.895	29
323.139	27
324.385	22.5
325.631	25.5
326.877	26.5
328.122	30
329.366	23
330.611	29
331.855	25
333.1	29
334.343	25
335.587	33.5
336.831	28.5
338.074	28
339.317	26
340.56	29.5
341.803	29
343.044	23
344.287	27.5
345.53	29
346.771	29
348.013	27
349.255	27.5
350.495	24
351.736	24
352.978	29
354.217	29.5
355.458	29
356.699	25
357.938	26
359.178	27.5
360.417	28
361.657	29.5
362.895	23.5
364.135	28.5
365.374	28
366.612	29.5
367.851	26
369.088	27.5
370.327	26
371.564	29.5
372.802	30.5
374.038	30
375.276	30.5
376.512	28.5
377.749	23
378.985	28
380.222	27
381.457	28.5
382.692	27
383.929	30
385.164	30.5
386.4	29.5
387.634	32.5
388.869	25.5
390.103	27.5
391.337	27
392.572	26
393.805	24
395.038	26
396.273	27
397.506	30.5
398.74	30
399.972	25
401.204	23.5
402.437	26
403.669	26
404.901	29
406.132	25.5
407.365	27.5
408.596	27
409.826	27.5
411.058	26
412.289	28
413.519	24
414.749	29
415.98	25
417.21	26.5
418.439	26
419.668	28.5
420.897	26.5
422.128	26.5
423.356	28
424.585	28
425.813	26.5
427.041	30.5
428.269	22
429.498	26
430.725	26
431.952	23
433.179	33
434.406	28.5
435.633	31.5
436.859	29
438.085	27
439.312	26.5
440.537	28
441.764	30
442.99	29.5
444.215	29
445.44	26
446.665	27
447.89	30.5
449.114	30
450.339	30
451.563	25.5
452.787	31.5
454.01	27.5
455.234	31
456.457	29.5
457.68	33
458.903	28
460.126	29
461.348	30.5
462.569	24.5
463.792	26.5
465.013	33
466.235	32
467.457	30
468.678	35
469.899	33
471.12	34
472.341	35
473.56	36.5
474.781	36.5
476.001	39.5
477.221	45
478.441	41.5
479.66	41
480.878	45
482.098	49.5
483.317	51
484.535	61.5
485.754	61.5
486.971	60.5
488.189	59
489.407	61
490.625	62
491.842	60.5
493.059	57.5
494.276	57
495.493	59.5
496.709	49.5
497.926	51.5
499.142	45.5
500.357	47.5
501.573	45.5
502.789	46
504.003	40.5
505.219	42
506.434	37
507.648	37.5
508.863	40
510.078	39
511.291	33
512.505	31
513.718	35
514.932	33.5
516.145	31
517.358	26
518.572	32.5
519.783	29
520.997	31.5
522.208	34.5
523.421	32.5
524.632	33.5
525.844	28
527.055	29
528.266	27.5
529.477	30.5
530.688	28.5
531.898	30
533.109	30.5
534.319	27.5
535.53	25.5
536.739	28
537.948	29.5
539.158	31.5
540.366	27
541.576	27
542.784	27.5
543.994	25
545.201	27.5
546.409	24.5
547.618	29.5
548.825	27.5
550.032	29
551.24	29
552.447	27
553.654	31
554.861	24
556.067	28
557.273	27.5
558.48	30.5
559.686	29.5
560.891	29
562.096	24.5
563.302	27
564.507	27
565.712	26
566.916	29
568.122	28
569.326	27.5
570.529	26
571.733	25
572.936	25
574.141	31
575.344	29
576.547	28
577.75	26
578.952	22.5
580.154	28
581.358	32.5
582.56	27
583.761	25
584.963	28
586.164	29.5
587.365	31.5
588.566	26
589.767	29.5
590.967	29
592.168	28
593.369	27
594.569	24.5
595.769	29
596.969	30
598.168	25.5
599.367	32
600.566	30
601.765	26
602.964	28.5
604.162	29.5
605.361	27.5
606.559	31.5
607.757	26
608.953	22
610.151	24.5
611.348	29
612.545	31.5
613.742	29.5
614.939	28
616.135	31.5
617.332	28
618.528	24
619.724	28
620.918	28
622.114	30.5
623.309	28
624.505	30.5
625.7	25.5
626.895	25
628.088	29
629.282	30
630.477	28
631.671	28
632.865	29.5
634.057	24
635.251	27.5
636.444	26
637.637	27.5
638.829	26
640.022	30.5
641.214	34
642.407	29.5
643.598	28.5
644.79	29.5
645.982	26
647.172	32
648.364	27
649.555	27.5
650.745	24.5
651.936	27
653.126	26.5
654.315	30
655.506	31
656.696	32
657.885	28
659.074	29
660.263	31
661.452	30
662.64	29
663.829	29
665.018	29.5
666.205	33
667.394	27
668.581	29
669.769	28
670.955	30.5
672.143	28
673.329	31.5
674.517	30.5
675.703	31.5
676.89	32
678.075	28
679.262	32.5
680.447	30
681.632	32.5
682.818	35
684.002	29.5
685.188	34
686.372	34
687.556	35
688.741	34
689.925	39
691.11	31.5
692.293	28.5
693.476	33.5
694.66	33.5
695.843	30
697.025	33
698.209	34
699.391	34.5
700.573	37
701.756	40
702.938	37
704.119	44
705.3	43
706.483	42
707.664	49
708.844	57.5
710.025	46.5
711.206	49
712.386	47
713.566	41
714.746	41
715.925	37
717.106	36
718.285	30
719.464	33
720.643	29
721.822	27
723	31.5
724.178	26.5
725.358	30.5
726.536	31
727.713	27
728.891	29
730.068	28
731.245	29
732.422	32
733.599	27
734.775	26.5
735.952	29.5
737.128	25
738.304	29
739.48	28.5
740.656	27
741.831	28
743.006	29
744.181	28
745.356	33
746.531	25
747.706	26
748.88	29
750.054	29
751.228	27
752.402	28.5
753.576	27.5
754.749	30
755.922	28
757.095	28.5
758.267	32
759.44	33
760.612	28.5
761.785	28.5
762.957	26.5
764.129	28
765.301	28
766.471	24
767.642	29
768.814	26.5
769.985	30.5
771.156	28
772.325	28
773.495	27.5
774.666	29
775.836	31
777.005	29
778.174	29
779.344	30.5
780.513	26
781.681	31
782.85	32.5
784.019	27
785.187	26
786.355	33
787.523	36.5
788.69	34
789.858	29
791.026	28
792.192	31.5
793.36	33.5
794.526	28.5
795.693	33.5
796.86	32
798.025	29
799.191	29
800.356	31
801.523	26.5
802.689	31
803.853	29.5
805.019	29.5
806.183	25
807.348	27.5
808.512	25.5
809.677	30
810.84	21
812.005	27.5
813.167	30
814.332	25.5
815.494	30.5
816.657	31
817.82	28.5
818.982	25
820.146	27.5
821.307	29
822.47	27.5
823.632	28.5
824.793	24.5
825.955	26
827.116	25.5
828.277	26.5
829.439	29
830.599	27
831.759	26
832.92	28
834.08	25
835.24	30
836.4	27
837.56	30
838.719	27
839.877	29
841.037	30.5
842.196	28
843.354	29.5
844.512	30.5
845.672	28
846.83	27
847.987	23.5
849.145	27
850.302	28
851.46	28.5
852.617	28
853.774	28.5
854.93	27
856.087	26
857.243	27.5
858.4	25
859.556	28.5
860.712	29
861.867	28.5
863.022	30.5
864.177	26
865.332	30.5
866.487	23
867.642	30
868.796	28.5
869.95	24.5
871.104	29
872.258	32
873.412	28
874.565	30
875.718	30.5
876.872	29
878.024	30
879.177	26
880.33	24.5
881.482	33
882.635	26.5
883.787	25.5
884.938	30
886.09	24
887.242	25
888.393	23
889.544	25
890.695	24.5
891.845	29
892.995	24.5
894.146	25.5
895.296	29.5
896.446	20
897.596	27
898.744	26
899.894	27.5
901.043	27
902.193	26.5
903.342	29.5
904.489	26
905.638	28
906.786	20.5
907.935	27.5
909.081	26
910.229	26
911.377	27
912.525	26
913.671	25.5
914.818	26
915.965	28.5
917.111	28
918.258	23
919.404	23
920.549	25
921.695	27.5
922.84	25
923.986	30
925.132	25
926.276	26
927.421	26.5
928.565	26
929.71	23.5
930.855	24
931.998	25
933.142	23
934.285	30
935.429	25
936.572	28
937.716	26.5
938.858	22
940.001	23.5
941.143	25
942.286	26.5
943.428	24.5
944.57	25.5
945.712	22.5
946.854	23.5
947.995	25
949.135	23
950.277	25
951.418	25
952.559	24
953.699	23.5
954.839	27
955.98	25.5
957.119	23
958.258	29
959.399	26.5
960.538	25
961.676	24
962.816	23
963.955	23.5
965.093	27
966.232	24
967.37	23.5
968.508	23
969.645	25.5
970.784	24.75
971.921	24
973.058	29
974.195	27.5
975.333	26
976.469	27
977.605	25.5
978.741	23.5
979.877	29
981.013	26
982.15	26
983.285	30
984.421	25
985.556	26
986.691	28
987.825	24.5
988.96	24
990.094	26.5
991.228	23
992.364	23
993.497	25.5
994.631	27.5
995.765	25.5
996.898	26.5
998.031	27
999.164	26
1000.3	23
1001.43	26
1002.56	25.5
1003.69	27
1004.83	26.5
1005.96	27
1007.09	27.5
1008.22	26
1009.35	25
1010.48	25
1011.61	26
1012.74	27
1013.88	27
1015.01	29.5
1016.14	27
1017.27	22
1018.4	29.5
1019.53	25
1020.65	22.5
1021.78	23
1022.91	27
1024.04	27.5
1025.17	25
1026.3	27.5
1027.43	26.5
1028.56	24.5
1029.68	25.5
1030.81	26
1031.94	24.5
1033.07	26.5
1034.19	24
1035.32	26.5
1036.45	22
1037.58	27
1038.7	25.5
1039.83	28
1040.95	25
1042.08	22
1043.21	24
1044.33	24.5
1045.46	21
1046.58	26.5
1047.71	24.5
1048.83	25.5
1049.96	27.5
1051.08	21.5
1052.21	26
1053.33	22
1054.45	25
1055.58	22
1056.7	29
1057.82	25
1058.95	22.5
1060.07	25.5
1061.19	26
1062.32	26.5
1063.44	22
1064.56	23.5
1065.68	26
1066.81	26
1067.93	23
1069.05	27.5
1070.17	27
1071.29	23
1072.41	27.5
1073.53	25.5
1074.65	20.5
1075.77	28
1076.89	24
1078.01	27
1079.13	24.5
1080.25	24
1081.37	24
1082.49	26.5
1083.61	27.5
1084.73	24
1085.85	24.5
1086.97	21.5
1088.09	29.5
1089.2	26.5
1090.32	27.5
1091.44	22.5
1092.56	25
1093.68	25
1094.79	26
1095.91	23
1097.03	26
1098.14	27
1099.26	25.5
1100.38	25
1101.49	24.5
1102.61	24
1103.73	26
1104.84	24
1105.96	24
1107.07	22.5
1108.19	21.5
1109.3	24.5
1110.42	27
1111.53	27
1112.65	23.5
1113.76	22.5
1114.88	28
1115.99	27
1117.1	23
1118.22	29
1119.33	24.5
1120.44	26
1121.56	23
1122.67	25
1123.78	23.5
1124.89	25.5
1126.01	23.5
1127.12	24
1128.23	25
1129.34	26
1130.45	25.5
1131.56	28.5
1132.67	22.5
1133.79	21
1134.9	21.5
1136.01	26.5
1137.12	27
1138.23	22.5
1139.34	23
1140.45	27.5
1141.56	22
1142.67	22.5
1143.78	26
1144.89	24
1145.99	27.5
1147.1	24
1148.21	20
1149.32	29.5
1150.43	22
1151.54	24.5
1152.65	22
1153.75	22.5
1154.86	24.5
1155.97	23.5
1157.08	21.5
1158.18	25
1159.29	27
1160.4	24
1161.5	24
1162.61	23
1163.72	26
1164.82	26
1165.93	26
1167.03	27
1168.14	24
1169.24	24.5
1170.35	24.5
1171.45	22.5
1172.56	26
1173.66	24
1174.77	25
1175.87	25.5
1176.98	27
1178.08	23.5
1179.18	18
1180.29	24.5
1181.39	22.5
1182.49	23
1183.6	18.5
1184.7	30
1185.8	30
1186.9	24
1188	22
1189.11	21.5
1190.21	21.5
1191.31	21
1192.41	25.5
1193.51	24
1194.61	24.4972
1195.72	21.9845
1196.82	23.1049
1197.92	24.5431
1199.02	22.5655
1200.12	24.9325
1201.22	23.8614
1202.32	25.4061
1203.42	24.7415
1204.52	24.1225
1205.62	22.1823
1206.71	26.0423
1207.81	23.8805
1208.91	22.7841
1210.01	21.7999
1211.11	24.1542
1212.21	23.3623
1213.31	22.6766
1214.4	21.3954
1215.5	26.2509
1216.6	24.5985
1217.7	25.6866
1218.79	24.8088
1219.89	24.0688
1220.99	26.8366
1222.08	23.5075
1223.18	23
1224.28	24.467
1225.37	27.4437
1226.47	24.9331
1227.56	26.0496
1228.66	23.5557
1229.76	23.9031
1230.85	22.9862
1231.95	25.8049
1233.04	21.7178
1234.14	25.4144
1235.23	25.6971
1236.32	25.5495
1237.42	22.8002
1238.51	25.6361
1239.61	24.1744
1240.7	24.7808
1241.79	24.245
1242.89	24.2543
1243.98	23.0393
1245.07	23.3918
1246.17	23.912
1247.26	23.8408
1248.35	24.3878
1249.44	25.5669
1250.53	24.3077
1251.63	25.3969
1252.72	24.3244
1253.81	25.8228
1254.9	24.445
1255.99	26.0247
1257.08	25.5356
1258.17	25.0255
1259.27	28.076
1260.36	24.9263
1261.45	28.5112
1262.54	27.1749
1263.63	24.1623
1264.72	25.5037
1265.81	24.9525
1266.89	26.3578
1267.98	25.1219
1269.07	26.3301
1270.16	23.7126
1271.25	23.8384
1272.34	26.1442
1273.43	26.0873
1274.52	25.6865
1275.6	25.1398
1276.69	26.3232
1277.78	24.4713
1278.87	22.9799
1279.95	23.1922
1281.04	23.6042
1282.13	26.17
1283.22	23.3476
1284.3	23.2783
1285.39	25.3539
1286.48	24.957
1287.56	24.7885
1288.65	24.699
1289.73	25.4242
1290.82	23.1444
1291.9	22.738
1292.99	24.2784
1294.07	24.2499
1295.16	24.6131
1296.24	23.8068
1297.33	24.153
1298.41	26.1125
1299.5	26.9004
1300.58	23.3555
1301.66	21.4059
1302.75	23.5757
1303.83	24.6252
1304.91	24.1927
1306	21.4552
1306.4	20
1307.48	21
1308.57	26.5
1309.66	27
1310.75	21.5
1311.84	24
1312.92	24
1314.01	21
1315.1	23.5
1316.18	23.5
1317.27	25
1318.36	22
1319.44	20
1320.53	22
1321.62	25
1322.7	22.5
1323.79	25
1324.87	25
1325.96	27.5
1327.04	24
1328.13	27
1329.21	26.5
1330.3	25
1331.38	20
1332.47	21
1333.55	24.5
1334.64	26
1335.72	26
1336.8	24
1337.89	27
1338.97	28.5
1340.05	26
1341.14	25
1342.22	26.5
1343.3	23.5
1344.38	25
1345.47	21
1346.55	21
1347.63	28.5
1348.71	22.5
1349.79	20.5
1350.87	26.5
1351.96	26.5
1353.04	25
1354.12	26
1355.2	22.5
1356.28	27
1357.36	23
1358.44	28
1359.52	23.5
1360.6	25
1361.68	21
1362.76	25.5
1363.84	23.5
1364.92	22.5
1366	26.5
1367.07	22.5
1368.15	23
1369.23	29
1370.31	21.5
1371.39	21.5
1372.47	25
1373.54	25.5
1374.62	25.5
1375.7	23
1376.78	27.5
1377.85	26.5
1378.93	23.5
1380.01	25
1381.08	26.5
1382.16	20
1383.24	26.5
1384.31	25
1385.39	28
1386.46	25.5
1387.54	23
1388.61	25
1389.69	23
1390.76	25
1391.84	25.5
1392.91	26
1393.99	26
1395.06	26
1396.14	31
1397.21	26
1398.29	28.5
1399.36	27.5
1400.43	29
1401.51	30.5
1402.58	29
1403.65	31
1404.72	29.5
1405.8	30.5
1406.87	27
1407.94	30
1409.02	28
1410.09	33
1411.16	32.5
1412.23	27.5
1413.3	31
1414.37	38.5
1415.44	30.5
1416.51	26
1417.59	22.5
1418.66	29.5
1419.73	27.5
1420.8	27.5
1421.87	29
1422.94	27.5
1424.01	25
1425.08	24.5
1426.15	28
1427.22	27
1428.28	24
1429.35	25
1430.42	24.5
1431.49	25.5
1432.56	27
1433.63	24.5
1434.7	22
1435.76	27.5
1436.83	25.5
1437.9	24
1438.97	27.5
1440.03	25
1441.1	28.5
1442.17	25
1443.23	26
1444.3	24
1445.37	27
1446.43	30
1447.5	27.5
1448.57	26.5
1449.63	25.5
1450.7	23
1451.76	23.5
1452.83	24.5
1453.89	25
1454.96	22.5
1456.02	20
1457.09	25.5
1458.15	20
1459.22	25.5
1460.28	24
1461.34	29
1462.41	22
1463.47	22.5
1464.53	25
1465.6	24.5
1466.66	25.5
1467.72	25
1468.78	22
1469.85	25.5
1470.91	25.5
1471.97	22
1473.03	28.5
1474.1	22
1475.16	30.5
1476.22	24.5
1477.28	26
1478.34	24.5
1479.4	25.5
1480.46	26
1481.52	24
1482.58	25
1483.65	25.5
1484.71	24.5
1485.77	24
1486.82	24
1487.89	26.5
1488.94	27.5
1490	23.5
1491.06	23.5
1492.12	24
1493.18	28.5
1494.24	28
1495.3	30
1496.36	26.5
1497.41	24
1498.47	26
1499.53	20
1500.59	26
1501.65	23
1502.7	26.5
1503.76	25
1504.82	24
1505.87	22
1506.93	23
1507.99	25
1509.04	28
1510.1	23.5
1511.16	22
1512.21	25.5
1513.27	28
1514.32	29
1515.38	28
1516.43	26.5
1517.49	21
1518.54	27
1519.6	28.5
1520.65	21
1521.71	24.5
1522.76	24
1523.81	26.5
1524.87	24.5
1525.92	25.5
1526.98	25
1528.03	24
1529.08	25.5
1530.14	28
1531.19	25
1532.24	22.5
1533.29	20.5
1534.35	25
1535.4	24.5
1536.45	23
1537.5	27
1538.55	25.5
1539.61	26
1540.66	25.5
1541.71	23.5
1542.76	25
1543.81	21.5
1544.86	30
1545.91	22.5
1546.96	27
1548.01	22.5
1549.06	25
1550.11	21
1551.16	28
1552.21	21
1553.26	25
1554.31	21.5
1555.36	23.5
1556.41	28
1557.46	27.5
1558.5	24
1559.55	27
1560.6	23.5
1561.65	27.5
1562.7	21.5
1563.74	29.5
1564.79	26
1565.84	21.5
1566.89	24.5
1567.93	27
1568.98	24
1570.03	28.5
1571.07	23.5
1572.12	28
1573.17	22
1574.21	24.5
1575.26	27.5
1576.3	26.5
1577.35	22.5
1578.4	25
1579.44	21.5
1580.49	30
1581.53	25.5
1582.58	27.5
1583.62	26
1584.66	22
1585.71	27
1586.75	27.5
1587.8	27
1588.84	25.5
1589.88	28
1590.93	27.5
1591.97	24.5
1593.01	27.5
1594.06	21.5
1595.1	23.5
1596.14	26.5
1597.18	26
1598.23	27.5
1599.27	27
1600.31	23.5
1601.35	25
1602.39	24.5
1603.44	24
1604.48	27
1605.52	24
1606.56	24
1607.6	24
1608.64	26
1609.68	24
1610.72	24.5
1611.76	27
1612.8	26
1613.84	23
1614.88	25
1615.92	25.5
1616.96	23
1618	24.5
1619.04	27.5
1620.08	25
1621.12	25.5
1622.16	22
1623.19	29
1624.23	22.5
1625.27	24.5
1626.31	24.5
1627.35	24.5
1628.38	25.5
1629.42	24
1630.46	26
1631.49	23
1632.53	30
1633.57	23.5
1634.6	28.5
1635.64	24.5
1636.68	29
1637.71	23
1638.75	24.5
1639.79	23
1640.82	27
1641.86	27.5
1642.89	26
1643.93	25.5
1644.96	30
1646	24
1647.03	26.5
1648.07	27
1649.1	21.5
1650.13	25.5
1651.17	23
1652.2	25.5
1653.24	24
1654.27	27.5
1655.3	26.5
1656.34	23
1657.37	25.5
1658.4	23
1659.43	25
1660.47	24
1661.5	28.5
1662.53	22
1663.56	28
1664.6	26
1665.63	24.5
1666.66	24
1667.69	20.5
1668.72	27
1669.75	21
1670.78	27
1671.81	24
1672.85	25
1673.88	23.5
1674.91	24
1675.94	25
1676.97	24
1678	24.5
1679.03	26
1680.06	24.5
1681.09	24.5
1682.11	27
1683.14	23
1684.17	26.5
1685.2	29
1686.23	27
1687.26	23
1688.29	23
1689.31	23.5
1690.34	23.5
1691.37	25
1692.4	28
1693.42	24.5
1694.45	26
1695.48	26
1696.51	23
1697.53	22
1698.56	26
1699.59	25.5
1700.61	20.5
1701.64	24.5
1702.66	22.5
1703.69	28
1704.72	24
1705.74	24
1706.77	25
1707.79	25.5
1708.82	19
1709.84	27.5
1710.87	25
1711.89	24
1712.91	26.5
1713.94	25.5
1714.96	24.5
1715.99	29.5
1717.01	23
1718.03	27.5
1719.06	25
1720.08	26
1721.1	23.5
1722.13	25.5
1723.15	25.5
1724.17	25
1725.19	27
1726.22	21
1727.24	26.5
1728.26	27.5
1729.28	25
1730.3	24
1731.33	26
1732.35	24
1733.37	25
1734.39	23
1735.41	25
1736.43	25
1737.45	26
1738.47	27.5
1739.49	25
1740.51	24.5
1741.53	23.5
1742.55	23
1743.57	23.5
1744.59	26
1745.61	24.5
1746.63	26
1747.65	26.5
1748.67	27.5
1749.69	24
1750.7	25.5
1751.72	25.5
1752.74	25
1753.76	21
1754.78	26.5
1755.79	26
1756.81	27
1757.83	25.5
1758.85	25
1759.86	28
1760.88	20.5
1761.9	21
1762.91	26
1763.93	27.5
1764.95	23.5
1765.96	26.5
1766.98	20.5
1767.99	23
1769.01	25.5
1770.02	23.5
1771.04	24.5
1772.06	25.5
1773.07	25
1774.09	22
1775.1	25
1776.11	29
1777.13	22
1778.14	28
1779.16	26
1780.17	26.5
1781.18	24
1782.2	24
1783.21	25
1784.22	27.5
1785.24	26
1786.25	21.5
1787.26	21
1788.28	28
1789.29	26
1790.3	25
1791.31	28.5
1792.33	23.5
1793.34	22
1794.35	24
1795.36	25.5
1796.37	27
1797.38	29
1798.39	24.5
1799.4	28
1800.42	21
1801.43	27
1802.44	23.5
1803.45	20
1804.46	25.5
1805.47	25.5
1806.48	26
1807.49	21.5
1808.5	26
1809.51	23.5
1810.51	26
1811.52	29.5
1812.53	27
1813.54	28
1814.55	20
1815.56	24
1816.57	26
1817.57	25
1818.58	24
1819.59	27
1820.6	22.5
1821.61	25.5
1822.61	24.5
1823.62	25.5
1824.63	20
1825.63	24
1826.64	22
1827.65	23
1828.65	20.5
1829.66	27
1830.67	24.5
1831.67	22
1832.68	23
1833.68	22.5
1834.69	25
1835.69	25
1836.7	25
1837.7	23
1838.71	24
1839.71	25.5
1840.72	24
1841.72	24.5
1842.73	24
1843.73	24.5
1844.73	26
1845.74	23.5
1846.74	25.5
1847.74	27
1848.75	21.5
1849.75	23.5
1850.75	23.5
1851.76	24.5
1852.76	23
1853.76	26
1854.76	29
1855.77	23
1856.77	26.5
1857.77	23
1858.77	23
1859.77	24
1860.77	20.5
1861.78	24
1862.78	24.5
1863.78	24.5
1864.78	24.5
1865.78	22
1866.78	23.5
1867.78	25
1868.78	21
1869.78	21
1870.78	26
1871.78	23
1872.78	24.5
1873.78	21
1874.78	24.5
1875.78	26
1876.78	25
1877.78	23
1878.77	23
1879.77	23.5
1880.77	25
1881.77	23.5
1882.77	27.5
1883.77	20
1884.76	26.5
1885.76	22
1886.76	21.5
1887.75	27
1888.75	25.5
1889.75	26
1890.75	22.5
1891.74	26
1892.74	19
1893.73	25.5
1894.73	21
1895.73	22.5
1896.72	21.5
1897.72	23.5
1898.71	22.5
1899.71	26
1900.7	22.5
1901.7	23
1902.69	27
1903.69	26.5
1904.68	24.5
1905.68	23.5
1906.67	23
1907.67	23
1908.66	23
1909.65	23.5
1910.65	25
1911.64	23
1912.63	24
1913.63	27.5
1914.62	24.5
1915.61	24.5
1916.61	26
1917.6	25
1918.59	26.5
1919.58	27.5
1920.58	24
1921.57	28
1922.56	27
1923.55	20
1924.54	26
1925.54	21.5
1926.53	29
1927.52	24.5
1928.51	24
1929.5	20
1930.49	23
1931.48	24
1932.47	24.5
1933.46	23
1934.45	25
1935.44	23.5
1936.43	26.5
1937.42	24
1938.41	25.5
1939.4	25.5
1940.39	23
1941.38	26
1942.37	25
1943.35	25.5
1944.34	27.5
1945.33	20.5
1946.32	27.5
1947.31	22.5
1948.3	23.25
1949.28	24
1950.27	23
1951.26	24
1952.25	25
1953.23	24
1954.22	22
1955.21	23
1956.19	28
1957.18	25.5
1958.17	29
1959.15	22
1960.14	20
1961.12	27
1962.11	25.5
1963.1	20.5
1964.08	17
1965.07	24
1966.05	24
1967.04	22.5
1968.02	22
1969.01	28
1969.99	21.5
1970.98	21.5
1971.96	22.5
1972.94	23.5
1973.93	24
1974.91	26.5
1975.9	26.5
1976.88	24
1977.86	25.5
1978.85	24
1979.83	21
1980.81	24
1981.79	24
1982.78	21
1983.76	25.5
1984.74	19
1985.72	22
1986.71	22
1987.69	24.5
1988.67	18
1989.65	25
1990.63	23.5
1991.61	24
1992.59	25
1993.57	23.5
1994.56	21.5
1995.54	24
1996.52	23
1997.5	23
1998.48	25
1999.46	23
2000.44	21.5
2001.42	26
2002.4	22.5
2003.38	24
2004.36	27.5
2005.33	23
2006.31	21.5
2007.29	28
2008.27	22.5
2009.25	20
2010.23	20.5
2011.21	23.5
2012.18	20.5
2013.16	24
2014.14	23
2015.12	25
2016.09	21
2017.07	23.5
2018.05	21
2019.03	23
2020	20
2020.98	25
2021.96	26
2022.93	26.5
2023.91	24
2024.89	24.5
2025.86	23.5
2026.84	30
2027.81	22
2028.79	23.5
2029.76	23.5
2030.74	23
2031.71	22.5
2032.69	24
2033.66	21
2034.64	26
2035.61	24
2036.59	26.5
2037.56	25
2038.54	22
2039.51	24.5
2040.48	23
2041.46	19.5
2042.43	23.5
2043.4	21.5
2044.38	25
2045.35	22
2046.32	19
2047.29	25
2048.27	24.5
2049.24	23
2050.21	24.5
2051.18	20.5
2052.16	22
2053.13	21
2054.1	25
2055.07	22
2056.04	21.5
2057.01	21
2057.98	23.5
2058.96	24.5
2059.93	20
2060.9	25.5
2061.87	21
2062.84	20.5
2063.81	23.5
2064.78	24.5
2065.75	24
2066.72	18
2067.69	22
2068.66	24.5
2069.63	24.5
2070.6	19.5
2071.56	22
2072.53	25
2073.5	25.5
2074.47	25
2075.44	23.5
2076.41	24.5
2077.38	21
2078.34	22.5
2079.31	24.5
2080.28	26
2081.25	24
2082.21	21
2083.18	27
2084.15	22.5
2085.11	21
2086.08	21.5
2087.05	20.5
2088.01	25
2088.98	25.5
2089.95	25
2090.91	20
2091.88	18
2092.84	24.5
2093.81	26
2094.78	26
2095.74	23.5
2096.71	21.5
2097.67	22
2098.64	22
2099.6	21
2100.57	25.5
2101.53	23
2102.49	28
2103.46	24
2104.42	25.5
2105.39	22
2106.35	22
2107.31	24
2108.28	25.5
2109.24	24
2110.2	25.5
2111.17	23
2112.13	21.5
2113.09	25.5
2114.05	20
2115.02	25
2115.98	20.5
2116.94	26
2117.9	20
2118.86	30
2119.83	19.5
2120.79	27.5
2121.75	23.5
2122.71	22.5
2123.67	23
2124.63	22.5
2125.59	20.5
2126.55	21
2127.51	25.5
2128.47	20
2129.43	23.5
2130.39	23
2131.35	21
2132.31	20.5
2133.27	22.5
2134.23	25.5
2135.19	24.5
2136.15	24.5
2137.11	22.5
2138.07	22
2139.03	21.5
2139.99	25
2140.94	24.5
2141.9	21
2142.86	24.0029
2143.82	22.4882
2144.78	23.0318
2145.73	22.5277
2146.69	23.9384
2147.65	23.9606
2148.61	22.5829
2149.56	22.83
2150.52	25.6087
2151.48	22.7233
2152.43	21.8191
2153.39	22.8244
2154.35	23.1795
2155.3	22.6425
2156.26	19.4223
2157.21	21.1222
2158.17	23.1161
2159.13	22.5947
2160.08	23.4095
2161.04	22.985
2161.99	21.6945
2162.95	22.5
2163.9	22.8908
2164.86	20.9952
2165.81	22.861
2166.77	24.2263
2167.72	19.6398
2168.67	21.2496
2169.63	21.0167
2170.58	26.5916
2171.54	21.1558
2172.49	22.6873
2173.44	24.2696
2174.4	22.9821
2175.35	22.4876
2176.3	22.6639
2177.26	23.6349
2178.21	21.1691
2179.16	19.9588
2180.11	23.2606
2181.07	20.6982
2182.02	22.9915
2182.97	20.7981
2183.92	22.7295
2184.87	21.284
2185.82	22.0756
2186.78	22.0732
2187.73	23.0164
2188.68	21.2647
2189.63	22.3401
2190.58	21.4972
2191.53	21.3067
2192.48	22.3944
2193.43	22.0114
2194.38	22.1046
2195.33	23.6464
2196.28	22.9711
2197.23	20.0978
2198.18	21.7192
2199.13	22.8098
2200.08	23.2714
2201.03	22.7656
2201.98	22.2277
2202.93	23.4047
2203.88	23.6917
2204.83	20.944
2205.77	22.328
2206.72	21.2099
2207.67	23.8608
2208.62	21.5746
2209.57	23.2629
2210.52	22.2922
2211.46	24.8268
2212.41	23.4544
2213.36	22.8244
2214.31	22.5356
2215.25	22.5225
2216.2	22.2249
2217.15	21.5947
2218.09	22.3812
2219.04	21.4601
2219.99	20.0631
2220.93	21.0536
2221.88	20.8687
2222.82	23.7068
2223.77	19.9212
2224.72	22.7271
2225.66	23.0278
2226.61	24.4322
2227.55	20.3784
2228.5	23.3892
2229.44	23.8517
2230.39	22.9451
2231.33	21.0362
2232.28	21.2812
2233.22	21.3362
2234.16	20.7301
2235.11	22.1023
2236.05	24.5721
2237	24.2374
2237.94	23.542
2238.88	21.7784
2239.83	24.3708
2240.13	26
2241.08	23
2242.03	22
2242.98	19
2243.92	22
2244.87	19
2245.82	22
2246.76	22
2247.71	22.5
2248.66	24
2249.61	22
2250.55	22.5
2251.5	18.5
2252.45	24.5
2253.39	19
2254.34	22.5
2255.28	24
2256.23	23.5
2257.18	24
2258.12	22
2259.07	24
2260.01	22.5
2260.96	23.5
2261.9	24
2262.85	21
2263.79	21.5
2264.74	21
2265.68	24
2266.63	24
2267.57	25.5
2268.51	27
2269.46	21.5
2270.4	22.5
2271.35	26.5
2272.29	22
2273.23	24
2274.18	19.5
2275.12	20
2276.06	24
2277	19
2277.95	22.5
2278.89	20.5
2279.83	19
2280.78	21.5
2281.72	26
2282.66	24.5
2283.6	20
2284.54	20.5
2285.48	22
2286.43	19
2287.37	22.5
2288.31	23
2289.25	21
2290.19	21
2291.13	21
2292.07	24.5
2293.01	22.5
2293.95	24.5
2294.89	20
2295.83	21.5
2296.77	24
2297.71	25
2298.65	22
2299.59	20
2300.53	23.5
2301.47	21.5
2302.41	20.5
2303.35	24
2304.29	23
2305.22	24
2306.16	22
2307.1	24
2308.04	25
2308.98	22.5
2309.91	24.5
2310.85	23.5
2311.79	18
2312.73	22
2313.66	24
2314.6	19.5
2315.54	25
2316.48	22
2317.41	25
2318.35	21
2319.29	19
2320.22	25
2321.16	25.5
2322.09	25
2323.03	27.5
2323.97	21
2324.9	25.5
2325.84	24.5
2326.77	24.5
2327.71	22.5
2328.64	23
2329.58	20.5
2330.51	23
2331.45	21.5
2332.38	23
2333.32	25
2334.25	29
2335.18	23.5
2336.12	21.5
2337.05	23
2337.99	24.5
2338.92	20.5
2339.85	21
2340.79	23.5
2341.72	25
2342.65	22.5
2343.59	25
2344.52	20.5
2345.45	26.5
2346.38	22
2347.32	24
2348.25	22
2349.18	21.5
2350.11	25.5
2351.04	21.5
2351.98	24
2352.91	23
2353.84	23.5
2354.77	25.5
2355.7	23
2356.63	21.5
2357.56	21.5
2358.49	22
2359.42	25.5
2360.35	24
2361.28	24.5
2362.21	23
2363.14	26
2364.07	28
2365	24.5
2365.93	23
2366.86	21.5
2367.79	27
2368.72	19
2369.65	24
2370.58	26
2371.51	21
2372.44	24
2373.36	19.5
2374.29	21
2375.22	24
2376.15	27
2377.08	22
2378	24
2378.93	24
2379.86	23.5
2380.79	23.5
2381.71	24.5
2382.64	21
2383.57	19
2384.49	24.5
2385.42	25.5
2386.35	23.5
2387.27	22.5
2388.2	19
2389.13	24
2390.05	17
2390.98	22.5
2391.9	25.5
2392.83	23
2393.76	23
2394.68	22.5
2395.61	24
2396.53	23.5
2397.46	24.5
2398.38	21
2399.3	24
2400.23	23
2401.15	22.5
2402.08	23
2403	25
2403.93	24.5
2404.85	22.5
2405.77	22.5
2406.7	24
2407.62	24
2408.54	25.5
2409.47	22.5
2410.39	23
2411.31	23.5
2412.24	23.5
2413.16	22
2414.08	28.5
2415	22
2415.92	20.5
2416.85	23.5
2417.77	21
2418.69	25
2419.61	24
2420.53	23.5
2421.45	23.5
2422.38	26.5
2423.3	26
2424.22	24.5
2425.14	21
2426.06	23.5
2426.98	24
2427.9	21.5
2428.82	21.5
2429.74	21.5
2430.66	27.5
2431.58	20
2432.5	24
2433.42	22
2434.34	21.5
2435.26	27.5
2436.18	23
2437.1	26.5
2438.01	25
2438.93	27
2439.85	22.5
2440.77	23
2441.69	24.5
2442.61	23
2443.52	22
2444.44	21
2445.36	26
2446.28	23
2447.2	24.5
2448.11	21
2449.03	28
2449.95	23.5
2450.86	27
2451.78	22.5
2452.7	22
2453.61	27.5
2454.53	23.5
2455.45	26
2456.36	24
2457.28	23.5
2458.2	23.5
2459.11	27
2460.03	23.5
2460.94	26
2461.86	22.5
2462.77	21
2463.69	22
2464.6	22.5
2465.52	23.5
2466.43	22
2467.35	25.5
2468.26	23.5
2469.18	23
2470.09	24
2471	23
2471.92	24
2472.83	22.5
2473.74	26
2474.66	27
2475.57	24
2476.48	23.5
2477.4	29
2478.31	23.5
2479.22	26.5
2480.14	23
2481.05	24.5
2481.96	28
2482.87	23.5
2483.79	23
2484.7	27
2485.61	22
2486.52	26
2487.43	24
2488.34	21.5
2489.25	25.5
2490.17	25
2491.08	25.5
2491.99	25
2492.9	24
2493.81	25
2494.72	24
2495.63	22
2496.54	25.5
2497.45	20.5
2498.36	26.5
2499.27	24.5
2500.18	26.5
2501.09	27
2502	27
2502.91	27.5
2503.82	25
2504.73	21.5
2505.63	28
2506.54	18
2507.45	24
2508.36	24
2509.27	27
2510.18	23
2511.09	21.5
2511.99	25
2512.9	25
2513.81	19
2514.72	26
2515.62	27.5
2516.53	26
2517.44	24.5
2518.34	20
2519.25	24
2520.16	25.5
2521.06	26
2521.97	23.5
2522.88	21.5
2523.78	20
2524.69	22
2525.6	23
2526.5	22
2527.41	22.5
2528.31	23.5
2529.22	26.5
2530.12	24.5
2531.03	23
2531.93	21
2532.84	25
2533.74	25
2534.65	24
2535.55	22.5
2536.46	26
2537.36	21
2538.27	24.5
2539.17	25
2540.07	24
2540.98	25
2541.88	23.5
2542.78	23
2543.69	25
2544.59	23.5
2545.49	21
2546.4	23.5
2547.3	22
2548.2	25.5
2549.1	23.5
2550.01	23.5
2550.91	27
2551.81	23.5
2552.71	21.5
2553.61	25.5
2554.52	23
2555.42	28
2556.32	26
2557.22	22
2558.12	23.5
2559.02	23
2559.92	28.5
2560.82	24
2561.72	22
2562.62	27
2563.53	24.5
2564.43	24.5
2565.33	25
2566.23	25.5
2567.13	25
2568.03	23
2568.92	26
2569.82	23.5
2570.72	27
2571.62	27
2572.52	23.5
2573.42	21.5
2574.32	24
2575.22	23
2576.12	25
2577.02	22
2577.91	22.5
2578.81	22
2579.71	23
2580.61	24.5
2581.5	25.5
2582.4	23
2583.3	24
2584.2	22
2585.09	26.5
2585.99	27
2586.89	25
2587.78	19
2588.68	20.5
2589.58	20.5
2590.47	27
2591.37	22.5
2592.27	27.5
2593.16	25
2594.06	24.5
2594.95	21.5
2595.85	24.5
2596.75	23
2597.64	20
2598.54	24.5
2599.43	22
2600.33	26.5
2601.22	22
2602.12	27.5
2603.01	23
2603.9	25
2604.8	25.5
2605.69	20.5
2606.59	24.5
2607.48	23
2608.37	30
2609.27	28.5
2610.16	24
2611.05	25.5
2611.95	25
2612.84	29.5
2613.73	22.5
2614.63	22
2615.52	26
2616.41	26.5
2617.3	25
2618.2	26
2619.09	23
2619.98	25
2620.87	23.5
2621.76	22.5
2622.66	23.5
2623.55	23.5
2624.44	23.5
2625.33	23
2626.22	24
2627.11	24
2628	22.5
2628.9	24.5
2629.79	27
2630.68	24
2631.57	24.5
2632.46	24.5
2633.35	26
2634.24	24
2635.13	21.5
2636.02	21
2636.91	29
2637.8	24.5
2638.68	23.5
2639.57	27.5
2640.46	23
2641.35	23
2642.24	21.5
2643.13	25
2644.02	25
2644.91	23
2645.79	22.5
2646.68	23.5
2647.57	22.5
2648.46	26.5
2649.35	27
2650.23	27
2651.12	24
2652.01	25
2652.9	25
2653.78	25
2654.67	21.5
2655.56	26.5
2656.44	26
2657.33	26.5
2658.22	22
2659.1	25
2659.99	23
2660.88	22
2661.76	26.5
2662.65	23.5
2663.53	24.5
2664.42	24.5
2665.3	27
2666.19	23
2667.07	28.5
2667.96	20
2668.84	21
2669.73	24.5
2670.61	21
2671.5	21
2672.38	26
2673.27	21
2674.15	25
2675.04	24
2675.92	24.5
2676.8	24
2677.69	16
2678.57	20
2679.45	27
2680.34	25.5
2681.22	26
2682.1	24
2682.99	25
2683.87	25.5
2684.75	24
2685.63	18
2686.52	24
2687.4	23.5
2688.28	26
2689.16	27
2690.04	24
2690.93	24
2691.81	24.5
2692.69	24.5
2693.57	23
2694.45	24.5
2695.33	24
2696.21	23
2697.09	24.5
2697.97	26
2698.85	22.5
2699.74	25
2700.62	23.5
2701.5	22
2702.38	23
2703.26	26.5
2704.14	20
2705.02	23.5
2705.89	23.5
2706.77	22.5
2707.65	23
2708.53	24.5
2709.41	21
2710.29	23.5
2711.17	24.5
2712.05	25
2712.93	25.5
2713.8	23
2714.68	25.5
2715.56	23
2716.44	22.5
2717.32	25
2718.19	25
2719.07	25.5
2719.95	23
2720.83	24.5
2721.7	26.5
2722.58	26
2723.46	21.5
2724.33	21
2725.21	24
2726.09	22
2726.97	24
2727.84	22
2728.72	25.5
2729.59	24.5
2730.47	19.5
2731.35	21.5
2732.22	21
2733.1	26
2733.97	24.5
2734.85	25
2735.72	24.5
2736.6	25.5
2737.47	25
2738.35	23
2739.22	21.5
2740.1	24
2740.97	23
2741.84	25
2742.72	24.5
2743.59	21
2744.47	20
2745.34	22
2746.21	23
2747.09	26
2747.96	24.5
2748.83	21
2749.71	23
2750.58	24.5
2751.45	23.5
2752.33	25
2753.2	22
2754.07	24.5
2754.94	22
2755.82	23.5
2756.69	21.5
2757.56	22
2758.43	24
2759.3	23.5
2760.18	27
2761.05	24.5
2761.92	21.5
2762.79	25
2763.66	22.5
2764.53	24.5
2765.4	25
2766.27	27
2767.14	22
2768.01	21.5
2768.88	24.5
2769.75	24.5
2770.62	23
2771.49	23.5
2772.36	22.5
2773.23	24
2774.1	23
2774.97	27
2775.84	27
2776.71	24.5
2777.58	22
2778.45	26
2779.32	27
2780.19	25.5
2781.06	25
2781.92	22
2782.79	22.5
2783.66	27.5
2784.53	27
2785.4	24
2786.26	24
2787.13	25.5
2788	21
2788.87	20
2789.73	23.5
2790.6	20
2791.47	24
2792.34	25
2793.2	21
2794.07	28.5
2794.94	24.5
2795.8	24
2796.67	26.5
2797.53	23
2798.4	25.5
2799.27	29
2800.13	27.5
2801	28
2801.86	27.5
2802.73	27
2803.59	24.5
2804.46	27
2805.32	28
2806.19	24.5
2807.05	25
2807.92	25
2808.78	28
2809.65	27.5
2810.51	25.5
2811.38	22
2812.24	28.5
2813.1	26.5
2813.97	24.5
2814.83	25
2815.7	21.5
2816.56	25.5
2817.42	27
2818.29	25.5
2819.15	30
2820.01	25.5
2820.87	23.5
2821.74	26
2822.6	23.5
2823.46	27
2824.32	27.5
2825.19	23.5
2826.05	20.5
2826.91	25
2827.77	23
2828.63	22
2829.5	29
2830.36	25.5
2831.22	24.5
2832.08	23
2832.94	27
2833.8	24
2834.66	25.5
2835.52	20.5
2836.38	30.5
2837.24	26.5
2838.1	22
2838.96	20
2839.82	26.5
2840.68	28
2841.54	23
2842.4	27
2843.26	23
2844.12	25.5
2844.98	23
2845.84	24.5
2846.7	26.5
2847.56	27.5
2848.42	26.5
2849.28	24
2850.14	25
2850.99	26
2851.85	23.5
2852.71	28.5
2853.57	24.5
2854.43	26.5
2855.28	27
2856.14	29
2857	26
2857.86	24.5
2858.71	25.5
2859.57	29
2860.43	23
2861.28	28
2862.14	25
2863	24.5
2863.86	29.5
2864.71	28
2865.57	28
2866.42	23.5
2867.28	23.5
2868.14	26
2868.99	27
2869.85	23.5
2870.7	29
2871.56	27
2872.41	25.5
2873.27	33.5
2874.13	26
2874.98	27.5
2875.83	29.5
2876.69	31
2877.54	31
2878.4	25.5
2879.25	27.5
2880.11	34
2880.96	36
2881.81	31
2882.67	33
2883.52	32
2884.38	34.5
2885.23	30
2886.08	35.5
2886.94	33.5
2887.79	32
2888.64	37.5
2889.5	40
2890.35	37.5
2891.2	40
2892.05	39
2892.91	42
2893.76	46
2894.61	40
2895.46	50
2896.31	49
2897.17	49
2898.02	54.5
2898.87	48.5
2899.72	55.5
2900.57	57.5
2901.42	65
2902.27	64
2903.12	62
2903.98	69.5
2904.83	69.5
2905.68	66.5
2906.53	68
2907.38	69
2908.23	74.5
2909.08	67.5
2909.93	66
2910.78	65.5
2911.63	56
2912.48	59.5
2913.33	54
2914.18	57
2915.02	49
2915.87	50
2916.72	45
2917.57	44.5
2918.42	38
2919.27	38
2920.12	36.5
2920.97	42.5
2921.81	40.5
2922.66	31
2923.51	34.5
2924.36	29.5
2925.21	33
2926.05	32
2926.9	32.5
2927.75	30.5
2928.59	27
2929.44	30.5
2930.29	34
2931.14	26.5
2931.98	26
2932.83	30.5
2933.68	32
2934.52	30
2935.37	29
2936.21	26.5
2937.06	30
2937.91	27
2938.75	27.5
2939.6	27
2940.44	25
2941.29	26.5
2942.14	29
2942.98	32
2943.82	29
2944.67	30
2945.51	32.5
2946.36	28
2947.2	32.5
2948.05	27.5
2948.89	31
2949.74	26
2950.58	30
2951.43	29.5
2952.27	27
2953.11	31.5
2953.96	30.5
2954.8	29.5
2955.64	29
2956.49	35.5
2957.33	36
2958.17	37
2959.02	40.5
2959.86	37.5
2960.7	41
2961.54	40
2962.39	33.5
2963.23	44
2964.07	40.5
2964.91	43
2965.75	45
2966.6	46
2967.44	44
2968.28	43.5
2969.12	38.5
2969.96	37.5
2970.8	37.5
2971.64	42.9515
2972.48	34.943
2973.33	37.4347
2974.17	34.4848
2975.01	35.748
2975.85	33.065
2976.69	30.4877
2977.53	33.7762
2978.37	38.7225
2979.21	30.5384
2980.05	29.7305
2980.89	31.5532
2981.73	28.8263
2982.57	26.5931
2983.41	25.9689
2984.25	25.3248
2985.08	26.1554
2985.92	25.798
2986.76	30.2342
2987.6	28.7848
2988.44	24.3174
2989.28	25.7417
2990.12	26.8983
2990.96	27.3215
2991.79	26.8088
2992.63	28.8956
2993.47	21.2257
2994.31	26.3359
2995.14	26.7209
2995.98	30.1835
2996.82	24.6473
2997.66	26.072
2998.49	24.8747
2999.33	24.0344
3000.17	24.4026
3001	25.3828
3001.84	22.6372
3002.68	22.8656
3003.51	24.7291
3004.35	23.7784
3005.19	23.2773
3006.02	23.6531
3006.86	21.8428
3007.7	24.4206
3008.53	22.3595
3009.37	20.0218
3010.2	21.7338
3011.04	22.8352
3011.87	21.7754
3012.71	21.3437
3013.54	23.7743
3014.38	23.5
3015.21	20.8888
3016.05	24.109
3016.88	22.3732
3017.72	24.0688
3018.55	21.4515
3019.39	23.1752
3020.22	24.3439
3021.05	21.2954
3021.89	23.9924
3022.72	21.446
3023.55	22.7554
3024.39	24.4316
3025.22	25.041
3026.05	22.9444
3026.89	21.3946
3027.72	22.6489
3028.55	23.7328
3029.39	20.7417
3030.22	22.6842
3031.05	23.0673
3031.88	24.0747
3032.72	25.9799
3033.55	23.3554
3034.38	21.0151
3035.21	19.3739
3036.04	19.8131
3036.88	22.1317
3037.71	24.1313
3038.54	24.3701
3039.37	23.9185
3040.2	23.381
3041.03	22.6214
3041.86	20.8066
3042.69	21.7805
3043.52	24.293
3044.36	23.7041
3045.19	24.4785
3046.02	23.3628
3046.85	21.5751
3047.68	22.6912
3048.51	23.1529
3049.34	22.4799
3050.17	21.9247
3051	23.9221
3051.83	22.9985
3052.66	22.3405
3053.48	23.7867
3054.31	23.8236
3055.14	22.5963
3055.97	21.8509
3056.8	22.1081
3057.29	23
3058.12	26
3058.95	24.5
3059.79	23.5
3060.62	22
3061.45	24.5
3062.29	21.5
3063.12	20.5
3063.95	20
3064.78	20.5
3065.62	26
3066.45	22.5
3067.28	19
3068.11	24.5
3068.94	21.5
3069.77	24
3070.61	24
3071.44	25
3072.27	25
3073.1	24.5
3073.93	23
3074.76	25.5
3075.59	24.5
3076.42	21.5
3077.25	22
3078.08	21.5
3078.92	20.5
3079.74	21
3080.57	24
3081.41	24
3082.24	26.5
3083.06	22.5
3083.89	23
3084.72	19
3085.55	24.5
3086.38	19.5
3087.21	24
3088.04	23
3088.87	24
3089.7	23.5
3090.53	22.5
3091.36	23
3092.18	24
3093.01	24
3093.84	20.5
3094.67	23
3095.5	23
3096.32	20.5
3097.15	20
3097.98	25
3098.81	24.5
3099.64	21.5
3100.46	21.5
3101.29	24
3102.12	21.5
3102.94	22.5
3103.77	24
3104.6	23
3105.42	26.5
3106.25	23.5
3107.08	22.5
3107.9	18
3108.73	20.5
3109.56	24.5
3110.38	22.5
3111.21	21
3112.03	24
3112.86	21.5
3113.68	19.5
3114.51	26
3115.33	21
3116.16	20.5
3116.98	23.5
3117.81	22
3118.63	24
3119.46	27
3120.28	25
3121.11	24
3121.93	21.5
3122.76	24.5
3123.58	23
3124.4	25.5
3125.23	22.5
3126.05	24.5
3126.87	24
3127.7	23.5
3128.52	23.5
3129.34	21
3130.17	20
3130.99	22.5
3131.81	23.5
3132.64	22
3133.46	23
3134.28	25
3135.1	21.5
3135.93	22
3136.75	24
3137.57	25
3138.39	23
3139.21	21.5
3140.04	27.5
3140.86	23.5
3141.68	20.5
3142.5	21
3143.32	25
3144.14	20
3144.96	22
3145.78	23.5
3146.61	22
3147.43	22
3148.25	24.5
3149.07	28
3149.89	22
3150.71	22
3151.53	24
3152.35	21.5
3153.17	22
3153.99	22.5
3154.81	24.5
3155.63	22
3156.45	18
3157.27	25.5
3158.08	22.5
3158.9	22
3159.72	21
3160.54	24
3161.36	20
3162.18	25.5
3163	25.5
3163.82	28.5
3164.63	22.5
3165.45	22.5
3166.27	25
3167.09	23.5
3167.91	23
3168.72	21
3169.54	22
3170.36	25.5
3171.18	25
3171.99	23
3172.81	21.5
3173.63	23.5
3174.44	22.5
3175.26	23.5
3176.08	20.5
3176.89	21
3177.71	22.5
3178.53	23
3179.34	24.5
3180.16	26
3180.97	23.5
3181.79	21
3182.61	20.5
3183.42	24
3184.24	25
3185.05	20.5
3185.87	21
3186.68	22.5
3187.5	21.5
3188.31	24.5
3189.13	22.5
3189.94	24
3190.76	27.5
3191.57	22
3192.39	25.5
3193.2	25.5
3194.02	23
3194.83	24
3195.64	22.5
3196.46	27
3197.27	23
3198.08	23
3198.9	25
3199.71	21
3200.52	22.5
3201.34	21.5
3202.15	26
3202.96	22
3203.78	27
3204.59	26.5
3205.4	22
3206.21	24
3207.03	23
3207.84	24
3208.65	23.5
3209.46	23
3210.27	22.5
3211.09	22.5
3211.9	25
3212.71	21.5
3213.52	20.5
3214.33	22.5
3215.14	21
3215.95	26.5
3216.77	21
3217.58	25
3218.39	25.5
3219.2	23
3220.01	22
3220.82	26.5
3221.63	24.5
3222.44	23
3223.25	21
3224.06	24
3224.87	21.5
3225.68	23
3226.49	21.5
3227.3	26
3228.11	20
3228.92	26
3229.73	20.5
3230.53	23.5
3231.34	21
3232.15	24
3232.96	21.5
3233.77	27
3234.58	18.5
3235.39	22
3236.19	25
3237	25.5
3237.81	21.5
3238.62	23
3239.43	23.5
3240.23	21
3241.04	23
3241.85	21
3242.66	23.5
3243.46	25
3244.27	27
3245.08	21
3245.89	26
3246.69	22
3247.5	26
3248.31	19
3249.11	25.5
3249.92	22
3250.72	24.5
3251.53	23.5
3252.34	23
3253.14	27.5
3253.95	29.5
3254.75	21
3255.56	24.5
3256.36	21
3257.17	25.5
3257.98	24
3258.78	21
3259.59	21
3260.39	24.5
3261.19	21
3262	25
3262.8	27
3263.61	27
3264.41	22.5
3265.22	27.5
3266.02	27.5
3266.83	20.5
3267.63	19
3268.43	24
3269.24	24.5
3270.04	26.5
3270.84	28
3271.65	24.5
3272.45	22.5
3273.25	23.5
3274.06	24.5
3274.86	21
3275.66	21.5
3276.46	21
3277.27	22
3278.07	21.5
3278.87	22
3279.67	25
3280.48	26
3281.28	20.5
3282.08	22.5
3282.88	22.5
3283.68	25.5
3284.48	23
3285.29	25.5
3286.09	23
3286.89	24.5
3287.69	23.5
3288.49	23.5
3289.29	21
3290.09	22
3290.89	21
3291.69	22.5
3292.49	27.5
3293.29	22
3294.09	26
3294.89	23.5
3295.69	22.5
3296.49	25
3297.29	22
3298.09	25.5
3298.89	25
3299.69	22.5
3300.49	25.5
3301.29	24
3302.09	24.5
3302.89	19
3303.69	24.5
3304.49	18
3305.28	26
3306.08	26.5
3306.88	20.5
3307.68	25
3308.48	22.5
3309.28	22
3310.07	22
3310.87	21.5
3311.67	21.5
3312.47	26.5
3313.26	25
3314.06	24
3314.86	26.5
3315.66	25
3316.45	23.5
3317.25	24.5
3318.05	22
3318.84	26.5
3319.64	24
3320.44	21
3321.23	22
3322.03	24.5
3322.83	22
3323.62	23
3324.42	24.5
3325.21	24
3326.01	25
3326.81	23
3327.6	24
3328.4	26.5
3329.19	23.5
3329.99	23
3330.78	24
3331.58	23
3332.37	23.5
3333.17	24.5
3333.96	20.5
3334.76	23.5
3335.55	27
3336.34	26
3337.14	22
3337.93	22
3338.73	24
3339.52	23.5
3340.31	24.5
3341.11	24
3341.9	22
3342.69	22
3343.49	25
3344.28	26
3345.07	22.5
3345.87	22.5
3346.66	22
3347.45	25
3348.25	25.5
3349.04	22.5
3349.83	21
3350.62	27
3351.42	26
3352.21	28
3353	24
3353.79	25
3354.58	23
3355.37	23
3356.17	20.5
3356.96	24.5
3357.75	22
3358.54	24
3359.33	22
3360.12	22.5
3360.91	21.5
3361.7	23.5
3362.49	22.5
3363.29	22.5
3364.08	22
3364.87	24
3365.66	22.5
3366.45	20
3367.24	25
3368.03	25.5
3368.82	26.5
3369.61	22
3370.4	21.5
3371.19	25.5
3371.97	23.5
3372.76	25.5
3373.55	23
3374.34	27.5
3375.13	22.5
3375.92	24
3376.71	24
3377.5	25
3378.29	23.5
3379.07	24.5
3379.86	26.5
3380.65	23.5
3381.44	25
3382.23	20.5
3383.01	22.5
3383.8	26
3384.59	24
3385.38	23
3386.16	22.5
3386.95	25.5
3387.74	25
3388.53	22
3389.31	25
3390.1	22
3390.89	26.5
3391.67	25
3392.46	22.5
3393.25	23
3394.03	19.5
3394.82	23.5
3395.6	23
3396.39	22
3397.18	21
3397.96	22
3398.75	24.5
3399.53	20
3400.32	26.5
3401.1	21
3401.89	22
3402.67	23.5
3403.46	23
3404.24	25
3405.03	22.5
3405.81	27
3406.6	25.5
3407.38	24.5
3408.17	24
3408.95	27.5
3409.74	26
3410.52	22.5
3411.3	19.5
3412.09	28.5
3412.87	25.5
3413.65	24
3414.44	22.5
3415.22	23
3416	25
3416.79	21
3417.57	24.5
3418.35	25
3419.14	23.5
3419.92	21.5
3420.7	19
3421.48	24
3422.27	24.5
3423.05	21
3423.83	22.5
3424.61	24
3425.4	27.5
3426.18	25
3426.96	24
3427.74	24.5
3428.52	26
3429.3	23
3430.08	26
3430.87	22.5
3431.65	26
3432.43	21
3433.21	19.5
3433.99	21.5
3434.77	21
3435.55	25.5
3436.33	24.5
3437.11	21.5
3437.89	24
3438.67	23
3439.45	22.5
3440.23	22
3441.01	21.5
3441.79	21.5
3442.57	21
3443.35	28.5
3444.13	25
3444.91	21
3445.69	22.5
3446.47	24
3447.25	23.5
3448.03	26.5
3448.8	24.5
3449.58	23
3450.36	23
3451.14	21
3451.92	25
3452.7	23.5
3453.47	21
3454.25	24.5
3455.03	23.5
3455.81	24
3456.59	26
3457.36	20
3458.14	24
3458.92	20.5
3459.69	22
3460.47	26
3461.25	21
3462.03	27
3462.8	22
3463.58	21
3464.36	24
3465.13	21.5
3465.91	22.5
3466.69	22
3467.46	21
3468.24	27.5
3469.01	22
3469.79	21.5
3470.57	24
3471.34	22
3472.12	22.5
3472.89	24.5
3473.67	21
3474.44	22
3475.22	24
3475.99	27.5
3476.77	22
3477.54	21
3478.32	26
3479.09	25.5
3479.87	22
3480.64	26.5
3481.41	22.5
3482.19	23
3482.96	24
3483.74	25
3484.51	24
3485.28	21
3486.06	26.5
3486.83	22.5
3487.6	25.5
3488.38	18
3489.15	22
3489.92	23
3490.7	23
3491.47	24
3492.24	22.5
3493.01	22.5
3493.79	23
3494.56	17.5
3495.33	28
3496.1	25
3496.88	23.5
3497.65	26
3498.42	24
3499.19	25
3499.96	20.5
