#Acq. time (s)=	5
#Accumulations=	5
#Range (cm-¹)=	100...3500
#Windows=	4
#Autofocus=	Off
#AutoExposure=	Off
#Spike filter=	Multiple accum.
#Delay time (s)=	0
#Binning=	1
#Readout mode=	Signal
#DeNoise=	Off
#ICS correction=	Off
#Dark correction=	Off
#Inst. Process=	Off
#Instrument=	LabRAM HR Evol
#Detector=	Syncerity OE
#Objective=	x100_VIS
#Grating=	600 (500nm)
#ND Filter=	25%
#Laser=	633nm_Edge
#Hole=	100.021
#Range=	Visible
#Project=	verificaciones
#Sample=	at3
#Site=	plain
#Title=	bolusat3plain
#Remark=	com
#Date=	16.01.2026 17:16
#Acquired=	16.01.2026 17:16:15
100.564	28.5
101.847	31
103.131	37
104.414	30.5
105.697	30
106.979	32
108.262	28
109.544	31
110.826	31
112.109	30
113.391	28
114.672	29.5
115.954	28.5
117.235	36
118.515	27.5
119.796	27
121.076	30
122.357	33
123.637	34
124.916	32.5
126.196	33.5
127.475	37.5
128.754	33.5
130.033	30.5
131.31	25
132.589	32.5
133.867	36.5
135.145	31
136.423	34
137.701	33
138.978	36.5
140.256	35
141.533	37.5
142.809	38.5
144.086	36.5
145.361	35
146.637	33
147.913	39
149.189	40.5
150.464	37
151.74	37.5
153.014	40
154.288	36.5
155.563	35
156.838	42.5
158.112	43.5
159.385	45.5
160.659	35.5
161.932	38
163.206	44.5
164.479	36
165.751	38.5
167.024	38
168.296	36
169.567	38.5
170.84	37.5
172.112	34.5
173.383	39.5
174.654	42
175.925	39.5
177.196	41.5
178.466	39
179.737	41.5
181.007	40
182.276	38
183.546	40
184.816	41.5
186.085	41.5
187.354	37.5
188.624	43
189.891	40.5
191.16	42
192.427	42
193.696	38.5
194.964	38.5
196.231	36
197.499	35.5
198.765	36
200.033	40.5
201.298	37.5
202.566	34.5
203.831	38
205.098	33
206.363	36
207.629	37
208.894	33.5
210.159	33.5
211.424	35
212.689	36.5
213.953	32.5
215.218	28
216.481	31.5
217.746	35
219.009	29
220.273	31
221.536	36
222.798	29
224.062	29
225.323	33.5
226.587	28.5
227.848	31
229.109	27
230.372	33.5
231.633	29.5
232.894	31.5
234.156	30.5
235.416	32
236.678	31
237.937	29
239.197	26.5
240.457	30
241.717	26.5
242.976	25.5
244.235	30
245.495	31
246.754	29
248.012	27
249.27	30.5
250.529	32
251.787	28
253.045	29
254.302	27
255.56	31
256.817	26
258.074	30
259.33	29
260.586	27.5
261.844	31.5
263.1	27
264.355	26.5
265.611	31
266.866	27
268.121	28
269.377	28.5
270.632	29.5
271.886	27.5
273.14	26.5
274.394	30.5
275.648	28
276.902	28.5
278.155	29
279.408	29.5
280.663	26.5
281.915	31
283.168	24.5
284.42	26.5
285.673	26.5
286.925	23.5
288.176	28.5
289.428	29
290.679	27
291.93	27.5
293.181	31
294.432	26.5
295.683	28.5
296.933	27
298.183	29.5
299.433	29.5
300.683	31.5
301.932	31.5
303.182	28.5
304.429	31.5
305.678	29
306.927	22
308.176	28.5
309.424	31
310.672	27
311.92	25.5
313.168	28.5
314.415	29
315.661	31.5
316.908	27.5
318.155	25
319.402	27
320.648	32
321.895	29.5
323.139	29
324.385	26
325.631	25.5
326.877	28
328.122	30
329.366	26
330.611	29
331.855	27
333.1	26.5
334.343	27
335.587	26.5
336.831	25
338.074	30.5
339.317	25.5
340.56	32
341.803	28
343.044	28
344.287	28.5
345.53	21
346.771	29
348.013	28.5
349.255	26.5
350.495	26
351.736	23
352.978	30
354.217	30
355.458	29
356.699	30
357.938	28
359.178	28
360.417	26
361.657	26
362.895	27
364.135	28
365.374	29.5
366.612	28.5
367.851	27
369.088	26
370.327	27.5
371.564	27.5
372.802	30
374.038	30.5
375.276	26.5
376.512	26
377.749	26
378.985	28
380.222	23
381.457	29
382.692	26.5
383.929	29.5
385.164	27
386.4	30
387.634	30.5
388.869	28
390.103	31
391.337	29.5
392.572	27.5
393.805	28.5
395.038	25
396.273	28
397.506	30
398.74	28
399.972	28.5
401.204	32
402.437	28
403.669	27.5
404.901	30.5
406.132	28.5
407.365	30
408.596	25.5
409.826	26
411.058	26
412.289	30.5
413.519	26.5
414.749	27.5
415.98	23.5
417.21	23.5
418.439	30
419.668	23
420.897	30
422.128	25.5
423.356	25
424.585	28.5
425.813	29.5
427.041	25
428.269	27
429.498	29.5
430.725	26.5
431.952	24.5
433.179	26
434.406	25.5
435.633	27
436.859	24.5
438.085	25.5
439.312	32
440.537	29
441.764	28
442.99	26
444.215	23
445.44	32
446.665	28
447.89	30
449.114	32
450.339	25.5
451.563	23
452.787	33.5
454.01	29.5
455.234	31.5
456.457	28.5
457.68	30.5
458.903	29.5
460.126	29
461.348	29
462.569	26
463.792	31
465.013	33
466.235	30
467.457	32
468.678	33
469.899	32
471.12	36.5
472.341	31
473.56	30
474.781	36
476.001	39
477.221	40
478.441	38.5
479.66	45.5
480.878	47
482.098	43.5
483.317	48.5
484.535	49
485.754	54.5
486.971	56
488.189	57.5
489.407	54.5
490.625	53.5
491.842	59
493.059	54
494.276	51
495.493	45.5
496.709	52
497.926	52
499.142	46.5
500.357	41
501.573	40.5
502.789	38.5
504.003	38.5
505.219	40
506.434	38
507.648	38
508.863	36
510.078	36.5
511.291	34.5
512.505	39
513.718	32.5
514.932	31.5
516.145	33.5
517.358	33.5
518.572	31
519.783	29.5
520.997	29
522.208	29.5
523.421	31.5
524.632	33.5
525.844	30.5
527.055	28.5
528.266	31.5
529.477	24
530.688	28
531.898	34.5
533.109	31
534.319	29.5
535.53	31.5
536.739	30
537.948	28.5
539.158	26.5
540.366	26
541.576	27
542.784	29.5
543.994	26.5
545.201	30
546.409	28.5
547.618	28.5
548.825	22
550.032	30
551.24	29
552.447	26
553.654	30.5
554.861	26
556.067	28
557.273	25
558.48	22
559.686	24
560.891	27
562.096	30
563.302	28
564.507	26
565.712	26
566.916	31.5
568.122	24
569.326	22
570.529	28
571.733	26.5
572.936	25
574.141	22.5
575.344	30
576.547	26.5
577.75	27
578.952	29.5
580.154	30
581.358	25.5
582.56	25.5
583.761	27
584.963	29.5
586.164	27
587.365	23.5
588.566	27
589.767	33
590.967	31
592.168	28.5
593.369	29
594.569	30
595.769	28
596.969	27
598.168	28.5
599.367	25
600.566	24.5
601.765	29
602.964	26
604.162	29.5
605.361	27
606.559	31.5
607.757	28
608.953	25.5
610.151	29
611.348	24.5
612.545	29
613.742	25
614.939	27
616.135	24.5
617.332	31
618.528	29.5
619.724	27
620.918	29
622.114	32
623.309	30.5
624.505	26.5
625.7	25.5
626.895	26.5
628.088	31.5
629.282	28.5
630.477	31
631.671	28
632.865	28.5
634.057	24.5
635.251	29
636.444	23.5
637.637	30
638.829	25
640.022	27
641.214	28
642.407	29.5
643.598	27
644.79	28.5
645.982	25
647.172	27
648.364	27
649.555	27
650.745	27.5
651.936	24
653.126	24
654.315	31.5
655.506	25
656.696	30
657.885	31
659.074	25
660.263	29
661.452	31.5
662.64	29
663.829	31
665.018	30.5
666.205	25
667.394	27
668.581	30
669.769	27.5
670.955	25
672.143	31
673.329	27.5
674.517	29
675.703	30
676.89	28
678.075	28
679.262	31.5
680.447	35
681.632	35
682.818	34.5
684.002	35
685.188	32.5
686.372	35.5
687.556	34.5
688.741	33
689.925	34
691.11	34
692.293	31
693.476	33.5
694.66	30.5
695.843	33
697.025	35
698.209	33.5
699.391	33.5
700.573	35
701.756	38.5
702.938	40
704.119	42.5
705.3	44.5
706.483	44.5
707.664	45.5
708.844	48.5
710.025	52
711.206	50
712.386	42
713.566	43
714.746	36
715.925	36
717.106	33
718.285	26
719.464	31.5
720.643	29
721.822	27.5
723	34.5
724.178	26
725.358	27
726.536	28
727.713	28
728.891	28.5
730.068	30
731.245	31.5
732.422	29.5
733.599	24.5
734.775	25
735.952	27.5
737.128	27
738.304	26.5
739.48	30.5
740.656	29.5
741.831	27.5
743.006	26.5
744.181	28.5
745.356	27.5
746.531	26.5
747.706	29
748.88	28
750.054	28
751.228	24.5
752.402	29
753.576	26
754.749	27
755.922	26.5
757.095	30
758.267	32
759.44	27.5
760.612	25
761.785	24.5
762.957	26
764.129	32
765.301	29
766.471	26
767.642	28.5
768.814	27
769.985	24
771.156	25.5
772.325	23
773.495	25
774.666	25.5
775.836	26.5
777.005	30
778.174	28.5
779.344	26
780.513	31
781.681	29
782.85	31
784.019	30
785.187	27
786.355	28
787.523	31.5
788.69	28.5
789.858	30
791.026	33.5
792.192	29.5
793.36	31.5
794.526	32.5
795.693	28
796.86	27
798.025	26.5
799.191	28
800.356	28.5
801.523	28
802.689	26
803.853	25
805.019	30.5
806.183	31
807.348	27.5
808.512	26.5
809.677	26.5
810.84	27.5
812.005	28.5
813.167	29
814.332	27
815.494	25.5
816.657	29.5
817.82	31
818.982	29.5
820.146	22.5
821.307	26
822.47	26.5
823.632	31.5
824.793	28
825.955	26
827.116	25.5
828.277	28
829.439	30.5
830.599	25.5
831.759	26.5
832.92	27
834.08	26
835.24	26.5
836.4	25.5
837.56	29.5
838.719	29
839.877	29
841.037	32
842.196	26
843.354	25
844.512	24
845.672	30
846.83	23.5
847.987	28.5
849.145	29
850.302	23
851.46	25.5
852.617	24.5
853.774	27.5
854.93	29
856.087	30.5
857.243	26
858.4	26.5
859.556	31
860.712	27.5
861.867	25.5
863.022	28
864.177	26
865.332	29
866.487	28
867.642	25.5
868.796	30.5
869.95	28.5
871.104	30
872.258	25.5
873.412	27
874.565	31.5
875.718	30
876.872	28
878.024	29.5
879.177	27.5
880.33	27.5
881.482	30.5
882.635	27
883.787	29
884.938	28
886.09	29
887.242	27.5
888.393	26
889.544	28.5
890.695	27
891.845	28
892.995	24
894.146	29.5
895.296	30
896.446	27
897.596	25
898.744	28.5
899.894	25.5
901.043	26.5
902.193	29
903.342	28
904.489	29.5
905.638	24
906.786	26
907.935	26.5
909.081	26.5
910.229	26.5
911.377	27
912.525	28.5
913.671	25.5
914.818	27
915.965	28.5
917.111	25
918.258	20.5
919.404	24
920.549	25.5
921.695	27.5
922.84	30.5
923.986	26
925.132	28.5
926.276	27
927.421	25.5
928.565	23.5
929.71	26.5
930.855	26
931.998	28
933.142	23
934.285	24.5
935.429	24.5
936.572	25
937.716	25.5
938.858	26
940.001	23
941.143	27
942.286	25
943.428	27.5
944.57	24
945.712	22
946.854	28
947.995	24
949.135	26.5
950.277	27.5
951.418	30.5
952.559	24
953.699	28
954.839	24
955.98	26.5
957.119	23.5
958.258	25.5
959.399	24.5
960.538	28
961.676	26
962.816	25
963.955	24
965.093	26.5
966.232	28
967.37	25
968.508	24.5
969.645	23.5
970.784	25.5
971.921	27
973.058	30
974.195	23
975.333	28
976.469	27.5
977.605	26
978.741	25
979.877	25.5
981.013	24.5
982.15	26.5
983.285	25
984.421	21
985.556	23.5
986.691	24
987.825	24
988.96	26
990.094	30.5
991.228	25.5
992.364	22.5
993.497	28.5
994.631	23
995.765	26.5
996.898	29.5
998.031	23
999.164	25.5
1000.3	27.5
1001.43	24.5
1002.56	29
1003.69	26.5
1004.83	26.5
1005.96	28
1007.09	21
1008.22	28
1009.35	23
1010.48	26.5
1011.61	22
1012.74	25
1013.88	28
1015.01	23
1016.14	25
1017.27	23.5
1018.4	26.5
1019.53	23.5
1020.65	27.5
1021.78	26.5
1022.91	28.5
1024.04	24.5
1025.17	25.5
1026.3	23.5
1027.43	26.5
1028.56	24.5
1029.68	25.5
1030.81	27.5
1031.94	24
1033.07	26
1034.19	27
1035.32	27
1036.45	26
1037.58	27.5
1038.7	26.5
1039.83	24.5
1040.95	29.5
1042.08	23
1043.21	28.5
1044.33	25.5
1045.46	28.5
1046.58	26
1047.71	24.5
1048.83	25
1049.96	25
1051.08	25
1052.21	26
1053.33	22.5
1054.45	24
1055.58	24
1056.7	21
1057.82	24
1058.95	24.5
1060.07	23
1061.19	26
1062.32	25
1063.44	27.5
1064.56	25
1065.68	22
1066.81	25.5
1067.93	25
1069.05	25
1070.17	22.5
1071.29	25.5
1072.41	27
1073.53	26
1074.65	25
1075.77	26.5
1076.89	23
1078.01	26.5
1079.13	21
1080.25	26
1081.37	26.5
1082.49	26
1083.61	27.5
1084.73	25
1085.85	27.5
1086.97	24.5
1088.09	28
1089.2	27
1090.32	25.5
1091.44	26.5
1092.56	27
1093.68	24
1094.79	23
1095.91	23
1097.03	29.5
1098.14	22.5
1099.26	22.5
1100.38	30.5
1101.49	25
1102.61	22.5
1103.73	23
1104.84	23
1105.96	23.5
1107.07	21.5
1108.19	28
1109.3	26.5
1110.42	26
1111.53	24
1112.65	24
1113.76	21.5
1114.88	27
1115.99	22.5
1117.1	26
1118.22	24
1119.33	26.5
1120.44	26
1121.56	22
1122.67	25.5
1123.78	23.5
1124.89	21
1126.01	24.5
1127.12	27
1128.23	27
1129.34	25
1130.45	26
1131.56	26.5
1132.67	25
1133.79	23
1134.9	20.5
1136.01	29
1137.12	27.5
1138.23	25.5
1139.34	26.5
1140.45	23.5
1141.56	25
1142.67	26
1143.78	25.5
1144.89	27.5
1145.99	21.5
1147.1	22.5
1148.21	27
1149.32	23.5
1150.43	28.5
1151.54	24
1152.65	24
1153.75	21.5
1154.86	27
1155.97	25
1157.08	24
1158.18	22
1159.29	23.5
1160.4	24
1161.5	22
1162.61	24.5
1163.72	28.5
1164.82	25.5
1165.93	25
1167.03	27
1168.14	20.5
1169.24	26
1170.35	23
1171.45	25.5
1172.56	23.5
1173.66	24
1174.77	23.5
1175.87	25
1176.98	28.5
1178.08	24
1179.18	26.5
1180.29	25.5
1181.39	23.5
1182.49	23
1183.6	27.5
1184.7	22.5
1185.8	26.5
1186.9	25.5
1188	22
1189.11	23
1190.21	23
1191.31	26
1192.41	22.5
1193.51	23.5
1194.61	23.4944
1195.72	23.9253
1196.82	23.5422
1197.92	23.1163
1199.02	28.7087
1200.12	26.4142
1201.22	26.8075
1202.32	24.4307
1203.42	25.3611
1204.52	26.0889
1205.62	24.2877
1206.71	27.2743
1207.81	25.0233
1208.91	22.9697
1210.01	22.1636
1211.11	22.0087
1212.21	24.6499
1213.31	20.7575
1214.4	22.2627
1215.5	22.5496
1216.6	24.1053
1217.7	21.4205
1218.79	24.2789
1219.89	23.395
1220.99	28.0418
1222.08	23.7564
1223.18	27.8324
1224.28	23.8661
1225.37	24.132
1226.47	23.8661
1227.56	24.157
1228.66	25.324
1229.76	23.3571
1230.85	23
1231.95	23.3153
1233.04	26.3107
1234.14	23.5225
1235.23	23.3265
1236.32	23.6671
1237.42	22.8201
1238.51	26.1598
1239.61	23.8797
1240.7	24.8533
1241.79	25.0088
1242.89	24.3794
1243.98	21.6031
1245.07	21.9924
1246.17	24.6814
1247.26	23.1761
1248.35	26.2366
1249.44	22.1795
1250.53	22.3077
1251.63	23.787
1252.72	26.4939
1253.81	25.2834
1254.9	26.3083
1255.99	25.8818
1257.08	25.4231
1258.17	27.9866
1259.27	27.1337
1260.36	26.3404
1261.45	24.6473
1262.54	23.3843
1263.63	28.2504
1264.72	27.9047
1265.81	24.1266
1266.89	24.2403
1267.98	22.9197
1269.07	25.3299
1270.16	25.9125
1271.25	24.7112
1272.34	23.9473
1273.43	25.0014
1274.52	24.414
1275.6	23.0261
1276.69	23.9766
1277.78	25.7359
1278.87	23.2115
1279.95	25.0251
1281.04	23.1777
1282.13	21.7669
1283.22	22.5871
1284.3	23.3981
1285.39	23.1893
1286.48	24.637
1287.56	24.3186
1288.65	24.3204
1289.73	26.4057
1290.82	24.7702
1291.9	24.6482
1292.99	23.0025
1294.07	23.2526
1295.16	24.7291
1296.24	23.3296
1297.33	23.7768
1298.41	24.1534
1299.5	23.005
1300.58	25.1829
1301.66	24.559
1302.75	22.924
1303.83	22.5364
1304.91	26.6401
1306	26.7611
1306.4	25.5
1307.48	25.5
1308.57	26
1309.66	21.5
1310.75	23
1311.84	21.5
1312.92	23
1314.01	24
1315.1	23
1316.18	26.5
1317.27	23
1318.36	26
1319.44	23.5
1320.53	22
1321.62	20.5
1322.7	23.5
1323.79	24
1324.87	22.5
1325.96	22.5
1327.04	23
1328.13	23.5
1329.21	23.5
1330.3	23.5
1331.38	27
1332.47	20
1333.55	24
1334.64	26.5
1335.72	26
1336.8	24
1337.89	23.5
1338.97	27.5
1340.05	19.5
1341.14	22
1342.22	27
1343.3	25
1344.38	22.5
1345.47	22
1346.55	28
1347.63	24.5
1348.71	27
1349.79	26
1350.87	25.5
1351.96	27.5
1353.04	23
1354.12	24
1355.2	23
1356.28	23
1357.36	26.5
1358.44	22
1359.52	25
1360.6	24.5
1361.68	25.5
1362.76	24
1363.84	28.5
1364.92	24.5
1366	21.5
1367.07	21.5
1368.15	25
1369.23	23
1370.31	26.5
1371.39	23
1372.47	20.5
1373.54	25.5
1374.62	26
1375.7	27
1376.78	26
1377.85	26
1378.93	25
1380.01	23.5
1381.08	26
1382.16	23.5
1383.24	25
1384.31	23.5
1385.39	26
1386.46	27.5
1387.54	25
1388.61	26
1389.69	24
1390.76	28
1391.84	28.5
1392.91	27
1393.99	26.5
1395.06	22.5
1396.14	27
1397.21	23.5
1398.29	27.5
1399.36	27.5
1400.43	29
1401.51	22.5
1402.58	22.5
1403.65	28
1404.72	28
1405.8	30.5
1406.87	33.5
1407.94	29
1409.02	22.5
1410.09	29
1411.16	31.5
1412.23	28
1413.3	31
1414.37	33.5
1415.44	29.5
1416.51	28
1417.59	29
1418.66	27
1419.73	27.5
1420.8	30
1421.87	28
1422.94	26.5
1424.01	25
1425.08	27.5
1426.15	26.5
1427.22	25
1428.28	25
1429.35	27.5
1430.42	24.5
1431.49	27
1432.56	27
1433.63	27
1434.7	28
1435.76	23
1436.83	30
1437.9	28.5
1438.97	27.5
1440.03	24
1441.1	23
1442.17	24.5
1443.23	26
1444.3	23.5
1445.37	24
1446.43	26
1447.5	25
1448.57	27.5
1449.63	23
1450.7	26
1451.76	25
1452.83	27
1453.89	25
1454.96	23.5
1456.02	22
1457.09	28
1458.15	25.5
1459.22	24.5
1460.28	25
1461.34	25.5
1462.41	22
1463.47	28.5
1464.53	25
1465.6	23
1466.66	25
1467.72	28
1468.78	27
1469.85	25.5
1470.91	25.5
1471.97	26
1473.03	25.5
1474.1	24
1475.16	25
1476.22	26
1477.28	23
1478.34	23.5
1479.4	23.5
1480.46	27
1481.52	22.5
1482.58	23
1483.65	28
1484.71	26.5
1485.77	24.5
1486.82	24
1487.89	27
1488.94	20
1490	28.5
1491.06	25
1492.12	26
1493.18	24.5
1494.24	28
1495.3	20
1496.36	24
1497.41	24.5
1498.47	23
1499.53	25.5
1500.59	24.5
1501.65	25
1502.7	28.5
1503.76	24.5
1504.82	20
1505.87	28
1506.93	25
1507.99	26.5
1509.04	28.5
1510.1	25.5
1511.16	23
1512.21	22
1513.27	25
1514.32	26.5
1515.38	21
1516.43	25
1517.49	22.5
1518.54	24.5
1519.6	24.5
1520.65	25.5
1521.71	26.5
1522.76	25
1523.81	23
1524.87	23.5
1525.92	27
1526.98	23
1528.03	24.5
1529.08	26
1530.14	23.5
1531.19	26
1532.24	25
1533.29	26
1534.35	24
1535.4	25.5
1536.45	22.5
1537.5	26
1538.55	28
1539.61	24
1540.66	26.5
1541.71	27
1542.76	25
1543.81	23
1544.86	24
1545.91	25
1546.96	30
1548.01	23
1549.06	29.5
1550.11	27
1551.16	25
1552.21	21
1553.26	26
1554.31	26
1555.36	24.5
1556.41	26
1557.46	26.5
1558.5	28.5
1559.55	24.5
1560.6	24.5
1561.65	30
1562.7	20
1563.74	28.5
1564.79	23.5
1565.84	26
1566.89	24
1567.93	27
1568.98	29.5
1570.03	26
1571.07	26.5
1572.12	24.5
1573.17	23
1574.21	27
1575.26	28
1576.3	26
1577.35	25.5
1578.4	26.5
1579.44	27
1580.49	24
1581.53	25
1582.58	23.5
1583.62	25.5
1584.66	27.5
1585.71	32
1586.75	29.5
1587.8	26
1588.84	26.5
1589.88	23
1590.93	28.5
1591.97	23.5
1593.01	25
1594.06	24.5
1595.1	25
1596.14	32
1597.18	24
1598.23	27
1599.27	24
1600.31	25.5
1601.35	21.5
1602.39	23
1603.44	26.5
1604.48	24.5
1605.52	27
1606.56	25
1607.6	27.5
1608.64	23.5
1609.68	26.5
1610.72	26.5
1611.76	25
1612.8	25
1613.84	26.5
1614.88	25
1615.92	25
1616.96	26
1618	28
1619.04	23.5
1620.08	24.5
1621.12	28
1622.16	22.5
1623.19	25
1624.23	28
1625.27	25
1626.31	24.5
1627.35	20
1628.38	24
1629.42	24
1630.46	24.5
1631.49	23.5
1632.53	24
1633.57	21.5
1634.6	22
1635.64	25
1636.68	23
1637.71	24
1638.75	24.5
1639.79	29.5
1640.82	25.5
1641.86	24.5
1642.89	22
1643.93	25.5
1644.96	25.5
1646	24
1647.03	24.5
1648.07	25
1649.1	23
1650.13	21.5
1651.17	20.5
1652.2	25.5
1653.24	27
1654.27	24
1655.3	25
1656.34	25
1657.37	26
1658.4	26
1659.43	23.5
1660.47	26
1661.5	22
1662.53	25.5
1663.56	22
1664.6	23.5
1665.63	28
1666.66	24.5
1667.69	26
1668.72	22
1669.75	25.5
1670.78	26.5
1671.81	25
1672.85	26
1673.88	23.5
1674.91	23
1675.94	30
1676.97	27
1678	27.5
1679.03	25
1680.06	22.5
1681.09	24.5
1682.11	23.5
1683.14	27
1684.17	25
1685.2	25
1686.23	27
1687.26	26
1688.29	23
1689.31	27
1690.34	31.5
1691.37	22
1692.4	25.5
1693.42	24
1694.45	28
1695.48	23.5
1696.51	26
1697.53	25
1698.56	25
1699.59	24.5
1700.61	26.5
1701.64	21
1702.66	19.5
1703.69	24.5
1704.72	24
1705.74	22
1706.77	19
1707.79	28
1708.82	25
1709.84	25
1710.87	26
1711.89	24.5
1712.91	23.5
1713.94	24.5
1714.96	26
1715.99	22
1717.01	23.5
1718.03	23
1719.06	27
1720.08	28
1721.1	26
1722.13	27
1723.15	26.5
1724.17	27
1725.19	27.5
1726.22	26.5
1727.24	28.5
1728.26	21
1729.28	27
1730.3	26
1731.33	27
1732.35	25
1733.37	23
1734.39	23
1735.41	27
1736.43	26.5
1737.45	23.5
1738.47	21.5
1739.49	22
1740.51	23
1741.53	24.5
1742.55	26.5
1743.57	26
1744.59	23.5
1745.61	25.5
1746.63	23
1747.65	22.5
1748.67	27
1749.69	25.5
1750.7	28
1751.72	24
1752.74	26
1753.76	26
1754.78	26.5
1755.79	22
1756.81	29.5
1757.83	26
1758.85	22
1759.86	26
1760.88	25.5
1761.9	21
1762.91	17.5
1763.93	24
1764.95	22
1765.96	24
1766.98	24.5
1767.99	24
1769.01	25.5
1770.02	25
1771.04	26.5
1772.06	28
1773.07	22
1774.09	26
1775.1	23.5
1776.11	24
1777.13	25
1778.14	26
1779.16	23
1780.17	33.5
1781.18	24
1782.2	20
1783.21	25
1784.22	24.5
1785.24	26.5
1786.25	21
1787.26	23
1788.28	26
1789.29	26.5
1790.3	24.5
1791.31	25
1792.33	21.5
1793.34	26
1794.35	21.5
1795.36	26
1796.37	22
1797.38	23
1798.39	22
1799.4	25.5
1800.42	25
1801.43	25
1802.44	24.5
1803.45	24.5
1804.46	22
1805.47	26
1806.48	25
1807.49	24.5
1808.5	25
1809.51	23
1810.51	22
1811.52	27
1812.53	25.5
1813.54	26
1814.55	20.5
1815.56	28
1816.57	25
1817.57	29.5
1818.58	21.5
1819.59	24.5
1820.6	28
1821.61	20.5
1822.61	26
1823.62	22
1824.63	24.5
1825.63	22
1826.64	28.5
1827.65	23.5
1828.65	26.5
1829.66	22.5
1830.67	24.5
1831.67	24.5
1832.68	27
1833.68	22.5
1834.69	23.5
1835.69	27
1836.7	22.5
1837.7	26
1838.71	27.5
1839.71	22
1840.72	22.5
1841.72	26.5
1842.73	23
1843.73	24.5
1844.73	22
1845.74	20.5
1846.74	24.5
1847.74	24.5
1848.75	23
1849.75	22
1850.75	26
1851.76	21
1852.76	25
1853.76	23
1854.76	26.5
1855.77	25
1856.77	20
1857.77	23
1858.77	25
1859.77	25.5
1860.77	24
1861.78	26
1862.78	26.5
1863.78	23
1864.78	24.5
1865.78	27
1866.78	26.5
1867.78	24
1868.78	24
1869.78	23
1870.78	29
1871.78	26
1872.78	23.5
1873.78	25.5
1874.78	20
1875.78	24
1876.78	20
1877.78	25.5
1878.77	21.5
1879.77	26.5
1880.77	22
1881.77	22
1882.77	26.5
1883.77	21
1884.76	21.5
1885.76	23
1886.76	25
1887.75	27
1888.75	22.5
1889.75	30
1890.75	24
1891.74	27.5
1892.74	21.5
1893.73	25
1894.73	23
1895.73	25.5
1896.72	24
1897.72	23.5
1898.71	21.5
1899.71	22.5
1900.7	26.5
1901.7	21
1902.69	25
1903.69	19.5
1904.68	24.5
1905.68	22.5
1906.67	24
1907.67	24.5
1908.66	26
1909.65	21
1910.65	25
1911.64	25.5
1912.63	22.5
1913.63	24.5
1914.62	21.5
1915.61	27
1916.61	23
1917.6	21
1918.59	21.5
1919.58	23.5
1920.58	24
1921.57	26
1922.56	23
1923.55	22.5
1924.54	25
1925.54	24.5
1926.53	28
1927.52	26
1928.51	29
1929.5	26
1930.49	26
1931.48	23.5
1932.47	22.5
1933.46	27
1934.45	26.5
1935.44	25.5
1936.43	28.5
1937.42	28
1938.41	26
1939.4	23
1940.39	22
1941.38	26
1942.37	27
1943.35	20
1944.34	21
1945.33	24
1946.32	22.5
1947.31	23
1948.3	25.5
1949.28	23.5
1950.27	24.5
1951.26	27.5
1952.25	22.5
1953.23	24
1954.22	26
1955.21	27.5
1956.19	23.5
1957.18	26
1958.17	26
1959.15	24.5
1960.14	23
1961.12	22.5
1962.11	25
1963.1	22.5
1964.08	22.5
1965.07	25
1966.05	22.5
1967.04	22.5
1968.02	25
1969.01	25.5
1969.99	29
1970.98	22
1971.96	23
1972.94	24
1973.93	24.5
1974.91	22
1975.9	23
1976.88	26.5
1977.86	21.5
1978.85	27.5
1979.83	24.5
1980.81	26
1981.79	25.5
1982.78	27
1983.76	28
1984.74	26
1985.72	24.5
1986.71	23.5
1987.69	21
1988.67	24
1989.65	23
1990.63	24.5
1991.61	22.5
1992.59	23.5
1993.57	23
1994.56	23.5
1995.54	26
1996.52	26.5
1997.5	22.5
1998.48	24.5
1999.46	24.5
2000.44	22
2001.42	23.5
2002.4	22
2003.38	25
2004.36	20.5
2005.33	26
2006.31	24
2007.29	27
2008.27	27.5
2009.25	24.5
2010.23	23.5
2011.21	21
2012.18	22.5
2013.16	22
2014.14	25.5
2015.12	22
2016.09	23.5
2017.07	25
2018.05	24
2019.03	23
2020	24
2020.98	27.5
2021.96	22.5
2022.93	23.5
2023.91	25
2024.89	24
2025.86	22
2026.84	24
2027.81	23.5
2028.79	24
2029.76	27.5
2030.74	25.5
2031.71	25
2032.69	25.5
2033.66	24
2034.64	22
2035.61	20.5
2036.59	26.5
2037.56	24
2038.54	26
2039.51	26
2040.48	22
2041.46	25
2042.43	22
2043.4	23
2044.38	25
2045.35	25.5
2046.32	23
2047.29	24
2048.27	23
2049.24	21.5
2050.21	23
2051.18	25
2052.16	22
2053.13	24
2054.1	20.5
2055.07	22.5
2056.04	22
2057.01	22.5
2057.98	26.5
2058.96	22
2059.93	24
2060.9	21
2061.87	25
2062.84	23.5
2063.81	22.5
2064.78	23.5
2065.75	24
2066.72	24
2067.69	21
2068.66	21
2069.63	26
2070.6	20
2071.56	22.5
2072.53	26
2073.5	26.5
2074.47	23.5
2075.44	28
2076.41	23
2077.38	24
2078.34	25
2079.31	23
2080.28	25.5
2081.25	20.5
2082.21	18
2083.18	24
2084.15	21
2085.11	25.5
2086.08	26
2087.05	21.5
2088.01	26.5
2088.98	19.5
2089.95	21
2090.91	24.5
2091.88	23
2092.84	23
2093.81	24
2094.78	21
2095.74	24.5
2096.71	20
2097.67	26
2098.64	19
2099.6	20
2100.57	28
2101.53	22.5
2102.49	24.5
2103.46	24
2104.42	23
2105.39	25
2106.35	23
2107.31	23
2108.28	24
2109.24	27
2110.2	24
2111.17	22
2112.13	24
2113.09	19.5
2114.05	22
2115.02	23.5
2115.98	26
2116.94	26
2117.9	25.5
2118.86	18
2119.83	25
2120.79	21
2121.75	22
2122.71	21.5
2123.67	22.5
2124.63	23
2125.59	21
2126.55	25.5
2127.51	26.5
2128.47	24
2129.43	24
2130.39	25.5
2131.35	23
2132.31	24
2133.27	22
2134.23	20.5
2135.19	26
2136.15	22
2137.11	20
2138.07	20.5
2139.03	22
2139.99	27
2140.94	22.5
2141.9	24.5
2142.86	22.9845
2143.82	22.4399
2144.78	19.1306
2145.73	24.049
2146.69	21.0558
2147.65	20.4386
2148.61	20.5748
2149.56	19.8824
2150.52	21.1797
2151.48	23.755
2152.43	23.6738
2153.39	21.563
2154.35	22.1274
2155.3	20.455
2156.26	24.345
2157.21	23.3606
2158.17	20.279
2159.13	20.9999
2160.08	23.0099
2161.04	22.5996
2161.99	21.9135
2162.95	23.6488
2163.9	21.9202
2164.86	23.3956
2165.81	23.4331
2166.77	21.9641
2167.72	22.5983
2168.67	23.1256
2169.63	22.3066
2170.58	23.1825
2171.54	24.0965
2172.49	22.4296
2173.44	24
2174.4	24
2175.35	21.9801
2176.3	21.1766
2177.26	23.2984
2178.21	23.9461
2179.16	21.5071
2180.11	22.2579
2181.07	21.5363
2182.02	21.3909
2182.97	24.6366
2183.92	23.8142
2184.87	20.4429
2185.82	21.9886
2186.78	22.0833
2187.73	19.6484
2188.68	22.4904
2189.63	23
2190.58	23
2191.53	21.7216
2192.48	21.1022
2193.43	22.428
2194.38	20.5874
2195.33	20.7937
2196.28	21.0289
2197.23	22.8835
2198.18	22.9055
2199.13	23.2814
2200.08	23.9429
2201.03	23.6938
2201.98	23.5515
2202.93	22.3725
2203.88	22.6368
2204.83	23.2227
2205.77	23.6895
2206.72	21.346
2207.67	21.0137
2208.62	20.8378
2209.57	22.2888
2210.52	20.8064
2211.46	21.9508
2212.41	21.4904
2213.36	21.874
2214.31	20.765
2215.25	22.2342
2216.2	24.6986
2217.15	22.524
2218.09	23.301
2219.04	22.7072
2219.99	21.8956
2220.93	22.8265
2221.88	21.4851
2222.82	20.2267
2223.77	22.4512
2224.72	23.9006
2225.66	23.7198
2226.61	24.7525
2227.55	25.0627
2228.5	24.3626
2229.44	23.8939
2230.39	21.4973
2231.33	24.5481
2232.28	22.7807
2233.22	23.0643
2234.16	23.4777
2235.11	23.4733
2236.05	25.3755
2237	23.3407
2237.94	22.9977
2238.88	23.1702
2239.83	23.0121
2240.13	23
2241.08	22
2242.03	21
2242.98	21.5
2243.92	22
2244.87	22
2245.82	23
2246.76	21.5
2247.71	19.5
2248.66	22.5
2249.61	22
2250.55	18.5
2251.5	24.5
2252.45	23
2253.39	21
2254.34	20
2255.28	22
2256.23	27
2257.18	22
2258.12	23
2259.07	24
2260.01	23
2260.96	20
2261.9	23
2262.85	18.5
2263.79	25
2264.74	24
2265.68	18.5
2266.63	22.5
2267.57	25.5
2268.51	23.5
2269.46	22
2270.4	26.5
2271.35	23
2272.29	23.5
2273.23	25.5
2274.18	22
2275.12	25.5
2276.06	22
2277	27
2277.95	20.5
2278.89	20
2279.83	21
2280.78	23
2281.72	24
2282.66	21.5
2283.6	24.5
2284.54	20.5
2285.48	25
2286.43	23
2287.37	23
2288.31	24.5
2289.25	24
2290.19	22
2291.13	23
2292.07	21
2293.01	21.5
2293.95	22.5
2294.89	21.5
2295.83	21.5
2296.77	25
2297.71	20
2298.65	23
2299.59	23
2300.53	24
2301.47	21.5
2302.41	21.5
2303.35	23.5
2304.29	25.5
2305.22	27
2306.16	22.5
2307.1	23
2308.04	23
2308.98	19
2309.91	21.5
2310.85	22.5
2311.79	24.5
2312.73	23
2313.66	26
2314.6	25.5
2315.54	22
2316.48	28
2317.41	23.5
2318.35	23
2319.29	18.5
2320.22	24.5
2321.16	23
2322.09	21.5
2323.03	19.5
2323.97	25
2324.9	21.5
2325.84	25
2326.77	23.5
2327.71	20
2328.64	24
2329.58	24
2330.51	22
2331.45	24
2332.38	26
2333.32	23
2334.25	20.5
2335.18	22.5
2336.12	21.5
2337.05	25
2337.99	21
2338.92	22
2339.85	24.5
2340.79	19
2341.72	23
2342.65	26
2343.59	23
2344.52	21.5
2345.45	23
2346.38	27
2347.32	26.5
2348.25	27.5
2349.18	23
2350.11	28
2351.04	26.5
2351.98	21.5
2352.91	22.5
2353.84	23
2354.77	26.5
2355.7	25
2356.63	24
2357.56	23
2358.49	23
2359.42	19.5
2360.35	23
2361.28	27
2362.21	24
2363.14	24
2364.07	26.5
2365	24
2365.93	23.5
2366.86	24.5
2367.79	21
2368.72	23
2369.65	21
2370.58	23.5
2371.51	22
2372.44	27
2373.36	24.5
2374.29	21
2375.22	27.5
2376.15	24
2377.08	21
2378	25
2378.93	27
2379.86	26.5
2380.79	26
2381.71	26
2382.64	24
2383.57	25
2384.49	21.5
2385.42	25.5
2386.35	25
2387.27	27
2388.2	24
2389.13	24
2390.05	21
2390.98	26
2391.9	23
2392.83	19.5
2393.76	26
2394.68	23.5
2395.61	22
2396.53	23.5
2397.46	26.5
2398.38	23
2399.3	19
2400.23	27
2401.15	22.5
2402.08	22.5
2403	21
2403.93	20.5
2404.85	18
2405.77	27
2406.7	22
2407.62	24.5
2408.54	26.5
2409.47	27
2410.39	25
2411.31	20.5
2412.24	21
2413.16	19.5
2414.08	25.5
2415	26
2415.92	24.5
2416.85	27
2417.77	26.5
2418.69	23.5
2419.61	24
2420.53	21
2421.45	24.5
2422.38	25
2423.3	20.5
2424.22	27.5
2425.14	26.5
2426.06	23.5
2426.98	25
2427.9	24
2428.82	23.5
2429.74	20.5
2430.66	25.5
2431.58	27
2432.5	24
2433.42	24.5
2434.34	25
2435.26	24.5
2436.18	27
2437.1	25
2438.01	23.5
2438.93	23
2439.85	25
2440.77	20.5
2441.69	24
2442.61	28.5
2443.52	27.5
2444.44	24
2445.36	19.5
2446.28	27
2447.2	24
2448.11	20
2449.03	24
2449.95	23
2450.86	23.5
2451.78	25
2452.7	21.5
2453.61	23.5
2454.53	22
2455.45	24
2456.36	20.5
2457.28	22
2458.2	22.5
2459.11	26
2460.03	24
2460.94	24
2461.86	23.5
2462.77	24.5
2463.69	27
2464.6	24.5
2465.52	22.5
2466.43	27
2467.35	23
2468.26	25
2469.18	23.5
2470.09	23
2471	22
2471.92	22
2472.83	24
2473.74	20.5
2474.66	22.5
2475.57	25
2476.48	23
2477.4	25.5
2478.31	21.5
2479.22	26.5
2480.14	26.5
2481.05	24
2481.96	23
2482.87	22.5
2483.79	21.5
2484.7	23.5
2485.61	24
2486.52	22
2487.43	22.5
2488.34	23
2489.25	24.5
2490.17	25
2491.08	25
2491.99	25
2492.9	27.5
2493.81	24
2494.72	19
2495.63	29
2496.54	24.5
2497.45	23.5
2498.36	25
2499.27	24.5
2500.18	25
2501.09	28
2502	22.5
2502.91	23
2503.82	27
2504.73	28.5
2505.63	24
2506.54	26
2507.45	23.5
2508.36	25
2509.27	25
2510.18	24.5
2511.09	23
2511.99	23
2512.9	22.5
2513.81	20.5
2514.72	24.5
2515.62	24.5
2516.53	23.5
2517.44	26
2518.34	23
2519.25	27
2520.16	22
2521.06	24
2521.97	28.5
2522.88	26.5
2523.78	21.5
2524.69	22
2525.6	24
2526.5	26.5
2527.41	24
2528.31	28
2529.22	25
2530.12	20.5
2531.03	23.5
2531.93	26
2532.84	23.5
2533.74	25
2534.65	23
2535.55	24.5
2536.46	21.5
2537.36	24
2538.27	29
2539.17	23
2540.07	24
2540.98	22.5
2541.88	24
2542.78	25
2543.69	23
2544.59	24
2545.49	25.5
2546.4	23
2547.3	26
2548.2	22
2549.1	27.5
2550.01	22
2550.91	22.5
2551.81	22.5
2552.71	22.5
2553.61	29
2554.52	22
2555.42	23.5
2556.32	23
2557.22	23
2558.12	22.5
2559.02	21.5
2559.92	24
2560.82	22
2561.72	24
2562.62	26.5
2563.53	25.5
2564.43	23
2565.33	25
2566.23	23
2567.13	27
2568.03	22.5
2568.92	23
2569.82	27
2570.72	24
2571.62	21
2572.52	22.5
2573.42	22.5
2574.32	25.5
2575.22	26.5
2576.12	24.5
2577.02	23.5
2577.91	24.5
2578.81	24.5
2579.71	24
2580.61	22
2581.5	23.5
2582.4	25.5
2583.3	22.5
2584.2	25.5
2585.09	23
2585.99	26
2586.89	25.5
2587.78	25
2588.68	27
2589.58	21.5
2590.47	23
2591.37	29
2592.27	26
2593.16	21.5
2594.06	24.5
2594.95	21.5
2595.85	29.5
2596.75	24.5
2597.64	26
2598.54	25.5
2599.43	26
2600.33	22
2601.22	21
2602.12	24
2603.01	24
2603.9	22.5
2604.8	24.5
2605.69	25
2606.59	20
2607.48	23.5
2608.37	26
2609.27	23
2610.16	26
2611.05	23
2611.95	24
2612.84	24.5
2613.73	25
2614.63	23.5
2615.52	25.5
2616.41	23
2617.3	28
2618.2	24.5
2619.09	22
2619.98	21
2620.87	21.5
2621.76	25
2622.66	20
2623.55	23
2624.44	23.5
2625.33	26
2626.22	23
2627.11	24
2628	25.5
2628.9	22.5
2629.79	22
2630.68	22
2631.57	27
2632.46	23
2633.35	26
2634.24	21.5
2635.13	26.5
2636.02	19
2636.91	23.5
2637.8	23
2638.68	27
2639.57	24
2640.46	25.5
2641.35	26.5
2642.24	25.5
2643.13	27
2644.02	25
2644.91	20
2645.79	23.5
2646.68	22
2647.57	25
2648.46	26
2649.35	24.5
2650.23	30
2651.12	25
2652.01	22
2652.9	26
2653.78	23
2654.67	24
2655.56	22
2656.44	25
2657.33	27
2658.22	26
2659.1	27
2659.99	22.5
2660.88	27.5
2661.76	26
2662.65	25
2663.53	26.5
2664.42	26
2665.3	23.5
2666.19	24.5
2667.07	23
2667.96	25.5
2668.84	27
2669.73	27.5
2670.61	23
2671.5	27
2672.38	26
2673.27	24.5
2674.15	22.5
2675.04	22
2675.92	20.5
2676.8	25.5
2677.69	23.5
2678.57	21
2679.45	22
2680.34	23
2681.22	27
2682.1	22.5
2682.99	25.5
2683.87	29.5
2684.75	25
2685.63	21.5
2686.52	20.5
2687.4	24
2688.28	21
2689.16	23.5
2690.04	23
2690.93	22.5
2691.81	26
2692.69	26
2693.57	28
2694.45	29.5
2695.33	22.5
2696.21	23.5
2697.09	21
2697.97	27
2698.85	24
2699.74	22.5
2700.62	26
2701.5	23.5
2702.38	21.5
2703.26	26.5
2704.14	23.5
2705.02	24
2705.89	24
2706.77	25
2707.65	23
2708.53	22
2709.41	22.5
2710.29	21.5
2711.17	21.5
2712.05	23.5
2712.93	24
2713.8	23
2714.68	22.5
2715.56	24
2716.44	23.5
2717.32	21.5
2718.19	23.5
2719.07	26
2719.95	24.5
2720.83	24.5
2721.7	24
2722.58	21.5
2723.46	24.5
2724.33	24.5
2725.21	19.5
2726.09	18.5
2726.97	22
2727.84	24.5
2728.72	20.5
2729.59	25
2730.47	24
2731.35	22
2732.22	25.5
2733.1	26
2733.97	21.5
2734.85	24.5
2735.72	21
2736.6	24
2737.47	25.5
2738.35	24.5
2739.22	26.5
2740.1	21.5
2740.97	25
2741.84	23
2742.72	22.5
2743.59	22.5
2744.47	26.5
2745.34	23
2746.21	24.5
2747.09	22.5
2747.96	21
2748.83	27.5
2749.71	25.5
2750.58	24.5
2751.45	23
2752.33	24.5
2753.2	24
2754.07	21
2754.94	26
2755.82	23.5
2756.69	26
2757.56	24
2758.43	23.5
2759.3	22
2760.18	26
2761.05	23.5
2761.92	25
2762.79	22.5
2763.66	22
2764.53	24
2765.4	26.5
2766.27	24.5
2767.14	24.5
2768.01	24.5
2768.88	25
2769.75	20.5
2770.62	26
2771.49	23
2772.36	24
2773.23	23
2774.1	25.5
2774.97	25
2775.84	24
2776.71	26
2777.58	24
2778.45	23.5
2779.32	24
2780.19	25
2781.06	23
2781.92	30.5
2782.79	22.5
2783.66	26.5
2784.53	21.5
2785.4	24
2786.26	26
2787.13	27
2788	21
2788.87	28.5
2789.73	23.5
2790.6	27.5
2791.47	25
2792.34	28
2793.2	25.5
2794.07	24
2794.94	27
2795.8	25.5
2796.67	24.5
2797.53	22
2798.4	25
2799.27	25.5
2800.13	28
2801	26
2801.86	23
2802.73	27
2803.59	31
2804.46	25
2805.32	27.5
2806.19	26.5
2807.05	23.5
2807.92	26
2808.78	25.5
2809.65	26
2810.51	25
2811.38	23.5
2812.24	24.5
2813.1	26
2813.97	23.5
2814.83	21
2815.7	25
2816.56	26
2817.42	26
2818.29	23.5
2819.15	24
2820.01	25.5
2820.87	30
2821.74	24
2822.6	25
2823.46	24.5
2824.32	26
2825.19	27
2826.05	26
2826.91	24.5
2827.77	27.5
2828.63	24.5
2829.5	28.5
2830.36	29
2831.22	24.5
2832.08	27
2832.94	20
2833.8	23.5
2834.66	26
2835.52	26
2836.38	27
2837.24	25
2838.1	25
2838.96	27
2839.82	25.5
2840.68	27
2841.54	26.5
2842.4	23.5
2843.26	23
2844.12	26
2844.98	23.5
2845.84	23
2846.7	23.5
2847.56	28
2848.42	28.5
2849.28	23
2850.14	24
2850.99	26.5
2851.85	23.5
2852.71	27
2853.57	27
2854.43	28.5
2855.28	25
2856.14	25.5
2857	28.5
2857.86	25
2858.71	23
2859.57	25.5
2860.43	23
2861.28	27.5
2862.14	27
2863	27.5
2863.86	27
2864.71	24.5
2865.57	28
2866.42	25.5
2867.28	27
2868.14	28.5
2868.99	27.5
2869.85	26.5
2870.7	26.5
2871.56	25
2872.41	29.5
2873.27	24
2874.13	28
2874.98	23
2875.83	30
2876.69	30.5
2877.54	29
2878.4	31
2879.25	28
2880.11	33
2880.96	35
2881.81	26
2882.67	31.5
2883.52	36
2884.38	30.5
2885.23	33
2886.08	35.5
2886.94	34.5
2887.79	32
2888.64	33
2889.5	34.5
2890.35	34.5
2891.2	37.5
2892.05	37.5
2892.91	41
2893.76	44.5
2894.61	41
2895.46	41
2896.31	47
2897.17	48.5
2898.02	50.5
2898.87	53.5
2899.72	55
2900.57	58
2901.42	58
2902.27	61.5
2903.12	62.5
2903.98	64.5
2904.83	64.5
2905.68	61
2906.53	69
2907.38	61
2908.23	66
2909.08	59
2909.93	65
2910.78	60.5
2911.63	59.5
2912.48	52
2913.33	52.5
2914.18	50
2915.02	47.5
2915.87	41.5
2916.72	45.5
2917.57	40
2918.42	40.5
2919.27	35
2920.12	33.5
2920.97	32.5
2921.81	36.5
2922.66	33.5
2923.51	33
2924.36	28
2925.21	35.5
2926.05	32.5
2926.9	34
2927.75	30.5
2928.59	32
2929.44	26
2930.29	30
2931.14	26.5
2931.98	30
2932.83	26
2933.68	28.5
2934.52	27
2935.37	24.5
2936.21	27.5
2937.06	29
2937.91	25
2938.75	28
2939.6	27.5
2940.44	28
2941.29	28.5
2942.14	26
2942.98	30
2943.82	25
2944.67	25
2945.51	28
2946.36	27
2947.2	26.5
2948.05	30
2948.89	29.5
2949.74	26
2950.58	25
2951.43	30
2952.27	31
2953.11	32
2953.96	30.5
2954.8	32
2955.64	29
2956.49	30
2957.33	34
2958.17	35
2959.02	36
2959.86	38
2960.7	40
2961.54	44
2962.39	38.5
2963.23	43.5
2964.07	44.5
2964.91	40.5
2965.75	44
2966.6	40.5
2967.44	44
2968.28	42.5
2969.12	39.5
2969.96	41
2970.8	34
2971.64	38.4806
2972.48	31.4879
2973.33	35.9243
2974.17	37.9427
2975.01	31.6156
2975.85	34.025
2976.69	34.439
2977.53	33.0861
2978.37	29.4903
2979.21	32.6772
2980.05	29.175
2980.89	32.1174
2981.73	31.8083
2982.57	28.1036
2983.41	22.6098
2984.25	26.9826
2985.08	28.3301
2985.92	23.8084
2986.76	25.5865
2987.6	28.1222
2988.44	26.8176
2989.28	25.3649
2990.12	26.9743
2990.96	23.7718
2991.79	26.2474
2992.63	24.7202
2993.47	26.2257
2994.31	26.0995
2995.14	25.0693
2995.98	26.8971
2996.82	23.8251
2997.66	26.2354
2998.49	22.1623
2999.33	23.8151
3000.17	23.2262
3001	24.6553
3001.84	21.4762
3002.68	21.7124
3003.51	24
3004.35	25.4138
3005.19	23.7215
3006.02	22.84
3006.86	22.7031
3007.7	25.645
3008.53	23.5827
3009.37	23.7938
3010.2	26.1328
3011.04	23.7632
3011.87	21.6766
3012.71	22.598
3013.54	24.7804
3014.38	23
3015.21	22.6209
3016.05	23.9869
3016.88	23.278
3017.72	23.6109
3018.55	22.1243
3019.39	23.7386
3020.22	22.7673
3021.05	20.1961
3021.89	24.0603
3022.72	23.475
3023.55	24.5014
3024.39	22.8707
3025.22	21.1541
3026.05	22.5887
3026.89	24.249
3027.72	22.5393
3028.55	23.5064
3029.39	24.1577
3030.22	23.7181
3031.05	20.8845
3031.88	22.7397
3032.72	21.9788
3033.55	22.3856
3034.38	22.8745
3035.21	23.1432
3036.04	22.8714
3036.88	21.1599
3037.71	22.5516
3038.54	24.3999
3039.37	23.5782
3040.2	22.7186
3041.03	21.4851
3041.86	21.5362
3042.69	24.3365
3043.52	22.7731
3044.36	21.5924
3045.19	21.9785
3046.02	22.643
3046.85	23.2372
3047.68	22.7998
3048.51	20.2794
3049.34	22.0609
3050.17	23.2148
3051	24.2021
3051.83	22.2592
3052.66	21.3872
3053.48	24.2867
3054.31	24.4981
3055.14	23.7071
3055.97	21.9754
3056.8	21.6684
3057.29	24
3058.12	23
3058.95	22.5
3059.79	17.5
3060.62	22
3061.45	22
3062.29	23.5
3063.12	20.5
3063.95	23
3064.78	25
3065.62	24.5
3066.45	23
3067.28	26.5
3068.11	24.5
3068.94	22.5
3069.77	24
3070.61	22.5
3071.44	24
3072.27	21.5
3073.1	23.5
3073.93	19
3074.76	21
3075.59	20
3076.42	23.5
3077.25	20.5
3078.08	24
3078.92	20
3079.74	23.5
3080.57	26
3081.41	24.5
3082.24	26
3083.06	21.5
3083.89	20.5
3084.72	25
3085.55	22
3086.38	25
3087.21	22
3088.04	20.5
3088.87	23
3089.7	24
3090.53	21.5
3091.36	21
3092.18	20.5
3093.01	22
3093.84	22
3094.67	21.5
3095.5	17
3096.32	21.5
3097.15	27
3097.98	22
3098.81	24.5
3099.64	21
3100.46	26
3101.29	25.5
3102.12	21
3102.94	25.5
3103.77	20.5
3104.6	23
3105.42	25
3106.25	26.5
3107.08	22
3107.9	23.5
3108.73	29.5
3109.56	23.5
3110.38	22.5
3111.21	18
3112.03	22.5
3112.86	22
3113.68	24
3114.51	24.5
3115.33	21
3116.16	22.5
3116.98	25.5
3117.81	22
3118.63	20.5
3119.46	25
3120.28	23
3121.11	24.5
3121.93	23
3122.76	19
3123.58	22.5
3124.4	26.5
3125.23	20.5
3126.05	24
3126.87	21
3127.7	22
3128.52	23
3129.34	26.5
3130.17	24
3130.99	18
3131.81	22.5
3132.64	20.5
3133.46	21
3134.28	21.5
3135.1	26.5
3135.93	24.5
3136.75	24
3137.57	27
3138.39	18
3139.21	25
3140.04	25.5
3140.86	28
3141.68	21
3142.5	25
3143.32	25
3144.14	24.5
3144.96	22
3145.78	22.5
3146.61	22
3147.43	23.5
3148.25	24.5
3149.07	23.5
3149.89	22
3150.71	23.5
3151.53	23
3152.35	21
3153.17	24
3153.99	22
3154.81	22.5
3155.63	21
3156.45	21.5
3157.27	21
3158.08	21
3158.9	22.5
3159.72	23
3160.54	24.5
3161.36	25.5
3162.18	22.5
3163	20.5
3163.82	23.5
3164.63	22
3165.45	21.5
3166.27	21
3167.09	23.5
3167.91	20
3168.72	21.5
3169.54	23.5
3170.36	16
3171.18	26
3171.99	24
3172.81	23.5
3173.63	23.5
3174.44	23.5
3175.26	21
3176.08	22.5
3176.89	24.5
3177.71	20
3178.53	20
3179.34	25.5
3180.16	25
3180.97	24.5
3181.79	24
3182.61	21
3183.42	22.5
3184.24	23
3185.05	21
3185.87	24.5
3186.68	26
3187.5	23
3188.31	23
3189.13	23.5
3189.94	24
3190.76	23
3191.57	24.5
3192.39	21
3193.2	23
3194.02	23.5
3194.83	24
3195.64	24
3196.46	24
3197.27	22.5
3198.08	23.5
3198.9	22
3199.71	23.5
3200.52	28
3201.34	22.5
3202.15	21
3202.96	24.5
3203.78	22
3204.59	22.5
3205.4	27
3206.21	26
3207.03	23
3207.84	26
3208.65	21
3209.46	26
3210.27	21.5
3211.09	22.5
3211.9	25
3212.71	22.5
3213.52	22.5
3214.33	23
3215.14	25
3215.95	23
3216.77	22
3217.58	21
3218.39	24.5
3219.2	20.5
3220.01	23.5
3220.82	25.5
3221.63	22.5
3222.44	20.5
3223.25	27.5
3224.06	21.5
3224.87	23
3225.68	22
3226.49	18
3227.3	25
3228.11	22
3228.92	25
3229.73	25
3230.53	25.5
3231.34	23
3232.15	21
3232.96	24
3233.77	24.5
3234.58	25.5
3235.39	25.5
3236.19	25.5
3237	26.5
3237.81	21.5
3238.62	23
3239.43	23
3240.23	21.5
3241.04	23
3241.85	24.5
3242.66	24
3243.46	20.5
3244.27	25
3245.08	24.5
3245.89	24
3246.69	24
3247.5	18
3248.31	24
3249.11	24
3249.92	24.5
3250.72	23
3251.53	24
3252.34	23.5
3253.14	28
3253.95	23.5
3254.75	26.5
3255.56	23.5
3256.36	26
3257.17	23.5
3257.98	22
3258.78	25.5
3259.59	20.5
3260.39	22
3261.19	26.5
3262	24.5
3262.8	19
3263.61	23.5
3264.41	23
3265.22	22
3266.02	18.5
3266.83	22
3267.63	21.5
3268.43	25.5
3269.24	21.5
3270.04	25
3270.84	24
3271.65	24
3272.45	22.5
3273.25	22.5
3274.06	23
3274.86	21
3275.66	24
3276.46	21
3277.27	24
3278.07	23.5
3278.87	22.5
3279.67	22
3280.48	23
3281.28	24.5
3282.08	27
3282.88	26.5
3283.68	21
3284.48	23
3285.29	20
3286.09	24
3286.89	23
3287.69	26.5
3288.49	23.5
3289.29	21
3290.09	23.5
3290.89	25.5
3291.69	25.5
3292.49	22.5
3293.29	20.5
3294.09	23.5
3294.89	24.5
3295.69	24.5
3296.49	28
3297.29	23
3298.09	21.5
3298.89	21
3299.69	24
3300.49	21
3301.29	22.5
3302.09	25.5
3302.89	20
3303.69	22
3304.49	24
3305.28	22
3306.08	24
3306.88	23
3307.68	22
3308.48	20
3309.28	21.5
3310.07	23
3310.87	21
3311.67	26.5
3312.47	30
3313.26	24.5
3314.06	23.5
3314.86	22.5
3315.66	24.5
3316.45	21.5
3317.25	23.5
3318.05	23
3318.84	25
3319.64	24
3320.44	24.5
3321.23	23
3322.03	20
3322.83	27
3323.62	22
3324.42	23.5
3325.21	22
3326.01	18.5
3326.81	22
3327.6	22.5
3328.4	25.5
3329.19	23
3329.99	23.5
3330.78	21
3331.58	23
3332.37	27
3333.17	21
3333.96	28
3334.76	25.5
3335.55	21
3336.34	23.5
3337.14	23
3337.93	24.5
3338.73	22.5
3339.52	23.5
3340.31	24
3341.11	23
3341.9	26
3342.69	24
3343.49	27.5
3344.28	24.5
3345.07	25
3345.87	22.5
3346.66	25
3347.45	28
3348.25	22
3349.04	26
3349.83	24.5
3350.62	21
3351.42	22
3352.21	21
3353	21.5
3353.79	23
3354.58	25.5
3355.37	23
3356.17	23.5
3356.96	25
3357.75	21
3358.54	25.5
3359.33	24
3360.12	26.5
3360.91	22
3361.7	21
3362.49	25
3363.29	23.5
3364.08	26.5
3364.87	26
3365.66	24.5
3366.45	23
3367.24	19.5
3368.03	23
3368.82	20.5
3369.61	22
3370.4	21.5
3371.19	28.5
3371.97	26
3372.76	21
3373.55	25
3374.34	25
3375.13	22
3375.92	25.5
3376.71	23.5
3377.5	28.5
3378.29	27
3379.07	24
3379.86	27.5
3380.65	23.5
3381.44	26
3382.23	26
3383.01	19
3383.8	24
3384.59	23
3385.38	23
3386.16	24.5
3386.95	22.5
3387.74	23.5
3388.53	23
3389.31	22.5
3390.1	23
3390.89	19
3391.67	22.5
3392.46	25
3393.25	22
3394.03	25.5
3394.82	25.5
3395.6	26
3396.39	21.5
3397.18	27
3397.96	22
3398.75	25
3399.53	27
3400.32	23.5
3401.1	26
3401.89	23
3402.67	22
3403.46	22.5
3404.24	24
3405.03	25
3405.81	21
3406.6	23.5
3407.38	26.5
3408.17	21
3408.95	25.5
3409.74	29.5
3410.52	21
3411.3	25
3412.09	23
3412.87	22
3413.65	23.5
3414.44	24
3415.22	22
3416	24
3416.79	23.5
3417.57	21.5
3418.35	22
3419.14	23.5
3419.92	22.5
3420.7	24
3421.48	22
3422.27	25
3423.05	24
3423.83	25
3424.61	20.5
3425.4	21
3426.18	22
3426.96	21
3427.74	22
3428.52	23
3429.3	23
3430.08	21
3430.87	22
3431.65	25
3432.43	23.5
3433.21	22.5
3433.99	23.5
3434.77	22
3435.55	23.5
3436.33	25
3437.11	23
3437.89	21.5
3438.67	24
3439.45	22
3440.23	26
3441.01	25
3441.79	23.5
3442.57	20
3443.35	24
3444.13	24.5
3444.91	24.5
3445.69	25
3446.47	22
3447.25	26.5
3448.03	28.5
3448.8	23
3449.58	24
3450.36	24.5
3451.14	23.5
3451.92	24
3452.7	21.5
3453.47	20.5
3454.25	21
3455.03	21.5
3455.81	24
3456.59	28.5
3457.36	24.5
3458.14	23.5
3458.92	21.5
3459.69	20
3460.47	22.5
3461.25	24
3462.03	26.5
3462.8	21
3463.58	25
3464.36	24.5
3465.13	21
3465.91	20
3466.69	25
3467.46	21.5
3468.24	23
3469.01	26
3469.79	22.5
3470.57	24
3471.34	23
3472.12	23.5
3472.89	24
3473.67	22
3474.44	24
3475.22	25
3475.99	29
3476.77	23.5
3477.54	24
3478.32	20
3479.09	24
3479.87	20
3480.64	26
3481.41	21
3482.19	25.5
3482.96	22.5
3483.74	25
3484.51	22.5
3485.28	21.5
3486.06	24.5
3486.83	27
3487.6	22.5
3488.38	25
3489.15	23.5
3489.92	26
3490.7	23
3491.47	25
3492.24	25.5
3493.01	22
3493.79	22.5
3494.56	26
3495.33	21.5
3496.1	21
3496.88	22
3497.65	23.5
3498.42	23
3499.19	24
3499.96	24
