#Acq. time (s)=	5
#Accumulations=	5
#Range (cm-¹)=	100...3500
#Windows=	4
#Autofocus=	Off
#AutoExposure=	Off
#Spike filter=	Multiple accum.
#Delay time (s)=	0
#Binning=	1
#Readout mode=	Signal
#DeNoise=	Off
#ICS correction=	Off
#Dark correction=	Off
#Inst. Process=	Off
#Instrument=	LabRAM HR Evol
#Detector=	Syncerity OE
#Objective=	x100_VIS
#Grating=	600 (500nm)
#ND Filter=	25%
#Laser=	633nm_Edge
#Hole=	100.021
#Range=	Visible
#Project=	verificaciones
#Sample=	at3
#Site=	plain
#Title=	bolusat3plain
#Remark=	com
#Date=	16.01.2026 16:48
#Acquired=	16.01.2026 16:48:26
100.564	27
101.847	33
103.131	32.5
104.414	30
105.697	29.5
106.979	31.5
108.262	29
109.544	28
110.826	30
112.109	28
113.391	30
114.672	30
115.954	33
117.235	32
118.515	24
119.796	29
121.076	31
122.357	29.5
123.637	35
124.916	33
126.196	31
127.475	30.5
128.754	27.5
130.033	31
131.31	28
132.589	33
133.867	36.5
135.145	32.5
136.423	32
137.701	36.5
138.978	33
140.256	38
141.533	37
142.809	37.5
144.086	38
145.361	41
146.637	36.5
147.913	38
149.189	44
150.464	43
151.74	39
153.014	44
154.288	43
155.563	37.5
156.838	41
158.112	38.5
159.385	45.5
160.659	40.5
161.932	42
163.206	44
164.479	39.5
165.751	42.5
167.024	42
168.296	40
169.567	43.5
170.84	44.5
172.112	37.5
173.383	34.5
174.654	38
175.925	37.5
177.196	37.5
178.466	42
179.737	42.5
181.007	37
182.276	39
183.546	47.5
184.816	47
186.085	39
187.354	39.5
188.624	44
189.891	42
191.16	40
192.427	40
193.696	42.5
194.964	37.5
196.231	39
197.499	43.5
198.765	39
200.033	37
201.298	33.5
202.566	39
203.831	35.5
205.098	37.5
206.363	37.5
207.629	38.5
208.894	36
210.159	38
211.424	33
212.689	38
213.953	37.5
215.218	36.5
216.481	34
217.746	28
219.009	34
220.273	32
221.536	31
222.798	38
224.062	33
225.323	30.5
226.587	31
227.848	30.5
229.109	30.5
230.372	32
231.633	28.5
232.894	28
234.156	31.5
235.416	31.5
236.678	32.5
237.937	32
239.197	32
240.457	29.5
241.717	28.5
242.976	31
244.235	27.5
245.495	31
246.754	26
248.012	30.5
249.27	32
250.529	25
251.787	28.5
253.045	30.5
254.302	31
255.56	31
256.817	33
258.074	29
259.33	28
260.586	31.5
261.844	26
263.1	26
264.355	30
265.611	27
266.866	30.5
268.121	30.5
269.377	28
270.632	29
271.886	27.5
273.14	28
274.394	26
275.648	32
276.902	31
278.155	28.5
279.408	30.5
280.663	32
281.915	32
283.168	25.5
284.42	28
285.673	26
286.925	25
288.176	27
289.428	27
290.679	26
291.93	27.5
293.181	28
294.432	27
295.683	26
296.933	27.5
298.183	25.5
299.433	27
300.683	29
301.932	29
303.182	22.5
304.429	33.5
305.678	27
306.927	30
308.176	32.5
309.424	30
310.672	27.5
311.92	28
313.168	25
314.415	28.5
315.661	27
316.908	29
318.155	30
319.402	29
320.648	28
321.895	30.5
323.139	30
324.385	26.5
325.631	27.5
326.877	29.5
328.122	30
329.366	31.5
330.611	25
331.855	28.5
333.1	26
334.343	25
335.587	30
336.831	25.5
338.074	28
339.317	26.5
340.56	35
341.803	29.5
343.044	29
344.287	24.5
345.53	26
346.771	27
348.013	23
349.255	29.5
350.495	29
351.736	30
352.978	29
354.217	32.5
355.458	28.5
356.699	29
357.938	27.5
359.178	28.5
360.417	30.5
361.657	26.5
362.895	28.5
364.135	26.5
365.374	29
366.612	30
367.851	25
369.088	27
370.327	25
371.564	34
372.802	32
374.038	28
375.276	27
376.512	24.5
377.749	26
378.985	32
380.222	26
381.457	28
382.692	31.5
383.929	29.5
385.164	27.5
386.4	25.5
387.634	29
388.869	30
390.103	28
391.337	30
392.572	28
393.805	28
395.038	25
396.273	27
397.506	31.5
398.74	28
399.972	27
401.204	29
402.437	29
403.669	31
404.901	28
406.132	29
407.365	28
408.596	28.5
409.826	23
411.058	28
412.289	28.5
413.519	30
414.749	28
415.98	29
417.21	25
418.439	26
419.668	21
420.897	26.5
422.128	27
423.356	27
424.585	31
425.813	25.5
427.041	33.5
428.269	26.5
429.498	28
430.725	27
431.952	28.5
433.179	27
434.406	27
435.633	29
436.859	26.5
438.085	24.5
439.312	29.5
440.537	28.5
441.764	27
442.99	24.5
444.215	21
445.44	27.5
446.665	26.5
447.89	29.5
449.114	30
450.339	27.5
451.563	28
452.787	26
454.01	28
455.234	29.5
456.457	28
457.68	28
458.903	30.5
460.126	27
461.348	27.5
462.569	32
463.792	30
465.013	27.5
466.235	30
467.457	28
468.678	33
469.899	32.5
471.12	32.5
472.341	33
473.56	35.5
474.781	39
476.001	37
477.221	39.5
478.441	38
479.66	43.5
480.878	43
482.098	49.5
483.317	56.5
484.535	57
485.754	61
486.971	66.5
488.189	65
489.407	68
490.625	63.5
491.842	62.5
493.059	59
494.276	53.5
495.493	55
496.709	55.5
497.926	47
499.142	48
500.357	47.5
501.573	41
502.789	41
504.003	40
505.219	39.5
506.434	39.5
507.648	34
508.863	40
510.078	33.5
511.291	37
512.505	35.5
513.718	34
514.932	34.5
516.145	35.5
517.358	30
518.572	32.5
519.783	32
520.997	27.5
522.208	30
523.421	30.5
524.632	28
525.844	31
527.055	28.5
528.266	31
529.477	30
530.688	30
531.898	32
533.109	30
534.319	29
535.53	29
536.739	30
537.948	29.5
539.158	25
540.366	30.5
541.576	31
542.784	29
543.994	24.5
545.201	27.5
546.409	31
547.618	25
548.825	30
550.032	29
551.24	26.5
552.447	30
553.654	25.5
554.861	26.5
556.067	26
557.273	25.5
558.48	24
559.686	27
560.891	26.5
562.096	27
563.302	23.5
564.507	28.5
565.712	29.5
566.916	29
568.122	28
569.326	25.5
570.529	27.5
571.733	28.5
572.936	26
574.141	27
575.344	29
576.547	25
577.75	27.5
578.952	29
580.154	25.5
581.358	24
582.56	28.5
583.761	28.5
584.963	25
586.164	32
587.365	29.5
588.566	28
589.767	27
590.967	28
592.168	24
593.369	28
594.569	24
595.769	26
596.969	28.5
598.168	22.5
599.367	26
600.566	29.5
601.765	24
602.964	27.5
604.162	29
605.361	28
606.559	29
607.757	27.5
608.953	29.5
610.151	30.5
611.348	29
612.545	28.5
613.742	28
614.939	31
616.135	25.5
617.332	26
618.528	28
619.724	27
620.918	24.5
622.114	27
623.309	28
624.505	31
625.7	31
626.895	26.5
628.088	25
629.282	29
630.477	30.5
631.671	24
632.865	33
634.057	28.5
635.251	27
636.444	27
637.637	23
638.829	27.5
640.022	31
641.214	26.5
642.407	27
643.598	29
644.79	27
645.982	30.5
647.172	25.5
648.364	30
649.555	26.5
650.745	28
651.936	32
653.126	23.5
654.315	26
655.506	27
656.696	32
657.885	28
659.074	31
660.263	31
661.452	27.5
662.64	31.5
663.829	31
665.018	28
666.205	29.5
667.394	31
668.581	30
669.769	27
670.955	28
672.143	28
673.329	29
674.517	31
675.703	32
676.89	26
678.075	32.5
679.262	30
680.447	31
681.632	31.5
682.818	30
684.002	33
685.188	32
686.372	36.5
687.556	35
688.741	34.5
689.925	35
691.11	32
692.293	36
693.476	35.5
694.66	32
695.843	34
697.025	35
698.209	34
699.391	34
700.573	34
701.756	39.5
702.938	44
704.119	39
705.3	47
706.483	48.5
707.664	51
708.844	48
710.025	54.5
711.206	50
712.386	46.5
713.566	40.5
714.746	38.5
715.925	37
717.106	35.5
718.285	36
719.464	33.5
720.643	30.5
721.822	29
723	31
724.178	29
725.358	32
726.536	30
727.713	27.5
728.891	33
730.068	29
731.245	26
732.422	31
733.599	28
734.775	26.5
735.952	25.5
737.128	26
738.304	22.5
739.48	29.5
740.656	26
741.831	23
743.006	25.5
744.181	29
745.356	28.5
746.531	26
747.706	24
748.88	29
750.054	29
751.228	26
752.402	27.5
753.576	25.5
754.749	27
755.922	26
757.095	28
758.267	29
759.44	28
760.612	25.5
761.785	27
762.957	23
764.129	28.5
765.301	28
766.471	33.5
767.642	26
768.814	25
769.985	28
771.156	23.5
772.325	28
773.495	27.5
774.666	29
775.836	24
777.005	29.5
778.174	29
779.344	30.5
780.513	24.5
781.681	32.5
782.85	29
784.019	30.5
785.187	33
786.355	31
787.523	33.5
788.69	33
789.858	30.5
791.026	31
792.192	34
793.36	32
794.526	28.5
795.693	31
796.86	26
798.025	33
799.191	27.5
800.356	28.5
801.523	26
802.689	25
803.853	29.5
805.019	28.5
806.183	28
807.348	30
808.512	30.5
809.677	26.5
810.84	31
812.005	31.5
813.167	26
814.332	26
815.494	28.5
816.657	29
817.82	27
818.982	30.5
820.146	25
821.307	26.5
822.47	25
823.632	25
824.793	24.5
825.955	27
827.116	27
828.277	27
829.439	31
830.599	27
831.759	28.5
832.92	26
834.08	31
835.24	26
836.4	28.5
837.56	30.5
838.719	28.5
839.877	28.5
841.037	27
842.196	29
843.354	26.5
844.512	28.5
845.672	29
846.83	22
847.987	25
849.145	24.5
850.302	29
851.46	27
852.617	31
853.774	28
854.93	26.5
856.087	27
857.243	27.5
858.4	32
859.556	26.5
860.712	25.5
861.867	29
863.022	31
864.177	28.5
865.332	30.5
866.487	23
867.642	29
868.796	28
869.95	28
871.104	25.5
872.258	25
873.412	28
874.565	34
875.718	29
876.872	27.5
878.024	28.5
879.177	26.5
880.33	28
881.482	31
882.635	29.5
883.787	25.5
884.938	28.5
886.09	30
887.242	28
888.393	29.5
889.544	23
890.695	27.5
891.845	24
892.995	27
894.146	26
895.296	25
896.446	30
897.596	22
898.744	28
899.894	26
901.043	26
902.193	32
903.342	27.5
904.489	24.5
905.638	27
906.786	26.5
907.935	24
909.081	28.5
910.229	25
911.377	27
912.525	21.5
913.671	23
914.818	28.5
915.965	22
917.111	25
918.258	26
919.404	26
920.549	24.5
921.695	25
922.84	25
923.986	24
925.132	24
926.276	31
927.421	21.5
928.565	27
929.71	21.5
930.855	28
931.998	27.5
933.142	27
934.285	25.5
935.429	26
936.572	26.5
937.716	27.5
938.858	25.5
940.001	20
941.143	23.5
942.286	25
943.428	26.5
944.57	25.5
945.712	25.5
946.854	27
947.995	27
949.135	24
950.277	28
951.418	21.5
952.559	25.5
953.699	26.5
954.839	27
955.98	29
957.119	26
958.258	30
959.399	25.5
960.538	29.5
961.676	26.5
962.816	30
963.955	26
965.093	24.5
966.232	22.5
967.37	25.5
968.508	29
969.645	30
970.784	27.25
971.921	24.5
973.058	24
974.195	26
975.333	27.5
976.469	28.5
977.605	27.5
978.741	21.5
979.877	28.5
981.013	25.5
982.15	30.5
983.285	24
984.421	30
985.556	23
986.691	21.5
987.825	27.5
988.96	22.5
990.094	24
991.228	28.5
992.364	24
993.497	21
994.631	26.5
995.765	27
996.898	27
998.031	28
999.164	28
1000.3	28
1001.43	23.5
1002.56	26
1003.69	26.5
1004.83	26.5
1005.96	28
1007.09	23
1008.22	22
1009.35	25
1010.48	24.5
1011.61	20
1012.74	25
1013.88	27.5
1015.01	25
1016.14	26.5
1017.27	25.5
1018.4	24
1019.53	24.5
1020.65	24.5
1021.78	25
1022.91	22.5
1024.04	26
1025.17	25.5
1026.3	25
1027.43	26
1028.56	23.5
1029.68	20.5
1030.81	23
1031.94	25.5
1033.07	24
1034.19	26.5
1035.32	28
1036.45	25.5
1037.58	26.5
1038.7	25.5
1039.83	23.5
1040.95	26.5
1042.08	25.5
1043.21	24.5
1044.33	25
1045.46	24
1046.58	28
1047.71	25
1048.83	21
1049.96	27.5
1051.08	25.5
1052.21	27
1053.33	26.5
1054.45	25.5
1055.58	22
1056.7	24
1057.82	26
1058.95	26.5
1060.07	26
1061.19	27.5
1062.32	24
1063.44	28
1064.56	26
1065.68	22.5
1066.81	21.5
1067.93	27
1069.05	21.5
1070.17	29
1071.29	24
1072.41	28
1073.53	23.5
1074.65	24.5
1075.77	23
1076.89	27.5
1078.01	29.5
1079.13	23
1080.25	26.5
1081.37	27
1082.49	25
1083.61	26.5
1084.73	25
1085.85	18.5
1086.97	25
1088.09	24.5
1089.2	23
1090.32	24.5
1091.44	24
1092.56	22
1093.68	25
1094.79	26
1095.91	27.5
1097.03	22
1098.14	24.5
1099.26	26
1100.38	23
1101.49	24.5
1102.61	24.5
1103.73	24.5
1104.84	23
1105.96	25
1107.07	28.5
1108.19	24.5
1109.3	25
1110.42	25.5
1111.53	25
1112.65	27
1113.76	22.5
1114.88	25
1115.99	24
1117.1	21.5
1118.22	21.5
1119.33	23
1120.44	21
1121.56	23
1122.67	25
1123.78	26
1124.89	23.5
1126.01	29
1127.12	21
1128.23	22
1129.34	24
1130.45	24.5
1131.56	24
1132.67	24.5
1133.79	27
1134.9	28.5
1136.01	20.5
1137.12	26
1138.23	23.5
1139.34	23.5
1140.45	24
1141.56	25.5
1142.67	23
1143.78	21.5
1144.89	25
1145.99	24
1147.1	26.5
1148.21	25
1149.32	24
1150.43	28
1151.54	19
1152.65	27.5
1153.75	24
1154.86	25.5
1155.97	24.5
1157.08	23
1158.18	23.5
1159.29	24
1160.4	26.5
1161.5	21
1162.61	25
1163.72	24
1164.82	28.5
1165.93	22
1167.03	24
1168.14	27
1169.24	24
1170.35	23.5
1171.45	20.5
1172.56	27
1173.66	24
1174.77	21.5
1175.87	20
1176.98	25
1178.08	22
1179.18	23
1180.29	28.5
1181.39	25
1182.49	26.5
1183.6	24
1184.7	19
1185.8	26.5
1186.9	28
1188	23
1189.11	27
1190.21	28
1191.31	25.5
1192.41	23
1193.51	24.5
1194.61	22.0033
1195.72	23.4727
1196.82	24.6126
1197.92	24.5562
1199.02	22.5413
1200.12	24.8932
1201.22	24.8898
1202.32	24.0776
1203.42	25.6215
1204.52	21.3794
1205.62	21.9149
1206.71	24.7464
1207.81	21.2878
1208.91	25.1723
1210.01	24.7274
1211.11	24.4074
1212.21	24.9775
1213.31	26.4918
1214.4	22.6126
1215.5	23.9017
1216.6	23.0238
1217.7	27.2575
1218.79	20.6119
1219.89	27.2911
1220.99	25.8241
1222.08	25.9829
1223.18	24.3375
1224.28	23.0672
1225.37	23.8641
1226.47	24.9965
1227.56	23.2662
1228.66	23.9261
1229.76	26.4105
1230.85	26.8357
1231.95	24.3836
1233.04	24.2837
1234.14	24.3529
1235.23	23.711
1236.32	22.6856
1237.42	24.3171
1238.51	24.5546
1239.61	23.5628
1240.7	22.5726
1241.79	23.7403
1242.89	23.2741
1243.98	26.6963
1245.07	23.0409
1246.17	22.1917
1247.26	25.0111
1248.35	23.3468
1249.44	23.2794
1250.53	24.8077
1251.63	25.6018
1252.72	26.9221
1253.81	27.9451
1254.9	27.2144
1255.99	23.7704
1257.08	24.7839
1258.17	26.6432
1259.27	27.0329
1260.36	27
1261.45	24.0918
1262.54	27.3088
1263.63	23.7667
1264.72	26.3379
1265.81	26.7019
1266.89	26.8076
1267.98	27.0006
1269.07	24.963
1270.16	25.2371
1271.25	23.9686
1272.34	23.0266
1273.43	25.4632
1274.52	21.535
1275.6	22.1451
1276.69	22.6616
1277.78	25.1219
1278.87	23.3256
1279.95	23.8151
1281.04	25.6914
1282.13	23.9678
1283.22	23.0844
1284.3	22.6301
1285.39	22.3695
1286.48	23.297
1287.56	23.3283
1288.65	26.0579
1289.73	24.7178
1290.82	24.0359
1291.9	23.3034
1292.99	24.8405
1294.07	26.306
1295.16	26.3854
1296.24	23.7522
1297.33	24.2909
1298.41	24.7594
1299.5	25.2741
1300.58	24.5117
1301.66	23.753
1302.75	22.5426
1303.83	25.5645
1304.91	26.7762
1306	25.5554
1306.4	25
1307.48	21
1308.57	25
1309.66	25
1310.75	23.5
1311.84	26.5
1312.92	24
1314.01	24.5
1315.1	21
1316.18	26
1317.27	22.5
1318.36	22.5
1319.44	20.5
1320.53	21
1321.62	26
1322.7	19
1323.79	20
1324.87	23
1325.96	22.5
1327.04	21
1328.13	24.5
1329.21	20
1330.3	27.5
1331.38	25.5
1332.47	20
1333.55	27
1334.64	25
1335.72	26
1336.8	19.5
1337.89	24.5
1338.97	26.5
1340.05	23
1341.14	22
1342.22	21
1343.3	23
1344.38	22
1345.47	23
1346.55	26
1347.63	20
1348.71	27
1349.79	24.5
1350.87	24
1351.96	24
1353.04	25.5
1354.12	24.5
1355.2	24.5
1356.28	24.5
1357.36	28.5
1358.44	22.5
1359.52	24.5
1360.6	25
1361.68	25
1362.76	19
1363.84	24.5
1364.92	23
1366	24
1367.07	27.5
1368.15	25.5
1369.23	27
1370.31	28.5
1371.39	27
1372.47	26
1373.54	25.5
1374.62	27
1375.7	22
1376.78	25
1377.85	26.5
1378.93	27
1380.01	27.5
1381.08	24.5
1382.16	23.5
1383.24	25
1384.31	23.5
1385.39	26.5
1386.46	23
1387.54	21
1388.61	30.5
1389.69	26.5
1390.76	26.5
1391.84	24.5
1392.91	25.5
1393.99	23.5
1395.06	27.5
1396.14	24
1397.21	25
1398.29	28.5
1399.36	27.5
1400.43	30
1401.51	29
1402.58	25.5
1403.65	31
1404.72	28.5
1405.8	30
1406.87	32
1407.94	30
1409.02	30
1410.09	28
1411.16	30.5
1412.23	27
1413.3	30
1414.37	35
1415.44	24.5
1416.51	24
1417.59	27.5
1418.66	30
1419.73	24.5
1420.8	25
1421.87	31.5
1422.94	26.5
1424.01	23
1425.08	29
1426.15	28.5
1427.22	29.5
1428.28	24.5
1429.35	27.5
1430.42	25.5
1431.49	22
1432.56	28
1433.63	30.5
1434.7	29
1435.76	24.5
1436.83	23.5
1437.9	24.5
1438.97	25
1440.03	24.5
1441.1	23.5
1442.17	26
1443.23	26.5
1444.3	30
1445.37	25
1446.43	28.5
1447.5	27
1448.57	29
1449.63	24.5
1450.7	23.5
1451.76	27
1452.83	27
1453.89	29
1454.96	21.5
1456.02	20
1457.09	27
1458.15	25.5
1459.22	26.5
1460.28	25.5
1461.34	23
1462.41	26
1463.47	23
1464.53	26
1465.6	24
1466.66	25
1467.72	23
1468.78	23.5
1469.85	25
1470.91	23.5
1471.97	20.5
1473.03	26
1474.1	22
1475.16	27.5
1476.22	26
1477.28	26.5
1478.34	26
1479.4	26
1480.46	23
1481.52	25.5
1482.58	22
1483.65	25
1484.71	27
1485.77	22
1486.82	28
1487.89	24.5
1488.94	26.5
1490	25
1491.06	24
1492.12	26
1493.18	25
1494.24	28
1495.3	27
1496.36	22.5
1497.41	25.5
1498.47	25.5
1499.53	28
1500.59	20
1501.65	22
1502.7	29.5
1503.76	23.5
1504.82	23
1505.87	25.5
1506.93	23.5
1507.99	23
1509.04	22.5
1510.1	25.5
1511.16	24.5
1512.21	22
1513.27	22
1514.32	26
1515.38	29
1516.43	26.5
1517.49	25.5
1518.54	27.5
1519.6	25
1520.65	25
1521.71	28
1522.76	26
1523.81	22.5
1524.87	23
1525.92	24
1526.98	24.5
1528.03	24
1529.08	22
1530.14	23.5
1531.19	28.5
1532.24	24
1533.29	26
1534.35	23
1535.4	29
1536.45	24
1537.5	24
1538.55	23
1539.61	30
1540.66	21
1541.71	27
1542.76	22.5
1543.81	27
1544.86	26
1545.91	25
1546.96	26
1548.01	21.5
1549.06	25
1550.11	25
1551.16	26
1552.21	27
1553.26	26
1554.31	25.5
1555.36	24.5
1556.41	25
1557.46	24
1558.5	22
1559.55	24.5
1560.6	25
1561.65	26
1562.7	26
1563.74	26
1564.79	27
1565.84	24
1566.89	23.5
1567.93	25.5
1568.98	23
1570.03	22
1571.07	21.5
1572.12	26.5
1573.17	23
1574.21	28
1575.26	24.5
1576.3	23
1577.35	28
1578.4	31.5
1579.44	24
1580.49	27
1581.53	26
1582.58	25
1583.62	26
1584.66	25.5
1585.71	26
1586.75	26
1587.8	24.5
1588.84	23.5
1589.88	24.5
1590.93	22.5
1591.97	25
1593.01	27.5
1594.06	23.5
1595.1	24.5
1596.14	26
1597.18	27
1598.23	25
1599.27	25
1600.31	25
1601.35	26.5
1602.39	22.5
1603.44	24
1604.48	21
1605.52	23
1606.56	27
1607.6	24
1608.64	27.5
1609.68	28.5
1610.72	25
1611.76	25
1612.8	23.5
1613.84	22
1614.88	28
1615.92	27
1616.96	26
1618	28.5
1619.04	28
1620.08	24.5
1621.12	23.5
1622.16	25
1623.19	26
1624.23	27.5
1625.27	20
1626.31	22.5
1627.35	26.5
1628.38	22.5
1629.42	22.5
1630.46	24.5
1631.49	28
1632.53	22.5
1633.57	27
1634.6	27.5
1635.64	23.5
1636.68	23
1637.71	25.5
1638.75	26.5
1639.79	23.5
1640.82	24
1641.86	27.5
1642.89	23.5
1643.93	26
1644.96	26
1646	26
1647.03	20
1648.07	26
1649.1	23.5
1650.13	25.5
1651.17	25
1652.2	23
1653.24	24.5
1654.27	22.5
1655.3	26.5
1656.34	25
1657.37	27
1658.4	29.5
1659.43	24.5
1660.47	24.5
1661.5	26.5
1662.53	28.5
1663.56	26.5
1664.6	27.5
1665.63	25
1666.66	28
1667.69	25
1668.72	26
1669.75	23.5
1670.78	19
1671.81	22
1672.85	29
1673.88	26
1674.91	21
1675.94	26
1676.97	25
1678	28
1679.03	23.5
1680.06	24
1681.09	25
1682.11	27
1683.14	24.5
1684.17	27
1685.2	26
1686.23	24
1687.26	28
1688.29	24
1689.31	29.5
1690.34	28.5
1691.37	23.5
1692.4	24
1693.42	24
1694.45	24
1695.48	25.5
1696.51	24.5
1697.53	21.5
1698.56	25
1699.59	25.5
1700.61	23.5
1701.64	28
1702.66	21.5
1703.69	29.5
1704.72	26.5
1705.74	25.5
1706.77	26.5
1707.79	24
1708.82	23
1709.84	23.5
1710.87	28
1711.89	23
1712.91	25.5
1713.94	27.5
1714.96	26.5
1715.99	28
1717.01	23
1718.03	25
1719.06	21
1720.08	23.5
1721.1	25
1722.13	25
1723.15	26
1724.17	25
1725.19	28
1726.22	25
1727.24	27
1728.26	25.5
1729.28	21.5
1730.3	23.5
1731.33	25
1732.35	27.5
1733.37	31
1734.39	27
1735.41	25
1736.43	27.5
1737.45	25.5
1738.47	24
1739.49	25
1740.51	27
1741.53	24
1742.55	25
1743.57	24
1744.59	30.5
1745.61	25.5
1746.63	23.5
1747.65	22
1748.67	24
1749.69	26
1750.7	24
1751.72	24
1752.74	23.5
1753.76	29
1754.78	27
1755.79	26.5
1756.81	22.5
1757.83	27
1758.85	26
1759.86	21.5
1760.88	25.5
1761.9	27
1762.91	23
1763.93	26
1764.95	22
1765.96	26
1766.98	22.5
1767.99	25.5
1769.01	25.5
1770.02	23
1771.04	26
1772.06	25.5
1773.07	24.5
1774.09	23
1775.1	22
1776.11	27.5
1777.13	25
1778.14	24
1779.16	26
1780.17	27.5
1781.18	26
1782.2	22.5
1783.21	26
1784.22	26
1785.24	25
1786.25	23
1787.26	23
1788.28	22.5
1789.29	26.5
1790.3	25.5
1791.31	24.5
1792.33	29
1793.34	20.5
1794.35	22.5
1795.36	22.5
1796.37	22
1797.38	26
1798.39	24
1799.4	24.5
1800.42	26
1801.43	23.5
1802.44	26
1803.45	25
1804.46	25.5
1805.47	23.5
1806.48	28
1807.49	25
1808.5	27.5
1809.51	24.5
1810.51	28.5
1811.52	27
1812.53	24.5
1813.54	24
1814.55	21
1815.56	25
1816.57	23
1817.57	23
1818.58	22.5
1819.59	25
1820.6	30
1821.61	27.5
1822.61	26.5
1823.62	21.5
1824.63	25
1825.63	23
1826.64	23
1827.65	23
1828.65	21.5
1829.66	24
1830.67	23.5
1831.67	26
1832.68	24
1833.68	25.5
1834.69	23.5
1835.69	25.5
1836.7	26.5
1837.7	23.5
1838.71	28
1839.71	20.5
1840.72	20
1841.72	25
1842.73	24.5
1843.73	24
1844.73	25
1845.74	23
1846.74	26.5
1847.74	23
1848.75	24.5
1849.75	22
1850.75	26
1851.76	26
1852.76	20.5
1853.76	25.5
1854.76	26.5
1855.77	22.5
1856.77	20
1857.77	24
1858.77	24
1859.77	22
1860.77	24.5
1861.78	26
1862.78	24.5
1863.78	23
1864.78	23.5
1865.78	23
1866.78	22
1867.78	26.5
1868.78	23
1869.78	25
1870.78	26.5
1871.78	24.5
1872.78	22.5
1873.78	23.5
1874.78	22.5
1875.78	26
1876.78	21.5
1877.78	26
1878.77	22
1879.77	24
1880.77	23.5
1881.77	24
1882.77	25.5
1883.77	24.5
1884.76	22.5
1885.76	26
1886.76	27
1887.75	26
1888.75	24
1889.75	24
1890.75	25
1891.74	21
1892.74	25
1893.73	26
1894.73	26
1895.73	24
1896.72	24.5
1897.72	22
1898.71	22
1899.71	23
1900.7	21
1901.7	23
1902.69	25.5
1903.69	22.5
1904.68	23.5
1905.68	20.5
1906.67	24
1907.67	26
1908.66	25.5
1909.65	24
1910.65	20
1911.64	21.5
1912.63	23
1913.63	25.5
1914.62	21
1915.61	25
1916.61	24
1917.6	20
1918.59	25
1919.58	21
1920.58	25.5
1921.57	24.5
1922.56	26.5
1923.55	23.5
1924.54	24.5
1925.54	25
1926.53	22
1927.52	21.5
1928.51	22
1929.5	25.5
1930.49	23
1931.48	25.5
1932.47	22.5
1933.46	26.5
1934.45	21
1935.44	24.5
1936.43	22
1937.42	27
1938.41	21
1939.4	22.5
1940.39	23
1941.38	23
1942.37	25.5
1943.35	24.5
1944.34	24
1945.33	26
1946.32	26.5
1947.31	19.5
1948.3	22
1949.28	24.5
1950.27	22.5
1951.26	23.5
1952.25	22
1953.23	22
1954.22	24.5
1955.21	25.5
1956.19	26.5
1957.18	25
1958.17	27.5
1959.15	25
1960.14	24
1961.12	26
1962.11	22.5
1963.1	25
1964.08	23.5
1965.07	23
1966.05	23.5
1967.04	24
1968.02	24.5
1969.01	22.5
1969.99	26
1970.98	21
1971.96	24.5
1972.94	22.5
1973.93	27.5
1974.91	23.5
1975.9	26
1976.88	23.5
1977.86	22.5
1978.85	25.5
1979.83	25
1980.81	25
1981.79	29
1982.78	21.5
1983.76	24
1984.74	23.5
1985.72	19.5
1986.71	23.5
1987.69	23.5
1988.67	24.5
1989.65	20.5
1990.63	24
1991.61	24
1992.59	23
1993.57	24.5
1994.56	24.5
1995.54	25.5
1996.52	25
1997.5	24
1998.48	21.5
1999.46	24
2000.44	23.5
2001.42	25
2002.4	22.5
2003.38	25.5
2004.36	24
2005.33	26
2006.31	22
2007.29	26
2008.27	19
2009.25	17.5
2010.23	22.5
2011.21	22.5
2012.18	24
2013.16	23.5
2014.14	23
2015.12	26
2016.09	21.5
2017.07	22
2018.05	21
2019.03	19.5
2020	21.5
2020.98	21.5
2021.96	25.5
2022.93	24.5
2023.91	24.5
2024.89	21.5
2025.86	20
2026.84	23
2027.81	25
2028.79	21.5
2029.76	26
2030.74	25.5
2031.71	22
2032.69	23
2033.66	24
2034.64	24
2035.61	26
2036.59	27.5
2037.56	27
2038.54	25
2039.51	23.5
2040.48	21.5
2041.46	21
2042.43	23
2043.4	23.5
2044.38	23
2045.35	22.5
2046.32	24.5
2047.29	28.5
2048.27	21
2049.24	22
2050.21	23
2051.18	25.5
2052.16	25.5
2053.13	25
2054.1	23
2055.07	24
2056.04	24
2057.01	23.5
2057.98	24.5
2058.96	25.5
2059.93	23
2060.9	20
2061.87	28
2062.84	22.5
2063.81	27
2064.78	20
2065.75	21
2066.72	24
2067.69	24.5
2068.66	24.5
2069.63	23
2070.6	18
2071.56	26
2072.53	24
2073.5	24.5
2074.47	24
2075.44	24
2076.41	26.5
2077.38	23.5
2078.34	23
2079.31	26
2080.28	23.5
2081.25	24
2082.21	19
2083.18	24
2084.15	26.5
2085.11	19.5
2086.08	26
2087.05	22.5
2088.01	21.5
2088.98	25.5
2089.95	24.5
2090.91	26
2091.88	23
2092.84	25.5
2093.81	23.5
2094.78	19.5
2095.74	23.5
2096.71	18
2097.67	24.5
2098.64	24
2099.6	24
2100.57	21.5
2101.53	22
2102.49	22.5
2103.46	24
2104.42	27
2105.39	22.5
2106.35	21.5
2107.31	20
2108.28	25.5
2109.24	24
2110.2	22
2111.17	21
2112.13	19
2113.09	22.5
2114.05	18.5
2115.02	24.5
2115.98	27
2116.94	22
2117.9	25
2118.86	20
2119.83	27
2120.79	26
2121.75	17
2122.71	17
2123.67	27
2124.63	26
2125.59	22
2126.55	19.5
2127.51	20.5
2128.47	22
2129.43	23.5
2130.39	23.5
2131.35	20
2132.31	21
2133.27	25
2134.23	19
2135.19	25
2136.15	23
2137.11	20
2138.07	22
2139.03	24.5
2139.99	26
2140.94	27.5
2141.9	23
2142.86	24.9816
2143.82	21.4705
2144.78	23.5416
2145.73	23.9905
2146.69	21.0774
2147.65	22.1161
2148.61	21.2362
2149.56	26.6909
2150.52	23.1154
2151.48	19.4048
2152.43	23.2222
2153.39	22.165
2154.35	20.8863
2155.3	23.4911
2156.26	20.4039
2157.21	24.9355
2158.17	24.6673
2159.13	24.6146
2160.08	22.3403
2161.04	22.3025
2161.99	19.9776
2162.95	22.1469
2163.9	24.4316
2164.86	22.1725
2165.81	24.2187
2166.77	22.8621
2167.72	23.7726
2168.67	21.8041
2169.63	20.9119
2170.58	23.4374
2171.54	23.8853
2172.49	22.7354
2173.44	23.7696
2174.4	23.1396
2175.35	21.5
2176.3	18.8572
2177.26	23.8494
2178.21	20.6282
2179.16	21.3427
2180.11	25.8037
2181.07	24.2148
2182.02	20.5968
2182.97	22.1572
2183.92	22.363
2184.87	20.7932
2185.82	21.8547
2186.78	21.6873
2187.73	20.7015
2188.68	20.2335
2189.63	22.6904
2190.58	21.1689
2191.53	23.5142
2192.48	22.032
2193.43	24.4162
2194.38	24.3028
2195.33	21.3779
2196.28	22.2061
2197.23	23.2302
2198.18	21.4406
2199.13	23.273
2200.08	22.9382
2201.03	22.4529
2201.98	22.9272
2202.93	20.7582
2203.88	23.6435
2204.83	22.5546
2205.77	24.4175
2206.72	22.4354
2207.67	22.8374
2208.62	23.1865
2209.57	21.9742
2210.52	21.9309
2211.46	22.6266
2212.41	21.1753
2213.36	20.9494
2214.31	21.1326
2215.25	20.3774
2216.2	22.5699
2217.15	21.9119
2218.09	21.2232
2219.04	20.7297
2219.99	21.8325
2220.93	20.5871
2221.88	22.0034
2222.82	23.4544
2223.77	25.4446
2224.72	23.5962
2225.66	21.2884
2226.61	22.5487
2227.55	21.655
2228.5	22.4173
2229.44	23.4864
2230.39	22.1257
2231.33	21.1494
2232.28	23.5993
2233.22	21.8349
2234.16	22.8088
2235.11	19.6068
2236.05	21.3971
2237	22.3111
2237.94	21.3268
2238.88	20.3696
2239.83	24.0488
2240.13	26
2241.08	22.5
2242.03	20.5
2242.98	23.5
2243.92	22
2244.87	21.5
2245.82	19.5
2246.76	22
2247.71	20
2248.66	23.5
2249.61	23
2250.55	24
2251.5	20.5
2252.45	23
2253.39	20
2254.34	21.5
2255.28	20.5
2256.23	20
2257.18	24
2258.12	25
2259.07	17
2260.01	23
2260.96	23
2261.9	23
2262.85	25.5
2263.79	24
2264.74	21
2265.68	25.5
2266.63	25
2267.57	21
2268.51	23.5
2269.46	23.5
2270.4	23.5
2271.35	26
2272.29	27
2273.23	23.5
2274.18	22.5
2275.12	22
2276.06	20.5
2277	17
2277.95	26
2278.89	22.5
2279.83	23.5
2280.78	21
2281.72	25
2282.66	23.5
2283.6	19
2284.54	22
2285.48	21.5
2286.43	24
2287.37	22
2288.31	22
2289.25	20
2290.19	23
2291.13	23
2292.07	22.5
2293.01	20.5
2293.95	21
2294.89	23
2295.83	21.5
2296.77	20.5
2297.71	24
2298.65	21.5
2299.59	24.5
2300.53	22
2301.47	23.5
2302.41	21
2303.35	25
2304.29	22.5
2305.22	23.5
2306.16	24.5
2307.1	24
2308.04	18
2308.98	23
2309.91	23
2310.85	24.5
2311.79	23
2312.73	24
2313.66	21.5
2314.6	23.5
2315.54	22.5
2316.48	22
2317.41	22
2318.35	21
2319.29	26
2320.22	22.5
2321.16	21.5
2322.09	23.5
2323.03	22.5
2323.97	24.5
2324.9	23.5
2325.84	24.5
2326.77	21.5
2327.71	23
2328.64	24.5
2329.58	24.5
2330.51	18.5
2331.45	21.5
2332.38	21
2333.32	20.5
2334.25	26.5
2335.18	25
2336.12	23.5
2337.05	21
2337.99	21.5
2338.92	23.5
2339.85	23.5
2340.79	24
2341.72	23.5
2342.65	22.5
2343.59	22
2344.52	23.5
2345.45	25
2346.38	21
2347.32	24
2348.25	21
2349.18	22.5
2350.11	24.5
2351.04	23
2351.98	21.5
2352.91	23
2353.84	20
2354.77	23
2355.7	28.5
2356.63	25.5
2357.56	25
2358.49	25.5
2359.42	21
2360.35	22
2361.28	23
2362.21	22
2363.14	24.5
2364.07	20.5
2365	26
2365.93	21
2366.86	23
2367.79	25.5
2368.72	23.5
2369.65	28.5
2370.58	22.5
2371.51	25
2372.44	19
2373.36	22.5
2374.29	22.5
2375.22	24.5
2376.15	26
2377.08	22
2378	24
2378.93	21.5
2379.86	27
2380.79	24.5
2381.71	24.5
2382.64	25
2383.57	25
2384.49	21
2385.42	24
2386.35	22.5
2387.27	21
2388.2	21
2389.13	22
2390.05	22
2390.98	22
2391.9	22
2392.83	24.5
2393.76	27.5
2394.68	26
2395.61	21.5
2396.53	23.5
2397.46	24.5
2398.38	27
2399.3	24
2400.23	22
2401.15	18.5
2402.08	24.5
2403	23.5
2403.93	21
2404.85	19
2405.77	25
2406.7	25.5
2407.62	24
2408.54	20.5
2409.47	23.5
2410.39	21.5
2411.31	24
2412.24	24.5
2413.16	25.5
2414.08	26
2415	24.5
2415.92	23
2416.85	21.5
2417.77	21.5
2418.69	21
2419.61	19
2420.53	23.5
2421.45	24
2422.38	23
2423.3	21.5
2424.22	28
2425.14	23
2426.06	24
2426.98	24
2427.9	24.5
2428.82	20
2429.74	23
2430.66	22
2431.58	23
2432.5	22.5
2433.42	24.5
2434.34	22
2435.26	22
2436.18	23
2437.1	24
2438.01	28.5
2438.93	24.5
2439.85	23
2440.77	26
2441.69	25.5
2442.61	21.5
2443.52	23
2444.44	20.5
2445.36	25
2446.28	23
2447.2	22.5
2448.11	23
2449.03	24
2449.95	20
2450.86	24.5
2451.78	24
2452.7	22
2453.61	27
2454.53	24.5
2455.45	25
2456.36	23.5
2457.28	24
2458.2	20.5
2459.11	20
2460.03	26
2460.94	25
2461.86	24
2462.77	29
2463.69	25
2464.6	24
2465.52	21
2466.43	23.5
2467.35	23
2468.26	27
2469.18	21
2470.09	22
2471	20
2471.92	23
2472.83	24.5
2473.74	24
2474.66	25
2475.57	20
2476.48	23
2477.4	24
2478.31	23
2479.22	21
2480.14	21
2481.05	25.5
2481.96	23
2482.87	19.5
2483.79	26
2484.7	24
2485.61	27
2486.52	23.5
2487.43	20
2488.34	24.5
2489.25	26
2490.17	23
2491.08	28
2491.99	27
2492.9	23
2493.81	25.5
2494.72	25.5
2495.63	24.5
2496.54	24
2497.45	20.5
2498.36	25.5
2499.27	25
2500.18	23.5
2501.09	27
2502	22
2502.91	22
2503.82	23
2504.73	21.5
2505.63	24.5
2506.54	23.5
2507.45	29.5
2508.36	25
2509.27	26.5
2510.18	24
2511.09	26
2511.99	23
2512.9	25
2513.81	22.5
2514.72	26
2515.62	25.5
2516.53	22
2517.44	22.5
2518.34	27
2519.25	23.5
2520.16	26
2521.06	24
2521.97	21
2522.88	23
2523.78	23.5
2524.69	23
2525.6	25.5
2526.5	22.5
2527.41	22.5
2528.31	25.5
2529.22	27
2530.12	25
2531.03	23
2531.93	22.5
2532.84	22.5
2533.74	26.5
2534.65	22.5
2535.55	20
2536.46	24.5
2537.36	25.5
2538.27	19.5
2539.17	24
2540.07	28.5
2540.98	26
2541.88	20.5
2542.78	24.5
2543.69	24.5
2544.59	22
2545.49	25.5
2546.4	22
2547.3	25
2548.2	24.5
2549.1	26
2550.01	24
2550.91	23.5
2551.81	23
2552.71	22.5
2553.61	21
2554.52	25.5
2555.42	24
2556.32	22
2557.22	20
2558.12	20
2559.02	28
2559.92	24
2560.82	25
2561.72	25
2562.62	28.5
2563.53	21
2564.43	21
2565.33	21.5
2566.23	23.5
2567.13	24
2568.03	26
2568.92	24.5
2569.82	24
2570.72	24.5
2571.62	27
2572.52	26.5
2573.42	20.5
2574.32	21
2575.22	28.5
2576.12	22
2577.02	26.5
2577.91	26
2578.81	28.5
2579.71	19
2580.61	24.5
2581.5	22.5
2582.4	24
2583.3	22
2584.2	26.5
2585.09	20.5
2585.99	25
2586.89	23
2587.78	26.5
2588.68	23
2589.58	24.5
2590.47	29
2591.37	23.5
2592.27	24.5
2593.16	26
2594.06	26
2594.95	25
2595.85	24
2596.75	22
2597.64	26
2598.54	28
2599.43	31.5
2600.33	22.5
2601.22	26
2602.12	28.5
2603.01	26
2603.9	24.5
2604.8	23.5
2605.69	23.5
2606.59	20
2607.48	26
2608.37	27.5
2609.27	25.5
2610.16	25
2611.05	23
2611.95	23.5
2612.84	23.5
2613.73	20.5
2614.63	27
2615.52	23
2616.41	23
2617.3	26
2618.2	26
2619.09	22.5
2619.98	23
2620.87	26.5
2621.76	28
2622.66	22
2623.55	24.5
2624.44	25
2625.33	23.5
2626.22	23
2627.11	22.5
2628	19
2628.9	26
2629.79	23.5
2630.68	26
2631.57	26
2632.46	25
2633.35	24.5
2634.24	29.5
2635.13	23.5
2636.02	22.5
2636.91	24.5
2637.8	26.5
2638.68	22.5
2639.57	23
2640.46	24
2641.35	24
2642.24	22
2643.13	20.5
2644.02	30
2644.91	26.5
2645.79	18
2646.68	23
2647.57	20
2648.46	24
2649.35	21.5
2650.23	25.5
2651.12	22
2652.01	21
2652.9	24.5
2653.78	20
2654.67	25
2655.56	27
2656.44	21
2657.33	23
2658.22	24
2659.1	26.5
2659.99	25
2660.88	22.5
2661.76	24.5
2662.65	24.5
2663.53	25.5
2664.42	23.5
2665.3	23.5
2666.19	26.5
2667.07	22.5
2667.96	23.5
2668.84	25.5
2669.73	24.5
2670.61	26
2671.5	20.5
2672.38	25.5
2673.27	22
2674.15	23
2675.04	26
2675.92	27
2676.8	24
2677.69	18
2678.57	27
2679.45	24.5
2680.34	24
2681.22	25.5
2682.1	21.5
2682.99	29.5
2683.87	25
2684.75	23.5
2685.63	22
2686.52	22
2687.4	20.5
2688.28	24.5
2689.16	22.5
2690.04	24
2690.93	24
2691.81	24
2692.69	23.5
2693.57	25
2694.45	22
2695.33	23
2696.21	26.5
2697.09	23
2697.97	23
2698.85	19
2699.74	23
2700.62	26.5
2701.5	26.5
2702.38	26
2703.26	25.5
2704.14	24.5
2705.02	25
2705.89	23.5
2706.77	25
2707.65	22
2708.53	26.5
2709.41	24
2710.29	28.5
2711.17	23
2712.05	26
2712.93	22.5
2713.8	26
2714.68	23.5
2715.56	21
2716.44	24
2717.32	21.5
2718.19	20.5
2719.07	25
2719.95	25
2720.83	25.5
2721.7	22
2722.58	27.5
2723.46	23.5
2724.33	24
2725.21	24
2726.09	22.5
2726.97	24.5
2727.84	28.5
2728.72	25.5
2729.59	20.5
2730.47	23
2731.35	20
2732.22	22
2733.1	25.5
2733.97	25
2734.85	23
2735.72	26
2736.6	22.5
2737.47	25.5
2738.35	21
2739.22	24
2740.1	23
2740.97	25.5
2741.84	24
2742.72	21
2743.59	22.5
2744.47	20.5
2745.34	23.5
2746.21	24.5
2747.09	22.5
2747.96	22
2748.83	27
2749.71	25.5
2750.58	26
2751.45	23
2752.33	20
2753.2	24.5
2754.07	21.5
2754.94	25.5
2755.82	24
2756.69	21
2757.56	20.5
2758.43	23
2759.3	24.5
2760.18	20.5
2761.05	23
2761.92	23.5
2762.79	22
2763.66	26
2764.53	23.5
2765.4	24
2766.27	20.5
2767.14	23
2768.01	24
2768.88	23
2769.75	23.5
2770.62	24.5
2771.49	26.5
2772.36	22.5
2773.23	27
2774.1	22
2774.97	22
2775.84	24
2776.71	22.5
2777.58	22.5
2778.45	25.5
2779.32	21.5
2780.19	25.5
2781.06	25
2781.92	19
2782.79	24.5
2783.66	25
2784.53	29.5
2785.4	26.5
2786.26	25.5
2787.13	21.5
2788	23.5
2788.87	28.5
2789.73	24
2790.6	22.5
2791.47	27.5
2792.34	25
2793.2	25
2794.07	27.5
2794.94	23.5
2795.8	27
2796.67	25
2797.53	26.5
2798.4	23
2799.27	27.5
2800.13	24
2801	26.75
2801.86	28
2802.73	24
2803.59	24
2804.46	25.5
2805.32	26
2806.19	26
2807.05	20.5
2807.92	26
2808.78	28.5
2809.65	27
2810.51	23.5
2811.38	27
2812.24	22.5
2813.1	25.5
2813.97	29
2814.83	25
2815.7	31.5
2816.56	26
2817.42	22.5
2818.29	22.5
2819.15	26.5
2820.01	23
2820.87	24
2821.74	24.5
2822.6	21.5
2823.46	27.5
2824.32	23.5
2825.19	26.5
2826.05	25.5
2826.91	22
2827.77	27
2828.63	26.5
2829.5	29
2830.36	28.5
2831.22	23
2832.08	23.5
2832.94	21
2833.8	30.5
2834.66	23.5
2835.52	25.5
2836.38	22
2837.24	22
2838.1	24
2838.96	29.5
2839.82	28
2840.68	26
2841.54	27.5
2842.4	27.5
2843.26	24.5
2844.12	23.5
2844.98	29
2845.84	26.5
2846.7	28
2847.56	25
2848.42	25
2849.28	27.5
2850.14	27
2850.99	23
2851.85	21.5
2852.71	25
2853.57	26
2854.43	23.5
2855.28	26
2856.14	29
2857	22.5
2857.86	27
2858.71	22.5
2859.57	24.5
2860.43	26
2861.28	24.5
2862.14	25
2863	25.5
2863.86	29
2864.71	23.5
2865.57	28.5
2866.42	31
2867.28	26.5
2868.14	27.5
2868.99	31
2869.85	29.5
2870.7	26.5
2871.56	30
2872.41	28.5
2873.27	30.5
2874.13	28
2874.98	29.5
2875.83	28.5
2876.69	31.5
2877.54	35
2878.4	26
2879.25	33.5
2880.11	29.5
2880.96	31
2881.81	32
2882.67	28.5
2883.52	36
2884.38	32.5
2885.23	29.5
2886.08	36.5
2886.94	31
2887.79	38
2888.64	35.5
2889.5	37
2890.35	41
2891.2	35.5
2892.05	41
2892.91	42.5
2893.76	42
2894.61	44.5
2895.46	48.5
2896.31	47.5
2897.17	49
2898.02	52.5
2898.87	57.5
2899.72	59.5
2900.57	62.5
2901.42	63
2902.27	67
2903.12	69.5
2903.98	71.5
2904.83	68.5
2905.68	66
2906.53	75
2907.38	74
2908.23	71
2909.08	69.5
2909.93	60.5
2910.78	69.5
2911.63	61
2912.48	56.5
2913.33	55.5
2914.18	54.5
2915.02	51
2915.87	48
2916.72	46
2917.57	42.5
2918.42	43
2919.27	43.5
2920.12	38.5
2920.97	38.5
2921.81	32.5
2922.66	33
2923.51	33
2924.36	35
2925.21	34
2926.05	36
2926.9	33.5
2927.75	27.5
2928.59	28
2929.44	27.5
2930.29	28.5
2931.14	26
2931.98	27
2932.83	28.5
2933.68	28
2934.52	31
2935.37	29
2936.21	29
2937.06	33.5
2937.91	25.5
2938.75	31.5
2939.6	24
2940.44	25.5
2941.29	29
2942.14	27.5
2942.98	27.5
2943.82	26
2944.67	25.5
2945.51	31.5
2946.36	26
2947.2	28.5
2948.05	29
2948.89	26.5
2949.74	27.5
2950.58	31
2951.43	27
2952.27	31
2953.11	32
2953.96	33.5
2954.8	29.5
2955.64	34
2956.49	30.5
2957.33	32
2958.17	37.5
2959.02	36.5
2959.86	36.5
2960.7	41
2961.54	40
2962.39	39
2963.23	44.5
2964.07	43
2964.91	44.5
2965.75	41.5
2966.6	46
2967.44	39
2968.28	42.5
2969.12	43
2969.96	40.5
2970.8	42.5
2971.64	38
2972.48	35.9664
2973.33	36.0433
2974.17	31.7209
2975.01	35.5887
2975.85	32.5418
2976.69	33.9369
2977.53	30.7495
2978.37	36.2937
2979.21	32.0465
2980.05	31.3663
2980.89	28.4202
2981.73	29.5304
2982.57	29.613
2983.41	27.0004
2984.25	26.026
2985.08	27.75
2985.92	25.9803
2986.76	27.0036
2987.6	27.6739
2988.44	25.9171
2989.28	24.5979
2990.12	27.443
2990.96	26.4597
2991.79	25.7231
2992.63	23.9711
2993.47	28.2777
2994.31	23.0479
2995.14	25.8701
2995.98	25.3465
2996.82	22.8333
2997.66	25.2362
2998.49	24.1183
2999.33	23.2685
3000.17	23.2013
3001	21.3086
3001.84	23.4444
3002.68	25.0093
3003.51	23.1333
3004.35	25.2674
3005.19	24.1782
3006.02	24.0385
3006.86	21.5731
3007.7	22.7551
3008.53	22.5532
3009.37	24.5243
3010.2	21.3957
3011.04	22.3093
3011.87	23.2354
3012.71	22.8234
3013.54	22.9526
3014.38	22.885
3015.21	21.1691
3016.05	23.4092
3016.88	23.5661
3017.72	21.2677
3018.55	20.0898
3019.39	23.7288
3020.22	22.3151
3021.05	22.0256
3021.89	22.9634
3022.72	23.0577
3023.55	22.9426
3024.39	23.1085
3025.22	20.3377
3026.05	21.6478
3026.89	22.4799
3027.72	23.7092
3028.55	25.3998
3029.39	24.7466
3030.22	24.0267
3031.05	22.0132
3031.88	21.7224
3032.72	24.7687
3033.55	23.6106
3034.38	22.0609
3035.21	22.9933
3036.04	23.4957
3036.88	23.8095
3037.71	22.7159
3038.54	20.1256
3039.37	22.5614
3040.2	24.779
3041.03	24.1368
3041.86	22.8377
3042.69	23.2644
3043.52	23.8358
3044.36	23.7984
3045.19	24.0001
3046.02	22.8362
3046.85	21.7082
3047.68	22.9343
3048.51	21.4288
3049.34	18.1495
3050.17	19.7808
3051	21.3229
3051.83	22.1123
3052.66	25.1595
3053.48	25.2971
3054.31	24.0519
3055.14	22.004
3055.97	23.5561
3056.8	23.197
3057.29	23.5
3058.12	21.5
3058.95	21
3059.79	24
3060.62	18.5
3061.45	23
3062.29	21.5
3063.12	26
3063.95	22
3064.78	17.5
3065.62	23
3066.45	22
3067.28	19
3068.11	19.5
3068.94	22
3069.77	20.5
3070.61	23
3071.44	23.5
3072.27	25
3073.1	22
3073.93	23
3074.76	24.5
3075.59	23
3076.42	22
3077.25	20
3078.08	22.5
3078.92	22
3079.74	15
3080.57	20
3081.41	25
3082.24	23.5
3083.06	21.5
3083.89	21
3084.72	26
3085.55	24.5
3086.38	22.5
3087.21	24.5
3088.04	26
3088.87	23
3089.7	23
3090.53	24
3091.36	26
3092.18	26.5
3093.01	26
3093.84	22
3094.67	24
3095.5	20.5
3096.32	22
3097.15	22
3097.98	21.5
3098.81	26
3099.64	21
3100.46	21
3101.29	22
3102.12	21
3102.94	20
3103.77	21
3104.6	23.5
3105.42	25
3106.25	23
3107.08	20
3107.9	24.5
3108.73	24
3109.56	24
3110.38	26.5
3111.21	22.5
3112.03	22.5
3112.86	25
3113.68	24
3114.51	19
3115.33	21.5
3116.16	23
3116.98	24.5
3117.81	26.5
3118.63	25
3119.46	25.5
3120.28	22
3121.11	23
3121.93	23.5
3122.76	24
3123.58	22
3124.4	21.5
3125.23	21
3126.05	23
3126.87	25
3127.7	30
3128.52	23
3129.34	25
3130.17	25
3130.99	25.5
3131.81	25
3132.64	22
3133.46	21
3134.28	22
3135.1	24
3135.93	24
3136.75	23
3137.57	22
3138.39	22
3139.21	21.5
3140.04	23
3140.86	24
3141.68	22.5
3142.5	24
3143.32	22
3144.14	23
3144.96	26
3145.78	25
3146.61	23
3147.43	26
3148.25	19
3149.07	24
3149.89	24
3150.71	25.5
3151.53	22
3152.35	22.5
3153.17	26
3153.99	24
3154.81	22.5
3155.63	20.5
3156.45	26.5
3157.27	23.5
3158.08	25
3158.9	22.5
3159.72	25
3160.54	23
3161.36	28
3162.18	22.5
3163	24
3163.82	23.5
3164.63	24
3165.45	22
3166.27	23
3167.09	22
3167.91	24
3168.72	25
3169.54	24.5
3170.36	23
3171.18	22
3171.99	22.5
3172.81	26.5
3173.63	21
3174.44	23
3175.26	25
3176.08	23.5
3176.89	25
3177.71	20
3178.53	22.5
3179.34	23.5
3180.16	21
3180.97	21.5
3181.79	21
3182.61	22
3183.42	21.5
3184.24	24
3185.05	20.5
3185.87	24
3186.68	17
3187.5	22.5
3188.31	18.5
3189.13	25
3189.94	25.5
3190.76	21.5
3191.57	22
3192.39	24
3193.2	21
3194.02	25.5
3194.83	21.5
3195.64	20
3196.46	21
3197.27	26.5
3198.08	23
3198.9	19.5
3199.71	20
3200.52	22
3201.34	22.5
3202.15	24.5
3202.96	22.5
3203.78	23.5
3204.59	20.5
3205.4	25
3206.21	23
3207.03	27.5
3207.84	21
3208.65	25
3209.46	26
3210.27	20
3211.09	20
3211.9	16.5
3212.71	23.5
3213.52	21.5
3214.33	20.5
3215.14	23
3215.95	24
3216.77	18.5
3217.58	23
3218.39	24
3219.2	22
3220.01	22.5
3220.82	25.5
3221.63	20
3222.44	27
3223.25	25
3224.06	22.5
3224.87	25
3225.68	22.5
3226.49	23
3227.3	23.5
3228.11	23
3228.92	22.5
3229.73	24
3230.53	26
3231.34	27
3232.15	23
3232.96	20
3233.77	25
3234.58	19.5
3235.39	20
3236.19	29
3237	22
3237.81	22.5
3238.62	17.5
3239.43	22.5
3240.23	24
3241.04	26
3241.85	22
3242.66	24
3243.46	24
3244.27	22
3245.08	22.5
3245.89	23
3246.69	25
3247.5	25
3248.31	20.5
3249.11	21.5
3249.92	21
3250.72	24.5
3251.53	23.5
3252.34	24
3253.14	17
3253.95	22.5
3254.75	22.5
3255.56	23
3256.36	21
3257.17	23
3257.98	26.5
3258.78	24
3259.59	23
3260.39	28
3261.19	26
3262	23
3262.8	19
3263.61	24
3264.41	24
3265.22	24.5
3266.02	19
3266.83	21.5
3267.63	22
3268.43	26.5
3269.24	25
3270.04	24.5
3270.84	21
3271.65	15
3272.45	29
3273.25	22.5
3274.06	22
3274.86	22.5
3275.66	21
3276.46	29
3277.27	21
3278.07	21.5
3278.87	21
3279.67	22.5
3280.48	23.5
3281.28	27
3282.08	21.5
3282.88	24
3283.68	25
3284.48	25
3285.29	22
3286.09	24
3286.89	23.5
3287.69	23
3288.49	27
3289.29	23.5
3290.09	21
3290.89	21
3291.69	21
3292.49	28
3293.29	25.5
3294.09	26
3294.89	20
3295.69	23
3296.49	21.5
3297.29	25.5
3298.09	20.5
3298.89	21
3299.69	24
3300.49	23.5
3301.29	21.5
3302.09	26.5
3302.89	21
3303.69	25
3304.49	21.5
3305.28	22.5
3306.08	25
3306.88	23.5
3307.68	25
3308.48	25.5
3309.28	23
3310.07	24
3310.87	23.5
3311.67	25.5
3312.47	21.5
3313.26	24.5
3314.06	25
3314.86	23.5
3315.66	20
3316.45	24
3317.25	23
3318.05	22
3318.84	24.5
3319.64	22
3320.44	24.5
3321.23	22
3322.03	21
3322.83	24
3323.62	22.5
3324.42	24
3325.21	23.5
3326.01	22
3326.81	26
3327.6	23.5
3328.4	24.5
3329.19	20.5
3329.99	23.5
3330.78	24.5
3331.58	25.5
3332.37	18
3333.17	28.5
3333.96	25.5
3334.76	21
3335.55	24
3336.34	25
3337.14	24
3337.93	25
3338.73	22.5
3339.52	22
3340.31	24
3341.11	21
3341.9	26
3342.69	23
3343.49	21
3344.28	23.5
3345.07	25.5
3345.87	25.5
3346.66	23.5
3347.45	25.5
3348.25	24
3349.04	24.5
3349.83	24
3350.62	19.5
3351.42	24
3352.21	24.5
3353	25
3353.79	24
3354.58	25
3355.37	22
3356.17	23.5
3356.96	22.5
3357.75	23
3358.54	18
3359.33	22
3360.12	24
3360.91	23.5
3361.7	23
3362.49	22
3363.29	20
3364.08	17
3364.87	21
3365.66	22.5
3366.45	21
3367.24	25
3368.03	22
3368.82	21
3369.61	24
3370.4	21.5
3371.19	25
3371.97	26.5
3372.76	24
3373.55	23
3374.34	18
3375.13	23.5
3375.92	26.5
3376.71	23
3377.5	24
3378.29	23
3379.07	23.5
3379.86	24
3380.65	24
3381.44	24.5
3382.23	21
3383.01	25.5
3383.8	25
3384.59	24.5
3385.38	20.5
3386.16	23.5
3386.95	25
3387.74	22
3388.53	28
3389.31	22
3390.1	20.5
3390.89	20
3391.67	27
3392.46	19
3393.25	24
3394.03	21.5
3394.82	26
3395.6	21.5
3396.39	18
3397.18	21.5
3397.96	20
3398.75	23
3399.53	24
3400.32	23
3401.1	23.5
3401.89	26.5
3402.67	25.5
3403.46	22.5
3404.24	26
3405.03	23
3405.81	22
3406.6	26
3407.38	22.5
3408.17	22.5
3408.95	21
3409.74	21.5
3410.52	24
3411.3	23
3412.09	22
3412.87	25.5
3413.65	23
3414.44	19.5
3415.22	26
3416	25
3416.79	25
3417.57	22.5
3418.35	28.5
3419.14	22
3419.92	27.5
3420.7	22
3421.48	26.5
3422.27	25.5
3423.05	23.5
3423.83	23
3424.61	22
3425.4	26
3426.18	18.5
3426.96	23.5
3427.74	25
3428.52	21
3429.3	23
3430.08	28
3430.87	24
3431.65	27
3432.43	26
3433.21	18
3433.99	17.5
3434.77	24
3435.55	22
3436.33	25
3437.11	23.5
3437.89	21.5
3438.67	21.5
3439.45	23
3440.23	22
3441.01	25.5
3441.79	24.5
3442.57	22.5
3443.35	23
3444.13	23.5
3444.91	20.5
3445.69	23
3446.47	27.5
3447.25	25.5
3448.03	27.5
3448.8	22
3449.58	23
3450.36	23
3451.14	21
3451.92	24.5
3452.7	22
3453.47	24.5
3454.25	28
3455.03	20.5
3455.81	23.5
3456.59	21.5
3457.36	23
3458.14	21.5
3458.92	20
3459.69	25
3460.47	19.5
3461.25	25.5
3462.03	25.5
3462.8	23
3463.58	20
3464.36	22.5
3465.13	20.5
3465.91	23.5
3466.69	19.5
3467.46	24.5
3468.24	25
3469.01	23
3469.79	23
3470.57	23
3471.34	23
3472.12	19
3472.89	24
3473.67	18.5
3474.44	26.5
3475.22	22.5
3475.99	22.5
3476.77	23
3477.54	27
3478.32	21
3479.09	28.5
3479.87	22
3480.64	22
3481.41	19.5
3482.19	23
3482.96	23.5
3483.74	24.5
3484.51	24
3485.28	24
3486.06	20.5
3486.83	22
3487.6	27
3488.38	22.5
3489.15	21.5
3489.92	19
3490.7	21
3491.47	23
3492.24	24
3493.01	25.5
3493.79	27
3494.56	27
3495.33	26
3496.1	23
3496.88	25
3497.65	23
3498.42	25
3499.19	24.5
3499.96	24.5
