#Acq. time (s)=	5
#Accumulations=	5
#Range (cm-¹)=	100...3500
#Windows=	4
#Autofocus=	Off
#AutoExposure=	Off
#Spike filter=	Multiple accum.
#Delay time (s)=	0
#Binning=	1
#Readout mode=	Signal
#DeNoise=	Off
#ICS correction=	Off
#Dark correction=	Off
#Inst. Process=	Off
#Instrument=	LabRAM HR Evol
#Detector=	Syncerity OE
#Objective=	x100_VIS
#Grating=	600 (500nm)
#ND Filter=	25%
#Laser=	633nm_Edge
#Hole=	100.021
#Range=	Visible
#Project=	verificaciones
#Sample=	at3
#Site=	plain
#Title=	bolusat3plain
#Remark=	com
#Date=	16.01.2026 17:02
#Acquired=	16.01.2026 17:02:06
100.564	28
101.847	35
103.131	30.5
104.414	32
105.697	28
106.979	30
108.262	28.5
109.544	28
110.826	31
112.109	31
113.391	32.5
114.672	29
115.954	28
117.235	32
118.515	34
119.796	29
121.076	32
122.357	28.5
123.637	37
124.916	28
126.196	33
127.475	31
128.754	33.5
130.033	35
131.31	33
132.589	30.5
133.867	40.5
135.145	37
136.423	34
137.701	38
138.978	35
140.256	38
141.533	35.5
142.809	36
144.086	35
145.361	35
146.637	38.5
147.913	37.5
149.189	39.5
150.464	38
151.74	39
153.014	41.5
154.288	43
155.563	41
156.838	38.5
158.112	45
159.385	38
160.659	43
161.932	38
163.206	41.5
164.479	41
165.751	41.5
167.024	42
168.296	42.5
169.567	41
170.84	42.5
172.112	41.5
173.383	36.5
174.654	40
175.925	38
177.196	40
178.466	39.5
179.737	38.5
181.007	40.5
182.276	35.5
183.546	45.5
184.816	40.5
186.085	41
187.354	38
188.624	45
189.891	39.5
191.16	44
192.427	36
193.696	41.5
194.964	32
196.231	48.5
197.499	39.5
198.765	39
200.033	37
201.298	41
202.566	34.5
203.831	42
205.098	37
206.363	37.5
207.629	39
208.894	31
210.159	33
211.424	36
212.689	38
213.953	32
215.218	34
216.481	34
217.746	34
219.009	36
220.273	32.5
221.536	32.5
222.798	32
224.062	31.5
225.323	35.5
226.587	31
227.848	32
229.109	34
230.372	34
231.633	30.5
232.894	34
234.156	31.5
235.416	31.5
236.678	29
237.937	33
239.197	30.5
240.457	33
241.717	29
242.976	27
244.235	29.5
245.495	34.5
246.754	31
248.012	29.5
249.27	28
250.529	27
251.787	29.5
253.045	27
254.302	28
255.56	30
256.817	32
258.074	28.5
259.33	29
260.586	29
261.844	33.5
263.1	29.5
264.355	33
265.611	25.5
266.866	33.5
268.121	29.5
269.377	31.5
270.632	28
271.886	27.5
273.14	28
274.394	26
275.648	31
276.902	32.5
278.155	29.5
279.408	27.5
280.663	30.5
281.915	30.5
283.168	26.5
284.42	30.5
285.673	26
286.925	29.5
288.176	29
289.428	30
290.679	31
291.93	30
293.181	33.5
294.432	27
295.683	28.5
296.933	29
298.183	28.5
299.433	25
300.683	27
301.932	26.5
303.182	29
304.429	27
305.678	25.5
306.927	26.5
308.176	26.5
309.424	31
310.672	25.5
311.92	32
313.168	27
314.415	28
315.661	29
316.908	27.5
318.155	30.5
319.402	27
320.648	31
321.895	27
323.139	28
324.385	26.5
325.631	22.5
326.877	26
328.122	29
329.366	28
330.611	29
331.855	29
333.1	27
334.343	26.5
335.587	26.5
336.831	29
338.074	28.5
339.317	28.5
340.56	26
341.803	26.5
343.044	28.5
344.287	25.5
345.53	29
346.771	31
348.013	31.5
349.255	27
350.495	29
351.736	32.5
352.978	29
354.217	26.5
355.458	27
356.699	31
357.938	27
359.178	27
360.417	26.5
361.657	24.5
362.895	26.5
364.135	25.5
365.374	23
366.612	26
367.851	31.5
369.088	27
370.327	30.5
371.564	29.5
372.802	28
374.038	24.5
375.276	27.5
376.512	29.5
377.749	29.5
378.985	28.5
380.222	28
381.457	24.5
382.692	26.5
383.929	27.5
385.164	32
386.4	29.5
387.634	26
388.869	26
390.103	29
391.337	25.5
392.572	27
393.805	30
395.038	26.5
396.273	25
397.506	29
398.74	27
399.972	27.5
401.204	28.5
402.437	25.5
403.669	29.5
404.901	28
406.132	27
407.365	26
408.596	25.5
409.826	28
411.058	29
412.289	27.5
413.519	22.5
414.749	28.5
415.98	31
417.21	27.5
418.439	27.5
419.668	24
420.897	28
422.128	28.5
423.356	27
424.585	28
425.813	30.5
427.041	28.5
428.269	25
429.498	29
430.725	30
431.952	28.5
433.179	31
434.406	26
435.633	25
436.859	27.5
438.085	29
439.312	27.5
440.537	30
441.764	27.5
442.99	28.5
444.215	28
445.44	31
446.665	29.5
447.89	26.5
449.114	28.5
450.339	23
451.563	26
452.787	30
454.01	26.5
455.234	30
456.457	34
457.68	27
458.903	31
460.126	30
461.348	28
462.569	29.5
463.792	35
465.013	29
466.235	32
467.457	31.5
468.678	34
469.899	30
471.12	33.5
472.341	36.5
473.56	33
474.781	35
476.001	36.5
477.221	46.5
478.441	42.5
479.66	46
480.878	49
482.098	46.5
483.317	52
484.535	51.5
485.754	53
486.971	59
488.189	58.5
489.407	56.5
490.625	61
491.842	61
493.059	57.5
494.276	50
495.493	55
496.709	49.5
497.926	51
499.142	50.5
500.357	43.5
501.573	46
502.789	41
504.003	44
505.219	38
506.434	41.5
507.648	35.5
508.863	38
510.078	37.5
511.291	33.5
512.505	32
513.718	32
514.932	35
516.145	33
517.358	32.5
518.572	30
519.783	31
520.997	29
522.208	31
523.421	31
524.632	32
525.844	31.5
527.055	27
528.266	31.5
529.477	30.5
530.688	29.5
531.898	33
533.109	33
534.319	27.5
535.53	29
536.739	30.5
537.948	29
539.158	29.5
540.366	28
541.576	28
542.784	26
543.994	30
545.201	27
546.409	26.5
547.618	28.5
548.825	29
550.032	29
551.24	26
552.447	30
553.654	30
554.861	30
556.067	26.5
557.273	28
558.48	30.5
559.686	30.5
560.891	29.5
562.096	27
563.302	30
564.507	32
565.712	31
566.916	31
568.122	30
569.326	27.5
570.529	30.5
571.733	24.5
572.936	28.5
574.141	25.5
575.344	28
576.547	28
577.75	27
578.952	25.5
580.154	26.5
581.358	29
582.56	32
583.761	27
584.963	29.5
586.164	29
587.365	29
588.566	25
589.767	25.5
590.967	26
592.168	29.5
593.369	28
594.569	28
595.769	31.5
596.969	24
598.168	27
599.367	28.5
600.566	30.5
601.765	27
602.964	27
604.162	34
605.361	25.5
606.559	26.5
607.757	30
608.953	29
610.151	26
611.348	27.5
612.545	27
613.742	28.5
614.939	26
616.135	31.5
617.332	26.5
618.528	27
619.724	32
620.918	27.5
622.114	32
623.309	33
624.505	30
625.7	27
626.895	29
628.088	30.5
629.282	30
630.477	28
631.671	26
632.865	29
634.057	28
635.251	26.5
636.444	28.5
637.637	28.5
638.829	26
640.022	27
641.214	28
642.407	27
643.598	27.5
644.79	32
645.982	30
647.172	27
648.364	32
649.555	28.5
650.745	31.5
651.936	26.5
653.126	26.5
654.315	27.5
655.506	26.5
656.696	30.5
657.885	28
659.074	29.5
660.263	28.5
661.452	27
662.64	30
663.829	30
665.018	30.5
666.205	28.5
667.394	29
668.581	32
669.769	25.5
670.955	28
672.143	29
673.329	30.5
674.517	32
675.703	33.5
676.89	31.5
678.075	28.5
679.262	34
680.447	33
681.632	31
682.818	34.5
684.002	37
685.188	31.5
686.372	34
687.556	34
688.741	33.5
689.925	33
691.11	31.5
692.293	34
693.476	34
694.66	33.5
695.843	35
697.025	33
698.209	36
699.391	34
700.573	35.5
701.756	37.5
702.938	36.5
704.119	40.5
705.3	44.5
706.483	49.5
707.664	49
708.844	54
710.025	49
711.206	49
712.386	44
713.566	37.5
714.746	38
715.925	37
717.106	35.5
718.285	31.5
719.464	30
720.643	26.5
721.822	28.5
723	27
724.178	23
725.358	26.5
726.536	30.5
727.713	27.5
728.891	27.5
730.068	27.5
731.245	26
732.422	29
733.599	26.5
734.775	27.5
735.952	25
737.128	27
738.304	28
739.48	29.5
740.656	34
741.831	29
743.006	29
744.181	23
745.356	26
746.531	27.5
747.706	24
748.88	27
750.054	28.5
751.228	27
752.402	25
753.576	30.5
754.749	29
755.922	28.5
757.095	22.5
758.267	28.5
759.44	29
760.612	27
761.785	30
762.957	27.5
764.129	25.5
765.301	31.5
766.471	28
767.642	28
768.814	26.5
769.985	29
771.156	26.5
772.325	27
773.495	27
774.666	30.5
775.836	25
777.005	28.5
778.174	29
779.344	30.5
780.513	28
781.681	29.5
782.85	30
784.019	32
785.187	30.5
786.355	28
787.523	32.5
788.69	31.5
789.858	29
791.026	33
792.192	32
793.36	32.5
794.526	27.5
795.693	29.5
796.86	29
798.025	25.5
799.191	31
800.356	28.5
801.523	27.5
802.689	28.5
803.853	33.5
805.019	28
806.183	26.5
807.348	25
808.512	28
809.677	26.5
810.84	28
812.005	32
813.167	27.5
814.332	28
815.494	28.5
816.657	26.5
817.82	27
818.982	27
820.146	27.5
821.307	27.5
822.47	24
823.632	32.5
824.793	27
825.955	25.5
827.116	25.5
828.277	26.5
829.439	28.5
830.599	27
831.759	27
832.92	24
834.08	26.5
835.24	28.5
836.4	27
837.56	22
838.719	28.5
839.877	27.5
841.037	28
842.196	29
843.354	24
844.512	26
845.672	25
846.83	28.5
847.987	22
849.145	25.5
850.302	25.5
851.46	26
852.617	26.5
853.774	29
854.93	26.5
856.087	30
857.243	27.5
858.4	28.5
859.556	32
860.712	30.5
861.867	31.5
863.022	30
864.177	29
865.332	29
866.487	28.5
867.642	28
868.796	27.5
869.95	27.5
871.104	31.5
872.258	31
873.412	27.5
874.565	24
875.718	29
876.872	31
878.024	27.5
879.177	29
880.33	25
881.482	26.5
882.635	31
883.787	30
884.938	26
886.09	31
887.242	29
888.393	25
889.544	25
890.695	25.5
891.845	26
892.995	25
894.146	26.5
895.296	28.5
896.446	24.5
897.596	27
898.744	21
899.894	26.5
901.043	24
902.193	28.5
903.342	27.5
904.489	27.5
905.638	27
906.786	24
907.935	29
909.081	24
910.229	26.5
911.377	24.5
912.525	28.5
913.671	25.5
914.818	25.5
915.965	23.5
917.111	26
918.258	29
919.404	27.5
920.549	28
921.695	28.5
922.84	23.5
923.986	24
925.132	25.5
926.276	23
927.421	26.5
928.565	26
929.71	23.5
930.855	30
931.998	26
933.142	25
934.285	27
935.429	29
936.572	27.5
937.716	25.5
938.858	28
940.001	26
941.143	29.5
942.286	26.5
943.428	24.5
944.57	26.5
945.712	32
946.854	24
947.995	30.5
949.135	25
950.277	25
951.418	27
952.559	23
953.699	27.5
954.839	27
955.98	21.5
957.119	26
958.258	25.5
959.399	29.5
960.538	22.5
961.676	22.5
962.816	26
963.955	25.5
965.093	24.5
966.232	22.5
967.37	24.5
968.508	30.5
969.645	24.5
970.784	26.5
971.921	24
973.058	24
974.195	28.5
975.333	28
976.469	30
977.605	24
978.741	27.5
979.877	27
981.013	25.5
982.15	28
983.285	25
984.421	24
985.556	23.5
986.691	26.5
987.825	22
988.96	24.5
990.094	26.5
991.228	20.5
992.364	24.5
993.497	27
994.631	27.5
995.765	25
996.898	22.5
998.031	25
999.164	23.5
1000.3	28.5
1001.43	29.5
1002.56	22.5
1003.69	21.5
1004.83	26
1005.96	28
1007.09	23
1008.22	29.5
1009.35	27.5
1010.48	30.5
1011.61	23
1012.74	22.5
1013.88	29.5
1015.01	25
1016.14	25.5
1017.27	22.5
1018.4	25.5
1019.53	30.5
1020.65	27
1021.78	23
1022.91	24.5
1024.04	25
1025.17	18
1026.3	25
1027.43	23
1028.56	25.5
1029.68	25
1030.81	26
1031.94	24.5
1033.07	26.5
1034.19	25
1035.32	22.5
1036.45	25.5
1037.58	24.5
1038.7	23
1039.83	26
1040.95	25.5
1042.08	24.5
1043.21	23
1044.33	25.5
1045.46	23
1046.58	24.5
1047.71	24
1048.83	25
1049.96	27
1051.08	24.5
1052.21	23
1053.33	24.5
1054.45	23
1055.58	24
1056.7	25
1057.82	29
1058.95	27
1060.07	27.5
1061.19	26
1062.32	29
1063.44	26.5
1064.56	24
1065.68	26.5
1066.81	26.5
1067.93	23
1069.05	25.5
1070.17	27
1071.29	23
1072.41	26
1073.53	25.5
1074.65	26.5
1075.77	23.5
1076.89	24.5
1078.01	24
1079.13	21.5
1080.25	23
1081.37	22.5
1082.49	25.5
1083.61	27.5
1084.73	24.5
1085.85	21
1086.97	27
1088.09	23
1089.2	26
1090.32	29.5
1091.44	23.5
1092.56	23.5
1093.68	22.5
1094.79	23.5
1095.91	25
1097.03	27
1098.14	21
1099.26	28.5
1100.38	24.5
1101.49	22
1102.61	23
1103.73	23.5
1104.84	27
1105.96	24.5
1107.07	21.5
1108.19	29
1109.3	24
1110.42	27.5
1111.53	25
1112.65	23
1113.76	21.5
1114.88	26.5
1115.99	27
1117.1	22.5
1118.22	24
1119.33	21.5
1120.44	23.5
1121.56	24
1122.67	23
1123.78	24.5
1124.89	22.5
1126.01	23
1127.12	23
1128.23	25
1129.34	23.5
1130.45	24.5
1131.56	24.5
1132.67	24
1133.79	26
1134.9	24.5
1136.01	24
1137.12	26.5
1138.23	27.5
1139.34	25
1140.45	25.5
1141.56	26.5
1142.67	26
1143.78	22
1144.89	28
1145.99	22
1147.1	26
1148.21	25
1149.32	24
1150.43	24.5
1151.54	23.5
1152.65	26.5
1153.75	22
1154.86	22.5
1155.97	21
1157.08	22
1158.18	27.5
1159.29	28.5
1160.4	25
1161.5	24.5
1162.61	27.5
1163.72	25.5
1164.82	25
1165.93	26.5
1167.03	28
1168.14	25.5
1169.24	29
1170.35	26.5
1171.45	25
1172.56	26
1173.66	23
1174.77	19.5
1175.87	23
1176.98	26
1178.08	23.5
1179.18	22
1180.29	23.5
1181.39	22
1182.49	23.5
1183.6	26
1184.7	23
1185.8	28.5
1186.9	23
1188	23
1189.11	22
1190.21	27.5
1191.31	21.5
1192.41	23.5
1193.51	19
1194.61	24.992
1195.72	25.4208
1196.82	22.6083
1197.92	24.9517
1199.02	24.1506
1200.12	24.4397
1201.22	23.6574
1202.32	21.9812
1203.42	26.2975
1204.52	22.1989
1205.62	23.6894
1206.71	21.9894
1207.81	22.3034
1208.91	27.5633
1210.01	26.9419
1211.11	17.9558
1212.21	22.7136
1213.31	24.1576
1214.4	25.1368
1215.5	26.2354
1216.6	25.2073
1217.7	24.0672
1218.79	23.1397
1219.89	23.2582
1220.99	22.9431
1222.08	18.604
1223.18	21.8774
1224.28	24.0332
1225.37	23.7257
1226.47	25.1408
1227.56	22.0642
1228.66	26.6654
1229.76	26.1882
1230.85	24.7312
1231.95	25.6405
1233.04	23.009
1234.14	23.9534
1235.23	23
1236.32	21.6658
1237.42	24.4756
1238.51	24.947
1239.61	23.2043
1240.7	23.943
1241.79	24.0808
1242.89	22.6382
1243.98	22.6056
1245.07	24.2556
1246.17	23.7034
1247.26	26.5704
1248.35	21.5174
1249.44	21.4269
1250.53	23.6443
1251.63	27.3904
1252.72	25.2403
1253.81	24.7646
1254.9	24.7561
1255.99	26.6673
1257.08	25.1131
1258.17	25.8932
1259.27	22.2458
1260.36	24.7078
1261.45	22.9386
1262.54	26.1077
1263.63	25.1429
1264.72	25.4233
1265.81	26.7282
1266.89	26.4164
1267.98	25.3973
1269.07	25.8002
1270.16	25.2207
1271.25	22.9023
1272.34	23.691
1273.43	23.4859
1274.52	22.8321
1275.6	24.0561
1276.69	23.3185
1277.78	23.1124
1278.87	22.3891
1279.95	25.1476
1281.04	23.3654
1282.13	24.1069
1283.22	24.5209
1284.3	22.0457
1285.39	24.5975
1286.48	24.7498
1287.56	23.4355
1288.65	23.4599
1289.73	23.3495
1290.82	23.1481
1291.9	23.131
1292.99	22.1477
1294.07	23.0293
1295.16	24.1655
1296.24	23.8841
1297.33	22.4707
1298.41	22.3941
1299.5	27.6014
1300.58	26.7648
1301.66	27.1939
1302.75	26.6102
1303.83	23.1365
1304.91	23.431
1306	23.2373
1306.4	22.5
1307.48	22.5
1308.57	27
1309.66	25.5
1310.75	24.5
1311.84	26
1312.92	21.5
1314.01	24
1315.1	19.5
1316.18	23
1317.27	26
1318.36	25
1319.44	23.5
1320.53	25
1321.62	23
1322.7	20.5
1323.79	22.5
1324.87	23.5
1325.96	24
1327.04	24.5
1328.13	21
1329.21	26
1330.3	19.5
1331.38	23.5
1332.47	27
1333.55	25
1334.64	24
1335.72	20
1336.8	26
1337.89	21
1338.97	26
1340.05	27
1341.14	26.5
1342.22	25
1343.3	25.5
1344.38	23
1345.47	23.5
1346.55	23.5
1347.63	20.5
1348.71	25.5
1349.79	22
1350.87	21
1351.96	25
1353.04	24.5
1354.12	27.5
1355.2	26.5
1356.28	24
1357.36	24
1358.44	27.5
1359.52	25
1360.6	23.5
1361.68	22
1362.76	22.5
1363.84	23
1364.92	24.5
1366	22
1367.07	26.5
1368.15	24.5
1369.23	22.5
1370.31	26.5
1371.39	22.5
1372.47	25
1373.54	28.5
1374.62	21.5
1375.7	24.5
1376.78	25
1377.85	22.5
1378.93	24
1380.01	25
1381.08	25.5
1382.16	25.5
1383.24	27
1384.31	24
1385.39	24.5
1386.46	24
1387.54	28.5
1388.61	27
1389.69	25
1390.76	28.5
1391.84	25
1392.91	29
1393.99	24
1395.06	25.5
1396.14	26
1397.21	29
1398.29	26.5
1399.36	27
1400.43	29
1401.51	30.5
1402.58	31.5
1403.65	26.5
1404.72	29
1405.8	28
1406.87	31.5
1407.94	30.5
1409.02	32.5
1410.09	31
1411.16	30
1412.23	32
1413.3	32.5
1414.37	35.5
1415.44	28
1416.51	28
1417.59	27.5
1418.66	30
1419.73	25.5
1420.8	30
1421.87	30.5
1422.94	27
1424.01	27
1425.08	29.5
1426.15	29
1427.22	27
1428.28	28.5
1429.35	24.5
1430.42	22
1431.49	27
1432.56	22
1433.63	24
1434.7	27
1435.76	28
1436.83	27.5
1437.9	25
1438.97	28
1440.03	28.5
1441.1	24.5
1442.17	26
1443.23	25.5
1444.3	28.5
1445.37	23.5
1446.43	24
1447.5	25
1448.57	21
1449.63	28
1450.7	30
1451.76	24
1452.83	28
1453.89	24
1454.96	23.5
1456.02	24
1457.09	26
1458.15	21
1459.22	26
1460.28	26
1461.34	26.5
1462.41	22
1463.47	25
1464.53	28.5
1465.6	23.5
1466.66	26
1467.72	25
1468.78	26
1469.85	28
1470.91	25.5
1471.97	25.5
1473.03	25
1474.1	25
1475.16	26
1476.22	27.5
1477.28	27
1478.34	25
1479.4	24
1480.46	25
1481.52	29
1482.58	22
1483.65	23.5
1484.71	25
1485.77	25.5
1486.82	23.5
1487.89	26
1488.94	23
1490	23
1491.06	25
1492.12	24
1493.18	23
1494.24	23.5
1495.3	28
1496.36	28
1497.41	24.5
1498.47	25
1499.53	25
1500.59	24
1501.65	26
1502.7	24.5
1503.76	26
1504.82	23.5
1505.87	24.5
1506.93	29.5
1507.99	28
1509.04	25
1510.1	26.5
1511.16	27
1512.21	27
1513.27	25.5
1514.32	25
1515.38	26
1516.43	23
1517.49	27.5
1518.54	26
1519.6	27.5
1520.65	24
1521.71	23
1522.76	22
1523.81	25
1524.87	25.5
1525.92	24
1526.98	23
1528.03	27.5
1529.08	24
1530.14	26.5
1531.19	29
1532.24	32
1533.29	26.5
1534.35	26.5
1535.4	25.5
1536.45	25.5
1537.5	25.5
1538.55	24
1539.61	26
1540.66	24
1541.71	24
1542.76	25.5
1543.81	25
1544.86	26
1545.91	22.5
1546.96	28.5
1548.01	26
1549.06	18
1550.11	25.5
1551.16	25
1552.21	28
1553.26	22.5
1554.31	26.5
1555.36	25.5
1556.41	25
1557.46	29.5
1558.5	29
1559.55	25
1560.6	25
1561.65	29
1562.7	23.5
1563.74	28
1564.79	25.5
1565.84	25.5
1566.89	23
1567.93	26
1568.98	24
1570.03	23
1571.07	23.5
1572.12	29
1573.17	25.5
1574.21	24.5
1575.26	22
1576.3	26
1577.35	31.5
1578.4	30.5
1579.44	26
1580.49	28.5
1581.53	25.5
1582.58	28
1583.62	23.5
1584.66	24
1585.71	26.5
1586.75	22
1587.8	25
1588.84	21.5
1589.88	26
1590.93	22
1591.97	24.5
1593.01	28
1594.06	25
1595.1	27
1596.14	27
1597.18	24.5
1598.23	22
1599.27	22.5
1600.31	24.5
1601.35	23
1602.39	22
1603.44	25.5
1604.48	20.5
1605.52	24.5
1606.56	28
1607.6	24.5
1608.64	22
1609.68	26
1610.72	28
1611.76	18.5
1612.8	26
1613.84	22.5
1614.88	25.5
1615.92	24
1616.96	27
1618	23
1619.04	25
1620.08	22
1621.12	28
1622.16	26.5
1623.19	25
1624.23	20.5
1625.27	25
1626.31	24.5
1627.35	26
1628.38	27
1629.42	25.5
1630.46	24.5
1631.49	24.5
1632.53	24
1633.57	25.5
1634.6	24.5
1635.64	25
1636.68	26
1637.71	24.5
1638.75	27.5
1639.79	24
1640.82	26
1641.86	24.5
1642.89	26.5
1643.93	29
1644.96	25
1646	22.5
1647.03	26
1648.07	28
1649.1	26.5
1650.13	25
1651.17	27
1652.2	27
1653.24	23.5
1654.27	24.5
1655.3	23
1656.34	23
1657.37	21
1658.4	24.5
1659.43	26
1660.47	23
1661.5	24
1662.53	21
1663.56	25.5
1664.6	29
1665.63	19.5
1666.66	24
1667.69	25
1668.72	25.5
1669.75	26.5
1670.78	26
1671.81	23.5
1672.85	27
1673.88	22
1674.91	22
1675.94	21.5
1676.97	27
1678	26
1679.03	27
1680.06	25.5
1681.09	27
1682.11	22.5
1683.14	25
1684.17	25.5
1685.2	23.5
1686.23	26.5
1687.26	25
1688.29	25.5
1689.31	24
1690.34	29.5
1691.37	27.5
1692.4	24
1693.42	25
1694.45	22.5
1695.48	23.5
1696.51	25.5
1697.53	24
1698.56	25
1699.59	28
1700.61	24.5
1701.64	28.5
1702.66	24
1703.69	25.5
1704.72	25.5
1705.74	24.5
1706.77	21
1707.79	28.5
1708.82	24.5
1709.84	24.5
1710.87	26.5
1711.89	24.5
1712.91	23
1713.94	25.5
1714.96	23.5
1715.99	27.5
1717.01	23.5
1718.03	26
1719.06	27.5
1720.08	23
1721.1	26
1722.13	24.5
1723.15	24.5
1724.17	22
1725.19	25.5
1726.22	24.5
1727.24	24
1728.26	19.5
1729.28	26.5
1730.3	22
1731.33	25.5
1732.35	28.5
1733.37	21.5
1734.39	22.5
1735.41	26
1736.43	23.5
1737.45	25.5
1738.47	25.5
1739.49	30.5
1740.51	25
1741.53	26.5
1742.55	22
1743.57	21.5
1744.59	28
1745.61	24
1746.63	27
1747.65	17.5
1748.67	23.5
1749.69	25
1750.7	22.5
1751.72	21
1752.74	25
1753.76	25.5
1754.78	27
1755.79	26
1756.81	28.5
1757.83	27
1758.85	24
1759.86	27
1760.88	26.5
1761.9	21.5
1762.91	23.5
1763.93	24
1764.95	20.5
1765.96	26.5
1766.98	24
1767.99	22
1769.01	24
1770.02	26.5
1771.04	25.5
1772.06	22.5
1773.07	29
1774.09	26
1775.1	28
1776.11	26
1777.13	22
1778.14	28
1779.16	22
1780.17	27
1781.18	27
1782.2	25.5
1783.21	26
1784.22	24
1785.24	21
1786.25	24
1787.26	25.5
1788.28	28
1789.29	24.5
1790.3	22
1791.31	26.5
1792.33	23
1793.34	25
1794.35	24.5
1795.36	24.5
1796.37	25
1797.38	27
1798.39	25
1799.4	21.5
1800.42	22.5
1801.43	26.5
1802.44	23
1803.45	23.5
1804.46	28.5
1805.47	21.5
1806.48	28
1807.49	24.5
1808.5	21.5
1809.51	28.5
1810.51	27
1811.52	26.5
1812.53	21.5
1813.54	29.5
1814.55	25
1815.56	22.5
1816.57	24
1817.57	27
1818.58	23.5
1819.59	24
1820.6	22
1821.61	23.5
1822.61	22
1823.62	24.5
1824.63	22.5
1825.63	27.5
1826.64	27
1827.65	21.5
1828.65	25
1829.66	28
1830.67	26.5
1831.67	28
1832.68	27
1833.68	24.5
1834.69	24
1835.69	25
1836.7	24.5
1837.7	22
1838.71	26.5
1839.71	24
1840.72	23
1841.72	23.5
1842.73	26.5
1843.73	28
1844.73	27.5
1845.74	24.5
1846.74	23.5
1847.74	26
1848.75	28.5
1849.75	25
1850.75	26
1851.76	22.5
1852.76	25
1853.76	20
1854.76	28
1855.77	27
1856.77	23.5
1857.77	25
1858.77	29
1859.77	24.5
1860.77	25
1861.78	18
1862.78	23.5
1863.78	24.5
1864.78	26
1865.78	25
1866.78	26.5
1867.78	22
1868.78	26
1869.78	24
1870.78	26
1871.78	22.5
1872.78	26
1873.78	22
1874.78	25
1875.78	28.5
1876.78	26
1877.78	23.5
1878.77	26
1879.77	23.5
1880.77	22.5
1881.77	23
1882.77	27
1883.77	25
1884.76	25
1885.76	26.5
1886.76	25.5
1887.75	25
1888.75	24
1889.75	25
1890.75	25.5
1891.74	27
1892.74	20.5
1893.73	25
1894.73	23
1895.73	30
1896.72	24.5
1897.72	24.5
1898.71	20
1899.71	22
1900.7	25.5
1901.7	23.5
1902.69	23.5
1903.69	26
1904.68	23
1905.68	23
1906.67	23.5
1907.67	25.5
1908.66	25
1909.65	24.5
1910.65	28.5
1911.64	21
1912.63	25.5
1913.63	25
1914.62	25
1915.61	21
1916.61	25.5
1917.6	24.5
1918.59	21.5
1919.58	21
1920.58	17
1921.57	22.5
1922.56	27
1923.55	21
1924.54	21
1925.54	24
1926.53	27
1927.52	21.5
1928.51	23
1929.5	25
1930.49	23.5
1931.48	22
1932.47	22
1933.46	25.5
1934.45	23.5
1935.44	24
1936.43	21
1937.42	23
1938.41	21.5
1939.4	22.5
1940.39	26.5
1941.38	24.5
1942.37	26.5
1943.35	25
1944.34	22.5
1945.33	26
1946.32	25.5
1947.31	20
1948.3	23.5
1949.28	26
1950.27	25
1951.26	21
1952.25	23
1953.23	28.5
1954.22	24
1955.21	25
1956.19	23
1957.18	21.5
1958.17	31
1959.15	24
1960.14	21.5
1961.12	23.5
1962.11	23
1963.1	23
1964.08	25
1965.07	27.5
1966.05	24
1967.04	26
1968.02	26
1969.01	28
1969.99	22
1970.98	25.5
1971.96	24.5
1972.94	29.5
1973.93	22
1974.91	21.5
1975.9	18.5
1976.88	24
1977.86	21
1978.85	22.5
1979.83	27
1980.81	25.5
1981.79	24.5
1982.78	25
1983.76	22
1984.74	22.5
1985.72	24
1986.71	23
1987.69	26.5
1988.67	25
1989.65	25.5
1990.63	22
1991.61	26
1992.59	23
1993.57	27.5
1994.56	22.5
1995.54	21
1996.52	24
1997.5	26.5
1998.48	21.5
1999.46	24
2000.44	23.5
2001.42	20
2002.4	18.5
2003.38	23.5
2004.36	22.5
2005.33	23.5
2006.31	22
2007.29	26
2008.27	20.5
2009.25	26
2010.23	24.5
2011.21	25.5
2012.18	21
2013.16	19.5
2014.14	26
2015.12	22.5
2016.09	24
2017.07	24.5
2018.05	26.5
2019.03	24
2020	24.5
2020.98	21.5
2021.96	25
2022.93	24.5
2023.91	26.5
2024.89	21.5
2025.86	24
2026.84	20
2027.81	26
2028.79	21.5
2029.76	21.5
2030.74	19
2031.71	22.5
2032.69	20
2033.66	25.5
2034.64	25.5
2035.61	24
2036.59	23
2037.56	23
2038.54	21.5
2039.51	22.5
2040.48	24.5
2041.46	26
2042.43	23
2043.4	22
2044.38	26.5
2045.35	21
2046.32	27.5
2047.29	21
2048.27	21.5
2049.24	21.5
2050.21	26
2051.18	22.5
2052.16	27
2053.13	21.5
2054.1	24.5
2055.07	21.5
2056.04	21.5
2057.01	23.5
2057.98	24.5
2058.96	24
2059.93	22
2060.9	21.5
2061.87	26
2062.84	23
2063.81	22
2064.78	21
2065.75	23.5
2066.72	21.5
2067.69	22
2068.66	25
2069.63	20.5
2070.6	23.5
2071.56	21.5
2072.53	23
2073.5	24
2074.47	26.5
2075.44	24.5
2076.41	22
2077.38	22.5
2078.34	23
2079.31	23.5
2080.28	23.5
2081.25	19
2082.21	24
2083.18	25.5
2084.15	23
2085.11	26
2086.08	23.5
2087.05	24.5
2088.01	23
2088.98	20.5
2089.95	24.5
2090.91	22
2091.88	26
2092.84	18
2093.81	24
2094.78	24.5
2095.74	24.5
2096.71	22.5
2097.67	23
2098.64	25
2099.6	25.5
2100.57	23
2101.53	21.5
2102.49	23.5
2103.46	20
2104.42	21
2105.39	23
2106.35	23
2107.31	21.5
2108.28	24.5
2109.24	22
2110.2	22
2111.17	24
2112.13	26
2113.09	24.5
2114.05	24
2115.02	20.5
2115.98	23.5
2116.94	27
2117.9	26.5
2118.86	21.5
2119.83	24.5
2120.79	23
2121.75	21.5
2122.71	21
2123.67	25
2124.63	23.5
2125.59	24
2126.55	24.5
2127.51	22
2128.47	25
2129.43	24.5
2130.39	23.5
2131.35	20.5
2132.31	20.5
2133.27	23
2134.23	24
2135.19	25
2136.15	22
2137.11	20
2138.07	22
2139.03	24
2139.99	23
2140.94	22
2141.9	24
2142.86	26.4811
2143.82	19.9663
2144.78	21.0064
2145.73	23.0478
2146.69	22.5418
2147.65	22.462
2148.61	19.8246
2149.56	17.2971
2150.52	24.9241
2151.48	23.0448
2152.43	24.3094
2153.39	20.8731
2154.35	21.5863
2155.3	21.3366
2156.26	22.6558
2157.21	22.7557
2158.17	25.1824
2159.13	17.5589
2160.08	21.6697
2161.04	23.1861
2161.99	23.7539
2162.95	21.4175
2163.9	24.8949
2164.86	22.3641
2165.81	24.7768
2166.77	22.0369
2167.72	22.832
2168.67	22.466
2169.63	23.9432
2170.58	23.6042
2171.54	22.5926
2172.49	23.9862
2173.44	22.9873
2174.4	22
2175.35	22.665
2176.3	21.6895
2177.26	23.0422
2178.21	22.6203
2179.16	20.1178
2180.11	21.9284
2181.07	25.1229
2182.02	22.5958
2182.97	18.7775
2183.92	21.342
2184.87	24.8197
2185.82	23.2675
2186.78	23.2465
2187.73	23.3164
2188.68	18.5391
2189.63	21.292
2190.58	23.6012
2191.53	20.75
2192.48	20.7897
2193.43	24.8035
2194.38	24.4709
2195.33	21.3746
2196.28	22.4287
2197.23	22.5274
2198.18	22.5094
2199.13	24.4837
2200.08	23.5356
2201.03	22.219
2201.98	22.7621
2202.93	22.6556
2203.88	22.3892
2204.83	22.7954
2205.77	21.0709
2206.72	19.5217
2207.67	22.7246
2208.62	21.3544
2209.57	19.5779
2210.52	23.4733
2211.46	19.9371
2212.41	20.9312
2213.36	18.3026
2214.31	21.1048
2215.25	22.2713
2216.2	22.6188
2217.15	21.6364
2218.09	22.4248
2219.04	21.9427
2219.99	21.0615
2220.93	22.5104
2221.88	22.7576
2222.82	23.8646
2223.77	24.9674
2224.72	25.0994
2225.66	22.4263
2226.61	23.5828
2227.55	23.1109
2228.5	23.7959
2229.44	24.7153
2230.39	23.9864
2231.33	25.7474
2232.28	24.3556
2233.22	23.6456
2234.16	20.8849
2235.11	20.8279
2236.05	23.9661
2237	22.0387
2237.94	21.8707
2238.88	22.163
2239.83	22.6853
2240.13	23
2241.08	24
2242.03	23
2242.98	22.5
2243.92	20.5
2244.87	23
2245.82	23.5
2246.76	22
2247.71	27
2248.66	19
2249.61	25
2250.55	24.5
2251.5	21.5
2252.45	19
2253.39	28.5
2254.34	21
2255.28	22
2256.23	20
2257.18	19
2258.12	23
2259.07	22
2260.01	22
2260.96	27
2261.9	21.5
2262.85	22
2263.79	25
2264.74	22
2265.68	25.5
2266.63	23.5
2267.57	22
2268.51	27.5
2269.46	21.5
2270.4	19
2271.35	28
2272.29	17.5
2273.23	24
2274.18	18
2275.12	23
2276.06	22.5
2277	22.5
2277.95	22.5
2278.89	24
2279.83	23
2280.78	24
2281.72	21.5
2282.66	23.5
2283.6	22
2284.54	23.5
2285.48	23
2286.43	23.5
2287.37	21.5
2288.31	23.5
2289.25	21.5
2290.19	21
2291.13	21.5
2292.07	23
2293.01	27
2293.95	18.5
2294.89	24
2295.83	25
2296.77	24
2297.71	18
2298.65	23
2299.59	18
2300.53	21.5
2301.47	22.5
2302.41	24.5
2303.35	22.5
2304.29	21
2305.22	25
2306.16	26
2307.1	21
2308.04	25
2308.98	22.5
2309.91	23.5
2310.85	24
2311.79	25
2312.73	22
2313.66	25
2314.6	21.5
2315.54	27
2316.48	24.5
2317.41	23.5
2318.35	24.5
2319.29	23.5
2320.22	24
2321.16	20.5
2322.09	22
2323.03	23.5
2323.97	23
2324.9	23.5
2325.84	23
2326.77	23.5
2327.71	24
2328.64	22.5
2329.58	25
2330.51	24
2331.45	23.5
2332.38	23
2333.32	24
2334.25	21
2335.18	24
2336.12	24
2337.05	22.5
2337.99	22.5
2338.92	19.5
2339.85	24
2340.79	20.5
2341.72	25
2342.65	24
2343.59	24.5
2344.52	25
2345.45	20
2346.38	23
2347.32	23.5
2348.25	25
2349.18	22.5
2350.11	26
2351.04	22
2351.98	22.5
2352.91	23.5
2353.84	28.5
2354.77	27
2355.7	22.5
2356.63	21.5
2357.56	20
2358.49	26
2359.42	24
2360.35	22
2361.28	23.5
2362.21	24.5
2363.14	25
2364.07	26.5
2365	21.5
2365.93	23
2366.86	22
2367.79	20
2368.72	26.5
2369.65	24
2370.58	22.5
2371.51	23
2372.44	25
2373.36	25.5
2374.29	21
2375.22	20
2376.15	21.5
2377.08	23
2378	24
2378.93	23
2379.86	22
2380.79	26.5
2381.71	23
2382.64	18.5
2383.57	26.5
2384.49	24.5
2385.42	26.5
2386.35	25
2387.27	22
2388.2	25
2389.13	20
2390.05	24
2390.98	23.5
2391.9	26.5
2392.83	23.5
2393.76	23.5
2394.68	20.5
2395.61	22
2396.53	24.5
2397.46	21.5
2398.38	24.5
2399.3	26.5
2400.23	22.5
2401.15	17.5
2402.08	26.5
2403	25
2403.93	27
2404.85	21
2405.77	26
2406.7	24
2407.62	22
2408.54	23.5
2409.47	26.5
2410.39	23
2411.31	22
2412.24	26.5
2413.16	23.5
2414.08	22
2415	26
2415.92	23.5
2416.85	25
2417.77	23
2418.69	25
2419.61	22.5
2420.53	25.5
2421.45	26
2422.38	21.5
2423.3	24
2424.22	23.5
2425.14	21.5
2426.06	25.5
2426.98	26
2427.9	25.5
2428.82	23
2429.74	24
2430.66	21.5
2431.58	23
2432.5	23
2433.42	21
2434.34	24.5
2435.26	24
2436.18	23
2437.1	27.5
2438.01	25.5
2438.93	20
2439.85	24
2440.77	29
2441.69	23
2442.61	22.5
2443.52	26.5
2444.44	23.5
2445.36	23
2446.28	22
2447.2	24
2448.11	24.5
2449.03	22
2449.95	23.5
2450.86	21.5
2451.78	23.5
2452.7	24.5
2453.61	22.5
2454.53	22.5
2455.45	24
2456.36	26
2457.28	22
2458.2	22.5
2459.11	26.5
2460.03	28.5
2460.94	26
2461.86	24
2462.77	26.5
2463.69	26.5
2464.6	22.5
2465.52	25
2466.43	22
2467.35	23.5
2468.26	22.5
2469.18	24
2470.09	21.5
2471	23
2471.92	20.5
2472.83	24
2473.74	25.5
2474.66	24.5
2475.57	27
2476.48	23.5
2477.4	25
2478.31	25
2479.22	23.5
2480.14	19
2481.05	20.5
2481.96	27.5
2482.87	28
2483.79	27
2484.7	23.5
2485.61	20
2486.52	23.5
2487.43	23
2488.34	23
2489.25	21
2490.17	22.5
2491.08	25.5
2491.99	25.5
2492.9	26
2493.81	24.5
2494.72	27.5
2495.63	24.5
2496.54	25
2497.45	22.5
2498.36	27.5
2499.27	26
2500.18	23
2501.09	25.5
2502	21.5
2502.91	29
2503.82	21.5
2504.73	20
2505.63	20.5
2506.54	22
2507.45	24
2508.36	25.5
2509.27	23
2510.18	27
2511.09	23.5
2511.99	26.5
2512.9	22.5
2513.81	20.5
2514.72	22.5
2515.62	23
2516.53	23
2517.44	26
2518.34	20
2519.25	23.5
2520.16	25
2521.06	25.5
2521.97	21
2522.88	23.5
2523.78	21
2524.69	21
2525.6	20
2526.5	26
2527.41	26
2528.31	24.5
2529.22	24.5
2530.12	28
2531.03	21
2531.93	20
2532.84	24
2533.74	25
2534.65	21.5
2535.55	25
2536.46	28
2537.36	25
2538.27	30
2539.17	22.5
2540.07	25
2540.98	22.5
2541.88	23.5
2542.78	23
2543.69	20
2544.59	24.5
2545.49	20
2546.4	20
2547.3	26
2548.2	26.5
2549.1	26
2550.01	27
2550.91	21
2551.81	24
2552.71	24
2553.61	23
2554.52	21.5
2555.42	26
2556.32	23
2557.22	23.5
2558.12	22.5
2559.02	25
2559.92	23
2560.82	26
2561.72	25.5
2562.62	23
2563.53	23
2564.43	24
2565.33	21.5
2566.23	26
2567.13	25
2568.03	23
2568.92	22
2569.82	23.5
2570.72	26.5
2571.62	25
2572.52	21.5
2573.42	21.5
2574.32	24
2575.22	25
2576.12	27
2577.02	23.5
2577.91	25
2578.81	23.5
2579.71	23
2580.61	21.5
2581.5	23
2582.4	26
2583.3	25
2584.2	20
2585.09	25
2585.99	24.5
2586.89	19
2587.78	23
2588.68	25
2589.58	24
2590.47	29
2591.37	21.5
2592.27	26.5
2593.16	23.5
2594.06	27
2594.95	28
2595.85	24.5
2596.75	25
2597.64	23
2598.54	26.5
2599.43	22.5
2600.33	25
2601.22	22.5
2602.12	21
2603.01	22
2603.9	28
2604.8	24
2605.69	24.5
2606.59	24.5
2607.48	24
2608.37	23.5
2609.27	25
2610.16	25.5
2611.05	20
2611.95	31.5
2612.84	25
2613.73	24.5
2614.63	24
2615.52	23
2616.41	20.5
2617.3	22
2618.2	25
2619.09	21.5
2619.98	21.5
2620.87	24
2621.76	25.5
2622.66	23
2623.55	25
2624.44	22
2625.33	22.5
2626.22	24
2627.11	19.5
2628	21
2628.9	25.5
2629.79	26.5
2630.68	24
2631.57	28
2632.46	30
2633.35	23.5
2634.24	24
2635.13	23
2636.02	19
2636.91	24
2637.8	23.5
2638.68	24.5
2639.57	24
2640.46	24
2641.35	23
2642.24	24.5
2643.13	25.5
2644.02	24.5
2644.91	28
2645.79	24
2646.68	22
2647.57	23.5
2648.46	23.5
2649.35	25
2650.23	24.5
2651.12	27
2652.01	21
2652.9	24
2653.78	25.5
2654.67	23.5
2655.56	25
2656.44	22
2657.33	26
2658.22	22.5
2659.1	24
2659.99	21.5
2660.88	22.5
2661.76	21.5
2662.65	26
2663.53	22.5
2664.42	22
2665.3	26.5
2666.19	24
2667.07	23
2667.96	20
2668.84	27.5
2669.73	25
2670.61	20.5
2671.5	25.5
2672.38	20.5
2673.27	23.5
2674.15	23.5
2675.04	21
2675.92	22.5
2676.8	25.5
2677.69	22.5
2678.57	25
2679.45	22
2680.34	24
2681.22	27.5
2682.1	25.5
2682.99	24
2683.87	24.5
2684.75	26
2685.63	24
2686.52	25
2687.4	25
2688.28	26.5
2689.16	24.5
2690.04	22.5
2690.93	22.5
2691.81	24
2692.69	26.5
2693.57	23
2694.45	22
2695.33	21
2696.21	22
2697.09	22
2697.97	26
2698.85	23
2699.74	28.5
2700.62	23.5
2701.5	23
2702.38	22.5
2703.26	23.5
2704.14	26.5
2705.02	23
2705.89	18
2706.77	21
2707.65	22.5
2708.53	23.5
2709.41	27.5
2710.29	24
2711.17	21.5
2712.05	24.5
2712.93	24.5
2713.8	20
2714.68	24.5
2715.56	25.5
2716.44	26
2717.32	22.5
2718.19	24.5
2719.07	26
2719.95	21.5
2720.83	25
2721.7	25
2722.58	23
2723.46	24
2724.33	24.5
2725.21	23.5
2726.09	23
2726.97	25
2727.84	24.5
2728.72	25.5
2729.59	22.5
2730.47	26.5
2731.35	21.5
2732.22	19.5
2733.1	27.5
2733.97	22
2734.85	21
2735.72	25
2736.6	23.5
2737.47	26
2738.35	23.5
2739.22	24.5
2740.1	24.5
2740.97	22
2741.84	26
2742.72	21.5
2743.59	24
2744.47	23.5
2745.34	26
2746.21	21
2747.09	23.5
2747.96	21.5
2748.83	22
2749.71	24.5
2750.58	23.5
2751.45	23
2752.33	24
2753.2	22.5
2754.07	21.5
2754.94	22
2755.82	25
2756.69	23
2757.56	22.5
2758.43	22.5
2759.3	27.5
2760.18	23
2761.05	22.5
2761.92	22.5
2762.79	22.5
2763.66	24.5
2764.53	24
2765.4	25.5
2766.27	26
2767.14	22
2768.01	19
2768.88	26
2769.75	23
2770.62	20.5
2771.49	26
2772.36	23
2773.23	25
2774.1	23.5
2774.97	22
2775.84	25
2776.71	27
2777.58	28.5
2778.45	22.5
2779.32	26
2780.19	23.5
2781.06	23.5
2781.92	25
2782.79	26.5
2783.66	23.5
2784.53	25
2785.4	23
2786.26	24
2787.13	21.5
2788	21
2788.87	21.5
2789.73	25
2790.6	26
2791.47	25.5
2792.34	24
2793.2	24
2794.07	22.5
2794.94	29
2795.8	26
2796.67	21.5
2797.53	23.5
2798.4	24.5
2799.27	24
2800.13	24
2801	26
2801.86	27
2802.73	25
2803.59	21.5
2804.46	24
2805.32	24.5
2806.19	23.5
2807.05	24
2807.92	26
2808.78	27.5
2809.65	29
2810.51	22.5
2811.38	24
2812.24	24.5
2813.1	24.5
2813.97	25.5
2814.83	27
2815.7	25.5
2816.56	23
2817.42	26.5
2818.29	27.5
2819.15	28
2820.01	25.5
2820.87	24
2821.74	22
2822.6	20
2823.46	24.5
2824.32	22.5
2825.19	25
2826.05	27
2826.91	26
2827.77	26.5
2828.63	26.5
2829.5	28.5
2830.36	22.5
2831.22	23.5
2832.08	24
2832.94	25.5
2833.8	28
2834.66	23.5
2835.52	26
2836.38	25
2837.24	26.5
2838.1	23
2838.96	25
2839.82	26
2840.68	26.5
2841.54	29
2842.4	26.5
2843.26	27.5
2844.12	26.5
2844.98	27.5
2845.84	25.5
2846.7	23
2847.56	23.5
2848.42	21
2849.28	24
2850.14	23
2850.99	25
2851.85	25
2852.71	19.5
2853.57	25.5
2854.43	25
2855.28	25
2856.14	24
2857	22.5
2857.86	24
2858.71	29
2859.57	25
2860.43	26
2861.28	25.5
2862.14	31.5
2863	31
2863.86	27.5
2864.71	28
2865.57	30.5
2866.42	26
2867.28	28.5
2868.14	27.5
2868.99	23.5
2869.85	32.5
2870.7	24
2871.56	25
2872.41	26
2873.27	29.5
2874.13	29.5
2874.98	27
2875.83	31.5
2876.69	32
2877.54	30
2878.4	32
2879.25	31.5
2880.11	29
2880.96	33
2881.81	34
2882.67	31.5
2883.52	30
2884.38	33.5
2885.23	35
2886.08	29
2886.94	36
2887.79	35.5
2888.64	33
2889.5	37
2890.35	37
2891.2	37
2892.05	35.5
2892.91	40
2893.76	40.5
2894.61	43.5
2895.46	45
2896.31	47
2897.17	48.5
2898.02	51
2898.87	55
2899.72	53
2900.57	61
2901.42	61
2902.27	62
2903.12	67
2903.98	67
2904.83	63.5
2905.68	71
2906.53	72
2907.38	74.5
2908.23	64
2909.08	70
2909.93	64.5
2910.78	65.5
2911.63	64.5
2912.48	55
2913.33	45.5
2914.18	49
2915.02	48
2915.87	44.5
2916.72	42
2917.57	40
2918.42	42
2919.27	40
2920.12	37
2920.97	38
2921.81	39.5
2922.66	33.5
2923.51	32
2924.36	30
2925.21	30
2926.05	30.5
2926.9	33.5
2927.75	28.5
2928.59	30
2929.44	26
2930.29	26
2931.14	25
2931.98	32.5
2932.83	27
2933.68	30
2934.52	27.5
2935.37	29.5
2936.21	30
2937.06	24
2937.91	26
2938.75	25
2939.6	26.5
2940.44	27.5
2941.29	25.5
2942.14	27.5
2942.98	26.5
2943.82	28.5
2944.67	26.5
2945.51	29
2946.36	30
2947.2	25.5
2948.05	27
2948.89	28.5
2949.74	30
2950.58	31
2951.43	34.5
2952.27	28
2953.11	28.5
2953.96	30.5
2954.8	30
2955.64	32
2956.49	38.5
2957.33	37
2958.17	36.5
2959.02	33.5
2959.86	38
2960.7	37.5
2961.54	43
2962.39	40
2963.23	43.5
2964.07	40.5
2964.91	48.5
2965.75	44
2966.6	47
2967.44	43.5
2968.28	48
2969.12	41
2969.96	40
2970.8	39.5
2971.64	36.9757
2972.48	37.9266
2973.33	35.0902
2974.17	35.0716
2975.01	30.6605
2975.85	32.6051
2976.69	32.0107
2977.53	33.6857
2978.37	31.9078
2979.21	33.839
2980.05	28.4399
2980.89	25.8296
2981.73	31.4114
2982.57	29.1374
2983.41	28.0475
2984.25	29.1331
2985.08	25.801
2985.92	25.7887
2986.76	26.2645
2987.6	21.5963
2988.44	29.846
2989.28	24.7056
2990.12	26.5688
2990.96	25.9597
2991.79	22.6384
2992.63	26.3859
2993.47	26.9786
2994.31	22.6475
2995.14	24.0316
2995.98	23.9892
2996.82	24.1801
2997.66	27.2242
2998.49	26.0649
2999.33	22.7747
3000.17	25.0313
3001	25.5023
3001.84	26.6705
3002.68	21.3033
3003.51	23.6262
3004.35	22.4724
3005.19	22.2159
3006.02	25.5918
3006.86	20.9115
3007.7	22.1097
3008.53	24.2181
3009.37	22.5631
3010.2	22.8881
3011.04	22.2419
3011.87	22.7548
3012.71	22.9835
3013.54	24.1056
3014.38	21.5969
3015.21	22.6424
3016.05	23.1998
3016.88	22.7761
3017.72	20.5887
3018.55	22.2723
3019.39	22.1356
3020.22	22.9804
3021.05	24.2348
3021.89	23.1215
3022.72	22.1296
3023.55	21.7677
3024.39	21.6517
3025.22	22.6214
3026.05	20.169
3026.89	23.4421
3027.72	23.0252
3028.55	22.1979
3029.39	23.2797
3030.22	20.9827
3031.05	21.2709
3031.88	21.2963
3032.72	20.7539
3033.55	22.1623
3034.38	22.0231
3035.21	22.4907
3036.04	22.5932
3036.88	24.0652
3037.71	23.6575
3038.54	22.7907
3039.37	24.4916
3040.2	24.0238
3041.03	22.0792
3041.86	21.956
3042.69	23.5313
3043.52	22.4219
3044.36	24.2667
3045.19	23.0431
3046.02	22.9886
3046.85	21.9476
3047.68	20.9802
3048.51	22.3023
3049.34	23.6982
3050.17	25.895
3051	25.1475
3051.83	23.26
3052.66	23.1917
3053.48	22.2753
3054.31	23.2386
3055.14	22.7201
3055.97	22.1922
3056.8	22.2404
3057.29	24
3058.12	26
3058.95	23.5
3059.79	22.5
3060.62	23
3061.45	24.5
3062.29	21
3063.12	24
3063.95	21.5
3064.78	21
3065.62	24
3066.45	21
3067.28	21.5
3068.11	22.5
3068.94	22
3069.77	25.5
3070.61	24
3071.44	21.5
3072.27	24.5
3073.1	25.5
3073.93	19
3074.76	16.5
3075.59	23
3076.42	25
3077.25	22.5
3078.08	24.5
3078.92	23.5
3079.74	22
3080.57	22
3081.41	23.5
3082.24	24.5
3083.06	21.5
3083.89	21
3084.72	24.5
3085.55	21
3086.38	22.5
3087.21	21
3088.04	21
3088.87	26.5
3089.7	23
3090.53	24
3091.36	19.5
3092.18	22.5
3093.01	24
3093.84	22.5
3094.67	21
3095.5	24
3096.32	23
3097.15	21.5
3097.98	22.5
3098.81	20.5
3099.64	22.5
3100.46	23
3101.29	25
3102.12	22.5
3102.94	22
3103.77	23
3104.6	20.5
3105.42	25.5
3106.25	23
3107.08	23.5
3107.9	21.5
3108.73	24.5
3109.56	21
3110.38	19.5
3111.21	19.5
3112.03	24
3112.86	23
3113.68	23.5
3114.51	19.5
3115.33	24.5
3116.16	26
3116.98	25.5
3117.81	18
3118.63	23.5
3119.46	24.5
3120.28	23
3121.11	22
3121.93	26
3122.76	28
3123.58	23
3124.4	21.5
3125.23	23.5
3126.05	25.5
3126.87	22.5
3127.7	23.5
3128.52	25
3129.34	22.5
3130.17	20.5
3130.99	26
3131.81	27.5
3132.64	25
3133.46	23.5
3134.28	24.5
3135.1	23.5
3135.93	21
3136.75	22
3137.57	24
3138.39	22.5
3139.21	27.5
3140.04	28.5
3140.86	26
3141.68	20.5
3142.5	25.5
3143.32	21.5
3144.14	25
3144.96	23
3145.78	24.5
3146.61	25
3147.43	22.5
3148.25	21
3149.07	25
3149.89	24
3150.71	22.5
3151.53	24
3152.35	22
3153.17	19
3153.99	22
3154.81	22
3155.63	24.5
3156.45	21
3157.27	25
3158.08	28
3158.9	23.5
3159.72	24.5
3160.54	18.5
3161.36	27.5
3162.18	23
3163	21
3163.82	21
3164.63	18.5
3165.45	22.5
3166.27	23.5
3167.09	23.5
3167.91	24
3168.72	23
3169.54	24.5
3170.36	22.5
3171.18	22
3171.99	24.5
3172.81	23
3173.63	23
3174.44	23
3175.26	22.5
3176.08	25
3176.89	21.5
3177.71	25
3178.53	23
3179.34	22
3180.16	23.5
3180.97	20.5
3181.79	22.5
3182.61	23
3183.42	21.5
3184.24	25
3185.05	26
3185.87	20
3186.68	21.5
3187.5	23
3188.31	25
3189.13	23.5
3189.94	21
3190.76	23.5
3191.57	22.5
3192.39	22.5
3193.2	20.5
3194.02	24
3194.83	22.5
3195.64	22
3196.46	23.5
3197.27	18
3198.08	26
3198.9	22
3199.71	22.5
3200.52	19.5
3201.34	20
3202.15	21.5
3202.96	25.5
3203.78	23.5
3204.59	21
3205.4	24
3206.21	19
3207.03	22.5
3207.84	25
3208.65	25
3209.46	22.5
3210.27	23
3211.09	21.5
3211.9	19
3212.71	23
3213.52	22
3214.33	25
3215.14	25.5
3215.95	18
3216.77	25
3217.58	23.5
3218.39	22
3219.2	23
3220.01	21.5
3220.82	23
3221.63	24
3222.44	22.5
3223.25	27.5
3224.06	19
3224.87	21.5
3225.68	21
3226.49	22
3227.3	25
3228.11	18.5
3228.92	25.5
3229.73	28
3230.53	29
3231.34	19
3232.15	23
3232.96	20
3233.77	20
3234.58	22.5
3235.39	27
3236.19	22.5
3237	23.5
3237.81	21.5
3238.62	22.5
3239.43	22
3240.23	27
3241.04	25.5
3241.85	23.5
3242.66	26.5
3243.46	26
3244.27	24.5
3245.08	24
3245.89	19.5
3246.69	24
3247.5	24
3248.31	21.5
3249.11	22.5
3249.92	25.5
3250.72	25
3251.53	24
3252.34	23.5
3253.14	24
3253.95	22
3254.75	21
3255.56	24.5
3256.36	23
3257.17	18
3257.98	24
3258.78	21.5
3259.59	22.5
3260.39	22
3261.19	25
3262	28
3262.8	24
3263.61	20.5
3264.41	26.5
3265.22	25.5
3266.02	19
3266.83	21
3267.63	24.5
3268.43	24.5
3269.24	25.5
3270.04	23
3270.84	24.5
3271.65	21.5
3272.45	29
3273.25	22
3274.06	19
3274.86	25
3275.66	20
3276.46	22.5
3277.27	22.5
3278.07	21.5
3278.87	21
3279.67	24.5
3280.48	24.5
3281.28	18
3282.08	22
3282.88	18.5
3283.68	20
3284.48	24.5
3285.29	24.5
3286.09	24
3286.89	25.5
3287.69	21
3288.49	24
3289.29	24
3290.09	23.5
3290.89	19
3291.69	22.5
3292.49	28
3293.29	21.5
3294.09	23
3294.89	25.5
3295.69	21
3296.49	24
3297.29	23
3298.09	25.5
3298.89	24
3299.69	22.5
3300.49	26.5
3301.29	25
3302.09	22.5
3302.89	23.5
3303.69	21
3304.49	24
3305.28	22.5
3306.08	23.5
3306.88	21
3307.68	24
3308.48	26
3309.28	21.5
3310.07	25
3310.87	22.5
3311.67	23
3312.47	28
3313.26	24
3314.06	23.5
3314.86	24.5
3315.66	23
3316.45	21
3317.25	24
3318.05	26
3318.84	25.5
3319.64	27
3320.44	22
3321.23	19
3322.03	24
3322.83	22
3323.62	24
3324.42	22.5
3325.21	24
3326.01	26
3326.81	24.5
3327.6	26
3328.4	23
3329.19	20
3329.99	22
3330.78	25.5
3331.58	24
3332.37	22
3333.17	27.5
3333.96	20.5
3334.76	22.5
3335.55	25
3336.34	20
3337.14	25.5
3337.93	26
3338.73	24
3339.52	23
3340.31	28
3341.11	25
3341.9	18
3342.69	24
3343.49	27
3344.28	25
3345.07	23.5
3345.87	24
3346.66	27
3347.45	24
3348.25	23
3349.04	26
3349.83	28
3350.62	22
3351.42	23
3352.21	21
3353	20
3353.79	26.5
3354.58	22.5
3355.37	20
3356.17	24.5
3356.96	22
3357.75	23
3358.54	23
3359.33	24
3360.12	24.5
3360.91	23
3361.7	23
3362.49	22.5
3363.29	20
3364.08	25
3364.87	21
3365.66	25
3366.45	18.5
3367.24	26.5
3368.03	27.5
3368.82	24
3369.61	21.5
3370.4	22.5
3371.19	26
3371.97	24.5
3372.76	22.5
3373.55	26
3374.34	26
3375.13	18.5
3375.92	25
3376.71	22.5
3377.5	26
3378.29	24.5
3379.07	27
3379.86	24.5
3380.65	22
3381.44	25
3382.23	20.5
3383.01	25.5
3383.8	24.5
3384.59	20
3385.38	22
3386.16	27
3386.95	23.5
3387.74	21
3388.53	25
3389.31	26.5
3390.1	24
3390.89	23
3391.67	21
3392.46	22
3393.25	25
3394.03	25.5
3394.82	24.5
3395.6	24
3396.39	22
3397.18	25
3397.96	22
3398.75	23
3399.53	26
3400.32	27
3401.1	25
3401.89	21.5
3402.67	27
3403.46	26.5
3404.24	24
3405.03	23
3405.81	22
3406.6	26.5
3407.38	24.5
3408.17	21
3408.95	26
3409.74	24.5
3410.52	20
3411.3	23.5
3412.09	22
3412.87	22
3413.65	22
3414.44	21.5
3415.22	27.5
3416	22
3416.79	24
3417.57	21
3418.35	23
3419.14	17
3419.92	19.5
3420.7	18
3421.48	23.5
3422.27	25.5
3423.05	28
3423.83	23.5
3424.61	23
3425.4	21
3426.18	23
3426.96	22
3427.74	23
3428.52	22
3429.3	22
3430.08	19
3430.87	23
3431.65	24.5
3432.43	23
3433.21	23
3433.99	27
3434.77	29
3435.55	24
3436.33	22.5
3437.11	26
3437.89	23.5
3438.67	23.5
3439.45	25.5
3440.23	23
3441.01	25.5
3441.79	20.5
3442.57	22.5
3443.35	18
3444.13	23
3444.91	23
3445.69	24
3446.47	24.5
3447.25	28
3448.03	25
3448.8	24
3449.58	22.5
3450.36	26.5
3451.14	24
3451.92	26.5
3452.7	29
3453.47	26
3454.25	24
3455.03	23
3455.81	25
3456.59	23.5
3457.36	27.5
3458.14	26.5
3458.92	27
3459.69	20.5
3460.47	25
3461.25	24
3462.03	25
3462.8	24
3463.58	25
3464.36	23.5
3465.13	28.5
3465.91	24.5
3466.69	24.5
3467.46	24
3468.24	23
3469.01	24
3469.79	20.5
3470.57	19
3471.34	22.5
3472.12	20
3472.89	23.5
3473.67	23.5
3474.44	20
3475.22	24.5
3475.99	26
3476.77	23
3477.54	22
3478.32	26.5
3479.09	23
3479.87	23.5
3480.64	23.5
3481.41	24.5
3482.19	17.5
3482.96	23
3483.74	25.5
3484.51	27
3485.28	25
3486.06	26.5
3486.83	21
3487.6	24
3488.38	22
3489.15	25
3489.92	26.5
3490.7	24
3491.47	25.5
3492.24	24.5
3493.01	23.5
3493.79	22.5
3494.56	25
3495.33	23.5
3496.1	23
3496.88	27
3497.65	22.5
3498.42	20
3499.19	19
3499.96	20
