#Acq. time (s)=	5
#Accumulations=	5
#Range (cm-¹)=	100...3500
#Windows=	4
#Autofocus=	Off
#AutoExposure=	Off
#Spike filter=	Multiple accum.
#Delay time (s)=	0
#Binning=	1
#Readout mode=	Signal
#DeNoise=	Off
#ICS correction=	Off
#Dark correction=	Off
#Inst. Process=	Off
#Instrument=	LabRAM HR Evol
#Detector=	Syncerity OE
#Objective=	x100_VIS
#Grating=	600 (500nm)
#ND Filter=	25%
#Laser=	633nm_Edge
#Hole=	100.021
#Range=	Visible
#Project=	verificaciones
#Sample=	at3
#Site=	lined
#Title=	bolusat3lined
#Remark=	
#Date=	14.01.2026 13:22
#Acquired=	14.01.2026 13:22:45
100.618	28
101.901	34.5
103.185	32.5
104.468	29.5
105.751	26.5
107.033	26
108.316	31.5
109.598	31.5
110.88	28.5
112.162	26.5
113.445	29.5
114.727	32
116.008	28.5
117.289	32.5
118.57	30.5
119.85	34.5
121.13	29
122.411	27
123.691	31
124.97	27
126.25	30
127.529	31
128.808	32.5
130.086	36.5
131.364	31.5
132.643	29
133.921	34.5
135.199	34.5
136.477	31
137.755	30
139.032	36
140.309	36
141.586	35
142.863	34
144.14	34.5
145.415	37
146.691	36.5
147.967	41.5
149.243	39
150.518	33
151.794	37
153.067	35.5
154.342	36
155.617	41
156.892	34
158.166	38
159.439	43.5
160.712	40
161.986	41.5
163.26	41
164.531	37
165.805	41
167.077	39
168.35	41.5
169.621	37
170.893	35.5
172.165	35.5
173.437	40
174.707	37
175.979	39
177.25	37.5
178.519	39
179.79	39
181.061	39
182.33	36
183.6	37.5
184.87	44
186.138	39
187.408	41
188.676	35
189.945	38
191.214	40.5
192.481	42
193.75	41
195.016	39.5
196.285	38
197.552	38.5
198.819	37
200.086	40.5
201.352	33
202.619	35.5
203.884	36
205.151	35
206.416	36.5
207.682	39.5
208.947	29.5
210.213	35.5
211.477	34
212.742	35.5
214.006	33
215.271	30
216.535	34.5
217.799	31
219.062	33.5
220.326	34.5
221.589	32
222.851	34
224.115	27
225.377	34
226.64	32.5
227.901	30.5
229.163	33
230.425	31.5
231.686	28.5
232.947	29.5
234.209	31.5
235.469	31.5
236.729	30.5
237.991	30.5
239.25	31.5
240.51	30
241.771	27
243.03	28
244.288	30.5
245.549	30
246.807	32
248.065	34
249.323	32
250.583	30
251.84	30
253.098	29.5
254.355	29
255.613	26.5
256.87	26
258.127	27.5
259.383	30.5
260.639	28
261.897	28
263.153	29
264.408	29.5
265.664	28.5
266.919	32
268.174	28
269.43	28.5
270.685	28.5
271.939	28
273.193	29.5
274.447	30.5
275.701	27.5
276.955	28.5
278.208	27.5
279.461	30
280.714	30.5
281.968	30
283.221	26.5
284.473	28.5
285.726	28
286.977	29.5
288.229	29.5
289.481	30
290.732	26
291.983	30
293.234	29.5
294.485	30.5
295.736	27.5
296.986	32
298.236	30
299.486	26
300.736	29
301.985	28.5
303.233	29
304.482	28.5
305.731	23.5
306.98	24
308.228	31.5
309.477	34.5
310.725	29
311.973	30.5
313.22	25
314.468	29
315.714	28.5
316.961	30
318.208	29.5
319.455	27.5
320.701	29.5
321.947	28
323.192	28
324.438	27.5
325.684	33
326.929	23
328.175	28.5
329.418	30
330.663	29.5
331.908	28
333.152	30
334.395	25.5
335.639	24
336.883	30
338.127	28
339.369	30
340.612	29.5
341.855	25
343.097	28
344.34	30.5
345.582	32
346.823	28
348.065	29.5
349.307	22
350.547	31
351.789	27
353.03	32.5
354.27	29
355.511	33.5
356.75	28.5
357.991	26
359.231	31.5
360.47	29
361.709	28.5
362.948	27
364.187	29
365.427	28.5
366.664	26.5
367.903	29.5
369.14	26
370.379	30
371.616	31
372.854	27
374.091	32.5
375.328	30
376.564	30
377.802	29
379.037	26.5
380.274	29
381.51	28
382.745	31
383.981	27.5
385.216	26.5
386.452	26
387.686	28
388.922	27.5
390.155	29.5
391.389	31
392.624	25
393.857	29
395.091	29
396.325	24.5
397.558	28
398.79	27
400.024	28
401.256	26
402.488	27.5
403.721	31.5
404.953	26.5
406.184	29
407.417	30
408.648	31
409.878	29
411.109	29.5
412.341	28
413.571	29
414.801	22.5
416.031	26.5
417.262	27.5
418.491	31
419.72	30
420.949	27.5
422.178	28
423.408	29
424.637	30.5
425.865	28
427.093	31
428.32	29
429.548	31
430.777	25.5
432.004	26.5
433.231	29
434.458	29.5
435.685	26
436.911	28
438.137	31
439.363	25.5
440.589	28
441.815	32.5
443.042	24
444.267	29.5
445.492	26
446.717	27.5
447.942	27.5
449.166	32
450.39	31
451.615	28.5
452.838	27
454.062	26
455.286	27
456.509	30.5
457.732	29
458.955	29
460.178	28
461.399	30
462.621	29.5
463.843	26.5
465.065	28.5
466.287	31
467.508	34
468.73	32
469.951	32.5
471.172	38
472.393	35.5
473.612	37.5
474.832	38.5
476.052	37
477.272	41.5
478.492	45
479.712	47
480.93	46.5
482.149	47
483.368	50.5
484.587	57
485.806	50
487.023	53
488.241	52
489.459	54
490.677	53
491.893	53
493.111	54
494.328	48
495.543	47.5
496.76	51.5
497.977	47.5
499.194	41
500.409	49
501.625	41.5
502.841	37
504.055	40
505.27	32.5
506.486	36
507.699	35
508.914	36.5
510.128	34
511.342	38.5
512.557	31
513.77	35
514.984	28.5
516.196	35
517.41	34
518.623	30.5
519.835	31
521.048	32.5
522.259	28.5
523.472	31
524.683	33.5
525.895	32.5
527.106	31.5
528.318	29
529.528	32
530.74	31.5
531.949	29
533.161	29.5
534.37	32
535.581	30.5
536.79	28
537.999	30.5
539.209	28.5
540.418	28
541.627	31
542.835	21
544.043	27
545.253	27
546.46	30.5
547.669	28
548.876	24.5
550.083	29
551.292	27
552.498	28.5
553.705	25.5
554.912	29
556.118	28
557.324	29.5
558.53	28.5
559.737	31
560.942	28.5
562.147	27
563.353	28.5
564.558	28
565.763	24
566.967	27.5
568.173	27
569.377	24.5
570.58	30.5
571.784	27.5
572.987	27
574.192	29
575.395	31.5
576.598	27
577.8	30
579.003	30.5
580.205	29
581.407	26.5
582.61	27.5
583.812	29
585.014	29
586.215	26.5
587.416	27
588.617	29.5
589.818	30.5
591.018	27.5
592.219	24.5
593.419	31
594.619	26
595.819	24
597.02	32.5
598.219	30
599.418	23.5
600.617	27.5
601.816	28.5
603.015	30.5
604.213	27.5
605.41	26.5
606.608	25.5
607.806	28
609.004	28
610.201	26
611.399	27.5
612.596	30
613.793	31
614.989	27
616.186	27
617.382	30.5
618.579	26.5
619.775	27.5
620.969	25
622.165	26.5
623.36	29
624.555	31.5
625.75	26
626.945	26.5
628.139	28
629.333	31
630.527	29
631.721	28.5
632.915	24.5
634.108	28.5
635.301	30.5
636.495	30.5
637.688	28
638.88	31
640.072	25.5
641.265	25
642.456	28.5
643.648	28.5
644.84	26.5
646.032	27
647.222	28
648.414	30.5
649.605	32.5
650.795	25.5
651.986	30.5
653.177	26
654.366	31
655.556	30
656.745	25
657.935	27
659.125	30
660.313	26
661.503	31.5
662.69	30
663.879	32.5
665.067	30
666.256	30.5
667.444	27.5
668.631	34
669.819	30
671.006	30.5
672.194	29
673.38	29
674.567	27.5
675.753	32
676.94	30
678.125	33.5
679.311	33.5
680.497	33
681.682	35
682.868	36
684.053	34.5
685.238	31
686.422	33.5
687.606	35.5
688.792	31.5
689.975	36
691.159	30.5
692.343	30
693.526	34
694.71	35
695.893	35.5
697.076	36.5
698.259	31.5
699.441	38.5
700.623	33
701.805	38.5
702.988	37.5
704.169	39
705.35	43
706.533	39.5
707.714	47
708.894	53.5
710.075	49.5
711.255	44
712.436	43.5
713.616	36
714.796	35
715.975	32.5
717.155	35.5
718.335	30.5
719.514	34
720.693	29
721.872	29.5
723.05	31
724.228	30
725.406	25.5
726.585	32
727.763	26.5
728.941	31.5
730.118	23
731.295	32
732.472	31.5
733.649	27
734.825	27
736.002	30
737.178	27
738.354	28.5
739.53	26
740.705	30.5
741.881	23
743.056	24.5
744.231	26
745.406	29
746.581	29.5
747.755	29
748.93	25.5
750.104	30
751.278	33
752.452	28.5
753.625	28.5
754.799	27.5
755.972	31.5
757.144	28
758.317	30
759.489	24.5
760.662	28.5
761.834	29
763.006	28
764.178	24.5
765.349	29
766.521	24
767.692	29.5
768.863	27
770.034	25.5
771.204	30
772.374	25
773.545	29.5
774.715	29
775.885	31
777.054	28.5
778.224	30.5
779.393	27
780.562	32
781.731	30
782.9	29.5
784.069	35.5
785.236	29
786.405	29
787.573	35
788.74	34
789.908	34.5
791.074	30.5
792.242	29.5
793.409	29
794.575	30
795.742	27
796.909	29
798.074	29.5
799.241	30
800.406	31.5
801.572	29
802.737	29
803.902	30.5
805.067	28.5
806.232	32
807.396	24.5
808.561	28
809.725	26.5
810.889	25
812.052	27
813.217	29.5
814.38	28
815.544	32
816.706	29
817.87	27.5
819.032	27
820.195	28
821.357	29
822.518	26.5
823.681	27
824.842	28.5
826.005	27
827.165	24
828.326	25
829.488	27.5
830.648	28.5
831.808	26
832.97	24.5
834.129	28
835.289	20
836.45	29
837.609	24
838.768	26.5
839.927	29
841.087	27
842.245	32
843.404	23
844.562	28.5
845.721	29
846.879	29
848.036	25
849.194	24.5
850.351	26
851.509	30
852.666	24
853.823	28
854.979	27.5
856.136	28
857.292	25
858.448	31.5
859.605	32
860.761	27.5
861.916	30.5
863.071	32.5
864.226	32.5
865.381	28.5
866.536	31
867.691	28.5
868.845	32
869.999	30
871.153	27
872.307	30.5
873.461	27
874.614	27.5
875.767	33
876.92	26.5
878.073	29
879.226	26.5
880.379	27.5
881.531	25
882.683	26.5
883.835	27.5
884.987	30.5
886.139	27.5
887.291	28
888.442	28
889.593	31
890.743	25
891.893	29.5
893.044	28.5
894.195	27.5
895.345	25.5
896.495	27.5
897.643	26.5
898.793	27
899.943	30
901.092	26.5
902.241	24
903.389	28.5
904.538	26
905.687	27.5
906.835	21
907.982	25.5
909.13	26.5
910.278	28
911.426	26
912.572	29.5
913.72	26
914.867	26.5
916.013	30
917.16	25
918.306	24
919.451	25.5
920.598	26
921.744	24.5
922.889	28
924.035	23
925.18	24.5
926.324	21.5
927.47	24
928.614	25
929.758	23.5
930.902	27
932.047	27.5
933.191	25.5
934.334	24.5
935.478	27
936.621	28.5
937.764	25.5
938.906	24
940.05	26.5
941.192	23
942.335	27.5
943.476	25.5
944.619	26
945.76	24.5
946.901	25
948.043	26
949.184	29
950.326	23.5
951.466	24
952.606	26
953.747	24
954.887	23.5
956.028	23.5
957.167	28.5
958.307	26
959.447	25
960.586	25
961.725	27.5
962.865	26
964.003	24
965.141	24.5
966.279	30
967.418	26
968.556	26
969.693	22
970.831	25.5
971.969	26
973.106	27.5
974.243	23
975.38	25.5
976.517	28.5
977.654	24.5
978.79	28
979.926	27
981.061	27.5
982.197	29.5
983.334	28
984.469	25.5
985.604	25.5
986.739	25.5
987.873	26
989.008	26
990.142	26
991.277	25
992.411	27
993.544	26
994.679	27.5
995.813	28
996.946	25
998.079	23.5
999.212	26
1000.35	23.5
1001.48	27.5
1002.61	28.5
1003.74	25.5
1004.87	26
1006.01	26.5
1007.14	26
1008.27	26
1009.4	22.5
1010.53	26
1011.66	24.5
1012.79	26
1013.92	25.5
1015.05	24.5
1016.18	25.5
1017.31	26
1018.44	24
1019.57	24.5
1020.7	23
1021.83	25
1022.96	24.5
1024.09	28
1025.22	24.5
1026.35	25
1027.48	29
1028.6	20
1029.73	27.5
1030.86	26
1031.99	29
1033.12	23
1034.24	26
1035.37	25
1036.5	26
1037.62	24
1038.75	23.5
1039.88	25.5
1041	28.5
1042.13	29
1043.25	30.5
1044.38	20
1045.5	26
1046.63	23
1047.76	24
1048.88	23
1050	28.5
1051.13	27
1052.25	25.5
1053.38	23.5
1054.5	25.5
1055.63	24
1056.75	28
1057.87	25.5
1058.99	26.5
1060.12	24.5
1061.24	24
1062.36	27.5
1063.49	25.5
1064.61	24
1065.73	28
1066.85	26
1067.97	24.5
1069.1	23
1070.22	26
1071.34	26.5
1072.46	30
1073.58	22
1074.7	25.5
1075.82	26
1076.94	27
1078.06	25
1079.18	24.5
1080.3	26.5
1081.42	23
1082.54	25
1083.66	24.5
1084.78	26
1085.9	22
1087.02	24
1088.13	26
1089.25	26
1090.37	22
1091.49	24
1092.61	22
1093.72	29
1094.84	23.5
1095.96	21.5
1097.08	25
1098.19	22
1099.31	24
1100.42	20
1101.54	22.5
1102.66	23
1103.77	25
1104.89	27
1106	25.5
1107.12	27.5
1108.23	22
1109.35	27
1110.46	27
1111.58	29.5
1112.69	24.5
1113.81	25
1114.92	26
1116.04	24
1117.15	23
1118.26	27
1119.38	20.5
1120.49	25
1121.6	25.5
1122.72	23
1123.83	25.5
1124.94	25
1126.05	26
1127.17	23.5
1128.28	26.5
1129.39	26
1130.5	20.5
1131.61	26.5
1132.72	26
1133.83	27
1134.94	27.5
1136.06	23.5
1137.17	26.5
1138.27	25
1139.39	27.5
1140.5	27.5
1141.61	25.5
1142.72	24
1143.82	22
1144.93	25.5
1146.04	22
1147.15	26.5
1148.26	25
1149.37	19
1150.48	25
1151.58	26
1152.69	25.5
1153.8	25
1154.91	25.5
1156.02	25
1157.12	29.5
1158.23	20.5
1159.34	27
1160.44	24
1161.55	25
1162.66	25
1163.76	24.5
1164.87	27.5
1165.97	24.5
1167.08	27
1168.18	28.5
1169.29	26
1170.39	25
1171.5	28
1172.6	23.5
1173.71	23
1174.81	25.5
1175.92	23.5
1177.02	25
1178.13	24
1179.23	20
1180.33	26.5
1181.44	25
1182.54	27.5
1183.64	22
1184.74	28
1185.85	23
1186.95	28
1188.05	23
1189.15	25
1190.26	22.5
1191.36	23.5
1192.46	24
1193.56	25
1194.66	22.9899
1195.76	22.9621
1196.86	22.5744
1197.96	25.534
1199.06	23.148
1200.16	23.552
1201.26	26.3393
1202.36	22.0852
1203.46	24.2258
1204.56	24.5571
1205.66	21.5111
1206.76	22.0504
1207.86	23.929
1208.96	24.6619
1210.06	25.2025
1211.16	21.7001
1212.25	24.4393
1213.35	24.0826
1214.45	20.3433
1215.55	22.6361
1216.65	22.6897
1217.74	24.6989
1218.84	22.698
1219.94	24.3105
1221.03	23.0555
1222.13	23.613
1223.23	25.1105
1224.32	24.5141
1225.42	23.1543
1226.52	25.8633
1227.61	26.5685
1228.71	26.4323
1229.8	23.7328
1230.9	23.559
1231.99	22.4224
1233.09	26.218
1234.18	25.8688
1235.28	25.1014
1236.37	25.1028
1237.47	22.7335
1238.56	24.1947
1239.65	25.9123
1240.75	25.1965
1241.84	25.7385
1242.93	24.213
1244.03	25.8588
1245.12	22.0329
1246.21	22.7488
1247.31	24.4179
1248.4	23.6528
1249.49	23.8602
1250.58	24.2079
1251.67	23.8528
1252.77	26.342
1253.86	24.8612
1254.95	26.5792
1256.04	26.0574
1257.13	25.2821
1258.22	26.0209
1259.31	27.3867
1260.4	24.2491
1261.49	26.3029
1262.58	26.3377
1263.67	25.9536
1264.76	27.3963
1265.85	26.5898
1266.94	25.0522
1268.03	25.4354
1269.12	28.1621
1270.21	26.9468
1271.3	21.4035
1272.39	20.9232
1273.47	23.7933
1274.56	25.8145
1275.65	23.9269
1276.74	26.3598
1277.83	27.2221
1278.91	22.9808
1280	23.361
1281.09	28.0241
1282.17	24.658
1283.26	23.855
1284.35	23.6574
1285.43	24.3311
1286.52	23.1279
1287.61	24.1849
1288.69	23.9122
1289.78	25.2215
1290.86	24.2091
1291.95	25.6664
1293.03	25.1058
1294.12	22.0424
1295.2	23.4745
1296.29	25.7494
1297.37	25.8998
1298.46	24.638
1299.54	23.8634
1300.63	23.6727
1301.71	25.361
1302.79	27.6559
1303.88	27.7149
1304.96	24.658
1306.04	24.7252
1306.5	26
1307.59	23.5
1308.68	29
1309.76	24.5
1310.85	25
1311.94	21
1313.03	24.5
1314.11	23
1315.2	24.5
1316.29	26.5
1317.37	26.5
1318.46	25
1319.55	21.5
1320.63	21
1321.72	22
1322.81	23.5
1323.89	25
1324.98	23
1326.06	25.5
1327.15	24
1328.23	23.5
1329.32	22.5
1330.4	26.5
1331.49	22
1332.57	21.5
1333.66	22
1334.74	25
1335.82	23
1336.91	22.5
1337.99	25.5
1339.07	26
1340.16	23
1341.24	22
1342.32	25
1343.4	27
1344.49	22
1345.57	25
1346.65	23
1347.73	25
1348.82	25.5
1349.9	25.5
1350.98	24
1352.06	26
1353.14	18
1354.22	29.5
1355.3	25.5
1356.38	25.5
1357.46	29
1358.54	22
1359.62	23
1360.7	24.5
1361.78	29.5
1362.86	23
1363.94	26.5
1365.02	25
1366.1	23
1367.18	24.5
1368.26	30
1369.34	25.5
1370.41	26.5
1371.49	27
1372.57	24.5
1373.65	25.5
1374.72	24.5
1375.8	23.5
1376.88	25.5
1377.96	24
1379.03	22.5
1380.11	22
1381.19	25
1382.26	25.5
1383.34	24
1384.42	26.5
1385.49	25
1386.57	26
1387.64	27.5
1388.72	23.5
1389.79	26.5
1390.87	26
1391.94	24
1393.02	29.5
1394.09	27.5
1395.17	27
1396.24	25
1397.31	26
1398.39	25
1399.46	31
1400.54	31.5
1401.61	27
1402.68	25
1403.76	27.5
1404.83	32.5
1405.9	30
1406.97	29
1408.05	30
1409.12	29.5
1410.19	31.5
1411.26	29.5
1412.33	33.5
1413.4	29.5
1414.48	32.5
1415.55	28
1416.62	28
1417.69	25
1418.76	31
1419.83	26
1420.9	26
1421.97	27
1423.04	27
1424.11	28.5
1425.18	27
1426.25	25.5
1427.32	22
1428.39	22
1429.46	30.5
1430.52	26
1431.59	28
1432.66	25
1433.73	23
1434.8	24.5
1435.87	29
1436.93	26.5
1438	26
1439.07	22.5
1440.14	29
1441.2	25
1442.27	26.5
1443.34	27.5
1444.4	26.5
1445.47	25
1446.54	25
1447.6	24
1448.67	23
1449.73	24.5
1450.8	26.5
1451.86	22
1452.93	24.5
1453.99	27
1455.06	24.5
1456.12	26
1457.19	21.5
1458.25	26.5
1459.32	23.5
1460.38	27.5
1461.45	28.5
1462.51	25
1463.57	28
1464.64	27.5
1465.7	26
1466.76	27.5
1467.82	25
1468.89	28
1469.95	26
1471.01	26
1472.07	24
1473.14	23.5
1474.2	22
1475.26	30
1476.32	21
1477.38	26
1478.44	23
1479.5	21
1480.57	29.5
1481.63	27.5
1482.69	19.5
1483.75	24.5
1484.81	25.5
1485.87	25.5
1486.93	24
1487.99	22.5
1489.05	28
1490.1	26.5
1491.17	26.5
1492.22	21.5
1493.28	32
1494.34	24
1495.4	25
1496.46	27
1497.52	25.5
1498.57	22
1499.63	27
1500.69	23
1501.75	24.5
1502.8	23.5
1503.86	27.5
1504.92	24
1505.98	21.5
1507.03	23.5
1508.09	25.5
1509.15	26.5
1510.2	23
1511.26	25
1512.31	25
1513.37	29
1514.42	26.5
1515.48	30
1516.53	25.5
1517.59	26.5
1518.64	25
1519.7	30
1520.75	26.5
1521.81	25
1522.86	23
1523.92	21.5
1524.97	25.5
1526.02	25.5
1527.08	25.5
1528.13	25
1529.18	25
1530.24	26
1531.29	27
1532.34	27
1533.39	25.5
1534.45	25
1535.5	25
1536.55	30
1537.6	22.5
1538.65	26
1539.71	25
1540.76	23.5
1541.81	24
1542.86	30.5
1543.91	28.5
1544.96	25
1546.01	24
1547.06	24
1548.11	23
1549.16	27
1550.21	20
1551.26	23.5
1552.31	25.5
1553.36	23
1554.41	24
1555.46	25
1556.51	25
1557.56	25.5
1558.6	24.5
1559.65	27
1560.7	28.5
1561.75	27
1562.8	27
1563.84	26
1564.89	24.5
1565.94	24
1566.99	26
1568.03	25.5
1569.08	27.5
1570.13	26
1571.17	25.5
1572.22	23.5
1573.27	28
1574.31	27
1575.36	26
1576.4	25.5
1577.45	25.5
1578.5	21.5
1579.54	26.5
1580.59	26.5
1581.63	21
1582.68	23.5
1583.72	26
1584.76	27
1585.81	25.5
1586.85	21.5
1587.9	21.5
1588.94	26
1589.98	22.5
1591.03	23
1592.07	26
1593.11	23
1594.16	23.5
1595.2	23
1596.24	23.5
1597.29	26
1598.33	25.5
1599.37	21
1600.41	20
1601.45	27.5
1602.49	23
1603.54	25.5
1604.58	23
1605.62	27
1606.66	24.5
1607.7	24
1608.74	24.5
1609.78	23.5
1610.82	26.5
1611.86	23
1612.9	26.5
1613.94	26
1614.98	25.5
1616.02	24.5
1617.06	25
1618.1	26.5
1619.14	24
1620.18	26
1621.22	27
1622.25	27.5
1623.29	24
1624.33	27
1625.37	24.5
1626.41	27.5
1627.45	28
1628.48	25
1629.52	27.5
1630.56	28
1631.59	25.5
1632.63	27.5
1633.67	28
1634.7	21.5
1635.74	27.5
1636.78	23.5
1637.81	22
1638.85	26
1639.88	25.5
1640.92	26
1641.96	28.5
1642.99	23
1644.03	22
1645.06	25.5
1646.1	25.5
1647.13	28
1648.17	26.5
1649.2	25
1650.23	24
1651.27	29
1652.3	26
1653.33	25.5
1654.37	26
1655.4	23
1656.44	23.5
1657.47	23
1658.5	28
1659.53	25
1660.57	24.5
1661.6	27
1662.63	30.5
1663.66	26
1664.69	25.5
1665.73	25
1666.76	25.5
1667.79	28.5
1668.82	26.5
1669.85	25
1670.88	24.5
1671.91	26
1672.94	27
1673.97	23
1675.01	25
1676.03	25.5
1677.07	24.5
1678.1	24
1679.12	24.5
1680.15	23
1681.18	21
1682.21	27
1683.24	31.5
1684.27	27
1685.3	31
1686.33	25
1687.36	25
1688.38	20.5
1689.41	27
1690.44	23
1691.47	26
1692.5	25.5
1693.52	22
1694.55	24.5
1695.58	25
1696.6	23.5
1697.63	24
1698.66	20
1699.68	23.5
1700.71	24
1701.74	27
1702.76	27
1703.79	26.5
1704.81	21.5
1705.84	24
1706.86	21.5
1707.89	28
1708.91	22.5
1709.94	26.5
1710.96	27
1711.99	23.5
1713.01	24
1714.04	22
1715.06	23.5
1716.08	22
1717.11	25
1718.13	23.5
1719.16	25
1720.18	28
1721.2	25.5
1722.22	22
1723.25	22
1724.27	25
1725.29	25.5
1726.31	24
1727.34	25.5
1728.36	25
1729.38	20.5
1730.4	28
1731.42	26.5
1732.44	29
1733.47	22.5
1734.49	26.5
1735.51	27
1736.53	24.5
1737.55	23
1738.57	29
1739.59	24.5
1740.61	22
1741.63	27
1742.65	28
1743.67	26.5
1744.69	27
1745.71	28.5
1746.73	25.5
1747.75	30
1748.76	22.5
1749.78	24
1750.8	25
1751.82	20.5
1752.84	27.5
1753.86	23
1754.87	25.5
1755.89	27.5
1756.91	27.5
1757.93	24
1758.94	25.5
1759.96	24.5
1760.98	30
1761.99	26.5
1763.01	27.5
1764.03	26.5
1765.04	24.5
1766.06	29
1767.08	23
1768.09	27
1769.11	25.5
1770.12	27
1771.14	21
1772.15	24
1773.17	26
1774.18	25
1775.2	24.5
1776.21	25.5
1777.23	27.5
1778.24	24.5
1779.25	25.5
1780.27	27.5
1781.28	24.5
1782.3	24.5
1783.31	23.5
1784.32	26
1785.34	25.5
1786.35	24.5
1787.36	27.5
1788.37	25
1789.39	22
1790.4	27
1791.41	22
1792.42	25
1793.43	28
1794.45	22.5
1795.46	24
1796.47	24
1797.48	21.5
1798.49	24
1799.5	27
1800.51	26.5
1801.52	23.5
1802.53	28.5
1803.54	24.5
1804.55	23.5
1805.56	27
1806.57	25
1807.58	23.5
1808.59	26
1809.6	20.5
1810.61	25.5
1811.62	27.5
1812.63	24.5
1813.64	23
1814.65	28.5
1815.66	24
1816.66	30
1817.67	24.5
1818.68	26
1819.69	22.5
1820.69	24
1821.7	26.5
1822.71	23
1823.72	22.5
1824.72	24.5
1825.73	23
1826.74	24.5
1827.74	23
1828.75	24.5
1829.76	27
1830.76	25.5
1831.77	26
1832.77	19.5
1833.78	23.5
1834.79	26
1835.79	24.5
1836.8	28
1837.8	26.5
1838.81	22
1839.81	24.5
1840.81	25.5
1841.82	25.5
1842.82	24
1843.83	26.5
1844.83	20.5
1845.83	24.5
1846.84	23
1847.84	28
1848.84	23.5
1849.85	23.5
1850.85	26
1851.85	27.5
1852.86	22.5
1853.86	26.5
1854.86	25
1855.86	25
1856.86	26
1857.87	28
1858.87	27
1859.87	24
1860.87	25
1861.87	24
1862.87	25
1863.88	27
1864.88	24
1865.88	26
1866.88	24.5
1867.88	23
1868.88	27.5
1869.88	22.5
1870.88	24
1871.88	26
1872.88	19.5
1873.88	22
1874.87	25.5
1875.87	29.5
1876.87	22
1877.87	25
1878.87	26
1879.87	22.5
1880.87	24
1881.86	24
1882.86	20.5
1883.86	23
1884.86	26
1885.86	26
1886.85	23
1887.85	25
1888.85	27
1889.84	23
1890.84	27
1891.84	25.5
1892.83	26
1893.83	20.5
1894.83	27.5
1895.82	23
1896.82	26
1897.81	23
1898.81	23.5
1899.81	24.5
1900.8	22
1901.8	23
1902.79	27.5
1903.78	24.5
1904.78	22
1905.77	23
1906.77	29.5
1907.76	26
1908.76	26.5
1909.75	25.5
1910.74	27
1911.74	24.5
1912.73	22.5
1913.72	24
1914.72	24.5
1915.71	24
1916.7	25
1917.7	27
1918.69	26
1919.68	21.5
1920.67	22
1921.66	23.5
1922.66	26
1923.65	24.5
1924.64	24
1925.63	24.5
1926.62	21
1927.61	22.5
1928.6	26
1929.59	26
1930.59	21.5
1931.58	25
1932.57	18.5
1933.56	29
1934.55	22.5
1935.54	26.5
1936.53	23
1937.52	24
1938.51	21
1939.49	24.5
1940.48	22.5
1941.47	25
1942.46	27
1943.45	26
1944.44	22
1945.43	24.5
1946.42	26
1947.4	25
1948.39	26
1949.38	23
1950.37	24
1951.35	24
1952.34	22.5
1953.33	26
1954.31	27
1955.3	22.5
1956.29	26
1957.27	23
1958.26	26.5
1959.25	23.5
1960.23	26.5
1961.22	27
1962.21	21.5
1963.19	25
1964.18	24
1965.16	20
1966.15	26
1967.13	25
1968.12	26.5
1969.1	26
1970.09	24.5
1971.07	26.5
1972.05	21
1973.04	22
1974.02	21.5
1975.01	24
1975.99	27
1976.97	23.5
1977.96	26
1978.94	30.5
1979.92	22.5
1980.91	28.5
1981.89	24
1982.87	23.5
1983.85	26.5
1984.84	24
1985.82	23
1986.8	26.5
1987.78	21.5
1988.76	26
1989.74	20.5
1990.73	23
1991.71	24.5
1992.69	22.5
1993.67	20
1994.65	23.5
1995.63	22
1996.61	23
1997.59	20
1998.57	26.5
1999.55	23.5
2000.53	23
2001.51	26
2002.49	23
2003.47	24
2004.45	24.5
2005.43	24
2006.41	26
2007.39	24
2008.37	27
2009.34	22
2010.32	24
2011.3	19
2012.28	24.5
2013.26	25
2014.23	21
2015.21	23
2016.19	20.5
2017.17	25
2018.14	27
2019.12	26
2020.1	24
2021.07	21
2022.05	26
2023.03	25
2024	25
2024.98	25
2025.96	25
2026.93	22
2027.91	25.5
2028.88	24
2029.86	23
2030.83	23.5
2031.81	27.5
2032.78	24
2033.76	24
2034.73	22
2035.71	19.5
2036.68	26.5
2037.66	26
2038.63	23
2039.6	26
2040.58	27.5
2041.55	29
2042.52	22
2043.5	26
2044.47	26
2045.44	24.5
2046.42	22.5
2047.39	28
2048.36	25
2049.33	18
2050.31	25.5
2051.28	22
2052.25	23
2053.22	16
2054.19	26
2055.17	23
2056.14	22.5
2057.11	27
2058.08	25
2059.05	27
2060.02	20.5
2060.99	20
2061.96	27.5
2062.93	23
2063.9	23
2064.87	22.5
2065.84	21
2066.81	26.5
2067.78	25
2068.75	28
2069.72	27.5
2070.69	25.5
2071.66	21
2072.63	26
2073.6	26.5
2074.56	26.5
2075.53	24.5
2076.5	21
2077.47	23
2078.44	22.5
2079.4	22.5
2080.37	24
2081.34	20
2082.31	23.5
2083.27	21.5
2084.24	27.5
2085.21	25
2086.18	24.5
2087.14	23.5
2088.11	26.5
2089.07	21
2090.04	21.5
2091.01	25
2091.97	22
2092.94	21
2093.9	24
2094.87	26
2095.83	20
2096.8	20.5
2097.76	26.5
2098.73	26
2099.69	22.5
2100.66	22.5
2101.62	27
2102.59	23.5
2103.55	24
2104.52	20
2105.48	21.5
2106.44	26
2107.41	23
2108.37	25.5
2109.33	20
2110.3	21
2111.26	25.5
2112.22	26.5
2113.18	24.5
2114.15	23.5
2115.11	24
2116.07	26
2117.03	25.5
2118	22
2118.96	24.5
2119.92	25
2120.88	22.5
2121.84	22.5
2122.8	22
2123.76	23.5
2124.72	24
2125.68	23.5
2126.65	25
2127.61	21.5
2128.57	20
2129.53	26
2130.49	19
2131.45	24.5
2132.41	26.5
2133.36	20.5
2134.32	24
2135.28	24
2136.24	21.5
2137.2	22
2138.16	24
2139.12	26.5
2140.08	25
2141.04	23
2141.99	21
2142.95	25.0006
2143.91	25.001
2144.87	19.1744
2145.83	25.0136
2146.78	22.9902
2147.74	21.5381
2148.7	23.8906
2149.66	19.1234
2150.61	22.8893
2151.57	24.2083
2152.53	20.6868
2153.48	23.3712
2154.44	20.5803
2155.4	20.5687
2156.35	25.6289
2157.31	21.8958
2158.26	24.8668
2159.22	21.2544
2160.17	25.4413
2161.13	20.8519
2162.08	22.6097
2163.04	23.0748
2163.99	24.4931
2164.95	23.7496
2165.9	24.4338
2166.86	22.8478
2167.81	21.885
2168.77	20.4991
2169.72	24.3464
2170.67	24.6095
2171.63	23.4508
2172.58	19.7273
2173.54	23.6759
2174.49	21.9161
2175.44	23.855
2176.39	21.9195
2177.35	23.0041
2178.3	21.3348
2179.25	21.3245
2180.2	23.5928
2181.16	22.5712
2182.11	25.8883
2183.06	22.4421
2184.01	22.5831
2184.96	23.921
2185.92	23.3048
2186.87	21.59
2187.82	21.7172
2188.77	21.9634
2189.72	20.857
2190.67	23.0513
2191.62	22
2192.57	23.1731
2193.52	24.2389
2194.47	24.9443
2195.42	20.5734
2196.37	22.4242
2197.32	24.4771
2198.27	23.1075
2199.22	21.7379
2200.17	21.8951
2201.12	22.2766
2202.07	22.2383
2203.02	21.7904
2203.97	21.7595
2204.92	23.8302
2205.87	20.6212
2206.81	20.2621
2207.76	21.9561
2208.71	21.6343
2209.66	21.7715
2210.61	21.4431
2211.55	20.8028
2212.5	23.8375
2213.45	22.5927
2214.4	24.6292
2215.34	20.4137
2216.29	23.3451
2217.24	22.8945
2218.18	23.7645
2219.13	20.352
2220.08	24.6961
2221.02	23.4171
2221.97	24.2101
2222.92	21.5395
2223.86	23.5854
2224.81	23.3398
2225.75	24.523
2226.7	22.2833
2227.64	22.207
2228.59	22.1552
2229.53	25.2032
2230.48	24.0558
2231.42	22.1634
2232.37	23.4897
2233.31	21.3198
2234.26	23.2793
2235.2	22.1346
2236.14	23.7079
2237.09	22.6274
2238.03	23.0342
2238.97	22.9709
2239.92	21.2731
2240.05	21
2241	22
2241.95	23
2242.89	26.5
2243.84	22.5
2244.79	23
2245.74	22
2246.68	23
2247.63	23
2248.58	19
2249.53	22.5
2250.47	22.5
2251.42	19.5
2252.36	26
2253.31	22
2254.26	25
2255.2	22.5
2256.15	18.5
2257.1	21
2258.04	23.5
2258.99	23
2259.93	25
2260.88	20.5
2261.82	23.5
2262.77	29
2263.71	17.5
2264.66	19
2265.6	22
2266.55	24.5
2267.49	23
2268.43	25.5
2269.38	18
2270.32	23
2271.26	24.5
2272.21	25
2273.15	25.5
2274.09	26.5
2275.04	22.5
2275.98	24
2276.92	24
2277.87	21
2278.81	25.5
2279.75	23.5
2280.69	24
2281.64	25.5
2282.58	25
2283.52	24
2284.46	22.5
2285.4	24.5
2286.34	27.5
2287.29	27
2288.23	20.5
2289.17	23
2290.11	22.5
2291.05	21
2291.99	27
2292.93	22.5
2293.87	24
2294.81	25.5
2295.75	24.5
2296.69	23.5
2297.63	24
2298.57	21
2299.51	25
2300.45	19.5
2301.39	22.5
2302.33	23.5
2303.27	24.5
2304.2	21.5
2305.14	22.5
2306.08	19
2307.02	24
2307.96	23
2308.9	24.5
2309.83	21.5
2310.77	25.5
2311.71	22.5
2312.65	28
2313.58	22.5
2314.52	26
2315.46	20.5
2316.39	21
2317.33	21.5
2318.27	24.5
2319.21	20
2320.14	24.5
2321.08	23.5
2322.01	22
2322.95	26
2323.89	22.5
2324.82	23
2325.76	21.5
2326.69	23
2327.63	23
2328.56	23.5
2329.5	22
2330.43	25.5
2331.37	24.5
2332.3	22.5
2333.24	23.5
2334.17	29
2335.1	23.5
2336.04	24
2336.97	23
2337.91	21
2338.84	24.5
2339.77	22
2340.71	24
2341.64	23
2342.57	22
2343.51	25
2344.44	27
2345.37	28
2346.3	25
2347.24	25
2348.17	21
2349.1	23
2350.03	23
2350.96	24.5
2351.89	25.5
2352.83	28.5
2353.76	26
2354.69	23
2355.62	22.5
2356.55	21
2357.48	24
2358.41	27.5
2359.34	23.5
2360.27	27.5
2361.2	24.5
2362.13	25
2363.06	21.5
2363.99	24
2364.92	22.5
2365.85	23
2366.78	22
2367.71	23.5
2368.64	23
2369.57	23.5
2370.5	25
2371.43	21
2372.36	19.5
2373.28	23
2374.21	23
2375.14	21
2376.07	25
2377	23
2377.93	25.5
2378.85	25
2379.78	29
2380.71	25.5
2381.63	24.5
2382.56	23.5
2383.49	20
2384.42	22
2385.34	22.5
2386.27	23
2387.2	25
2388.12	21.5
2389.05	23.5
2389.97	26
2390.9	24.5
2391.82	25
2392.75	26.5
2393.68	21
2394.6	25
2395.53	25
2396.45	21.5
2397.38	22.5
2398.3	25.5
2399.23	20.5
2400.15	24
2401.07	23
2402	26
2402.92	22
2403.85	27.5
2404.77	25
2405.69	23
2406.62	22
2407.54	20.5
2408.46	28
2409.39	25.5
2410.31	23
2411.23	25.5
2412.16	23
2413.08	22
2414	25
2414.92	22
2415.85	17
2416.77	25
2417.69	26
2418.61	24
2419.53	24.5
2420.45	29
2421.38	23.5
2422.3	25
2423.22	24
2424.14	25.5
2425.06	24
2425.98	26.5
2426.9	25.5
2427.82	21.5
2428.74	24
2429.66	25
2430.58	19.5
2431.5	24.5
2432.42	24
2433.34	21
2434.26	26
2435.18	27.5
2436.1	27
2437.02	28
2437.94	21.5
2438.85	21
2439.77	26
2440.69	26.5
2441.61	18.5
2442.53	24.5
2443.45	24.5
2444.36	25
2445.28	26.5
2446.2	26.5
2447.12	24
2448.03	23.5
2448.95	22
2449.87	26
2450.79	23.5
2451.7	23.5
2452.62	24
2453.54	24
2454.45	23
2455.37	22
2456.28	22.5
2457.2	26
2458.12	21.5
2459.03	26
2459.95	22.5
2460.86	25
2461.78	25
2462.69	24.5
2463.61	23.5
2464.52	25.5
2465.44	25
2466.35	24.5
2467.27	23.5
2468.18	26
2469.1	25
2470.01	20
2470.93	26
2471.84	25
2472.75	27.5
2473.67	24.5
2474.58	29
2475.49	22.5
2476.41	20
2477.32	26
2478.23	21
2479.15	27.5
2480.06	25.5
2480.97	26
2481.88	25
2482.79	20
2483.71	23.5
2484.62	27.5
2485.53	26.5
2486.44	25
2487.35	25.5
2488.26	26.5
2489.18	21.5
2490.09	22
2491	24
2491.91	29
2492.82	23.5
2493.73	23
2494.64	23
2495.55	23
2496.46	28
2497.37	27.5
2498.28	23.5
2499.19	26
2500.1	24
2501.01	26
2501.92	26
2502.83	23
2503.74	21.5
2504.65	24
2505.56	26
2506.47	26
2507.37	26
2508.28	25
2509.19	24
2510.1	23
2511.01	26.5
2511.92	27
2512.82	25
2513.73	22
2514.64	25.5
2515.55	23
2516.45	22.5
2517.36	27
2518.27	26.5
2519.17	25
2520.08	23.5
2520.99	26.5
2521.89	24
2522.8	21.5
2523.71	22
2524.61	22.5
2525.52	24
2526.42	26.5
2527.33	24.5
2528.24	26
2529.14	19.5
2530.05	28.5
2530.95	23
2531.86	26.5
2532.76	23.5
2533.67	24
2534.57	26.5
2535.48	22
2536.38	24.5
2537.28	24
2538.19	25.5
2539.09	26
2540	24
2540.9	22
2541.8	26
2542.71	21
2543.61	21.5
2544.51	23
2545.42	26.5
2546.32	25.5
2547.22	23
2548.12	26.5
2549.03	26
2549.93	24.5
2550.83	21
2551.73	20
2552.63	22
2553.54	24
2554.44	25
2555.34	23
2556.24	21.5
2557.14	23.5
2558.04	24
2558.94	22
2559.85	28
2560.75	21
2561.65	27
2562.55	25.5
2563.45	25
2564.35	25.5
2565.25	26
2566.15	26
2567.05	19.5
2567.95	24
2568.85	26.5
2569.75	24
2570.65	24.5
2571.55	28
2572.44	26.5
2573.34	27.5
2574.24	27.5
2575.14	19
2576.04	25.5
2576.94	24
2577.84	28
2578.73	21.5
2579.63	24.5
2580.53	22
2581.43	23.5
2582.33	26.5
2583.22	24
2584.12	24.5
2585.02	26.5
2585.91	25
2586.81	25
2587.71	26
2588.6	28.5
2589.5	22.5
2590.4	21.5
2591.29	24
2592.19	23.5
2593.09	22
2593.98	24.5
2594.88	25
2595.77	22
2596.67	25
2597.56	23.5
2598.46	23.5
2599.35	23
2600.25	24.5
2601.14	20
2602.04	23
2602.93	26.5
2603.83	25
2604.72	23
2605.62	25
2606.51	22
2607.4	27.5
2608.3	25
2609.19	23.5
2610.09	30.5
2610.98	24.5
2611.87	26.5
2612.76	20.5
2613.66	26
2614.55	23.5
2615.44	27.5
2616.34	27
2617.23	22.5
2618.12	26.5
2619.01	24
2619.9	25
2620.8	19
2621.69	28
2622.58	23
2623.47	26
2624.36	23
2625.25	24.5
2626.15	27
2627.04	21.5
2627.93	28
2628.82	25.5
2629.71	24
2630.6	28
2631.49	22.5
2632.38	22
2633.27	23.5
2634.16	25.5
2635.05	27
2635.94	24.5
2636.83	21
2637.72	23
2638.61	21.5
2639.5	28.5
2640.39	20.5
2641.28	28
2642.16	25.5
2643.05	25
2643.94	24
2644.83	21.5
2645.72	21
2646.61	24.5
2647.49	22.5
2648.38	19
2649.27	22
2650.16	27.5
2651.05	24
2651.93	21
2652.82	24
2653.71	25.5
2654.59	22.5
2655.48	23.5
2656.37	21.5
2657.25	24
2658.14	27.5
2659.03	26.5
2659.91	22
2660.8	25
2661.69	28.5
2662.57	24
2663.46	27
2664.34	27
2665.23	25.5
2666.11	23.5
2667	28
2667.88	25
2668.77	27.5
2669.65	25.5
2670.54	28
2671.42	21
2672.31	24
2673.19	20.5
2674.08	22
2674.96	26.5
2675.84	28
2676.73	23
2677.61	25
2678.49	27.5
2679.38	26
2680.26	26
2681.14	24.5
2682.03	25
2682.91	23.5
2683.79	23
2684.68	24
2685.56	23.5
2686.44	23
2687.32	20
2688.2	24
2689.09	25.5
2689.97	27
2690.85	26.5
2691.73	21.5
2692.61	25.5
2693.49	18.5
2694.38	26.5
2695.26	25
2696.14	19.5
2697.02	23
2697.9	23.5
2698.78	23.5
2699.66	26
2700.54	21
2701.42	19.5
2702.3	27
2703.18	27
2704.06	22
2704.94	28.5
2705.82	23
2706.7	21
2707.58	24
2708.46	22
2709.34	23
2710.21	26
2711.09	21.5
2711.97	25
2712.85	22.5
2713.73	21.5
2714.61	23.5
2715.49	21
2716.36	21
2717.24	24.5
2718.12	24.5
2719	28.5
2719.87	29.5
2720.75	24.5
2721.63	21.5
2722.51	23.5
2723.38	25
2724.26	23
2725.14	27
2726.01	23.5
2726.89	26
2727.77	24.5
2728.64	25
2729.52	24
2730.39	23.5
2731.27	24.5
2732.15	27
2733.02	24.5
2733.9	23
2734.77	21
2735.65	23.5
2736.52	21.5
2737.4	23.5
2738.27	23
2739.15	23.5
2740.02	26.5
2740.89	26.5
2741.77	24.5
2742.64	22
2743.52	25
2744.39	25
2745.27	22
2746.14	24.5
2747.01	24
2747.89	24
2748.76	27
2749.63	23
2750.51	25.5
2751.38	21
2752.25	22
2753.12	25
2754	21.5
2754.87	24.5
2755.74	20
2756.61	25.5
2757.48	25.5
2758.36	23.5
2759.23	23
2760.1	23
2760.97	24
2761.84	24.5
2762.71	23
2763.59	25
2764.46	25
2765.33	25.5
2766.2	25.5
2767.07	25.5
2767.94	21.5
2768.81	22.5
2769.68	24.5
2770.55	22
2771.42	26.5
2772.29	27
2773.16	25.5
2774.03	25
2774.9	25.5
2775.77	26.5
2776.64	26
2777.51	27.5
2778.37	22.5
2779.24	24.5
2780.11	20.5
2780.98	24
2781.85	26
2782.72	22
2783.59	25.5
2784.45	27.5
2785.32	28
2786.19	24
2787.06	23.5
2787.92	22
2788.79	20
2789.66	25.5
2790.53	27.5
2791.39	26
2792.26	24.5
2793.13	28.5
2793.99	25.5
2794.86	27
2795.73	27.5
2796.59	28
2797.46	25.5
2798.33	27
2799.19	28
2800.06	29
2800.92	29
2801.79	29
2802.65	26.5
2803.52	24
2804.39	27.5
2805.25	28.5
2806.11	29.5
2806.98	26.5
2807.84	26.5
2808.71	24
2809.57	27
2810.44	27.5
2811.3	29
2812.17	26
2813.03	24.5
2813.89	22.5
2814.76	26.5
2815.62	23.5
2816.49	23.5
2817.35	27
2818.21	26.5
2819.07	27.5
2819.94	26.5
2820.8	26
2821.66	26
2822.53	27
2823.39	25.5
2824.25	24.5
2825.11	30
2825.97	26
2826.84	30
2827.7	23
2828.56	24
2829.42	26
2830.28	25.5
2831.14	24
2832.01	24.5
2832.87	26
2833.73	27
2834.59	22
2835.45	25.5
2836.31	27
2837.17	29
2838.03	23
2838.89	24.5
2839.75	25
2840.61	27
2841.47	28
2842.33	24.5
2843.19	30.5
2844.05	26.5
2844.91	26
2845.77	28
2846.63	26
2847.48	25.5
2848.34	25
2849.2	24
2850.06	26.5
2850.92	28.5
2851.78	28
2852.64	24
2853.49	26
2854.35	30
2855.21	24.5
2856.07	25
2856.93	29.5
2857.78	30
2858.64	26
2859.5	23.5
2860.35	25
2861.21	26.5
2862.07	26
2862.93	27.5
2863.78	22
2864.64	29.5
2865.49	27.5
2866.35	32
2867.21	25.5
2868.06	27
2868.92	29
2869.77	27
2870.63	30
2871.49	30
2872.34	28.5
2873.2	28
2874.05	26.5
2874.91	27
2875.76	31.5
2876.62	29
2877.47	31.5
2878.32	30
2879.18	28
2880.03	29.5
2880.89	32.5
2881.74	30
2882.6	27.5
2883.45	32
2884.3	34
2885.16	31.5
2886.01	28
2886.86	31.5
2887.72	37
2888.57	37
2889.42	40
2890.27	36
2891.13	42
2891.98	36
2892.83	41.5
2893.68	38.5
2894.54	43.5
2895.39	46
2896.24	45
2897.09	45.5
2897.94	53.5
2898.8	48
2899.65	46.5
2900.5	56.5
2901.35	56
2902.2	59
2903.05	66
2903.9	63.5
2904.75	67
2905.6	67
2906.45	63.5
2907.3	63.5
2908.15	62.5
2909.01	56.5
2909.85	59.5
2910.7	63
2911.55	57
2912.4	48
2913.25	49
2914.1	48.5
2914.95	45.5
2915.8	44
2916.65	40.5
2917.5	42
2918.35	35.5
2919.2	39
2920.04	38
2920.89	37
2921.74	38.5
2922.59	34.5
2923.44	29
2924.29	36
2925.13	32.5
2925.98	35.5
2926.83	30
2927.68	32
2928.52	27
2929.37	33.5
2930.22	29
2931.06	29
2931.91	27
2932.76	26
2933.6	31.5
2934.45	32
2935.3	21
2936.14	25.5
2936.99	27.5
2937.83	26
2938.68	28
2939.53	28
2940.37	30
2941.22	28
2942.06	25.5
2942.91	29.5
2943.75	27
2944.6	28
2945.44	23
2946.29	28.5
2947.13	22.5
2947.98	27.5
2948.82	28
2949.66	27
2950.51	27
2951.35	27.5
2952.2	28
2953.04	28.5
2953.88	33.5
2954.73	29
2955.57	36
2956.41	34
2957.26	32.5
2958.1	38
2958.94	34
2959.79	35.5
2960.63	43.5
2961.47	42
2962.31	37.5
2963.15	43
2964	42
2964.84	41
2965.68	44
2966.52	40
2967.37	43
2968.21	40
2969.05	39.5
2969.89	40
2970.73	42
2971.57	33.0316
2972.41	37.9362
2973.25	40.3398
2974.09	31.6153
2974.93	33.5655
2975.77	31.4038
2976.62	32.1711
2977.46	33.9183
2978.3	32.1418
2979.14	30.6214
2979.98	32.4562
2980.81	28.6694
2981.65	25.7759
2982.49	26.6068
2983.33	28.8093
2984.17	28.8259
2985.01	27.8631
2985.85	28.6352
2986.69	25.5841
2987.53	31.4317
2988.37	25.721
2989.21	23.3752
2990.04	23.9334
2990.88	23.0377
2991.72	27.3267
2992.56	23.8074
2993.4	23.2252
2994.23	22.6584
2995.07	28.2344
2995.91	28.2468
2996.75	24.9627
2997.58	26.8592
2998.42	24.2875
2999.26	23.4354
3000.1	22.5772
3000.93	25.949
3001.77	21.7087
3002.61	23.6792
3003.44	22.6189
3004.28	25.2927
3005.11	23.8034
3005.95	23.8997
3006.79	25.1492
3007.62	24.01
3008.46	23.4853
3009.29	21.6856
3010.13	21.9989
3010.97	22.9894
3011.8	22.2679
3012.64	21.9043
3013.47	25.5479
3014.31	24.0211
3015.14	23.2005
3015.98	24.8656
3016.81	25.4634
3017.64	23.437
3018.48	22.3097
3019.31	22.8765
3020.15	22.7086
3020.98	21.8236
3021.82	20.6942
3022.65	21.9049
3023.48	23.706
3024.32	22.7242
3025.15	21.669
3025.98	21.6675
3026.82	24.4661
3027.65	23.8856
3028.48	22.3645
3029.31	21.4349
3030.15	23.913
3030.98	24.793
3031.81	22.925
3032.64	22.4018
3033.48	23.527
3034.31	23.0193
3035.14	23.3912
3035.97	22.6224
3036.8	24.4259
3037.64	23.7465
3038.47	21.4177
3039.3	22.3222
3040.13	23.3467
3040.96	24.2012
3041.79	24.9756
3042.62	24.1226
3043.45	23.8216
3044.28	23.4743
3045.12	25.0522
3045.95	23.5082
3046.78	23.7951
3047.61	26.4335
3048.44	23.7322
3049.27	22.4618
3050.1	24.3469
3050.92	22.7748
3051.75	23.933
3052.58	22.8418
3053.41	22.033
3054.24	24.8641
3055.07	24.0043
3055.9	23.0437
3056.73	22.7271
3057.26	20.5
3058.09	26
3058.93	28
3059.76	22
3060.59	22
3061.43	25
3062.26	22
3063.09	28
3063.92	24
3064.76	20
3065.59	22.5
3066.42	26
3067.25	22.5
3068.08	23
3068.92	27
3069.75	19.5
3070.58	24.5
3071.41	23
3072.24	21
3073.07	26
3073.9	23
3074.73	23.5
3075.57	23
3076.4	22
3077.23	25.5
3078.06	24
3078.89	20.5
3079.72	22
3080.55	22
3081.38	24.5
3082.21	28
3083.04	22
3083.87	26.5
3084.7	23.5
3085.53	26
3086.36	25.5
3087.19	20.5
3088.01	23.5
3088.84	22
3089.67	24
3090.5	24
3091.33	27.5
3092.16	21
3092.99	21
3093.81	23.5
3094.64	22
3095.47	24.5
3096.3	26
3097.13	20.5
3097.95	21.5
3098.78	21
3099.61	26
3100.44	24.5
3101.26	22
3102.09	25.5
3102.92	21
3103.74	23
3104.57	25
3105.4	23
3106.22	24.5
3107.05	21
3107.88	27
3108.7	25
3109.53	24
3110.35	24.5
3111.18	21
3112.01	23.5
3112.83	21
3113.66	23.5
3114.48	25.5
3115.31	24
3116.13	24
3116.96	23
3117.78	24.5
3118.61	23.5
3119.43	27.5
3120.26	26
3121.08	21.5
3121.9	23
3122.73	21.5
3123.55	25.5
3124.38	24.5
3125.2	27
3126.02	24.5
3126.85	22
3127.67	25.5
3128.49	25
3129.32	27
3130.14	24.5
3130.96	25
3131.79	22
3132.61	25
3133.43	20
3134.25	27
3135.08	20
3135.9	19.5
3136.72	23
3137.54	23.5
3138.37	24.5
3139.19	27
3140.01	31.5
3140.83	21
3141.65	19
3142.47	25
3143.29	25
3144.12	23
3144.94	23
3145.76	22.5
3146.58	23
3147.4	21.5
3148.22	25
3149.04	26
3149.86	24
3150.68	26
3151.5	26
3152.32	26.5
3153.14	25
3153.96	21
3154.78	22
3155.6	19
3156.42	24.5
3157.24	23
3158.06	19.5
3158.88	25.5
3159.7	21.5
3160.51	18
3161.33	25
3162.15	24.5
3162.97	26
3163.79	22.5
3164.61	21
3165.42	19
3166.24	24
3167.06	24.5
3167.88	24.5
3168.7	23
3169.51	20.5
3170.33	17.5
3171.15	27.5
3171.97	24
3172.78	25.5
3173.6	22
3174.42	23.5
3175.23	24
3176.05	29.5
3176.87	25
3177.68	22
3178.5	22
3179.32	27
3180.13	20
3180.95	26
3181.76	25
3182.58	21
3183.4	26
3184.21	23
3185.03	26.5
3185.84	21
3186.66	28
3187.47	22.5
3188.29	25
3189.1	25
3189.92	24.5
3190.73	27
3191.55	23
3192.36	19
3193.17	24
3193.99	23.5
3194.8	23.5
3195.62	24
3196.43	24.5
3197.24	21
3198.06	24.5
3198.87	26
3199.68	28
3200.5	21
3201.31	22
3202.12	25
3202.94	23.5
3203.75	21.5
3204.56	24.5
3205.38	22
3206.19	20
3207	21
3207.81	27.5
3208.62	23.5
3209.44	21.5
3210.25	24
3211.06	23.5
3211.87	22
3212.68	22.5
3213.49	22
3214.31	24.5
3215.12	27
3215.93	21.5
3216.74	24
3217.55	21.5
3218.36	22.5
3219.17	23.5
3219.98	24
3220.79	23
3221.6	24
3222.41	19.5
3223.22	25.5
3224.03	21.5
3224.84	23.5
3225.65	16
3226.46	23
3227.27	23.5
3228.08	26
3228.89	21
3229.7	24
3230.51	24.5
3231.32	24
3232.13	25
3232.94	22
3233.74	22
3234.55	23.5
3235.36	24
3236.17	23.5
3236.98	22
3237.78	27
3238.59	23.5
3239.4	25
3240.21	26
3241.02	24.5
3241.82	26.5
3242.63	23.5
3243.44	18
3244.25	24
3245.05	21.5
3245.86	21.5
3246.67	21
3247.47	25
3248.28	27
3249.09	22.5
3249.89	25
3250.7	23.5
3251.5	25.5
3252.31	26.5
3253.12	21
3253.92	27.5
3254.73	23
3255.53	22.5
3256.34	17
3257.14	20
3257.95	26.5
3258.75	22
3259.56	23
3260.36	21
3261.17	26
3261.97	24.5
3262.78	25.5
3263.58	20
3264.39	25
3265.19	24
3265.99	23
3266.8	24
3267.6	24
3268.41	23
3269.21	25.5
3270.01	22.5
3270.82	22.5
3271.62	21.5
3272.42	24
3273.23	23.5
3274.03	23
3274.83	24
3275.64	22
3276.44	22.5
3277.24	21
3278.04	24
3278.85	24.5
3279.65	26.5
3280.45	27
3281.25	23
3282.05	26.5
3282.85	23
3283.66	25.5
3284.46	27
3285.26	20.5
3286.06	20.5
3286.86	24.5
3287.66	20
3288.46	23
3289.27	23.5
3290.07	21.5
3290.87	22
3291.67	24.5
3292.47	23.5
3293.27	25
3294.07	23
3294.87	25.5
3295.67	22
3296.47	22
3297.27	27
3298.07	23.5
3298.87	21
3299.67	21
3300.47	23.5
3301.26	24
3302.06	25
3302.86	28.5
3303.66	21
3304.46	21
3305.26	21.5
3306.06	23
3306.86	26
3307.65	20
3308.45	25
3309.25	26.5
3310.05	20
3310.85	29.5
3311.64	23.5
3312.44	24
3313.24	25.5
3314.04	20.5
3314.83	24.5
3315.63	23
3316.43	23
3317.22	22
3318.02	23.5
3318.82	27.5
3319.62	23
3320.41	24
3321.21	23.5
3322	23.5
3322.8	24
3323.6	26
3324.39	26
3325.19	27.5
3325.98	19
3326.78	22.5
3327.58	23
3328.37	24
3329.17	20
3329.96	24
3330.76	24.5
3331.55	21.5
3332.35	22
3333.14	23
3333.94	22.5
3334.73	26.5
3335.52	23
3336.32	22
3337.11	22.5
3337.91	25.5
3338.7	20.5
3339.5	26
3340.29	28
3341.08	24.5
3341.88	27.5
3342.67	24.5
3343.46	20
3344.26	26
3345.05	26
3345.84	24
3346.63	21
3347.43	22
3348.22	24
3349.01	26
3349.8	19
3350.6	24
3351.39	23.5
3352.18	24.5
3352.97	21.5
3353.77	25
3354.56	25.5
3355.35	23.5
3356.14	18
3356.93	24.5
3357.72	28.5
3358.51	23
3359.31	27
3360.1	22.5
3360.89	25.5
3361.68	23
3362.47	27
3363.26	21.5
3364.05	22
3364.84	25.5
3365.63	25
3366.42	25
3367.21	26
3368	24
3368.79	24.5
3369.58	22.5
3370.37	21.5
3371.16	22.5
3371.95	23.5
3372.74	24
3373.53	24
3374.32	24
3375.1	22.5
3375.89	25.5
3376.68	23
3377.47	25.5
3378.26	25.5
3379.05	25
3379.84	27.5
3380.62	26.5
3381.41	24.5
3382.2	25
3382.99	24
3383.78	26
3384.56	23.5
3385.35	24
3386.14	21.5
3386.93	24.5
3387.71	24.5
3388.5	24
3389.29	27
3390.07	27
3390.86	26
3391.65	25.5
3392.43	24.5
3393.22	22
3394.01	27
3394.79	19
3395.58	24.5
3396.36	25.5
3397.15	23.5
3397.94	25.5
3398.72	21
3399.51	25
3400.29	22
3401.08	24
3401.86	24
3402.65	25.5
3403.43	24.5
3404.22	25.5
3405	20.5
3405.79	23.5
3406.57	22.5
3407.36	26
3408.14	22
3408.93	25
3409.71	23
3410.49	24
3411.28	22.5
3412.06	21
3412.84	25.5
3413.63	25
3414.41	24
3415.2	24.5
3415.98	18
3416.76	26
3417.54	27.5
3418.33	29.5
3419.11	22
3419.89	22
3420.68	22
3421.46	25.5
3422.24	25.5
3423.02	28
3423.81	22.5
3424.59	25.5
3425.37	27
3426.15	25.5
3426.93	25
3427.71	27.5
3428.5	24.5
3429.28	26
3430.06	26
3430.84	20
3431.62	25.5
3432.4	23
3433.18	27.5
3433.96	23
3434.75	22.5
3435.53	27
3436.31	23.5
3437.09	24.5
3437.87	25.5
3438.65	27
3439.43	20.5
3440.21	25
3440.99	27.5
3441.77	20
3442.55	25
3443.33	21.5
3444.1	24
3444.88	26
3445.66	26.5
3446.44	26
3447.22	27
3448	21
3448.78	25
3449.56	28.5
3450.34	23
3451.11	23
3451.89	25
3452.67	27.5
3453.45	25.5
3454.23	24.5
3455	24.5
3455.78	25.5
3456.56	23.5
3457.34	21
3458.11	25.5
3458.89	15
3459.67	23.5
3460.45	25
3461.22	24
3462	23
3462.78	22
3463.55	24
3464.33	23
3465.11	24.5
3465.88	21
3466.66	20
3467.44	23.5
3468.21	21.5
3468.99	22
3469.76	27
3470.54	23.5
3471.32	26.5
3472.09	23.5
3472.87	23
3473.64	24.5
3474.42	24.5
3475.19	22.5
3475.97	23
3476.74	24
3477.52	26
3478.29	27
3479.07	31.5
3479.84	22.5
3480.61	26
3481.39	22
3482.16	24
3482.94	27
3483.71	28
3484.48	22
3485.26	25.5
3486.03	23
3486.81	27.5
3487.58	23.5
3488.35	25.5
3489.13	24
3489.9	24.5
3490.67	23.5
3491.44	24
3492.22	24
3492.99	27
3493.76	26
3494.54	24
3495.31	25
3496.08	24.5
3496.85	23
3497.62	22.5
3498.4	23.5
3499.17	22
3499.94	22
