#Acq. time (s)=	5
#Accumulations=	5
#Range (cm-¹)=	100...3500
#Windows=	4
#Autofocus=	Off
#AutoExposure=	Off
#Spike filter=	Multiple accum.
#Delay time (s)=	0
#Binning=	1
#Readout mode=	Signal
#DeNoise=	Off
#ICS correction=	Off
#Dark correction=	Off
#Inst. Process=	Off
#Instrument=	LabRAM HR Evol
#Detector=	Syncerity OE
#Objective=	x100_VIS
#Grating=	600 (500nm)
#ND Filter=	25%
#Laser=	633nm_Edge
#Hole=	100.021
#Range=	Visible
#Project=	verificaciones
#Sample=	at3
#Site=	plain
#Title=	bolusat3plain
#Remark=	com
#Date=	16.01.2026 17:08
#Acquired=	16.01.2026 17:08:04
100.564	21
101.847	31
103.131	35.5
104.414	34.5
105.697	32
106.979	30.5
108.262	31.5
109.544	27
110.826	27
112.109	28
113.391	34.5
114.672	29.5
115.954	32
117.235	32.5
118.515	30.5
119.796	28.5
121.076	34
122.357	31.5
123.637	31
124.916	29.5
126.196	30.5
127.475	32.5
128.754	32
130.033	32
131.31	34
132.589	37
133.867	36
135.145	34.5
136.423	36.5
137.701	40
138.978	34
140.256	32.5
141.533	39.5
142.809	37
144.086	35.5
145.361	35.5
146.637	35.5
147.913	38.5
149.189	38
150.464	39.5
151.74	39
153.014	36
154.288	41.5
155.563	39
156.838	38.5
158.112	42
159.385	44
160.659	37.5
161.932	36
163.206	40
164.479	34
165.751	38
167.024	41
168.296	39
169.567	38
170.84	39.5
172.112	38
173.383	33
174.654	41
175.925	39.5
177.196	38
178.466	41.5
179.737	41
181.007	40
182.276	37
183.546	40.5
184.816	39
186.085	37.5
187.354	32
188.624	40.5
189.891	41
191.16	40
192.427	44
193.696	40.5
194.964	43
196.231	40
197.499	44
198.765	35
200.033	39
201.298	35.5
202.566	42.5
203.831	40.5
205.098	39.5
206.363	38
207.629	43.5
208.894	32.5
210.159	35.5
211.424	34.5
212.689	32
213.953	31
215.218	35
216.481	28
217.746	37
219.009	37
220.273	36
221.536	28.5
222.798	37
224.062	36
225.323	33
226.587	30
227.848	33.5
229.109	31
230.372	31.5
231.633	32
232.894	34.5
234.156	31
235.416	31
236.678	32
237.937	26
239.197	33
240.457	31
241.717	29
242.976	31.5
244.235	30.5
245.495	30.5
246.754	27.5
248.012	27
249.27	28
250.529	27.5
251.787	30
253.045	31
254.302	29
255.56	29
256.817	28
258.074	30
259.33	30.5
260.586	32
261.844	26
263.1	24.5
264.355	29.5
265.611	29
266.866	30.5
268.121	29
269.377	25
270.632	30
271.886	28
273.14	26
274.394	24.5
275.648	29
276.902	29
278.155	27
279.408	27.5
280.663	28
281.915	32.5
283.168	29.5
284.42	29.5
285.673	27
286.925	27.5
288.176	28
289.428	24
290.679	26.5
291.93	25.5
293.181	28
294.432	30
295.683	27.5
296.933	28
298.183	28
299.433	28.5
300.683	22.5
301.932	29
303.182	28
304.429	24.5
305.678	27
306.927	26
308.176	29
309.424	26
310.672	31
311.92	24
313.168	31
314.415	28
315.661	27.5
316.908	28
318.155	25
319.402	29
320.648	27
321.895	30
323.139	32.5
324.385	29.5
325.631	32
326.877	29.5
328.122	28
329.366	28.5
330.611	28
331.855	27
333.1	27
334.343	31
335.587	24.5
336.831	27.5
338.074	30.5
339.317	27
340.56	26
341.803	26
343.044	28
344.287	29
345.53	31
346.771	27.5
348.013	26
349.255	27
350.495	30
351.736	29
352.978	28.5
354.217	33
355.458	27
356.699	29
357.938	27.5
359.178	29.5
360.417	24.5
361.657	26.5
362.895	29.5
364.135	28
365.374	30
366.612	30
367.851	31
369.088	29.5
370.327	28
371.564	32
372.802	28
374.038	23.5
375.276	30
376.512	24
377.749	29
378.985	32.5
380.222	26.5
381.457	28.5
382.692	32
383.929	26.5
385.164	29.5
386.4	30
387.634	30
388.869	23.5
390.103	28.5
391.337	29
392.572	30.5
393.805	26
395.038	31
396.273	26
397.506	26.5
398.74	26
399.972	19.5
401.204	27
402.437	31
403.669	27
404.901	29
406.132	26.5
407.365	23
408.596	23.5
409.826	26.5
411.058	25
412.289	28
413.519	29.5
414.749	27
415.98	30.5
417.21	26
418.439	29
419.668	32
420.897	27.5
422.128	29.5
423.356	30.5
424.585	31.5
425.813	28.5
427.041	27
428.269	30.5
429.498	28
430.725	29.5
431.952	27.5
433.179	26.5
434.406	26.5
435.633	25
436.859	27
438.085	26
439.312	29
440.537	22.5
441.764	27
442.99	29
444.215	29
445.44	29.5
446.665	27.5
447.89	29
449.114	33.5
450.339	31.5
451.563	28.5
452.787	32.5
454.01	31
455.234	30
456.457	27.5
457.68	24
458.903	25.5
460.126	29.5
461.348	29.5
462.569	28
463.792	32.5
465.013	30.5
466.235	32.5
467.457	31
468.678	35.5
469.899	31.5
471.12	34
472.341	33
473.56	35.5
474.781	36
476.001	35.5
477.221	40.5
478.441	40
479.66	40.5
480.878	45.5
482.098	44
483.317	52
484.535	58
485.754	55.5
486.971	53
488.189	58
489.407	58
490.625	55
491.842	55
493.059	53.5
494.276	50.5
495.493	52.5
496.709	46.5
497.926	47.5
499.142	50
500.357	47
501.573	42.5
502.789	39.5
504.003	42.5
505.219	37
506.434	39
507.648	39.5
508.863	37
510.078	34
511.291	33
512.505	35
513.718	33.5
514.932	38
516.145	37.5
517.358	26
518.572	30.5
519.783	33
520.997	29.5
522.208	34.5
523.421	33
524.632	29.5
525.844	30
527.055	33
528.266	26
529.477	32
530.688	30
531.898	29.5
533.109	29.5
534.319	30
535.53	25
536.739	29.5
537.948	30.5
539.158	28
540.366	27.5
541.576	31.5
542.784	29
543.994	29
545.201	30
546.409	31.5
547.618	32.5
548.825	25
550.032	29.5
551.24	27
552.447	26.5
553.654	29
554.861	27
556.067	29
557.273	27
558.48	25
559.686	25.5
560.891	27
562.096	27.5
563.302	28
564.507	28.5
565.712	29
566.916	22
568.122	28
569.326	23.5
570.529	29
571.733	27.5
572.936	24
574.141	31.5
575.344	27
576.547	26
577.75	28.5
578.952	27
580.154	30.5
581.358	29
582.56	27.5
583.761	28.5
584.963	29
586.164	29.5
587.365	31.5
588.566	28
589.767	28
590.967	30
592.168	24.5
593.369	24.5
594.569	27.5
595.769	27.5
596.969	27.5
598.168	30
599.367	27
600.566	26
601.765	27
602.964	28.5
604.162	27.5
605.361	28.5
606.559	24.5
607.757	30.5
608.953	30
610.151	25.5
611.348	28
612.545	28
613.742	28
614.939	29
616.135	29
617.332	27.5
618.528	28
619.724	29.5
620.918	28
622.114	29.5
623.309	26.5
624.505	23
625.7	28
626.895	26
628.088	28.5
629.282	27
630.477	24
631.671	28
632.865	27.5
634.057	27.5
635.251	29
636.444	30.5
637.637	31.5
638.829	24
640.022	28
641.214	28.5
642.407	27
643.598	29.5
644.79	32.5
645.982	28.5
647.172	31.5
648.364	28
649.555	30
650.745	26.5
651.936	28
653.126	25.5
654.315	29.5
655.506	28
656.696	24
657.885	28
659.074	29
660.263	32.5
661.452	30
662.64	30
663.829	26
665.018	28
666.205	33
667.394	29
668.581	27
669.769	30.5
670.955	31.5
672.143	30
673.329	29.5
674.517	31
675.703	33
676.89	27
678.075	32
679.262	30
680.447	28
681.632	33
682.818	35
684.002	34
685.188	34.5
686.372	36.5
687.556	37
688.741	33
689.925	37.5
691.11	36
692.293	35
693.476	29.5
694.66	38
695.843	34
697.025	34
698.209	33.5
699.391	30
700.573	39
701.756	35
702.938	38
704.119	43
705.3	42
706.483	45
707.664	51
708.844	47.5
710.025	51
711.206	50.5
712.386	40
713.566	47
714.746	34
715.925	33.5
717.106	34.5
718.285	29.5
719.464	32
720.643	30
721.822	28.5
723	26.5
724.178	24
725.358	28
726.536	33.5
727.713	24.5
728.891	27
730.068	31
731.245	25.5
732.422	26.5
733.599	29
734.775	24
735.952	24
737.128	26
738.304	27
739.48	27.5
740.656	31
741.831	25.5
743.006	25.5
744.181	27
745.356	26.5
746.531	25
747.706	27.5
748.88	28.5
750.054	25.5
751.228	26.5
752.402	25
753.576	28.5
754.749	26
755.922	26.5
757.095	27.5
758.267	25.5
759.44	25
760.612	25
761.785	28.5
762.957	27.5
764.129	30
765.301	26
766.471	22
767.642	26
768.814	25.5
769.985	28
771.156	26
772.325	27.5
773.495	25.5
774.666	26
775.836	28
777.005	29
778.174	30
779.344	29
780.513	26
781.681	30
782.85	29.5
784.019	35
785.187	32.5
786.355	32
787.523	32.5
788.69	33
789.858	33
791.026	33
792.192	32
793.36	31.5
794.526	28.5
795.693	27.5
796.86	30
798.025	26.5
799.191	30.5
800.356	28
801.523	27.5
802.689	31.5
803.853	30.5
805.019	25.5
806.183	25.5
807.348	26.5
808.512	29
809.677	25.5
810.84	30
812.005	27.5
813.167	31.5
814.332	24.5
815.494	28
816.657	30
817.82	30.5
818.982	21.5
820.146	26.5
821.307	21.5
822.47	30.5
823.632	27
824.793	26.5
825.955	27
827.116	25.5
828.277	32
829.439	25.5
830.599	24.5
831.759	24
832.92	27.5
834.08	27.5
835.24	29
836.4	26
837.56	27.5
838.719	29.5
839.877	26
841.037	28.5
842.196	27.5
843.354	24
844.512	27
845.672	28
846.83	27.5
847.987	28.5
849.145	27
850.302	28
851.46	28.5
852.617	28.5
853.774	24.5
854.93	26
856.087	26
857.243	28.5
858.4	29
859.556	29
860.712	27
861.867	24.5
863.022	30.5
864.177	30.5
865.332	26.5
866.487	32.5
867.642	29.5
868.796	30
869.95	34
871.104	26.5
872.258	22.5
873.412	27
874.565	28.5
875.718	27.5
876.872	30.5
878.024	26
879.177	26.5
880.33	25
881.482	29
882.635	26
883.787	26
884.938	21.5
886.09	25.5
887.242	27.5
888.393	27.5
889.544	26
890.695	25.5
891.845	27
892.995	21
894.146	27
895.296	28.5
896.446	27
897.596	26.5
898.744	27.5
899.894	28.5
901.043	27
902.193	26
903.342	28.5
904.489	31.5
905.638	27
906.786	28.5
907.935	28
909.081	24.5
910.229	24
911.377	26.5
912.525	24
913.671	26.5
914.818	29
915.965	23.5
917.111	24.5
918.258	27
919.404	27
920.549	27
921.695	25
922.84	27
923.986	26
925.132	26.5
926.276	23
927.421	30
928.565	25
929.71	27.5
930.855	25.5
931.998	24.5
933.142	27.5
934.285	21.5
935.429	25.5
936.572	28
937.716	23
938.858	27
940.001	25.5
941.143	31
942.286	23
943.428	24.5
944.57	25
945.712	24
946.854	24.5
947.995	23
949.135	25
950.277	25.5
951.418	27
952.559	28.5
953.699	23
954.839	25
955.98	27.5
957.119	21.5
958.258	21
959.399	27
960.538	28.5
961.676	24
962.816	28
963.955	29
965.093	22.5
966.232	23.5
967.37	27.5
968.508	26
969.645	29.5
970.784	29.5
971.921	28
973.058	22
974.195	26
975.333	26
976.469	28
977.605	26.5
978.741	25.5
979.877	25
981.013	24.5
982.15	30.5
983.285	25
984.421	24.5
985.556	26
986.691	28
987.825	24
988.96	26
990.094	23
991.228	19.5
992.364	25
993.497	21
994.631	24.5
995.765	27.5
996.898	23
998.031	29
999.164	24.5
1000.3	28.5
1001.43	22.5
1002.56	25
1003.69	24.5
1004.83	24.5
1005.96	25.5
1007.09	22
1008.22	29.5
1009.35	27
1010.48	24
1011.61	24
1012.74	25
1013.88	26.5
1015.01	25
1016.14	23.5
1017.27	24
1018.4	24.5
1019.53	25.5
1020.65	22.5
1021.78	23.5
1022.91	22
1024.04	25
1025.17	27.5
1026.3	25.5
1027.43	25.5
1028.56	25
1029.68	23
1030.81	26
1031.94	24
1033.07	27.5
1034.19	24.5
1035.32	25
1036.45	23.5
1037.58	27
1038.7	24
1039.83	25
1040.95	25.5
1042.08	25
1043.21	28
1044.33	23
1045.46	27.5
1046.58	26
1047.71	24
1048.83	23
1049.96	25.5
1051.08	23
1052.21	24.5
1053.33	25
1054.45	22.5
1055.58	23
1056.7	30.5
1057.82	19
1058.95	28
1060.07	27.5
1061.19	27
1062.32	27
1063.44	25.5
1064.56	24
1065.68	30
1066.81	20
1067.93	25.5
1069.05	22
1070.17	25.5
1071.29	26
1072.41	27
1073.53	26
1074.65	26.5
1075.77	28
1076.89	21
1078.01	28
1079.13	27
1080.25	24
1081.37	25
1082.49	25.5
1083.61	24.5
1084.73	26
1085.85	26
1086.97	25
1088.09	24
1089.2	24
1090.32	25
1091.44	23.5
1092.56	21
1093.68	26
1094.79	17
1095.91	22.5
1097.03	24.5
1098.14	26.5
1099.26	25.5
1100.38	27
1101.49	27
1102.61	26
1103.73	24.5
1104.84	27.5
1105.96	25.5
1107.07	27.5
1108.19	28.5
1109.3	21.5
1110.42	21.5
1111.53	21
1112.65	25.5
1113.76	22.5
1114.88	23.5
1115.99	23
1117.1	24.5
1118.22	24
1119.33	26
1120.44	24.5
1121.56	25
1122.67	21
1123.78	26.5
1124.89	24
1126.01	24.5
1127.12	24
1128.23	24.5
1129.34	26
1130.45	22.5
1131.56	24.5
1132.67	23
1133.79	22
1134.9	26
1136.01	27
1137.12	26.5
1138.23	26.5
1139.34	20.5
1140.45	27
1141.56	22.5
1142.67	28
1143.78	23
1144.89	27
1145.99	25.5
1147.1	26
1148.21	26
1149.32	23
1150.43	22
1151.54	21.5
1152.65	26
1153.75	28.5
1154.86	26.5
1155.97	25.5
1157.08	27.5
1158.18	23
1159.29	21
1160.4	26
1161.5	23
1162.61	25.5
1163.72	26
1164.82	25.5
1165.93	26.5
1167.03	22.5
1168.14	27.5
1169.24	23.5
1170.35	23
1171.45	24.5
1172.56	25
1173.66	24.5
1174.77	23
1175.87	24
1176.98	26.5
1178.08	24
1179.18	28
1180.29	25.5
1181.39	25.5
1182.49	25.5
1183.6	26
1184.7	25
1185.8	23.5
1186.9	26
1188	23
1189.11	23
1190.21	22
1191.31	24
1192.41	26
1193.51	25
1194.61	21.022
1195.72	24.4308
1196.82	24.0316
1197.92	23.1451
1199.02	23.1044
1200.12	21.1699
1201.22	26.2068
1202.32	24.0482
1203.42	26.5272
1204.52	25.84
1205.62	22.5636
1206.71	24.9312
1207.81	25.1966
1208.91	24.7555
1210.01	24.9911
1211.11	24.4204
1212.21	22.6475
1213.31	22.4438
1214.4	22.1984
1215.5	21.3786
1216.6	23.4107
1217.7	24.0767
1218.79	26.2713
1219.89	23.1209
1220.99	22.3258
1222.08	26.7595
1223.18	24.2319
1224.28	23.7676
1225.37	22.1582
1226.47	24.1479
1227.56	23.5042
1228.66	24.3353
1229.76	25.1889
1230.85	23.5
1231.95	22.8436
1233.04	21.8447
1234.14	24.9129
1235.23	22.9828
1236.32	23.708
1237.42	25.2551
1238.51	23.2627
1239.61	22.7517
1240.7	23.9107
1241.79	21.657
1242.89	24.7664
1243.98	23.6152
1245.07	21.9065
1246.17	21.868
1247.26	26.817
1248.35	21.7073
1249.44	24.0012
1250.53	24.3077
1251.63	23.1643
1252.72	23.8573
1253.81	25.4366
1254.9	25.6944
1255.99	25.0485
1257.08	23.9717
1258.17	24.8435
1259.27	25.3778
1260.36	22.4052
1261.45	27.9597
1262.54	26.2639
1263.63	27.9759
1264.72	25.3601
1265.81	25.1438
1266.89	23.7509
1267.98	23.6495
1269.07	26.1661
1270.16	23.6115
1271.25	26.9604
1272.34	22.527
1273.43	23.6967
1274.52	24.5247
1275.6	24.0055
1276.69	22.836
1277.78	24.0244
1278.87	22.6189
1279.95	23.9587
1281.04	22.2345
1282.13	23.8687
1283.22	26.3775
1284.3	24.0557
1285.39	23.1168
1286.48	21.5964
1287.56	23.7148
1288.65	25.1189
1289.73	24.0446
1290.82	25.6889
1291.9	24.0482
1292.99	21.8429
1294.07	22.1967
1295.16	24.7656
1296.24	26.8541
1297.33	25.4968
1298.41	24.117
1299.5	23.6894
1300.58	23.7853
1301.66	24.0218
1302.75	23.7375
1303.83	23.7292
1304.91	24.0364
1306	23.3638
1306.4	23
1307.48	26
1308.57	21
1309.66	26
1310.75	21.5
1311.84	19.5
1312.92	25.5
1314.01	23
1315.1	22.5
1316.18	25
1317.27	25
1318.36	26
1319.44	23
1320.53	23.5
1321.62	27
1322.7	22
1323.79	24.5
1324.87	25
1325.96	22.5
1327.04	26.5
1328.13	21.5
1329.21	24
1330.3	23
1331.38	29
1332.47	21.5
1333.55	24
1334.64	21
1335.72	24.5
1336.8	24
1337.89	26
1338.97	23.5
1340.05	24
1341.14	20
1342.22	25
1343.3	27
1344.38	24
1345.47	24.5
1346.55	23.5
1347.63	28.5
1348.71	25.5
1349.79	26
1350.87	22.5
1351.96	22
1353.04	25
1354.12	24.5
1355.2	24.5
1356.28	25.5
1357.36	28
1358.44	24
1359.52	27.5
1360.6	26.5
1361.68	21
1362.76	24.5
1363.84	24.5
1364.92	28.5
1366	21
1367.07	21.5
1368.15	23
1369.23	21
1370.31	25
1371.39	22
1372.47	21.5
1373.54	27
1374.62	21
1375.7	28.5
1376.78	21
1377.85	26
1378.93	27
1380.01	20
1381.08	27
1382.16	24.5
1383.24	22
1384.31	27
1385.39	24.5
1386.46	23
1387.54	24.5
1388.61	27
1389.69	26.5
1390.76	27.5
1391.84	26.5
1392.91	25
1393.99	24.5
1395.06	27
1396.14	24.5
1397.21	22
1398.29	26
1399.36	27
1400.43	31.5
1401.51	29
1402.58	33
1403.65	28.5
1404.72	32
1405.8	29
1406.87	31
1407.94	32
1409.02	24
1410.09	31
1411.16	31
1412.23	30
1413.3	30
1414.37	32.5
1415.44	32.5
1416.51	32
1417.59	27
1418.66	26.5
1419.73	29.5
1420.8	26.5
1421.87	28
1422.94	29
1424.01	29.5
1425.08	27.5
1426.15	28.5
1427.22	24
1428.28	24.5
1429.35	26
1430.42	22
1431.49	22
1432.56	27.5
1433.63	29
1434.7	21.5
1435.76	26.5
1436.83	25
1437.9	24
1438.97	23
1440.03	27
1441.1	23.5
1442.17	21
1443.23	26
1444.3	26.5
1445.37	24
1446.43	24.5
1447.5	25.5
1448.57	26
1449.63	24.5
1450.7	23.5
1451.76	24
1452.83	26
1453.89	25
1454.96	26.5
1456.02	29
1457.09	27.5
1458.15	24.5
1459.22	25
1460.28	25.5
1461.34	23
1462.41	27
1463.47	24.5
1464.53	26
1465.6	26
1466.66	28
1467.72	21
1468.78	23.5
1469.85	26
1470.91	26
1471.97	24.5
1473.03	23
1474.1	26.5
1475.16	22
1476.22	27
1477.28	24
1478.34	20.5
1479.4	24
1480.46	26
1481.52	23
1482.58	25.5
1483.65	26
1484.71	27.5
1485.77	25
1486.82	24
1487.89	27.5
1488.94	27
1490	25
1491.06	24.5
1492.12	24
1493.18	28
1494.24	27
1495.3	22.5
1496.36	26.5
1497.41	26
1498.47	26
1499.53	26.5
1500.59	28
1501.65	23
1502.7	26
1503.76	24
1504.82	25.5
1505.87	25.5
1506.93	22.5
1507.99	25
1509.04	27.5
1510.1	29.5
1511.16	21
1512.21	23
1513.27	23
1514.32	26
1515.38	27.5
1516.43	23
1517.49	23.5
1518.54	27
1519.6	27
1520.65	24.5
1521.71	25
1522.76	25
1523.81	28
1524.87	24
1525.92	25
1526.98	25.5
1528.03	25
1529.08	24
1530.14	21
1531.19	27.5
1532.24	30
1533.29	23.5
1534.35	23.5
1535.4	23
1536.45	23
1537.5	24.5
1538.55	27.5
1539.61	23.5
1540.66	21
1541.71	24.5
1542.76	26
1543.81	22
1544.86	23.5
1545.91	28
1546.96	23
1548.01	23.5
1549.06	22.5
1550.11	25
1551.16	26
1552.21	24
1553.26	21
1554.31	24
1555.36	22.5
1556.41	21.5
1557.46	25
1558.5	20.5
1559.55	27
1560.6	23.5
1561.65	29.5
1562.7	25.5
1563.74	26.5
1564.79	24
1565.84	24.5
1566.89	25.5
1567.93	26
1568.98	23.5
1570.03	25
1571.07	21
1572.12	24
1573.17	24.5
1574.21	29
1575.26	25.5
1576.3	23.5
1577.35	28
1578.4	25.5
1579.44	21
1580.49	24.5
1581.53	25
1582.58	24
1583.62	23
1584.66	23
1585.71	24.5
1586.75	25
1587.8	26
1588.84	23.5
1589.88	23
1590.93	24
1591.97	21
1593.01	25.5
1594.06	21.5
1595.1	26.5
1596.14	26
1597.18	25
1598.23	23.5
1599.27	24
1600.31	26.5
1601.35	27
1602.39	25
1603.44	24.5
1604.48	22
1605.52	26
1606.56	29
1607.6	23.5
1608.64	24
1609.68	23.5
1610.72	23.5
1611.76	18
1612.8	23.5
1613.84	25.5
1614.88	25
1615.92	27.5
1616.96	24
1618	23.5
1619.04	27
1620.08	23.5
1621.12	23.5
1622.16	26
1623.19	25
1624.23	24
1625.27	25.5
1626.31	24.5
1627.35	25.5
1628.38	28.5
1629.42	28.5
1630.46	24
1631.49	24
1632.53	24.5
1633.57	24.5
1634.6	23
1635.64	20.5
1636.68	27.5
1637.71	24.5
1638.75	26
1639.79	18.5
1640.82	26.5
1641.86	24
1642.89	25
1643.93	24
1644.96	29
1646	24
1647.03	23.5
1648.07	22.5
1649.1	26.5
1650.13	23
1651.17	25.5
1652.2	24.5
1653.24	26
1654.27	26
1655.3	24.5
1656.34	26
1657.37	25
1658.4	20.5
1659.43	27
1660.47	27
1661.5	24
1662.53	24
1663.56	26
1664.6	24.5
1665.63	26.5
1666.66	27
1667.69	25
1668.72	27
1669.75	26
1670.78	24
1671.81	25
1672.85	23
1673.88	25.5
1674.91	28.5
1675.94	23
1676.97	25
1678	23.5
1679.03	26.5
1680.06	25
1681.09	23.5
1682.11	22.5
1683.14	27
1684.17	24
1685.2	28
1686.23	26.5
1687.26	26.5
1688.29	27.5
1689.31	25.5
1690.34	24
1691.37	24
1692.4	24
1693.42	24
1694.45	27.5
1695.48	27.5
1696.51	26
1697.53	23
1698.56	25.5
1699.59	22
1700.61	27.5
1701.64	23.5
1702.66	29
1703.69	25
1704.72	24.5
1705.74	22.5
1706.77	21.5
1707.79	27.5
1708.82	29.5
1709.84	26
1710.87	25
1711.89	23.5
1712.91	25
1713.94	23
1714.96	28
1715.99	24
1717.01	25.5
1718.03	27.5
1719.06	26.5
1720.08	26
1721.1	28
1722.13	20.5
1723.15	24.5
1724.17	28
1725.19	22
1726.22	24
1727.24	23.5
1728.26	26
1729.28	27
1730.3	21
1731.33	26.5
1732.35	23
1733.37	24
1734.39	24
1735.41	23.5
1736.43	23
1737.45	25
1738.47	24
1739.49	27
1740.51	19.5
1741.53	25
1742.55	24.5
1743.57	24.5
1744.59	23.5
1745.61	25.5
1746.63	26.5
1747.65	25.5
1748.67	24.5
1749.69	27
1750.7	25.5
1751.72	25
1752.74	25.5
1753.76	27
1754.78	20.5
1755.79	22
1756.81	26.5
1757.83	26
1758.85	27
1759.86	27.5
1760.88	26.5
1761.9	25.5
1762.91	21.5
1763.93	23
1764.95	26
1765.96	26
1766.98	23
1767.99	27
1769.01	23
1770.02	23.5
1771.04	26.5
1772.06	25.5
1773.07	23
1774.09	25.5
1775.1	23.5
1776.11	26
1777.13	24
1778.14	25.5
1779.16	24
1780.17	24
1781.18	22
1782.2	21
1783.21	25
1784.22	22
1785.24	25
1786.25	27.5
1787.26	25
1788.28	24.5
1789.29	22
1790.3	25
1791.31	24
1792.33	27
1793.34	27
1794.35	23.5
1795.36	21
1796.37	26.5
1797.38	24.5
1798.39	23
1799.4	23
1800.42	22
1801.43	23.5
1802.44	24
1803.45	23.5
1804.46	20
1805.47	28
1806.48	23.5
1807.49	27
1808.5	23
1809.51	26.5
1810.51	26.5
1811.52	26
1812.53	27
1813.54	25
1814.55	25
1815.56	21.5
1816.57	24
1817.57	21.5
1818.58	23
1819.59	23
1820.6	24.5
1821.61	23.5
1822.61	23
1823.62	28.5
1824.63	21
1825.63	24
1826.64	24
1827.65	25
1828.65	25.5
1829.66	27
1830.67	19.5
1831.67	28
1832.68	23
1833.68	26
1834.69	24.5
1835.69	21.5
1836.7	27.5
1837.7	26.5
1838.71	18.5
1839.71	23.5
1840.72	26
1841.72	25
1842.73	24
1843.73	21
1844.73	26
1845.74	21
1846.74	23
1847.74	24
1848.75	23
1849.75	22
1850.75	26
1851.76	25
1852.76	23
1853.76	25
1854.76	21
1855.77	24
1856.77	22
1857.77	23.5
1858.77	23
1859.77	25
1860.77	24
1861.78	23.5
1862.78	28.5
1863.78	28
1864.78	28
1865.78	23
1866.78	22.5
1867.78	23
1868.78	24.5
1869.78	23.5
1870.78	27.5
1871.78	27
1872.78	24.5
1873.78	25
1874.78	25
1875.78	26
1876.78	23.5
1877.78	24.5
1878.77	22
1879.77	27
1880.77	23
1881.77	22.5
1882.77	25.5
1883.77	24.5
1884.76	26
1885.76	25.5
1886.76	24
1887.75	23.5
1888.75	22
1889.75	24
1890.75	27
1891.74	24.5
1892.74	26
1893.73	25
1894.73	19
1895.73	25.5
1896.72	25.5
1897.72	21.5
1898.71	27
1899.71	26
1900.7	26
1901.7	25
1902.69	21
1903.69	27.5
1904.68	26.5
1905.68	25
1906.67	26.5
1907.67	27.5
1908.66	24
1909.65	22.5
1910.65	24
1911.64	25.5
1912.63	25.5
1913.63	23.5
1914.62	21
1915.61	25.5
1916.61	22
1917.6	23
1918.59	26
1919.58	20
1920.58	26
1921.57	28.5
1922.56	26
1923.55	23
1924.54	25.5
1925.54	27
1926.53	27.5
1927.52	25
1928.51	23.5
1929.5	23
1930.49	21
1931.48	24
1932.47	22.5
1933.46	25
1934.45	23
1935.44	22.5
1936.43	27.5
1937.42	24
1938.41	28
1939.4	28.5
1940.39	23
1941.38	22.5
1942.37	22
1943.35	24
1944.34	26
1945.33	24
1946.32	28
1947.31	26
1948.3	25.25
1949.28	23.5
1950.27	29
1951.26	26.5
1952.25	23
1953.23	26
1954.22	22.5
1955.21	21
1956.19	23
1957.18	22.5
1958.17	24
1959.15	24
1960.14	24
1961.12	21
1962.11	22
1963.1	23.5
1964.08	25
1965.07	25.5
1966.05	22
1967.04	24
1968.02	26.5
1969.01	25
1969.99	24
1970.98	19
1971.96	20.5
1972.94	20.5
1973.93	20
1974.91	23.5
1975.9	23
1976.88	28
1977.86	24
1978.85	25.5
1979.83	23
1980.81	30.5
1981.79	26.5
1982.78	26
1983.76	24.5
1984.74	23.5
1985.72	28.5
1986.71	24
1987.69	24.5
1988.67	26
1989.65	23
1990.63	23.5
1991.61	26
1992.59	27.5
1993.57	20.5
1994.56	25
1995.54	25.5
1996.52	24.5
1997.5	23
1998.48	26
1999.46	23
2000.44	22.5
2001.42	23
2002.4	25
2003.38	26.5
2004.36	21
2005.33	23.5
2006.31	23
2007.29	23.5
2008.27	21.5
2009.25	25.5
2010.23	24
2011.21	19
2012.18	25
2013.16	27
2014.14	23.5
2015.12	22
2016.09	20
2017.07	24
2018.05	23.5
2019.03	24.5
2020	25
2020.98	23
2021.96	23.5
2022.93	25
2023.91	21
2024.89	23
2025.86	23.5
2026.84	23.5
2027.81	21
2028.79	22.5
2029.76	24
2030.74	24
2031.71	23.5
2032.69	19.5
2033.66	22
2034.64	26.5
2035.61	25
2036.59	27
2037.56	22
2038.54	27
2039.51	24
2040.48	25
2041.46	23
2042.43	26
2043.4	22
2044.38	22.5
2045.35	22
2046.32	24
2047.29	21
2048.27	26
2049.24	24
2050.21	24.5
2051.18	23.5
2052.16	22.5
2053.13	25
2054.1	21.5
2055.07	24
2056.04	27
2057.01	22.5
2057.98	25.5
2058.96	26.5
2059.93	23.5
2060.9	22.5
2061.87	21
2062.84	22.5
2063.81	22
2064.78	20
2065.75	23
2066.72	20.5
2067.69	21
2068.66	23
2069.63	27
2070.6	24.5
2071.56	20
2072.53	22.5
2073.5	25
2074.47	26.5
2075.44	24.5
2076.41	24
2077.38	23.5
2078.34	21.5
2079.31	23
2080.28	25.5
2081.25	22
2082.21	23
2083.18	23
2084.15	22
2085.11	23.5
2086.08	19.5
2087.05	24
2088.01	25.5
2088.98	23
2089.95	21.5
2090.91	20
2091.88	24.5
2092.84	27.5
2093.81	22.5
2094.78	22
2095.74	23.5
2096.71	24
2097.67	23.5
2098.64	24.5
2099.6	25
2100.57	26
2101.53	21
2102.49	23
2103.46	25
2104.42	26
2105.39	17
2106.35	24
2107.31	21
2108.28	20.5
2109.24	24
2110.2	23.5
2111.17	24
2112.13	22
2113.09	20
2114.05	22.5
2115.02	21
2115.98	28
2116.94	23
2117.9	23
2118.86	25
2119.83	23
2120.79	26.5
2121.75	25.5
2122.71	27
2123.67	22.5
2124.63	23.5
2125.59	20.5
2126.55	21
2127.51	23
2128.47	20.5
2129.43	21
2130.39	25.5
2131.35	20.5
2132.31	26
2133.27	23
2134.23	25.5
2135.19	27.5
2136.15	20.5
2137.11	22
2138.07	24
2139.03	25.5
2139.99	25.5
2140.94	24.5
2141.9	25.5
2142.86	22.0034
2143.82	23.9182
2144.78	22.9873
2145.73	21.5956
2146.69	23.0218
2147.65	20.1588
2148.61	24.7268
2149.56	22.4151
2150.52	20.5531
2151.48	22.1586
2152.43	24.0133
2153.39	25.0057
2154.35	25.5308
2155.3	23.7563
2156.26	24.185
2157.21	21.914
2158.17	23.8135
2159.13	17.8236
2160.08	22.3798
2161.04	21.3854
2161.99	21.9824
2162.95	21.0581
2163.9	24.9539
2164.86	21.4952
2165.81	22.5415
2166.77	18.4049
2167.72	22.823
2168.67	19.4005
2169.63	22.2749
2170.58	22.1303
2171.54	22.1628
2172.49	23.7852
2173.44	24.1589
2174.4	22.0121
2175.35	19.7145
2176.3	25.1723
2177.26	23.5382
2178.21	21.3718
2179.16	23.1851
2180.11	22.9937
2181.07	21.0186
2182.02	22.9917
2182.97	20.8296
2183.92	19.4817
2184.87	19.8024
2185.82	22.0352
2186.78	23.1979
2187.73	22.1059
2188.68	23.8521
2189.63	20.1321
2190.58	22.4903
2191.53	21.7926
2192.48	22.7195
2193.43	24.4181
2194.38	22.0926
2195.33	20.5607
2196.28	20.5378
2197.23	22.3533
2198.18	22.9735
2199.13	22.8028
2200.08	23.2345
2201.03	24.3623
2201.98	24.9966
2202.93	22.8364
2203.88	23.6098
2204.83	22.4945
2205.77	22.319
2206.72	23.076
2207.67	24.2821
2208.62	23.0768
2209.57	21.2358
2210.52	21.8757
2211.46	22.1439
2212.41	20.4889
2213.36	22.3577
2214.31	23.8681
2215.25	24.3028
2216.2	21.8063
2217.15	21.3305
2218.09	23.9298
2219.04	22.8567
2219.99	23
2220.93	23.5432
2221.88	24.4687
2222.82	20.2539
2223.77	22.791
2224.72	24.8624
2225.66	22.2633
2226.61	20.6408
2227.55	22.5173
2228.5	20.8395
2229.44	21.1428
2230.39	24.2292
2231.33	22.4016
2232.28	23.0288
2233.22	23.3908
2234.16	22.6272
2235.11	22.1869
2236.05	20.5682
2237	19.6529
2237.94	20.8828
2238.88	20.1737
2239.83	21.5293
2240.13	22.5
2241.08	19.5
2242.03	25
2242.98	25
2243.92	23
2244.87	17
2245.82	23.5
2246.76	21
2247.71	22.5
2248.66	20.5
2249.61	26
2250.55	18.5
2251.5	21
2252.45	21.5
2253.39	22
2254.34	23.5
2255.28	23
2256.23	24
2257.18	22.5
2258.12	21.5
2259.07	22
2260.01	23.5
2260.96	24
2261.9	20
2262.85	19.5
2263.79	21
2264.74	22
2265.68	19
2266.63	22.5
2267.57	20.5
2268.51	24.5
2269.46	20.5
2270.4	17.5
2271.35	22.5
2272.29	22
2273.23	24
2274.18	23.5
2275.12	23.5
2276.06	23.5
2277	19.5
2277.95	23.5
2278.89	19
2279.83	22
2280.78	24.5
2281.72	22
2282.66	20
2283.6	22
2284.54	23
2285.48	23
2286.43	24.5
2287.37	22
2288.31	21.5
2289.25	23
2290.19	22
2291.13	26.5
2292.07	23
2293.01	24
2293.95	22.5
2294.89	22.5
2295.83	27
2296.77	23.5
2297.71	24.5
2298.65	27
2299.59	23
2300.53	20.5
2301.47	21.5
2302.41	24.5
2303.35	21.5
2304.29	23
2305.22	23.5
2306.16	22.5
2307.1	21
2308.04	22.5
2308.98	21
2309.91	23
2310.85	23
2311.79	25.5
2312.73	22
2313.66	24
2314.6	24.5
2315.54	20.5
2316.48	24
2317.41	23
2318.35	22.5
2319.29	25
2320.22	22.5
2321.16	23.5
2322.09	25.5
2323.03	24
2323.97	25
2324.9	17.5
2325.84	18.5
2326.77	26
2327.71	25.5
2328.64	25
2329.58	23
2330.51	21
2331.45	20.5
2332.38	22
2333.32	24
2334.25	28
2335.18	18
2336.12	22.5
2337.05	23
2337.99	22
2338.92	24
2339.85	24
2340.79	23.5
2341.72	22.5
2342.65	24
2343.59	24.5
2344.52	25
2345.45	24
2346.38	23
2347.32	26
2348.25	22
2349.18	23.5
2350.11	21.5
2351.04	19.5
2351.98	24
2352.91	25
2353.84	24.5
2354.77	25.5
2355.7	21.5
2356.63	19.5
2357.56	21
2358.49	29.5
2359.42	25
2360.35	22
2361.28	23
2362.21	23
2363.14	25
2364.07	29.5
2365	20.5
2365.93	27.5
2366.86	21.5
2367.79	24.5
2368.72	20
2369.65	24
2370.58	25
2371.51	22.5
2372.44	20
2373.36	21.5
2374.29	22
2375.22	24.5
2376.15	22
2377.08	25.5
2378	20.5
2378.93	22
2379.86	28
2380.79	25
2381.71	23
2382.64	25
2383.57	29.5
2384.49	23.5
2385.42	24.5
2386.35	21.5
2387.27	26
2388.2	20.5
2389.13	23.5
2390.05	22.5
2390.98	25
2391.9	25
2392.83	25.5
2393.76	23.5
2394.68	25.5
2395.61	26.5
2396.53	25.5
2397.46	19.5
2398.38	23
2399.3	22.5
2400.23	24
2401.15	25
2402.08	24
2403	24
2403.93	21.5
2404.85	26
2405.77	25
2406.7	27
2407.62	24
2408.54	22.5
2409.47	24.5
2410.39	24
2411.31	25
2412.24	25.5
2413.16	25
2414.08	21.5
2415	23.5
2415.92	25.5
2416.85	25
2417.77	23
2418.69	22.5
2419.61	20
2420.53	24.5
2421.45	21.5
2422.38	28
2423.3	23.5
2424.22	20.5
2425.14	26.5
2426.06	23.5
2426.98	19
2427.9	20.5
2428.82	21
2429.74	24.5
2430.66	25
2431.58	22.5
2432.5	24
2433.42	23.5
2434.34	23.5
2435.26	22.5
2436.18	26
2437.1	27
2438.01	20.5
2438.93	24.5
2439.85	24.5
2440.77	27.5
2441.69	22.5
2442.61	22.5
2443.52	21
2444.44	24.5
2445.36	22
2446.28	19
2447.2	23
2448.11	18.5
2449.03	20.5
2449.95	27
2450.86	26.5
2451.78	26.5
2452.7	25
2453.61	22
2454.53	18
2455.45	22.5
2456.36	27.5
2457.28	22
2458.2	24
2459.11	24
2460.03	24
2460.94	26.5
2461.86	22
2462.77	27.5
2463.69	21
2464.6	25
2465.52	27
2466.43	24.5
2467.35	24
2468.26	25
2469.18	25
2470.09	24
2471	27
2471.92	23.5
2472.83	24.5
2473.74	22.5
2474.66	24.5
2475.57	25
2476.48	25.5
2477.4	21
2478.31	24
2479.22	26
2480.14	25.5
2481.05	23
2481.96	25
2482.87	23.5
2483.79	26
2484.7	25
2485.61	26.5
2486.52	21
2487.43	25.5
2488.34	25.5
2489.25	26.5
2490.17	23.5
2491.08	23
2491.99	20.5
2492.9	23.5
2493.81	27.5
2494.72	24
2495.63	20.5
2496.54	24
2497.45	22.5
2498.36	25.5
2499.27	25
2500.18	25.5
2501.09	21.5
2502	20.5
2502.91	29
2503.82	23
2504.73	23.5
2505.63	18
2506.54	22
2507.45	26
2508.36	22
2509.27	26.5
2510.18	23
2511.09	22
2511.99	27
2512.9	26
2513.81	24
2514.72	23
2515.62	27.5
2516.53	23.5
2517.44	20
2518.34	25
2519.25	24
2520.16	25
2521.06	21.5
2521.97	23
2522.88	21
2523.78	25
2524.69	24.5
2525.6	24
2526.5	23
2527.41	24
2528.31	21
2529.22	28.5
2530.12	29
2531.03	22
2531.93	24
2532.84	26
2533.74	20.5
2534.65	23
2535.55	21
2536.46	23.5
2537.36	23.5
2538.27	24
2539.17	23
2540.07	25.5
2540.98	27
2541.88	23.5
2542.78	26
2543.69	24.5
2544.59	25.5
2545.49	22
2546.4	26.5
2547.3	26
2548.2	26
2549.1	25.5
2550.01	23.5
2550.91	25
2551.81	27
2552.71	24
2553.61	26
2554.52	26
2555.42	26
2556.32	23.5
2557.22	21.5
2558.12	24
2559.02	28
2559.92	19
2560.82	24
2561.72	26
2562.62	24
2563.53	24.5
2564.43	26
2565.33	25
2566.23	24.5
2567.13	27
2568.03	27.5
2568.92	25
2569.82	24
2570.72	26
2571.62	24.5
2572.52	26
2573.42	21.5
2574.32	20
2575.22	27.5
2576.12	24.5
2577.02	26
2577.91	21
2578.81	23
2579.71	21.5
2580.61	22
2581.5	22
2582.4	25.5
2583.3	25.5
2584.2	22
2585.09	21
2585.99	24.5
2586.89	25
2587.78	22.5
2588.68	21
2589.58	27
2590.47	24.5
2591.37	25
2592.27	25.5
2593.16	22.5
2594.06	26.5
2594.95	25.5
2595.85	23
2596.75	21.5
2597.64	23
2598.54	23.5
2599.43	22
2600.33	25
2601.22	21.5
2602.12	21.5
2603.01	24.5
2603.9	24.5
2604.8	23
2605.69	23
2606.59	22.5
2607.48	28
2608.37	20
2609.27	21
2610.16	25
2611.05	26
2611.95	21
2612.84	25.5
2613.73	22.5
2614.63	24.5
2615.52	28
2616.41	24.5
2617.3	19.5
2618.2	23.5
2619.09	23.5
2619.98	24.5
2620.87	25
2621.76	23
2622.66	22
2623.55	24.5
2624.44	25
2625.33	21
2626.22	24
2627.11	25.5
2628	26.5
2628.9	22
2629.79	26
2630.68	25
2631.57	23.5
2632.46	24
2633.35	21
2634.24	27.5
2635.13	24
2636.02	24.5
2636.91	23.5
2637.8	22
2638.68	23
2639.57	21
2640.46	22
2641.35	22.5
2642.24	22
2643.13	23
2644.02	28.5
2644.91	25
2645.79	22
2646.68	25.5
2647.57	25.5
2648.46	26
2649.35	23
2650.23	26.5
2651.12	23
2652.01	24
2652.9	24.5
2653.78	25
2654.67	23
2655.56	23
2656.44	21.5
2657.33	23.5
2658.22	24
2659.1	20
2659.99	27.5
2660.88	24
2661.76	30.5
2662.65	23.5
2663.53	23.5
2664.42	25
2665.3	23
2666.19	21
2667.07	24.5
2667.96	25.5
2668.84	24
2669.73	25.5
2670.61	22.5
2671.5	22
2672.38	26
2673.27	23.5
2674.15	24.5
2675.04	23.5
2675.92	28
2676.8	23
2677.69	27.5
2678.57	25
2679.45	18.5
2680.34	25
2681.22	27
2682.1	23
2682.99	24
2683.87	29
2684.75	23
2685.63	27.5
2686.52	24
2687.4	23
2688.28	20
2689.16	26.5
2690.04	26.5
2690.93	23.5
2691.81	25.5
2692.69	26
2693.57	24
2694.45	18
2695.33	19
2696.21	23.5
2697.09	24
2697.97	21.5
2698.85	22.5
2699.74	24.5
2700.62	25
2701.5	24
2702.38	23
2703.26	24.5
2704.14	24.5
2705.02	24
2705.89	23.5
2706.77	26.5
2707.65	19.5
2708.53	27.5
2709.41	23.5
2710.29	26.5
2711.17	24
2712.05	24
2712.93	25.5
2713.8	25.5
2714.68	24
2715.56	26
2716.44	21.5
2717.32	23.5
2718.19	23
2719.07	27
2719.95	27
2720.83	24.5
2721.7	24.5
2722.58	23.5
2723.46	24.5
2724.33	22
2725.21	26
2726.09	23
2726.97	25
2727.84	27
2728.72	25.5
2729.59	24.5
2730.47	23
2731.35	27
2732.22	23.5
2733.1	24
2733.97	22.5
2734.85	26
2735.72	23
2736.6	25
2737.47	26.5
2738.35	21
2739.22	22.5
2740.1	28
2740.97	25
2741.84	16
2742.72	23.5
2743.59	24
2744.47	23
2745.34	23
2746.21	27
2747.09	26
2747.96	23.5
2748.83	21
2749.71	26
2750.58	28
2751.45	24
2752.33	25
2753.2	23
2754.07	27
2754.94	21
2755.82	22
2756.69	24
2757.56	23
2758.43	24
2759.3	22
2760.18	24.5
2761.05	24
2761.92	23.5
2762.79	26
2763.66	24.5
2764.53	26.5
2765.4	27
2766.27	26
2767.14	25
2768.01	23.5
2768.88	24
2769.75	19
2770.62	22.5
2771.49	29
2772.36	26
2773.23	23
2774.1	27.5
2774.97	23
2775.84	25.5
2776.71	23.5
2777.58	24.5
2778.45	23
2779.32	26
2780.19	29
2781.06	21.5
2781.92	24.5
2782.79	24
2783.66	28.5
2784.53	25
2785.4	25
2786.26	25
2787.13	25
2788	29
2788.87	24.5
2789.73	22.5
2790.6	27
2791.47	24.5
2792.34	26
2793.2	25
2794.07	24
2794.94	27
2795.8	30.5
2796.67	27
2797.53	25
2798.4	24.5
2799.27	28
2800.13	24
2801	25.5
2801.86	26
2802.73	26
2803.59	25.5
2804.46	26.5
2805.32	31
2806.19	26.5
2807.05	27
2807.92	25
2808.78	23.5
2809.65	29.5
2810.51	26
2811.38	27
2812.24	24
2813.1	26.5
2813.97	26.5
2814.83	24
2815.7	25
2816.56	24.5
2817.42	28
2818.29	24.5
2819.15	29.5
2820.01	25
2820.87	24.5
2821.74	25
2822.6	26
2823.46	28
2824.32	26
2825.19	26.5
2826.05	28
2826.91	27.5
2827.77	22
2828.63	24
2829.5	26
2830.36	25
2831.22	27.5
2832.08	28.5
2832.94	23
2833.8	26
2834.66	26
2835.52	24
2836.38	25
2837.24	24.5
2838.1	26.5
2838.96	28
2839.82	24.5
2840.68	25.5
2841.54	31
2842.4	26.5
2843.26	23
2844.12	28
2844.98	27
2845.84	27.5
2846.7	24
2847.56	25.5
2848.42	27
2849.28	24
2850.14	27.5
2850.99	25.5
2851.85	31
2852.71	26
2853.57	26
2854.43	24
2855.28	29.5
2856.14	24
2857	29.5
2857.86	25
2858.71	29
2859.57	31
2860.43	27.5
2861.28	24
2862.14	26
2863	27
2863.86	24.5
2864.71	26
2865.57	25
2866.42	24
2867.28	24
2868.14	32
2868.99	24.5
2869.85	30.5
2870.7	23.5
2871.56	30.5
2872.41	32
2873.27	29
2874.13	28
2874.98	26.5
2875.83	29
2876.69	29.5
2877.54	27
2878.4	33.5
2879.25	28
2880.11	30
2880.96	33.5
2881.81	28
2882.67	34
2883.52	33
2884.38	32
2885.23	34.5
2886.08	31
2886.94	34
2887.79	38.5
2888.64	36
2889.5	36.5
2890.35	33.5
2891.2	37
2892.05	42.5
2892.91	40
2893.76	42.5
2894.61	43
2895.46	42
2896.31	50
2897.17	49.5
2898.02	51
2898.87	48
2899.72	55
2900.57	56.5
2901.42	55.5
2902.27	62
2903.12	69.5
2903.98	63
2904.83	72.5
2905.68	67.5
2906.53	70
2907.38	61.5
2908.23	64
2909.08	69.5
2909.93	56.5
2910.78	55.5
2911.63	63
2912.48	55.5
2913.33	49
2914.18	47.5
2915.02	44.5
2915.87	46.5
2916.72	44
2917.57	41.5
2918.42	42
2919.27	33
2920.12	38.5
2920.97	35
2921.81	34.5
2922.66	35.5
2923.51	27
2924.36	32
2925.21	32
2926.05	30
2926.9	24
2927.75	34
2928.59	26
2929.44	26
2930.29	24
2931.14	27
2931.98	29.5
2932.83	29
2933.68	30.5
2934.52	29.5
2935.37	28
2936.21	25.5
2937.06	25.5
2937.91	27
2938.75	30.5
2939.6	26
2940.44	29
2941.29	28
2942.14	27.5
2942.98	27.5
2943.82	27
2944.67	30
2945.51	22
2946.36	28
2947.2	29
2948.05	34.5
2948.89	32
2949.74	29
2950.58	26
2951.43	31.5
2952.27	32.5
2953.11	30.5
2953.96	31
2954.8	35
2955.64	33.5
2956.49	34.5
2957.33	30
2958.17	37
2959.02	41
2959.86	41
2960.7	39.5
2961.54	43
2962.39	40
2963.23	44
2964.07	38
2964.91	45.5
2965.75	43
2966.6	40
2967.44	42
2968.28	40
2969.12	40
2969.96	42
2970.8	39.5
2971.64	35.0097
2972.48	38.4154
2973.33	37.448
2974.17	40.3462
2975.01	33.9228
2975.85	32.4983
2976.69	35.1048
2977.53	34.5968
2978.37	32.2144
2979.21	33.2118
2980.05	29.0601
2980.89	28.218
2981.73	30.7148
2982.57	30.4376
2983.41	29.9456
2984.25	30.1839
2985.08	23.949
2985.92	26.7766
2986.76	26.1967
2987.6	26.7888
2988.44	27.8721
2989.28	24.3254
2990.12	24.1723
2990.96	25.7958
2991.79	23.5947
2992.63	26.3906
2993.47	26.8292
2994.31	24.7503
2995.14	27.0037
2995.98	27.6383
2996.82	23.3571
2997.66	25.7662
2998.49	23.3734
2999.33	25.083
3000.17	24.8413
3001	24.1452
3001.84	23.6541
3002.68	23.2665
3003.51	21.194
3004.35	25.6812
3005.19	25.5749
3006.02	21.7064
3006.86	22.3232
3007.7	20.9105
3008.53	23.3565
3009.37	23.2184
3010.2	23.3328
3011.04	24.2964
3011.87	22.0092
3012.71	22.5343
3013.54	22.1287
3014.38	23.827
3015.21	23.5857
3016.05	24.3476
3016.88	21.784
3017.72	20.4501
3018.55	20.4427
3019.39	23.5229
3020.22	23.6296
3021.05	21.0473
3021.89	20.7912
3022.72	21.2231
3023.55	20.9643
3024.39	20.8435
3025.22	20.6377
3026.05	21.6041
3026.89	21.5919
3027.72	22.5791
3028.55	22.2657
3029.39	21.2364
3030.22	21.885
3031.05	22.1092
3031.88	22.3886
3032.72	21.8479
3033.55	21.8023
3034.38	20.0575
3035.21	23.5915
3036.04	24.5891
3036.88	23.2673
3037.71	21.9126
3038.54	22.2743
3039.37	23.524
3040.2	24
3041.03	23.211
3041.86	21
3042.69	23.1139
3043.52	23.9492
3044.36	24.0581
3045.19	24.1552
3046.02	22.0622
3046.85	22.22
3047.68	22.368
3048.51	19.4113
3049.34	20.0548
3050.17	23.6802
3051	23.4983
3051.83	20.8955
3052.66	21.5723
3053.48	24.479
3054.31	25.3961
3055.14	23.3366
3055.97	20.3851
3056.8	19.928
3057.29	20.5
3058.12	21.5
3058.95	19.5
3059.79	25.5
3060.62	23.5
3061.45	24.5
3062.29	23.5
3063.12	23.5
3063.95	25
3064.78	25
3065.62	22
3066.45	21.5
3067.28	22.5
3068.11	21.5
3068.94	21.5
3069.77	23.5
3070.61	21.5
3071.44	20.5
3072.27	24
3073.1	20.5
3073.93	26
3074.76	21.5
3075.59	21.5
3076.42	21
3077.25	25.5
3078.08	24
3078.92	21.5
3079.74	25
3080.57	25
3081.41	22
3082.24	25
3083.06	22
3083.89	22
3084.72	25
3085.55	22.5
3086.38	21
3087.21	25.5
3088.04	24.5
3088.87	23
3089.7	24
3090.53	26
3091.36	24.5
3092.18	20.5
3093.01	25.5
3093.84	23.5
3094.67	20.5
3095.5	22
3096.32	24
3097.15	21
3097.98	24
3098.81	20
3099.64	24.5
3100.46	23
3101.29	22.5
3102.12	22
3102.94	23.5
3103.77	26.5
3104.6	21
3105.42	23.5
3106.25	19.5
3107.08	24.5
3107.9	21.5
3108.73	24
3109.56	28
3110.38	23
3111.21	24.5
3112.03	21.5
3112.86	20.5
3113.68	25
3114.51	22
3115.33	24
3116.16	23.5
3116.98	20
3117.81	22
3118.63	21.5
3119.46	22.5
3120.28	24
3121.11	22
3121.93	22
3122.76	19
3123.58	24.5
3124.4	26
3125.23	20.5
3126.05	22.5
3126.87	21.5
3127.7	22
3128.52	26
3129.34	25
3130.17	22.5
3130.99	25.5
3131.81	23
3132.64	23.5
3133.46	21
3134.28	22
3135.1	21.5
3135.93	24.5
3136.75	25
3137.57	23
3138.39	23
3139.21	23
3140.04	25
3140.86	26
3141.68	22.5
3142.5	23
3143.32	20.5
3144.14	21
3144.96	23.5
3145.78	22
3146.61	21.5
3147.43	22
3148.25	25
3149.07	25.5
3149.89	19.5
3150.71	23.5
3151.53	26.5
3152.35	25
3153.17	24.5
3153.99	25.5
3154.81	22.5
3155.63	23
3156.45	18
3157.27	24.5
3158.08	22.5
3158.9	23.5
3159.72	22
3160.54	21.5
3161.36	26.5
3162.18	21.5
3163	20
3163.82	24.5
3164.63	20
3165.45	17
3166.27	25.5
3167.09	21
3167.91	22
3168.72	25
3169.54	22
3170.36	25
3171.18	26
3171.99	22
3172.81	21
3173.63	20.5
3174.44	24
3175.26	19
3176.08	25.5
3176.89	22.5
3177.71	24.5
3178.53	22.5
3179.34	24
3180.16	25
3180.97	22
3181.79	20.5
3182.61	22
3183.42	25.5
3184.24	22.5
3185.05	24
3185.87	19
3186.68	27.5
3187.5	21
3188.31	22.5
3189.13	22
3189.94	23
3190.76	22
3191.57	24
3192.39	20
3193.2	21
3194.02	22.5
3194.83	24
3195.64	22
3196.46	28
3197.27	17.5
3198.08	24
3198.9	25.5
3199.71	24.5
3200.52	22
3201.34	27.5
3202.15	24.5
3202.96	19
3203.78	26
3204.59	22.5
3205.4	26
3206.21	28.5
3207.03	21.5
3207.84	20
3208.65	24.5
3209.46	19.5
3210.27	24
3211.09	21.5
3211.9	26
3212.71	24.5
3213.52	24
3214.33	23
3215.14	24
3215.95	25
3216.77	24.5
3217.58	23
3218.39	19.5
3219.2	23
3220.01	25
3220.82	21
3221.63	22.5
3222.44	23
3223.25	24.5
3224.06	24
3224.87	20
3225.68	19
3226.49	20.5
3227.3	23
3228.11	21.5
3228.92	26
3229.73	22
3230.53	25.5
3231.34	25
3232.15	24
3232.96	21
3233.77	27.5
3234.58	20
3235.39	27.5
3236.19	22.5
3237	25
3237.81	18
3238.62	18
3239.43	20.5
3240.23	22.5
3241.04	22
3241.85	20
3242.66	26.5
3243.46	20
3244.27	21
3245.08	23
3245.89	23.5
3246.69	24.5
3247.5	22.5
3248.31	28
3249.11	24
3249.92	22
3250.72	23.5
3251.53	20
3252.34	22
3253.14	21.5
3253.95	22.5
3254.75	22
3255.56	25
3256.36	23.5
3257.17	27
3257.98	26
3258.78	23
3259.59	20
3260.39	24
3261.19	19
3262	27
3262.8	25
3263.61	24
3264.41	19.5
3265.22	26.5
3266.02	23.5
3266.83	22
3267.63	27
3268.43	26.5
3269.24	24
3270.04	21
3270.84	21.5
3271.65	19
3272.45	26
3273.25	26
3274.06	21.5
3274.86	25
3275.66	26
3276.46	23.5
3277.27	23.5
3278.07	23.5
3278.87	22
3279.67	21.5
3280.48	24
3281.28	28
3282.08	21
3282.88	23
3283.68	24
3284.48	23.5
3285.29	25
3286.09	24
3286.89	25
3287.69	24.5
3288.49	24
3289.29	22
3290.09	28.5
3290.89	24
3291.69	21.5
3292.49	22
3293.29	25
3294.09	24.5
3294.89	27
3295.69	25
3296.49	21
3297.29	22
3298.09	26.5
3298.89	23.5
3299.69	22
3300.49	25
3301.29	22
3302.09	24
3302.89	21.5
3303.69	23
3304.49	26
3305.28	24.5
3306.08	24
3306.88	25
3307.68	21
3308.48	22.5
3309.28	22
3310.07	23.5
3310.87	24
3311.67	26
3312.47	26
3313.26	26
3314.06	25
3314.86	27.5
3315.66	24.5
3316.45	27.5
3317.25	23
3318.05	23.5
3318.84	25
3319.64	25.5
3320.44	21.5
3321.23	23
3322.03	26
3322.83	25.5
3323.62	20
3324.42	22.5
3325.21	24
3326.01	26
3326.81	26.5
3327.6	20
3328.4	25
3329.19	23
3329.99	26.5
3330.78	24
3331.58	22.5
3332.37	19.5
3333.17	25.5
3333.96	25
3334.76	24
3335.55	21
3336.34	22
3337.14	19
3337.93	20
3338.73	25
3339.52	22
3340.31	26
3341.11	25.5
3341.9	23
3342.69	20
3343.49	24
3344.28	22
3345.07	21.5
3345.87	24
3346.66	25.5
3347.45	23
3348.25	25
3349.04	24.5
3349.83	26
3350.62	25
3351.42	25
3352.21	24.5
3353	22
3353.79	26
3354.58	24
3355.37	20.5
3356.17	27
3356.96	25
3357.75	25.5
3358.54	24.5
3359.33	23.5
3360.12	23
3360.91	24.5
3361.7	25
3362.49	22
3363.29	19
3364.08	25
3364.87	22.5
3365.66	26
3366.45	25
3367.24	23
3368.03	25
3368.82	19.5
3369.61	25
3370.4	25.5
3371.19	23.5
3371.97	23
3372.76	24.5
3373.55	22
3374.34	24
3375.13	25
3375.92	25
3376.71	21
3377.5	21.5
3378.29	24
3379.07	27
3379.86	22
3380.65	27.5
3381.44	28.5
3382.23	24
3383.01	27.5
3383.8	22.5
3384.59	27.5
3385.38	25
3386.16	25
3386.95	23
3387.74	25
3388.53	20
3389.31	24.5
3390.1	21.5
3390.89	27
3391.67	22
3392.46	24
3393.25	23
3394.03	25
3394.82	24
3395.6	23
3396.39	23
3397.18	22
3397.96	24.5
3398.75	27
3399.53	26.5
3400.32	21.5
3401.1	24
3401.89	28
3402.67	21
3403.46	26
3404.24	23
3405.03	24
3405.81	24
3406.6	21.5
3407.38	25
3408.17	20.5
3408.95	23
3409.74	21.5
3410.52	24.5
3411.3	24
3412.09	25
3412.87	25.5
3413.65	26.5
3414.44	22
3415.22	23.5
3416	21.5
3416.79	22.5
3417.57	23
3418.35	23.5
3419.14	25
3419.92	25
3420.7	25
3421.48	23.5
3422.27	23
3423.05	25.5
3423.83	22.5
3424.61	24.5
3425.4	24.5
3426.18	22.5
3426.96	26.5
3427.74	21
3428.52	26.5
3429.3	22
3430.08	23
3430.87	27
3431.65	24
3432.43	22
3433.21	22.5
3433.99	23.5
3434.77	23
3435.55	26
3436.33	24.5
3437.11	22
3437.89	23
3438.67	25
3439.45	26.5
3440.23	19.5
3441.01	27
3441.79	19.5
3442.57	25
3443.35	22.5
3444.13	24.5
3444.91	20.5
3445.69	23
3446.47	20
3447.25	23.5
3448.03	25
3448.8	26.5
3449.58	27
3450.36	23.5
3451.14	25
3451.92	26
3452.7	21
3453.47	25
3454.25	23
3455.03	21
3455.81	21.5
3456.59	24
3457.36	24
3458.14	22
3458.92	24.5
3459.69	19
3460.47	23.5
3461.25	20.5
3462.03	25
3462.8	21.5
3463.58	18.5
3464.36	23.5
3465.13	24
3465.91	24
3466.69	25.5
3467.46	18.5
3468.24	23.5
3469.01	24
3469.79	20.5
3470.57	24.5
3471.34	26
3472.12	26
3472.89	28
3473.67	20
3474.44	23.5
3475.22	24.5
3475.99	26
3476.77	24
3477.54	24.5
3478.32	18
3479.09	27.5
3479.87	24.5
3480.64	24.5
3481.41	23
3482.19	24.5
3482.96	22
3483.74	23.5
3484.51	24
3485.28	23
3486.06	22
3486.83	23
3487.6	25
3488.38	24
3489.15	21
3489.92	21
3490.7	26
3491.47	26.5
3492.24	22
3493.01	24.5
3493.79	25.5
3494.56	25.5
3495.33	26
3496.1	22.5
3496.88	26.5
3497.65	20.5
3498.42	20.5
3499.19	18.5
3499.96	25.5
