#Acq. time (s)=	5
#Accumulations=	5
#Range (cm-¹)=	100...3500
#Windows=	4
#Autofocus=	Off
#AutoExposure=	Off
#Spike filter=	Multiple accum.
#Delay time (s)=	0
#Binning=	1
#Readout mode=	Signal
#DeNoise=	Off
#ICS correction=	Off
#Dark correction=	Off
#Inst. Process=	Off
#Instrument=	LabRAM HR Evol
#Detector=	Syncerity OE
#Objective=	x100_VIS
#Grating=	600 (500nm)
#ND Filter=	25%
#Laser=	633nm_Edge
#Hole=	100.021
#Range=	Visible
#Project=	verificaciones
#Sample=	at3
#Site=	plain
#Title=	bolusat3plain
#Remark=	com
#Date=	16.01.2026 17:05
#Acquired=	16.01.2026 17:05:33
100.564	27.5
101.847	34
103.131	33
104.414	33.5
105.697	27.5
106.979	28
108.262	32
109.544	29.5
110.826	30
112.109	32
113.391	27
114.672	28.5
115.954	31
117.235	31
118.515	30.5
119.796	33
121.076	31.5
122.357	32.5
123.637	30
124.916	29
126.196	26.5
127.475	31.5
128.754	35.5
130.033	35
131.31	31
132.589	28
133.867	31.5
135.145	36
136.423	29
137.701	34
138.978	36.5
140.256	35
141.533	37.5
142.809	35
144.086	39
145.361	38
146.637	40
147.913	37.5
149.189	41
150.464	37
151.74	39
153.014	40.5
154.288	38.5
155.563	40
156.838	43
158.112	44
159.385	41
160.659	39
161.932	36.5
163.206	40.5
164.479	36
165.751	39
167.024	43.5
168.296	40.5
169.567	40
170.84	41.5
172.112	40
173.383	35.5
174.654	37
175.925	40
177.196	36
178.466	39.5
179.737	40
181.007	40
182.276	38.5
183.546	44
184.816	40.5
186.085	39.5
187.354	41.5
188.624	40
189.891	42
191.16	40.5
192.427	39
193.696	42
194.964	36.5
196.231	37
197.499	39
198.765	36
200.033	37.5
201.298	39.5
202.566	37
203.831	35
205.098	38
206.363	35
207.629	39.5
208.894	38
210.159	34
211.424	32
212.689	35.5
213.953	37
215.218	39.5
216.481	31.5
217.746	34.5
219.009	36.5
220.273	34
221.536	36
222.798	34
224.062	31
225.323	31.5
226.587	31.5
227.848	35.5
229.109	33.5
230.372	31
231.633	35
232.894	31
234.156	30
235.416	29.5
236.678	31.5
237.937	30
239.197	34
240.457	26.5
241.717	32
242.976	30.5
244.235	31
245.495	32.5
246.754	31
248.012	30.5
249.27	29.5
250.529	23
251.787	30
253.045	27
254.302	35.5
255.56	29
256.817	30
258.074	29
259.33	29
260.586	27
261.844	30
263.1	29
264.355	27.5
265.611	31.5
266.866	33
268.121	27.5
269.377	25
270.632	29
271.886	28
273.14	27
274.394	25
275.648	27.5
276.902	26
278.155	30.5
279.408	27
280.663	24.5
281.915	27
283.168	29.5
284.42	29
285.673	29.5
286.925	32
288.176	23
289.428	28.5
290.679	28.5
291.93	27
293.181	28
294.432	28.5
295.683	26.5
296.933	29.5
298.183	29
299.433	24.5
300.683	29
301.932	26.5
303.182	27
304.429	27
305.678	27.5
306.927	28
308.176	28
309.424	28
310.672	28
311.92	23.5
313.168	29.5
314.415	29.5
315.661	29
316.908	27
318.155	26
319.402	29.5
320.648	29.5
321.895	28
323.139	27.5
324.385	26
325.631	24
326.877	25
328.122	25
329.366	27.5
330.611	28
331.855	22
333.1	25
334.343	27
335.587	30
336.831	25
338.074	26
339.317	27.5
340.56	32
341.803	30
343.044	28
344.287	27.5
345.53	25
346.771	26.5
348.013	29.5
349.255	26
350.495	27
351.736	30.5
352.978	28
354.217	31
355.458	31
356.699	26.5
357.938	26
359.178	29.5
360.417	27.5
361.657	25
362.895	27
364.135	26.5
365.374	24.5
366.612	24
367.851	27.5
369.088	25.5
370.327	27
371.564	26
372.802	28.5
374.038	26
375.276	30
376.512	29
377.749	27
378.985	27
380.222	31.5
381.457	25.5
382.692	29
383.929	29.5
385.164	24.5
386.4	27
387.634	32.5
388.869	30.5
390.103	23.5
391.337	28
392.572	24
393.805	27.5
395.038	29.5
396.273	29.5
397.506	30
398.74	26.5
399.972	29.5
401.204	27.5
402.437	27
403.669	26.5
404.901	27
406.132	33
407.365	26.5
408.596	25.5
409.826	24
411.058	27.5
412.289	21
413.519	26
414.749	23
415.98	30.5
417.21	29.5
418.439	24
419.668	28
420.897	27
422.128	29
423.356	27.5
424.585	30.5
425.813	25
427.041	31
428.269	26.5
429.498	24.5
430.725	30
431.952	30
433.179	27.5
434.406	28
435.633	30.5
436.859	26
438.085	26.5
439.312	31.5
440.537	29.5
441.764	23
442.99	26
444.215	26
445.44	29
446.665	32
447.89	28
449.114	32
450.339	31
451.563	24
452.787	28
454.01	27
455.234	29
456.457	30
457.68	26
458.903	26.5
460.126	35
461.348	29
462.569	34
463.792	33
465.013	29.5
466.235	30
467.457	32.5
468.678	34.5
469.899	32.5
471.12	33.5
472.341	31.5
473.56	38
474.781	37.5
476.001	36
477.221	37.5
478.441	38
479.66	44.5
480.878	50.5
482.098	46.5
483.317	51
484.535	50.5
485.754	59
486.971	56
488.189	55.5
489.407	59.5
490.625	62.5
491.842	57.5
493.059	59.5
494.276	52.5
495.493	56
496.709	48
497.926	50.5
499.142	49.5
500.357	48.5
501.573	44
502.789	38.5
504.003	36.5
505.219	42
506.434	37.5
507.648	34
508.863	37.5
510.078	34
511.291	35.5
512.505	36
513.718	35
514.932	32
516.145	35.5
517.358	32.5
518.572	30
519.783	31
520.997	35
522.208	31.5
523.421	33
524.632	31
525.844	25
527.055	31.5
528.266	29
529.477	31.5
530.688	32
531.898	31.5
533.109	29.5
534.319	31
535.53	22.5
536.739	32.5
537.948	33
539.158	26.5
540.366	28
541.576	26
542.784	28
543.994	29
545.201	27
546.409	28
547.618	26
548.825	33
550.032	30.5
551.24	29.5
552.447	31
553.654	30
554.861	30
556.067	30
557.273	28.5
558.48	26.5
559.686	26.5
560.891	29
562.096	28.5
563.302	28
564.507	25
565.712	23.5
566.916	29
568.122	30
569.326	25.5
570.529	25.5
571.733	30.5
572.936	28
574.141	29
575.344	29.5
576.547	30
577.75	26.5
578.952	28
580.154	26
581.358	28.5
582.56	25.5
583.761	32
584.963	25
586.164	27
587.365	24
588.566	24.5
589.767	29
590.967	28.5
592.168	27
593.369	27
594.569	30
595.769	29
596.969	26
598.168	26.5
599.367	28
600.566	28
601.765	30
602.964	28.5
604.162	25.5
605.361	27.5
606.559	31.5
607.757	28.5
608.953	29
610.151	28.5
611.348	27
612.545	32.5
613.742	30.5
614.939	26
616.135	26
617.332	27
618.528	28
619.724	26
620.918	28
622.114	30
623.309	27
624.505	28
625.7	25
626.895	23.5
628.088	31
629.282	29.5
630.477	27
631.671	26
632.865	30
634.057	27
635.251	32.5
636.444	32
637.637	28.5
638.829	26
640.022	29.5
641.214	29.5
642.407	30.5
643.598	30
644.79	27.5
645.982	34.5
647.172	28
648.364	33
649.555	30.5
650.745	26
651.936	32.5
653.126	26.5
654.315	25
655.506	25
656.696	30
657.885	27
659.074	29.5
660.263	26
661.452	30.5
662.64	27
663.829	26
665.018	31.5
666.205	26.5
667.394	27
668.581	30
669.769	28
670.955	31.5
672.143	32
673.329	31
674.517	27
675.703	28.5
676.89	30.5
678.075	29
679.262	31
680.447	33.5
681.632	31.5
682.818	33
684.002	33
685.188	40
686.372	33.5
687.556	34
688.741	35
689.925	33
691.11	36
692.293	29
693.476	35
694.66	36.5
695.843	33.5
697.025	35
698.209	31.5
699.391	35
700.573	40
701.756	40.5
702.938	36.5
704.119	40
705.3	45.5
706.483	44.5
707.664	51
708.844	52.5
710.025	47.5
711.206	48
712.386	41
713.566	44.5
714.746	35
715.925	32
717.106	32
718.285	35
719.464	28
720.643	31.5
721.822	33
723	34
724.178	24
725.358	30
726.536	28
727.713	30.5
728.891	28
730.068	26.5
731.245	27.5
732.422	31
733.599	26
734.775	25
735.952	25
737.128	27.5
738.304	31.5
739.48	28
740.656	29
741.831	24.5
743.006	24
744.181	28.5
745.356	31.5
746.531	27
747.706	25
748.88	26
750.054	25.5
751.228	28.5
752.402	26
753.576	30
754.749	29
755.922	30
757.095	28
758.267	24
759.44	25
760.612	27
761.785	25
762.957	27
764.129	26
765.301	29.5
766.471	28.5
767.642	29
768.814	30
769.985	28
771.156	26.5
772.325	27
773.495	31.5
774.666	28.5
775.836	28
777.005	30
778.174	26
779.344	27.5
780.513	31.5
781.681	29.5
782.85	26.5
784.019	31
785.187	27.5
786.355	29.5
787.523	29.5
788.69	30
789.858	30.5
791.026	32.5
792.192	34
793.36	30.5
794.526	29
795.693	30
796.86	30.5
798.025	30
799.191	28.5
800.356	27
801.523	25
802.689	28.5
803.853	31
805.019	32
806.183	28
807.348	25.5
808.512	28
809.677	28
810.84	24.5
812.005	27
813.167	27
814.332	28.5
815.494	32
816.657	24
817.82	30.5
818.982	29.5
820.146	24
821.307	25.5
822.47	28.5
823.632	28
824.793	28
825.955	24.5
827.116	29
828.277	30.5
829.439	27
830.599	28
831.759	22
832.92	30
834.08	27
835.24	26.5
836.4	27.5
837.56	26.5
838.719	26
839.877	27.5
841.037	26.5
842.196	28
843.354	30.5
844.512	25.5
845.672	24
846.83	25
847.987	28.5
849.145	30
850.302	24.5
851.46	30
852.617	29
853.774	27
854.93	29
856.087	29
857.243	26.5
858.4	30
859.556	28
860.712	29.5
861.867	31
863.022	32
864.177	33
865.332	28.5
866.487	29
867.642	29
868.796	26.5
869.95	33
871.104	28
872.258	25.5
873.412	26
874.565	27.5
875.718	25
876.872	31
878.024	28
879.177	26.5
880.33	30
881.482	29
882.635	27.5
883.787	26
884.938	24.5
886.09	22
887.242	32
888.393	23
889.544	23.5
890.695	26.5
891.845	28
892.995	24
894.146	29.5
895.296	26
896.446	27
897.596	27
898.744	28.5
899.894	23
901.043	26.5
902.193	25.5
903.342	28.5
904.489	25
905.638	21
906.786	25.5
907.935	25.5
909.081	24
910.229	28.5
911.377	27.5
912.525	22.5
913.671	29
914.818	25
915.965	27
917.111	27.5
918.258	26
919.404	26.5
920.549	25.5
921.695	24
922.84	25.5
923.986	26
925.132	27.5
926.276	28.5
927.421	24
928.565	27
929.71	24.5
930.855	30.5
931.998	25.5
933.142	26
934.285	28.5
935.429	25
936.572	29
937.716	25.5
938.858	20
940.001	30
941.143	24.5
942.286	25.5
943.428	29
944.57	25
945.712	22.5
946.854	20.5
947.995	29
949.135	27
950.277	25
951.418	30
952.559	25
953.699	23
954.839	25
955.98	23.5
957.119	28
958.258	26
959.399	23
960.538	26.5
961.676	22.5
962.816	29
963.955	25
965.093	24.5
966.232	28.5
967.37	29.5
968.508	25.5
969.645	21
970.784	23.5
971.921	26
973.058	27
974.195	27.5
975.333	27
976.469	23.5
977.605	24
978.741	27
979.877	25
981.013	27.5
982.15	28.5
983.285	24
984.421	28
985.556	26
986.691	23.5
987.825	23.5
988.96	27
990.094	26.5
991.228	27
992.364	25
993.497	27
994.631	28
995.765	26
996.898	23.5
998.031	26
999.164	25
1000.3	26.5
1001.43	24
1002.56	25.5
1003.69	28.5
1004.83	24
1005.96	27
1007.09	27.5
1008.22	26
1009.35	25
1010.48	21
1011.61	27
1012.74	25
1013.88	25
1015.01	24
1016.14	28.5
1017.27	24
1018.4	22.5
1019.53	23
1020.65	24
1021.78	30.5
1022.91	27
1024.04	25
1025.17	25
1026.3	26.5
1027.43	25
1028.56	25
1029.68	29.5
1030.81	25.5
1031.94	23
1033.07	27
1034.19	27
1035.32	25
1036.45	25
1037.58	26.5
1038.7	26
1039.83	22
1040.95	20
1042.08	21
1043.21	25.5
1044.33	26
1045.46	24.5
1046.58	23
1047.71	23.5
1048.83	22
1049.96	26
1051.08	24
1052.21	23.5
1053.33	23.5
1054.45	27
1055.58	26
1056.7	23.5
1057.82	27.5
1058.95	28
1060.07	24
1061.19	23.5
1062.32	24.5
1063.44	25
1064.56	24
1065.68	26
1066.81	27
1067.93	25.5
1069.05	25
1070.17	26.5
1071.29	25
1072.41	26
1073.53	23
1074.65	26.5
1075.77	26
1076.89	25.5
1078.01	25
1079.13	24.5
1080.25	21
1081.37	29.5
1082.49	25.5
1083.61	21
1084.73	25.5
1085.85	26
1086.97	21.5
1088.09	29
1089.2	24.5
1090.32	26
1091.44	25.5
1092.56	24.5
1093.68	26.5
1094.79	26
1095.91	28
1097.03	26.5
1098.14	23
1099.26	24.5
1100.38	27.5
1101.49	24.5
1102.61	30.5
1103.73	25
1104.84	24.5
1105.96	25.5
1107.07	26
1108.19	25.5
1109.3	24
1110.42	30.5
1111.53	27
1112.65	23
1113.76	25
1114.88	23.5
1115.99	27
1117.1	27.5
1118.22	27
1119.33	29.5
1120.44	23.5
1121.56	24.5
1122.67	24
1123.78	24
1124.89	25
1126.01	27
1127.12	20
1128.23	22
1129.34	23.5
1130.45	23.5
1131.56	25
1132.67	21
1133.79	23.5
1134.9	21
1136.01	22.5
1137.12	27.5
1138.23	24
1139.34	21.5
1140.45	23.5
1141.56	20.5
1142.67	24
1143.78	22.5
1144.89	23
1145.99	23
1147.1	23.5
1148.21	22.5
1149.32	22
1150.43	27
1151.54	26
1152.65	24
1153.75	24
1154.86	25.5
1155.97	21.5
1157.08	22.5
1158.18	23
1159.29	23.5
1160.4	24.5
1161.5	24.5
1162.61	22.5
1163.72	27
1164.82	25
1165.93	27
1167.03	26
1168.14	28.5
1169.24	23
1170.35	24.5
1171.45	25
1172.56	24
1173.66	21.5
1174.77	25
1175.87	22
1176.98	21
1178.08	23.5
1179.18	24
1180.29	24
1181.39	22
1182.49	28.5
1183.6	23
1184.7	25
1185.8	27
1186.9	22.5
1188	25
1189.11	23.5
1190.21	23.5
1191.31	23.5
1192.41	23
1193.51	27
1194.61	28.4708
1195.72	24.9317
1196.82	27.5471
1197.92	24.1679
1199.02	22.7452
1200.12	26.8989
1201.22	25.984
1202.32	24.4166
1203.42	20.6465
1204.52	27.2694
1205.62	24.551
1206.71	21.4206
1207.81	24.6534
1208.91	21.8585
1210.01	21.8703
1211.11	21.2474
1212.21	22.4211
1213.31	22.5573
1214.4	22.7869
1215.5	22.0983
1216.6	28.2029
1217.7	25.6558
1218.79	23.7381
1219.89	19.954
1220.99	21.7705
1222.08	21.986
1223.18	23.7219
1224.28	24.401
1225.37	25.1903
1226.47	26.3626
1227.56	23.0361
1228.66	23.3269
1229.76	18.9956
1230.85	24.954
1231.95	23.3546
1233.04	21.6893
1234.14	25.566
1235.23	23.7343
1236.32	22.2898
1237.42	23.2574
1238.51	23.2429
1239.61	23.5295
1240.7	22.0555
1241.79	22.3795
1242.89	22.6458
1243.98	23.9919
1245.07	24.1906
1246.17	25.9739
1247.26	22.5707
1248.35	24.0583
1249.44	26.1034
1250.53	25.2789
1251.63	23.8788
1252.72	26.2666
1253.81	26.6772
1254.9	25.0362
1255.99	24.0762
1257.08	25.3252
1258.17	25.5
1259.27	27.0104
1260.36	24.5077
1261.45	24.9029
1262.54	24.8338
1263.63	28.5219
1264.72	24.4455
1265.81	25.2217
1266.89	25.9
1267.98	26.0293
1269.07	25.2942
1270.16	25.0953
1271.25	21.7112
1272.34	22.597
1273.43	24.3865
1274.52	24.8568
1275.6	24.4466
1276.69	25.5901
1277.78	23.6
1278.87	23.1696
1279.95	22.6885
1281.04	22.5674
1282.13	24.9802
1283.22	24.3104
1284.3	23.3085
1285.39	23.8283
1286.48	25.6174
1287.56	23.4011
1288.65	21.9005
1289.73	21.9509
1290.82	23.2743
1291.9	26.7071
1292.99	25.5909
1294.07	24.2475
1295.16	25.3185
1296.24	23.3296
1297.33	23.7356
1298.41	23.4603
1299.5	23.9901
1300.58	24.0556
1301.66	24.6252
1302.75	23.1362
1303.83	21.4203
1304.91	23.5528
1306	25.6095
1306.4	26
1307.48	25.5
1308.57	25
1309.66	24.5
1310.75	24.5
1311.84	19.5
1312.92	24.5
1314.01	25.5
1315.1	27
1316.18	24
1317.27	22
1318.36	24.5
1319.44	31.5
1320.53	23.5
1321.62	22.5
1322.7	23.5
1323.79	23
1324.87	22.5
1325.96	23.5
1327.04	25.5
1328.13	21.5
1329.21	21
1330.3	26
1331.38	19
1332.47	23
1333.55	21
1334.64	23.5
1335.72	25
1336.8	24
1337.89	21.5
1338.97	30.5
1340.05	29
1341.14	20
1342.22	24.5
1343.3	29
1344.38	25
1345.47	22
1346.55	25
1347.63	20.5
1348.71	27
1349.79	25.5
1350.87	27
1351.96	26
1353.04	22
1354.12	24.5
1355.2	23.5
1356.28	21
1357.36	23.5
1358.44	27.5
1359.52	24
1360.6	24
1361.68	24.5
1362.76	24.5
1363.84	25.5
1364.92	26
1366	23.5
1367.07	24.5
1368.15	20
1369.23	29.5
1370.31	24
1371.39	24.5
1372.47	23.5
1373.54	24
1374.62	21
1375.7	24.5
1376.78	23
1377.85	27.5
1378.93	23
1380.01	26
1381.08	25.5
1382.16	27.5
1383.24	26.5
1384.31	30
1385.39	25
1386.46	26.5
1387.54	25
1388.61	24.5
1389.69	25
1390.76	25
1391.84	24.5
1392.91	23.5
1393.99	25
1395.06	29
1396.14	26
1397.21	25.5
1398.29	30.5
1399.36	27
1400.43	27
1401.51	25.5
1402.58	28
1403.65	29.5
1404.72	28
1405.8	32
1406.87	31
1407.94	27
1409.02	30.5
1410.09	31
1411.16	28.5
1412.23	24
1413.3	32.5
1414.37	32
1415.44	30.5
1416.51	30
1417.59	31.5
1418.66	26.5
1419.73	28.5
1420.8	27.5
1421.87	26
1422.94	27.5
1424.01	28
1425.08	24.5
1426.15	28.5
1427.22	27
1428.28	28
1429.35	28
1430.42	22.5
1431.49	21
1432.56	26.5
1433.63	27
1434.7	27
1435.76	26
1436.83	25.5
1437.9	27.5
1438.97	25
1440.03	27.5
1441.1	27
1442.17	27
1443.23	23
1444.3	26.5
1445.37	23
1446.43	28
1447.5	23.5
1448.57	25
1449.63	22.5
1450.7	22.5
1451.76	28
1452.83	23.5
1453.89	28
1454.96	27.5
1456.02	24
1457.09	27
1458.15	27
1459.22	25.5
1460.28	25.5
1461.34	28
1462.41	28.5
1463.47	26.5
1464.53	25.5
1465.6	25
1466.66	25.5
1467.72	26
1468.78	25
1469.85	27
1470.91	27.5
1471.97	24.5
1473.03	24
1474.1	24
1475.16	22
1476.22	21.5
1477.28	21.5
1478.34	22.5
1479.4	25
1480.46	24.5
1481.52	23
1482.58	23.5
1483.65	26
1484.71	27
1485.77	24
1486.82	24.5
1487.89	27
1488.94	22
1490	25.5
1491.06	20.5
1492.12	24
1493.18	22
1494.24	22
1495.3	26.5
1496.36	28
1497.41	23
1498.47	25
1499.53	26
1500.59	22
1501.65	28
1502.7	27
1503.76	27
1504.82	24.5
1505.87	23
1506.93	30
1507.99	28.5
1509.04	24
1510.1	22.5
1511.16	26
1512.21	26
1513.27	29
1514.32	26
1515.38	19.5
1516.43	26.5
1517.49	23.5
1518.54	24
1519.6	26
1520.65	24.5
1521.71	24.5
1522.76	21.5
1523.81	23
1524.87	23
1525.92	24.5
1526.98	24
1528.03	24
1529.08	23.5
1530.14	27
1531.19	25.5
1532.24	27
1533.29	26.5
1534.35	24
1535.4	26
1536.45	29.5
1537.5	25
1538.55	24.5
1539.61	25.5
1540.66	26
1541.71	25
1542.76	25.5
1543.81	26
1544.86	26
1545.91	26
1546.96	23.5
1548.01	21.5
1549.06	25
1550.11	22.5
1551.16	26
1552.21	30.5
1553.26	26
1554.31	26.5
1555.36	29.5
1556.41	24
1557.46	23
1558.5	24
1559.55	27.5
1560.6	24
1561.65	24
1562.7	26.5
1563.74	26.5
1564.79	22
1565.84	25.5
1566.89	24
1567.93	26.5
1568.98	25
1570.03	27
1571.07	25.5
1572.12	22.5
1573.17	25
1574.21	25
1575.26	25.5
1576.3	27.5
1577.35	25
1578.4	25.5
1579.44	29.5
1580.49	23
1581.53	24
1582.58	30
1583.62	24
1584.66	22
1585.71	27
1586.75	21
1587.8	25
1588.84	22
1589.88	22.5
1590.93	25.5
1591.97	25.5
1593.01	23
1594.06	26.5
1595.1	29.5
1596.14	25
1597.18	24.5
1598.23	26
1599.27	21.5
1600.31	25.5
1601.35	24
1602.39	24
1603.44	27
1604.48	24
1605.52	25
1606.56	25
1607.6	23.5
1608.64	21
1609.68	24
1610.72	22
1611.76	25
1612.8	21
1613.84	22
1614.88	22
1615.92	22.5
1616.96	26
1618	27
1619.04	21
1620.08	25
1621.12	26.5
1622.16	26.5
1623.19	22.5
1624.23	26.5
1625.27	27.5
1626.31	26.5
1627.35	25.5
1628.38	24
1629.42	24
1630.46	27
1631.49	23.5
1632.53	26.5
1633.57	26
1634.6	29
1635.64	22
1636.68	27
1637.71	25.5
1638.75	25
1639.79	23.5
1640.82	27.5
1641.86	21
1642.89	23
1643.93	23
1644.96	28.5
1646	30
1647.03	26
1648.07	24.5
1649.1	24
1650.13	23
1651.17	24.5
1652.2	28
1653.24	27.5
1654.27	21
1655.3	27
1656.34	24
1657.37	24.5
1658.4	28.5
1659.43	24.5
1660.47	24.5
1661.5	25
1662.53	27
1663.56	24.5
1664.6	26
1665.63	28
1666.66	27
1667.69	28.5
1668.72	26.5
1669.75	24
1670.78	20.5
1671.81	25.5
1672.85	23
1673.88	26.5
1674.91	26
1675.94	27
1676.97	24
1678	25
1679.03	21
1680.06	26.5
1681.09	25.5
1682.11	26.5
1683.14	18
1684.17	25
1685.2	26.5
1686.23	25
1687.26	24
1688.29	25.5
1689.31	27
1690.34	22
1691.37	24
1692.4	20
1693.42	25
1694.45	24.5
1695.48	24
1696.51	27
1697.53	24.5
1698.56	22.5
1699.59	22
1700.61	22
1701.64	29.5
1702.66	29.5
1703.69	23
1704.72	23
1705.74	24
1706.77	22
1707.79	26.5
1708.82	27
1709.84	26
1710.87	25.5
1711.89	22.5
1712.91	20.5
1713.94	21
1714.96	24.5
1715.99	26
1717.01	27
1718.03	25
1719.06	25.5
1720.08	25
1721.1	24
1722.13	25.5
1723.15	25.5
1724.17	25.5
1725.19	27
1726.22	25.5
1727.24	27
1728.26	21
1729.28	26
1730.3	23
1731.33	26
1732.35	21.5
1733.37	26.5
1734.39	22
1735.41	23.5
1736.43	23.5
1737.45	25
1738.47	24
1739.49	27
1740.51	20.5
1741.53	28.5
1742.55	23
1743.57	22.5
1744.59	23.5
1745.61	25.5
1746.63	28
1747.65	19.5
1748.67	25
1749.69	22
1750.7	30.5
1751.72	26
1752.74	26
1753.76	25.5
1754.78	29
1755.79	23
1756.81	28
1757.83	23.5
1758.85	27
1759.86	22.5
1760.88	24
1761.9	24
1762.91	26.5
1763.93	28
1764.95	23.5
1765.96	27
1766.98	20.5
1767.99	21
1769.01	25
1770.02	25
1771.04	26.5
1772.06	22
1773.07	25.5
1774.09	29
1775.1	24
1776.11	25
1777.13	26.5
1778.14	26.5
1779.16	24.5
1780.17	23.5
1781.18	26.5
1782.2	24
1783.21	22
1784.22	29
1785.24	23
1786.25	26
1787.26	24.5
1788.28	28.5
1789.29	23
1790.3	21.5
1791.31	26
1792.33	22.5
1793.34	26
1794.35	27
1795.36	22
1796.37	25.5
1797.38	22
1798.39	25.5
1799.4	24.5
1800.42	22
1801.43	22.5
1802.44	28
1803.45	24.5
1804.46	24
1805.47	23.5
1806.48	26
1807.49	22
1808.5	29
1809.51	26.5
1810.51	26.5
1811.52	28.5
1812.53	26
1813.54	27
1814.55	27.5
1815.56	23
1816.57	20
1817.57	22.5
1818.58	26.5
1819.59	22
1820.6	28.5
1821.61	25
1822.61	24
1823.62	23
1824.63	21.5
1825.63	24
1826.64	20.5
1827.65	24
1828.65	24
1829.66	26
1830.67	23.5
1831.67	28
1832.68	24
1833.68	26
1834.69	28.5
1835.69	24.5
1836.7	20.5
1837.7	28
1838.71	26.5
1839.71	25
1840.72	27
1841.72	24
1842.73	22
1843.73	24
1844.73	25
1845.74	27.5
1846.74	24
1847.74	27.5
1848.75	24
1849.75	24.5
1850.75	25.5
1851.76	28
1852.76	24.5
1853.76	27
1854.76	22.5
1855.77	28.5
1856.77	21.5
1857.77	25.5
1858.77	23.5
1859.77	20.5
1860.77	24.5
1861.78	23.5
1862.78	25
1863.78	22
1864.78	24.5
1865.78	23.5
1866.78	23
1867.78	23
1868.78	20.5
1869.78	23
1870.78	29
1871.78	23
1872.78	23
1873.78	24
1874.78	25.5
1875.78	23.5
1876.78	21
1877.78	24
1878.77	21
1879.77	22
1880.77	29.5
1881.77	25
1882.77	24
1883.77	26
1884.76	23
1885.76	28
1886.76	25.5
1887.75	25.5
1888.75	27.5
1889.75	23
1890.75	26.5
1891.74	24
1892.74	21
1893.73	25.5
1894.73	23.5
1895.73	25
1896.72	25
1897.72	24
1898.71	23
1899.71	27.5
1900.7	25
1901.7	26.5
1902.69	24.5
1903.69	24.5
1904.68	22.5
1905.68	24
1906.67	25.5
1907.67	26.5
1908.66	22.5
1909.65	30
1910.65	25
1911.64	27.5
1912.63	22.5
1913.63	21
1914.62	23.5
1915.61	22
1916.61	25
1917.6	20.5
1918.59	23.5
1919.58	26.5
1920.58	19.5
1921.57	23.5
1922.56	25
1923.55	25
1924.54	26.5
1925.54	23.5
1926.53	24.5
1927.52	24.5
1928.51	26
1929.5	23
1930.49	24.5
1931.48	27.5
1932.47	23.5
1933.46	20.5
1934.45	22.5
1935.44	24.5
1936.43	26
1937.42	26.5
1938.41	28.5
1939.4	26.5
1940.39	25
1941.38	25.5
1942.37	24
1943.35	24.5
1944.34	21.5
1945.33	22
1946.32	22.5
1947.31	25
1948.3	25.25
1949.28	25
1950.27	24
1951.26	23
1952.25	26
1953.23	26
1954.22	23
1955.21	25.5
1956.19	20
1957.18	25.5
1958.17	24
1959.15	21
1960.14	22.5
1961.12	25
1962.11	27
1963.1	25.5
1964.08	26
1965.07	22
1966.05	20
1967.04	25.5
1968.02	23.5
1969.01	24
1969.99	23.5
1970.98	20.5
1971.96	26.5
1972.94	26
1973.93	22
1974.91	18
1975.9	22
1976.88	26.5
1977.86	22
1978.85	27
1979.83	25
1980.81	21
1981.79	25
1982.78	21.5
1983.76	24.5
1984.74	24
1985.72	24
1986.71	22
1987.69	21
1988.67	25
1989.65	22.5
1990.63	25.5
1991.61	24
1992.59	23.5
1993.57	24
1994.56	28.5
1995.54	26
1996.52	21.5
1997.5	24.5
1998.48	22
1999.46	26
2000.44	23
2001.42	22
2002.4	23
2003.38	25
2004.36	23.5
2005.33	24.5
2006.31	23
2007.29	24
2008.27	23.5
2009.25	23.5
2010.23	21.5
2011.21	19.5
2012.18	26
2013.16	24
2014.14	23.5
2015.12	24.5
2016.09	21.5
2017.07	22.5
2018.05	26
2019.03	21.5
2020	24
2020.98	23
2021.96	24
2022.93	26
2023.91	21
2024.89	25
2025.86	21.5
2026.84	20
2027.81	24.5
2028.79	26
2029.76	23.5
2030.74	21
2031.71	22.5
2032.69	23
2033.66	22
2034.64	21
2035.61	26.5
2036.59	18
2037.56	22.5
2038.54	27
2039.51	21.5
2040.48	22
2041.46	23.5
2042.43	23.5
2043.4	26
2044.38	20
2045.35	26.5
2046.32	28
2047.29	23
2048.27	25
2049.24	21.5
2050.21	22
2051.18	23
2052.16	27
2053.13	22
2054.1	22.5
2055.07	23
2056.04	23.5
2057.01	23.5
2057.98	23
2058.96	21
2059.93	23
2060.9	23.5
2061.87	24
2062.84	25.5
2063.81	24
2064.78	21.5
2065.75	25
2066.72	24
2067.69	22
2068.66	27.5
2069.63	26
2070.6	21
2071.56	22.5
2072.53	23.5
2073.5	26.5
2074.47	23
2075.44	23
2076.41	24.5
2077.38	21.5
2078.34	23.5
2079.31	23.5
2080.28	23
2081.25	26
2082.21	24.5
2083.18	24.5
2084.15	26.5
2085.11	24.5
2086.08	25.5
2087.05	22.5
2088.01	22
2088.98	27
2089.95	23.5
2090.91	26
2091.88	22
2092.84	22.5
2093.81	22
2094.78	18
2095.74	20.5
2096.71	23
2097.67	21.5
2098.64	23.5
2099.6	22
2100.57	22.5
2101.53	22.5
2102.49	24
2103.46	23.5
2104.42	27
2105.39	21.5
2106.35	26.5
2107.31	25.5
2108.28	23.5
2109.24	21.5
2110.2	24
2111.17	19
2112.13	18
2113.09	22.5
2114.05	25
2115.02	24.5
2115.98	24.5
2116.94	22.5
2117.9	22.5
2118.86	28
2119.83	26
2120.79	26
2121.75	25.5
2122.71	24
2123.67	27
2124.63	19
2125.59	23
2126.55	24.5
2127.51	20
2128.47	21.5
2129.43	23
2130.39	24.5
2131.35	23.5
2132.31	23.5
2133.27	26
2134.23	20.5
2135.19	22
2136.15	21.5
2137.11	21
2138.07	23.5
2139.03	22
2139.99	20
2140.94	19.5
2141.9	27.5
2142.86	23.485
2143.82	22.9386
2144.78	18.6058
2145.73	23.0874
2146.69	20.0774
2147.65	22.5173
2148.61	23.4053
2149.56	22.4696
2150.52	21.6024
2151.48	23.0994
2152.43	23.0686
2153.39	24.8392
2154.35	21.1744
2155.3	21.6692
2156.26	22.865
2157.21	24.0593
2158.17	21.6963
2159.13	19.7352
2160.08	23.3409
2161.04	24.0964
2161.99	22.2964
2162.95	23.4981
2163.9	24.4441
2164.86	22.3762
2165.81	22.2526
2166.77	21.1015
2167.72	20.7769
2168.67	22.4676
2169.63	25.9531
2170.58	23.0132
2171.54	20.0554
2172.49	23.9211
2173.44	23.1387
2174.4	20.9533
2175.35	22.0373
2176.3	22.819
2177.26	22.1176
2178.21	21.3386
2179.16	24.0483
2180.11	21.8073
2181.07	21.607
2182.02	21.8956
2182.97	22.5331
2183.92	21.5637
2184.87	23.6884
2185.82	23.4649
2186.78	22.5486
2187.73	21.294
2188.68	23.9491
2189.63	25.3586
2190.58	24.2382
2191.53	22.6277
2192.48	21.4903
2193.43	21.9688
2194.38	20.8309
2195.33	22.0429
2196.28	23.2728
2197.23	24.3317
2198.18	22.6858
2199.13	24.0135
2200.08	24.3017
2201.03	23.9025
2201.98	23.1413
2202.93	21.6264
2203.88	21.9441
2204.83	22.0642
2205.77	21.3982
2206.72	24.4909
2207.67	21.1848
2208.62	22.203
2209.57	22.8958
2210.52	20.1242
2211.46	21.6526
2212.41	21.7136
2213.36	19.793
2214.31	18.6658
2215.25	20.8914
2216.2	21.557
2217.15	21.2003
2218.09	23.0002
2219.04	21.9028
2219.99	20.3552
2220.93	21.7349
2221.88	21.7889
2222.82	22.8155
2223.77	22.2368
2224.72	20.9389
2225.66	21.2661
2226.61	23.7599
2227.55	21.5523
2228.5	21.986
2229.44	21.9019
2230.39	20.8942
2231.33	23.2226
2232.28	23.7524
2233.22	19.0212
2234.16	19.3044
2235.11	22.497
2236.05	24.1689
2237	26.1117
2237.94	24.2465
2238.88	23.6595
2239.83	26.7073
2240.13	28
2241.08	23
2242.03	24.5
2242.98	27
2243.92	21
2244.87	24.5
2245.82	21
2246.76	23
2247.71	23.5
2248.66	23.5
2249.61	21
2250.55	24.5
2251.5	22.5
2252.45	22.5
2253.39	21.5
2254.34	20.5
2255.28	24.5
2256.23	20
2257.18	22
2258.12	25
2259.07	23.5
2260.01	21.5
2260.96	18.5
2261.9	21
2262.85	21
2263.79	22
2264.74	22.5
2265.68	24.5
2266.63	23
2267.57	20.5
2268.51	26.5
2269.46	21.5
2270.4	22.5
2271.35	22
2272.29	19.5
2273.23	24.5
2274.18	21.5
2275.12	21
2276.06	25.5
2277	20.5
2277.95	26
2278.89	23
2279.83	25.5
2280.78	22
2281.72	19
2282.66	21
2283.6	19
2284.54	19.5
2285.48	23
2286.43	22.5
2287.37	25
2288.31	20
2289.25	23.5
2290.19	21
2291.13	21.5
2292.07	23
2293.01	24.5
2293.95	21
2294.89	24
2295.83	22.5
2296.77	19
2297.71	23.5
2298.65	21
2299.59	15.5
2300.53	21
2301.47	22
2302.41	24.5
2303.35	26
2304.29	24.5
2305.22	25.5
2306.16	19.5
2307.1	23.5
2308.04	24
2308.98	23.5
2309.91	20.5
2310.85	25.5
2311.79	19.5
2312.73	21
2313.66	24
2314.6	21.5
2315.54	20.5
2316.48	21
2317.41	25.5
2318.35	22.5
2319.29	20
2320.22	21
2321.16	26
2322.09	24
2323.03	21.5
2323.97	24.5
2324.9	22
2325.84	22.5
2326.77	22.5
2327.71	22
2328.64	24
2329.58	24
2330.51	24
2331.45	22
2332.38	24
2333.32	23.5
2334.25	28
2335.18	22.5
2336.12	21.5
2337.05	22.5
2337.99	27
2338.92	26
2339.85	22
2340.79	26.5
2341.72	24
2342.65	27
2343.59	25.5
2344.52	27.5
2345.45	23
2346.38	23
2347.32	24
2348.25	22.5
2349.18	23
2350.11	25
2351.04	21
2351.98	24.5
2352.91	23
2353.84	23.5
2354.77	20
2355.7	20
2356.63	23
2357.56	23
2358.49	23.5
2359.42	21
2360.35	24.5
2361.28	24
2362.21	21
2363.14	18.5
2364.07	24
2365	24
2365.93	21.5
2366.86	20.5
2367.79	25
2368.72	24
2369.65	23
2370.58	20.5
2371.51	24
2372.44	22.5
2373.36	24
2374.29	20.5
2375.22	18.5
2376.15	21.5
2377.08	24
2378	21
2378.93	22
2379.86	24.5
2380.79	23
2381.71	21
2382.64	25
2383.57	24.5
2384.49	22.5
2385.42	22
2386.35	21.5
2387.27	26
2388.2	22
2389.13	24
2390.05	23
2390.98	20
2391.9	22.5
2392.83	24.5
2393.76	21
2394.68	22.5
2395.61	20.5
2396.53	25
2397.46	21.5
2398.38	22
2399.3	22.5
2400.23	19.5
2401.15	22
2402.08	21.5
2403	24
2403.93	22
2404.85	25
2405.77	24.5
2406.7	20
2407.62	28
2408.54	23
2409.47	27
2410.39	20.5
2411.31	25.5
2412.24	24
2413.16	27
2414.08	20
2415	23.5
2415.92	22.5
2416.85	26
2417.77	25.5
2418.69	27
2419.61	24.5
2420.53	24
2421.45	22
2422.38	26
2423.3	23
2424.22	21.5
2425.14	23.5
2426.06	23
2426.98	22.5
2427.9	20
2428.82	26
2429.74	25
2430.66	21
2431.58	25
2432.5	23
2433.42	25
2434.34	24
2435.26	22.5
2436.18	27
2437.1	24
2438.01	26
2438.93	17
2439.85	23.5
2440.77	21.5
2441.69	22.5
2442.61	22
2443.52	24
2444.44	25
2445.36	23.5
2446.28	25
2447.2	24
2448.11	24
2449.03	21.5
2449.95	24.5
2450.86	18.5
2451.78	26.5
2452.7	28
2453.61	26
2454.53	23
2455.45	24
2456.36	26
2457.28	22
2458.2	22
2459.11	23
2460.03	23
2460.94	21
2461.86	25
2462.77	26
2463.69	23
2464.6	22.5
2465.52	22.5
2466.43	24.5
2467.35	24
2468.26	25.5
2469.18	25
2470.09	23.5
2471	22
2471.92	23.5
2472.83	21
2473.74	24.5
2474.66	22.5
2475.57	25.5
2476.48	24
2477.4	19.5
2478.31	21
2479.22	26
2480.14	23.5
2481.05	23
2481.96	23.5
2482.87	21.5
2483.79	21.5
2484.7	24
2485.61	21.5
2486.52	26
2487.43	22
2488.34	22.5
2489.25	22.5
2490.17	22.5
2491.08	22.5
2491.99	21.5
2492.9	29
2493.81	22
2494.72	24.5
2495.63	23.5
2496.54	28
2497.45	29
2498.36	26
2499.27	25.5
2500.18	22
2501.09	24
2502	26.5
2502.91	26.5
2503.82	22
2504.73	20
2505.63	23.5
2506.54	25
2507.45	26
2508.36	28.5
2509.27	23.5
2510.18	21.5
2511.09	21.5
2511.99	25
2512.9	26
2513.81	28
2514.72	25.5
2515.62	25
2516.53	23.5
2517.44	21
2518.34	21.5
2519.25	24.5
2520.16	27
2521.06	21
2521.97	25.5
2522.88	23.5
2523.78	26.5
2524.69	25
2525.6	23
2526.5	22.5
2527.41	28
2528.31	21.5
2529.22	25
2530.12	28
2531.03	25
2531.93	23.5
2532.84	25
2533.74	21
2534.65	27.5
2535.55	25.5
2536.46	23.5
2537.36	29.5
2538.27	20.5
2539.17	22
2540.07	23
2540.98	29.5
2541.88	27
2542.78	24
2543.69	24.5
2544.59	23
2545.49	24.5
2546.4	27
2547.3	25
2548.2	26
2549.1	23
2550.01	26
2550.91	25
2551.81	23
2552.71	22
2553.61	27
2554.52	25.5
2555.42	23
2556.32	26
2557.22	22
2558.12	26.5
2559.02	21
2559.92	24
2560.82	23
2561.72	26
2562.62	26
2563.53	26.5
2564.43	24.5
2565.33	22.5
2566.23	23
2567.13	23
2568.03	25
2568.92	27.5
2569.82	25
2570.72	26
2571.62	28.5
2572.52	23.5
2573.42	24.5
2574.32	23.5
2575.22	22.5
2576.12	25.5
2577.02	26.5
2577.91	25
2578.81	23.5
2579.71	26.5
2580.61	25
2581.5	25.5
2582.4	24
2583.3	21.5
2584.2	24
2585.09	26
2585.99	24.5
2586.89	23
2587.78	28
2588.68	25
2589.58	23.5
2590.47	25
2591.37	24
2592.27	23.5
2593.16	25.5
2594.06	24.5
2594.95	23.5
2595.85	24
2596.75	22.5
2597.64	25
2598.54	23.5
2599.43	25
2600.33	22.5
2601.22	27
2602.12	26.5
2603.01	22
2603.9	25
2604.8	24.5
2605.69	24
2606.59	21
2607.48	25
2608.37	27
2609.27	25.5
2610.16	24.5
2611.05	23.5
2611.95	26
2612.84	26
2613.73	24.5
2614.63	23
2615.52	25
2616.41	21.5
2617.3	25
2618.2	26
2619.09	25.5
2619.98	21
2620.87	26.5
2621.76	21
2622.66	23
2623.55	25.5
2624.44	26
2625.33	21
2626.22	24.5
2627.11	22
2628	22
2628.9	15
2629.79	26
2630.68	25.5
2631.57	28
2632.46	23.5
2633.35	23
2634.24	26
2635.13	27
2636.02	25
2636.91	25
2637.8	26.5
2638.68	17
2639.57	23.5
2640.46	21
2641.35	21.5
2642.24	24
2643.13	23.5
2644.02	26.5
2644.91	24
2645.79	27
2646.68	26.5
2647.57	23
2648.46	24.5
2649.35	24
2650.23	26.5
2651.12	28
2652.01	27
2652.9	24.5
2653.78	28.5
2654.67	21.5
2655.56	24
2656.44	22.5
2657.33	23.5
2658.22	21.5
2659.1	24
2659.99	26
2660.88	23.5
2661.76	25.5
2662.65	24
2663.53	22.5
2664.42	25.5
2665.3	23
2666.19	26
2667.07	22
2667.96	26
2668.84	24.5
2669.73	26.5
2670.61	25
2671.5	19
2672.38	28
2673.27	23
2674.15	24.5
2675.04	23.5
2675.92	23.5
2676.8	17.5
2677.69	22
2678.57	21.5
2679.45	26
2680.34	24
2681.22	23.5
2682.1	22.5
2682.99	25
2683.87	22.5
2684.75	24
2685.63	23.5
2686.52	28.5
2687.4	24.5
2688.28	25
2689.16	23
2690.04	21.5
2690.93	21
2691.81	26.5
2692.69	26.5
2693.57	24
2694.45	24.5
2695.33	23
2696.21	22
2697.09	23
2697.97	24
2698.85	27
2699.74	22.5
2700.62	21
2701.5	26.5
2702.38	21
2703.26	28.5
2704.14	26
2705.02	27.5
2705.89	23
2706.77	28
2707.65	23
2708.53	25
2709.41	21
2710.29	21.5
2711.17	27.5
2712.05	22
2712.93	23.5
2713.8	28
2714.68	27
2715.56	24.5
2716.44	28
2717.32	22
2718.19	24
2719.07	26
2719.95	24.5
2720.83	25
2721.7	24.5
2722.58	21
2723.46	26.5
2724.33	23.5
2725.21	26.5
2726.09	21
2726.97	26.5
2727.84	23.5
2728.72	23
2729.59	22
2730.47	22
2731.35	22.5
2732.22	23
2733.1	25
2733.97	26.5
2734.85	26
2735.72	22.5
2736.6	21.5
2737.47	23.5
2738.35	28
2739.22	25
2740.1	26
2740.97	23
2741.84	25
2742.72	24.5
2743.59	25.5
2744.47	23.5
2745.34	24
2746.21	24
2747.09	25
2747.96	22
2748.83	23.5
2749.71	25
2750.58	26
2751.45	24.5
2752.33	25.5
2753.2	23
2754.07	26.5
2754.94	23
2755.82	28.5
2756.69	23
2757.56	25.5
2758.43	24
2759.3	23
2760.18	26
2761.05	22.5
2761.92	23.5
2762.79	27.5
2763.66	22
2764.53	27
2765.4	28
2766.27	25
2767.14	24
2768.01	25
2768.88	25
2769.75	24
2770.62	25
2771.49	22.5
2772.36	25
2773.23	24
2774.1	22
2774.97	24
2775.84	21
2776.71	24
2777.58	24
2778.45	24.5
2779.32	23.5
2780.19	27.5
2781.06	23.5
2781.92	26
2782.79	25
2783.66	24.5
2784.53	24
2785.4	23
2786.26	23.5
2787.13	26
2788	24.5
2788.87	22
2789.73	23.5
2790.6	26.5
2791.47	24.5
2792.34	24
2793.2	26
2794.07	27.5
2794.94	26
2795.8	23.5
2796.67	24
2797.53	27.5
2798.4	25
2799.27	27
2800.13	20
2801	23.75
2801.86	27
2802.73	25
2803.59	28
2804.46	22
2805.32	26
2806.19	28
2807.05	27
2807.92	26.5
2808.78	25.5
2809.65	32
2810.51	26
2811.38	24
2812.24	25.5
2813.1	26
2813.97	25.5
2814.83	24.5
2815.7	25
2816.56	28
2817.42	28
2818.29	25
2819.15	25
2820.01	26.5
2820.87	27.5
2821.74	27
2822.6	22
2823.46	26.5
2824.32	26
2825.19	25
2826.05	26.5
2826.91	23.5
2827.77	27.5
2828.63	26
2829.5	29.5
2830.36	24
2831.22	24
2832.08	25.5
2832.94	27
2833.8	25
2834.66	28
2835.52	21
2836.38	21
2837.24	27
2838.1	24
2838.96	26
2839.82	25
2840.68	24
2841.54	24
2842.4	26.5
2843.26	28.5
2844.12	25.5
2844.98	28.5
2845.84	26
2846.7	23
2847.56	27.5
2848.42	22.5
2849.28	31.5
2850.14	23.5
2850.99	28
2851.85	26
2852.71	26.5
2853.57	28.5
2854.43	23
2855.28	26.5
2856.14	21.5
2857	22.5
2857.86	25
2858.71	30
2859.57	23.5
2860.43	26.5
2861.28	25.5
2862.14	28
2863	25
2863.86	23
2864.71	24.5
2865.57	27
2866.42	25.5
2867.28	25.5
2868.14	25.5
2868.99	29.5
2869.85	28
2870.7	30.5
2871.56	27.5
2872.41	28.5
2873.27	24
2874.13	27
2874.98	27.5
2875.83	28
2876.69	32
2877.54	31.5
2878.4	31.5
2879.25	35.5
2880.11	30
2880.96	30
2881.81	32.5
2882.67	34
2883.52	35
2884.38	32
2885.23	25.5
2886.08	34.5
2886.94	31.5
2887.79	35
2888.64	34.5
2889.5	33.5
2890.35	35.5
2891.2	39
2892.05	34.5
2892.91	38.5
2893.76	41
2894.61	46
2895.46	45
2896.31	42
2897.17	51
2898.02	50.5
2898.87	51.5
2899.72	49
2900.57	57.5
2901.42	60
2902.27	63.5
2903.12	68
2903.98	65.5
2904.83	66.5
2905.68	70
2906.53	64.5
2907.38	66
2908.23	66
2909.08	66.5
2909.93	64.5
2910.78	63.5
2911.63	59
2912.48	56
2913.33	50
2914.18	47
2915.02	43.5
2915.87	42
2916.72	37
2917.57	45.5
2918.42	34
2919.27	36.5
2920.12	36
2920.97	40.5
2921.81	37.5
2922.66	35
2923.51	32.5
2924.36	30
2925.21	33
2926.05	31
2926.9	33.5
2927.75	30.5
2928.59	32
2929.44	29.5
2930.29	24
2931.14	30
2931.98	29.5
2932.83	29
2933.68	30
2934.52	31
2935.37	26
2936.21	27.5
2937.06	27
2937.91	27
2938.75	28.5
2939.6	24
2940.44	26
2941.29	30
2942.14	27
2942.98	31
2943.82	28.5
2944.67	30
2945.51	28.5
2946.36	24
2947.2	26
2948.05	30
2948.89	27
2949.74	26
2950.58	27.5
2951.43	29
2952.27	31.5
2953.11	25
2953.96	34
2954.8	33
2955.64	37.5
2956.49	33.5
2957.33	35
2958.17	37.5
2959.02	36
2959.86	36.5
2960.7	35.5
2961.54	43
2962.39	44.5
2963.23	40.5
2964.07	39.5
2964.91	41.5
2965.75	42
2966.6	38.5
2967.44	42.5
2968.28	41
2969.12	37.5
2969.96	44.5
2970.8	40
2971.64	39.4733
2972.48	36.4566
2973.33	35.0792
2974.17	36.0689
2975.01	35.4035
2975.85	31.7532
2976.69	31.0711
2977.53	32.0701
2978.37	33.7274
2979.21	30.6157
2980.05	29.8289
2980.89	27.0664
2981.73	27.8847
2982.57	27.2347
2983.41	23.7194
2984.25	24.2026
2985.08	29.2718
2985.92	28.915
2986.76	28.0526
2987.6	28.678
2988.44	28.1849
2989.28	27.0769
2990.12	25.7758
2990.96	23.0797
2991.79	23.7864
2992.63	23.3811
2993.47	23.6757
2994.31	22.267
2995.14	26.6832
2995.98	28.4337
2996.82	22.4181
2997.66	25.105
2998.49	26.5456
2999.33	24.0108
3000.17	24.7988
3001	23.6531
3001.84	23.2186
3002.68	22.9078
3003.51	24.0746
3004.35	23.1275
3005.19	21.4818
3006.02	21.602
3006.86	24.0502
3007.7	25.5778
3008.53	25.6166
3009.37	20.9052
3010.2	20.1872
3011.04	24.1435
3011.87	24.4611
3012.71	22.9583
3013.54	23.2305
3014.38	21.9429
3015.21	24.0469
3016.05	25.9583
3016.88	23.1322
3017.72	22.7099
3018.55	22.4082
3019.39	19.3657
3020.22	21.4228
3021.05	21.0691
3021.89	25.0603
3022.72	26.1906
3023.55	24.3561
3024.39	24.1145
3025.22	23.7721
3026.05	23.2234
3026.89	24.6772
3027.72	21.333
3028.55	21.6317
3029.39	22.3092
3030.22	22.3771
3031.05	23.3826
3031.88	22.9809
3032.72	21.7047
3033.55	21.7194
3034.38	21.9203
3035.21	22.4138
3036.04	23.5845
3036.88	24.1074
3037.71	22.4804
3038.54	21.7087
3039.37	22.0981
3040.2	22.8224
3041.03	22.2623
3041.86	22.5285
3042.69	22.1699
3043.52	21.6074
3044.36	22.655
3045.19	21.9583
3046.02	21.3039
3046.85	22.2427
3047.68	22.2791
3048.51	22.6327
3049.34	23.434
3050.17	22.4891
3051	22.5447
3051.83	24.6784
3052.66	25.8866
3053.48	25.7414
3054.31	22.9471
3055.14	23.2225
3055.97	23.2046
3056.8	22.1299
3057.29	23
3058.12	22
3058.95	21.5
3059.79	20.5
3060.62	19.5
3061.45	21
3062.29	20
3063.12	21
3063.95	22.5
3064.78	21
3065.62	26.5
3066.45	24.5
3067.28	23.5
3068.11	24.5
3068.94	26
3069.77	20
3070.61	22.5
3071.44	21
3072.27	24
3073.1	25
3073.93	20
3074.76	20.5
3075.59	24.5
3076.42	21
3077.25	21
3078.08	22
3078.92	20.5
3079.74	25.5
3080.57	22.5
3081.41	22
3082.24	25
3083.06	19.5
3083.89	22
3084.72	27
3085.55	23.5
3086.38	22
3087.21	24.5
3088.04	22
3088.87	24.5
3089.7	20
3090.53	20
3091.36	27.5
3092.18	23.5
3093.01	22
3093.84	23
3094.67	22.5
3095.5	21.5
3096.32	22
3097.15	25
3097.98	22
3098.81	24.5
3099.64	23.5
3100.46	24
3101.29	25
3102.12	24.5
3102.94	22.5
3103.77	28.5
3104.6	25
3105.42	20.5
3106.25	23.5
3107.08	22.5
3107.9	25
3108.73	21.5
3109.56	20.5
3110.38	22
3111.21	24
3112.03	22.5
3112.86	25.5
3113.68	23
3114.51	21
3115.33	25
3116.16	23.5
3116.98	25.5
3117.81	24.5
3118.63	25
3119.46	22
3120.28	22
3121.11	22
3121.93	23.5
3122.76	24
3123.58	23.5
3124.4	20.5
3125.23	24
3126.05	23.5
3126.87	23
3127.7	24.5
3128.52	27
3129.34	23
3130.17	23.5
3130.99	21.5
3131.81	24.5
3132.64	22
3133.46	22.5
3134.28	25
3135.1	23.5
3135.93	25.5
3136.75	21
3137.57	21.5
3138.39	23
3139.21	25
3140.04	28
3140.86	25
3141.68	26.5
3142.5	27
3143.32	20
3144.14	26
3144.96	21
3145.78	25.5
3146.61	19
3147.43	20
3148.25	25
3149.07	23.5
3149.89	22
3150.71	25
3151.53	19.5
3152.35	21
3153.17	22
3153.99	26
3154.81	24
3155.63	25
3156.45	25
3157.27	26
3158.08	24.5
3158.9	24
3159.72	23.5
3160.54	23
3161.36	27
3162.18	27
3163	22.5
3163.82	19.5
3164.63	22.5
3165.45	24.5
3166.27	24.5
3167.09	21.5
3167.91	23.5
3168.72	22.5
3169.54	22.5
3170.36	22.5
3171.18	25
3171.99	20
3172.81	24
3173.63	22
3174.44	24
3175.26	22
3176.08	24
3176.89	23.5
3177.71	23.5
3178.53	23.5
3179.34	26
3180.16	24.5
3180.97	20.5
3181.79	25
3182.61	23
3183.42	18
3184.24	25.5
3185.05	24.5
3185.87	24
3186.68	21
3187.5	22.5
3188.31	22
3189.13	23
3189.94	22
3190.76	21
3191.57	26.5
3192.39	20
3193.2	23
3194.02	21.5
3194.83	24.5
3195.64	25.5
3196.46	25
3197.27	23
3198.08	27
3198.9	21.5
3199.71	20
3200.52	25
3201.34	25.5
3202.15	25
3202.96	23
3203.78	22
3204.59	24.5
3205.4	22
3206.21	27
3207.03	24.5
3207.84	24
3208.65	25
3209.46	24.5
3210.27	20.5
3211.09	25
3211.9	22.5
3212.71	26.5
3213.52	24.5
3214.33	26
3215.14	23
3215.95	23
3216.77	23.5
3217.58	25
3218.39	20.5
3219.2	22.5
3220.01	22
3220.82	23.5
3221.63	22.5
3222.44	23
3223.25	23.5
3224.06	22
3224.87	24
3225.68	25
3226.49	25
3227.3	21.5
3228.11	23
3228.92	26
3229.73	27
3230.53	26.5
3231.34	23
3232.15	24
3232.96	22
3233.77	27
3234.58	29
3235.39	25.5
3236.19	25.5
3237	26
3237.81	26
3238.62	23.5
3239.43	22.5
3240.23	23
3241.04	25
3241.85	24.5
3242.66	28.5
3243.46	26
3244.27	19
3245.08	24
3245.89	24.5
3246.69	23
3247.5	27
3248.31	20
3249.11	24
3249.92	25
3250.72	23.5
3251.53	24.5
3252.34	20.5
3253.14	24
3253.95	19
3254.75	23
3255.56	18.5
3256.36	27
3257.17	19
3257.98	24.5
3258.78	20
3259.59	24
3260.39	22.5
3261.19	26
3262	24
3262.8	24.5
3263.61	23.5
3264.41	23
3265.22	23.5
3266.02	25.5
3266.83	25
3267.63	25.5
3268.43	21
3269.24	25.5
3270.04	23
3270.84	21
3271.65	25.5
3272.45	24.5
3273.25	20.5
3274.06	22
3274.86	20
3275.66	24
3276.46	24.5
3277.27	22
3278.07	26
3278.87	23
3279.67	25
3280.48	22.5
3281.28	23
3282.08	27.5
3282.88	23
3283.68	27
3284.48	24.5
3285.29	23
3286.09	21.5
3286.89	23
3287.69	24.5
3288.49	23
3289.29	27
3290.09	23
3290.89	25
3291.69	19
3292.49	24
3293.29	22
3294.09	24.5
3294.89	22
3295.69	25.5
3296.49	25
3297.29	22
3298.09	27
3298.89	23.5
3299.69	23
3300.49	23.5
3301.29	23
3302.09	24.5
3302.89	24
3303.69	21
3304.49	23
3305.28	26
3306.08	25
3306.88	23.5
3307.68	26
3308.48	21
3309.28	26
3310.07	20
3310.87	21.5
3311.67	24
3312.47	24
3313.26	24
3314.06	23
3314.86	24
3315.66	22
3316.45	20.5
3317.25	23
3318.05	23
3318.84	26.5
3319.64	22
3320.44	28.5
3321.23	24.5
3322.03	27
3322.83	22.5
3323.62	21
3324.42	20
3325.21	24
3326.01	25.5
3326.81	22.5
3327.6	25.5
3328.4	23.5
3329.19	27
3329.99	24
3330.78	22.5
3331.58	23.5
3332.37	19
3333.17	25
3333.96	27
3334.76	25.5
3335.55	24
3336.34	25
3337.14	22
3337.93	25
3338.73	21
3339.52	23.5
3340.31	24.5
3341.11	21
3341.9	23.5
3342.69	21.5
3343.49	22
3344.28	22
3345.07	25.5
3345.87	24
3346.66	23
3347.45	24
3348.25	21
3349.04	26
3349.83	29
3350.62	22.5
3351.42	22
3352.21	24
3353	23.5
3353.79	23.5
3354.58	22.5
3355.37	25
3356.17	20
3356.96	25.5
3357.75	24.5
3358.54	26
3359.33	23
3360.12	21.5
3360.91	22.5
3361.7	27.5
3362.49	22
3363.29	24
3364.08	23
3364.87	21.5
3365.66	21
3366.45	23
3367.24	21
3368.03	24
3368.82	25.5
3369.61	23.5
3370.4	27
3371.19	23.5
3371.97	23.5
3372.76	23
3373.55	19.5
3374.34	25.5
3375.13	23
3375.92	28.5
3376.71	25
3377.5	24.5
3378.29	25
3379.07	20
3379.86	23.5
3380.65	21
3381.44	26
3382.23	23
3383.01	26
3383.8	24.5
3384.59	25
3385.38	20.5
3386.16	24.5
3386.95	24
3387.74	23.5
3388.53	19
3389.31	26
3390.1	25
3390.89	22.5
3391.67	22.5
3392.46	25.5
3393.25	27
3394.03	22.5
3394.82	21.5
3395.6	23
3396.39	28.5
3397.18	23.5
3397.96	26
3398.75	26.5
3399.53	23.5
3400.32	23.5
3401.1	26
3401.89	24
3402.67	25.5
3403.46	22
3404.24	25
3405.03	23.5
3405.81	26
3406.6	23.5
3407.38	25
3408.17	24.5
3408.95	27
3409.74	23
3410.52	22
3411.3	24
3412.09	21
3412.87	25
3413.65	19.5
3414.44	23.5
3415.22	27.5
3416	23
3416.79	26.5
3417.57	22
3418.35	22
3419.14	24.5
3419.92	23.5
3420.7	22.5
3421.48	24.5
3422.27	25
3423.05	25
3423.83	20
3424.61	24
3425.4	24
3426.18	25
3426.96	24.5
3427.74	26
3428.52	24
3429.3	23
3430.08	24.5
3430.87	21
3431.65	24.5
3432.43	27
3433.21	22.5
3433.99	26
3434.77	27
3435.55	25
3436.33	23.5
3437.11	23
3437.89	24
3438.67	21
3439.45	23
3440.23	26
3441.01	23
3441.79	25.5
3442.57	20
3443.35	22.5
3444.13	21
3444.91	25
3445.69	26
3446.47	22
3447.25	24.5
3448.03	27
3448.8	22
3449.58	24.5
3450.36	22
3451.14	24
3451.92	20.5
3452.7	23.5
3453.47	23.5
3454.25	25
3455.03	24
3455.81	23.5
3456.59	26.5
3457.36	22.5
3458.14	22.5
3458.92	25
3459.69	20
3460.47	25
3461.25	22.5
3462.03	25
3462.8	28
3463.58	20
3464.36	26.5
3465.13	23.5
3465.91	20.5
3466.69	23
3467.46	24.5
3468.24	25
3469.01	23.5
3469.79	23.5
3470.57	22.5
3471.34	21.5
3472.12	25
3472.89	22
3473.67	21
3474.44	24
3475.22	21.5
3475.99	26
3476.77	20.5
3477.54	25
3478.32	25
3479.09	25.5
3479.87	28
3480.64	23.5
3481.41	25.5
3482.19	20
3482.96	26.5
3483.74	23.5
3484.51	22
3485.28	23
3486.06	25
3486.83	28.5
3487.6	24.5
3488.38	21.5
3489.15	22.5
3489.92	24.5
3490.7	25
3491.47	25
3492.24	27
3493.01	21
3493.79	22.5
3494.56	19.5
3495.33	24
3496.1	18
3496.88	23
3497.65	22
3498.42	24
3499.19	25
3499.96	24
