#Acq. time (s)=	3
#Accumulations=	3
#Range (cm-¹)=	100...3000
#Windows=	3
#Autofocus=	Off
#AutoExposure=	Off
#Spike filter=	Multiple accum.
#Delay time (s)=	0
#Binning=	1
#Readout mode=	Signal
#DeNoise=	Off
#ICS correction=	Off
#Dark correction=	Off
#Inst. Process=	Off
#Instrument=	LabRAM HR Evol
#Detector=	Syncerity OE
#Objective=	x100_VIS_LWD
#Grating=	600 (500nm)
#ND Filter=	25%
#Laser=	633nm_Edge
#Hole=	100.021
#Range=	Visible
#Project=	Bolus
#Sample=	A2
#Site=	stripside
#Title=	m01
#Remark=	
#Date=	03.11.2025 19:22
#Acquired=	03.11.2025 19:22:25
100.969	36
102.252	41
103.535	40
104.818	38
106.101	34
107.384	35
108.666	33
109.948	35
111.232	39
112.514	36
113.795	38
115.077	40
116.358	35
117.639	42
118.919	37
120.2	39
121.48	39
122.76	35
124.04	42
125.32	30
126.599	37
127.879	39
129.158	41
130.436	38
131.715	38
132.992	36
134.27	40
135.548	34
136.826	39
138.104	34
139.381	31
140.658	42
141.935	39
143.212	33
144.489	38
145.763	40
147.04	44
148.315	41
149.591	32
150.867	38
152.142	38
153.416	45
154.691	41
155.965	46
157.24	39
158.514	40
159.786	36
161.06	41
162.334	42
163.607	42
164.881	38
166.152	42
167.425	39
168.698	48
169.969	42
171.241	49
172.513	40
173.785	44
175.055	40
176.326	40
177.597	35
178.867	44
180.137	36
181.408	46
182.677	46
183.947	42
185.217	38
186.485	42
187.755	40
189.022	39
190.291	46
191.56	44
192.828	42
194.096	45
195.363	47
196.631	44
197.899	42
199.165	44
200.432	42
201.698	36
202.965	38
204.23	38
205.497	41
206.762	40
208.028	44
209.293	42
210.559	38
211.823	46
213.088	41
214.352	42
215.617	32
216.88	40
218.145	41
219.408	43
220.672	41
221.934	38
223.196	32
224.46	39
225.722	38
226.985	40
228.246	32
229.508	35
230.77	39
232.031	38
233.292	36
234.554	40
235.814	40
237.074	39
238.335	44
239.595	41
240.854	40
242.115	39
243.374	38
244.633	44
245.893	37
247.151	42
248.409	42
249.667	40
250.927	41
252.184	36
253.442	32
254.699	38
255.957	40
257.214	36
258.47	38
259.727	46
260.983	42
262.24	39
263.496	46
264.752	42
266.007	42
267.262	41
268.517	42
269.773	41
271.028	40
272.282	44
273.536	42
274.79	35
276.044	40
277.297	37
278.551	37
279.804	41
281.057	41
282.31	43
283.564	40
284.816	39
286.068	38
287.32	41
288.572	40
289.823	34
291.074	50
292.325	35
293.576	36
294.827	42
296.077	37
297.328	32
298.578	38
299.828	41
301.077	36
302.325	42
303.575	39
304.824	40
306.073	40
307.321	40
308.57	37
309.818	36
311.066	42
312.314	42
313.562	36
314.808	39
316.055	42
317.302	40
318.549	37
319.796	41
321.042	40
322.288	36
323.533	44
324.779	44
326.024	36
327.27	40
328.515	42
329.759	41
331.004	43
332.248	44
333.493	40
334.736	38
335.98	41
337.223	42
338.466	40
339.709	37
340.952	38
342.195	42
343.437	42
344.68	36
345.922	41
347.163	42
348.405	37
349.647	38
350.887	43
352.128	34
353.37	41
354.609	48
355.85	41
357.089	36
358.33	42
359.57	42
360.809	43
362.049	38
363.287	38
364.526	38
365.764	35
367.003	45
368.241	43
369.479	43
370.718	38
371.955	38
373.193	41
374.429	38
375.667	46
376.903	44
378.139	36
379.376	42
380.611	43
381.848	44
383.083	36
384.319	41
385.554	40
386.79	45
388.024	40
389.258	40
390.493	41
391.727	38
392.962	41
394.195	44
395.428	34
396.663	39
397.895	42
399.128	41
400.361	41
401.593	41
402.825	42
404.058	42
405.29	45
406.521	42
407.752	42
408.985	42
410.215	40
411.446	37
412.678	34
413.908	44
415.138	40
416.367	42
417.597	50
418.828	43
420.057	40
421.286	42
422.514	37
423.743	39
424.973	38
426.201	44
427.429	45
428.657	40
429.884	39
431.112	36
432.34	44
433.567	37
434.794	44
436.02	34
437.247	38
438.473	43
439.699	43
440.925	43
442.15	42
443.376	41
444.601	40
445.826	45
447.051	40
448.275	36
449.5	50
450.724	42
451.948	43
453.172	44
454.396	42
455.619	40
456.842	45
458.065	44
459.288	38
460.511	44
461.733	42
462.956	48
464.178	43
465.4	44
466.621	42
467.843	45
469.064	42
470.285	46
471.505	49
472.726	47
473.946	50
475.166	40
476.387	50
477.606	44
478.825	42
480.044	49
481.264	49
482.483	50
483.702	58
484.921	57
486.138	64
487.356	56
488.574	57
489.792	55
491.009	63
492.226	60
493.444	59
494.661	57
495.877	56
497.094	58
498.31	57
499.525	50
500.741	49
501.958	44
503.172	48
504.388	42
505.603	46
506.817	50
508.032	42
509.247	48
510.46	42
511.675	40
512.888	47
514.102	46
515.316	43
516.528	44
517.742	41
518.954	47
520.167	48
521.378	46
522.591	40
523.802	46
525.015	45
526.226	41
527.438	46
528.648	45
529.86	46
531.07	42
532.281	46
533.491	44
534.702	41
535.911	44
537.121	40
538.33	45
539.54	42
540.749	46
541.957	39
543.167	46
544.375	40
545.584	44
546.791	47
547.999	42
549.207	40
550.414	38
551.621	43
552.829	43
554.035	43
555.241	43
556.449	40
557.655	38
558.86	45
560.066	44
561.272	41
562.477	45
563.682	44
564.888	43
566.093	34
567.297	42
568.501	40
569.705	48
570.91	46
572.114	40
573.317	38
574.52	39
575.723	42
576.927	39
578.13	44
579.332	43
580.535	34
581.737	42
582.938	34
584.14	40
585.343	39
586.544	40
587.745	42
588.946	41
590.147	44
591.347	43
592.548	36
593.748	41
594.948	43
596.147	40
597.347	38
598.546	44
599.745	44
600.944	42
602.143	38
603.342	39
604.54	42
605.738	46
606.937	46
608.134	32
609.332	39
610.529	43
611.727	39
612.924	44
614.121	42
615.317	42
616.513	39
617.709	41
618.905	45
620.101	40
621.297	38
622.492	47
623.688	40
624.883	36
626.077	42
627.271	39
628.466	41
629.66	41
630.855	43
632.047	41
633.241	38
634.435	40
635.629	41
636.82	45
638.014	40
639.207	38
640.399	39
641.59	42
642.783	43
643.975	41
645.166	42
646.357	49
647.549	38
648.741	42
649.93	40
651.122	43
652.311	42
653.502	49
654.692	41
655.881	38
657.071	43
658.261	41
659.45	43
660.639	42
661.827	32
663.016	37
664.204	47
665.393	47
666.581	46
667.769	40
668.957	39
670.143	42
671.331	45
672.518	42
673.705	45
674.891	42
676.078	36
677.264	44
678.451	42
679.636	38
680.821	46
682.007	41
683.192	41
684.378	44
685.562	42
686.747	48
687.931	41
689.115	46
690.3	34
691.483	43
692.666	38
693.851	46
695.034	41
696.216	46
697.4	46
698.582	46
699.764	40
700.948	45
702.129	41
703.311	42
704.493	44
705.674	42
706.855	49
708.036	51
709.218	45
710.399	49
711.579	53
712.759	54
713.939	53
715.12	50
716.299	46
717.478	42
718.657	42
719.836	44
721.015	38
722.195	46
723.373	44
724.552	44
725.729	40
726.907	44
728.085	44
729.262	43
730.44	38
731.617	45
732.795	34
733.972	44
735.148	38
736.324	40
737.501	39
738.677	40
739.852	38
741.028	37
742.203	40
743.379	42
744.554	37
745.729	42
746.903	42
748.078	38
749.252	42
750.426	38
751.599	41
752.772	44
753.946	38
755.119	38
756.293	43
757.466	44
758.639	38
759.811	37
760.984	37
762.155	35
763.327	40
764.499	40
765.67	44
766.842	39
768.013	42
769.183	40
770.354	40
771.525	42
772.696	36
773.865	34
775.035	39
776.205	44
777.375	38
778.544	42
779.713	38
780.882	45
782.052	38
783.219	40
784.388	41
785.557	38
786.724	39
787.892	46
789.06	43
790.227	39
791.395	46
792.562	42
793.728	41
794.895	44
796.061	40
797.228	36
798.395	44
799.56	39
800.726	42
801.891	44
803.057	34
804.221	43
805.387	44
806.551	36
807.716	46
808.879	40
810.044	35
811.208	34
812.372	38
813.535	46
814.699	40
815.862	44
817.025	35
818.188	37
819.351	33
820.513	41
821.675	37
822.837	39
823.999	37
825.161	34
826.322	44
827.483	33
828.645	36
829.805	39
830.966	41
832.127	36
833.287	39
834.447	38
835.607	36
836.767	41
837.926	36
839.085	38
840.245	37
841.404	35
842.562	42
843.72	36
844.88	40
846.038	40
847.195	36
848.353	36
849.512	40
850.669	39
851.826	40
852.983	44
854.139	40
855.296	41
856.453	44
857.609	40
858.765	36
859.921	36
861.077	36
862.232	40
863.387	46
864.542	36
865.697	41
866.852	38
868.008	36
869.162	39
870.316	41
871.47	41
872.624	35
873.778	42
874.931	39
876.084	39
877.237	39
878.39	34
879.543	45
880.695	34
881.846	41
882.999	39
884.151	38
885.302	40
886.454	38
887.606	35
888.757	38
889.908	36
891.059	40
892.21	36
893.359	35
894.509	40
895.659	36
896.81	34
897.959	35
899.109	38
900.257	36
901.407	39
902.556	38
903.705	38
904.854	40
906.001	38
907.149	39
908.298	38
909.446	39
910.592	41
911.74	39
912.888	32
914.034	33
915.181	40
916.328	31
917.473	34
918.62	34
919.766	38
920.911	28
922.058	37
923.204	38
924.348	42
925.494	38
926.638	40
927.783	36
928.928	41
930.072	38
931.216	38
932.36	37
933.504	37
934.647	39
935.791	39
936.933	36
938.077	36
939.219	36
940.363	35
941.504	38
942.647	34
943.789	38
944.932	43
946.073	35
947.215	38
948.356	38
949.498	38
950.638	39
951.778	37
952.92	32
954.06	34
955.199	37
956.34	42
957.479	40
958.62	38
959.759	40
960.898	41
962.038	34
963.176	39
964.315	36
965.453	36
966.592	40
967.73	40
968.867	38
970.006	37
971.144	36
972.281	32
973.418	38
974.554	42
975.692	38
976.829	35
977.965	35
979.101	38
980.237	40
981.374	37
982.509	38
983.645	38
984.78	36
985.915	39
987.05	33
988.184	40
989.319	36
990.453	37
991.589	32
992.722	40
993.856	35
994.99	38
996.123	39
997.257	39
998.39	34
999.523	34
1000.66	41
1001.79	38
1002.92	32
1004.05	40
1005.18	38
1006.32	35
1007.45	40
1008.58	40
1009.71	38
1010.84	42
1011.97	32
1013.1	36
1014.23	42
1015.36	33
1016.49	33
1017.62	41
1018.75	38
1019.88	36
1021.01	38
1022.14	38
1023.27	33
1024.4	44
1025.53	42
1026.66	34
1027.79	38
1028.91	34
1030.04	34
1031.17	32
1032.3	36
1033.42	40
1034.55	40
1035.68	36
1036.81	38
1037.93	34
1039.06	42
1040.18	32
1041.31	41
1042.44	32
1043.56	36
1044.69	34
1045.81	38
1046.94	34
1048.06	34
1049.19	38
1050.31	35
1051.44	37
1052.56	34
1053.69	39
1054.81	36
1055.93	38
1057.06	38
1058.18	35
1059.3	37
1060.43	28
1061.55	34
1062.67	37
1063.79	35
1064.92	32
1066.04	34
1067.16	36
1068.28	36
1069.4	38
1070.52	37
1071.65	34
1072.77	36
1073.89	38
1075.01	41
1076.13	37
1077.25	30
1078.37	41
1079.49	36
1080.61	35
1081.73	36
1082.85	37
1083.97	30
1085.09	32
1086.2	37
1087.32	30
1088.44	35
1089.56	34
1090.68	38
1091.8	34
1092.91	36
1094.03	35
1095.15	38
1096.26	35
1097.38	33
1098.5	32
1099.61	34
1100.73	30
1101.85	34
1102.96	38
1104.08	48
1105.19	34
1106.31	38
1107.43	35
1108.54	34
1109.66	32
1110.77	37
1111.88	40
1113	34
1114.11	38
1115.23	32
1116.34	30
1117.46	37
1118.57	38
1119.68	30
1120.8	34
1121.91	35
1123.02	38
1124.13	30
1125.25	32
1126.36	38
1127.47	40
1128.58	36
1129.69	28
1130.8	34
1131.92	32
1133.03	34
1134.14	36
1135.25	32
1136.36	31
1137.47	32
1138.58	33
1139.69	36
1140.8	38
1141.91	31
1143.02	34
1144.13	36
1145.24	38
1146.35	38
1147.46	37
1148.56	39
1149.67	37
1150.78	32
1151.89	39
1153	34
1154.1	36
1155.21	41
1156.32	34
1157.43	33
1158.53	38
1159.64	32
1160.75	34
1161.85	37
1162.96	32
1164.07	34
1165.17	38
1166.28	32
1167.38	31
1168.49	40
1169.59	39
1170.7	37
1171.8	33
1172.91	31
1174.01	30
1175.12	38
1176.22	33
1177.32	37
1178.43	35
1179.53	38
1180.64	32
1181.74	34
1182.84	34
1183.94	30
1185.05	38
1186.15	32
1187.25	34
1188.35	40
1189.46	32
1190.56	38
1191.66	31
1192.76	36
1193.86	32
1194.96	30
1196.06	37.9608
1197.16	34.9348
1198.26	30.0108
1199.37	35.8132
1200.47	33.7463
1201.57	33.7745
1202.67	34.7691
1203.77	33.7059
1204.86	30.0885
1205.96	33.005
1207.06	35.3644
1208.16	27.9494
1209.26	35.2676
1210.36	29.8636
1211.46	37.5086
1212.56	36.012
1213.65	36.2686
1214.75	32.6696
1215.85	36.5375
1216.95	32.3666
1218.04	36
1219.14	35.7036
1220.24	29.5124
1221.33	37.3463
1222.43	29.9608
1223.53	32.8874
1224.62	30.1031
1225.72	31.4773
1226.82	34.3736
1227.91	32.1645
1229.01	30.4705
1230.1	35.0168
1231.2	32.4422
1232.29	35.6828
1233.39	32.7953
1234.48	35.3039
1235.58	35.0002
1236.67	36.4265
1237.77	33.0614
1238.86	34.8715
1239.95	31.8113
1241.05	29.5879
1242.14	36.2711
1243.23	32.5105
1244.33	30.5925
1245.42	36.1161
1246.51	29.0034
1247.61	32.5047
1248.7	31.0625
1249.79	34.1912
1250.88	33.1725
1251.97	31.6782
1253.07	33.1861
1254.16	32.4949
1255.25	34.2033
1256.34	33.2903
1257.43	32.8922
1258.52	32
1259.61	30.9802
1260.7	33.6684
1261.79	35.2063
1262.88	37.5882
1263.97	36
1265.06	34.8676
1266.15	32.8065
1267.24	31.7892
1268.33	32.9276
1269.42	33.8394
1270.51	34.6569
1271.6	33.8347
1272.68	30.2125
1273.77	32.0818
1274.86	33.3699
1275.95	29.5842
1277.04	31.9637
1278.12	33.0392
1279.21	33.6042
1280.3	35.3424
1281.39	31.0518
1282.47	33.1242
1283.56	29.9958
1284.65	36
1285.73	35.3911
1286.82	32.8595
1287.91	29.568
1288.99	31.8788
1290.08	35.0689
1291.16	31.4057
1292.25	31.3971
1293.33	32.0954
1294.42	33.6671
1295.5	34.3153
1296.59	30.3012
1297.67	33.7841
1298.76	31.5296
1299.84	25.642
1300.92	33.2244
1302.01	26.6385
1303.09	30.3694
1304.17	32.9755
1305.26	33.0078
1306.34	34
1307.34	34
1308.43	33
1309.52	34
1310.61	30
1311.7	28
1312.78	34
1313.87	32
1314.96	26
1316.04	34
1317.13	36
1318.22	31
1319.3	31
1320.39	34
1321.48	30
1322.56	35
1323.65	34
1324.73	28
1325.82	35
1326.9	32
1327.99	31
1329.07	28
1330.16	36
1331.24	34
1332.33	32
1333.41	32
1334.5	34
1335.58	28
1336.66	32
1337.75	34
1338.83	28
1339.91	36
1341	35
1342.08	30
1343.16	32
1344.24	36
1345.33	34
1346.41	35
1347.49	30
1348.57	31
1349.65	34
1350.74	34
1351.82	36
1352.9	35
1353.98	35
1355.06	34
1356.14	30
1357.22	30
1358.3	32
1359.38	35
1360.46	33
1361.54	30
1362.62	33
1363.7	34
1364.78	30
1365.86	32
1366.94	32
1368.02	34
1369.09	32
1370.17	32
1371.25	32
1372.33	27
1373.41	31
1374.48	32
1375.56	32
1376.64	35
1377.72	36
1378.79	36
1379.87	35
1380.95	34
1382.02	32
1383.1	32
1384.17	33
1385.25	32
1386.33	36
1387.4	33
1388.48	31
1389.55	30
1390.63	36
1391.7	32
1392.78	34
1393.85	33
1394.93	30
1396	30
1397.07	38
1398.15	33
1399.22	32
1400.3	38
1401.37	36
1402.44	33
1403.52	32
1404.59	31
1405.66	41
1406.73	38
1407.81	32
1408.88	32
1409.95	38
1411.02	38
1412.09	31
1413.17	40
1414.24	31
1415.31	34
1416.38	37
1417.45	37
1418.52	30
1419.59	30
1420.66	24
1421.73	31
1422.8	38
1423.87	37
1424.94	35
1426.01	38
1427.08	35
1428.15	35
1429.22	35
1430.29	26
1431.35	34
1432.42	35
1433.49	33
1434.56	26
1435.63	30
1436.69	32
1437.76	38
1438.83	34
1439.9	32
1440.96	30
1442.03	32
1443.1	32
1444.17	36
1445.23	36
1446.3	32
1447.36	32
1448.43	32
1449.49	34
1450.56	32
1451.63	40
1452.69	30
1453.76	35
1454.82	32
1455.89	31
1456.95	31
1458.01	35
1459.08	31
1460.14	30
1461.21	32
1462.27	28
1463.34	35
1464.4	36
1465.46	31
1466.52	33
1467.59	38
1468.65	34
1469.71	32
1470.77	36
1471.84	35
1472.9	34
1473.96	34
1475.02	32
1476.08	28
1477.15	33
1478.21	31
1479.27	34
1480.33	31
1481.39	36
1482.45	37
1483.51	37
1484.57	32
1485.63	34
1486.69	30
1487.75	35
1488.81	33
1489.87	36
1490.93	36
1491.99	35
1493.05	36
1494.1	30
1495.16	37
1496.22	33
1497.28	28
1498.34	36
1499.4	33
1500.45	32
1501.51	30
1502.57	30
1503.63	33
1504.68	34
1505.74	32
1506.8	30
1507.85	32
1508.91	36
1509.97	34
1511.02	33
1512.08	32
1513.13	32
1514.19	30
1515.24	28
1516.3	32
1517.35	36
1518.41	32
1519.46	35
1520.52	28
1521.57	30
1522.63	33
1523.68	30
1524.73	40
1525.79	30
1526.84	33
1527.9	29
1528.95	36
1530	27
1531.05	32
1532.11	29
1533.16	38
1534.21	34
1535.26	30
1536.32	33
1537.37	36
1538.42	30
1539.47	36
1540.52	34
1541.57	35
1542.63	33
1543.68	34
1544.73	34
1545.78	30
1546.83	34
1547.88	34
1548.93	37
1549.98	32
1551.03	30
1552.08	30
1553.13	31
1554.18	34
1555.23	33
1556.27	33
1557.32	30
1558.37	30
1559.42	33
1560.47	29
1561.52	28
1562.56	33
1563.61	38
1564.66	36
1565.71	36
1566.75	33
1567.8	30
1568.85	30
1569.9	36
1570.94	36
1571.99	35
1573.03	32
1574.08	37
1575.13	36
1576.17	34
1577.22	35
1578.26	34
1579.31	33
1580.35	30
1581.4	37
1582.44	37
1583.49	35
1584.53	35
1585.58	29
1586.62	34
1587.66	34
1588.71	32
1589.75	35
1590.8	27
1591.84	35
1592.88	36
1593.92	32
1594.97	30
1596.01	32
1597.05	36
1598.1	36
1599.14	32
1600.18	31
1601.22	34
1602.26	33
1603.3	32
1604.35	36
1605.39	32
1606.43	28
1607.47	33
1608.51	32
1609.55	36
1610.59	33
1611.63	33
1612.67	34
1613.71	38
1614.75	33
1615.79	40
1616.83	24
1617.87	35
1618.91	34
1619.95	30
1620.99	33
1622.02	38
1623.06	39
1624.1	35
1625.14	33
1626.18	26
1627.21	30
1628.25	34
1629.29	39
1630.33	34
1631.36	33
1632.4	32
1633.44	32
1634.48	24
1635.51	34
1636.55	32
1637.58	38
1638.62	36
1639.66	34
1640.69	34
1641.73	36
1642.76	32
1643.8	32
1644.83	35
1645.87	36
1646.9	36
1647.94	36
1648.97	33
1650	28
1651.04	38
1652.07	40
1653.11	36
1654.14	38
1655.17	39
1656.21	30
1657.24	32
1658.27	36
1659.31	32
1660.34	30
1661.37	32
1662.4	36
1663.43	30
1664.47	26
1665.5	33
1666.53	32
1667.56	32
1668.59	30
1669.62	33
1670.66	38
1671.69	30
1672.72	34
1673.75	41
1674.78	32
1675.81	35
1676.84	30
1677.87	37
1678.9	31
1679.93	33
1680.96	33
1681.98	29
1683.01	31
1684.04	35
1685.07	32
1686.1	34
1687.13	32
1688.16	32
1689.18	30
1690.21	32
1691.24	35
1692.27	36
1693.3	30
1694.32	30
1695.35	38
1696.38	32
1697.4	33
1698.43	28
1699.46	37
1700.48	35
1701.51	36
1702.54	30
1703.56	28
1704.59	33
1705.61	32
1706.64	34
1707.66	31
1708.69	32
1709.71	30
1710.74	34
1711.76	39
1712.79	32
1713.81	28
1714.83	36
1715.86	34
1716.88	40
1717.91	36
1718.93	36
1719.95	33
1720.98	34
1722	34
1723.02	38
1724.04	32
1725.07	31
1726.09	37
1727.11	36
1728.13	31
1729.15	30
1730.18	33
1731.2	34
1732.22	35
1733.24	35
1734.26	30
1735.28	35
1736.3	37
1737.32	30
1738.34	33
1739.36	33
1740.38	35
1741.4	32
1742.42	30
1743.44	35
1744.46	32
1745.48	31
1746.5	32
1747.52	34
1748.54	33
1749.56	38
1750.58	36
1751.6	28
1752.61	31
1753.63	33
1754.65	32
1755.67	32
1756.68	41
1757.7	31
1758.72	33
1759.74	30
1760.75	32
1761.77	34
1762.79	35
1763.8	35
1764.82	31
1765.83	32
1766.85	31
1767.87	34
1768.88	36
1769.9	37
1770.91	33
1771.93	30
1772.94	37
1773.96	33
1774.97	30
1775.99	34
1777	31
1778.02	34
1779.03	35
1780.04	31
1781.06	30
1782.07	35
1783.09	34
1784.1	38
1785.11	32
1786.13	34
1787.14	30
1788.15	36
1789.16	34
1790.18	29
1791.19	30
1792.2	36
1793.21	33
1794.22	34
1795.23	36
1796.25	34
1797.26	32
1798.27	34
1799.28	38
1800.29	31
1801.3	31
1802.31	36
1803.32	34
1804.33	32
1805.34	33
1806.35	34
1807.36	32
1808.37	31
1809.38	34
1810.39	37
1811.4	32
1812.41	36
1813.42	34
1814.42	34
1815.43	30
1816.44	34
1817.45	34
1818.46	32
1819.47	34
1820.47	34
1821.48	29
1822.49	31
1823.49	36
1824.5	37
1825.51	36
1826.52	31
1827.52	35
1828.53	32
1829.53	34
1830.54	33
1831.55	38
1832.55	35
1833.56	33
1834.56	28
1835.57	35
1836.57	35
1837.58	36
1838.58	32
1839.59	34
1840.59	34
1841.6	36
1842.6	29
1843.61	30
1844.61	41
1845.61	35
1846.62	28
1847.62	33
1848.62	36
1849.63	34
1850.63	32
1851.63	26
1852.64	29
1853.64	32
1854.64	30
1855.64	32
1856.64	36
1857.65	28
1858.65	32
1859.65	33
1860.65	30
1861.65	34
1862.65	32
1863.65	33
1864.66	33
1865.66	33
1866.66	35
1867.66	34
1868.66	36
1869.66	35
1870.66	31
1871.66	32
1872.66	35
1873.66	32
1874.66	30
1875.65	37
1876.65	28
1877.65	26
1878.65	29
1879.65	34
1880.65	28
1881.65	37
1882.64	31
1883.64	30
1884.64	30
1885.64	34
1886.63	31
1887.63	32
1888.63	32
1889.63	34
1890.62	36
1891.62	34
1892.62	35
1893.61	34
1894.61	31
1895.6	32
1896.6	33
1897.6	35
1898.59	32
1899.59	32
1900.58	29
1901.58	31
1902.57	27
1903.57	35
1904.56	32
1905.56	30
1906.55	34
1907.54	30
1908.54	33
1909.53	32
1910.53	34
1911.52	34
1912.51	28
1913.51	22
1914.5	32
1915.49	30
1916.49	26
1917.48	35
1918.47	28
1919.46	33
1920.46	35
1921.45	32
1922.44	34
1923.43	35
1924.42	32
1925.41	35
1926.41	30
1927.4	31
1928.39	34
1929.38	35
1930.37	30
1931.36	35
1932.35	30
1933.34	31
1934.33	32
1935.32	33
1936.31	31
1937.3	33
1938.29	34
1939.28	34
1940.27	31
1941.26	28
1942.24	33
1943.23	36
1944.22	32
1945.21	29
1946.2	28
1947.19	35
1948.17	36
1949.16	32
1950.15	35
1951.14	32
1952.12	35
1953.11	32
1954.1	30
1955.09	33
1956.07	28
1957.06	36
1958.05	32
1959.03	34
1960.02	30
1961	30
1961.99	31
1962.98	33
1963.96	32
1964.95	36
1965.93	26
1966.92	32
1967.9	28
1968.89	31
1969.87	35
1970.85	37
1971.84	28
1972.82	28
1973.81	26
1974.79	34
1975.78	30
1976.76	29
1977.74	34
1978.73	30
1979.71	36
1980.69	34
1981.67	24
1982.66	28
1983.64	30
1984.62	34
1985.6	32
1986.59	24
1987.57	30
1988.55	33
1989.53	34
1990.51	29
1991.49	30
1992.47	26
1993.45	32
1994.44	32
1995.42	30
1996.4	30
1997.38	34
1998.36	35
1999.34	28
2000.32	24
2001.3	34
2002.28	35
2003.26	29
2004.24	34
2005.22	33
2006.19	32
2007.17	30
2008.15	33
2009.13	34
2010.11	24
2011.09	30
2012.06	36
2013.04	26
2014.02	32
2015	26
2015.98	30
2016.95	30
2017.93	27
2018.91	29
2019.88	31
2020.86	31
2021.84	33
2022.81	30
2023.79	34
2024.77	26
2025.74	28
2026.72	32
2027.69	32
2028.67	32
2029.65	30
2030.62	28
2031.6	35
2032.57	29
2033.55	29
2034.52	31
2035.5	32
2036.47	30
2037.44	33
2038.42	28
2039.39	32
2040.36	26
2041.34	24
2042.31	31
2043.29	34
2044.26	20
2045.23	26
2046.2	34
2047.18	32
2048.15	36
2049.12	31
2050.09	28
2051.07	28
2052.04	32
2053.01	34
2053.98	32
2054.95	30
2055.93	37
2056.9	29
2057.87	33
2058.84	26
2059.81	26
2060.78	24
2061.75	26
2062.72	30
2063.69	36
2064.66	32
2065.63	30
2066.6	26
2067.57	32
2068.54	26
2069.51	32
2070.48	31
2071.45	33
2072.42	32
2073.38	28
2074.35	28
2075.32	28
2076.29	30
2077.26	26
2078.23	30
2079.19	26
2080.16	30
2081.13	28
2082.1	30
2083.06	30
2084.03	32
2085	27
2085.96	30
2086.93	35
2087.9	31
2088.86	30
2089.83	26
2090.8	33
2091.76	30
2092.73	30
2093.69	29
2094.66	32
2095.62	31
2096.59	36
2097.55	28
2098.52	31
2099.48	29
2100.45	30
2101.41	28
2102.38	26
2103.34	30
2104.31	25
2105.27	28
2106.23	28
2107.2	30
2108.16	36
2109.12	27
2110.09	40
2111.05	34
2112.01	30
2112.98	32
2113.94	28
2114.9	30
2115.86	34
2116.82	33
2117.79	26
2118.75	34
2119.71	27
2120.67	28
2121.63	28
2122.59	32
2123.55	28
2124.52	27
2125.48	27
2126.44	34
2127.4	33
2128.36	30
2129.32	27
2130.28	30
2131.24	30
2132.2	29
2133.16	31
2134.12	29
2135.08	30
2136.04	30
2136.99	35
2137.95	30
2138.91	31
2139.87	31
2140.83	30
2141.79	29
2142.75	32
2143.7	27
2144.66	26
2145.62	29.9927
2146.58	27.9546
2147.53	32.0386
2148.49	28.0287
2149.45	26.0678
2150.41	29.2543
2151.36	30
2152.32	34.6324
2153.27	27.2222
2154.23	25.8234
2155.19	29.5835
2156.14	31.2155
2157.1	33.0286
2158.06	28.8758
2159.01	29.9889
2159.97	27.8513
2160.92	28
2161.88	28.8284
2162.83	28.8229
2163.79	32
2164.74	23.4097
2165.7	26.7952
2166.65	24.0967
2167.61	28.6362
2168.56	31.2496
2169.51	30.5222
2170.47	27.5053
2171.42	29.4582
2172.38	29.4035
2173.33	28
2174.28	26.598
2175.24	30.5853
2176.19	31.7281
2177.14	27.0606
2178.09	27.5399
2179.05	22.5467
2180	27.3412
2180.95	30.9305
2181.9	26.3898
2182.86	27.7154
2183.81	29.6415
2184.76	29.0863
2185.71	31.215
2186.66	29.8235
2187.61	28.0172
2188.57	23.9673
2189.52	26.0216
2190.47	29.1373
2191.42	26.5248
2192.37	25.1322
2193.32	29.0409
2194.27	28.0819
2195.22	29.4559
2196.17	29.902
2197.12	30.2498
2198.07	27.8307
2199.02	28.1121
2199.97	25.1823
2200.92	30.3131
2201.87	28.2361
2202.82	31.9127
2203.76	28.3589
2204.71	27.1618
2205.66	27.9931
2206.61	28.8314
2207.56	26.6483
2208.51	26.7138
2209.45	24.4822
2210.4	31.845
2211.35	30.5482
2212.3	28.9759
2213.24	28.4323
2214.19	23.8829
2215.14	28.1379
2216.09	28.5734
2217.03	28.6454
2217.98	28.1524
2218.93	28.8844
2219.87	30.7696
2220.82	25.9148
2221.77	27.9174
2222.71	28.4535
2223.66	27.4515
2224.6	25.709
2225.55	27.5843
2226.49	26.658
2227.44	30.6298
2228.38	27.1268
2229.33	25.386
2230.27	26.2451
2231.22	27.5808
2232.16	30.2633
2233.11	27.8445
2234.05	25.7638
2235	25.7907
2235.94	26.1912
2236.88	27.7197
2237.83	26.1765
2238.77	24.8832
2239.71	27.899
2240.66	28.8186
2241.6	29.1629
2242	30
2242.95	31
2243.9	30
2244.84	28
2245.79	26
2246.74	28
2247.69	27
2248.63	28
2249.58	33
2250.53	24
2251.47	33
2252.42	22
2253.37	26
2254.31	24
2255.26	26
2256.2	26
2257.15	33
2258.1	28
2259.04	28
2259.99	24
2260.93	24
2261.88	29
2262.82	26
2263.77	31
2264.71	29
2265.65	30
2266.6	30
2267.54	29
2268.49	30
2269.43	30
2270.38	29
2271.32	30
2272.26	30
2273.21	28
2274.15	30
2275.09	29
2276.04	24
2276.98	24
2277.92	23
2278.86	29
2279.81	31
2280.75	22
2281.69	30
2282.63	27
2283.57	27
2284.52	34
2285.46	30
2286.4	28
2287.34	28
2288.28	29
2289.22	27
2290.16	31
2291.1	28
2292.04	28
2292.98	25
2293.93	30
2294.86	29
2295.8	24
2296.74	27
2297.69	31
2298.62	28
2299.56	22
2300.5	26
2301.44	32
2302.38	24
2303.32	25
2304.26	26
2305.2	33
2306.14	30
2307.07	32
2308.01	29
2308.95	28
2309.89	29
2310.83	27
2311.76	29
2312.7	30
2313.64	30
2314.58	32
2315.51	26
2316.45	31
2317.39	31
2318.32	28
2319.26	26
2320.2	28
2321.13	26
2322.07	34
2323	32
2323.94	30
2324.88	30
2325.81	28
2326.75	28
2327.68	22
2328.62	26
2329.55	22
2330.49	26
2331.42	24
2332.36	23
2333.29	26
2334.22	26
2335.16	30
2336.09	26
2337.03	36
2337.96	32
2338.89	22
2339.83	27
2340.76	31
2341.69	29
2342.63	34
2343.56	30
2344.49	33
2345.43	26
2346.36	28
2347.29	30
2348.22	30
2349.15	28
2350.09	26
2351.02	29
2351.95	32
2352.88	32
2353.81	28
2354.74	33
2355.67	32
2356.61	34
2357.54	30
2358.47	26
2359.4	31
2360.33	32
2361.26	24
2362.19	35
2363.12	28
2364.05	27
2364.98	28
2365.91	25
2366.84	30
2367.77	30
2368.7	26
2369.62	28
2370.55	30
2371.48	30
2372.41	30
2373.34	26
2374.27	31
2375.2	30
2376.12	32
2377.05	33
2377.98	32
2378.91	28
2379.83	26
2380.76	28
2381.69	26
2382.62	30
2383.54	27
2384.47	28
2385.4	28
2386.32	28
2387.25	27
2388.18	31
2389.1	31
2390.03	22
2390.95	30
2391.88	27
2392.81	30
2393.73	32
2394.66	30
2395.58	29
2396.51	27
2397.43	26
2398.36	25
2399.28	26
2400.2	31
2401.13	22
2402.05	27
2402.98	29
2403.9	26
2404.83	28
2405.75	26
2406.67	30
2407.6	30
2408.52	30
2409.44	31
2410.37	28
2411.29	22
2412.21	32
2413.13	28
2414.06	29
2414.98	23
2415.9	33
2416.82	29
2417.74	24
2418.67	34
2419.59	28
2420.51	31
2421.43	30
2422.35	32
2423.27	27
2424.19	22
2425.11	26
2426.03	22
2426.96	21
2427.88	32
2428.8	28
2429.72	24
2430.64	28
2431.56	31
2432.48	28
2433.39	29
2434.31	25
2435.23	31
2436.15	28
2437.07	22
2437.99	25
2438.91	27
2439.83	32
2440.75	27
2441.67	34
2442.58	26
2443.5	31
2444.42	30
2445.34	29
2446.26	31
2447.17	24
2448.09	26
2449.01	28
2449.92	26
2450.84	30
2451.76	23
2452.68	28
2453.59	28
2454.51	24
2455.42	27
2456.34	29
2457.26	22
2458.17	27
2459.09	27
2460	24
2460.92	30
2461.83	28
2462.75	26
2463.66	26
2464.58	30
2465.49	32
2466.41	30
2467.32	33
2468.24	31
2469.15	29
2470.07	28
2470.98	29
2471.89	24
2472.81	29
2473.72	30
2474.64	28
2475.55	28
2476.46	28
2477.37	30
2478.29	35
2479.2	30
2480.11	31
2481.03	24
2481.94	30
2482.85	32
2483.76	35
2484.67	27
2485.59	28
2486.5	28
2487.41	26
2488.32	29
2489.23	28
2490.14	28
2491.05	28
2491.97	31
2492.88	31
2493.79	30
2494.7	30
2495.61	32
2496.52	26
2497.43	28
2498.34	28
2499.25	32
2500.16	30
2501.07	30
2501.98	29
2502.89	29
2503.79	28
2504.7	32
2505.61	28
2506.52	26
2507.43	30
2508.34	28
2509.25	29
2510.16	27
2511.06	35
2511.97	35
2512.88	32
2513.79	29
2514.69	26
2515.6	30
2516.51	30
2517.42	29
2518.32	26
2519.23	27
2520.14	28
2521.04	30
2521.95	30
2522.86	24
2523.76	28
2524.67	26
2525.57	28
2526.48	31
2527.39	31
2528.29	28
2529.2	27
2530.1	30
2531.01	28
2531.91	30
2532.82	35
2533.72	26
2534.63	24
2535.53	34
2536.44	28
2537.34	24
2538.24	26
2539.15	28
2540.05	30
2540.96	32
2541.86	30
2542.76	28
2543.67	34
2544.57	28
2545.47	30
2546.37	33
2547.28	22
2548.18	24
2549.08	30
2549.99	35
2550.89	33
2551.79	28
2552.69	26
2553.59	33
2554.49	30
2555.4	30
2556.3	28
2557.2	26
2558.1	28
2559	28
2559.9	26
2560.8	29
2561.7	30
2562.6	31
2563.5	27
2564.4	28
2565.3	23
2566.2	25
2567.1	34
2568	23
2568.9	26
2569.8	28
2570.7	32
2571.6	32
2572.5	28
2573.4	32
2574.3	31
2575.2	29
2576.1	29
2576.99	30
2577.89	28
2578.79	33
2579.69	32
2580.59	24
2581.48	32
2582.38	26
2583.28	30
2584.18	29
2585.07	31
2585.97	24
2586.87	29
2587.76	30
2588.66	29
2589.56	29
2590.45	24
2591.35	30
2592.25	32
2593.14	24
2594.04	31
2594.93	34
2595.83	37
2596.73	32
2597.62	28
2598.52	29
2599.41	29
2600.31	26
2601.2	31
2602.1	32
2602.99	26
2603.88	31
2604.78	29
2605.67	29
2606.57	31
2607.46	27
2608.35	28
2609.25	28
2610.14	29
2611.03	32
2611.93	37
2612.82	28
2613.71	28
2614.61	27
2615.5	26
2616.39	26
2617.29	30
2618.18	27
2619.07	25
2619.96	33
2620.85	30
2621.75	31
2622.64	28
2623.53	28
2624.42	29
2625.31	27
2626.2	32
2627.09	32
2627.98	32
2628.88	36
2629.77	26
2630.66	23
2631.55	24
2632.44	31
2633.33	25
2634.22	28
2635.11	24
2636	26
2636.89	26
2637.78	27
2638.66	28
2639.55	30
2640.44	31
2641.33	29
2642.22	22
2643.11	24
2644	30
2644.89	30
2645.78	31
2646.66	27
2647.55	30
2648.44	32
2649.33	27
2650.21	30
2651.1	32
2651.99	26
2652.88	29
2653.76	31
2654.65	32
2655.54	31
2656.42	28
2657.31	26
2658.2	26
2659.08	32
2659.97	26
2660.86	30
2661.74	28
2662.63	28
2663.51	26
2664.4	26
2665.29	28
2666.17	29
2667.06	23
2667.94	34
2668.83	30
2669.71	30
2670.6	28
2671.48	27
2672.36	33
2673.25	33
2674.13	26
2675.02	35
2675.9	30
2676.78	34
2677.67	29
2678.55	30
2679.43	33
2680.32	31
2681.2	28
2682.08	32
2682.97	26
2683.85	32
2684.73	26
2685.61	33
2686.5	29
2687.38	28
2688.26	24
2689.14	24
2690.03	26
2690.91	32
2691.79	26
2692.67	29
2693.55	30
2694.43	24
2695.31	22
2696.19	32
2697.08	24
2697.96	27
2698.84	28
2699.72	30
2700.6	30
2701.48	26
2702.36	30
2703.24	25
2704.12	28
2705	30
2705.88	26
2706.76	26
2707.64	28
2708.51	28
2709.39	24
2710.27	29
2711.15	27
2712.03	27
2712.91	31
2713.79	24
2714.67	26
2715.54	28
2716.42	27
2717.3	30
2718.18	28
2719.05	28
2719.93	28
2720.81	28
2721.69	28
2722.56	29
2723.44	28
2724.32	33
2725.19	29
2726.07	30
2726.95	28
2727.82	33
2728.7	25
2729.58	28
2730.45	30
2731.33	31
2732.2	29
2733.08	27
2733.95	28
2734.83	30
2735.7	28
2736.58	24
2737.45	23
2738.33	27
2739.2	30
2740.08	28
2740.95	30
2741.83	23
2742.7	32
2743.58	27
2744.45	32
2745.32	29
2746.2	31
2747.07	32
2747.94	27
2748.82	27
2749.69	27
2750.56	26
2751.44	34
2752.31	32
2753.18	29
2754.05	28
2754.93	24
2755.8	24
2756.67	29
2757.54	28
2758.42	27
2759.29	26
2760.16	30
2761.03	28
2761.9	27
2762.77	22
2763.64	25
2764.51	26
2765.38	28
2766.26	32
2767.13	27
2768	28
2768.87	26
2769.74	27
2770.61	30
2771.48	26
2772.35	32
2773.22	26
2774.09	24
2774.96	24
2775.83	30
2776.7	26
2777.56	30
2778.43	32
2779.3	32
2780.17	30
2781.04	29
2781.91	28
2782.78	30
2783.64	31
2784.51	24
2785.38	22
2786.25	30
2787.12	24
2787.98	29
2788.85	24
2789.72	25
2790.59	30
2791.45	27
2792.32	30
2793.19	33
2794.05	32
2794.92	27
2795.79	26
2796.65	29
2797.52	29
2798.38	24
2799.25	26
2800.12	26
2800.98	26
2801.85	34
2802.71	28
2803.58	26.5
2804.44	23
2805.31	29
2806.17	29
2807.04	23
2807.9	32
2808.77	25
2809.63	30
2810.5	26
2811.36	25
2812.22	33
2813.09	28
2813.95	29
2814.82	29
2815.68	30
2816.54	27
2817.41	30
2818.27	20
2819.13	28
2820	29
2820.86	30
2821.72	28
2822.58	29
2823.45	31
2824.31	27
2825.17	27
2826.03	26
2826.9	28
2827.76	28
2828.62	27
2829.48	34
2830.34	28
2831.2	30
2832.06	36
2832.92	30
2833.79	32
2834.65	34
2835.51	30
2836.37	28
2837.23	24
2838.09	30
2838.95	30
2839.81	24
2840.67	23
2841.53	24
2842.39	24
2843.25	26
2844.11	26
2844.97	26
2845.83	26
2846.68	26
2847.54	37
2848.4	25
2849.26	28
2850.12	27
2850.98	30
2851.84	30
2852.69	31
2853.55	26
2854.41	24
2855.27	26
2856.13	25
2856.98	32
2857.84	30
2858.7	23
2859.56	30
2860.41	24
2861.27	28
2862.13	27
2862.98	29
2863.84	26
2864.7	26
2865.55	28
2866.41	32
2867.27	26
2868.12	27
2868.98	31
2869.83	30
2870.69	29
2871.54	29
2872.4	31
2873.25	28
2874.11	32
2874.96	31
2875.82	28
2876.68	34
2877.53	31
2878.38	26
2879.24	32
2880.09	30
2880.95	30
2881.8	33
2882.65	30
2883.51	32
2884.36	31
2885.22	34
2886.07	31
2886.92	34
2887.77	35
2888.63	34
2889.48	39
2890.33	35
2891.19	31
2892.04	37
2892.89	32
2893.74	40
2894.6	34
2895.45	32
2896.3	36
2897.15	38
2898	42
2898.85	40
2899.71	40
2900.56	42
2901.41	42
2902.26	43
2903.11	47
2903.96	52
2904.81	48
2905.66	49
2906.51	56
2907.36	47
2908.21	44
2909.06	51
2909.91	50
2910.76	50
2911.61	46
2912.46	40
2913.31	41
2914.16	43
2915.01	42
2915.86	38
2916.71	36
2917.56	39
2918.41	35
2919.26	35
2920.1	33
2920.95	31
2921.8	30
2922.65	30
2923.5	28
2924.34	32
2925.19	32
2926.04	32
2926.89	30
2927.74	34
2928.58	29
2929.43	26
2930.28	30
2931.12	32
2931.97	30
2932.82	28
2933.66	32
2934.51	30
2935.36	30
2936.2	34
2937.05	31
2937.89	27
2938.74	27
2939.59	30
2940.43	28
2941.28	24
2942.12	28
2942.97	28
2943.81	28
2944.66	33
2945.5	33
2946.35	30
2947.19	30
2948.04	24
2948.88	34
2949.72	29
2950.57	33
2951.41	32
2952.26	34
2953.1	32
2953.94	31
2954.79	29
2955.63	26
2956.47	29
2957.32	28
2958.16	33
2959	35
2959.85	36
2960.69	36
2961.53	37
2962.37	33
2963.22	39
2964.06	36
2964.9	36
2965.74	32
2966.58	32
2967.42	38
2968.27	37
2969.11	36
2969.95	32
2970.79	34
2971.63	35
2972.47	32
2973.31	36
2974.15	36
2974.99	35
2975.83	36
2976.68	36
2977.52	33
2978.36	31
2979.2	33
2980.04	30
2980.88	30
2981.71	29
2982.55	30
2983.39	31
2984.23	29
2985.07	28
2985.91	26
2986.75	29
2987.59	32
2988.43	26
2989.27	27
2990.1	25
2990.94	26
2991.78	28
2992.62	28
2993.46	28
2994.3	28
2995.13	31
2995.97	26
2996.81	23
2997.64	24
2998.48	28
2999.32	24
