#Acq. time (s)=	3
#Accumulations=	3
#Range (cm-¹)=	100...3000
#Windows=	3
#Autofocus=	Off
#AutoExposure=	Off
#Spike filter=	Multiple accum.
#Delay time (s)=	0
#Binning=	1
#Readout mode=	Signal
#DeNoise=	Off
#ICS correction=	Off
#Dark correction=	Off
#Inst. Process=	Off
#Instrument=	LabRAM HR Evol
#Detector=	Syncerity OE
#Objective=	x100_VIS_LWD
#Grating=	600 (500nm)
#ND Filter=	25%
#Laser=	633nm_Edge
#Hole=	100.021
#Range=	Visible
#Project=	Bolus
#Sample=	A2
#Site=	stripside
#Title=	m11
#Remark=	
#Date=	03.11.2025 19:34
#Acquired=	03.11.2025 19:34:57
100.969	34
102.252	37
103.535	38
104.818	40
106.101	40
107.384	43
108.666	36
109.948	41
111.232	40
112.514	41
113.795	47
115.077	42
116.358	38
117.639	42
118.919	41
120.2	39
121.48	38
122.76	42
124.04	44
125.32	42
126.599	34
127.879	45
129.158	40
130.436	47
131.715	41
132.992	49
134.27	42
135.548	40
136.826	44
138.104	42
139.381	41
140.658	48
141.935	46
143.212	49
144.489	40
145.763	46
147.04	48
148.315	47
149.591	48
150.867	47
152.142	44
153.416	53
154.691	46
155.965	52
157.24	45
158.514	54
159.786	54
161.06	50
162.334	50
163.607	49
164.881	50
166.152	42
167.425	48
168.698	52
169.969	44
171.241	43
172.513	44
173.785	46
175.055	46
176.326	51
177.597	44
178.867	51
180.137	49
181.408	46
182.677	48
183.947	50
185.217	48
186.485	50
187.755	50
189.022	43
190.291	46
191.56	47
192.828	45
194.096	55
195.363	47
196.631	54
197.899	50
199.165	40
200.432	53
201.698	46
202.965	37
204.23	49
205.497	43
206.762	43
208.028	42
209.293	43
210.559	51
211.823	47
213.088	41
214.352	41
215.617	46
216.88	44
218.145	38
219.408	43
220.672	51
221.934	36
223.196	46
224.46	44
225.722	38
226.985	49
228.246	42
229.508	42
230.77	38
232.031	44
233.292	30
234.554	41
235.814	38
237.074	48
238.335	42
239.595	38
240.854	43
242.115	42
243.374	38
244.633	41
245.893	47
247.151	40
248.409	40
249.667	39
250.927	37
252.184	36
253.442	40
254.699	40
255.957	32
257.214	40
258.47	36
259.727	44
260.983	32
262.24	41
263.496	49
264.752	36
266.007	41
267.262	44
268.517	42
269.773	40
271.028	42
272.282	41
273.536	38
274.79	36
276.044	44
277.297	38
278.551	45
279.804	40
281.057	42
282.31	35
283.564	44
284.816	38
286.068	36
287.32	36
288.572	39
289.823	38
291.074	36
292.325	40
293.576	42
294.827	42
296.077	38
297.328	40
298.578	38
299.828	45
301.077	38
302.325	42
303.575	44
304.824	36
306.073	39
307.321	42
308.57	35
309.818	40
311.066	34
312.314	37
313.562	39
314.808	40
316.055	39
317.302	32
318.549	39
319.796	42
321.042	32
322.288	38
323.533	38
324.779	48
326.024	42
327.27	40
328.515	38
329.759	38
331.004	36
332.248	34
333.493	36
334.736	41
335.98	38
337.223	44
338.466	42
339.709	30
340.952	39
342.195	37
343.437	36
344.68	42
345.922	36
347.163	42
348.405	38
349.647	38
350.887	38
352.128	43
353.37	44
354.609	41
355.85	43
357.089	41
358.33	42
359.57	32
360.809	44
362.049	48
363.287	41
364.526	44
365.764	42
367.003	44
368.241	36
369.479	34
370.718	38
371.955	43
373.193	46
374.429	43
375.667	36
376.903	37
378.139	46
379.376	34
380.611	45
381.848	36
383.083	44
384.319	38
385.554	41
386.79	42
388.024	40
389.258	40
390.493	42
391.727	32
392.962	42
394.195	51
395.428	38
396.663	39
397.895	37
399.128	41
400.361	41
401.593	34
402.825	38
404.058	36
405.29	36
406.521	36
407.752	36
408.985	45
410.215	44
411.446	42
412.678	36
413.908	42
415.138	40
416.367	44
417.597	42
418.828	39
420.057	40
421.286	38
422.514	40
423.743	34
424.973	36
426.201	42
427.429	44
428.657	37
429.884	44
431.112	41
432.34	39
433.567	38
434.794	38
436.02	43
437.247	42
438.473	45
439.699	36
440.925	36
442.15	41
443.376	32
444.601	40
445.826	41
447.051	42
448.275	37
449.5	42
450.724	36
451.948	42
453.172	37
454.396	42
455.619	36
456.842	30
458.065	44
459.288	36
460.511	43
461.733	44
462.956	40
464.178	38
465.4	40
466.621	32
467.843	40
469.064	44
470.285	48
471.505	44
472.726	46
473.946	43
475.166	47
476.387	46
477.606	52
478.825	54
480.044	54
481.264	58
482.483	61
483.702	59
484.921	63
486.138	60
487.356	63
488.574	64
489.792	69
491.009	70
492.226	66
493.444	64
494.661	56
495.877	61
497.094	55
498.31	58
499.525	58
500.741	56
501.958	51
503.172	48
504.388	46
505.603	46
506.817	47
508.032	45
509.247	40
510.46	38
511.675	46
512.888	46
514.102	38
515.316	44
516.528	40
517.742	43
518.954	44
520.167	38
521.378	38
522.591	47
523.802	44
525.015	47
526.226	34
527.438	46
528.648	44
529.86	47
531.07	41
532.281	43
533.491	43
534.702	40
535.911	44
537.121	46
538.33	42
539.54	34
540.749	43
541.957	36
543.167	37
544.375	42
545.584	37
546.791	40
547.999	46
549.207	42
550.414	36
551.621	38
552.829	42
554.035	35
555.241	41
556.449	43
557.655	38
558.86	43
560.066	38
561.272	40
562.477	41
563.682	40
564.888	36
566.093	38
567.297	37
568.501	38
569.705	40
570.91	40
572.114	41
573.317	38
574.52	36
575.723	44
576.927	38
578.13	40
579.332	38
580.535	40
581.737	38
582.938	39
584.14	40
585.343	38
586.544	36
587.745	38
588.946	34
590.147	42
591.347	30
592.548	39
593.748	42
594.948	42
596.147	42
597.347	30
598.546	33
599.745	40
600.944	40
602.143	42
603.342	42
604.54	44
605.738	38
606.937	40
608.134	42
609.332	44
610.529	36
611.727	34
612.924	38
614.121	34
615.317	42
616.513	37
617.709	42
618.905	36
620.101	41
621.297	44
622.492	40
623.688	34
624.883	39
626.077	43
627.271	38
628.466	44
629.66	42
630.855	41
632.047	39
633.241	38
634.435	37
635.629	37
636.82	38
638.014	38
639.207	40
640.399	46
641.59	36
642.783	42
643.975	40
645.166	40
646.357	40
647.549	34
648.741	40
649.93	39
651.122	40
652.311	46
653.502	42
654.692	45
655.881	40
657.071	40
658.261	34
659.45	42
660.639	43
661.827	38
663.016	44
664.204	39
665.393	43
666.581	44
667.769	42
668.957	43
670.143	42
671.331	39
672.518	44
673.705	43
674.891	46
676.078	46
677.264	40
678.451	44
679.636	44
680.821	45
682.007	41
683.192	39
684.378	44
685.562	42
686.747	38
687.931	40
689.115	47
690.3	44
691.483	45
692.666	42
693.851	47
695.034	41
696.216	42
697.4	45
698.582	42
699.764	36
700.948	50
702.129	48
703.311	48
704.493	53
705.674	48
706.855	55
708.036	54
709.218	58
710.399	56
711.579	56
712.759	56
713.939	52
715.12	49
716.299	46
717.478	44
718.657	44
719.836	42
721.015	45
722.195	34
723.373	44
724.552	40
725.729	40
726.907	43
728.085	40
729.262	40
730.44	34
731.617	42
732.795	34
733.972	40
735.148	45
736.324	38
737.501	38
738.677	38
739.852	38
741.028	40
742.203	30
743.379	40
744.554	41
745.729	34
746.903	40
748.078	40
749.252	42
750.426	36
751.599	38
752.772	40
753.946	43
755.119	40
756.293	42
757.466	34
758.639	40
759.811	42
760.984	38
762.155	38
763.327	40
764.499	41
765.67	36
766.842	40
768.013	36
769.183	36
770.354	38
771.525	44
772.696	42
773.865	45
775.035	36
776.205	34
777.375	38
778.544	40
779.713	44
780.882	36
782.052	36
783.219	38
784.388	42
785.557	40
786.724	42
787.892	40
789.06	41
790.227	40
791.395	44
792.562	38
793.728	41
794.895	42
796.061	46
797.228	41
798.395	40
799.56	40
800.726	40
801.891	34
803.057	40
804.221	38
805.387	51
806.551	44
807.716	34
808.879	38
810.044	41
811.208	42
812.372	42
813.535	44
814.699	38
815.862	42
817.025	41
818.188	30
819.351	40
820.513	39
821.675	36
822.837	36
823.999	38
825.161	37
826.322	35
827.483	39
828.645	40
829.805	35
830.966	40
832.127	34
833.287	45
834.447	36
835.607	40
836.767	39
837.926	40
839.085	39
840.245	34
841.404	40
842.562	41
843.72	35
844.88	41
846.038	38
847.195	34
848.353	36
849.512	36
850.669	46
851.826	36
852.983	36
854.139	40
855.296	41
856.453	42
857.609	38
858.765	34
859.921	38
861.077	41
862.232	41
863.387	41
864.542	44
865.697	42
866.852	44
868.008	38
869.162	40
870.316	36
871.47	40
872.624	42
873.778	44
874.931	41
876.084	42
877.237	38
878.39	38
879.543	40
880.695	41
881.846	38
882.999	34
884.151	40
885.302	39
886.454	36
887.606	43
888.757	38
889.908	40
891.059	36
892.21	42
893.359	33
894.509	39
895.659	35
896.81	36
897.959	36
899.109	43
900.257	36
901.407	42
902.556	37
903.705	39
904.854	38
906.001	32
907.149	42
908.298	38
909.446	36
910.592	36
911.74	38
912.888	32
914.034	38
915.181	40
916.328	40
917.473	38
918.62	37
919.766	40
920.911	36
922.058	36
923.204	40
924.348	40
925.494	41
926.638	37
927.783	38
928.928	34
930.072	34
931.216	41
932.36	40
933.504	39
934.647	38
935.791	32
936.933	44
938.077	30
939.219	34
940.363	36
941.504	40
942.647	36
943.789	36
944.932	39
946.073	38
947.215	32
948.356	38
949.498	38
950.638	36
951.778	34
952.92	34
954.06	39
955.199	38
956.34	38
957.479	32
958.62	38
959.759	41
960.898	39
962.038	37
963.176	38
964.315	37
965.453	34
966.592	38
967.73	46
968.867	37
970.006	39
971.144	36
972.281	33
973.418	39
974.554	36
975.692	36
976.829	37
977.965	38
979.101	32
980.237	40
981.374	40
982.509	36
983.645	34
984.78	28
985.915	36
987.05	34
988.184	42
989.319	43
990.453	33
991.589	42
992.722	32
993.856	32
994.99	39
996.123	37
997.257	40
998.39	29
999.523	40
1000.66	39
1001.79	34
1002.92	37
1004.05	32
1005.18	32
1006.32	37
1007.45	38
1008.58	34
1009.71	34
1010.84	36
1011.97	36
1013.1	34
1014.23	37
1015.36	34
1016.49	36
1017.62	30
1018.75	36
1019.88	40
1021.01	34
1022.14	39
1023.27	39
1024.4	37
1025.53	38
1026.66	36
1027.79	39
1028.91	34
1030.04	38
1031.17	32
1032.3	36
1033.42	34
1034.55	32
1035.68	38
1036.81	32
1037.93	39
1039.06	38
1040.18	38
1041.31	36
1042.44	37
1043.56	33
1044.69	32
1045.81	34
1046.94	30
1048.06	33
1049.19	43
1050.31	43
1051.44	36
1052.56	38
1053.69	38
1054.81	35
1055.93	35
1057.06	44
1058.18	36
1059.3	34
1060.43	36
1061.55	38
1062.67	37
1063.79	37
1064.92	34
1066.04	36
1067.16	37
1068.28	40
1069.4	39
1070.52	34
1071.65	36
1072.77	36
1073.89	32
1075.01	34
1076.13	42
1077.25	34
1078.37	38
1079.49	38
1080.61	30
1081.73	43
1082.85	36
1083.97	38
1085.09	30
1086.2	38
1087.32	39
1088.44	38
1089.56	42
1090.68	38
1091.8	36
1092.91	33
1094.03	36
1095.15	38
1096.26	34
1097.38	32
1098.5	32
1099.61	36
1100.73	36
1101.85	42
1102.96	38
1104.08	40
1105.19	36
1106.31	34
1107.43	30
1108.54	32
1109.66	32
1110.77	39
1111.88	34
1113	37
1114.11	40
1115.23	46
1116.34	39
1117.46	34
1118.57	36
1119.68	35
1120.8	36
1121.91	30
1123.02	34
1124.13	30
1125.25	36
1126.36	38
1127.47	38
1128.58	37
1129.69	30
1130.8	33
1131.92	41
1133.03	33
1134.14	34
1135.25	37
1136.36	41
1137.47	36
1138.58	26
1139.69	42
1140.8	34
1141.91	36
1143.02	34
1144.13	36
1145.24	33
1146.35	40
1147.46	34
1148.56	36
1149.67	29
1150.78	36
1151.89	36
1153	40
1154.1	36
1155.21	30
1156.32	38
1157.43	35
1158.53	34
1159.64	38
1160.75	28
1161.85	36
1162.96	34
1164.07	30
1165.17	36
1166.28	32
1167.38	30
1168.49	30
1169.59	34
1170.7	33
1171.8	28
1172.91	38
1174.01	34
1175.12	34
1176.22	32
1177.32	33
1178.43	30
1179.53	40
1180.64	40
1181.74	40
1182.84	37
1183.94	35
1185.05	36
1186.15	35
1187.25	35
1188.35	33
1189.46	30
1190.56	37
1191.66	37
1192.76	30
1193.86	41
1194.96	38
1196.06	32.0196
1197.16	35.9419
1198.26	32.0636
1199.37	34.1144
1200.47	32.0309
1201.57	36.799
1202.67	37.8381
1203.77	34.803
1204.86	33.6224
1205.96	36.0095
1207.06	34.2974
1208.16	31.8834
1209.26	31.6295
1210.36	35.4787
1211.46	34.2128
1212.56	36.1661
1213.65	31.3529
1214.75	32.9706
1215.85	31.8013
1216.95	28.9638
1218.04	31.8094
1219.14	36.2149
1220.24	31.0311
1221.33	32.686
1222.43	35.8864
1223.53	31.5988
1224.62	29.9323
1225.72	34.0629
1226.82	43.1858
1227.91	30.6837
1229.01	35.3139
1230.1	34.9182
1231.2	33.2833
1232.29	31.8832
1233.39	35.461
1234.48	33.6491
1235.58	35.2053
1236.67	30.8288
1237.77	31.4053
1238.86	31.858
1239.95	30.9688
1241.05	36.4756
1242.14	32.8775
1243.23	33.0857
1244.33	33.8474
1245.42	35.4544
1246.51	33.5616
1247.61	31.4966
1248.7	28.741
1249.79	31.8676
1250.88	31.8373
1251.97	34.9563
1253.07	33.358
1254.16	36.4755
1255.25	37.9974
1256.34	33.6689
1257.43	35.788
1258.52	34.0245
1259.61	34.4661
1260.7	34.6664
1261.79	35.5331
1262.88	36.5911
1263.97	34.9793
1265.06	38.7883
1266.15	35.5389
1267.24	33.5811
1268.33	31.6992
1269.42	34.3382
1270.51	33.3349
1271.6	36.7015
1272.68	30.0456
1273.77	34.5867
1274.86	35.2942
1275.95	30.7941
1277.04	30.3117
1278.12	30.4525
1279.21	31.8021
1280.3	31.8189
1281.39	33.8522
1282.47	33.0746
1283.56	31.9333
1284.65	34.0265
1285.73	34.7656
1286.82	33.182
1287.91	31.9761
1288.99	29.8806
1290.08	30.6078
1291.16	30.3789
1292.25	33.141
1293.33	31.77
1294.42	27.9487
1295.5	31.8524
1296.59	29.19
1297.67	32.8485
1298.76	35.2244
1299.84	31.2401
1300.92	35.7092
1302.01	33.3245
1303.09	35.9718
1304.17	37.1881
1305.26	30.1921
1306.34	31.5506
1307.34	26
1308.43	30
1309.52	38
1310.61	38
1311.7	27
1312.78	29
1313.87	31
1314.96	32
1316.04	28
1317.13	30
1318.22	34
1319.3	28
1320.39	30
1321.48	34
1322.56	28
1323.65	30
1324.73	32
1325.82	30
1326.9	32
1327.99	28
1329.07	34
1330.16	34
1331.24	31
1332.33	31
1333.41	30
1334.5	34
1335.58	32
1336.66	34
1337.75	29
1338.83	29
1339.91	34
1341	26
1342.08	32
1343.16	36
1344.24	30
1345.33	28
1346.41	34
1347.49	29
1348.57	29
1349.65	33
1350.74	30
1351.82	24
1352.9	30
1353.98	33
1355.06	31
1356.14	34
1357.22	31
1358.3	30
1359.38	27
1360.46	36
1361.54	32
1362.62	27
1363.7	32
1364.78	32
1365.86	32
1366.94	28
1368.02	31
1369.09	31
1370.17	32
1371.25	34
1372.33	30
1373.41	35
1374.48	29
1375.56	34
1376.64	33
1377.72	33
1378.79	34
1379.87	33
1380.95	33
1382.02	33
1383.1	24
1384.17	36
1385.25	35
1386.33	34
1387.4	38
1388.48	34
1389.55	31
1390.63	37
1391.7	31
1392.78	39
1393.85	34
1394.93	33
1396	35
1397.07	42
1398.15	34
1399.22	34
1400.3	34
1401.37	32
1402.44	38
1403.52	38
1404.59	38
1405.66	32
1406.73	31
1407.81	36
1408.88	38
1409.95	39
1411.02	40
1412.09	37
1413.17	39
1414.24	34
1415.31	36
1416.38	40
1417.45	34
1418.52	32
1419.59	39
1420.66	35
1421.73	30
1422.8	34
1423.87	30
1424.94	35
1426.01	38
1427.08	36
1428.15	37
1429.22	36
1430.29	32
1431.35	32
1432.42	30
1433.49	34
1434.56	38
1435.63	36
1436.69	32
1437.76	36
1438.83	33
1439.9	28
1440.96	29
1442.03	33
1443.1	35
1444.17	29
1445.23	35
1446.3	34
1447.36	36
1448.43	31
1449.49	33
1450.56	35
1451.63	29
1452.69	34
1453.76	38
1454.82	35
1455.89	28
1456.95	32
1458.01	28
1459.08	31
1460.14	34
1461.21	41
1462.27	30
1463.34	31
1464.4	39
1465.46	30
1466.52	33
1467.59	32
1468.65	32
1469.71	36
1470.77	35
1471.84	32
1472.9	34
1473.96	30
1475.02	38
1476.08	31
1477.15	34
1478.21	32
1479.27	31
1480.33	34
1481.39	32
1482.45	34
1483.51	34
1484.57	24
1485.63	33
1486.69	34
1487.75	35
1488.81	33
1489.87	32
1490.93	35
1491.99	35
1493.05	37
1494.1	36
1495.16	31
1496.22	32
1497.28	32
1498.34	35
1499.4	35
1500.45	35
1501.51	34
1502.57	32
1503.63	30
1504.68	35
1505.74	32
1506.8	29
1507.85	34
1508.91	32
1509.97	35
1511.02	36
1512.08	34
1513.13	30
1514.19	29
1515.24	33
1516.3	38
1517.35	36
1518.41	28
1519.46	32
1520.52	36
1521.57	34
1522.63	30
1523.68	35
1524.73	31
1525.79	38
1526.84	31
1527.9	32
1528.95	33
1530	34
1531.05	34
1532.11	32
1533.16	38
1534.21	37
1535.26	38
1536.32	34
1537.37	28
1538.42	34
1539.47	30
1540.52	35
1541.57	34
1542.63	33
1543.68	30
1544.73	34
1545.78	35
1546.83	30
1547.88	26
1548.93	29
1549.98	34
1551.03	30
1552.08	34
1553.13	34
1554.18	35
1555.23	28
1556.27	31
1557.32	34
1558.37	37
1559.42	33
1560.47	31
1561.52	33
1562.56	33
1563.61	32
1564.66	32
1565.71	34
1566.75	37
1567.8	32
1568.85	37
1569.9	35
1570.94	34
1571.99	32
1573.03	34
1574.08	24
1575.13	34
1576.17	34
1577.22	32
1578.26	33
1579.31	32
1580.35	38
1581.4	34
1582.44	34
1583.49	34
1584.53	34
1585.58	33
1586.62	38
1587.66	37
1588.71	36
1589.75	33
1590.8	35
1591.84	31
1592.88	30
1593.92	32
1594.97	30
1596.01	36
1597.05	32
1598.1	29
1599.14	36
1600.18	34
1601.22	34
1602.26	28
1603.3	32
1604.35	32
1605.39	34
1606.43	39
1607.47	32
1608.51	33
1609.55	28
1610.59	28
1611.63	28
1612.67	31
1613.71	30
1614.75	26
1615.79	30
1616.83	31
1617.87	34
1618.91	30
1619.95	31
1620.99	30
1622.02	33
1623.06	32
1624.1	30
1625.14	35
1626.18	33
1627.21	30
1628.25	32
1629.29	37
1630.33	33
1631.36	30
1632.4	30
1633.44	29
1634.48	30
1635.51	27
1636.55	33
1637.58	34
1638.62	32
1639.66	34
1640.69	36
1641.73	37
1642.76	32
1643.8	37
1644.83	30
1645.87	28
1646.9	30
1647.94	40
1648.97	36
1650	36
1651.04	36
1652.07	30
1653.11	35
1654.14	34
1655.17	33
1656.21	30
1657.24	35
1658.27	34
1659.31	30
1660.34	31
1661.37	36
1662.4	32
1663.43	32
1664.47	32
1665.5	32
1666.53	36
1667.56	30
1668.59	33
1669.62	26
1670.66	30
1671.69	36
1672.72	32
1673.75	34
1674.78	26
1675.81	33
1676.84	33
1677.87	40
1678.9	32
1679.93	34
1680.96	30
1681.98	33
1683.01	30
1684.04	35
1685.07	33
1686.1	31
1687.13	33
1688.16	35
1689.18	34
1690.21	34
1691.24	34
1692.27	32
1693.3	26
1694.32	39
1695.35	33
1696.38	36
1697.4	34
1698.43	36
1699.46	33
1700.48	32
1701.51	34
1702.54	33
1703.56	26
1704.59	34
1705.61	26
1706.64	29
1707.66	28
1708.69	30
1709.71	32
1710.74	31
1711.76	31
1712.79	29
1713.81	29
1714.83	36
1715.86	33
1716.88	31
1717.91	36
1718.93	31
1719.95	31
1720.98	30
1722	29
1723.02	33
1724.04	38
1725.07	36
1726.09	30
1727.11	32
1728.13	30
1729.15	36
1730.18	28
1731.2	32
1732.22	32
1733.24	28
1734.26	33
1735.28	29
1736.3	29
1737.32	30
1738.34	30
1739.36	34
1740.38	32
1741.4	36
1742.42	26
1743.44	30
1744.46	32
1745.48	33
1746.5	34
1747.52	33
1748.54	32
1749.56	33
1750.58	31
1751.6	33
1752.61	32
1753.63	28
1754.65	30
1755.67	31
1756.68	33
1757.7	37
1758.72	28
1759.74	32
1760.75	34
1761.77	31
1762.79	27
1763.8	31
1764.82	31
1765.83	35
1766.85	31
1767.87	33
1768.88	32
1769.9	28
1770.91	32
1771.93	30
1772.94	33
1773.96	32
1774.97	30
1775.99	38
1777	30
1778.02	27
1779.03	30
1780.04	34
1781.06	35
1782.07	36
1783.09	28
1784.1	36
1785.11	36
1786.13	30
1787.14	32
1788.15	31
1789.16	29
1790.18	28
1791.19	34
1792.2	26
1793.21	30
1794.22	30
1795.23	29
1796.25	34
1797.26	32
1798.27	34
1799.28	31
1800.29	30
1801.3	27
1802.31	29
1803.32	31
1804.33	30
1805.34	32
1806.35	40
1807.36	34
1808.37	28
1809.38	26
1810.39	32
1811.4	24
1812.41	33
1813.42	27
1814.42	27
1815.43	32
1816.44	30
1817.45	33
1818.46	34
1819.47	30
1820.47	29
1821.48	29
1822.49	31
1823.49	26
1824.5	26
1825.51	30
1826.52	29
1827.52	32
1828.53	26
1829.53	32
1830.54	35
1831.55	33
1832.55	26
1833.56	32
1834.56	34
1835.57	28
1836.57	36
1837.58	30
1838.58	36
1839.59	28
1840.59	35
1841.6	34
1842.6	32
1843.61	28
1844.61	31
1845.61	34
1846.62	32
1847.62	28
1848.62	34
1849.63	29
1850.63	30
1851.63	29
1852.64	27
1853.64	25
1854.64	30
1855.64	32
1856.64	34
1857.65	34
1858.65	32
1859.65	30
1860.65	32
1861.65	34
1862.65	32
1863.65	32
1864.66	36
1865.66	35
1866.66	32
1867.66	28
1868.66	31
1869.66	35
1870.66	28
1871.66	26
1872.66	29
1873.66	33
1874.66	35
1875.65	30
1876.65	29
1877.65	31
1878.65	28
1879.65	28
1880.65	29
1881.65	31
1882.64	34
1883.64	28
1884.64	29
1885.64	26
1886.63	30
1887.63	31
1888.63	33
1889.63	31
1890.62	37
1891.62	36
1892.62	30
1893.61	35
1894.61	33
1895.6	28
1896.6	28
1897.6	32
1898.59	30
1899.59	31
1900.58	26
1901.58	31
1902.57	31
1903.57	28
1904.56	28
1905.56	33
1906.55	28
1907.54	30
1908.54	32
1909.53	32
1910.53	26
1911.52	28
1912.51	22
1913.51	33
1914.5	30
1915.49	35
1916.49	34
1917.48	32
1918.47	34
1919.46	24
1920.46	27
1921.45	32
1922.44	30
1923.43	28
1924.42	30
1925.41	27
1926.41	34
1927.4	24
1928.39	26
1929.38	30
1930.37	27
1931.36	28
1932.35	25
1933.34	31
1934.33	32
1935.32	29
1936.31	31
1937.3	28
1938.29	30
1939.28	32
1940.27	31
1941.26	32
1942.24	28
1943.23	24
1944.22	30
1945.21	33
1946.2	34
1947.19	27
1948.17	30
1949.16	30
1950.15	31.5
1951.14	31
1952.12	30
1953.11	30
1954.1	36
1955.09	23
1956.07	32
1957.06	30
1958.05	33
1959.03	30
1960.02	36
1961	32
1961.99	34
1962.98	26
1963.96	29
1964.95	28
1965.93	28
1966.92	27
1967.9	31
1968.89	34
1969.87	29
1970.85	31
1971.84	31
1972.82	29
1973.81	22
1974.79	30
1975.78	33
1976.76	28
1977.74	32
1978.73	27
1979.71	30
1980.69	28
1981.67	26
1982.66	34
1983.64	35
1984.62	33
1985.6	30
1986.59	28
1987.57	30
1988.55	34
1989.53	26
1990.51	30
1991.49	29
1992.47	32
1993.45	30
1994.44	29
1995.42	26
1996.4	30
1997.38	28
1998.36	32
1999.34	32
2000.32	26
2001.3	34
2002.28	32
2003.26	34
2004.24	30
2005.22	29
2006.19	26
2007.17	31
2008.15	30
2009.13	27
2010.11	30
2011.09	32
2012.06	26
2013.04	30
2014.02	38
2015	22
2015.98	30
2016.95	32
2017.93	30
2018.91	31
2019.88	34
2020.86	24
2021.84	29
2022.81	26
2023.79	33
2024.77	33
2025.74	27
2026.72	28
2027.69	32
2028.67	24
2029.65	26
2030.62	30
2031.6	29
2032.57	30
2033.55	33
2034.52	30
2035.5	28
2036.47	32
2037.44	28
2038.42	22
2039.39	33
2040.36	33
2041.34	28
2042.31	29
2043.29	34
2044.26	32
2045.23	28
2046.2	26
2047.18	26
2048.15	32
2049.12	28
2050.09	26
2051.07	28
2052.04	24
2053.01	24
2053.98	24
2054.95	30
2055.93	31
2056.9	28
2057.87	30
2058.84	34
2059.81	32
2060.78	32
2061.75	30
2062.72	29
2063.69	24
2064.66	31
2065.63	28
2066.6	28
2067.57	26
2068.54	29
2069.51	32
2070.48	26
2071.45	27
2072.42	30
2073.38	28
2074.35	23
2075.32	28
2076.29	30
2077.26	28
2078.23	32
2079.19	30
2080.16	33
2081.13	26
2082.1	30
2083.06	30
2084.03	30
2085	28
2085.96	28
2086.93	31
2087.9	28
2088.86	28
2089.83	26
2090.8	28
2091.76	29
2092.73	27
2093.69	33
2094.66	29
2095.62	32
2096.59	30
2097.55	26
2098.52	29
2099.48	28
2100.45	26
2101.41	31
2102.38	29
2103.34	24
2104.31	20
2105.27	30
2106.23	28
2107.2	28
2108.16	27
2109.12	37
2110.09	26
2111.05	27
2112.01	28
2112.98	26
2113.94	27
2114.9	28
2115.86	28
2116.82	30
2117.79	29
2118.75	30
2119.71	26
2120.67	30
2121.63	29
2122.59	26
2123.55	27
2124.52	31
2125.48	28
2126.44	31
2127.4	32
2128.36	28
2129.32	32
2130.28	32
2131.24	31
2132.2	27
2133.16	26
2134.12	26
2135.08	26
2136.04	28
2136.99	29
2137.95	30
2138.91	26
2139.87	26
2140.83	26
2141.79	26
2142.75	25
2143.7	29
2144.66	22
2145.62	25.9962
2146.58	27.8636
2147.53	31.8488
2148.49	28.8312
2149.45	26.9152
2150.41	29.8035
2151.36	28.1743
2152.32	26.0868
2153.27	23.5648
2154.23	27.8137
2155.19	30.4758
2156.14	26.6945
2157.1	28.3362
2158.06	32.6968
2159.01	29.8541
2159.97	27.139
2160.92	26.5247
2161.88	24.6826
2162.83	26.0021
2163.79	28.8088
2164.74	25.204
2165.7	30.3716
2166.65	27.438
2167.61	30.3135
2168.56	27.4744
2169.51	30.7204
2170.47	27.0535
2171.42	26.3155
2172.38	31.0944
2173.33	25.1281
2174.28	26.3153
2175.24	30.2344
2176.19	31.9793
2177.14	27.5413
2178.09	26.2626
2179.05	29.5968
2180	24.8059
2180.95	27.6349
2181.9	24.9834
2182.86	30.2773
2183.81	28.2445
2184.76	27.8104
2185.71	25.6583
2186.66	29.2206
2187.61	28.1095
2188.57	25.0092
2189.52	23.8235
2190.47	26.1348
2191.42	28.1964
2192.37	28.0735
2193.32	25.9984
2194.27	27.4368
2195.22	28.3118
2196.17	27.2465
2197.12	28.2235
2198.07	26.8744
2199.02	23.5497
2199.97	28.3288
2200.92	27.5061
2201.87	27.25
2202.82	23.3079
2203.76	24.3824
2204.71	25.2807
2205.66	27.1714
2206.61	26.6738
2207.56	28.0902
2208.51	25.3039
2209.45	28.0156
2210.4	25.6769
2211.35	25.3026
2212.3	26.7714
2213.24	27.1658
2214.19	27.4841
2215.14	26.4042
2216.09	29.0523
2217.03	30.5196
2217.98	27.6849
2218.93	25.86
2219.87	26.4589
2220.82	27.7209
2221.77	30.6669
2222.71	26.9683
2223.66	28.3159
2224.6	27.2509
2225.55	27.2392
2226.49	30.0296
2227.44	27.2982
2228.38	25.1656
2229.33	27.7609
2230.27	29.5098
2231.22	30.1127
2232.16	31.0287
2233.11	29.447
2234.05	25.5552
2235	27.9355
2235.94	31.4623
2236.88	31.9954
2237.83	30.2794
2238.77	33.0893
2239.71	31.1802
2240.66	29.6986
2241.6	28.1124
2242	26
2242.95	30
2243.9	26
2244.84	26
2245.79	27
2246.74	24
2247.69	29
2248.63	31
2249.58	20
2250.53	25
2251.47	28
2252.42	33
2253.37	28
2254.31	22
2255.26	32
2256.2	24
2257.15	30
2258.1	30
2259.04	23
2259.99	28
2260.93	24
2261.88	27
2262.82	25
2263.77	29
2264.71	27
2265.65	26
2266.6	25
2267.54	25
2268.49	31
2269.43	30
2270.38	27
2271.32	30
2272.26	29
2273.21	24
2274.15	28
2275.09	22
2276.04	28
2276.98	33
2277.92	29
2278.86	28
2279.81	32
2280.75	29
2281.69	26
2282.63	25
2283.57	27
2284.52	28
2285.46	26
2286.4	27
2287.34	22
2288.28	29
2289.22	28
2290.16	27
2291.1	29
2292.04	28
2292.98	30
2293.93	28
2294.86	29
2295.8	25
2296.74	24
2297.69	27
2298.62	30
2299.56	27
2300.5	33
2301.44	30
2302.38	28
2303.32	27
2304.26	30
2305.2	33
2306.14	26
2307.07	27
2308.01	29
2308.95	27
2309.89	27
2310.83	28
2311.76	27
2312.7	31
2313.64	21
2314.58	32
2315.51	28
2316.45	30
2317.39	27
2318.32	28
2319.26	28
2320.2	33
2321.13	32
2322.07	24
2323	28
2323.94	31
2324.88	25
2325.81	24
2326.75	29
2327.68	24
2328.62	26
2329.55	26
2330.49	25
2331.42	30
2332.36	29
2333.29	28
2334.22	24
2335.16	30
2336.09	26
2337.03	30
2337.96	26
2338.89	24
2339.83	29
2340.76	26
2341.69	28
2342.63	29
2343.56	27
2344.49	25
2345.43	28
2346.36	33
2347.29	28
2348.22	29
2349.15	29
2350.09	27
2351.02	24
2351.95	24
2352.88	30
2353.81	25
2354.74	24
2355.67	26
2356.61	22
2357.54	28
2358.47	28
2359.4	30
2360.33	29
2361.26	28
2362.19	28
2363.12	25
2364.05	30
2364.98	31
2365.91	33
2366.84	29
2367.77	33
2368.7	29
2369.62	33
2370.55	29
2371.48	27
2372.41	26
2373.34	28
2374.27	29
2375.2	29
2376.12	33
2377.05	27
2377.98	29
2378.91	25
2379.83	24
2380.76	28
2381.69	26
2382.62	29
2383.54	26
2384.47	33
2385.4	27
2386.32	26
2387.25	27
2388.18	31
2389.1	27
2390.03	27
2390.95	32
2391.88	28
2392.81	29
2393.73	27
2394.66	24
2395.58	27
2396.51	31
2397.43	30
2398.36	30
2399.28	27
2400.2	30
2401.13	28
2402.05	31
2402.98	33
2403.9	27
2404.83	30
2405.75	27
2406.67	26
2407.6	29
2408.52	30
2409.44	30
2410.37	30
2411.29	31
2412.21	27
2413.13	26
2414.06	28
2414.98	29
2415.9	26
2416.82	30
2417.74	28
2418.67	30
2419.59	32
2420.51	27
2421.43	32
2422.35	26
2423.27	27
2424.19	32
2425.11	22
2426.03	28
2426.96	26
2427.88	28
2428.8	26
2429.72	24
2430.64	30
2431.56	28
2432.48	26
2433.39	28
2434.31	31
2435.23	28
2436.15	29
2437.07	29
2437.99	35
2438.91	28
2439.83	24
2440.75	31
2441.67	24
2442.58	26
2443.5	30
2444.42	26
2445.34	27
2446.26	29
2447.17	31
2448.09	30
2449.01	31
2449.92	30
2450.84	31
2451.76	30
2452.68	32
2453.59	28
2454.51	33
2455.42	28
2456.34	30
2457.26	24
2458.17	26
2459.09	29
2460	24
2460.92	24
2461.83	28
2462.75	28
2463.66	26
2464.58	24
2465.49	31
2466.41	22
2467.32	26
2468.24	28
2469.15	27
2470.07	27
2470.98	30
2471.89	28
2472.81	30
2473.72	34
2474.64	26
2475.55	30
2476.46	22
2477.37	29
2478.29	35
2479.2	28
2480.11	28
2481.03	27
2481.94	31
2482.85	32
2483.76	31
2484.67	35
2485.59	26
2486.5	26
2487.41	34
2488.32	28
2489.23	30
2490.14	30
2491.05	28
2491.97	31
2492.88	30
2493.79	27
2494.7	28
2495.61	25
2496.52	26
2497.43	26
2498.34	28
2499.25	27
2500.16	30
2501.07	31
2501.98	28
2502.89	24
2503.79	28
2504.7	33
2505.61	29
2506.52	31
2507.43	29
2508.34	30
2509.25	24
2510.16	27
2511.06	28
2511.97	26
2512.88	26
2513.79	27
2514.69	33
2515.6	30
2516.51	26
2517.42	30
2518.32	25
2519.23	30
2520.14	29
2521.04	26
2521.95	32
2522.86	29
2523.76	28
2524.67	27
2525.57	26
2526.48	27
2527.39	25
2528.29	28
2529.2	29
2530.1	28
2531.01	28
2531.91	26
2532.82	28
2533.72	30
2534.63	32
2535.53	27
2536.44	30
2537.34	35
2538.24	27
2539.15	30
2540.05	30
2540.96	25
2541.86	31
2542.76	30
2543.67	28
2544.57	28
2545.47	28
2546.37	26
2547.28	30
2548.18	29
2549.08	30
2549.99	28
2550.89	30
2551.79	32
2552.69	30
2553.59	24
2554.49	30
2555.4	26
2556.3	29
2557.2	31
2558.1	31
2559	20
2559.9	26
2560.8	28
2561.7	31
2562.6	29
2563.5	28
2564.4	26
2565.3	31
2566.2	32
2567.1	30
2568	24
2568.9	30
2569.8	28
2570.7	30
2571.6	30
2572.5	22
2573.4	29
2574.3	22
2575.2	31
2576.1	26
2576.99	28
2577.89	28
2578.79	31
2579.69	28
2580.59	27
2581.48	30
2582.38	22
2583.28	23
2584.18	24
2585.07	32
2585.97	24
2586.87	27
2587.76	26
2588.66	30
2589.56	28
2590.45	29
2591.35	26
2592.25	30
2593.14	30
2594.04	28
2594.93	26
2595.83	29
2596.73	24
2597.62	26
2598.52	33
2599.41	27
2600.31	23
2601.2	30
2602.1	31
2602.99	24
2603.88	27
2604.78	28
2605.67	31
2606.57	31
2607.46	30
2608.35	29
2609.25	31
2610.14	26
2611.03	27
2611.93	32
2612.82	30
2613.71	34
2614.61	32
2615.5	27
2616.39	28
2617.29	32
2618.18	26
2619.07	28
2619.96	32
2620.85	28
2621.75	28
2622.64	25
2623.53	30
2624.42	26
2625.31	26
2626.2	28
2627.09	31
2627.98	28
2628.88	32
2629.77	24
2630.66	25
2631.55	26
2632.44	28
2633.33	30
2634.22	31
2635.11	28
2636	28
2636.89	28
2637.78	32
2638.66	26
2639.55	25
2640.44	23
2641.33	30
2642.22	30
2643.11	24
2644	24
2644.89	26
2645.78	28
2646.66	30
2647.55	28
2648.44	26
2649.33	28
2650.21	24
2651.1	27
2651.99	24
2652.88	30
2653.76	28
2654.65	29
2655.54	30
2656.42	30
2657.31	30
2658.2	28
2659.08	26
2659.97	29
2660.86	26
2661.74	27
2662.63	32
2663.51	29
2664.4	32
2665.29	26
2666.17	28
2667.06	28
2667.94	26
2668.83	26
2669.71	30
2670.6	26
2671.48	30
2672.36	31
2673.25	27
2674.13	27
2675.02	32
2675.9	29
2676.78	27
2677.67	26
2678.55	30
2679.43	26
2680.32	28
2681.2	24
2682.08	28
2682.97	30
2683.85	32
2684.73	28
2685.61	29
2686.5	26
2687.38	34
2688.26	26
2689.14	24
2690.03	26
2690.91	28
2691.79	26
2692.67	26
2693.55	27
2694.43	29
2695.31	29
2696.19	34
2697.08	25
2697.96	31
2698.84	26
2699.72	26
2700.6	28
2701.48	30
2702.36	24
2703.24	26
2704.12	26
2705	27
2705.88	29
2706.76	28
2707.64	29
2708.51	26
2709.39	30
2710.27	27
2711.15	22
2712.03	29
2712.91	26
2713.79	26
2714.67	31
2715.54	28
2716.42	22
2717.3	32
2718.18	30
2719.05	26
2719.93	27
2720.81	28
2721.69	30
2722.56	26
2723.44	28
2724.32	27
2725.19	28
2726.07	26
2726.95	32
2727.82	30
2728.7	24
2729.58	28
2730.45	28
2731.33	28
2732.2	28
2733.08	31
2733.95	31
2734.83	26
2735.7	28
2736.58	26
2737.45	32
2738.33	29
2739.2	26
2740.08	29
2740.95	25
2741.83	30
2742.7	28
2743.58	22
2744.45	29
2745.32	30
2746.2	31
2747.07	28
2747.94	26
2748.82	28
2749.69	24
2750.56	27
2751.44	29
2752.31	32
2753.18	28
2754.05	31
2754.93	29
2755.8	31
2756.67	25
2757.54	26
2758.42	30
2759.29	30
2760.16	30
2761.03	29
2761.9	34
2762.77	28
2763.64	28
2764.51	28
2765.38	29
2766.26	31
2767.13	29
2768	31
2768.87	29
2769.74	32
2770.61	32
2771.48	25
2772.35	26
2773.22	30
2774.09	31
2774.96	26
2775.83	28
2776.7	30
2777.56	27
2778.43	32
2779.3	29
2780.17	33
2781.04	32
2781.91	28
2782.78	28
2783.64	26
2784.51	26
2785.38	28
2786.25	28
2787.12	27
2787.98	29
2788.85	31
2789.72	24
2790.59	31
2791.45	32
2792.32	29
2793.19	27
2794.05	26
2794.92	30
2795.79	36
2796.65	29
2797.52	26
2798.38	29
2799.25	27
2800.12	27
2800.98	29
2801.85	31
2802.71	32
2803.58	32
2804.44	31
2805.31	32
2806.17	32
2807.04	25
2807.9	29
2808.77	30
2809.63	26
2810.5	28
2811.36	33
2812.22	33
2813.09	25
2813.95	34
2814.82	28
2815.68	29
2816.54	30
2817.41	34
2818.27	24
2819.13	32
2820	26
2820.86	24
2821.72	33
2822.58	30
2823.45	26
2824.31	30
2825.17	24
2826.03	32
2826.9	30
2827.76	26
2828.62	26
2829.48	27
2830.34	28
2831.2	29
2832.06	30
2832.92	32
2833.79	24
2834.65	24
2835.51	30
2836.37	31
2837.23	28
2838.09	30
2838.95	26
2839.81	31
2840.67	28
2841.53	26
2842.39	31
2843.25	28
2844.11	31
2844.97	26
2845.83	27
2846.68	28
2847.54	26
2848.4	30
2849.26	30
2850.12	31
2850.98	30
2851.84	32
2852.69	30
2853.55	24
2854.41	32
2855.27	30
2856.13	29
2856.98	26
2857.84	31
2858.7	28
2859.56	28
2860.41	33
2861.27	26
2862.13	28
2862.98	30
2863.84	28
2864.7	33
2865.55	30
2866.41	32
2867.27	30
2868.12	32
2868.98	30
2869.83	30
2870.69	33
2871.54	28
2872.4	32
2873.25	38
2874.11	30
2874.96	30
2875.82	34
2876.68	28
2877.53	32
2878.38	20
2879.24	33
2880.09	30
2880.95	34
2881.8	37
2882.65	34
2883.51	34
2884.36	34
2885.22	41
2886.07	38
2886.92	34
2887.77	36
2888.63	42
2889.48	38
2890.33	34
2891.19	41
2892.04	46
2892.89	42
2893.74	43
2894.6	42
2895.45	45
2896.3	36
2897.15	44
2898	48
2898.85	44
2899.71	50
2900.56	54
2901.41	56
2902.26	54
2903.11	58
2903.96	60
2904.81	63
2905.66	62
2906.51	60
2907.36	60
2908.21	60
2909.06	59
2909.91	58
2910.76	62
2911.61	58
2912.46	53
2913.31	49
2914.16	55
2915.01	40
2915.86	42
2916.71	47
2917.56	40
2918.41	40
2919.26	38
2920.1	34
2920.95	33
2921.8	34
2922.65	37
2923.5	36
2924.34	38
2925.19	36
2926.04	36
2926.89	35
2927.74	30
2928.58	33
2929.43	34
2930.28	30
2931.12	31
2931.97	32
2932.82	30
2933.66	32
2934.51	32
2935.36	30
2936.2	28
2937.05	34
2937.89	28
2938.74	33
2939.59	34
2940.43	30
2941.28	32
2942.12	28
2942.97	30
2943.81	26
2944.66	26
2945.5	31
2946.35	32
2947.19	32
2948.04	26
2948.88	29
2949.72	31
2950.57	32
2951.41	34
2952.26	34
2953.1	36
2953.94	38
2954.79	32
2955.63	34
2956.47	39
2957.32	37
2958.16	40
2959	32
2959.85	37
2960.69	42
2961.53	37
2962.37	35
2963.22	40
2964.06	37
2964.9	42
2965.74	41
2966.58	46
2967.42	38
2968.27	37
2969.11	41
2969.95	28
2970.79	37
2971.63	40
2972.47	40
2973.31	40
2974.15	35
2974.99	40
2975.83	35
2976.68	34
2977.52	32
2978.36	32
2979.2	36
2980.04	30
2980.88	32
2981.71	33
2982.55	36
2983.39	30
2984.23	30
2985.07	30
2985.91	29
2986.75	26
2987.59	32
2988.43	29
2989.27	26
2990.1	30
2990.94	32
2991.78	30
2992.62	33
2993.46	30
2994.3	32
2995.13	26
2995.97	27
2996.81	27
2997.64	31
2998.48	24
2999.32	26
