#Acq. time (s)=	3
#Accumulations=	3
#Range (cm-¹)=	100...3000
#Windows=	3
#Autofocus=	Off
#AutoExposure=	Off
#Spike filter=	Multiple accum.
#Delay time (s)=	0
#Binning=	1
#Readout mode=	Signal
#DeNoise=	Off
#ICS correction=	Off
#Dark correction=	Off
#Inst. Process=	Off
#Instrument=	LabRAM HR Evol
#Detector=	Syncerity OE
#Objective=	x100_VIS_LWD
#Grating=	600 (500nm)
#ND Filter=	25%
#Laser=	633nm_Edge
#Hole=	100.021
#Range=	Visible
#Project=	Bolus
#Sample=	A2
#Site=	stripside
#Title=	m13
#Remark=	
#Date=	03.11.2025 19:37
#Acquired=	03.11.2025 19:37:30
100.969	39
102.252	41
103.535	40
104.818	45
106.101	40
107.384	43
108.666	45
109.948	42
111.232	40
112.514	34
113.795	42
115.077	39
116.358	39
117.639	42
118.919	38
120.2	36
121.48	42
122.76	42
124.04	34
125.32	40
126.599	34
127.879	40
129.158	38
130.436	38
131.715	44
132.992	45
134.27	45
135.548	42
136.826	44
138.104	45
139.381	45
140.658	43
141.935	46
143.212	49
144.489	44
145.763	49
147.04	42
148.315	50
149.591	45
150.867	42
152.142	50
153.416	46
154.691	56
155.965	53
157.24	50
158.514	46
159.786	48
161.06	48
162.334	44
163.607	43
164.881	48
166.152	45
167.425	52
168.698	48
169.969	44
171.241	40
172.513	42
173.785	51
175.055	50
176.326	41
177.597	45
178.867	46
180.137	48
181.408	54
182.677	48
183.947	54
185.217	48
186.485	47
187.755	49
189.022	48
190.291	52
191.56	50
192.828	44
194.096	47
195.363	45
196.631	51
197.899	38
199.165	47
200.432	46
201.698	50
202.965	50
204.23	42
205.497	45
206.762	43
208.028	50
209.293	45
210.559	34
211.823	42
213.088	46
214.352	47
215.617	43
216.88	42
218.145	40
219.408	47
220.672	42
221.934	45
223.196	46
224.46	46
225.722	39
226.985	42
228.246	38
229.508	42
230.77	34
232.031	42
233.292	37
234.554	42
235.814	42
237.074	46
238.335	42
239.595	41
240.854	42
242.115	39
243.374	32
244.633	39
245.893	39
247.151	41
248.409	34
249.667	40
250.927	45
252.184	38
253.442	40
254.699	38
255.957	41
257.214	40
258.47	41
259.727	40
260.983	42
262.24	40
263.496	39
264.752	40
266.007	39
267.262	45
268.517	39
269.773	37
271.028	35
272.282	36
273.536	35
274.79	37
276.044	38
277.297	37
278.551	40
279.804	36
281.057	39
282.31	40
283.564	39
284.816	40
286.068	36
287.32	40
288.572	34
289.823	38
291.074	36
292.325	40
293.576	33
294.827	40
296.077	41
297.328	37
298.578	34
299.828	39
301.077	36
302.325	40
303.575	38
304.824	40
306.073	37
307.321	39
308.57	38
309.818	42
311.066	40
312.314	42
313.562	44
314.808	43
316.055	34
317.302	40
318.549	37
319.796	37
321.042	42
322.288	36
323.533	42
324.779	38
326.024	42
327.27	37
328.515	41
329.759	41
331.004	40
332.248	43
333.493	38
334.736	38
335.98	32
337.223	45
338.466	44
339.709	35
340.952	42
342.195	39
343.437	41
344.68	40
345.922	41
347.163	40
348.405	34
349.647	42
350.887	42
352.128	32
353.37	45
354.609	43
355.85	42
357.089	44
358.33	37
359.57	43
360.809	40
362.049	35
363.287	42
364.526	35
365.764	40
367.003	36
368.241	42
369.479	32
370.718	34
371.955	38
373.193	40
374.429	34
375.667	37
376.903	37
378.139	37
379.376	32
380.611	41
381.848	43
383.083	38
384.319	40
385.554	32
386.79	39
388.024	38
389.258	40
390.493	40
391.727	42
392.962	39
394.195	38
395.428	40
396.663	44
397.895	41
399.128	36
400.361	40
401.593	37
402.825	32
404.058	37
405.29	40
406.521	38
407.752	40
408.985	36
410.215	38
411.446	34
412.678	34
413.908	35
415.138	41
416.367	41
417.597	38
418.828	38
420.057	37
421.286	42
422.514	38
423.743	35
424.973	35
426.201	41
427.429	34
428.657	39
429.884	43
431.112	38
432.34	41
433.567	38
434.794	36
436.02	44
437.247	38
438.473	41
439.699	36
440.925	42
442.15	34
443.376	41
444.601	41
445.826	42
447.051	41
448.275	39
449.5	40
450.724	36
451.948	41
453.172	38
454.396	42
455.619	40
456.842	34
458.065	41
459.288	46
460.511	43
461.733	44
462.956	44
464.178	41
465.4	44
466.621	36
467.843	44
469.064	50
470.285	40
471.505	41
472.726	45
473.946	42
475.166	49
476.387	46
477.606	52
478.825	54
480.044	58
481.264	46
482.483	57
483.702	58
484.921	56
486.138	62
487.356	68
488.574	67
489.792	63
491.009	58
492.226	65
493.444	58
494.661	56
495.877	61
497.094	52
498.31	56
499.525	52
500.741	48
501.958	54
503.172	55
504.388	52
505.603	42
506.817	47
508.032	36
509.247	40
510.46	44
511.675	46
512.888	48
514.102	41
515.316	41
516.528	41
517.742	38
518.954	44
520.167	38
521.378	50
522.591	39
523.802	40
525.015	43
526.226	43
527.438	45
528.648	38
529.86	34
531.07	42
532.281	42
533.491	38
534.702	43
535.911	43
537.121	38
538.33	34
539.54	40
540.749	40
541.957	43
543.167	38
544.375	36
545.584	39
546.791	41
547.999	40
549.207	38
550.414	40
551.621	37
552.829	33
554.035	39
555.241	39
556.449	41
557.655	34
558.86	37
560.066	38
561.272	42
562.477	32
563.682	41
564.888	34
566.093	36
567.297	39
568.501	38
569.705	38
570.91	38
572.114	35
573.317	35
574.52	35
575.723	38
576.927	38
578.13	42
579.332	31
580.535	39
581.737	30
582.938	39
584.14	38
585.343	43
586.544	36
587.745	40
588.946	38
590.147	37
591.347	39
592.548	35
593.748	37
594.948	39
596.147	40
597.347	37
598.546	37
599.745	39
600.944	39
602.143	40
603.342	39
604.54	32
605.738	42
606.937	36
608.134	38
609.332	39
610.529	38
611.727	38
612.924	40
614.121	41
615.317	36
616.513	38
617.709	38
618.905	38
620.101	38
621.297	36
622.492	36
623.688	37
624.883	36
626.077	40
627.271	41
628.466	34
629.66	45
630.855	38
632.047	47
633.241	37
634.435	38
635.629	37
636.82	43
638.014	36
639.207	45
640.399	38
641.59	40
642.783	40
643.975	38
645.166	40
646.357	37
647.549	35
648.741	34
649.93	38
651.122	32
652.311	34
653.502	41
654.692	34
655.881	42
657.071	38
658.261	39
659.45	44
660.639	40
661.827	35
663.016	42
664.204	34
665.393	38
666.581	39
667.769	40
668.957	45
670.143	45
671.331	40
672.518	40
673.705	42
674.891	40
676.078	43
677.264	35
678.451	46
679.636	48
680.821	42
682.007	46
683.192	45
684.378	45
685.562	40
686.747	48
687.931	48
689.115	40
690.3	40
691.483	43
692.666	48
693.851	46
695.034	44
696.216	41
697.4	44
698.582	41
699.764	53
700.948	42
702.129	42
703.311	48
704.493	48
705.674	45
706.855	54
708.036	51
709.218	58
710.399	62
711.579	61
712.759	57
713.939	55
715.12	46
716.299	50
717.478	36
718.657	36
719.836	46
721.015	45
722.195	36
723.373	40
724.552	42
725.729	39
726.907	38
728.085	40
729.262	37
730.44	39
731.617	38
732.795	36
733.972	40
735.148	38
736.324	35
737.501	42
738.677	33
739.852	34
741.028	39
742.203	38
743.379	37
744.554	30
745.729	40
746.903	38
748.078	41
749.252	38
750.426	36
751.599	40
752.772	37
753.946	36
755.119	39
756.293	36
757.466	38
758.639	34
759.811	44
760.984	43
762.155	41
763.327	40
764.499	39
765.67	41
766.842	40
768.013	42
769.183	35
770.354	34
771.525	36
772.696	38
773.865	30
775.035	38
776.205	38
777.375	39
778.544	41
779.713	42
780.882	37
782.052	42
783.219	39
784.388	42
785.557	43
786.724	34
787.892	38
789.06	46
790.227	39
791.395	40
792.562	39
793.728	35
794.895	37
796.061	35
797.228	45
798.395	42
799.56	26
800.726	41
801.891	32
803.057	35
804.221	40
805.387	37
806.551	36
807.716	34
808.879	40
810.044	43
811.208	40
812.372	36
813.535	36
814.699	41
815.862	35
817.025	38
818.188	34
819.351	34
820.513	43
821.675	40
822.837	40
823.999	38
825.161	37
826.322	32
827.483	30
828.645	37
829.805	36
830.966	36
832.127	38
833.287	35
834.447	40
835.607	38
836.767	35
837.926	37
839.085	40
840.245	35
841.404	40
842.562	39
843.72	41
844.88	40
846.038	40
847.195	36
848.353	35
849.512	36
850.669	38
851.826	40
852.983	36
854.139	37
855.296	36
856.453	39
857.609	38
858.765	34
859.921	40
861.077	38
862.232	39
863.387	44
864.542	38
865.697	37
866.852	37
868.008	38
869.162	38
870.316	37
871.47	41
872.624	35
873.778	40
874.931	36
876.084	34
877.237	37
878.39	34
879.543	36
880.695	42
881.846	39
882.999	32
884.151	39
885.302	42
886.454	35
887.606	30
888.757	37
889.908	39
891.059	39
892.21	39
893.359	38
894.509	38
895.659	34
896.81	36
897.959	37
899.109	40
900.257	36
901.407	34
902.556	37
903.705	39
904.854	34
906.001	30
907.149	39
908.298	35
909.446	34
910.592	37
911.74	36
912.888	32
914.034	32
915.181	40
916.328	36
917.473	34
918.62	42
919.766	33
920.911	30
922.058	32
923.204	34
924.348	40
925.494	34
926.638	40
927.783	34
928.928	38
930.072	30
931.216	33
932.36	37
933.504	32
934.647	34
935.791	38
936.933	30
938.077	34
939.219	32
940.363	30
941.504	35
942.647	34
943.789	38
944.932	33
946.073	33
947.215	34
948.356	37
949.498	36
950.638	34
951.778	39
952.92	31
954.06	36
955.199	35
956.34	34
957.479	33
958.62	36
959.759	34
960.898	34
962.038	32
963.176	36
964.315	35
965.453	33
966.592	34
967.73	33
968.867	32
970.006	36
971.144	37.5
972.281	35
973.418	33
974.554	32
975.692	37
976.829	31
977.965	36
979.101	36
980.237	41
981.374	34
982.509	36
983.645	39
984.78	36
985.915	32
987.05	36
988.184	36
989.319	34
990.453	32
991.589	33
992.722	34
993.856	40
994.99	36
996.123	36
997.257	33
998.39	34
999.523	34
1000.66	32
1001.79	33
1002.92	36
1004.05	37
1005.18	30
1006.32	38
1007.45	38
1008.58	35
1009.71	32
1010.84	36
1011.97	37
1013.1	32
1014.23	41
1015.36	33
1016.49	32
1017.62	37
1018.75	32
1019.88	32
1021.01	36
1022.14	38
1023.27	37
1024.4	30
1025.53	37
1026.66	28
1027.79	34
1028.91	30
1030.04	36
1031.17	35
1032.3	36
1033.42	32
1034.55	34
1035.68	32
1036.81	33
1037.93	40
1039.06	34
1040.18	34
1041.31	34
1042.44	39
1043.56	33
1044.69	37
1045.81	36
1046.94	33
1048.06	33
1049.19	36
1050.31	36
1051.44	35
1052.56	29
1053.69	37
1054.81	34
1055.93	40
1057.06	34
1058.18	39
1059.3	33
1060.43	34
1061.55	32
1062.67	34
1063.79	32
1064.92	32
1066.04	34
1067.16	36
1068.28	38
1069.4	38
1070.52	34
1071.65	36
1072.77	35
1073.89	33
1075.01	38
1076.13	36
1077.25	36
1078.37	31
1079.49	34
1080.61	30
1081.73	37
1082.85	32
1083.97	34
1085.09	36
1086.2	30
1087.32	32
1088.44	30
1089.56	37
1090.68	35
1091.8	38
1092.91	36
1094.03	38
1095.15	38
1096.26	37
1097.38	34
1098.5	38
1099.61	30
1100.73	38
1101.85	29
1102.96	38
1104.08	32
1105.19	32
1106.31	33
1107.43	34
1108.54	36
1109.66	34
1110.77	32
1111.88	34
1113	36
1114.11	30
1115.23	34
1116.34	36
1117.46	32
1118.57	31
1119.68	34
1120.8	33
1121.91	34
1123.02	36
1124.13	32
1125.25	36
1126.36	36
1127.47	33
1128.58	34
1129.69	32
1130.8	32
1131.92	36
1133.03	35
1134.14	34
1135.25	34
1136.36	32
1137.47	36
1138.58	32
1139.69	31
1140.8	36
1141.91	34
1143.02	28
1144.13	32
1145.24	36
1146.35	32
1147.46	34
1148.56	32
1149.67	32
1150.78	36
1151.89	34
1153	29
1154.1	35
1155.21	36
1156.32	36
1157.43	32
1158.53	34
1159.64	35
1160.75	38
1161.85	29
1162.96	32
1164.07	34
1165.17	36
1166.28	29
1167.38	36
1168.49	35
1169.59	36
1170.7	31
1171.8	30
1172.91	36
1174.01	33
1175.12	34
1176.22	28
1177.32	40
1178.43	34
1179.53	30
1180.64	30
1181.74	35
1182.84	40
1183.94	34
1185.05	34
1186.15	34
1187.25	33
1188.35	37
1189.46	31
1190.56	36
1191.66	34
1192.76	33
1193.86	36
1194.96	35
1196.06	32.9657
1197.16	34.9174
1198.26	39.8451
1199.37	35.0191
1200.47	35.9515
1201.57	34.9461
1202.67	30.1859
1203.77	33.8529
1204.86	32.0443
1205.96	32.9509
1207.06	33.257
1208.16	29.4478
1209.26	32.7635
1210.36	30.7982
1211.46	33.3533
1212.56	34.7718
1213.65	31.0458
1214.75	31.7869
1215.85	31.8244
1216.95	32.6854
1218.04	31.7629
1219.14	39.1754
1220.24	31.4729
1221.33	31.9813
1222.43	34.3058
1223.53	33.3488
1224.62	33.0303
1225.72	33.0273
1226.82	31.8648
1227.91	32.4614
1229.01	30.892
1230.1	30.4075
1231.2	27.3007
1232.29	33.135
1233.39	32.9514
1234.48	36.0928
1235.58	30.7157
1236.67	29.1822
1237.77	33.4053
1238.86	33.8382
1239.95	34.1115
1241.05	30.1519
1242.14	32.2892
1243.23	31.9063
1244.33	28.3376
1245.42	32.1621
1246.51	32.7127
1247.61	33.5733
1248.7	31.1048
1249.79	30.7059
1250.88	28.979
1251.97	33.8463
1253.07	33.6714
1254.16	32.6211
1255.25	31.3241
1256.34	37.9185
1257.43	32.2724
1258.52	35.549
1259.61	34.1855
1260.7	31.9178
1261.79	32.4469
1262.88	34.65
1263.97	33.787
1265.06	32.6629
1266.15	33.0095
1267.24	31.669
1268.33	32.3747
1269.42	32.2918
1270.51	32.5324
1271.6	30.2705
1272.68	30.1088
1273.77	34.4658
1274.86	31.9499
1275.95	31.2857
1277.04	31.9637
1278.12	33.1456
1279.21	30.7968
1280.3	29.3782
1281.39	33.9349
1282.47	30.6117
1283.56	25.5743
1284.65	31.0334
1285.73	28.8355
1286.82	32.9046
1287.91	27.0533
1288.99	30.7482
1290.08	32.2183
1291.16	28.258
1292.25	23.8008
1293.33	28.4902
1294.42	28.2255
1295.5	28.6176
1296.59	28.4449
1297.67	31.5094
1298.76	29.9539
1299.84	34.8776
1300.92	28.6677
1302.01	35.769
1303.09	33.3298
1304.17	28.6396
1305.26	33.7707
1306.34	31.0725
1307.34	32
1308.43	30
1309.52	35
1310.61	34
1311.7	30
1312.78	31
1313.87	30
1314.96	34
1316.04	38
1317.13	31
1318.22	28
1319.3	30
1320.39	32
1321.48	34
1322.56	31
1323.65	34
1324.73	28
1325.82	32
1326.9	33
1327.99	32
1329.07	36
1330.16	34
1331.24	35
1332.33	30
1333.41	40
1334.5	34
1335.58	35
1336.66	34
1337.75	36
1338.83	36
1339.91	34
1341	35
1342.08	38
1343.16	24
1344.24	36
1345.33	30
1346.41	31
1347.49	28
1348.57	35
1349.65	35
1350.74	26
1351.82	31
1352.9	34
1353.98	30
1355.06	28
1356.14	32
1357.22	34
1358.3	28
1359.38	34
1360.46	31
1361.54	35
1362.62	31
1363.7	34
1364.78	31
1365.86	31
1366.94	31
1368.02	31
1369.09	34
1370.17	29
1371.25	34
1372.33	31
1373.41	33
1374.48	37
1375.56	37
1376.64	26
1377.72	33
1378.79	33
1379.87	30
1380.95	30
1382.02	32
1383.1	31
1384.17	30
1385.25	30
1386.33	35
1387.4	37
1388.48	34
1389.55	32
1390.63	32
1391.7	32
1392.78	37
1393.85	30
1394.93	30
1396	35
1397.07	35
1398.15	30
1399.22	38
1400.3	32
1401.37	37
1402.44	34
1403.52	38
1404.59	35
1405.66	34
1406.73	34
1407.81	33
1408.88	35
1409.95	36
1411.02	32
1412.09	31
1413.17	38
1414.24	32
1415.31	39
1416.38	39
1417.45	36
1418.52	30
1419.59	36
1420.66	36
1421.73	30
1422.8	32
1423.87	34
1424.94	30
1426.01	34
1427.08	35
1428.15	29
1429.22	35
1430.29	40
1431.35	34
1432.42	36
1433.49	30
1434.56	36
1435.63	32
1436.69	33
1437.76	34
1438.83	30
1439.9	39
1440.96	31
1442.03	34
1443.1	31
1444.17	32
1445.23	24
1446.3	30
1447.36	18
1448.43	37
1449.49	31
1450.56	31
1451.63	32
1452.69	37
1453.76	32
1454.82	34
1455.89	33
1456.95	34
1458.01	32
1459.08	30
1460.14	28
1461.21	34
1462.27	30
1463.34	33
1464.4	33
1465.46	36
1466.52	30
1467.59	32
1468.65	30
1469.71	30
1470.77	35
1471.84	36
1472.9	32
1473.96	32
1475.02	26
1476.08	30
1477.15	32
1478.21	34
1479.27	34
1480.33	32
1481.39	30
1482.45	30
1483.51	31
1484.57	38
1485.63	31
1486.69	29
1487.75	36
1488.81	34
1489.87	31
1490.93	31
1491.99	32
1493.05	34
1494.1	30
1495.16	30
1496.22	32
1497.28	30
1498.34	38
1499.4	34
1500.45	28
1501.51	30
1502.57	28
1503.63	33
1504.68	35
1505.74	34
1506.8	31
1507.85	32
1508.91	32
1509.97	26
1511.02	38
1512.08	37
1513.13	30
1514.19	28
1515.24	34
1516.3	34
1517.35	20
1518.41	32
1519.46	28
1520.52	31
1521.57	32
1522.63	34
1523.68	30
1524.73	32
1525.79	34
1526.84	30
1527.9	30
1528.95	29
1530	33
1531.05	34
1532.11	31
1533.16	33
1534.21	34
1535.26	38
1536.32	28
1537.37	32
1538.42	36
1539.47	27
1540.52	34
1541.57	32
1542.63	30
1543.68	32
1544.73	36
1545.78	34
1546.83	33
1547.88	32
1548.93	32
1549.98	33
1551.03	34
1552.08	30
1553.13	37
1554.18	34
1555.23	35
1556.27	28
1557.32	31
1558.37	31
1559.42	32
1560.47	35
1561.52	31
1562.56	30
1563.61	30
1564.66	28
1565.71	34
1566.75	36
1567.8	35
1568.85	30
1569.9	33
1570.94	26
1571.99	32
1573.03	36
1574.08	32
1575.13	28
1576.17	28
1577.22	30
1578.26	36
1579.31	30
1580.35	28
1581.4	29
1582.44	38
1583.49	34
1584.53	31
1585.58	29
1586.62	20
1587.66	27
1588.71	35
1589.75	36
1590.8	28
1591.84	34
1592.88	29
1593.92	32
1594.97	35
1596.01	31
1597.05	26
1598.1	31
1599.14	30
1600.18	37
1601.22	28
1602.26	26
1603.3	33
1604.35	31
1605.39	32
1606.43	34
1607.47	31
1608.51	31
1609.55	32
1610.59	28
1611.63	34
1612.67	37
1613.71	30
1614.75	30
1615.79	33
1616.83	36
1617.87	32
1618.91	35
1619.95	31
1620.99	31
1622.02	32
1623.06	28
1624.1	33
1625.14	30
1626.18	32
1627.21	28
1628.25	31
1629.29	32
1630.33	34
1631.36	30
1632.4	30
1633.44	30
1634.48	32
1635.51	35
1636.55	33
1637.58	30
1638.62	32
1639.66	37
1640.69	32
1641.73	29
1642.76	34
1643.8	32
1644.83	29
1645.87	34
1646.9	32
1647.94	26
1648.97	36
1650	34
1651.04	34
1652.07	35
1653.11	35
1654.14	33
1655.17	33
1656.21	30
1657.24	30
1658.27	32
1659.31	32
1660.34	34
1661.37	30
1662.4	32
1663.43	24
1664.47	34
1665.5	33
1666.53	32
1667.56	33
1668.59	30
1669.62	33
1670.66	30
1671.69	36
1672.72	33
1673.75	28
1674.78	24
1675.81	32
1676.84	29
1677.87	32
1678.9	36
1679.93	38
1680.96	30
1681.98	35
1683.01	33
1684.04	33
1685.07	31
1686.1	27
1687.13	36
1688.16	35
1689.18	28
1690.21	24
1691.24	32
1692.27	31
1693.3	35
1694.32	32
1695.35	30
1696.38	30
1697.4	30
1698.43	31
1699.46	33
1700.48	24
1701.51	32
1702.54	30
1703.56	32
1704.59	32
1705.61	33
1706.64	30
1707.66	32
1708.69	30
1709.71	33
1710.74	33
1711.76	26
1712.79	34
1713.81	32
1714.83	33
1715.86	34
1716.88	30
1717.91	29
1718.93	30
1719.95	32
1720.98	34
1722	34
1723.02	30
1724.04	30
1725.07	30
1726.09	32
1727.11	32
1728.13	32
1729.15	37
1730.18	34
1731.2	32
1732.22	28
1733.24	30
1734.26	35
1735.28	24
1736.3	34
1737.32	30
1738.34	30
1739.36	34
1740.38	36
1741.4	31
1742.42	38
1743.44	30
1744.46	28
1745.48	28
1746.5	31
1747.52	30
1748.54	38
1749.56	35
1750.58	33
1751.6	28
1752.61	34
1753.63	30
1754.65	34
1755.67	30
1756.68	30
1757.7	30
1758.72	33
1759.74	33
1760.75	24
1761.77	36
1762.79	28
1763.8	31
1764.82	33
1765.83	32
1766.85	34
1767.87	35
1768.88	30
1769.9	29
1770.91	29
1771.93	29
1772.94	26
1773.96	26
1774.97	29
1775.99	30
1777	26
1778.02	30
1779.03	29
1780.04	27
1781.06	32
1782.07	32
1783.09	28
1784.1	24
1785.11	30
1786.13	31
1787.14	30
1788.15	34
1789.16	30
1790.18	28
1791.19	28
1792.2	33
1793.21	30
1794.22	32
1795.23	31
1796.25	30
1797.26	34
1798.27	29
1799.28	28
1800.29	33
1801.3	32
1802.31	32
1803.32	36
1804.33	31
1805.34	32
1806.35	31
1807.36	28
1808.37	30
1809.38	24
1810.39	26
1811.4	25
1812.41	33
1813.42	32
1814.42	28
1815.43	30
1816.44	24
1817.45	30
1818.46	34
1819.47	32
1820.47	30
1821.48	29
1822.49	28
1823.49	26
1824.5	28
1825.51	20
1826.52	29
1827.52	32
1828.53	32
1829.53	31
1830.54	24
1831.55	26
1832.55	33
1833.56	29
1834.56	35
1835.57	30
1836.57	30
1837.58	30
1838.58	30
1839.59	32
1840.59	32
1841.6	34
1842.6	33
1843.61	28
1844.61	34
1845.61	28
1846.62	34
1847.62	30
1848.62	25
1849.63	28
1850.63	30
1851.63	31
1852.64	24
1853.64	31
1854.64	28
1855.64	35
1856.64	31
1857.65	28
1858.65	29
1859.65	25
1860.65	28
1861.65	26
1862.65	32
1863.65	34
1864.66	26
1865.66	35
1866.66	32
1867.66	24
1868.66	35
1869.66	29
1870.66	30
1871.66	29
1872.66	32
1873.66	32
1874.66	24
1875.65	32
1876.65	34
1877.65	29
1878.65	26
1879.65	26
1880.65	31
1881.65	29
1882.64	32
1883.64	32
1884.64	29
1885.64	25
1886.63	30
1887.63	35
1888.63	32
1889.63	30
1890.62	37
1891.62	32
1892.62	31
1893.61	31
1894.61	31
1895.6	30
1896.6	32
1897.6	28
1898.59	32
1899.59	32
1900.58	30
1901.58	30
1902.57	26
1903.57	32
1904.56	30
1905.56	28
1906.55	32
1907.54	28
1908.54	30
1909.53	31
1910.53	26
1911.52	30
1912.51	31
1913.51	24
1914.5	31
1915.49	25
1916.49	29
1917.48	28
1918.47	33
1919.46	26
1920.46	26
1921.45	26
1922.44	31
1923.43	36
1924.42	32
1925.41	30
1926.41	26
1927.4	34
1928.39	32
1929.38	30
1930.37	31
1931.36	32
1932.35	30
1933.34	29
1934.33	32
1935.32	24
1936.31	20
1937.3	30
1938.29	27
1939.28	34
1940.27	33
1941.26	28
1942.24	28
1943.23	29
1944.22	28
1945.21	24
1946.2	26
1947.19	32
1948.17	31
1949.16	30
1950.15	30
1951.14	30
1952.12	32
1953.11	30
1954.1	32
1955.09	30
1956.07	28
1957.06	32
1958.05	36
1959.03	22
1960.02	39
1961	26
1961.99	32
1962.98	32
1963.96	26
1964.95	32
1965.93	26
1966.92	26
1967.9	31
1968.89	18
1969.87	30
1970.85	30
1971.84	34
1972.82	30
1973.81	28
1974.79	30
1975.78	22
1976.76	27
1977.74	24
1978.73	30
1979.71	33
1980.69	32
1981.67	27
1982.66	36
1983.64	26
1984.62	29
1985.6	31
1986.59	34
1987.57	32
1988.55	33
1989.53	34
1990.51	28
1991.49	30
1992.47	24
1993.45	30
1994.44	30
1995.42	34
1996.4	28
1997.38	29
1998.36	28
1999.34	38
2000.32	26
2001.3	31
2002.28	31
2003.26	28
2004.24	26
2005.22	28
2006.19	28
2007.17	26
2008.15	27
2009.13	28
2010.11	32
2011.09	27
2012.06	30
2013.04	24
2014.02	27
2015	24
2015.98	30
2016.95	30
2017.93	27
2018.91	27
2019.88	28
2020.86	24
2021.84	26
2022.81	30
2023.79	30
2024.77	32
2025.74	30
2026.72	28
2027.69	24
2028.67	24
2029.65	32
2030.62	26
2031.6	33
2032.57	32
2033.55	31
2034.52	29
2035.5	28
2036.47	32
2037.44	28
2038.42	27
2039.39	28
2040.36	24
2041.34	28
2042.31	32
2043.29	30
2044.26	32
2045.23	28
2046.2	28
2047.18	31
2048.15	31
2049.12	27
2050.09	27
2051.07	29
2052.04	33
2053.01	24
2053.98	31
2054.95	34
2055.93	30
2056.9	26
2057.87	32
2058.84	22
2059.81	32
2060.78	31
2061.75	32
2062.72	26
2063.69	29
2064.66	29
2065.63	24
2066.6	34
2067.57	25
2068.54	27
2069.51	30
2070.48	28
2071.45	26
2072.42	26
2073.38	23
2074.35	32
2075.32	29
2076.29	29
2077.26	28
2078.23	24
2079.19	29
2080.16	26
2081.13	24
2082.1	28
2083.06	26
2084.03	29
2085	28
2085.96	33
2086.93	27
2087.9	27
2088.86	26
2089.83	30
2090.8	29
2091.76	26
2092.73	24
2093.69	32
2094.66	25
2095.62	32
2096.59	30
2097.55	28
2098.52	25
2099.48	26
2100.45	29
2101.41	27
2102.38	28
2103.34	28
2104.31	26
2105.27	28
2106.23	30
2107.2	34
2108.16	25
2109.12	24
2110.09	27
2111.05	22
2112.01	26
2112.98	26
2113.94	24
2114.9	33
2115.86	27
2116.82	33
2117.79	29
2118.75	30
2119.71	26
2120.67	31
2121.63	29
2122.59	30
2123.55	26
2124.52	30
2125.48	28
2126.44	32
2127.4	28
2128.36	32
2129.32	28
2130.28	30
2131.24	28
2132.2	28
2133.16	34
2134.12	23
2135.08	24
2136.04	26
2136.99	29
2137.95	28
2138.91	29
2139.87	31
2140.83	25
2141.79	30
2142.75	30
2143.7	30
2144.66	28
2145.62	25.9913
2146.58	27.8556
2147.53	29.0266
2148.49	30.0259
2149.45	29.8982
2150.41	23.0692
2151.36	25.1912
2152.32	24.2852
2153.27	24.1667
2154.23	26.0291
2155.19	28.3928
2156.14	28.0047
2157.1	31.6144
2158.06	25.8962
2159.01	30.2399
2159.97	25.1076
2160.92	25.9975
2161.88	24.1697
2162.83	27.2788
2163.79	29.6176
2164.74	25.0029
2165.7	33.055
2166.65	22.3079
2167.61	26.5485
2168.56	27.2794
2169.51	29.9852
2170.47	26.4858
2171.42	22
2172.38	25.7898
2173.33	27.3353
2174.28	28.8039
2175.24	28.7647
2176.19	27.575
2177.14	29.7321
2178.09	27.2773
2179.05	27.4254
2180	26.2676
2180.95	26.7739
2181.9	29.0486
2182.86	23.4074
2183.81	29.9582
2184.76	29.1758
2185.71	28.145
2186.66	30.1177
2187.61	27.1275
2188.57	25.6124
2189.52	22.4867
2190.47	24.5346
2191.42	25.2379
2192.37	28.4118
2193.32	25.8143
2194.27	26.7642
2195.22	26.2847
2196.17	26.689
2197.12	30.276
2198.07	25.9517
2199.02	24.095
2199.97	28.2201
2200.92	27.0122
2201.87	27.2084
2202.82	28.1216
2203.76	28.7696
2204.71	26.8753
2205.66	29.8595
2206.61	26.8976
2207.56	25.8898
2208.51	25.7093
2209.45	23.1622
2210.4	24.6569
2211.35	28.5119
2212.3	26.8957
2213.24	28.3093
2214.19	26.1918
2215.14	26.0739
2216.09	27.7223
2217.03	26.9608
2217.98	27.25
2218.93	27.465
2219.87	28.154
2220.82	27.4961
2221.77	26.9119
2222.71	27.4853
2223.66	27.4238
2224.6	28.3721
2225.55	25.2735
2226.49	27.7245
2227.44	29.9861
2228.38	29.0234
2229.33	26.3493
2230.27	25.4858
2231.22	26.0341
2232.16	29.4405
2233.11	28.4906
2234.05	27.5138
2235	26.6505
2235.94	29.8168
2236.88	30.1724
2237.83	27.0588
2238.77	24.7826
2239.71	26.4467
2240.66	25.7253
2241.6	25.1678
2242	26
2242.95	27
2243.9	24
2244.84	26
2245.79	25
2246.74	26
2247.69	24
2248.63	24
2249.58	26
2250.53	28
2251.47	28
2252.42	26
2253.37	35
2254.31	24
2255.26	30
2256.2	27
2257.15	28
2258.1	24
2259.04	24
2259.99	33
2260.93	29
2261.88	22
2262.82	29
2263.77	25
2264.71	28
2265.65	31
2266.6	30
2267.54	26
2268.49	28
2269.43	26
2270.38	24
2271.32	27
2272.26	29
2273.21	32
2274.15	26
2275.09	27
2276.04	30
2276.98	25
2277.92	26
2278.86	28
2279.81	29
2280.75	33
2281.69	32
2282.63	29
2283.57	23
2284.52	29
2285.46	30
2286.4	28
2287.34	28
2288.28	22
2289.22	26
2290.16	29
2291.1	26
2292.04	31
2292.98	26
2293.93	31
2294.86	28
2295.8	29
2296.74	27
2297.69	30
2298.62	28
2299.56	25
2300.5	29
2301.44	26
2302.38	24
2303.32	24
2304.26	29
2305.2	26
2306.14	22
2307.07	30
2308.01	32
2308.95	20
2309.89	28
2310.83	27
2311.76	27
2312.7	25
2313.64	28
2314.58	26
2315.51	31
2316.45	24
2317.39	27
2318.32	23
2319.26	26
2320.2	24
2321.13	28
2322.07	26
2323	30
2323.94	26
2324.88	26
2325.81	22
2326.75	29
2327.68	27
2328.62	32
2329.55	32
2330.49	27
2331.42	27
2332.36	30
2333.29	32
2334.22	28
2335.16	29
2336.09	28
2337.03	34
2337.96	26
2338.89	29
2339.83	28
2340.76	30
2341.69	32
2342.63	26
2343.56	23
2344.49	31
2345.43	24
2346.36	28
2347.29	29
2348.22	27
2349.15	31
2350.09	26
2351.02	27
2351.95	24
2352.88	26
2353.81	26
2354.74	22
2355.67	29
2356.61	28
2357.54	26
2358.47	28
2359.4	33
2360.33	24
2361.26	30
2362.19	26
2363.12	24
2364.05	22
2364.98	30
2365.91	27
2366.84	29
2367.77	24
2368.7	26
2369.62	27
2370.55	30
2371.48	27
2372.41	24
2373.34	28
2374.27	32
2375.2	25
2376.12	28
2377.05	27
2377.98	22
2378.91	26
2379.83	28
2380.76	25
2381.69	24
2382.62	28
2383.54	27
2384.47	31
2385.4	28
2386.32	30
2387.25	35
2388.18	35
2389.1	27
2390.03	28
2390.95	26
2391.88	33
2392.81	29
2393.73	29
2394.66	25
2395.58	30
2396.51	28
2397.43	24
2398.36	28
2399.28	28
2400.2	29
2401.13	30
2402.05	30
2402.98	29
2403.9	31
2404.83	30
2405.75	28
2406.67	29
2407.6	26
2408.52	20
2409.44	32
2410.37	26
2411.29	24
2412.21	26
2413.13	28
2414.06	24
2414.98	26
2415.9	28
2416.82	29
2417.74	28
2418.67	26
2419.59	28
2420.51	35
2421.43	24
2422.35	24
2423.27	24
2424.19	22
2425.11	32
2426.03	31
2426.96	26
2427.88	24
2428.8	26
2429.72	31
2430.64	28
2431.56	32
2432.48	29
2433.39	28
2434.31	26
2435.23	29
2436.15	27
2437.07	26
2437.99	28
2438.91	28
2439.83	32
2440.75	24
2441.67	28
2442.58	28
2443.5	28
2444.42	26
2445.34	32
2446.26	32
2447.17	32
2448.09	29
2449.01	26
2449.92	28
2450.84	28
2451.76	28
2452.68	29
2453.59	25
2454.51	32
2455.42	31
2456.34	27
2457.26	30
2458.17	32
2459.09	24
2460	24
2460.92	26
2461.83	32
2462.75	29
2463.66	24
2464.58	26
2465.49	22
2466.41	29
2467.32	29
2468.24	22
2469.15	28
2470.07	24
2470.98	28
2471.89	24
2472.81	32
2473.72	34
2474.64	28
2475.55	28
2476.46	24
2477.37	20
2478.29	28
2479.2	28
2480.11	24
2481.03	29
2481.94	32
2482.85	29
2483.76	28
2484.67	27
2485.59	30
2486.5	28
2487.41	30
2488.32	26
2489.23	22
2490.14	32
2491.05	26
2491.97	30
2492.88	26
2493.79	32
2494.7	30
2495.61	27
2496.52	26
2497.43	35
2498.34	31
2499.25	26
2500.16	26
2501.07	30
2501.98	26
2502.89	30
2503.79	28
2504.7	30
2505.61	32
2506.52	26
2507.43	28
2508.34	28
2509.25	31
2510.16	26
2511.06	20
2511.97	29
2512.88	31
2513.79	22
2514.69	27
2515.6	31
2516.51	30
2517.42	20
2518.32	26
2519.23	29
2520.14	26
2521.04	27
2521.95	28
2522.86	26
2523.76	31
2524.67	26
2525.57	32
2526.48	30
2527.39	27
2528.29	31
2529.2	32
2530.1	28
2531.01	29
2531.91	29
2532.82	28
2533.72	28
2534.63	31
2535.53	29
2536.44	30
2537.34	29
2538.24	26
2539.15	25
2540.05	30
2540.96	28
2541.86	28
2542.76	26
2543.67	27
2544.57	24
2545.47	28
2546.37	31
2547.28	26
2548.18	29
2549.08	30
2549.99	28
2550.89	26
2551.79	30
2552.69	26
2553.59	28
2554.49	24
2555.4	28
2556.3	28
2557.2	24
2558.1	31
2559	25
2559.9	30
2560.8	28
2561.7	26
2562.6	21
2563.5	29
2564.4	27
2565.3	30
2566.2	33
2567.1	30
2568	29
2568.9	31
2569.8	26
2570.7	26
2571.6	31
2572.5	34
2573.4	28
2574.3	33
2575.2	27
2576.1	31
2576.99	34
2577.89	28
2578.79	26
2579.69	29
2580.59	28
2581.48	30
2582.38	25
2583.28	31
2584.18	25
2585.07	24
2585.97	30
2586.87	28
2587.76	29
2588.66	24
2589.56	29
2590.45	32
2591.35	28
2592.25	28
2593.14	27
2594.04	34
2594.93	31
2595.83	30
2596.73	29
2597.62	35
2598.52	29
2599.41	28
2600.31	34
2601.2	28
2602.1	20
2602.99	28
2603.88	31
2604.78	26
2605.67	31
2606.57	26
2607.46	26
2608.35	28
2609.25	29
2610.14	30
2611.03	29
2611.93	24
2612.82	28
2613.71	27
2614.61	28
2615.5	26
2616.39	27
2617.29	30
2618.18	28
2619.07	24
2619.96	34
2620.85	34
2621.75	31
2622.64	27
2623.53	29
2624.42	30
2625.31	26
2626.2	28
2627.09	34
2627.98	31
2628.88	22
2629.77	22
2630.66	30
2631.55	28
2632.44	30
2633.33	28
2634.22	34
2635.11	22
2636	28
2636.89	31
2637.78	31
2638.66	22
2639.55	29
2640.44	28
2641.33	30
2642.22	27
2643.11	33
2644	28
2644.89	24
2645.78	29
2646.66	26
2647.55	26
2648.44	26
2649.33	26
2650.21	28
2651.1	22
2651.99	27
2652.88	29
2653.76	27
2654.65	26
2655.54	31
2656.42	26
2657.31	32
2658.2	30
2659.08	28
2659.97	31
2660.86	18
2661.74	28
2662.63	32
2663.51	31
2664.4	29
2665.29	27
2666.17	28
2667.06	32
2667.94	24
2668.83	31
2669.71	30
2670.6	24
2671.48	25
2672.36	31
2673.25	29
2674.13	29
2675.02	24
2675.9	25
2676.78	26
2677.67	28
2678.55	28
2679.43	28
2680.32	28
2681.2	28
2682.08	31
2682.97	30
2683.85	26
2684.73	30
2685.61	27
2686.5	26
2687.38	24
2688.26	28
2689.14	28
2690.03	20
2690.91	30
2691.79	28
2692.67	28
2693.55	26
2694.43	24
2695.31	30
2696.19	25
2697.08	29
2697.96	28
2698.84	31
2699.72	26
2700.6	27
2701.48	22
2702.36	24
2703.24	28
2704.12	30
2705	28
2705.88	31
2706.76	26
2707.64	30
2708.51	25
2709.39	28
2710.27	28
2711.15	25
2712.03	29
2712.91	26
2713.79	26
2714.67	30
2715.54	29
2716.42	28
2717.3	30
2718.18	22
2719.05	30
2719.93	27
2720.81	26
2721.69	32
2722.56	31
2723.44	27
2724.32	28
2725.19	22
2726.07	24
2726.95	28
2727.82	29
2728.7	28
2729.58	29
2730.45	30
2731.33	28
2732.2	30
2733.08	27
2733.95	24
2734.83	27
2735.7	28
2736.58	29
2737.45	30
2738.33	28
2739.2	30
2740.08	30
2740.95	32
2741.83	29
2742.7	32
2743.58	26
2744.45	31
2745.32	28
2746.2	22
2747.07	26
2747.94	26
2748.82	23
2749.69	30
2750.56	28
2751.44	28
2752.31	26
2753.18	27
2754.05	22
2754.93	33
2755.8	29
2756.67	32
2757.54	33
2758.42	22
2759.29	28
2760.16	27
2761.03	28
2761.9	24
2762.77	28
2763.64	25
2764.51	28
2765.38	20
2766.26	28
2767.13	26
2768	29
2768.87	34
2769.74	24
2770.61	28
2771.48	26
2772.35	30
2773.22	24
2774.09	29
2774.96	33
2775.83	24
2776.7	28
2777.56	34
2778.43	30
2779.3	28
2780.17	28
2781.04	29
2781.91	32
2782.78	32
2783.64	28
2784.51	24
2785.38	30
2786.25	29
2787.12	22
2787.98	26
2788.85	31
2789.72	26
2790.59	26
2791.45	29
2792.32	32
2793.19	30
2794.05	30
2794.92	22
2795.79	28
2796.65	24
2797.52	30
2798.38	28
2799.25	26
2800.12	26
2800.98	30
2801.85	28
2802.71	28
2803.58	29
2804.44	27
2805.31	28
2806.17	27
2807.04	27
2807.9	29
2808.77	31
2809.63	26
2810.5	30
2811.36	24
2812.22	30
2813.09	30
2813.95	24
2814.82	29
2815.68	28
2816.54	25
2817.41	26
2818.27	27
2819.13	28
2820	26
2820.86	25
2821.72	22
2822.58	30
2823.45	31
2824.31	30
2825.17	28
2826.03	26
2826.9	28
2827.76	32
2828.62	24
2829.48	28
2830.34	33
2831.2	26
2832.06	32
2832.92	29
2833.79	28
2834.65	30
2835.51	24
2836.37	27
2837.23	28
2838.09	26
2838.95	31
2839.81	33
2840.67	32
2841.53	29
2842.39	33
2843.25	26
2844.11	31
2844.97	28
2845.83	27
2846.68	29
2847.54	28
2848.4	28
2849.26	32
2850.12	30
2850.98	29
2851.84	26
2852.69	36
2853.55	27
2854.41	31
2855.27	24
2856.13	29
2856.98	30
2857.84	30
2858.7	28
2859.56	29
2860.41	31
2861.27	24
2862.13	24
2862.98	25
2863.84	28
2864.7	20
2865.55	29
2866.41	26
2867.27	30
2868.12	35
2868.98	28
2869.83	29
2870.69	29
2871.54	27
2872.4	38
2873.25	24
2874.11	32
2874.96	29
2875.82	32
2876.68	28
2877.53	35
2878.38	30
2879.24	32
2880.09	29
2880.95	35
2881.8	34
2882.65	36
2883.51	31
2884.36	39
2885.22	35
2886.07	31
2886.92	35
2887.77	38
2888.63	39
2889.48	39
2890.33	42
2891.19	35
2892.04	38
2892.89	34
2893.74	36
2894.6	45
2895.45	46
2896.3	45
2897.15	46
2898	46
2898.85	46
2899.71	51
2900.56	53
2901.41	52
2902.26	52
2903.11	63
2903.96	60
2904.81	64
2905.66	58
2906.51	63
2907.36	66
2908.21	57
2909.06	64
2909.91	60
2910.76	51
2911.61	56
2912.46	54
2913.31	57
2914.16	50
2915.01	48
2915.86	54
2916.71	49
2917.56	42
2918.41	38
2919.26	43
2920.1	36
2920.95	36
2921.8	40
2922.65	34
2923.5	36
2924.34	28
2925.19	28
2926.04	35
2926.89	32
2927.74	34
2928.58	31
2929.43	32
2930.28	37
2931.12	28
2931.97	34
2932.82	34
2933.66	22
2934.51	32
2935.36	32
2936.2	34
2937.05	31
2937.89	29
2938.74	30
2939.59	30
2940.43	25
2941.28	34
2942.12	32
2942.97	30
2943.81	30
2944.66	32
2945.5	31
2946.35	33
2947.19	31
2948.04	30
2948.88	28
2949.72	33
2950.57	34
2951.41	37
2952.26	32
2953.1	30
2953.94	32
2954.79	30
2955.63	35
2956.47	40
2957.32	40
2958.16	40
2959	36
2959.85	41
2960.69	39
2961.53	44
2962.37	39
2963.22	40
2964.06	43
2964.9	44
2965.74	42
2966.58	46
2967.42	44
2968.27	43
2969.11	40
2969.95	45
2970.79	44
2971.63	36
2972.47	38
2973.31	42
2974.15	37
2974.99	35
2975.83	37
2976.68	35
2977.52	36
2978.36	34
2979.2	38
2980.04	28
2980.88	28
2981.71	32
2982.55	31
2983.39	31
2984.23	33
2985.07	32
2985.91	29
2986.75	30
2987.59	30
2988.43	31
2989.27	26
2990.1	28
2990.94	30
2991.78	30
2992.62	30
2993.46	30
2994.3	30
2995.13	28
2995.97	31
2996.81	24
2997.64	29
2998.48	29
2999.32	24
