#Acq. time (s)=	3
#Accumulations=	3
#Range (cm-¹)=	100...3000
#Windows=	3
#Autofocus=	Off
#AutoExposure=	Off
#Spike filter=	Multiple accum.
#Delay time (s)=	0
#Binning=	1
#Readout mode=	Signal
#DeNoise=	Off
#ICS correction=	Off
#Dark correction=	Off
#Inst. Process=	Off
#Instrument=	LabRAM HR Evol
#Detector=	Syncerity OE
#Objective=	x100_VIS_LWD
#Grating=	600 (500nm)
#ND Filter=	25%
#Laser=	633nm_Edge
#Hole=	100.021
#Range=	Visible
#Project=	Bolus
#Sample=	A2
#Site=	stripside
#Title=	m10
#Remark=	
#Date=	03.11.2025 19:33
#Acquired=	03.11.2025 19:33:48
100.969	30
102.252	28
103.535	37
104.818	28
106.101	37
107.384	32
108.666	30
109.948	32
111.232	34
112.514	34
113.795	28
115.077	29
116.358	30
117.639	34
118.919	36
120.2	36
121.48	35
122.76	30
124.04	34
125.32	30
126.599	35
127.879	31
129.158	31
130.436	32
131.715	34
132.992	34
134.27	36
135.548	35
136.826	35
138.104	36
139.381	32
140.658	36
141.935	32
143.212	36
144.489	36
145.763	34
147.04	28
148.315	40
149.591	37
150.867	36
152.142	41
153.416	39
154.691	39
155.965	41
157.24	44
158.514	36
159.786	38
161.06	42
162.334	38
163.607	40
164.881	36
166.152	41
167.425	37
168.698	41
169.969	38
171.241	34
172.513	34
173.785	36
175.055	38
176.326	40
177.597	38
178.867	36
180.137	32
181.408	40
182.677	40
183.947	41
185.217	38
186.485	40
187.755	45
189.022	39
190.291	36
191.56	41
192.828	38
194.096	34
195.363	44
196.631	39
197.899	41
199.165	39
200.432	38
201.698	38
202.965	39
204.23	39
205.497	36
206.762	38
208.028	38
209.293	36
210.559	30
211.823	38
213.088	38
214.352	35
215.617	38
216.88	38
218.145	32
219.408	32
220.672	33
221.934	34
223.196	32
224.46	36
225.722	30
226.985	34
228.246	30
229.508	35
230.77	33
232.031	30
233.292	26
234.554	31
235.814	34
237.074	37
238.335	28
239.595	37
240.854	36
242.115	34
243.374	29
244.633	34
245.893	30
247.151	35
248.409	31
249.667	30
250.927	32
252.184	32
253.442	33
254.699	33
255.957	29
257.214	36
258.47	33
259.727	35
260.983	32
262.24	36
263.496	30
264.752	32
266.007	33
267.262	32
268.517	30
269.773	32
271.028	34
272.282	29
273.536	30
274.79	32
276.044	28
277.297	30
278.551	30
279.804	30
281.057	30
282.31	31
283.564	34
284.816	33
286.068	35
287.32	26
288.572	28
289.823	36
291.074	33
292.325	28
293.576	30
294.827	28
296.077	30
297.328	32
298.578	28
299.828	32
301.077	28
302.325	30
303.575	30
304.824	28
306.073	32
307.321	31
308.57	30
309.818	30
311.066	29
312.314	30
313.562	26
314.808	31
316.055	26
317.302	35
318.549	34
319.796	30
321.042	35
322.288	32
323.533	28
324.779	34
326.024	36
327.27	31
328.515	30
329.759	29
331.004	30
332.248	32
333.493	33
334.736	34
335.98	32
337.223	30
338.466	34
339.709	33
340.952	36
342.195	31
343.437	28
344.68	31
345.922	29
347.163	30
348.405	31
349.647	32
350.887	26
352.128	30
353.37	27
354.609	34
355.85	31
357.089	29
358.33	33
359.57	33
360.809	30
362.049	34
363.287	28
364.526	34
365.764	33
367.003	32
368.241	30
369.479	29
370.718	34
371.955	29
373.193	31
374.429	29
375.667	29
376.903	25
378.139	26
379.376	24
380.611	32
381.848	30
383.083	28
384.319	28
385.554	33
386.79	34
388.024	33
389.258	32
390.493	34
391.727	28
392.962	32
394.195	35
395.428	34
396.663	32
397.895	36
399.128	31
400.361	31
401.593	33
402.825	33
404.058	30
405.29	27
406.521	29
407.752	30
408.985	30
410.215	33
411.446	32
412.678	32
413.908	28
415.138	22
416.367	26
417.597	31
418.828	28
420.057	30
421.286	34
422.514	31
423.743	32
424.973	30
426.201	31
427.429	26
428.657	28
429.884	30
431.112	34
432.34	28
433.567	32
434.794	29
436.02	32
437.247	35
438.473	26
439.699	35
440.925	30
442.15	32
443.376	29
444.601	31
445.826	35
447.051	34
448.275	30
449.5	30
450.724	32
451.948	34
453.172	32
454.396	27
455.619	36
456.842	34
458.065	30
459.288	32
460.511	30
461.733	33
462.956	35
464.178	33
465.4	32
466.621	35
467.843	36
469.064	33
470.285	40
471.505	34
472.726	34
473.946	31
475.166	40
476.387	35
477.606	38
478.825	44
480.044	42
481.264	41
482.483	44
483.702	45
484.921	55
486.138	50
487.356	46
488.574	40
489.792	57
491.009	54
492.226	56
493.444	51
494.661	51
495.877	47
497.094	45
498.31	42
499.525	43
500.741	47
501.958	44
503.172	37
504.388	40
505.603	38
506.817	34
508.032	41
509.247	38
510.46	30
511.675	40
512.888	33
514.102	33
515.316	36
516.528	30
517.742	36
518.954	36
520.167	36
521.378	34
522.591	38
523.802	26
525.015	32
526.226	41
527.438	26
528.648	32
529.86	35
531.07	28
532.281	29
533.491	28
534.702	28
535.911	32
537.121	31
538.33	34
539.54	34
540.749	32
541.957	30
543.167	30
544.375	28
545.584	31
546.791	30
547.999	28
549.207	31
550.414	30
551.621	35
552.829	28
554.035	34
555.241	30
556.449	28
557.655	34
558.86	28
560.066	34
561.272	30
562.477	37
563.682	30
564.888	25
566.093	28
567.297	33
568.501	28
569.705	31
570.91	28
572.114	32
573.317	34
574.52	30
575.723	26
576.927	32
578.13	38
579.332	30
580.535	32
581.737	35
582.938	28
584.14	30
585.343	36
586.544	30
587.745	30
588.946	36
590.147	33
591.347	30
592.548	31
593.748	36
594.948	31
596.147	32
597.347	32
598.546	31
599.745	32
600.944	32
602.143	28
603.342	34
604.54	32
605.738	33
606.937	30
608.134	28
609.332	31
610.529	22
611.727	34
612.924	28
614.121	36
615.317	26
616.513	34
617.709	34
618.905	28
620.101	26
621.297	32
622.492	29
623.688	28
624.883	30
626.077	32
627.271	32
628.466	34
629.66	29
630.855	30
632.047	30
633.241	30
634.435	36
635.629	28
636.82	30
638.014	31
639.207	39
640.399	25
641.59	32
642.783	26
643.975	28
645.166	36
646.357	32
647.549	35
648.741	32
649.93	31
651.122	28
652.311	30
653.502	32
654.692	32
655.881	31
657.071	31
658.261	34
659.45	30
660.639	32
661.827	28
663.016	33
664.204	34
665.393	34
666.581	34
667.769	37
668.957	32
670.143	33
671.331	35
672.518	36
673.705	32
674.891	34
676.078	36
677.264	35
678.451	36
679.636	38
680.821	29
682.007	28
683.192	36
684.378	35
685.562	32
686.747	43
687.931	38
689.115	32
690.3	36
691.483	34
692.666	36
693.851	33
695.034	38
696.216	35
697.4	36
698.582	34
699.764	38
700.948	36
702.129	38
703.311	42
704.493	46
705.674	40
706.855	45
708.036	42
709.218	46
710.399	48
711.579	44
712.759	44
713.939	40
715.12	38
716.299	34
717.478	28
718.657	39
719.836	37
721.015	33
722.195	32
723.373	34
724.552	33
725.729	30
726.907	26
728.085	32
729.262	35
730.44	26
731.617	26
732.795	34
733.972	33
735.148	33
736.324	34
737.501	32
738.677	30
739.852	30
741.028	30
742.203	31
743.379	29
744.554	33
745.729	34
746.903	22
748.078	31
749.252	30
750.426	34
751.599	33
752.772	24
753.946	30
755.119	28
756.293	34
757.466	32
758.639	34
759.811	32
760.984	32
762.155	26
763.327	31
764.499	29
765.67	32
766.842	30
768.013	32
769.183	31
770.354	29
771.525	31
772.696	29
773.865	31
775.035	28
776.205	24
777.375	34
778.544	30
779.713	24
780.882	34
782.052	32
783.219	32
784.388	32
785.557	35
786.724	34
787.892	24
789.06	32
790.227	36
791.395	32
792.562	33
793.728	34
794.895	32
796.061	30
797.228	34
798.395	31
799.56	32
800.726	26
801.891	34
803.057	34
804.221	33
805.387	32
806.551	36
807.716	31
808.879	29
810.044	24
811.208	33
812.372	28
813.535	30
814.699	32
815.862	33
817.025	32
818.188	28
819.351	41
820.513	35
821.675	30
822.837	30
823.999	33
825.161	31
826.322	28
827.483	33
828.645	30
829.805	35
830.966	26
832.127	31
833.287	34
834.447	37
835.607	30
836.767	32
837.926	30
839.085	30
840.245	30
841.404	27
842.562	31
843.72	34
844.88	29
846.038	30
847.195	26
848.353	27
849.512	29
850.669	33
851.826	32
852.983	31
854.139	30
855.296	33
856.453	30
857.609	33
858.765	32
859.921	31
861.077	30
862.232	28
863.387	34
864.542	32
865.697	32
866.852	33
868.008	31
869.162	26
870.316	29
871.47	32
872.624	34
873.778	35
874.931	24
876.084	32
877.237	30
878.39	32
879.543	32
880.695	30
881.846	32
882.999	32
884.151	30
885.302	32
886.454	30
887.606	33
888.757	30
889.908	22
891.059	30
892.21	26
893.359	32
894.509	28
895.659	26
896.81	25
897.959	32
899.109	28
900.257	31
901.407	28
902.556	29
903.705	34
904.854	30
906.001	32
907.149	31
908.298	29
909.446	28
910.592	32
911.74	28
912.888	24
914.034	28
915.181	30
916.328	29
917.473	28
918.62	28
919.766	28
920.911	32
922.058	26
923.204	33
924.348	32
925.494	32
926.638	28
927.783	32
928.928	29
930.072	27
931.216	33
932.36	34
933.504	28
934.647	29
935.791	31
936.933	34
938.077	33
939.219	32
940.363	34
941.504	29
942.647	33
943.789	33
944.932	30
946.073	32
947.215	30
948.356	28
949.498	34
950.638	32
951.778	26
952.92	26
954.06	29
955.199	31
956.34	31
957.479	33
958.62	28
959.759	30
960.898	29
962.038	32
963.176	30
964.315	28
965.453	29
966.592	28
967.73	32
968.867	28
970.006	26
971.144	29
972.281	31
973.418	30
974.554	26
975.692	31
976.829	32
977.965	32
979.101	31
980.237	31
981.374	30
982.509	32
983.645	30
984.78	26
985.915	33
987.05	28
988.184	32
989.319	33
990.453	30
991.589	28
992.722	30
993.856	28
994.99	30
996.123	30
997.257	30
998.39	31
999.523	34
1000.66	29
1001.79	34
1002.92	26
1004.05	30
1005.18	27
1006.32	35
1007.45	25
1008.58	28
1009.71	31
1010.84	28
1011.97	32
1013.1	28
1014.23	34
1015.36	31
1016.49	28
1017.62	31
1018.75	31
1019.88	28
1021.01	26
1022.14	26
1023.27	30
1024.4	30
1025.53	27
1026.66	32
1027.79	30
1028.91	24
1030.04	30
1031.17	30
1032.3	22
1033.42	28
1034.55	24
1035.68	30
1036.81	28
1037.93	32
1039.06	24
1040.18	31
1041.31	29
1042.44	24
1043.56	28
1044.69	34
1045.81	26
1046.94	29
1048.06	24
1049.19	26
1050.31	28
1051.44	30
1052.56	27
1053.69	29
1054.81	29
1055.93	30
1057.06	31
1058.18	28
1059.3	31
1060.43	33
1061.55	28
1062.67	28
1063.79	26
1064.92	29
1066.04	27
1067.16	32
1068.28	27
1069.4	29
1070.52	29
1071.65	36
1072.77	28
1073.89	30
1075.01	27
1076.13	28
1077.25	24
1078.37	29
1079.49	28
1080.61	31
1081.73	28
1082.85	24
1083.97	31
1085.09	30
1086.2	28
1087.32	30
1088.44	28
1089.56	28
1090.68	28
1091.8	28
1092.91	28
1094.03	32
1095.15	28
1096.26	27
1097.38	26
1098.5	26
1099.61	26
1100.73	26
1101.85	27
1102.96	29
1104.08	30
1105.19	34
1106.31	30
1107.43	28
1108.54	26
1109.66	25
1110.77	30
1111.88	27
1113	26
1114.11	26
1115.23	26
1116.34	29
1117.46	26
1118.57	32
1119.68	31
1120.8	28
1121.91	30
1123.02	28
1124.13	35
1125.25	31
1126.36	28
1127.47	28
1128.58	29
1129.69	32
1130.8	25
1131.92	28
1133.03	26
1134.14	33
1135.25	24
1136.36	29
1137.47	26
1138.58	35
1139.69	34
1140.8	30
1141.91	29
1143.02	22
1144.13	31
1145.24	27
1146.35	31
1147.46	29
1148.56	28
1149.67	25
1150.78	35
1151.89	24
1153	28
1154.1	28
1155.21	26
1156.32	29
1157.43	27
1158.53	30
1159.64	30
1160.75	25
1161.85	28
1162.96	27
1164.07	28
1165.17	27
1166.28	28
1167.38	34
1168.49	28
1169.59	31
1170.7	28
1171.8	30
1172.91	33
1174.01	28
1175.12	28
1176.22	26
1177.32	29
1178.43	28
1179.53	29
1180.64	26
1181.74	29
1182.84	24
1183.94	30
1185.05	29
1186.15	34
1187.25	26
1188.35	30
1189.46	28
1190.56	28
1191.66	30
1192.76	22
1193.86	31
1194.96	25
1196.06	29.9853
1197.16	26.9419
1198.26	31.8567
1199.37	31
1200.47	30.9029
1201.57	24.2206
1202.67	27.9258
1203.77	28.7453
1204.86	28.0989
1205.96	24.6469
1207.06	30.7359
1208.16	29.8367
1209.26	27.3676
1210.36	24.5925
1211.46	31.5037
1212.56	27.3045
1213.65	28.2392
1214.75	24.7827
1215.85	24.6546
1216.95	25.2195
1218.04	25.598
1219.14	30.6102
1220.24	31.1018
1221.33	24.3824
1222.43	27.9126
1223.53	26.2253
1224.62	28
1225.72	24.9597
1226.82	31.4453
1227.91	27.7506
1229.01	29.2499
1230.1	29.6196
1231.2	30.1327
1232.29	28.5803
1233.39	27.6131
1234.48	28.2767
1235.58	27.5001
1236.67	26.9208
1237.77	29.8676
1238.86	26.7745
1239.95	25.5882
1241.05	30.0687
1242.14	26.8906
1243.23	27.1164
1244.33	28.0036
1245.42	28.4729
1246.51	28.8908
1247.61	29.4966
1248.7	26.538
1249.79	29.7059
1250.88	26.8233
1251.97	27.0383
1253.07	24.3286
1254.16	27.2809
1255.25	27.2341
1256.34	28.5441
1257.43	30.3382
1258.52	28.7304
1259.61	27.293
1260.7	24.8348
1261.79	25.4125
1262.88	26.8985
1263.97	26.545
1265.06	28.7019
1266.15	27.1618
1267.24	29.1346
1268.33	29.789
1269.42	26.9752
1270.51	31.1745
1271.6	28.8877
1272.68	32.572
1273.77	27.2547
1274.86	26.9433
1275.95	27.2857
1277.04	28.1586
1278.12	28.8274
1279.21	28.9011
1280.3	27.6692
1281.39	28.2612
1282.47	24.8791
1283.56	27.643
1284.65	29.153
1285.73	25.7395
1286.82	30.6373
1287.91	30.8653
1288.99	29.3832
1290.08	27.5495
1291.16	21.1001
1292.25	29.9826
1293.33	31.6399
1294.42	28.3075
1295.5	25.9777
1296.59	24.7424
1297.67	29.3674
1298.76	26.9688
1299.84	26.1005
1300.92	27.043
1302.01	27.9611
1303.09	28.8365
1304.17	26.2214
1305.26	28.1921
1306.34	29.5936
1307.34	25
1308.43	30
1309.52	28
1310.61	30
1311.7	28
1312.78	24
1313.87	27
1314.96	27
1316.04	27
1317.13	28
1318.22	28
1319.3	22
1320.39	30
1321.48	30
1322.56	30
1323.65	31
1324.73	22
1325.82	26
1326.9	25
1327.99	27
1329.07	24
1330.16	28
1331.24	27
1332.33	28
1333.41	22
1334.5	26
1335.58	28
1336.66	26
1337.75	26
1338.83	33
1339.91	29
1341	30
1342.08	31
1343.16	28
1344.24	26
1345.33	26
1346.41	28
1347.49	26
1348.57	31
1349.65	26
1350.74	25
1351.82	33
1352.9	25
1353.98	23
1355.06	27
1356.14	22
1357.22	25
1358.3	26
1359.38	24
1360.46	29
1361.54	28
1362.62	31
1363.7	28
1364.78	28
1365.86	26
1366.94	28
1368.02	31
1369.09	32
1370.17	24
1371.25	26
1372.33	31
1373.41	26
1374.48	32
1375.56	30
1376.64	30
1377.72	27
1378.79	22
1379.87	24
1380.95	28
1382.02	24
1383.1	29
1384.17	28
1385.25	27
1386.33	31
1387.4	32
1388.48	25
1389.55	31
1390.63	28
1391.7	30
1392.78	28
1393.85	28
1394.93	32
1396	28
1397.07	29
1398.15	29
1399.22	28
1400.3	32
1401.37	32
1402.44	33
1403.52	29
1404.59	35
1405.66	31
1406.73	32
1407.81	25
1408.88	33
1409.95	32
1411.02	32
1412.09	32
1413.17	28
1414.24	30
1415.31	35
1416.38	39
1417.45	30
1418.52	32
1419.59	28
1420.66	28
1421.73	29
1422.8	31
1423.87	27
1424.94	24
1426.01	33
1427.08	26
1428.15	32
1429.22	32
1430.29	32
1431.35	30
1432.42	29
1433.49	29
1434.56	31
1435.63	29
1436.69	22
1437.76	28
1438.83	31
1439.9	31
1440.96	26
1442.03	25
1443.1	32
1444.17	32
1445.23	28
1446.3	28
1447.36	34
1448.43	28
1449.49	30
1450.56	28
1451.63	24
1452.69	26
1453.76	31
1454.82	30
1455.89	30
1456.95	31
1458.01	27
1459.08	28
1460.14	33
1461.21	26
1462.27	32
1463.34	29
1464.4	24
1465.46	29
1466.52	26
1467.59	21
1468.65	24
1469.71	29
1470.77	29
1471.84	28
1472.9	26
1473.96	32
1475.02	28
1476.08	30
1477.15	31
1478.21	29
1479.27	28
1480.33	29
1481.39	29
1482.45	27
1483.51	29
1484.57	28
1485.63	32
1486.69	28
1487.75	32
1488.81	26
1489.87	32
1490.93	28
1491.99	34
1493.05	29
1494.1	30
1495.16	28
1496.22	31
1497.28	26
1498.34	26
1499.4	30
1500.45	20
1501.51	28
1502.57	30
1503.63	30
1504.68	32
1505.74	27
1506.8	26
1507.85	26
1508.91	26
1509.97	28
1511.02	31
1512.08	28
1513.13	26
1514.19	26
1515.24	24
1516.3	30
1517.35	32
1518.41	29
1519.46	27
1520.52	32
1521.57	28
1522.63	24
1523.68	26
1524.73	29
1525.79	32
1526.84	28
1527.9	30
1528.95	30
1530	33
1531.05	28
1532.11	30
1533.16	28
1534.21	26
1535.26	27
1536.32	28
1537.37	26
1538.42	27
1539.47	31
1540.52	31
1541.57	26
1542.63	28
1543.68	24
1544.73	30
1545.78	25
1546.83	28
1547.88	27
1548.93	31
1549.98	31
1551.03	30
1552.08	30
1553.13	18
1554.18	27
1555.23	28
1556.27	29
1557.32	28
1558.37	27
1559.42	31
1560.47	34
1561.52	24
1562.56	28
1563.61	30
1564.66	28
1565.71	28
1566.75	26
1567.8	28
1568.85	24
1569.9	35
1570.94	30
1571.99	28
1573.03	27
1574.08	27
1575.13	25
1576.17	32
1577.22	29
1578.26	28
1579.31	20
1580.35	29
1581.4	29
1582.44	32
1583.49	30
1584.53	26
1585.58	25
1586.62	26
1587.66	31
1588.71	27
1589.75	32
1590.8	32
1591.84	29
1592.88	26
1593.92	31
1594.97	32
1596.01	28
1597.05	26
1598.1	32
1599.14	28
1600.18	30
1601.22	26
1602.26	28
1603.3	29
1604.35	30
1605.39	32
1606.43	26
1607.47	28
1608.51	31
1609.55	25
1610.59	30
1611.63	22
1612.67	32
1613.71	28
1614.75	35
1615.79	28
1616.83	26
1617.87	31
1618.91	24
1619.95	28
1620.99	29
1622.02	26
1623.06	24
1624.1	31
1625.14	26
1626.18	27
1627.21	29
1628.25	30
1629.29	33
1630.33	29
1631.36	27
1632.4	25
1633.44	29
1634.48	28
1635.51	26
1636.55	32
1637.58	31
1638.62	31
1639.66	30
1640.69	30
1641.73	27
1642.76	28
1643.8	32
1644.83	30
1645.87	27
1646.9	24
1647.94	29
1648.97	25
1650	34
1651.04	31
1652.07	26
1653.11	29
1654.14	31
1655.17	31
1656.21	29
1657.24	31
1658.27	26
1659.31	27
1660.34	31
1661.37	26
1662.4	29
1663.43	22
1664.47	31
1665.5	30
1666.53	30
1667.56	30
1668.59	28
1669.62	28
1670.66	30
1671.69	26
1672.72	22
1673.75	29
1674.78	28
1675.81	29
1676.84	29
1677.87	34
1678.9	30
1679.93	26
1680.96	29
1681.98	28
1683.01	28
1684.04	28
1685.07	25
1686.1	30
1687.13	29
1688.16	30
1689.18	30
1690.21	28
1691.24	24
1692.27	26
1693.3	31
1694.32	30
1695.35	29
1696.38	30
1697.4	24
1698.43	26
1699.46	25
1700.48	28
1701.51	31
1702.54	31
1703.56	26
1704.59	31
1705.61	30
1706.64	29
1707.66	24
1708.69	28
1709.71	24
1710.74	24
1711.76	29
1712.79	22
1713.81	24
1714.83	28
1715.86	29
1716.88	28
1717.91	24
1718.93	27
1719.95	26
1720.98	28
1722	20
1723.02	26
1724.04	26
1725.07	35
1726.09	30
1727.11	31
1728.13	26
1729.15	27
1730.18	29
1731.2	30
1732.22	22
1733.24	31
1734.26	26
1735.28	29
1736.3	26
1737.32	30
1738.34	26
1739.36	30
1740.38	30
1741.4	30
1742.42	28
1743.44	24
1744.46	26
1745.48	30
1746.5	22
1747.52	32
1748.54	28
1749.56	30
1750.58	32
1751.6	23
1752.61	33
1753.63	30
1754.65	27
1755.67	28
1756.68	27
1757.7	28
1758.72	31
1759.74	26
1760.75	27
1761.77	27
1762.79	29
1763.8	27
1764.82	22
1765.83	28
1766.85	30
1767.87	26
1768.88	30
1769.9	26
1770.91	31
1771.93	30
1772.94	28
1773.96	30
1774.97	28
1775.99	26
1777	29
1778.02	30
1779.03	30
1780.04	27
1781.06	24
1782.07	28
1783.09	27
1784.1	22
1785.11	30
1786.13	28
1787.14	28
1788.15	29
1789.16	26
1790.18	30
1791.19	34
1792.2	24
1793.21	28
1794.22	30
1795.23	28
1796.25	26
1797.26	31
1798.27	28
1799.28	30
1800.29	28
1801.3	32
1802.31	24
1803.32	27
1804.33	28
1805.34	30
1806.35	28
1807.36	28
1808.37	24
1809.38	25
1810.39	30
1811.4	26
1812.41	30
1813.42	33
1814.42	33
1815.43	30
1816.44	30
1817.45	22
1818.46	26
1819.47	27
1820.47	26
1821.48	22
1822.49	27
1823.49	26
1824.5	29
1825.51	30
1826.52	32
1827.52	26
1828.53	28
1829.53	29
1830.54	28
1831.55	28
1832.55	30
1833.56	28
1834.56	24
1835.57	25
1836.57	26
1837.58	29
1838.58	28
1839.59	26
1840.59	27
1841.6	26
1842.6	31
1843.61	28
1844.61	28
1845.61	28
1846.62	26
1847.62	29
1848.62	28
1849.63	30
1850.63	30
1851.63	28
1852.64	28
1853.64	31
1854.64	30
1855.64	26
1856.64	34
1857.65	28
1858.65	23
1859.65	24
1860.65	24
1861.65	26
1862.65	29
1863.65	30
1864.66	27
1865.66	30
1866.66	31
1867.66	27
1868.66	31
1869.66	26
1870.66	30
1871.66	24
1872.66	31
1873.66	24
1874.66	26
1875.65	25
1876.65	26
1877.65	26
1878.65	29
1879.65	28
1880.65	27
1881.65	30
1882.64	28
1883.64	28
1884.64	30
1885.64	22
1886.63	30
1887.63	30
1888.63	24
1889.63	29
1890.62	24
1891.62	31
1892.62	26
1893.61	30
1894.61	29
1895.6	27
1896.6	28
1897.6	28
1898.59	30
1899.59	27
1900.58	28
1901.58	33
1902.57	31
1903.57	32
1904.56	24
1905.56	27
1906.55	34
1907.54	33
1908.54	30
1909.53	32
1910.53	28
1911.52	34
1912.51	26
1913.51	28
1914.5	30
1915.49	26
1916.49	24
1917.48	28
1918.47	31
1919.46	31
1920.46	24
1921.45	20
1922.44	22
1923.43	33
1924.42	30
1925.41	26
1926.41	24
1927.4	24
1928.39	26
1929.38	26
1930.37	28
1931.36	26
1932.35	27
1933.34	28
1934.33	27
1935.32	28
1936.31	22
1937.3	26
1938.29	30
1939.28	28
1940.27	27
1941.26	30
1942.24	25
1943.23	24
1944.22	26
1945.21	30
1946.2	25
1947.19	25
1948.17	28
1949.16	33
1950.15	31.5
1951.14	30
1952.12	28
1953.11	24
1954.1	29
1955.09	20
1956.07	31
1957.06	26
1958.05	26
1959.03	28
1960.02	30
1961	29
1961.99	27
1962.98	26
1963.96	30
1964.95	24
1965.93	30
1966.92	27
1967.9	28
1968.89	20
1969.87	29
1970.85	30
1971.84	16
1972.82	25
1973.81	24
1974.79	28
1975.78	24
1976.76	31
1977.74	26
1978.73	25
1979.71	29
1980.69	30
1981.67	26
1982.66	31
1983.64	29
1984.62	25
1985.6	28
1986.59	29
1987.57	27
1988.55	26
1989.53	24
1990.51	28
1991.49	27
1992.47	30
1993.45	28
1994.44	25
1995.42	30
1996.4	28
1997.38	24
1998.36	27
1999.34	36
2000.32	24
2001.3	26
2002.28	20
2003.26	27
2004.24	24
2005.22	22
2006.19	30
2007.17	26
2008.15	26
2009.13	26
2010.11	28
2011.09	25
2012.06	26
2013.04	26
2014.02	31
2015	28
2015.98	27
2016.95	28
2017.93	28
2018.91	26
2019.88	25
2020.86	28
2021.84	24
2022.81	28
2023.79	27
2024.77	31
2025.74	26
2026.72	30
2027.69	28
2028.67	26
2029.65	27
2030.62	33
2031.6	26
2032.57	26
2033.55	26
2034.52	29
2035.5	28
2036.47	26
2037.44	26
2038.42	28
2039.39	26
2040.36	29
2041.34	30
2042.31	24
2043.29	25
2044.26	20
2045.23	31
2046.2	26
2047.18	26
2048.15	25
2049.12	22
2050.09	22
2051.07	33
2052.04	28
2053.01	26
2053.98	24
2054.95	31
2055.93	29
2056.9	26
2057.87	24
2058.84	26
2059.81	25
2060.78	28
2061.75	28
2062.72	28
2063.69	27
2064.66	27
2065.63	32
2066.6	24
2067.57	24
2068.54	24
2069.51	24
2070.48	23
2071.45	29
2072.42	30
2073.38	22
2074.35	31
2075.32	30
2076.29	22
2077.26	26
2078.23	25
2079.19	29
2080.16	28
2081.13	26
2082.1	24
2083.06	30
2084.03	26
2085	29
2085.96	27
2086.93	27
2087.9	24
2088.86	32
2089.83	26
2090.8	24
2091.76	30
2092.73	24
2093.69	30
2094.66	28
2095.62	27
2096.59	26
2097.55	32
2098.52	26
2099.48	29
2100.45	19
2101.41	31
2102.38	33
2103.34	26
2104.31	30
2105.27	30
2106.23	30
2107.2	24
2108.16	19
2109.12	30
2110.09	25
2111.05	22
2112.01	28
2112.98	22
2113.94	27
2114.9	29
2115.86	26
2116.82	26
2117.79	26
2118.75	26
2119.71	30
2120.67	30
2121.63	31
2122.59	30
2123.55	26
2124.52	26
2125.48	25
2126.44	27
2127.4	26
2128.36	22
2129.32	26
2130.28	22
2131.24	28
2132.2	22
2133.16	29
2134.12	25
2135.08	23
2136.04	28
2136.99	24
2137.95	22
2138.91	25
2139.87	26
2140.83	30
2141.79	25
2142.75	26
2143.7	24
2144.66	25
2145.62	27.007
2146.58	29.9051
2147.53	28.9979
2148.49	24.126
2149.45	27.8168
2150.41	27.6956
2151.36	24.187
2152.32	24.1204
2153.27	25.5185
2154.23	22.1863
2155.19	24.8876
2156.14	25.549
2157.1	24.6503
2158.06	27.7475
2159.01	28.9963
2159.97	26.2975
2160.92	26.8432
2161.88	27.1661
2162.83	26.6362
2163.79	24
2164.74	22.4009
2165.7	28.7273
2166.65	27.2081
2167.61	28.7696
2168.56	24.7266
2169.51	24.9926
2170.47	25.0392
2171.42	27.7412
2172.38	28.8949
2173.33	23.4791
2174.28	27.2014
2175.24	25.747
2176.19	23.3394
2177.14	22.6569
2178.09	27.9706
2179.05	24
2180	25.3111
2180.95	27.928
2181.9	25.5864
2182.86	27.7993
2183.81	22.1673
2184.76	24.1415
2185.71	26.07
2186.66	25.9485
2187.61	21.4558
2188.57	23.3783
2189.52	25.42
2190.47	26.0686
2191.42	22.615
2192.37	26.9119
2193.32	26.3094
2194.27	24.5147
2195.22	23.63
2196.17	25.5165
2197.12	25.3708
2198.07	23.1874
2199.02	25.351
2199.97	27.0374
2200.92	25.0943
2201.87	24.4514
2202.82	27.4088
2203.76	25.0392
2204.71	25.823
2205.66	21.9413
2206.61	24.9344
2207.56	27.9064
2208.51	27.4526
2209.45	25.3071
2210.4	27.4753
2211.35	25.9399
2212.3	23.3824
2213.24	24.8142
2214.19	24.9406
2215.14	23.4275
2216.09	25.3138
2217.03	26.5291
2217.98	27.5651
2218.93	27.7444
2219.87	28.5383
2220.82	26.2755
2221.77	25.5784
2222.71	25.6544
2223.66	23.5458
2224.6	25.6702
2225.55	26.551
2226.49	25.0514
2227.44	26.6879
2228.38	28.8344
2229.33	24.9855
2230.27	23.6172
2231.22	24.9043
2232.16	26.5658
2233.11	28.7052
2234.05	27.3886
2235	23.9219
2235.94	25.6083
2236.88	22.5559
2237.83	23.6176
2238.77	23.6682
2239.71	24.2996
2240.66	24.2867
2241.6	22.9755
2242	23
2242.95	27
2243.9	25
2244.84	26
2245.79	26
2246.74	24
2247.69	24
2248.63	28
2249.58	28
2250.53	28
2251.47	26
2252.42	26
2253.37	24
2254.31	22
2255.26	18
2256.2	24
2257.15	22
2258.1	24
2259.04	28
2259.99	20
2260.93	27
2261.88	27
2262.82	27
2263.77	24
2264.71	23
2265.65	29
2266.6	24
2267.54	26
2268.49	25
2269.43	25
2270.38	30
2271.32	30
2272.26	30
2273.21	22
2274.15	28
2275.09	26
2276.04	26
2276.98	26
2277.92	24
2278.86	20
2279.81	22
2280.75	27
2281.69	26
2282.63	24
2283.57	26
2284.52	25
2285.46	24
2286.4	24
2287.34	28
2288.28	28
2289.22	24
2290.16	28
2291.1	25
2292.04	24
2292.98	24
2293.93	26
2294.86	30
2295.8	23
2296.74	25
2297.69	26
2298.62	24
2299.56	27
2300.5	27
2301.44	28
2302.38	26
2303.32	26
2304.26	27
2305.2	22
2306.14	25
2307.07	22
2308.01	26
2308.95	24
2309.89	22
2310.83	22
2311.76	26
2312.7	29
2313.64	29
2314.58	29
2315.51	25
2316.45	26
2317.39	20
2318.32	27
2319.26	22
2320.2	24
2321.13	28
2322.07	23
2323	22
2323.94	28
2324.88	27
2325.81	29
2326.75	26
2327.68	24
2328.62	29
2329.55	25
2330.49	26
2331.42	26
2332.36	24
2333.29	29
2334.22	28
2335.16	28
2336.09	27
2337.03	30
2337.96	33
2338.89	24
2339.83	29
2340.76	20
2341.69	22
2342.63	22
2343.56	27
2344.49	31
2345.43	27
2346.36	27
2347.29	24
2348.22	26
2349.15	29
2350.09	27
2351.02	28
2351.95	28
2352.88	27
2353.81	24
2354.74	27
2355.67	28
2356.61	23
2357.54	28
2358.47	24
2359.4	18
2360.33	29
2361.26	24
2362.19	28
2363.12	28
2364.05	29
2364.98	22
2365.91	25
2366.84	26
2367.77	24
2368.7	26
2369.62	28
2370.55	23
2371.48	24
2372.41	29
2373.34	30
2374.27	27
2375.2	27
2376.12	30
2377.05	28
2377.98	25
2378.91	27
2379.83	26
2380.76	24
2381.69	28
2382.62	30
2383.54	28
2384.47	29
2385.4	28
2386.32	30
2387.25	22
2388.18	20
2389.1	23
2390.03	31
2390.95	24
2391.88	26
2392.81	27
2393.73	18
2394.66	24
2395.58	26
2396.51	28
2397.43	27
2398.36	24
2399.28	27
2400.2	28
2401.13	27
2402.05	28
2402.98	26
2403.9	27
2404.83	28
2405.75	32
2406.67	27
2407.6	27
2408.52	27
2409.44	31
2410.37	32
2411.29	28
2412.21	28
2413.13	26
2414.06	29
2414.98	26
2415.9	25
2416.82	29
2417.74	28
2418.67	29
2419.59	28
2420.51	26
2421.43	25
2422.35	32
2423.27	30
2424.19	26
2425.11	30
2426.03	23
2426.96	26
2427.88	24
2428.8	28
2429.72	22
2430.64	26
2431.56	26
2432.48	28
2433.39	22
2434.31	33
2435.23	24
2436.15	23
2437.07	27
2437.99	22
2438.91	28
2439.83	28
2440.75	29
2441.67	28
2442.58	29
2443.5	29
2444.42	28
2445.34	30
2446.26	27
2447.17	27
2448.09	28
2449.01	22
2449.92	28
2450.84	30
2451.76	24
2452.68	28
2453.59	30
2454.51	29
2455.42	29
2456.34	24
2457.26	29
2458.17	24
2459.09	28
2460	26
2460.92	28
2461.83	27
2462.75	24
2463.66	28
2464.58	20
2465.49	26
2466.41	28
2467.32	28
2468.24	23
2469.15	26
2470.07	22
2470.98	24
2471.89	26
2472.81	24
2473.72	29
2474.64	25
2475.55	29
2476.46	20
2477.37	25
2478.29	28
2479.2	28
2480.11	25
2481.03	26
2481.94	24
2482.85	28
2483.76	30
2484.67	24
2485.59	24
2486.5	22
2487.41	24
2488.32	29
2489.23	26
2490.14	28
2491.05	28
2491.97	27
2492.88	25
2493.79	22
2494.7	31
2495.61	28
2496.52	30
2497.43	27
2498.34	26
2499.25	24
2500.16	27
2501.07	27
2501.98	32
2502.89	29
2503.79	24
2504.7	28
2505.61	27
2506.52	19
2507.43	29
2508.34	28
2509.25	24
2510.16	27
2511.06	32
2511.97	27
2512.88	30
2513.79	24
2514.69	24
2515.6	24
2516.51	28
2517.42	28
2518.32	24
2519.23	28
2520.14	26
2521.04	28
2521.95	30
2522.86	26
2523.76	25
2524.67	24
2525.57	26
2526.48	24
2527.39	32
2528.29	27
2529.2	28
2530.1	32
2531.01	28
2531.91	28
2532.82	32
2533.72	23
2534.63	26
2535.53	24
2536.44	26
2537.34	30
2538.24	24
2539.15	28
2540.05	32
2540.96	24
2541.86	31
2542.76	26
2543.67	30
2544.57	22
2545.47	28
2546.37	28
2547.28	28
2548.18	24
2549.08	24
2549.99	29
2550.89	30
2551.79	26
2552.69	28
2553.59	28
2554.49	25
2555.4	24
2556.3	31
2557.2	26
2558.1	24
2559	29
2559.9	26
2560.8	29
2561.7	27
2562.6	26
2563.5	28
2564.4	27
2565.3	25
2566.2	26
2567.1	24
2568	27
2568.9	32
2569.8	24
2570.7	25
2571.6	29
2572.5	26
2573.4	28
2574.3	32
2575.2	27
2576.1	29
2576.99	32
2577.89	24
2578.79	32
2579.69	31
2580.59	27
2581.48	29
2582.38	28
2583.28	26
2584.18	28
2585.07	25
2585.97	28
2586.87	27
2587.76	26
2588.66	28
2589.56	29
2590.45	27
2591.35	28
2592.25	28
2593.14	32
2594.04	27
2594.93	30
2595.83	27
2596.73	29
2597.62	29
2598.52	26
2599.41	26
2600.31	24
2601.2	30
2602.1	28
2602.99	28
2603.88	29
2604.78	26
2605.67	28
2606.57	31
2607.46	28
2608.35	30
2609.25	26
2610.14	26
2611.03	31
2611.93	24
2612.82	29
2613.71	25
2614.61	29
2615.5	32
2616.39	26
2617.29	25
2618.18	27
2619.07	21
2619.96	31
2620.85	31
2621.75	24
2622.64	26
2623.53	31
2624.42	30
2625.31	23
2626.2	31
2627.09	24
2627.98	26
2628.88	31
2629.77	30
2630.66	28
2631.55	26
2632.44	30
2633.33	24
2634.22	26
2635.11	24
2636	22
2636.89	25
2637.78	29
2638.66	22
2639.55	26
2640.44	27
2641.33	27
2642.22	20
2643.11	28
2644	30
2644.89	24
2645.78	25
2646.66	24
2647.55	31
2648.44	26
2649.33	27
2650.21	30
2651.1	27
2651.99	26
2652.88	29
2653.76	24
2654.65	23
2655.54	29
2656.42	30
2657.31	30
2658.2	23
2659.08	30
2659.97	29
2660.86	28
2661.74	30
2662.63	31
2663.51	24
2664.4	29
2665.29	27
2666.17	28
2667.06	30
2667.94	26
2668.83	30
2669.71	24
2670.6	28
2671.48	34
2672.36	27
2673.25	22
2674.13	28
2675.02	29
2675.9	30
2676.78	26
2677.67	28
2678.55	25
2679.43	26
2680.32	28
2681.2	28
2682.08	24
2682.97	29
2683.85	34
2684.73	28
2685.61	28
2686.5	28
2687.38	27
2688.26	33
2689.14	28
2690.03	24
2690.91	24
2691.79	29
2692.67	22
2693.55	31
2694.43	31
2695.31	27
2696.19	29
2697.08	27
2697.96	22
2698.84	28
2699.72	27
2700.6	25
2701.48	31
2702.36	28
2703.24	30
2704.12	31
2705	30
2705.88	23
2706.76	26
2707.64	30
2708.51	28
2709.39	28
2710.27	32
2711.15	27
2712.03	29
2712.91	26
2713.79	26
2714.67	28
2715.54	20
2716.42	27
2717.3	29
2718.18	26
2719.05	30
2719.93	34
2720.81	33
2721.69	27
2722.56	33
2723.44	31
2724.32	24
2725.19	30
2726.07	30
2726.95	27
2727.82	28
2728.7	23
2729.58	30
2730.45	30
2731.33	28
2732.2	30
2733.08	28
2733.95	26
2734.83	27
2735.7	28
2736.58	26
2737.45	27
2738.33	26
2739.2	29
2740.08	33
2740.95	22
2741.83	25
2742.7	27
2743.58	31
2744.45	30
2745.32	31
2746.2	30
2747.07	29
2747.94	28
2748.82	29
2749.69	31
2750.56	28
2751.44	25
2752.31	26
2753.18	25
2754.05	24
2754.93	26
2755.8	22
2756.67	24
2757.54	28
2758.42	26
2759.29	24
2760.16	27
2761.03	28
2761.9	28
2762.77	26
2763.64	27
2764.51	28
2765.38	29
2766.26	28
2767.13	26
2768	26
2768.87	30
2769.74	24
2770.61	30
2771.48	26
2772.35	26
2773.22	28
2774.09	28
2774.96	30
2775.83	24
2776.7	26
2777.56	29
2778.43	26
2779.3	26
2780.17	30
2781.04	24
2781.91	28
2782.78	30
2783.64	25
2784.51	29
2785.38	24
2786.25	22
2787.12	28
2787.98	20
2788.85	25
2789.72	28
2790.59	28
2791.45	28
2792.32	31
2793.19	30
2794.05	24
2794.92	29
2795.79	28
2796.65	32
2797.52	27
2798.38	30
2799.25	27
2800.12	31
2800.98	24
2801.85	32
2802.71	28
2803.58	28.5
2804.44	26
2805.31	29
2806.17	22
2807.04	26
2807.9	28
2808.77	24
2809.63	28
2810.5	32
2811.36	22
2812.22	26
2813.09	34
2813.95	26
2814.82	27
2815.68	29
2816.54	28
2817.41	27
2818.27	27
2819.13	28
2820	27
2820.86	23
2821.72	33
2822.58	26
2823.45	28
2824.31	32
2825.17	24
2826.03	26
2826.9	30
2827.76	28
2828.62	26
2829.48	30
2830.34	30
2831.2	26
2832.06	33
2832.92	28
2833.79	22
2834.65	30
2835.51	27
2836.37	34
2837.23	28
2838.09	29
2838.95	28
2839.81	25
2840.67	26
2841.53	28
2842.39	24
2843.25	26
2844.11	30
2844.97	34
2845.83	26
2846.68	32
2847.54	29
2848.4	29
2849.26	26
2850.12	30
2850.98	28
2851.84	30
2852.69	31
2853.55	29
2854.41	29
2855.27	29
2856.13	32
2856.98	34
2857.84	31
2858.7	28
2859.56	29
2860.41	28
2861.27	28
2862.13	28
2862.98	29
2863.84	30
2864.7	24
2865.55	22
2866.41	24
2867.27	29
2868.12	28
2868.98	32
2869.83	22
2870.69	32
2871.54	28
2872.4	29
2873.25	29
2874.11	26
2874.96	30
2875.82	30
2876.68	27
2877.53	28
2878.38	34
2879.24	29
2880.09	32
2880.95	31
2881.8	36
2882.65	34
2883.51	31
2884.36	31
2885.22	30
2886.07	34
2886.92	26
2887.77	36
2888.63	37
2889.48	34
2890.33	32
2891.19	36
2892.04	40
2892.89	36
2893.74	36
2894.6	46
2895.45	39
2896.3	43
2897.15	44
2898	38
2898.85	48
2899.71	48
2900.56	45
2901.41	48
2902.26	50
2903.11	57
2903.96	58
2904.81	52
2905.66	55
2906.51	54
2907.36	52
2908.21	52
2909.06	57
2909.91	61
2910.76	58
2911.61	54
2912.46	46
2913.31	47
2914.16	46
2915.01	44
2915.86	42
2916.71	40
2917.56	38
2918.41	36
2919.26	39
2920.1	36
2920.95	34
2921.8	32
2922.65	34
2923.5	33
2924.34	36
2925.19	30
2926.04	33
2926.89	32
2927.74	30
2928.58	39
2929.43	30
2930.28	30
2931.12	32
2931.97	28
2932.82	24
2933.66	25
2934.51	28
2935.36	34
2936.2	28
2937.05	33
2937.89	30
2938.74	31
2939.59	26
2940.43	29
2941.28	30
2942.12	30
2942.97	26
2943.81	31
2944.66	31
2945.5	29
2946.35	30
2947.19	28
2948.04	34
2948.88	24
2949.72	28
2950.57	28
2951.41	32
2952.26	26
2953.1	32
2953.94	32
2954.79	35
2955.63	32
2956.47	36
2957.32	34
2958.16	40
2959	34
2959.85	44
2960.69	38
2961.53	41
2962.37	38
2963.22	38
2964.06	40
2964.9	46
2965.74	40
2966.58	42
2967.42	42
2968.27	38
2969.11	44
2969.95	38
2970.79	43
2971.63	38
2972.47	37
2973.31	34
2974.15	30
2974.99	40
2975.83	34
2976.68	34
2977.52	36
2978.36	29
2979.2	29
2980.04	31
2980.88	32
2981.71	30
2982.55	28
2983.39	31
2984.23	32
2985.07	28
2985.91	28
2986.75	28
2987.59	28
2988.43	26
2989.27	24
2990.1	26
2990.94	28
2991.78	24
2992.62	26
2993.46	24
2994.3	31
2995.13	28
2995.97	29
2996.81	23
2997.64	27
2998.48	27
2999.32	28
