#Acq. time (s)=	3
#Accumulations=	3
#Range (cm-¹)=	100...3000
#Windows=	3
#Autofocus=	Off
#AutoExposure=	Off
#Spike filter=	Multiple accum.
#Delay time (s)=	0
#Binning=	1
#Readout mode=	Signal
#DeNoise=	Off
#ICS correction=	Off
#Dark correction=	Off
#Inst. Process=	Off
#Instrument=	LabRAM HR Evol
#Detector=	Syncerity OE
#Objective=	x100_VIS_LWD
#Grating=	600 (500nm)
#ND Filter=	25%
#Laser=	633nm_Edge
#Hole=	100.021
#Range=	Visible
#Project=	Bolus
#Sample=	A2
#Site=	stripside
#Title=	m04
#Remark=	
#Date=	03.11.2025 19:26
#Acquired=	03.11.2025 19:26:14
100.969	32
102.252	34
103.535	36
104.818	35
106.101	28
107.384	33
108.666	34
109.948	28
111.232	33
112.514	36
113.795	34
115.077	35
116.358	38
117.639	38
118.919	30
120.2	34
121.48	32
122.76	34
124.04	37
125.32	34
126.599	34
127.879	38
129.158	34
130.436	41
131.715	35
132.992	33
134.27	37
135.548	34
136.826	32
138.104	38
139.381	36
140.658	36
141.935	39
143.212	36
144.489	32
145.763	41
147.04	42
148.315	41
149.591	40
150.867	44
152.142	43
153.416	42
154.691	46
155.965	39
157.24	42
158.514	40
159.786	45
161.06	40
162.334	37
163.607	45
164.881	45
166.152	40
167.425	41
168.698	38
169.969	45
171.241	38
172.513	40
173.785	38
175.055	41
176.326	42
177.597	41
178.867	44
180.137	39
181.408	42
182.677	43
183.947	43
185.217	46
186.485	43
187.755	48
189.022	39
190.291	42
191.56	41
192.828	38
194.096	36
195.363	40
196.631	46
197.899	43
199.165	40
200.432	36
201.698	42
202.965	44
204.23	40
205.497	35
206.762	32
208.028	40
209.293	41
210.559	42
211.823	36
213.088	36
214.352	39
215.617	41
216.88	35
218.145	42
219.408	30
220.672	36
221.934	36
223.196	38
224.46	28
225.722	40
226.985	38
228.246	38
229.508	36
230.77	39
232.031	34
233.292	35
234.554	36
235.814	34
237.074	34
238.335	36
239.595	40
240.854	34
242.115	40
243.374	38
244.633	36
245.893	36
247.151	34
248.409	37
249.667	35
250.927	30
252.184	32
253.442	33
254.699	32
255.957	34
257.214	26
258.47	33
259.727	32
260.983	34
262.24	33
263.496	30
264.752	34
266.007	32
267.262	36
268.517	36
269.773	34
271.028	37
272.282	36
273.536	28
274.79	28
276.044	31
277.297	35
278.551	29
279.804	35
281.057	35
282.31	35
283.564	32
284.816	36
286.068	29
287.32	33
288.572	32
289.823	39
291.074	30
292.325	38
293.576	32
294.827	32
296.077	26
297.328	36
298.578	36
299.828	30
301.077	36
302.325	36
303.575	35
304.824	34
306.073	32
307.321	35
308.57	35
309.818	31
311.066	32
312.314	36
313.562	36
314.808	35
316.055	31
317.302	28
318.549	34
319.796	26
321.042	37
322.288	32
323.533	32
324.779	36
326.024	28
327.27	33
328.515	37
329.759	28
331.004	30
332.248	28
333.493	32
334.736	34
335.98	35
337.223	31
338.466	36
339.709	34
340.952	33
342.195	34
343.437	33
344.68	34
345.922	36
347.163	35
348.405	34
349.647	32
350.887	26
352.128	30
353.37	36
354.609	37
355.85	34
357.089	36
358.33	30
359.57	33
360.809	36
362.049	31
363.287	32
364.526	30
365.764	33
367.003	39
368.241	28
369.479	32
370.718	32
371.955	29
373.193	30
374.429	34
375.667	36
376.903	34
378.139	32
379.376	34
380.611	39
381.848	38
383.083	34
384.319	39
385.554	32
386.79	32
388.024	33
389.258	36
390.493	33
391.727	30
392.962	32
394.195	38
395.428	30
396.663	30
397.895	31
399.128	29
400.361	32
401.593	31
402.825	32
404.058	30
405.29	30
406.521	32
407.752	31
408.985	30
410.215	32
411.446	35
412.678	32
413.908	30
415.138	32
416.367	36
417.597	36
418.828	30
420.057	34
421.286	34
422.514	33
423.743	33
424.973	36
426.201	30
427.429	32
428.657	32
429.884	37
431.112	28
432.34	37
433.567	27
434.794	34
436.02	32
437.247	34
438.473	32
439.699	36
440.925	35
442.15	34
443.376	34
444.601	30
445.826	34
447.051	30
448.275	29
449.5	33
450.724	31
451.948	32
453.172	37
454.396	37
455.619	36
456.842	32
458.065	37
459.288	34
460.511	32
461.733	36
462.956	32
464.178	36
465.4	40
466.621	34
467.843	36
469.064	30
470.285	34
471.505	41
472.726	38
473.946	41
475.166	40
476.387	43
477.606	42
478.825	44
480.044	51
481.264	42
482.483	45
483.702	52
484.921	51
486.138	50
487.356	64
488.574	55
489.792	61
491.009	56
492.226	57
493.444	42
494.661	48
495.877	52
497.094	47
498.31	44
499.525	54
500.741	45
501.958	46
503.172	49
504.388	44
505.603	36
506.817	40
508.032	42
509.247	39
510.46	38
511.675	40
512.888	37
514.102	34
515.316	41
516.528	37
517.742	36
518.954	37
520.167	44
521.378	33
522.591	32
523.802	34
525.015	35
526.226	39
527.438	33
528.648	34
529.86	36
531.07	35
532.281	38
533.491	37
534.702	34
535.911	28
537.121	32
538.33	34
539.54	38
540.749	35
541.957	32
543.167	34
544.375	32
545.584	30
546.791	36
547.999	38
549.207	37
550.414	28
551.621	41
552.829	37
554.035	34
555.241	34
556.449	36
557.655	32
558.86	34
560.066	31
561.272	34
562.477	36
563.682	33
564.888	36
566.093	34
567.297	35
568.501	31
569.705	37
570.91	39
572.114	34
573.317	30
574.52	36
575.723	34
576.927	30
578.13	32
579.332	36
580.535	28
581.737	34
582.938	32
584.14	35
585.343	33
586.544	35
587.745	34
588.946	30
590.147	35
591.347	30
592.548	35
593.748	36
594.948	32
596.147	32
597.347	37
598.546	36
599.745	36
600.944	30
602.143	32
603.342	32
604.54	32
605.738	34
606.937	36
608.134	32
609.332	32
610.529	30
611.727	30
612.924	36
614.121	32
615.317	30
616.513	30
617.709	31
618.905	34
620.101	37
621.297	36
622.492	31
623.688	36
624.883	28
626.077	34
627.271	36
628.466	29
629.66	32
630.855	31
632.047	35
633.241	34
634.435	32
635.629	33
636.82	34
638.014	34
639.207	32
640.399	32
641.59	31
642.783	30
643.975	35
645.166	35
646.357	39
647.549	34
648.741	39
649.93	31
651.122	30
652.311	36
653.502	30
654.692	32
655.881	37
657.071	29
658.261	33
659.45	38
660.639	33
661.827	39
663.016	32
664.204	38
665.393	36
666.581	37
667.769	36
668.957	35
670.143	32
671.331	37
672.518	35
673.705	39
674.891	36
676.078	38
677.264	37
678.451	34
679.636	35
680.821	38
682.007	34
683.192	42
684.378	44
685.562	34
686.747	39
687.931	39
689.115	32
690.3	42
691.483	35
692.666	38
693.851	37
695.034	38
696.216	38
697.4	38
698.582	34
699.764	39
700.948	36
702.129	40
703.311	39
704.493	38
705.674	49
706.855	49
708.036	48
709.218	50
710.399	50
711.579	47
712.759	50
713.939	44
715.12	47
716.299	38
717.478	44
718.657	40
719.836	35
721.015	32
722.195	40
723.373	35
724.552	33
725.729	32
726.907	31
728.085	36
729.262	36
730.44	32
731.617	38
732.795	33
733.972	34
735.148	30
736.324	35
737.501	38
738.677	34
739.852	39
741.028	37
742.203	36
743.379	28
744.554	38
745.729	34
746.903	33
748.078	35
749.252	26
750.426	28
751.599	36
752.772	35
753.946	35
755.119	37
756.293	36
757.466	28
758.639	34
759.811	30
760.984	30
762.155	34
763.327	35
764.499	34
765.67	38
766.842	28
768.013	26
769.183	35
770.354	38
771.525	33
772.696	37
773.865	29
775.035	35
776.205	36
777.375	38
778.544	34
779.713	34
780.882	33
782.052	34
783.219	41
784.388	36
785.557	36
786.724	38
787.892	36
789.06	38
790.227	36
791.395	32
792.562	34
793.728	39
794.895	36
796.061	34
797.228	34
798.395	36
799.56	34
800.726	38
801.891	39
803.057	38
804.221	33
805.387	36
806.551	33
807.716	36
808.879	36
810.044	34
811.208	39
812.372	31
813.535	37
814.699	32
815.862	32
817.025	31
818.188	31
819.351	36
820.513	36
821.675	33
822.837	34
823.999	32
825.161	32
826.322	33
827.483	24
828.645	36
829.805	32
830.966	28
832.127	38
833.287	36
834.447	32
835.607	35
836.767	32
837.926	36
839.085	34
840.245	37
841.404	30
842.562	31
843.72	33
844.88	29
846.038	35
847.195	28
848.353	32
849.512	33
850.669	32
851.826	36
852.983	33
854.139	36
855.296	22
856.453	37
857.609	39
858.765	36
859.921	33
861.077	34
862.232	39
863.387	43
864.542	41
865.697	40
866.852	30
868.008	32
869.162	30
870.316	31
871.47	35
872.624	34
873.778	30
874.931	36
876.084	37
877.237	33
878.39	35
879.543	35
880.695	36
881.846	31
882.999	34
884.151	32
885.302	31
886.454	38
887.606	32
888.757	37
889.908	30
891.059	30
892.21	30
893.359	29
894.509	33
895.659	34
896.81	31
897.959	30
899.109	33
900.257	34
901.407	35
902.556	35
903.705	31
904.854	36
906.001	26
907.149	34
908.298	33
909.446	34
910.592	30
911.74	30
912.888	32
914.034	27
915.181	30
916.328	33
917.473	26
918.62	30
919.766	32
920.911	32
922.058	30
923.204	31
924.348	36
925.494	31
926.638	30
927.783	34
928.928	30
930.072	31
931.216	34
932.36	30
933.504	30
934.647	35
935.791	34
936.933	34
938.077	32
939.219	33
940.363	32
941.504	28
942.647	30
943.789	33
944.932	30
946.073	33
947.215	28
948.356	32
949.498	35
950.638	31
951.778	30
952.92	39
954.06	28
955.199	32
956.34	29
957.479	34
958.62	33
959.759	30
960.898	33
962.038	33
963.176	31
964.315	30
965.453	36
966.592	30
967.73	30
968.867	34
970.006	32
971.144	33
972.281	34
973.418	36
974.554	32
975.692	35
976.829	29
977.965	38
979.101	29
980.237	36
981.374	31
982.509	32
983.645	29
984.78	32
985.915	30
987.05	32
988.184	28
989.319	30
990.453	33
991.589	30
992.722	35
993.856	33
994.99	28
996.123	30
997.257	28
998.39	32
999.523	33
1000.66	30
1001.79	27
1002.92	32
1004.05	27
1005.18	32
1006.32	28
1007.45	32
1008.58	34
1009.71	32
1010.84	32
1011.97	31
1013.1	32
1014.23	29
1015.36	32
1016.49	26
1017.62	34
1018.75	30
1019.88	30
1021.01	28
1022.14	28
1023.27	28
1024.4	29
1025.53	32
1026.66	32
1027.79	34
1028.91	24
1030.04	38
1031.17	32
1032.3	32
1033.42	31
1034.55	35
1035.68	30
1036.81	30
1037.93	36
1039.06	31
1040.18	30
1041.31	26
1042.44	28
1043.56	28
1044.69	31
1045.81	33
1046.94	32
1048.06	28
1049.19	33
1050.31	30
1051.44	32
1052.56	26
1053.69	29
1054.81	32
1055.93	31
1057.06	31
1058.18	32
1059.3	33
1060.43	33
1061.55	31
1062.67	38
1063.79	30
1064.92	34
1066.04	26
1067.16	33
1068.28	29
1069.4	34
1070.52	28
1071.65	32
1072.77	26
1073.89	31
1075.01	32
1076.13	31
1077.25	34
1078.37	28
1079.49	33
1080.61	35
1081.73	29
1082.85	34
1083.97	30
1085.09	36
1086.2	24
1087.32	30
1088.44	31
1089.56	28
1090.68	34
1091.8	35
1092.91	33
1094.03	28
1095.15	35
1096.26	35
1097.38	28
1098.5	29
1099.61	35
1100.73	31
1101.85	33
1102.96	28
1104.08	31
1105.19	32
1106.31	33
1107.43	26
1108.54	30
1109.66	29
1110.77	30
1111.88	28
1113	31
1114.11	30
1115.23	30
1116.34	33
1117.46	37
1118.57	26
1119.68	33
1120.8	28
1121.91	31
1123.02	32
1124.13	34
1125.25	30
1126.36	32
1127.47	28
1128.58	28
1129.69	35
1130.8	29
1131.92	28
1133.03	32
1134.14	31
1135.25	28
1136.36	32
1137.47	31
1138.58	37
1139.69	35
1140.8	32
1141.91	32
1143.02	34
1144.13	32
1145.24	28
1146.35	30
1147.46	30
1148.56	31
1149.67	30
1150.78	28
1151.89	32
1153	32
1154.1	33
1155.21	31
1156.32	36
1157.43	34
1158.53	32
1159.64	32
1160.75	34
1161.85	29
1162.96	36
1164.07	32
1165.17	33
1166.28	28
1167.38	32
1168.49	35
1169.59	40
1170.7	33
1171.8	33
1172.91	32
1174.01	26
1175.12	33
1176.22	22
1177.32	34
1178.43	30
1179.53	34
1180.64	25
1181.74	35
1182.84	34
1183.94	32
1185.05	30
1186.15	36
1187.25	30
1188.35	30
1189.46	26
1190.56	30
1191.66	36
1192.76	34
1193.86	32
1194.96	33
1196.06	28.0098
1197.16	30.9438
1198.26	33.8754
1199.37	31.1105
1200.47	32.0794
1201.57	31.0539
1202.67	28.1859
1203.77	36.6035
1204.86	30.9896
1205.96	34.3921
1207.06	33.5972
1208.16	21.3529
1209.26	31.3728
1210.36	31.2812
1211.46	32.2868
1212.56	32.2298
1213.65	33.1935
1214.75	27.8327
1215.85	29.7135
1216.95	30.4661
1218.04	32.0208
1219.14	33.7485
1220.24	29.3541
1221.33	26.4233
1222.43	29.2402
1223.53	28.3874
1224.62	27.0108
1225.72	34.3134
1226.82	32.5753
1227.91	28.0077
1229.01	31.3728
1230.1	27.4139
1231.2	33.4069
1232.29	30
1233.39	30.7737
1234.48	31.4025
1235.58	30.8577
1236.67	32.8558
1237.77	30.1698
1238.86	27.3873
1239.95	29.511
1241.05	30.7597
1242.14	28.3775
1243.23	29.4571
1244.33	30
1245.42	31.9004
1246.51	31.6499
1247.61	31.2207
1248.7	30.6429
1249.79	30.8088
1250.88	29.1823
1251.97	28
1253.07	33.5101
1254.16	32.6598
1255.25	31.8817
1256.34	30.445
1257.43	30.5046
1258.52	32.5147
1259.61	31.2398
1260.7	31.417
1261.79	31.7394
1262.88	32.1044
1263.97	31.0512
1265.06	33.2911
1266.15	32.0384
1267.24	27.9121
1268.33	26.9826
1269.42	32.3507
1270.51	29.842
1271.6	28.1092
1272.68	26.6508
1273.77	29.7385
1274.86	29.208
1275.95	29.6383
1277.04	26.0421
1278.12	27.5859
1279.21	30.8021
1280.3	30.74
1281.39	30.4608
1282.47	30.4379
1283.56	31.9914
1284.65	27.8304
1285.73	29.4508
1286.82	25.6839
1287.91	31.9925
1288.99	31.6765
1290.08	31.0247
1291.16	29.0421
1292.25	32.4813
1293.33	26.2401
1294.42	28.6765
1295.5	27.7718
1296.59	26.3906
1297.67	27.8978
1298.76	31.8678
1299.84	25.0172
1300.92	22.3557
1302.01	24.4075
1303.09	26.5269
1304.17	30.1723
1305.26	31.7785
1306.34	29.671
1307.34	26
1308.43	28
1309.52	31
1310.61	35
1311.7	31
1312.78	32
1313.87	28
1314.96	32
1316.04	30
1317.13	30
1318.22	26
1319.3	30
1320.39	27
1321.48	30
1322.56	36
1323.65	26
1324.73	24
1325.82	28
1326.9	26
1327.99	30
1329.07	36
1330.16	33
1331.24	30
1332.33	26
1333.41	26
1334.5	26
1335.58	28
1336.66	32
1337.75	34
1338.83	31
1339.91	30
1341	32
1342.08	28
1343.16	32
1344.24	30
1345.33	28
1346.41	28
1347.49	29
1348.57	31
1349.65	26
1350.74	30
1351.82	24
1352.9	18
1353.98	30
1355.06	30
1356.14	26
1357.22	28
1358.3	28
1359.38	33
1360.46	28
1361.54	26
1362.62	30
1363.7	32
1364.78	30
1365.86	30
1366.94	27
1368.02	29
1369.09	33
1370.17	30
1371.25	33
1372.33	28
1373.41	32
1374.48	26
1375.56	34
1376.64	34
1377.72	28
1378.79	30
1379.87	24
1380.95	29
1382.02	32
1383.1	31
1384.17	34
1385.25	34
1386.33	34
1387.4	27
1388.48	28
1389.55	27
1390.63	28
1391.7	34
1392.78	36
1393.85	34
1394.93	28
1396	28
1397.07	34
1398.15	32
1399.22	29
1400.3	24
1401.37	29
1402.44	33
1403.52	34
1404.59	37
1405.66	34
1406.73	30
1407.81	30
1408.88	36
1409.95	34
1411.02	36
1412.09	32
1413.17	34
1414.24	32
1415.31	38
1416.38	38
1417.45	32
1418.52	38
1419.59	34
1420.66	32
1421.73	33
1422.8	30
1423.87	27
1424.94	32
1426.01	31
1427.08	34
1428.15	37
1429.22	25
1430.29	32
1431.35	32
1432.42	30
1433.49	32
1434.56	30
1435.63	34
1436.69	30
1437.76	26
1438.83	29
1439.9	30
1440.96	26
1442.03	33
1443.1	28
1444.17	33
1445.23	36
1446.3	31
1447.36	30
1448.43	28
1449.49	26
1450.56	32
1451.63	26
1452.69	29
1453.76	35
1454.82	31
1455.89	30
1456.95	26
1458.01	34
1459.08	29
1460.14	30
1461.21	30
1462.27	28
1463.34	30
1464.4	26
1465.46	32
1466.52	27
1467.59	24
1468.65	30
1469.71	31
1470.77	29
1471.84	27
1472.9	30
1473.96	30
1475.02	30
1476.08	30
1477.15	26
1478.21	32
1479.27	28
1480.33	33
1481.39	30
1482.45	35
1483.51	30
1484.57	33
1485.63	30
1486.69	32
1487.75	35
1488.81	32
1489.87	29
1490.93	39
1491.99	30
1493.05	26
1494.1	28
1495.16	26
1496.22	34
1497.28	38
1498.34	36
1499.4	31
1500.45	28
1501.51	29
1502.57	29
1503.63	31
1504.68	31
1505.74	31
1506.8	29
1507.85	30
1508.91	31
1509.97	24
1511.02	28
1512.08	29
1513.13	28
1514.19	35
1515.24	28
1516.3	31
1517.35	28
1518.41	30
1519.46	28
1520.52	29
1521.57	28
1522.63	30
1523.68	30
1524.73	30
1525.79	29
1526.84	30
1527.9	31
1528.95	35
1530	30
1531.05	30
1532.11	32
1533.16	34
1534.21	30
1535.26	24
1536.32	35
1537.37	31
1538.42	24
1539.47	32
1540.52	24
1541.57	32
1542.63	30
1543.68	33
1544.73	29
1545.78	31
1546.83	30
1547.88	37
1548.93	32
1549.98	27
1551.03	31
1552.08	32
1553.13	30
1554.18	26
1555.23	32
1556.27	32
1557.32	30
1558.37	34
1559.42	30
1560.47	33
1561.52	32
1562.56	29
1563.61	33
1564.66	28
1565.71	30
1566.75	30
1567.8	30
1568.85	30
1569.9	33
1570.94	28
1571.99	32
1573.03	33
1574.08	29
1575.13	32
1576.17	32
1577.22	28
1578.26	34
1579.31	30
1580.35	32
1581.4	30
1582.44	27
1583.49	26
1584.53	32
1585.58	28
1586.62	28
1587.66	31
1588.71	31
1589.75	28
1590.8	33
1591.84	32
1592.88	30
1593.92	26
1594.97	32
1596.01	32
1597.05	29
1598.1	32
1599.14	30
1600.18	29
1601.22	32
1602.26	30
1603.3	30
1604.35	30
1605.39	32
1606.43	28
1607.47	34
1608.51	28
1609.55	34
1610.59	32
1611.63	28
1612.67	28
1613.71	32
1614.75	31
1615.79	30
1616.83	32
1617.87	31
1618.91	33
1619.95	29
1620.99	33
1622.02	28
1623.06	31
1624.1	31
1625.14	28
1626.18	26
1627.21	32
1628.25	24
1629.29	30
1630.33	32
1631.36	32
1632.4	29
1633.44	31
1634.48	29
1635.51	30
1636.55	28
1637.58	34
1638.62	30
1639.66	36
1640.69	28
1641.73	29
1642.76	32
1643.8	31
1644.83	32
1645.87	36
1646.9	27
1647.94	27
1648.97	36
1650	26
1651.04	32
1652.07	27
1653.11	28
1654.14	33
1655.17	30
1656.21	26
1657.24	29
1658.27	30
1659.31	30
1660.34	31
1661.37	34
1662.4	32
1663.43	31
1664.47	32
1665.5	33
1666.53	29
1667.56	31
1668.59	32
1669.62	28
1670.66	34
1671.69	30
1672.72	33
1673.75	35
1674.78	32
1675.81	32
1676.84	32
1677.87	30
1678.9	30
1679.93	22
1680.96	33
1681.98	32
1683.01	35
1684.04	30
1685.07	30
1686.1	33
1687.13	30
1688.16	32
1689.18	31
1690.21	29
1691.24	30
1692.27	28
1693.3	32
1694.32	32
1695.35	33
1696.38	32
1697.4	34
1698.43	27
1699.46	27
1700.48	28
1701.51	34
1702.54	27
1703.56	30
1704.59	33
1705.61	30
1706.64	30
1707.66	29
1708.69	33
1709.71	30
1710.74	34
1711.76	29
1712.79	34
1713.81	27
1714.83	29
1715.86	31
1716.88	24
1717.91	33
1718.93	28
1719.95	33
1720.98	32
1722	32
1723.02	31
1724.04	28
1725.07	33
1726.09	30
1727.11	31
1728.13	30
1729.15	28
1730.18	34
1731.2	30
1732.22	26
1733.24	31
1734.26	29
1735.28	29
1736.3	32
1737.32	26
1738.34	22
1739.36	21
1740.38	32
1741.4	31
1742.42	24
1743.44	26
1744.46	26
1745.48	29
1746.5	30
1747.52	31
1748.54	36
1749.56	29
1750.58	32
1751.6	30
1752.61	33
1753.63	30
1754.65	28
1755.67	30
1756.68	24
1757.7	33
1758.72	30
1759.74	30
1760.75	28
1761.77	30
1762.79	34
1763.8	30
1764.82	34
1765.83	32
1766.85	28
1767.87	27
1768.88	32
1769.9	28
1770.91	28
1771.93	26
1772.94	31
1773.96	29
1774.97	28
1775.99	29
1777	31
1778.02	28
1779.03	30
1780.04	34
1781.06	29
1782.07	32
1783.09	29
1784.1	39
1785.11	33
1786.13	33
1787.14	26
1788.15	31
1789.16	31
1790.18	34
1791.19	32
1792.2	24
1793.21	24
1794.22	30
1795.23	28
1796.25	27
1797.26	28
1798.27	30
1799.28	33
1800.29	29
1801.3	26
1802.31	30
1803.32	30
1804.33	30
1805.34	32
1806.35	32
1807.36	32
1808.37	30
1809.38	28
1810.39	30
1811.4	33
1812.41	28
1813.42	34
1814.42	33
1815.43	30
1816.44	32
1817.45	32
1818.46	29
1819.47	24
1820.47	28
1821.48	31
1822.49	32
1823.49	29
1824.5	24
1825.51	33
1826.52	30
1827.52	31
1828.53	28
1829.53	32
1830.54	24
1831.55	29
1832.55	22
1833.56	30
1834.56	30
1835.57	28
1836.57	30
1837.58	26
1838.58	26
1839.59	29
1840.59	29
1841.6	28
1842.6	26
1843.61	28
1844.61	33
1845.61	26
1846.62	26
1847.62	26
1848.62	26
1849.63	29
1850.63	29
1851.63	30
1852.64	30
1853.64	28
1854.64	32
1855.64	32
1856.64	34
1857.65	33
1858.65	32
1859.65	28
1860.65	28
1861.65	29
1862.65	28
1863.65	26
1864.66	29
1865.66	27
1866.66	26
1867.66	26
1868.66	32
1869.66	31
1870.66	25
1871.66	26
1872.66	34
1873.66	34
1874.66	27
1875.65	30
1876.65	26
1877.65	30
1878.65	29
1879.65	24
1880.65	24
1881.65	28
1882.64	30
1883.64	30
1884.64	28
1885.64	32
1886.63	30
1887.63	36
1888.63	34
1889.63	28
1890.62	30
1891.62	31
1892.62	29
1893.61	28
1894.61	24
1895.6	26
1896.6	30
1897.6	24
1898.59	27
1899.59	26
1900.58	30
1901.58	31
1902.57	31
1903.57	26
1904.56	28
1905.56	32
1906.55	31
1907.54	32
1908.54	30
1909.53	29
1910.53	30
1911.52	27
1912.51	32
1913.51	27
1914.5	30
1915.49	30
1916.49	32
1917.48	24
1918.47	27
1919.46	26
1920.46	31
1921.45	28
1922.44	27
1923.43	31
1924.42	29
1925.41	24
1926.41	32
1927.4	32
1928.39	24
1929.38	36
1930.37	30
1931.36	26
1932.35	34
1933.34	34
1934.33	28
1935.32	32
1936.31	24
1937.3	30
1938.29	26
1939.28	26
1940.27	27
1941.26	26
1942.24	26
1943.23	28
1944.22	29
1945.21	30
1946.2	28
1947.19	32
1948.17	31
1949.16	32
1950.15	32.5
1951.14	32
1952.12	28
1953.11	30
1954.1	32
1955.09	32
1956.07	36
1957.06	29
1958.05	30
1959.03	30
1960.02	30
1961	26
1961.99	31
1962.98	26
1963.96	33
1964.95	28
1965.93	31
1966.92	28
1967.9	34
1968.89	26
1969.87	29
1970.85	26
1971.84	29
1972.82	29
1973.81	30
1974.79	33
1975.78	30
1976.76	35
1977.74	25
1978.73	32
1979.71	29
1980.69	26
1981.67	28
1982.66	34
1983.64	30
1984.62	28
1985.6	28
1986.59	32
1987.57	28
1988.55	32
1989.53	29
1990.51	29
1991.49	27
1992.47	27
1993.45	31
1994.44	32
1995.42	23
1996.4	28
1997.38	20
1998.36	28
1999.34	30
2000.32	31
2001.3	28
2002.28	28
2003.26	28
2004.24	28
2005.22	28
2006.19	33
2007.17	32
2008.15	30
2009.13	30
2010.11	28
2011.09	27
2012.06	26
2013.04	26
2014.02	24
2015	22
2015.98	24
2016.95	26
2017.93	30
2018.91	29
2019.88	27
2020.86	28
2021.84	30
2022.81	29
2023.79	20
2024.77	27
2025.74	24
2026.72	34
2027.69	30
2028.67	29
2029.65	24
2030.62	26
2031.6	26
2032.57	30
2033.55	29
2034.52	24
2035.5	26
2036.47	31
2037.44	27
2038.42	32
2039.39	28
2040.36	27
2041.34	28
2042.31	32
2043.29	29
2044.26	30
2045.23	28
2046.2	30
2047.18	33
2048.15	29
2049.12	28
2050.09	27
2051.07	29
2052.04	22
2053.01	30
2053.98	26
2054.95	28
2055.93	28
2056.9	27
2057.87	30
2058.84	29
2059.81	29
2060.78	31
2061.75	28
2062.72	29
2063.69	28
2064.66	29
2065.63	29
2066.6	27
2067.57	28
2068.54	34
2069.51	26
2070.48	29
2071.45	26
2072.42	28
2073.38	32
2074.35	24
2075.32	25
2076.29	32
2077.26	29
2078.23	27
2079.19	27
2080.16	26
2081.13	32
2082.1	22
2083.06	23
2084.03	30
2085	26
2085.96	32
2086.93	34
2087.9	33
2088.86	28
2089.83	28
2090.8	30
2091.76	31
2092.73	27
2093.69	22
2094.66	28
2095.62	27
2096.59	24
2097.55	30
2098.52	23
2099.48	26
2100.45	24
2101.41	31
2102.38	28
2103.34	30
2104.31	24
2105.27	29
2106.23	26
2107.2	33
2108.16	28
2109.12	32
2110.09	30
2111.05	26
2112.01	26
2112.98	28
2113.94	23
2114.9	24
2115.86	26
2116.82	26
2117.79	31
2118.75	28
2119.71	29
2120.67	24
2121.63	30
2122.59	26
2123.55	30
2124.52	26
2125.48	27
2126.44	30
2127.4	32
2128.36	30
2129.32	26
2130.28	25
2131.24	26
2132.2	25
2133.16	30
2134.12	28
2135.08	28
2136.04	28
2136.99	26
2137.95	24
2138.91	24
2139.87	30
2140.83	28
2141.79	27
2142.75	27
2143.7	26
2144.66	24
2145.62	24.0266
2146.58	27.9479
2147.53	27.0553
2148.49	26.1947
2149.45	24.1697
2150.41	22.2195
2151.36	27.9321
2152.32	33.4073
2153.27	27.7593
2154.23	26.0834
2155.19	25.9066
2156.14	26.0987
2157.1	29.2737
2158.06	22.5294
2159.01	25.1607
2159.97	29.291
2160.92	30.3529
2161.88	24.5092
2162.83	26.4591
2163.79	30.2353
2164.74	28.598
2165.7	27.2088
2166.65	28.4349
2167.61	26.3366
2168.56	27.0392
2169.51	26.0074
2170.47	27.6921
2171.42	23.3155
2172.38	28.3612
2173.33	29.3641
2174.28	24.4951
2175.24	26.7284
2176.19	29.917
2177.14	22.9788
2178.09	27.0504
2179.05	28.2928
2180	28.3444
2180.95	26.3676
2181.9	26.1562
2182.86	26.6847
2183.81	24.7105
2184.76	24.7827
2185.71	26.8634
2186.66	25.9559
2187.61	23.9648
2188.57	29.1442
2189.52	26.7302
2190.47	25.0661
2191.42	24.0698
2192.37	19.9852
2193.32	22.7004
2194.27	25.8167
2195.22	25.3429
2196.17	27.5084
2197.12	27.1811
2198.07	29.2685
2199.02	24.4143
2199.97	25.7077
2200.92	23.7733
2201.87	26.2778
2202.82	26.8421
2203.76	27.9735
2204.71	24.1551
2205.66	27.5892
2206.61	25.2101
2207.56	24.1942
2208.51	29.2369
2209.45	26.6609
2210.4	27.8424
2211.35	29.1292
2212.3	26.4639
2213.24	27.8748
2214.19	25.7291
2215.14	27.4846
2216.09	26.178
2217.03	27.2137
2217.98	25.6524
2218.93	28.14
2219.87	25.9263
2220.82	24.8787
2221.77	26.8431
2222.71	26.402
2223.66	26.3824
2224.6	28.5606
2225.55	28.1039
2226.49	28.4633
2227.44	25.7402
2228.38	23.1656
2229.33	25.3326
2230.27	28.2988
2231.22	23.1425
2232.16	26.379
2233.11	24.6981
2234.05	26.0424
2235	28.2161
2235.94	27.5724
2236.88	27.3728
2237.83	28.5
2238.77	26.7163
2239.71	24.4006
2240.66	25.7428
2241.6	26.9657
2242	27
2242.95	24
2243.9	24
2244.84	27
2245.79	24
2246.74	19
2247.69	29
2248.63	26
2249.58	26
2250.53	26
2251.47	29
2252.42	24
2253.37	24
2254.31	23
2255.26	24
2256.2	29
2257.15	26
2258.1	24
2259.04	25
2259.99	24
2260.93	26
2261.88	28
2262.82	31
2263.77	30
2264.71	33
2265.65	26
2266.6	28
2267.54	33
2268.49	24
2269.43	26
2270.38	30
2271.32	33
2272.26	29
2273.21	26
2274.15	33
2275.09	30
2276.04	24
2276.98	24
2277.92	29
2278.86	27
2279.81	22
2280.75	30
2281.69	22
2282.63	30
2283.57	28
2284.52	28
2285.46	22
2286.4	26
2287.34	26
2288.28	20
2289.22	29
2290.16	30
2291.1	26
2292.04	26
2292.98	27
2293.93	29
2294.86	27
2295.8	30
2296.74	24
2297.69	31
2298.62	31
2299.56	24
2300.5	25
2301.44	28
2302.38	29
2303.32	24
2304.26	24
2305.2	29
2306.14	24
2307.07	30
2308.01	28
2308.95	24
2309.89	25
2310.83	26
2311.76	27
2312.7	27
2313.64	27
2314.58	22
2315.51	27
2316.45	26
2317.39	26
2318.32	27
2319.26	34
2320.2	26
2321.13	26
2322.07	25
2323	31
2323.94	24
2324.88	27
2325.81	24
2326.75	24
2327.68	26
2328.62	26
2329.55	28
2330.49	20
2331.42	28
2332.36	32
2333.29	25
2334.22	30
2335.16	34
2336.09	29
2337.03	22
2337.96	29
2338.89	26
2339.83	30
2340.76	22
2341.69	26
2342.63	26
2343.56	29
2344.49	27
2345.43	25
2346.36	24
2347.29	32
2348.22	27
2349.15	29
2350.09	23
2351.02	26
2351.95	28
2352.88	27
2353.81	29
2354.74	26
2355.67	25
2356.61	26
2357.54	30
2358.47	27
2359.4	28
2360.33	27
2361.26	28
2362.19	26
2363.12	27
2364.05	26
2364.98	22
2365.91	29
2366.84	27
2367.77	29
2368.7	24
2369.62	27
2370.55	29
2371.48	30
2372.41	29
2373.34	26
2374.27	22
2375.2	29
2376.12	26
2377.05	28
2377.98	24
2378.91	26
2379.83	28
2380.76	31
2381.69	25
2382.62	29
2383.54	30
2384.47	27
2385.4	25
2386.32	30
2387.25	24
2388.18	28
2389.1	30
2390.03	26
2390.95	26
2391.88	26
2392.81	26
2393.73	29
2394.66	32
2395.58	30
2396.51	18
2397.43	30
2398.36	18
2399.28	20
2400.2	27
2401.13	32
2402.05	26
2402.98	24
2403.9	30
2404.83	24
2405.75	26
2406.67	26
2407.6	28
2408.52	24
2409.44	29
2410.37	28
2411.29	28
2412.21	24
2413.13	28
2414.06	31
2414.98	28
2415.9	28
2416.82	24
2417.74	30
2418.67	25
2419.59	28
2420.51	30
2421.43	28
2422.35	28
2423.27	23
2424.19	26
2425.11	21
2426.03	33
2426.96	26
2427.88	29
2428.8	25
2429.72	31
2430.64	30
2431.56	30
2432.48	31
2433.39	29
2434.31	26
2435.23	28
2436.15	28
2437.07	31
2437.99	31
2438.91	28
2439.83	34
2440.75	27
2441.67	28
2442.58	24
2443.5	27
2444.42	28
2445.34	22
2446.26	30
2447.17	26
2448.09	29
2449.01	31
2449.92	29
2450.84	31
2451.76	29
2452.68	30
2453.59	30
2454.51	28
2455.42	26
2456.34	28
2457.26	30
2458.17	28
2459.09	30
2460	28
2460.92	28
2461.83	29
2462.75	28
2463.66	25
2464.58	30
2465.49	29
2466.41	24
2467.32	27
2468.24	24
2469.15	28
2470.07	24
2470.98	25
2471.89	28
2472.81	26
2473.72	25
2474.64	25
2475.55	30
2476.46	27
2477.37	30
2478.29	24
2479.2	28
2480.11	25
2481.03	32
2481.94	29
2482.85	28
2483.76	26
2484.67	18
2485.59	30
2486.5	18
2487.41	27
2488.32	28
2489.23	27
2490.14	24
2491.05	30
2491.97	27
2492.88	31
2493.79	24
2494.7	27
2495.61	22
2496.52	31
2497.43	27
2498.34	23
2499.25	30
2500.16	28
2501.07	32
2501.98	28
2502.89	28
2503.79	27
2504.7	30
2505.61	26
2506.52	34
2507.43	30
2508.34	31
2509.25	24
2510.16	28
2511.06	30
2511.97	24
2512.88	33
2513.79	32
2514.69	30
2515.6	20
2516.51	25
2517.42	28
2518.32	28
2519.23	30
2520.14	28
2521.04	29
2521.95	30
2522.86	24
2523.76	21
2524.67	27
2525.57	26
2526.48	27
2527.39	25
2528.29	24
2529.2	24
2530.1	32
2531.01	31
2531.91	29
2532.82	28
2533.72	25
2534.63	30
2535.53	30
2536.44	28
2537.34	29
2538.24	28
2539.15	33
2540.05	33
2540.96	32
2541.86	30
2542.76	30
2543.67	26
2544.57	26
2545.47	31
2546.37	28
2547.28	27
2548.18	26
2549.08	34
2549.99	26
2550.89	32
2551.79	29
2552.69	24
2553.59	29
2554.49	28
2555.4	28
2556.3	27
2557.2	32
2558.1	30
2559	24
2559.9	26
2560.8	29
2561.7	30
2562.6	29
2563.5	22
2564.4	27
2565.3	24
2566.2	30
2567.1	29
2568	29
2568.9	34
2569.8	28
2570.7	20
2571.6	27
2572.5	30
2573.4	28
2574.3	28
2575.2	29
2576.1	29
2576.99	26
2577.89	28
2578.79	31
2579.69	26
2580.59	25
2581.48	31
2582.38	24
2583.28	26
2584.18	28
2585.07	28
2585.97	30
2586.87	31
2587.76	26
2588.66	23
2589.56	26
2590.45	26
2591.35	20
2592.25	31
2593.14	26
2594.04	28
2594.93	25
2595.83	26
2596.73	20
2597.62	30
2598.52	28
2599.41	22
2600.31	27
2601.2	26
2602.1	24
2602.99	26
2603.88	29
2604.78	30
2605.67	28
2606.57	28
2607.46	28
2608.35	27
2609.25	32
2610.14	32
2611.03	24
2611.93	32
2612.82	28
2613.71	27
2614.61	24
2615.5	26
2616.39	28
2617.29	32
2618.18	30
2619.07	26
2619.96	28
2620.85	26
2621.75	26
2622.64	26
2623.53	24
2624.42	24
2625.31	28
2626.2	28
2627.09	28
2627.98	32
2628.88	26
2629.77	26
2630.66	28
2631.55	28
2632.44	30
2633.33	22
2634.22	27
2635.11	28
2636	32
2636.89	22
2637.78	29
2638.66	30
2639.55	32
2640.44	30
2641.33	28
2642.22	30
2643.11	28
2644	28
2644.89	30
2645.78	29
2646.66	29
2647.55	34
2648.44	28
2649.33	24
2650.21	30
2651.1	26
2651.99	22
2652.88	26
2653.76	26
2654.65	30
2655.54	28
2656.42	24
2657.31	26
2658.2	28
2659.08	27
2659.97	29
2660.86	24
2661.74	28
2662.63	30
2663.51	27
2664.4	26
2665.29	30
2666.17	24
2667.06	24
2667.94	26
2668.83	31
2669.71	26
2670.6	29
2671.48	26
2672.36	24
2673.25	27
2674.13	26
2675.02	24
2675.9	28
2676.78	24
2677.67	32
2678.55	30
2679.43	27
2680.32	27
2681.2	22
2682.08	24
2682.97	26
2683.85	33
2684.73	29
2685.61	27
2686.5	23
2687.38	25
2688.26	31
2689.14	28
2690.03	32
2690.91	34
2691.79	28
2692.67	29
2693.55	25
2694.43	32
2695.31	31
2696.19	27
2697.08	29
2697.96	28
2698.84	26
2699.72	25
2700.6	27
2701.48	28
2702.36	27
2703.24	31
2704.12	28
2705	32
2705.88	28
2706.76	30
2707.64	26
2708.51	24
2709.39	24
2710.27	28
2711.15	30
2712.03	24
2712.91	28
2713.79	32
2714.67	26
2715.54	28
2716.42	21
2717.3	31
2718.18	26
2719.05	30
2719.93	30
2720.81	28
2721.69	32
2722.56	30
2723.44	27
2724.32	26
2725.19	32
2726.07	29
2726.95	26
2727.82	26
2728.7	22
2729.58	30
2730.45	32
2731.33	30
2732.2	32
2733.08	30
2733.95	24
2734.83	30
2735.7	25
2736.58	32
2737.45	24
2738.33	33
2739.2	25
2740.08	30
2740.95	24
2741.83	29
2742.7	28
2743.58	32
2744.45	32
2745.32	31
2746.2	21
2747.07	31
2747.94	22
2748.82	28
2749.69	22
2750.56	29
2751.44	26
2752.31	26
2753.18	28
2754.05	24
2754.93	29
2755.8	28
2756.67	31
2757.54	30
2758.42	25
2759.29	30
2760.16	32
2761.03	25
2761.9	27
2762.77	26
2763.64	27
2764.51	24
2765.38	29
2766.26	26
2767.13	30
2768	28
2768.87	28
2769.74	28
2770.61	25
2771.48	24
2772.35	27
2773.22	22
2774.09	30
2774.96	26
2775.83	27
2776.7	30
2777.56	26
2778.43	26
2779.3	32
2780.17	26
2781.04	30
2781.91	26
2782.78	24
2783.64	29
2784.51	29
2785.38	29
2786.25	28
2787.12	26
2787.98	24
2788.85	29
2789.72	26
2790.59	32
2791.45	28
2792.32	30
2793.19	28
2794.05	32
2794.92	23
2795.79	30
2796.65	28
2797.52	28
2798.38	33
2799.25	28
2800.12	29
2800.98	28
2801.85	28
2802.71	32
2803.58	31.5
2804.44	31
2805.31	32
2806.17	29
2807.04	27
2807.9	30
2808.77	27
2809.63	30
2810.5	28
2811.36	28
2812.22	29
2813.09	30
2813.95	28
2814.82	27
2815.68	30
2816.54	31
2817.41	28
2818.27	28
2819.13	27
2820	30
2820.86	28
2821.72	34
2822.58	32
2823.45	30
2824.31	26
2825.17	28
2826.03	26
2826.9	24
2827.76	29
2828.62	29
2829.48	33
2830.34	34
2831.2	25
2832.06	33
2832.92	30
2833.79	24
2834.65	28
2835.51	27
2836.37	30
2837.23	34
2838.09	27
2838.95	31
2839.81	27
2840.67	29
2841.53	33
2842.39	30
2843.25	30
2844.11	26
2844.97	28
2845.83	28
2846.68	26
2847.54	30
2848.4	28
2849.26	34
2850.12	30
2850.98	32
2851.84	28
2852.69	28
2853.55	30
2854.41	34
2855.27	33
2856.13	34
2856.98	31
2857.84	26
2858.7	30
2859.56	32
2860.41	31
2861.27	33
2862.13	33
2862.98	30
2863.84	30
2864.7	34
2865.55	29
2866.41	28
2867.27	32
2868.12	30
2868.98	30
2869.83	25
2870.69	29
2871.54	30
2872.4	32
2873.25	27
2874.11	27
2874.96	26
2875.82	34
2876.68	32
2877.53	32
2878.38	33
2879.24	30
2880.09	34
2880.95	35
2881.8	26
2882.65	34
2883.51	34
2884.36	33
2885.22	32
2886.07	33
2886.92	38
2887.77	32
2888.63	36
2889.48	37
2890.33	35
2891.19	36
2892.04	36
2892.89	38
2893.74	38
2894.6	40
2895.45	42
2896.3	46
2897.15	48
2898	45
2898.85	42
2899.71	47
2900.56	49
2901.41	50
2902.26	48
2903.11	54
2903.96	54
2904.81	64
2905.66	58
2906.51	56
2907.36	61
2908.21	58
2909.06	56
2909.91	56
2910.76	57
2911.61	56
2912.46	56
2913.31	43
2914.16	51
2915.01	47
2915.86	48
2916.71	45
2917.56	38
2918.41	38
2919.26	38
2920.1	34
2920.95	40
2921.8	32
2922.65	38
2923.5	30
2924.34	38
2925.19	34
2926.04	33
2926.89	24
2927.74	30
2928.58	26
2929.43	35
2930.28	35
2931.12	28
2931.97	32
2932.82	30
2933.66	28
2934.51	30
2935.36	28
2936.2	31
2937.05	30
2937.89	30
2938.74	28
2939.59	30
2940.43	29
2941.28	27
2942.12	26
2942.97	32
2943.81	35
2944.66	33
2945.5	32
2946.35	26
2947.19	30
2948.04	29
2948.88	32
2949.72	28
2950.57	31
2951.41	32
2952.26	34
2953.1	31
2953.94	32
2954.79	36
2955.63	34
2956.47	31
2957.32	40
2958.16	30
2959	38
2959.85	36
2960.69	44
2961.53	36
2962.37	40
2963.22	40
2964.06	39
2964.9	44
2965.74	44
2966.58	30
2967.42	42
2968.27	44
2969.11	38
2969.95	36
2970.79	42
2971.63	45
2972.47	42
2973.31	37
2974.15	32
2974.99	37
2975.83	36
2976.68	36
2977.52	30
2978.36	30
2979.2	32
2980.04	36
2980.88	26
2981.71	32
2982.55	26
2983.39	32
2984.23	28
2985.07	25
2985.91	30
2986.75	30
2987.59	32
2988.43	28
2989.27	30
2990.1	30
2990.94	28
2991.78	28
2992.62	33
2993.46	24
2994.3	30
2995.13	28
2995.97	28
2996.81	26
2997.64	26
2998.48	34
2999.32	30
