#Acq. time (s)=	3
#Accumulations=	3
#Range (cm-¹)=	100...3000
#Windows=	3
#Autofocus=	Off
#AutoExposure=	Off
#Spike filter=	Multiple accum.
#Delay time (s)=	0
#Binning=	1
#Readout mode=	Signal
#DeNoise=	Off
#ICS correction=	Off
#Dark correction=	Off
#Inst. Process=	Off
#Instrument=	LabRAM HR Evol
#Detector=	Syncerity OE
#Objective=	x100_VIS_LWD
#Grating=	600 (500nm)
#ND Filter=	25%
#Laser=	633nm_Edge
#Hole=	100.021
#Range=	Visible
#Project=	Bolus
#Sample=	A2
#Site=	stripside
#Title=	m05
#Remark=	
#Date=	03.11.2025 19:27
#Acquired=	03.11.2025 19:27:33
100.969	56
102.252	68
103.535	69
104.818	69
106.101	61
107.384	65
108.666	70
109.948	67
111.232	60
112.514	66
113.795	71
115.077	72
116.358	62
117.639	67
118.919	68
120.2	66
121.48	63
122.76	73
124.04	71
125.32	68
126.599	71
127.879	73
129.158	68
130.436	70
131.715	66
132.992	71
134.27	71
135.548	71
136.826	71
138.104	62
139.381	68
140.658	74
141.935	73
143.212	70
144.489	78
145.763	69
147.04	74
148.315	73
149.591	80
150.867	76
152.142	66
153.416	66
154.691	80
155.965	78
157.24	70
158.514	83
159.786	70
161.06	76
162.334	72
163.607	80
164.881	74
166.152	76
167.425	70
168.698	72
169.969	64
171.241	78
172.513	69
173.785	76
175.055	77
176.326	76
177.597	70
178.867	82
180.137	73
181.408	77
182.677	81
183.947	76
185.217	76
186.485	72
187.755	77
189.022	72
190.291	65
191.56	76
192.828	72
194.096	74
195.363	74
196.631	79
197.899	78
199.165	80
200.432	78
201.698	81
202.965	72
204.23	66
205.497	74
206.762	76
208.028	75
209.293	76
210.559	70
211.823	78
213.088	67
214.352	74
215.617	73
216.88	72
218.145	79
219.408	75
220.672	76
221.934	75
223.196	70
224.46	79
225.722	72
226.985	66
228.246	67
229.508	68
230.77	68
232.031	64
233.292	62
234.554	62
235.814	72
237.074	67
238.335	64
239.595	67
240.854	68
242.115	64
243.374	64
244.633	71
245.893	71
247.151	71
248.409	69
249.667	70
250.927	66
252.184	66
253.442	65
254.699	67
255.957	68
257.214	70
258.47	68
259.727	70
260.983	72
262.24	64
263.496	67
264.752	66
266.007	67
267.262	68
268.517	66
269.773	69
271.028	72
272.282	65
273.536	65
274.79	58
276.044	72
277.297	71
278.551	69
279.804	69
281.057	72
282.31	72
283.564	62
284.816	70
286.068	67
287.32	62
288.572	61
289.823	78
291.074	74
292.325	69
293.576	68
294.827	68
296.077	62
297.328	66
298.578	63
299.828	68
301.077	70
302.325	67
303.575	71
304.824	65
306.073	64
307.321	62
308.57	68
309.818	72
311.066	67
312.314	67
313.562	68
314.808	69
316.055	72
317.302	66
318.549	67
319.796	70
321.042	67
322.288	73
323.533	78
324.779	64
326.024	71
327.27	70
328.515	72
329.759	64
331.004	66
332.248	69
333.493	68
334.736	64
335.98	66
337.223	67
338.466	70
339.709	67
340.952	68
342.195	67
343.437	68
344.68	64
345.922	62
347.163	63
348.405	73
349.647	64
350.887	65
352.128	73
353.37	72
354.609	64
355.85	68
357.089	65
358.33	73
359.57	66
360.809	71
362.049	60
363.287	65
364.526	68
365.764	64
367.003	70
368.241	71
369.479	70
370.718	68
371.955	73
373.193	70
374.429	71
375.667	59
376.903	68
378.139	66
379.376	58
380.611	62
381.848	66
383.083	60
384.319	64
385.554	63
386.79	64
388.024	73
389.258	73
390.493	69
391.727	65
392.962	71
394.195	69
395.428	66
396.663	66
397.895	70
399.128	64
400.361	67
401.593	74
402.825	69
404.058	73
405.29	60
406.521	65
407.752	70
408.985	62
410.215	74
411.446	71
412.678	68
413.908	70
415.138	72
416.367	70
417.597	65
418.828	68
420.057	73
421.286	65
422.514	74
423.743	76
424.973	72
426.201	68
427.429	74
428.657	81
429.884	68
431.112	65
432.34	62
433.567	60
434.794	67
436.02	68
437.247	71
438.473	72
439.699	71
440.925	71
442.15	70
443.376	69
444.601	70
445.826	70
447.051	73
448.275	77
449.5	71
450.724	71
451.948	66
453.172	69
454.396	74
455.619	69
456.842	70
458.065	77
459.288	74
460.511	66
461.733	72
462.956	71
464.178	75
465.4	67
466.621	68
467.843	76
469.064	74
470.285	73
471.505	78
472.726	72
473.946	71
475.166	76
476.387	72
477.606	78
478.825	84
480.044	81
481.264	90
482.483	83
483.702	80
484.921	87
486.138	80
487.356	94
488.574	92
489.792	98
491.009	96
492.226	101
493.444	96
494.661	96
495.877	84
497.094	95
498.31	91
499.525	84
500.741	85
501.958	89
503.172	82
504.388	76
505.603	79
506.817	85
508.032	81
509.247	76
510.46	78
511.675	75
512.888	77
514.102	78
515.316	73
516.528	78
517.742	75
518.954	79
520.167	74
521.378	71
522.591	75
523.802	74
525.015	68
526.226	76
527.438	70
528.648	62
529.86	68
531.07	66
532.281	62
533.491	72
534.702	71
535.911	68
537.121	71
538.33	66
539.54	65
540.749	75
541.957	64
543.167	67
544.375	58
545.584	68
546.791	73
547.999	71
549.207	67
550.414	71
551.621	70
552.829	66
554.035	67
555.241	70
556.449	77
557.655	66
558.86	73
560.066	74
561.272	72
562.477	70
563.682	75
564.888	71
566.093	70
567.297	68
568.501	67
569.705	68
570.91	67
572.114	70
573.317	72
574.52	58
575.723	67
576.927	63
578.13	63
579.332	64
580.535	74
581.737	69
582.938	71
584.14	74
585.343	64
586.544	73
587.745	73
588.946	65
590.147	71
591.347	66
592.548	74
593.748	70
594.948	71
596.147	66
597.347	74
598.546	72
599.745	69
600.944	74
602.143	66
603.342	71
604.54	75
605.738	71
606.937	65
608.134	67
609.332	74
610.529	70
611.727	68
612.924	64
614.121	63
615.317	66
616.513	72
617.709	68
618.905	65
620.101	74
621.297	75
622.492	74
623.688	71
624.883	69
626.077	70
627.271	79
628.466	74
629.66	65
630.855	72
632.047	64
633.241	73
634.435	74
635.629	73
636.82	74
638.014	70
639.207	67
640.399	77
641.59	78
642.783	70
643.975	73
645.166	66
646.357	78
647.549	68
648.741	73
649.93	63
651.122	70
652.311	70
653.502	66
654.692	63
655.881	69
657.071	69
658.261	74
659.45	73
660.639	72
661.827	71
663.016	65
664.204	71
665.393	73
666.581	71
667.769	67
668.957	80
670.143	72
671.331	69
672.518	66
673.705	67
674.891	76
676.078	71
677.264	74
678.451	70
679.636	66
680.821	75
682.007	70
683.192	75
684.378	72
685.562	85
686.747	78
687.931	79
689.115	65
690.3	79
691.483	76
692.666	80
693.851	78
695.034	75
696.216	77
697.4	81
698.582	71
699.764	76
700.948	79
702.129	72
703.311	82
704.493	82
705.674	80
706.855	86
708.036	88
709.218	90
710.399	94
711.579	94
712.759	96
713.939	89
715.12	82
716.299	81
717.478	72
718.657	73
719.836	76
721.015	73
722.195	76
723.373	68
724.552	69
725.729	66
726.907	74
728.085	75
729.262	75
730.44	72
731.617	60
732.795	71
733.972	68
735.148	73
736.324	73
737.501	60
738.677	68
739.852	77
741.028	68
742.203	71
743.379	70
744.554	64
745.729	66
746.903	77
748.078	76
749.252	70
750.426	65
751.599	69
752.772	70
753.946	67
755.119	72
756.293	73
757.466	74
758.639	70
759.811	67
760.984	66
762.155	71
763.327	67
764.499	74
765.67	72
766.842	69
768.013	71
769.183	72
770.354	76
771.525	63
772.696	72
773.865	72
775.035	71
776.205	73
777.375	69
778.544	73
779.713	67
780.882	68
782.052	75
783.219	63
784.388	70
785.557	68
786.724	73
787.892	69
789.06	70
790.227	68
791.395	66
792.562	68
793.728	76
794.895	73
796.061	68
797.228	79
798.395	72
799.56	71
800.726	66
801.891	66
803.057	71
804.221	66
805.387	66
806.551	65
807.716	68
808.879	73
810.044	74
811.208	68
812.372	73
813.535	75
814.699	69
815.862	72
817.025	71
818.188	73
819.351	72
820.513	71
821.675	70
822.837	69
823.999	71
825.161	64
826.322	70
827.483	72
828.645	69
829.805	70
830.966	60
832.127	69
833.287	66
834.447	69
835.607	67
836.767	65
837.926	60
839.085	73
840.245	66
841.404	71
842.562	73
843.72	62
844.88	66
846.038	61
847.195	67
848.353	68
849.512	66
850.669	70
851.826	72
852.983	60
854.139	68
855.296	66
856.453	70
857.609	72
858.765	66
859.921	66
861.077	67
862.232	64
863.387	69
864.542	72
865.697	72
866.852	63
868.008	69
869.162	67
870.316	70
871.47	65
872.624	71
873.778	64
874.931	68
876.084	73
877.237	75
878.39	72
879.543	63
880.695	73
881.846	69
882.999	68
884.151	70
885.302	61
886.454	74
887.606	63
888.757	71
889.908	75
891.059	56
892.21	67
893.359	66
894.509	68
895.659	68
896.81	70
897.959	65
899.109	58
900.257	70
901.407	66
902.556	70
903.705	66
904.854	66
906.001	62
907.149	70
908.298	70
909.446	62
910.592	62
911.74	68
912.888	66
914.034	69
915.181	70
916.328	64
917.473	64
918.62	61
919.766	64
920.911	62
922.058	69
923.204	69
924.348	68
925.494	60
926.638	68
927.783	66
928.928	65
930.072	69
931.216	60
932.36	63
933.504	61
934.647	68
935.791	64
936.933	67
938.077	64
939.219	71
940.363	62
941.504	67
942.647	69
943.789	75
944.932	64
946.073	66
947.215	61
948.356	64
949.498	66
950.638	71
951.778	62
952.92	66
954.06	66
955.199	70
956.34	63
957.479	72
958.62	67
959.759	70
960.898	58
962.038	62
963.176	64
964.315	64
965.453	63
966.592	69
967.73	63
968.867	69
970.006	70
971.144	69
972.281	68
973.418	69
974.554	69
975.692	64
976.829	68
977.965	68
979.101	58
980.237	68
981.374	68
982.509	62
983.645	59
984.78	71
985.915	68
987.05	71
988.184	67
989.319	60
990.453	62
991.589	59
992.722	61
993.856	67
994.99	74
996.123	71
997.257	67
998.39	67
999.523	66
1000.66	62
1001.79	61
1002.92	67
1004.05	63
1005.18	64
1006.32	67
1007.45	62
1008.58	67
1009.71	56
1010.84	60
1011.97	63
1013.1	71
1014.23	62
1015.36	68
1016.49	68
1017.62	68
1018.75	62
1019.88	66
1021.01	58
1022.14	64
1023.27	58
1024.4	68
1025.53	62
1026.66	61
1027.79	73
1028.91	64
1030.04	57
1031.17	69
1032.3	66
1033.42	69
1034.55	64
1035.68	68
1036.81	72
1037.93	64
1039.06	62
1040.18	68
1041.31	65
1042.44	61
1043.56	63
1044.69	62
1045.81	63
1046.94	65
1048.06	62
1049.19	66
1050.31	66
1051.44	64
1052.56	64
1053.69	65
1054.81	67
1055.93	64
1057.06	64
1058.18	66
1059.3	65
1060.43	68
1061.55	66
1062.67	63
1063.79	67
1064.92	63
1066.04	59
1067.16	62
1068.28	65
1069.4	72
1070.52	65
1071.65	66
1072.77	65
1073.89	60
1075.01	74
1076.13	64
1077.25	58
1078.37	70
1079.49	66
1080.61	65
1081.73	59
1082.85	72
1083.97	65
1085.09	62
1086.2	60
1087.32	66
1088.44	55
1089.56	68
1090.68	62
1091.8	59
1092.91	63
1094.03	65
1095.15	65
1096.26	64
1097.38	60
1098.5	58
1099.61	61
1100.73	67
1101.85	62
1102.96	62
1104.08	65
1105.19	66
1106.31	67
1107.43	62
1108.54	59
1109.66	62
1110.77	59
1111.88	61
1113	62
1114.11	63
1115.23	66
1116.34	66
1117.46	60
1118.57	67
1119.68	64
1120.8	59
1121.91	61
1123.02	62
1124.13	66
1125.25	60
1126.36	59
1127.47	58
1128.58	59
1129.69	64
1130.8	62
1131.92	55
1133.03	64
1134.14	62
1135.25	57
1136.36	65
1137.47	64
1138.58	57
1139.69	60
1140.8	62
1141.91	62
1143.02	54
1144.13	60
1145.24	60
1146.35	66
1147.46	59
1148.56	59
1149.67	62
1150.78	66
1151.89	64
1153	61
1154.1	64
1155.21	64
1156.32	61
1157.43	59
1158.53	61
1159.64	59
1160.75	58
1161.85	58
1162.96	57
1164.07	70
1165.17	62
1166.28	63
1167.38	66
1168.49	58
1169.59	64
1170.7	64
1171.8	65
1172.91	54
1174.01	62
1175.12	64
1176.22	60
1177.32	62
1178.43	62
1179.53	65
1180.64	60
1181.74	66
1182.84	61
1183.94	59
1185.05	58
1186.15	66
1187.25	72
1188.35	56
1189.46	58
1190.56	59
1191.66	61
1192.76	61
1193.86	57
1194.96	60
1196.06	58.9657
1197.16	57.8703
1198.26	58.8156
1199.37	61.7598
1200.47	56.936
1201.57	51.0932
1202.67	62.1371
1203.77	53.8688
1204.86	58.6667
1205.96	55.6614
1207.06	62.7737
1208.16	57.0826
1209.26	48.3193
1210.36	61.3365
1211.46	62.2276
1212.56	63.1029
1213.65	58.298
1214.75	58.0376
1215.85	58.8062
1216.95	62.1641
1218.04	59.3385
1219.14	53.7221
1220.24	63.0453
1221.33	56.3599
1222.43	54.4981
1223.53	53.9229
1224.62	58.7685
1225.72	56.8206
1226.82	58.7729
1227.91	51.7185
1229.01	59.8532
1230.1	58.309
1231.2	50.3536
1232.29	52.5694
1233.39	55.0339
1234.48	55.2157
1235.58	53.3528
1236.67	57.5233
1237.77	56.7157
1238.86	57.9522
1239.95	53.671
1241.05	59.8482
1242.14	54.7108
1243.23	56.8517
1244.33	54.9173
1245.42	55.0931
1246.51	55.0769
1247.61	53.1602
1248.7	55.4551
1249.79	51.0294
1250.88	55.5203
1251.97	57.9893
1253.07	56.966
1254.16	56.8529
1255.25	59.8575
1256.34	57.3756
1257.43	60.4608
1258.52	56.0392
1259.61	56.0435
1260.7	51.9155
1261.79	51.3412
1262.88	56.0824
1263.97	52.4938
1265.06	57.3177
1266.15	56.9412
1267.24	58.5928
1268.33	58.6144
1269.42	55.715
1270.51	57.0124
1271.6	54.3476
1272.68	55.3868
1273.77	53.3072
1274.86	52.5017
1275.95	48.3617
1277.04	57.9695
1278.12	55.2528
1279.21	50.25
1280.3	50.6814
1281.39	51.4517
1282.47	51.1743
1283.56	51.7118
1284.65	51.3471
1285.73	51.7293
1286.82	49.2252
1287.91	51.4997
1288.99	51
1290.08	52.5417
1291.16	51.3582
1292.25	55.3235
1293.33	53.5274
1294.42	46.8873
1295.5	48.3494
1296.59	49.86
1297.67	52.6116
1298.76	46.8526
1299.84	59.2599
1300.92	51.8061
1302.01	50.0674
1303.09	47.3282
1304.17	53.2118
1305.26	44.59
1306.34	48.1547
1307.34	50
1308.43	49
1309.52	46
1310.61	52
1311.7	52
1312.78	54
1313.87	48
1314.96	55
1316.04	48
1317.13	42
1318.22	44
1319.3	48
1320.39	49
1321.48	56
1322.56	48
1323.65	48
1324.73	47
1325.82	44
1326.9	42
1327.99	52
1329.07	48
1330.16	47
1331.24	49
1332.33	51
1333.41	50
1334.5	46
1335.58	47
1336.66	52
1337.75	52
1338.83	44
1339.91	51
1341	49
1342.08	51
1343.16	52
1344.24	50
1345.33	49
1346.41	53
1347.49	48
1348.57	52
1349.65	54
1350.74	54
1351.82	49
1352.9	47
1353.98	54
1355.06	48
1356.14	52
1357.22	50
1358.3	44
1359.38	51
1360.46	49
1361.54	46
1362.62	49
1363.7	47
1364.78	48
1365.86	46
1366.94	50
1368.02	49
1369.09	53
1370.17	55
1371.25	50
1372.33	50
1373.41	49
1374.48	53
1375.56	48
1376.64	49
1377.72	48
1378.79	45
1379.87	50
1380.95	38
1382.02	44
1383.1	55
1384.17	50
1385.25	49
1386.33	52
1387.4	47
1388.48	52
1389.55	50
1390.63	46
1391.7	52
1392.78	44
1393.85	52
1394.93	58
1396	47
1397.07	51
1398.15	51
1399.22	53
1400.3	55
1401.37	50
1402.44	50
1403.52	59
1404.59	53
1405.66	54
1406.73	44
1407.81	43
1408.88	61
1409.95	55
1411.02	56
1412.09	52
1413.17	53
1414.24	52
1415.31	48
1416.38	56
1417.45	52
1418.52	50
1419.59	52
1420.66	51
1421.73	50
1422.8	48
1423.87	51
1424.94	50
1426.01	53
1427.08	52
1428.15	51
1429.22	50
1430.29	52
1431.35	49
1432.42	51
1433.49	44
1434.56	50
1435.63	45
1436.69	48
1437.76	49
1438.83	44
1439.9	44
1440.96	47
1442.03	50
1443.1	52
1444.17	44
1445.23	54
1446.3	56
1447.36	44
1448.43	48
1449.49	44
1450.56	47
1451.63	48
1452.69	54
1453.76	42
1454.82	54
1455.89	45
1456.95	50
1458.01	48
1459.08	48
1460.14	46
1461.21	50
1462.27	48
1463.34	50
1464.4	48
1465.46	47
1466.52	46
1467.59	45
1468.65	50
1469.71	49
1470.77	40
1471.84	52
1472.9	50
1473.96	40
1475.02	51
1476.08	48
1477.15	49
1478.21	44
1479.27	48
1480.33	52
1481.39	44
1482.45	50
1483.51	47
1484.57	48
1485.63	51
1486.69	45
1487.75	52
1488.81	46
1489.87	46
1490.93	46
1491.99	47
1493.05	47
1494.1	48
1495.16	54
1496.22	53
1497.28	50
1498.34	51
1499.4	45
1500.45	46
1501.51	44
1502.57	48
1503.63	50
1504.68	52
1505.74	50
1506.8	45
1507.85	48
1508.91	43
1509.97	45
1511.02	52
1512.08	34
1513.13	43
1514.19	46
1515.24	53
1516.3	50
1517.35	48
1518.41	48
1519.46	50
1520.52	43
1521.57	46
1522.63	45
1523.68	52
1524.73	46
1525.79	49
1526.84	44
1527.9	44
1528.95	50
1530	45
1531.05	51
1532.11	48
1533.16	50
1534.21	45
1535.26	46
1536.32	48
1537.37	42
1538.42	51
1539.47	46
1540.52	48
1541.57	43
1542.63	50
1543.68	48
1544.73	44
1545.78	42
1546.83	46
1547.88	48
1548.93	46
1549.98	50
1551.03	45
1552.08	47
1553.13	38
1554.18	50
1555.23	44
1556.27	42
1557.32	42
1558.37	47
1559.42	49
1560.47	50
1561.52	48
1562.56	44
1563.61	48
1564.66	51
1565.71	40
1566.75	42
1567.8	47
1568.85	49
1569.9	48
1570.94	50
1571.99	42
1573.03	51
1574.08	44
1575.13	51
1576.17	38
1577.22	49
1578.26	47
1579.31	46
1580.35	50
1581.4	41
1582.44	42
1583.49	48
1584.53	44
1585.58	45
1586.62	40
1587.66	45
1588.71	47
1589.75	49
1590.8	46
1591.84	48
1592.88	45
1593.92	52
1594.97	44
1596.01	41
1597.05	42
1598.1	42
1599.14	48
1600.18	45
1601.22	47
1602.26	40
1603.3	52
1604.35	45
1605.39	42
1606.43	43
1607.47	54
1608.51	44
1609.55	50
1610.59	42
1611.63	45
1612.67	40
1613.71	46
1614.75	50
1615.79	43
1616.83	42
1617.87	48
1618.91	43
1619.95	49
1620.99	49
1622.02	49
1623.06	46
1624.1	46
1625.14	44
1626.18	49
1627.21	45
1628.25	46
1629.29	46
1630.33	48
1631.36	42
1632.4	42
1633.44	43
1634.48	50
1635.51	44
1636.55	46
1637.58	48
1638.62	34
1639.66	46
1640.69	53
1641.73	46
1642.76	48
1643.8	48
1644.83	48
1645.87	43
1646.9	49
1647.94	49
1648.97	48
1650	47
1651.04	46
1652.07	46
1653.11	42
1654.14	50
1655.17	45
1656.21	52
1657.24	43
1658.27	47
1659.31	46
1660.34	45
1661.37	41
1662.4	40
1663.43	43
1664.47	44
1665.5	49
1666.53	38
1667.56	55
1668.59	48
1669.62	46
1670.66	47
1671.69	44
1672.72	40
1673.75	51
1674.78	42
1675.81	49
1676.84	48
1677.87	44
1678.9	48
1679.93	50
1680.96	46
1681.98	44
1683.01	38
1684.04	42
1685.07	45
1686.1	42
1687.13	39
1688.16	49
1689.18	43
1690.21	45
1691.24	43
1692.27	46
1693.3	44
1694.32	46
1695.35	43
1696.38	38
1697.4	42
1698.43	42
1699.46	47
1700.48	46
1701.51	44
1702.54	45
1703.56	43
1704.59	40
1705.61	43
1706.64	47
1707.66	44
1708.69	46
1709.71	50
1710.74	44
1711.76	42
1712.79	47
1713.81	40
1714.83	45
1715.86	38
1716.88	48
1717.91	44
1718.93	44
1719.95	48
1720.98	44
1722	48
1723.02	38
1724.04	41
1725.07	47
1726.09	44
1727.11	46
1728.13	44
1729.15	40
1730.18	42
1731.2	44
1732.22	38
1733.24	43
1734.26	47
1735.28	42
1736.3	44
1737.32	40
1738.34	47
1739.36	44
1740.38	44
1741.4	43
1742.42	38
1743.44	46
1744.46	48
1745.48	41
1746.5	45
1747.52	44
1748.54	44
1749.56	48
1750.58	50
1751.6	42
1752.61	43
1753.63	37
1754.65	44
1755.67	38
1756.68	43
1757.7	46
1758.72	48
1759.74	45
1760.75	43
1761.77	42
1762.79	45
1763.8	44
1764.82	45
1765.83	44
1766.85	42
1767.87	45
1768.88	42
1769.9	43
1770.91	50
1771.93	38
1772.94	44
1773.96	41
1774.97	50
1775.99	38
1777	41
1778.02	38
1779.03	42
1780.04	43
1781.06	42
1782.07	40
1783.09	38
1784.1	43
1785.11	40
1786.13	42
1787.14	44
1788.15	48
1789.16	44
1790.18	38
1791.19	44
1792.2	47
1793.21	46
1794.22	45
1795.23	43
1796.25	43
1797.26	43
1798.27	34
1799.28	40
1800.29	48
1801.3	44
1802.31	34
1803.32	46
1804.33	40
1805.34	45
1806.35	42
1807.36	46
1808.37	48
1809.38	38
1810.39	43
1811.4	39
1812.41	40
1813.42	46
1814.42	41
1815.43	43
1816.44	41
1817.45	42
1818.46	42
1819.47	43
1820.47	41
1821.48	47
1822.49	37
1823.49	44
1824.5	40
1825.51	43
1826.52	39
1827.52	43
1828.53	41
1829.53	40
1830.54	46
1831.55	43
1832.55	40
1833.56	40
1834.56	42
1835.57	32
1836.57	48
1837.58	42
1838.58	42
1839.59	45
1840.59	44
1841.6	48
1842.6	38
1843.61	38
1844.61	44
1845.61	42
1846.62	40
1847.62	42
1848.62	38
1849.63	32
1850.63	40
1851.63	41
1852.64	40
1853.64	41
1854.64	42
1855.64	36
1856.64	42
1857.65	45
1858.65	44
1859.65	44
1860.65	41
1861.65	47
1862.65	41
1863.65	49
1864.66	42
1865.66	40
1866.66	46
1867.66	41
1868.66	41
1869.66	36
1870.66	43
1871.66	38
1872.66	43
1873.66	40
1874.66	40
1875.65	42
1876.65	40
1877.65	41
1878.65	45
1879.65	40
1880.65	34
1881.65	43
1882.64	45
1883.64	44
1884.64	37
1885.64	45
1886.63	42
1887.63	44
1888.63	42
1889.63	40
1890.62	44
1891.62	42
1892.62	35
1893.61	40
1894.61	38
1895.6	40
1896.6	42
1897.6	38
1898.59	38
1899.59	41
1900.58	41
1901.58	42
1902.57	40
1903.57	40
1904.56	42
1905.56	42
1906.55	46
1907.54	40
1908.54	42
1909.53	43
1910.53	34
1911.52	30
1912.51	37
1913.51	42
1914.5	39
1915.49	38
1916.49	43
1917.48	46
1918.47	38
1919.46	41
1920.46	36
1921.45	43
1922.44	35
1923.43	44
1924.42	37
1925.41	36
1926.41	38
1927.4	40
1928.39	42
1929.38	34
1930.37	37
1931.36	41
1932.35	47
1933.34	40
1934.33	40
1935.32	40
1936.31	39
1937.3	38
1938.29	40
1939.28	39
1940.27	32
1941.26	41
1942.24	40
1943.23	40
1944.22	36
1945.21	40
1946.2	38
1947.19	37
1948.17	36
1949.16	40
1950.15	40.5
1951.14	38
1952.12	41
1953.11	44
1954.1	40
1955.09	40
1956.07	38
1957.06	39
1958.05	43
1959.03	38
1960.02	44
1961	44
1961.99	43
1962.98	38
1963.96	45
1964.95	34
1965.93	42
1966.92	42
1967.9	38
1968.89	38
1969.87	38
1970.85	43
1971.84	36
1972.82	31
1973.81	42
1974.79	43
1975.78	37
1976.76	44
1977.74	39
1978.73	38
1979.71	43
1980.69	42
1981.67	40
1982.66	45
1983.64	32
1984.62	42
1985.6	39
1986.59	42
1987.57	40
1988.55	38
1989.53	42
1990.51	44
1991.49	38
1992.47	36
1993.45	39
1994.44	45
1995.42	43
1996.4	39
1997.38	40
1998.36	37
1999.34	41
2000.32	38
2001.3	40
2002.28	38
2003.26	39
2004.24	42
2005.22	47
2006.19	36
2007.17	38
2008.15	36
2009.13	30
2010.11	40
2011.09	38
2012.06	38
2013.04	38
2014.02	36
2015	34
2015.98	40
2016.95	36
2017.93	36
2018.91	38
2019.88	32
2020.86	36
2021.84	33
2022.81	40
2023.79	37
2024.77	39
2025.74	40
2026.72	39
2027.69	28
2028.67	36
2029.65	37
2030.62	40
2031.6	40
2032.57	38
2033.55	30
2034.52	40
2035.5	35
2036.47	40
2037.44	43
2038.42	40
2039.39	38
2040.36	40
2041.34	36
2042.31	32
2043.29	38
2044.26	42
2045.23	40
2046.2	38
2047.18	39
2048.15	31
2049.12	38
2050.09	40
2051.07	43
2052.04	34
2053.01	32
2053.98	38
2054.95	41
2055.93	41
2056.9	37
2057.87	35
2058.84	36
2059.81	34
2060.78	43
2061.75	36
2062.72	32
2063.69	32
2064.66	38
2065.63	34
2066.6	38
2067.57	40
2068.54	40
2069.51	34
2070.48	38
2071.45	33
2072.42	37
2073.38	38
2074.35	38
2075.32	38
2076.29	43
2077.26	36
2078.23	36
2079.19	34
2080.16	34
2081.13	37
2082.1	42
2083.06	42
2084.03	41
2085	33
2085.96	30
2086.93	40
2087.9	36
2088.86	37
2089.83	34
2090.8	34
2091.76	38
2092.73	36
2093.69	38
2094.66	37
2095.62	40
2096.59	41
2097.55	28
2098.52	34
2099.48	38
2100.45	38
2101.41	38
2102.38	40
2103.34	32
2104.31	35
2105.27	32
2106.23	38
2107.2	35
2108.16	36
2109.12	38
2110.09	36
2111.05	36
2112.01	40
2112.98	36
2113.94	38
2114.9	31
2115.86	32
2116.82	38
2117.79	38
2118.75	38
2119.71	28
2120.67	36
2121.63	30
2122.59	39
2123.55	40
2124.52	37
2125.48	39
2126.44	34
2127.4	36
2128.36	30
2129.32	36
2130.28	38
2131.24	33
2132.2	40
2133.16	32
2134.12	38
2135.08	34
2136.04	34
2136.99	37
2137.95	32
2138.91	30
2139.87	38
2140.83	40
2141.79	39
2142.75	35
2143.7	32
2144.66	36
2145.62	32.004
2146.58	33.9612
2147.53	35.9859
2148.49	39.0119
2149.45	38.6878
2150.41	32.9036
2151.36	28.3824
2152.32	40.4809
2153.27	32.0694
2154.23	35.4654
2155.19	35.9066
2156.14	35.2161
2157.1	37.6009
2158.06	36.7009
2159.01	35.7194
2159.97	36.6961
2160.92	30.8014
2161.88	36.144
2162.83	33.824
2163.79	35.5735
2164.74	31.4056
2165.7	34.1988
2166.65	41.6702
2167.61	33.2443
2168.56	34.9369
2169.51	32.3092
2170.47	35.1938
2171.42	36.2263
2172.38	37.9874
2173.33	32.2474
2174.28	34.9069
2175.24	32.9862
2176.19	33.8341
2177.14	31.4349
2178.09	34.2479
2179.05	34.9337
2180	33.4213
2180.95	36.4676
2181.9	31.9771
2182.86	33.6105
2183.81	33.0092
2184.76	32.9928
2185.71	34.7983
2186.66	34.5221
2187.61	32.4738
2188.57	33.1572
2189.52	24.2477
2190.47	32.5423
2191.42	34.9792
2192.37	32.6617
2193.32	33.2533
2194.27	32.7407
2195.22	35.3406
2196.17	36.599
2197.12	34.4843
2198.07	34.9382
2199.02	35.6532
2199.97	32.6877
2200.92	37.2256
2201.87	36.5139
2202.82	35.1824
2203.76	35.1765
2204.71	33.3444
2205.66	33.7423
2206.61	34.1093
2207.56	33.0936
2208.51	30.8646
2209.45	33.6947
2210.4	31.9626
2211.35	32.1332
2212.3	30.3342
2213.24	29.0504
2214.19	33.7353
2215.14	34.7203
2216.09	35.6046
2217.03	34.7307
2217.98	31.5547
2218.93	32.5966
2219.87	35.3835
2220.82	33.735
2221.77	32.2105
2222.71	32.9901
2223.66	36.244
2224.6	33.6137
2225.55	35.451
2226.49	36.6066
2227.44	34.8342
2228.38	34.0327
2229.33	32.5294
2230.27	31.3632
2231.22	32.4851
2232.16	30.7079
2233.11	28.652
2234.05	28.5833
2235	33.2229
2235.94	35.6176
2236.88	34.7457
2237.83	31.3971
2238.77	33.0091
2239.71	33.8992
2240.66	33.0147
2241.6	31.2802
2242	30
2242.95	37
2243.9	28
2244.84	35
2245.79	35
2246.74	35
2247.69	37
2248.63	35
2249.58	35
2250.53	36
2251.47	34
2252.42	33
2253.37	36
2254.31	32
2255.26	36
2256.2	32
2257.15	32
2258.1	33
2259.04	30
2259.99	30
2260.93	33
2261.88	36
2262.82	31
2263.77	30
2264.71	31
2265.65	30
2266.6	37
2267.54	29
2268.49	38
2269.43	35
2270.38	35
2271.32	28
2272.26	37
2273.21	30
2274.15	39
2275.09	29
2276.04	38
2276.98	30
2277.92	33
2278.86	32
2279.81	30
2280.75	30
2281.69	26
2282.63	28
2283.57	36
2284.52	32
2285.46	33
2286.4	35
2287.34	37
2288.28	40
2289.22	39
2290.16	41
2291.1	30
2292.04	26
2292.98	30
2293.93	37
2294.86	32
2295.8	34
2296.74	28
2297.69	28
2298.62	25
2299.56	32
2300.5	30
2301.44	37
2302.38	32
2303.32	36
2304.26	33
2305.2	32
2306.14	29
2307.07	32
2308.01	36
2308.95	32
2309.89	37
2310.83	34
2311.76	30
2312.7	33
2313.64	32
2314.58	34
2315.51	32
2316.45	33
2317.39	28
2318.32	37
2319.26	28
2320.2	30
2321.13	34
2322.07	35
2323	33
2323.94	26
2324.88	39
2325.81	32
2326.75	28
2327.68	29
2328.62	27
2329.55	34
2330.49	28
2331.42	35
2332.36	34
2333.29	34
2334.22	34
2335.16	35
2336.09	35
2337.03	34
2337.96	28
2338.89	29
2339.83	30
2340.76	28
2341.69	34
2342.63	28
2343.56	37
2344.49	30
2345.43	32
2346.36	28
2347.29	35
2348.22	33
2349.15	36
2350.09	30
2351.02	35
2351.95	35
2352.88	36
2353.81	31
2354.74	30
2355.67	33
2356.61	32
2357.54	32
2358.47	34
2359.4	36
2360.33	34
2361.26	36
2362.19	36
2363.12	35
2364.05	34
2364.98	36
2365.91	34
2366.84	30
2367.77	35
2368.7	36
2369.62	33
2370.55	31
2371.48	32
2372.41	36
2373.34	32
2374.27	34
2375.2	36
2376.12	35
2377.05	35
2377.98	34
2378.91	31
2379.83	35
2380.76	26
2381.69	39
2382.62	30
2383.54	37
2384.47	33
2385.4	33
2386.32	32
2387.25	34
2388.18	36
2389.1	34
2390.03	30
2390.95	35
2391.88	35
2392.81	33
2393.73	36
2394.66	36
2395.58	34
2396.51	39
2397.43	36
2398.36	35
2399.28	35
2400.2	35
2401.13	34
2402.05	33
2402.98	31
2403.9	32
2404.83	34
2405.75	36
2406.67	35
2407.6	34
2408.52	33
2409.44	37
2410.37	28
2411.29	33
2412.21	30
2413.13	35
2414.06	30
2414.98	36
2415.9	35
2416.82	30
2417.74	38
2418.67	26
2419.59	32
2420.51	35
2421.43	26
2422.35	36
2423.27	32
2424.19	28
2425.11	35
2426.03	27
2426.96	33
2427.88	32
2428.8	35
2429.72	35
2430.64	32
2431.56	34
2432.48	34
2433.39	31
2434.31	34
2435.23	34
2436.15	33
2437.07	28
2437.99	32
2438.91	34
2439.83	34
2440.75	34
2441.67	36
2442.58	32
2443.5	32
2444.42	36
2445.34	34
2446.26	36
2447.17	29
2448.09	36
2449.01	33
2449.92	36
2450.84	34
2451.76	34
2452.68	34
2453.59	30
2454.51	32
2455.42	30
2456.34	36
2457.26	35
2458.17	34
2459.09	32
2460	28
2460.92	33
2461.83	40
2462.75	32
2463.66	34
2464.58	30
2465.49	36
2466.41	29
2467.32	30
2468.24	34
2469.15	34
2470.07	32
2470.98	34
2471.89	30
2472.81	32
2473.72	32
2474.64	39
2475.55	34
2476.46	32
2477.37	34
2478.29	35
2479.2	30
2480.11	34
2481.03	34
2481.94	32
2482.85	38
2483.76	31
2484.67	34
2485.59	34
2486.5	32
2487.41	34
2488.32	29
2489.23	30
2490.14	36
2491.05	32
2491.97	24
2492.88	32
2493.79	35
2494.7	34
2495.61	36
2496.52	34
2497.43	39
2498.34	28
2499.25	24
2500.16	32
2501.07	35
2501.98	33
2502.89	35
2503.79	36
2504.7	34
2505.61	32
2506.52	32
2507.43	37
2508.34	32
2509.25	35
2510.16	32
2511.06	33
2511.97	38
2512.88	34
2513.79	33
2514.69	37
2515.6	36
2516.51	31
2517.42	30
2518.32	28
2519.23	34
2520.14	30
2521.04	30
2521.95	28
2522.86	30
2523.76	27
2524.67	30
2525.57	36
2526.48	34
2527.39	29
2528.29	31
2529.2	34
2530.1	32
2531.01	29
2531.91	36
2532.82	32
2533.72	28
2534.63	36
2535.53	30
2536.44	36
2537.34	34
2538.24	28
2539.15	36
2540.05	34
2540.96	31
2541.86	30
2542.76	35
2543.67	32
2544.57	33
2545.47	33
2546.37	35
2547.28	29
2548.18	34
2549.08	34
2549.99	33
2550.89	34
2551.79	33
2552.69	34
2553.59	34
2554.49	34
2555.4	26
2556.3	34
2557.2	33
2558.1	28
2559	33
2559.9	32
2560.8	31
2561.7	33
2562.6	33
2563.5	36
2564.4	34
2565.3	36
2566.2	34
2567.1	30
2568	32
2568.9	34
2569.8	32
2570.7	30
2571.6	33
2572.5	30
2573.4	31
2574.3	33
2575.2	29
2576.1	34
2576.99	31
2577.89	36
2578.79	32
2579.69	38
2580.59	36
2581.48	34
2582.38	28
2583.28	34
2584.18	37
2585.07	26
2585.97	30
2586.87	35
2587.76	30
2588.66	34
2589.56	34
2590.45	30
2591.35	32
2592.25	32
2593.14	26
2594.04	34
2594.93	30
2595.83	34
2596.73	35
2597.62	31
2598.52	30
2599.41	32
2600.31	28
2601.2	34
2602.1	36
2602.99	35
2603.88	35
2604.78	32
2605.67	34
2606.57	37
2607.46	28
2608.35	37
2609.25	34
2610.14	33
2611.03	30
2611.93	28
2612.82	36
2613.71	37
2614.61	31
2615.5	26
2616.39	37
2617.29	33
2618.18	30
2619.07	32
2619.96	38
2620.85	28
2621.75	30
2622.64	37
2623.53	29
2624.42	32
2625.31	30
2626.2	35
2627.09	35
2627.98	35
2628.88	32
2629.77	32
2630.66	30
2631.55	33
2632.44	32
2633.33	34
2634.22	34
2635.11	30
2636	28
2636.89	32
2637.78	32
2638.66	30
2639.55	34
2640.44	34
2641.33	31
2642.22	34
2643.11	32
2644	34
2644.89	37
2645.78	35
2646.66	38
2647.55	26
2648.44	24
2649.33	26
2650.21	36
2651.1	32
2651.99	30
2652.88	30
2653.76	29
2654.65	30
2655.54	31
2656.42	30
2657.31	35
2658.2	38
2659.08	32
2659.97	32
2660.86	30
2661.74	26
2662.63	28
2663.51	31
2664.4	31
2665.29	31
2666.17	31
2667.06	26
2667.94	35
2668.83	32
2669.71	35
2670.6	26
2671.48	32
2672.36	32
2673.25	29
2674.13	35
2675.02	32
2675.9	32
2676.78	28
2677.67	22
2678.55	34
2679.43	32
2680.32	39
2681.2	30
2682.08	35
2682.97	33
2683.85	35
2684.73	26
2685.61	30
2686.5	28
2687.38	34
2688.26	33
2689.14	30
2690.03	30
2690.91	33
2691.79	26
2692.67	35
2693.55	33
2694.43	27
2695.31	30
2696.19	27
2697.08	27
2697.96	29
2698.84	28
2699.72	28
2700.6	34
2701.48	34
2702.36	32
2703.24	32
2704.12	31
2705	32
2705.88	32
2706.76	34
2707.64	30
2708.51	29
2709.39	28
2710.27	32
2711.15	31
2712.03	30
2712.91	32
2713.79	34
2714.67	32
2715.54	27
2716.42	33
2717.3	32
2718.18	30
2719.05	28
2719.93	33
2720.81	28
2721.69	34
2722.56	32
2723.44	34
2724.32	30
2725.19	31
2726.07	30
2726.95	28
2727.82	34
2728.7	29
2729.58	30
2730.45	39
2731.33	34
2732.2	32
2733.08	27
2733.95	32
2734.83	30
2735.7	28
2736.58	26
2737.45	26
2738.33	28
2739.2	34
2740.08	34
2740.95	36
2741.83	32
2742.7	30
2743.58	36
2744.45	28
2745.32	34
2746.2	28
2747.07	28
2747.94	32
2748.82	34
2749.69	32
2750.56	30
2751.44	32
2752.31	29
2753.18	30
2754.05	34
2754.93	30
2755.8	31
2756.67	30
2757.54	31
2758.42	37
2759.29	30
2760.16	28
2761.03	34
2761.9	30
2762.77	31
2763.64	26
2764.51	31
2765.38	30
2766.26	26
2767.13	28
2768	30
2768.87	29
2769.74	34
2770.61	31
2771.48	32
2772.35	29
2773.22	30
2774.09	30
2774.96	32
2775.83	37
2776.7	30
2777.56	31
2778.43	28
2779.3	24
2780.17	37
2781.04	32
2781.91	30
2782.78	38
2783.64	35
2784.51	30
2785.38	30
2786.25	30
2787.12	32
2787.98	29
2788.85	34
2789.72	38
2790.59	34
2791.45	34
2792.32	28
2793.19	35
2794.05	26
2794.92	35
2795.79	25
2796.65	26
2797.52	28
2798.38	31
2799.25	31
2800.12	28
2800.98	37
2801.85	26
2802.71	30
2803.58	32
2804.44	34
2805.31	30
2806.17	32
2807.04	35
2807.9	34
2808.77	28
2809.63	31
2810.5	26
2811.36	34
2812.22	32
2813.09	32
2813.95	30
2814.82	30
2815.68	35
2816.54	25
2817.41	38
2818.27	28
2819.13	26
2820	28
2820.86	29
2821.72	34
2822.58	32
2823.45	36
2824.31	31
2825.17	27
2826.03	34
2826.9	32
2827.76	29
2828.62	30
2829.48	32
2830.34	32
2831.2	25
2832.06	33
2832.92	30
2833.79	37
2834.65	26
2835.51	31
2836.37	30
2837.23	36
2838.09	31
2838.95	29
2839.81	30
2840.67	32
2841.53	31
2842.39	26
2843.25	33
2844.11	36
2844.97	34
2845.83	32
2846.68	30
2847.54	33
2848.4	26
2849.26	24
2850.12	26
2850.98	28
2851.84	32
2852.69	36
2853.55	34
2854.41	34
2855.27	34
2856.13	29
2856.98	32
2857.84	32
2858.7	30
2859.56	30
2860.41	34
2861.27	26
2862.13	31
2862.98	34
2863.84	32
2864.7	29
2865.55	24
2866.41	35
2867.27	34
2868.12	32
2868.98	34
2869.83	36
2870.69	32
2871.54	33
2872.4	32
2873.25	33
2874.11	32
2874.96	32
2875.82	32
2876.68	39
2877.53	28
2878.38	35
2879.24	38
2880.09	38
2880.95	34
2881.8	31
2882.65	36
2883.51	39
2884.36	42
2885.22	40
2886.07	32
2886.92	40
2887.77	39
2888.63	41
2889.48	39
2890.33	41
2891.19	46
2892.04	46
2892.89	42
2893.74	47
2894.6	47
2895.45	44
2896.3	48
2897.15	48
2898	47
2898.85	59
2899.71	51
2900.56	60
2901.41	58
2902.26	56
2903.11	58
2903.96	64
2904.81	69
2905.66	66
2906.51	74
2907.36	67
2908.21	66
2909.06	66
2909.91	58
2910.76	62
2911.61	58
2912.46	53
2913.31	57
2914.16	52
2915.01	49
2915.86	48
2916.71	38
2917.56	44
2918.41	41
2919.26	44
2920.1	41
2920.95	42
2921.8	41
2922.65	40
2923.5	34
2924.34	38
2925.19	31
2926.04	32
2926.89	26
2927.74	35
2928.58	32
2929.43	34
2930.28	33
2931.12	32
2931.97	30
2932.82	28
2933.66	35
2934.51	35
2935.36	36
2936.2	35
2937.05	30
2937.89	39
2938.74	33
2939.59	36
2940.43	31
2941.28	32
2942.12	35
2942.97	24
2943.81	30
2944.66	31
2945.5	34
2946.35	31
2947.19	34
2948.04	35
2948.88	33
2949.72	34
2950.57	32
2951.41	34
2952.26	33
2953.1	34
2953.94	40
2954.79	36
2955.63	40
2956.47	40
2957.32	35
2958.16	38
2959	41
2959.85	38
2960.69	46
2961.53	45
2962.37	47
2963.22	46
2964.06	47
2964.9	49
2965.74	51
2966.58	45
2967.42	42
2968.27	47
2969.11	46
2969.95	45
2970.79	45
2971.63	37
2972.47	44
2973.31	41
2974.15	34
2974.99	38
2975.83	36
2976.68	42
2977.52	36
2978.36	38
2979.2	38
2980.04	41
2980.88	32
2981.71	38
2982.55	33
2983.39	37
2984.23	26
2985.07	36
2985.91	35
2986.75	33
2987.59	35
2988.43	36
2989.27	32
2990.1	31
2990.94	28
2991.78	30
2992.62	32
2993.46	32
2994.3	28
2995.13	30
2995.97	28
2996.81	30
2997.64	32
2998.48	36
2999.32	30
