#Acq. time (s)=	3
#Accumulations=	3
#Range (cm-¹)=	100...3000
#Windows=	3
#Autofocus=	Off
#AutoExposure=	Off
#Spike filter=	Multiple accum.
#Delay time (s)=	0
#Binning=	1
#Readout mode=	Signal
#DeNoise=	Off
#ICS correction=	Off
#Dark correction=	Off
#Inst. Process=	Off
#Instrument=	LabRAM HR Evol
#Detector=	Syncerity OE
#Objective=	x100_VIS_LWD
#Grating=	600 (500nm)
#ND Filter=	25%
#Laser=	633nm_Edge
#Hole=	100.021
#Range=	Visible
#Project=	Bolus
#Sample=	A2
#Site=	stripside
#Title=	m09
#Remark=	
#Date=	03.11.2025 19:32
#Acquired=	03.11.2025 19:32:36
100.969	36
102.252	34
103.535	37
104.818	35
106.101	34
107.384	36
108.666	35
109.948	34
111.232	32
112.514	34
113.795	34
115.077	39
116.358	36
117.639	38
118.919	38
120.2	32
121.48	34
122.76	36
124.04	40
125.32	38
126.599	38
127.879	32
129.158	37
130.436	40
131.715	38
132.992	41
134.27	40
135.548	39
136.826	39
138.104	39
139.381	37
140.658	38
141.935	40
143.212	44
144.489	44
145.763	44
147.04	36
148.315	43
149.591	43
150.867	44
152.142	44
153.416	43
154.691	42
155.965	44
157.24	46
158.514	42
159.786	40
161.06	48
162.334	40
163.607	44
164.881	39
166.152	42
167.425	42
168.698	42
169.969	42
171.241	47
172.513	42
173.785	48
175.055	40
176.326	47
177.597	42
178.867	41
180.137	45
181.408	47
182.677	41
183.947	42
185.217	38
186.485	44
187.755	44
189.022	47
190.291	39
191.56	46
192.828	43
194.096	40
195.363	48
196.631	36
197.899	45
199.165	38
200.432	41
201.698	40
202.965	43
204.23	40
205.497	39
206.762	40
208.028	46
209.293	37
210.559	45
211.823	42
213.088	30
214.352	44
215.617	40
216.88	28
218.145	34
219.408	35
220.672	34
221.934	36
223.196	40
224.46	35
225.722	36
226.985	40
228.246	35
229.508	38
230.77	40
232.031	34
233.292	31
234.554	30
235.814	32
237.074	34
238.335	29
239.595	34
240.854	30
242.115	33
243.374	32
244.633	38
245.893	33
247.151	33
248.409	34
249.667	37
250.927	32
252.184	34
253.442	34
254.699	30
255.957	34
257.214	36
258.47	28
259.727	35
260.983	32
262.24	34
263.496	41
264.752	34
266.007	32
267.262	35
268.517	38
269.773	28
271.028	36
272.282	33
273.536	33
274.79	38
276.044	39
277.297	39
278.551	36
279.804	24
281.057	39
282.31	39
283.564	32
284.816	33
286.068	32
287.32	38
288.572	35
289.823	37
291.074	36
292.325	30
293.576	32
294.827	28
296.077	30
297.328	31
298.578	36
299.828	38
301.077	33
302.325	34
303.575	35
304.824	32
306.073	30
307.321	36
308.57	37
309.818	35
311.066	26
312.314	39
313.562	32
314.808	37
316.055	34
317.302	30
318.549	28
319.796	30
321.042	31
322.288	37
323.533	32
324.779	35
326.024	40
327.27	33
328.515	36
329.759	31
331.004	35
332.248	36
333.493	34
334.736	40
335.98	28
337.223	30
338.466	32
339.709	36
340.952	34
342.195	35
343.437	38
344.68	36
345.922	34
347.163	34
348.405	33
349.647	32
350.887	31
352.128	31
353.37	34
354.609	37
355.85	32
357.089	32
358.33	22
359.57	32
360.809	36
362.049	38
363.287	33
364.526	39
365.764	32
367.003	32
368.241	32
369.479	34
370.718	37
371.955	26
373.193	30
374.429	30
375.667	36
376.903	34
378.139	36
379.376	35
380.611	31
381.848	38
383.083	39
384.319	34
385.554	30
386.79	26
388.024	31
389.258	32
390.493	38
391.727	35
392.962	42
394.195	38
395.428	36
396.663	31
397.895	39
399.128	31
400.361	35
401.593	36
402.825	35
404.058	28
405.29	32
406.521	38
407.752	32
408.985	37
410.215	36
411.446	34
412.678	37
413.908	33
415.138	35
416.367	34
417.597	28
418.828	32
420.057	33
421.286	30
422.514	32
423.743	37
424.973	38
426.201	28
427.429	33
428.657	37
429.884	32
431.112	33
432.34	32
433.567	37
434.794	31
436.02	40
437.247	32
438.473	40
439.699	32
440.925	36
442.15	38
443.376	33
444.601	30
445.826	35
447.051	36
448.275	34
449.5	37
450.724	34
451.948	34
453.172	36
454.396	38
455.619	30
456.842	36
458.065	32
459.288	34
460.511	36
461.733	38
462.956	34
464.178	33
465.4	42
466.621	35
467.843	36
469.064	37
470.285	36
471.505	34
472.726	40
473.946	36
475.166	41
476.387	42
477.606	38
478.825	46
480.044	44
481.264	50
482.483	58
483.702	55
484.921	56
486.138	58
487.356	60
488.574	59
489.792	64
491.009	64
492.226	58
493.444	55
494.661	52
495.877	54
497.094	52
498.31	56
499.525	46
500.741	50
501.958	48
503.172	45
504.388	44
505.603	36
506.817	42
508.032	38
509.247	34
510.46	38
511.675	40
512.888	39
514.102	36
515.316	42
516.528	34
517.742	30
518.954	36
520.167	36
521.378	36
522.591	35
523.802	43
525.015	42
526.226	32
527.438	35
528.648	32
529.86	38
531.07	38
532.281	36
533.491	34
534.702	37
535.911	32
537.121	34
538.33	39
539.54	30
540.749	40
541.957	33
543.167	35
544.375	31
545.584	36
546.791	42
547.999	36
549.207	36
550.414	34
551.621	30
552.829	34
554.035	28
555.241	36
556.449	34
557.655	26
558.86	30
560.066	32
561.272	32
562.477	40
563.682	24
564.888	34
566.093	34
567.297	36
568.501	34
569.705	34
570.91	36
572.114	32
573.317	38
574.52	27
575.723	36
576.927	30
578.13	28
579.332	38
580.535	30
581.737	36
582.938	36
584.14	33
585.343	31
586.544	33
587.745	35
588.946	37
590.147	40
591.347	37
592.548	31
593.748	36
594.948	36
596.147	34
597.347	33
598.546	31
599.745	28
600.944	33
602.143	40
603.342	29
604.54	36
605.738	32
606.937	29
608.134	36
609.332	35
610.529	38
611.727	33
612.924	30
614.121	35
615.317	36
616.513	24
617.709	32
618.905	38
620.101	32
621.297	37
622.492	36
623.688	38
624.883	34
626.077	37
627.271	38
628.466	34
629.66	37
630.855	32
632.047	31
633.241	32
634.435	32
635.629	36
636.82	32
638.014	36
639.207	32
640.399	38
641.59	36
642.783	35
643.975	38
645.166	34
646.357	30
647.549	36
648.741	33
649.93	26
651.122	37
652.311	30
653.502	37
654.692	31
655.881	36
657.071	38
658.261	30
659.45	34
660.639	38
661.827	37
663.016	34
664.204	36
665.393	36
666.581	35
667.769	33
668.957	39
670.143	34
671.331	28
672.518	33
673.705	36
674.891	36
676.078	42
677.264	38
678.451	40
679.636	40
680.821	40
682.007	36
683.192	32
684.378	38
685.562	42
686.747	40
687.931	38
689.115	36
690.3	42
691.483	34
692.666	40
693.851	39
695.034	36
696.216	40
697.4	43
698.582	34
699.764	35
700.948	40
702.129	43
703.311	43
704.493	46
705.674	46
706.855	48
708.036	52
709.218	52
710.399	53
711.579	52
712.759	44
713.939	48
715.12	38
716.299	40
717.478	38
718.657	34
719.836	28
721.015	36
722.195	33
723.373	40
724.552	35
725.729	31
726.907	38
728.085	37
729.262	38
730.44	34
731.617	34
732.795	29
733.972	38
735.148	32
736.324	35
737.501	36
738.677	30
739.852	34
741.028	35
742.203	36
743.379	30
744.554	40
745.729	36
746.903	27
748.078	34
749.252	36
750.426	34
751.599	32
752.772	34
753.946	34
755.119	34
756.293	26
757.466	32
758.639	35
759.811	35
760.984	28
762.155	30
763.327	34
764.499	34
765.67	39
766.842	30
768.013	37
769.183	34
770.354	36
771.525	40
772.696	32
773.865	37
775.035	34
776.205	37
777.375	37
778.544	34
779.713	39
780.882	30
782.052	40
783.219	40
784.388	38
785.557	34
786.724	39
787.892	34
789.06	36
790.227	34
791.395	36
792.562	32
793.728	35
794.895	35
796.061	40
797.228	33
798.395	32
799.56	39
800.726	35
801.891	35
803.057	32
804.221	28
805.387	39
806.551	38
807.716	28
808.879	28
810.044	33
811.208	30
812.372	36
813.535	35
814.699	37
815.862	32
817.025	32
818.188	36
819.351	33
820.513	30
821.675	32
822.837	35
823.999	33
825.161	35
826.322	35
827.483	27
828.645	30
829.805	31
830.966	29
832.127	32
833.287	32
834.447	30
835.607	34
836.767	30
837.926	32
839.085	33
840.245	34
841.404	32
842.562	36
843.72	28
844.88	32
846.038	28
847.195	26
848.353	32
849.512	34
850.669	32
851.826	32
852.983	34
854.139	33
855.296	35
856.453	33
857.609	35
858.765	35
859.921	32
861.077	34
862.232	30
863.387	40
864.542	28
865.697	32
866.852	35
868.008	32
869.162	31
870.316	30
871.47	37
872.624	32
873.778	34
874.931	38
876.084	30
877.237	26
878.39	31
879.543	32
880.695	30
881.846	34
882.999	37
884.151	35
885.302	32
886.454	30
887.606	31
888.757	32
889.908	31
891.059	30
892.21	35
893.359	32
894.509	34
895.659	32
896.81	31
897.959	30
899.109	36
900.257	35
901.407	26
902.556	38
903.705	29
904.854	31
906.001	35
907.149	35
908.298	32
909.446	27
910.592	32
911.74	24
912.888	32
914.034	37
915.181	31
916.328	30
917.473	32
918.62	33
919.766	26
920.911	28
922.058	34
923.204	34
924.348	36
925.494	35
926.638	30
927.783	30
928.928	28
930.072	32
931.216	35
932.36	26
933.504	32
934.647	31
935.791	31
936.933	31
938.077	30
939.219	29
940.363	34
941.504	32
942.647	32
943.789	30
944.932	30
946.073	36
947.215	26
948.356	31
949.498	36
950.638	28
951.778	33
952.92	34
954.06	28
955.199	26
956.34	24
957.479	33
958.62	38
959.759	31
960.898	34
962.038	30
963.176	30
964.315	32
965.453	33
966.592	30
967.73	34
968.867	28
970.006	34
971.144	35
972.281	36
973.418	32
974.554	30
975.692	34
976.829	31
977.965	34
979.101	38
980.237	33
981.374	29
982.509	36
983.645	31
984.78	32
985.915	34
987.05	36
988.184	28
989.319	28
990.453	39
991.589	32
992.722	31
993.856	30
994.99	37
996.123	30
997.257	28
998.39	33
999.523	30
1000.66	24
1001.79	30
1002.92	35
1004.05	30
1005.18	34
1006.32	37
1007.45	32
1008.58	32
1009.71	30
1010.84	34
1011.97	30
1013.1	29
1014.23	28
1015.36	28
1016.49	33
1017.62	27
1018.75	28
1019.88	31
1021.01	32
1022.14	30
1023.27	30
1024.4	35
1025.53	33
1026.66	33
1027.79	30
1028.91	32
1030.04	32
1031.17	28
1032.3	38
1033.42	32
1034.55	29
1035.68	30
1036.81	28
1037.93	28
1039.06	28
1040.18	22
1041.31	26
1042.44	35
1043.56	32
1044.69	32
1045.81	30
1046.94	30
1048.06	36
1049.19	33
1050.31	33
1051.44	31
1052.56	29
1053.69	30
1054.81	28
1055.93	31
1057.06	26
1058.18	33
1059.3	30
1060.43	30
1061.55	35
1062.67	32
1063.79	34
1064.92	32
1066.04	28
1067.16	30
1068.28	30
1069.4	31
1070.52	28
1071.65	36
1072.77	28
1073.89	25
1075.01	30
1076.13	32
1077.25	32
1078.37	28
1079.49	32
1080.61	26
1081.73	30
1082.85	32
1083.97	34
1085.09	34
1086.2	33
1087.32	30
1088.44	32
1089.56	27
1090.68	33
1091.8	24
1092.91	26
1094.03	29
1095.15	30
1096.26	33
1097.38	33
1098.5	29
1099.61	29
1100.73	26
1101.85	32
1102.96	32
1104.08	30
1105.19	32
1106.31	28
1107.43	24
1108.54	30
1109.66	26
1110.77	34
1111.88	35
1113	30
1114.11	35
1115.23	29
1116.34	30
1117.46	27
1118.57	24
1119.68	34
1120.8	30
1121.91	30
1123.02	30
1124.13	26
1125.25	32
1126.36	29
1127.47	28
1128.58	33
1129.69	27
1130.8	27
1131.92	28
1133.03	34
1134.14	36
1135.25	30
1136.36	32
1137.47	34
1138.58	30
1139.69	31
1140.8	30
1141.91	24
1143.02	30
1144.13	32
1145.24	30
1146.35	28
1147.46	32
1148.56	31
1149.67	32
1150.78	24
1151.89	32
1153	26
1154.1	31
1155.21	27
1156.32	28
1157.43	34
1158.53	32
1159.64	30
1160.75	26
1161.85	30
1162.96	28
1164.07	26
1165.17	32
1166.28	35
1167.38	30
1168.49	24
1169.59	32
1170.7	30
1171.8	35
1172.91	30
1174.01	28
1175.12	28
1176.22	26
1177.32	24
1178.43	30
1179.53	24
1180.64	26
1181.74	26
1182.84	30
1183.94	30
1185.05	28
1186.15	30
1187.25	32
1188.35	30
1189.46	26
1190.56	28
1191.66	33
1192.76	30
1193.86	31
1194.96	32
1196.06	27.9853
1197.16	30.9035
1198.26	33.8509
1199.37	28.0839
1200.47	26.2007
1201.57	32.9216
1202.67	29.1222
1203.77	28.8765
1204.86	29.7161
1205.96	33.2448
1207.06	29.5972
1208.16	24.3344
1209.26	28.7578
1210.36	30.8045
1211.46	32.7872
1212.56	30.3796
1213.65	31.7631
1214.75	28.0837
1215.85	29.8186
1216.95	31.5181
1218.04	29.7141
1219.14	31.3413
1220.24	30.4882
1221.33	33.2727
1222.43	28.9521
1223.53	31.5
1224.62	26.9235
1225.72	29.6116
1226.82	29.0859
1227.91	32.7583
1229.01	26.7255
1230.1	27.0567
1231.2	28.1065
1232.29	30.8395
1233.39	28.5283
1234.48	29.167
1235.58	29.0738
1236.67	27.7671
1237.77	29.0656
1238.86	32.6127
1239.95	33.2059
1241.05	31.6962
1242.14	32.3333
1243.23	32.8676
1244.33	28.8114
1245.42	27.4997
1246.51	30.9118
1247.61	27.1925
1248.7	27.482
1249.79	30.6765
1250.88	30.007
1251.97	27.5094
1253.07	27.2622
1254.16	30.8605
1255.25	30.0686
1256.34	30.0067
1257.43	25.8849
1258.52	28.0343
1259.61	29.2743
1260.7	31.0827
1261.79	29.092
1262.88	31.6676
1263.97	29.6127
1265.06	30.8009
1266.15	28.6969
1267.24	30.3283
1268.33	31.1402
1269.42	29.6595
1270.51	31.1245
1271.6	33.0401
1272.68	29.1691
1273.77	24.9038
1274.86	30.0506
1275.95	30.8192
1277.04	27.9198
1278.12	26.952
1279.21	28.3021
1280.3	28.232
1281.39	23.3431
1282.47	29.9967
1283.56	32.6451
1284.65	29.7844
1285.73	24.3649
1286.82	28.2703
1287.91	27.2987
1288.99	27.2923
1290.08	29.5883
1291.16	27.7474
1292.25	26.6444
1293.33	28.7227
1294.42	31.4969
1295.5	26.5259
1296.59	27.0389
1297.67	25.0304
1298.76	31.7059
1299.84	31.0785
1300.92	26.97
1302.01	30.8729
1303.09	31.5418
1304.17	28.2949
1305.26	29.6453
1306.34	26.3966
1307.34	31
1308.43	26
1309.52	30
1310.61	32
1311.7	27
1312.78	26
1313.87	30
1314.96	31
1316.04	28
1317.13	26
1318.22	26
1319.3	26
1320.39	28
1321.48	24
1322.56	28
1323.65	33
1324.73	34
1325.82	24
1326.9	32
1327.99	32
1329.07	30
1330.16	28
1331.24	33
1332.33	26
1333.41	26
1334.5	30
1335.58	31
1336.66	24
1337.75	31
1338.83	28
1339.91	30
1341	33
1342.08	25
1343.16	26
1344.24	30
1345.33	26
1346.41	30
1347.49	31
1348.57	22
1349.65	31
1350.74	25
1351.82	24
1352.9	29
1353.98	35
1355.06	30
1356.14	26
1357.22	37
1358.3	27
1359.38	29
1360.46	29
1361.54	32
1362.62	24
1363.7	24
1364.78	30
1365.86	28
1366.94	29
1368.02	32
1369.09	33
1370.17	30
1371.25	30
1372.33	30
1373.41	30
1374.48	28
1375.56	21
1376.64	34
1377.72	28
1378.79	32
1379.87	31
1380.95	32
1382.02	30
1383.1	32
1384.17	24
1385.25	30
1386.33	28
1387.4	28
1388.48	32
1389.55	31
1390.63	31
1391.7	34
1392.78	28
1393.85	33
1394.93	24
1396	31
1397.07	34
1398.15	31
1399.22	29
1400.3	32
1401.37	36
1402.44	35
1403.52	38
1404.59	36
1405.66	32
1406.73	36
1407.81	34
1408.88	38
1409.95	31
1411.02	28
1412.09	34
1413.17	28
1414.24	32
1415.31	31
1416.38	37
1417.45	31
1418.52	32
1419.59	36
1420.66	32
1421.73	26
1422.8	35
1423.87	34
1424.94	34
1426.01	30
1427.08	29
1428.15	34
1429.22	32
1430.29	30
1431.35	32
1432.42	34
1433.49	34
1434.56	30
1435.63	24
1436.69	28
1437.76	32
1438.83	24
1439.9	31
1440.96	32
1442.03	32
1443.1	28
1444.17	32
1445.23	32
1446.3	32
1447.36	28
1448.43	32
1449.49	31
1450.56	26
1451.63	33
1452.69	27
1453.76	30
1454.82	27
1455.89	34
1456.95	29
1458.01	32
1459.08	30
1460.14	28
1461.21	32
1462.27	34
1463.34	32
1464.4	24
1465.46	30
1466.52	29
1467.59	33
1468.65	33
1469.71	29
1470.77	27
1471.84	26
1472.9	30
1473.96	31
1475.02	30
1476.08	30
1477.15	32
1478.21	28
1479.27	32
1480.33	30
1481.39	29
1482.45	27
1483.51	27
1484.57	32
1485.63	30
1486.69	30
1487.75	29
1488.81	32
1489.87	28
1490.93	30
1491.99	31
1493.05	27
1494.1	24
1495.16	28
1496.22	28
1497.28	29
1498.34	27
1499.4	29
1500.45	31
1501.51	28
1502.57	31
1503.63	28
1504.68	28
1505.74	27
1506.8	29
1507.85	31
1508.91	37
1509.97	29
1511.02	34
1512.08	31
1513.13	30
1514.19	32
1515.24	32
1516.3	29
1517.35	32
1518.41	30
1519.46	28
1520.52	32
1521.57	28
1522.63	28
1523.68	33
1524.73	30
1525.79	27
1526.84	28
1527.9	31
1528.95	30
1530	23
1531.05	32
1532.11	18
1533.16	26
1534.21	30
1535.26	24
1536.32	35
1537.37	28
1538.42	30
1539.47	29
1540.52	24
1541.57	24
1542.63	30
1543.68	24
1544.73	30
1545.78	28
1546.83	28
1547.88	30
1548.93	30
1549.98	24
1551.03	33
1552.08	30
1553.13	26
1554.18	29
1555.23	29
1556.27	32
1557.32	29
1558.37	31
1559.42	32
1560.47	34
1561.52	31
1562.56	32
1563.61	30
1564.66	30
1565.71	28
1566.75	22
1567.8	31
1568.85	28
1569.9	33
1570.94	24
1571.99	34
1573.03	27
1574.08	33
1575.13	30
1576.17	29
1577.22	30
1578.26	33
1579.31	32
1580.35	32
1581.4	30
1582.44	35
1583.49	30
1584.53	28
1585.58	34
1586.62	34
1587.66	31
1588.71	30
1589.75	26
1590.8	28
1591.84	30
1592.88	30
1593.92	28
1594.97	32
1596.01	26
1597.05	18
1598.1	28
1599.14	32
1600.18	32
1601.22	28
1602.26	33
1603.3	32
1604.35	28
1605.39	27
1606.43	29
1607.47	31
1608.51	30
1609.55	32
1610.59	33
1611.63	30
1612.67	30
1613.71	26
1614.75	26
1615.79	31
1616.83	28
1617.87	28
1618.91	27
1619.95	32
1620.99	26
1622.02	29
1623.06	26
1624.1	26
1625.14	32
1626.18	28
1627.21	24
1628.25	28
1629.29	29
1630.33	28
1631.36	31
1632.4	30
1633.44	30
1634.48	28
1635.51	29
1636.55	30
1637.58	28
1638.62	30
1639.66	30
1640.69	27
1641.73	29
1642.76	32
1643.8	30
1644.83	32
1645.87	32
1646.9	30
1647.94	34
1648.97	34
1650	28
1651.04	32
1652.07	32
1653.11	35
1654.14	30
1655.17	32
1656.21	24
1657.24	32
1658.27	30
1659.31	30
1660.34	28
1661.37	27
1662.4	29
1663.43	32
1664.47	29
1665.5	27
1666.53	24
1667.56	32
1668.59	30
1669.62	26
1670.66	29
1671.69	33
1672.72	26
1673.75	31
1674.78	30
1675.81	26
1676.84	34
1677.87	30
1678.9	30
1679.93	33
1680.96	30
1681.98	28
1683.01	28
1684.04	26
1685.07	32
1686.1	26
1687.13	26
1688.16	27
1689.18	28
1690.21	26
1691.24	31
1692.27	29
1693.3	28
1694.32	28
1695.35	33
1696.38	26
1697.4	32
1698.43	29
1699.46	26
1700.48	28
1701.51	32
1702.54	26
1703.56	30
1704.59	32
1705.61	33
1706.64	31
1707.66	28
1708.69	29
1709.71	26
1710.74	26
1711.76	28
1712.79	31
1713.81	32
1714.83	32
1715.86	32
1716.88	29
1717.91	33
1718.93	28
1719.95	30
1720.98	29
1722	28
1723.02	30
1724.04	28
1725.07	34
1726.09	30
1727.11	34
1728.13	29
1729.15	29
1730.18	24
1731.2	31
1732.22	33
1733.24	31
1734.26	28
1735.28	29
1736.3	28
1737.32	34
1738.34	31
1739.36	29
1740.38	32
1741.4	28
1742.42	36
1743.44	30
1744.46	20
1745.48	30
1746.5	26
1747.52	28
1748.54	29
1749.56	23
1750.58	34
1751.6	26
1752.61	27
1753.63	32
1754.65	29
1755.67	26
1756.68	33
1757.7	28
1758.72	30
1759.74	30
1760.75	27
1761.77	26
1762.79	29
1763.8	30
1764.82	29
1765.83	30
1766.85	33
1767.87	30
1768.88	30
1769.9	33
1770.91	26
1771.93	30
1772.94	28
1773.96	29
1774.97	28
1775.99	31
1777	34
1778.02	26
1779.03	30
1780.04	29
1781.06	22
1782.07	29
1783.09	28
1784.1	33
1785.11	35
1786.13	29
1787.14	31
1788.15	32
1789.16	29
1790.18	31
1791.19	30
1792.2	31
1793.21	27
1794.22	28
1795.23	28
1796.25	28
1797.26	33
1798.27	30
1799.28	26
1800.29	30
1801.3	28
1802.31	27
1803.32	28
1804.33	28
1805.34	30
1806.35	32
1807.36	32
1808.37	29
1809.38	29
1810.39	29
1811.4	28
1812.41	30
1813.42	30
1814.42	26
1815.43	32
1816.44	28
1817.45	30
1818.46	32
1819.47	30
1820.47	27
1821.48	30
1822.49	26
1823.49	25
1824.5	27
1825.51	24
1826.52	26
1827.52	34
1828.53	28
1829.53	31
1830.54	26
1831.55	27
1832.55	28
1833.56	32
1834.56	30
1835.57	28
1836.57	36
1837.58	26
1838.58	30
1839.59	31
1840.59	33
1841.6	28
1842.6	26
1843.61	33
1844.61	29
1845.61	28
1846.62	32
1847.62	30
1848.62	28
1849.63	26
1850.63	28
1851.63	34
1852.64	25
1853.64	29
1854.64	26
1855.64	26
1856.64	30
1857.65	28
1858.65	28
1859.65	30
1860.65	27
1861.65	26
1862.65	34
1863.65	30
1864.66	31
1865.66	32
1866.66	29
1867.66	31
1868.66	30
1869.66	22
1870.66	30
1871.66	29
1872.66	26
1873.66	28
1874.66	31
1875.65	26
1876.65	28
1877.65	30
1878.65	31
1879.65	26
1880.65	27
1881.65	31
1882.64	30
1883.64	32
1884.64	34
1885.64	27
1886.63	32
1887.63	28
1888.63	34
1889.63	28
1890.62	26
1891.62	28
1892.62	29
1893.61	25
1894.61	26
1895.6	28
1896.6	30
1897.6	22
1898.59	22
1899.59	31
1900.58	26
1901.58	32
1902.57	31
1903.57	28
1904.56	26
1905.56	32
1906.55	29
1907.54	30
1908.54	26
1909.53	30
1910.53	32
1911.52	28
1912.51	22
1913.51	28
1914.5	29
1915.49	33
1916.49	32
1917.48	25
1918.47	26
1919.46	33
1920.46	31
1921.45	28
1922.44	29
1923.43	27
1924.42	28
1925.41	32
1926.41	26
1927.4	33
1928.39	24
1929.38	26
1930.37	30
1931.36	22
1932.35	27
1933.34	30
1934.33	24
1935.32	25
1936.31	30
1937.3	30
1938.29	26
1939.28	30
1940.27	28
1941.26	27
1942.24	25
1943.23	24
1944.22	32
1945.21	22
1946.2	26
1947.19	26
1948.17	28
1949.16	23
1950.15	26
1951.14	26
1952.12	24
1953.11	28
1954.1	28
1955.09	25
1956.07	26
1957.06	26
1958.05	32
1959.03	27
1960.02	26
1961	26
1961.99	29
1962.98	27
1963.96	29
1964.95	30
1965.93	28
1966.92	33
1967.9	28
1968.89	26
1969.87	32
1970.85	26
1971.84	26
1972.82	20
1973.81	28
1974.79	30
1975.78	30
1976.76	30
1977.74	26
1978.73	28
1979.71	35
1980.69	36
1981.67	33
1982.66	35
1983.64	30
1984.62	28
1985.6	30
1986.59	26
1987.57	30
1988.55	34
1989.53	28
1990.51	27
1991.49	22
1992.47	29
1993.45	25
1994.44	28
1995.42	27
1996.4	33
1997.38	27
1998.36	32
1999.34	30
2000.32	31
2001.3	20
2002.28	29
2003.26	29
2004.24	28
2005.22	27
2006.19	24
2007.17	24
2008.15	28
2009.13	24
2010.11	24
2011.09	33
2012.06	30
2013.04	25
2014.02	27
2015	26
2015.98	22
2016.95	26
2017.93	25
2018.91	24
2019.88	26
2020.86	28
2021.84	25
2022.81	26
2023.79	33
2024.77	30
2025.74	29
2026.72	28
2027.69	22
2028.67	26
2029.65	27
2030.62	32
2031.6	26
2032.57	24
2033.55	28
2034.52	26
2035.5	32
2036.47	27
2037.44	29
2038.42	26
2039.39	28
2040.36	26
2041.34	31
2042.31	28
2043.29	27
2044.26	26
2045.23	26
2046.2	29
2047.18	26
2048.15	28
2049.12	24
2050.09	32
2051.07	26
2052.04	29
2053.01	26
2053.98	21
2054.95	30
2055.93	30
2056.9	24
2057.87	23
2058.84	28
2059.81	32
2060.78	28
2061.75	29
2062.72	32
2063.69	29
2064.66	27
2065.63	28
2066.6	31
2067.57	22
2068.54	33
2069.51	23
2070.48	30
2071.45	32
2072.42	28
2073.38	26
2074.35	26
2075.32	24
2076.29	28
2077.26	24
2078.23	30
2079.19	26
2080.16	26
2081.13	31
2082.1	31
2083.06	27
2084.03	27
2085	22
2085.96	28
2086.93	24
2087.9	31
2088.86	26
2089.83	24
2090.8	24
2091.76	26
2092.73	26
2093.69	22
2094.66	26
2095.62	24
2096.59	30
2097.55	24
2098.52	26
2099.48	27
2100.45	28
2101.41	27
2102.38	34
2103.34	26
2104.31	28
2105.27	28
2106.23	27
2107.2	28
2108.16	28
2109.12	30
2110.09	25
2111.05	28
2112.01	33
2112.98	30
2113.94	24
2114.9	26
2115.86	28
2116.82	24
2117.79	24
2118.75	25
2119.71	28
2120.67	28
2121.63	30
2122.59	27
2123.55	30
2124.52	28
2125.48	26
2126.44	23
2127.4	28
2128.36	31
2129.32	28
2130.28	26
2131.24	24
2132.2	28
2133.16	26
2134.12	28
2135.08	27
2136.04	28
2136.99	26
2137.95	22
2138.91	22
2139.87	24
2140.83	20
2141.79	32
2142.75	18
2143.7	28
2144.66	26
2145.62	28.0026
2146.58	25.9733
2147.53	27.9552
2148.49	27.0287
2149.45	26.0136
2150.41	28.1002
2151.36	24.2549
2152.32	29.8529
2153.27	24.3102
2154.23	25.7303
2155.19	28.574
2156.14	22.8966
2157.1	25.728
2158.06	25.8577
2159.01	24.8381
2159.97	22.6078
2160.92	25.1692
2161.88	21.5332
2162.83	28.7336
2163.79	25.1912
2164.74	22.0038
2165.7	27.3617
2166.65	21.7553
2167.61	27.7742
2168.56	25.7146
2169.51	28.2648
2170.47	24.2687
2171.42	26.2479
2172.38	29.2687
2173.33	25.3455
2174.28	27.5863
2175.24	27.1236
2176.19	26.083
2177.14	27.6486
2178.09	27.9748
2179.05	24.1104
2180	27.9065
2180.95	29.1004
2181.9	24.8634
2182.86	23.3813
2183.81	23.3134
2184.76	29.0072
2185.71	27.2633
2186.66	27.897
2187.61	27.6185
2188.57	25.6162
2189.52	27.2339
2190.47	23.9289
2191.42	24.1889
2192.37	24.7058
2193.32	26.8453
2194.27	23.3995
2195.22	24.2006
2196.17	21.491
2197.12	27.215
2198.07	28.0992
2199.02	23.5093
2199.97	25.02
2200.92	28.1661
2201.87	26.9514
2202.82	26.4696
2203.76	28.3461
2204.71	25.5366
2205.66	25.1059
2206.61	26.2406
2207.56	27.5083
2208.51	28.1928
2209.45	27.6479
2210.4	26.8198
2211.35	24.5521
2212.3	28.9826
2213.24	26.2687
2214.19	26.3866
2215.14	24.9193
2216.09	27.1177
2217.03	28.5291
2217.98	26.1524
2218.93	26.2402
2219.87	27.6923
2220.82	27.1762
2221.77	24.4555
2222.71	24.2426
2223.66	24.6427
2224.6	26.7491
2225.55	23.2333
2226.49	22.081
2227.44	24.8398
2228.38	27.8203
2229.33	28.1747
2230.27	26.7505
2231.22	25.3224
2232.16	26.5434
2233.11	27.0931
2234.05	25.3748
2235	25.5079
2235.94	26.6999
2236.88	26.6765
2237.83	28.4559
2238.77	27.5996
2239.71	26.049
2240.66	26.6201
2241.6	25.8518
2242	25
2242.95	27
2243.9	25
2244.84	22
2245.79	18
2246.74	26
2247.69	28
2248.63	22
2249.58	31
2250.53	27
2251.47	24
2252.42	24
2253.37	27
2254.31	27
2255.26	25
2256.2	24
2257.15	26
2258.1	27
2259.04	26
2259.99	23
2260.93	28
2261.88	28
2262.82	26
2263.77	22
2264.71	27
2265.65	26
2266.6	25
2267.54	26
2268.49	28
2269.43	29
2270.38	28
2271.32	30
2272.26	25
2273.21	28
2274.15	25
2275.09	30
2276.04	22
2276.98	26
2277.92	22
2278.86	31
2279.81	24
2280.75	29
2281.69	22
2282.63	26
2283.57	30
2284.52	25
2285.46	22
2286.4	24
2287.34	23
2288.28	29
2289.22	24
2290.16	26
2291.1	26
2292.04	25
2292.98	22
2293.93	24
2294.86	24
2295.8	30
2296.74	24
2297.69	24
2298.62	28
2299.56	24
2300.5	24
2301.44	29
2302.38	22
2303.32	26
2304.26	28
2305.2	26
2306.14	27
2307.07	29
2308.01	28
2308.95	30
2309.89	22
2310.83	24
2311.76	27
2312.7	27
2313.64	27
2314.58	26
2315.51	27
2316.45	27
2317.39	26
2318.32	27
2319.26	24
2320.2	30
2321.13	29
2322.07	26
2323	33
2323.94	27
2324.88	27
2325.81	24
2326.75	28
2327.68	29
2328.62	23
2329.55	25
2330.49	28
2331.42	27
2332.36	30
2333.29	24
2334.22	28
2335.16	26
2336.09	22
2337.03	27
2337.96	25
2338.89	24
2339.83	28
2340.76	22
2341.69	20
2342.63	31
2343.56	30
2344.49	22
2345.43	27
2346.36	26
2347.29	26
2348.22	26
2349.15	27
2350.09	28
2351.02	29
2351.95	30
2352.88	31
2353.81	26
2354.74	24
2355.67	24
2356.61	29
2357.54	31
2358.47	30
2359.4	23
2360.33	27
2361.26	27
2362.19	28
2363.12	26
2364.05	26
2364.98	31
2365.91	26
2366.84	26
2367.77	26
2368.7	35
2369.62	31
2370.55	30
2371.48	28
2372.41	28
2373.34	24
2374.27	28
2375.2	28
2376.12	28
2377.05	30
2377.98	27
2378.91	27
2379.83	28
2380.76	26
2381.69	26
2382.62	29
2383.54	29
2384.47	30
2385.4	26
2386.32	26
2387.25	25
2388.18	20
2389.1	28
2390.03	29
2390.95	24
2391.88	28
2392.81	20
2393.73	30
2394.66	31
2395.58	32
2396.51	28
2397.43	24
2398.36	33
2399.28	31
2400.2	28
2401.13	29
2402.05	32
2402.98	28
2403.9	27
2404.83	24
2405.75	27
2406.67	27
2407.6	28
2408.52	30
2409.44	26
2410.37	27
2411.29	26
2412.21	28
2413.13	28
2414.06	27
2414.98	24
2415.9	29
2416.82	33
2417.74	29
2418.67	31
2419.59	27
2420.51	25
2421.43	33
2422.35	29
2423.27	26
2424.19	27
2425.11	30
2426.03	29
2426.96	28
2427.88	28
2428.8	29
2429.72	29
2430.64	24
2431.56	28
2432.48	27
2433.39	20
2434.31	29
2435.23	28
2436.15	28
2437.07	25
2437.99	29
2438.91	24
2439.83	26
2440.75	30
2441.67	24
2442.58	28
2443.5	33
2444.42	30
2445.34	30
2446.26	26
2447.17	22
2448.09	24
2449.01	34
2449.92	28
2450.84	29
2451.76	20
2452.68	29
2453.59	26
2454.51	30
2455.42	28
2456.34	26
2457.26	31
2458.17	28
2459.09	27
2460	28
2460.92	28
2461.83	22
2462.75	31
2463.66	25
2464.58	29
2465.49	28
2466.41	30
2467.32	22
2468.24	29
2469.15	27
2470.07	30
2470.98	29
2471.89	28
2472.81	24
2473.72	30
2474.64	30
2475.55	22
2476.46	24
2477.37	32
2478.29	20
2479.2	29
2480.11	31
2481.03	32
2481.94	29
2482.85	32
2483.76	33
2484.67	32
2485.59	22
2486.5	25
2487.41	30
2488.32	29
2489.23	24
2490.14	26
2491.05	30
2491.97	27
2492.88	33
2493.79	23
2494.7	25
2495.61	30
2496.52	27
2497.43	30
2498.34	29
2499.25	24
2500.16	30
2501.07	32
2501.98	30
2502.89	24
2503.79	26
2504.7	28
2505.61	23
2506.52	28
2507.43	31
2508.34	30
2509.25	28
2510.16	28
2511.06	29
2511.97	27
2512.88	26
2513.79	24
2514.69	22
2515.6	27
2516.51	30
2517.42	26
2518.32	27
2519.23	22
2520.14	26
2521.04	30
2521.95	26
2522.86	28
2523.76	28
2524.67	22
2525.57	31
2526.48	26
2527.39	26
2528.29	28
2529.2	18
2530.1	28
2531.01	28
2531.91	24
2532.82	27
2533.72	30
2534.63	30
2535.53	33
2536.44	32
2537.34	30
2538.24	26
2539.15	28
2540.05	27
2540.96	30
2541.86	26
2542.76	26
2543.67	34
2544.57	25
2545.47	26
2546.37	26
2547.28	27
2548.18	29
2549.08	28
2549.99	26
2550.89	30
2551.79	26
2552.69	26
2553.59	26
2554.49	30
2555.4	26
2556.3	28
2557.2	26
2558.1	26
2559	20
2559.9	22
2560.8	24
2561.7	30
2562.6	26
2563.5	26
2564.4	29
2565.3	31
2566.2	30
2567.1	28
2568	31
2568.9	28
2569.8	27
2570.7	28
2571.6	31
2572.5	33
2573.4	30
2574.3	28
2575.2	25
2576.1	27
2576.99	24
2577.89	26
2578.79	22
2579.69	30
2580.59	28
2581.48	30
2582.38	28
2583.28	25
2584.18	31
2585.07	26
2585.97	28
2586.87	28
2587.76	26
2588.66	26
2589.56	27
2590.45	24
2591.35	25
2592.25	28
2593.14	30
2594.04	29
2594.93	25
2595.83	33
2596.73	31
2597.62	26
2598.52	18
2599.41	29
2600.31	30
2601.2	29
2602.1	25
2602.99	30
2603.88	32
2604.78	27
2605.67	28
2606.57	28
2607.46	30
2608.35	31
2609.25	28
2610.14	27
2611.03	29
2611.93	30
2612.82	28
2613.71	22
2614.61	28
2615.5	30
2616.39	28
2617.29	26
2618.18	27
2619.07	27
2619.96	26
2620.85	28
2621.75	30
2622.64	26
2623.53	30
2624.42	29
2625.31	30
2626.2	26
2627.09	29
2627.98	24
2628.88	25
2629.77	22
2630.66	26
2631.55	29
2632.44	30
2633.33	29
2634.22	28
2635.11	26
2636	28
2636.89	30
2637.78	27
2638.66	26
2639.55	28
2640.44	34
2641.33	26
2642.22	29
2643.11	28
2644	27
2644.89	24
2645.78	27
2646.66	26
2647.55	27
2648.44	29
2649.33	27
2650.21	27
2651.1	28
2651.99	26
2652.88	32
2653.76	26
2654.65	28
2655.54	30
2656.42	28
2657.31	24
2658.2	26
2659.08	32
2659.97	25
2660.86	26
2661.74	28
2662.63	25
2663.51	29
2664.4	30
2665.29	28
2666.17	26
2667.06	25
2667.94	27
2668.83	26
2669.71	28
2670.6	26
2671.48	26
2672.36	27
2673.25	18
2674.13	29
2675.02	29
2675.9	24
2676.78	30
2677.67	30
2678.55	28
2679.43	26
2680.32	30
2681.2	26
2682.08	34
2682.97	29
2683.85	33
2684.73	24
2685.61	28
2686.5	22
2687.38	33
2688.26	30
2689.14	30
2690.03	30
2690.91	32
2691.79	27
2692.67	26
2693.55	25
2694.43	26
2695.31	26
2696.19	25
2697.08	30
2697.96	27
2698.84	23
2699.72	30
2700.6	32
2701.48	28
2702.36	28
2703.24	28
2704.12	30
2705	26
2705.88	28
2706.76	30
2707.64	24
2708.51	27
2709.39	29
2710.27	28
2711.15	31
2712.03	29
2712.91	24
2713.79	24
2714.67	31
2715.54	32
2716.42	24
2717.3	26
2718.18	24
2719.05	29
2719.93	28
2720.81	28
2721.69	32
2722.56	26
2723.44	28
2724.32	26
2725.19	23
2726.07	27
2726.95	24
2727.82	31
2728.7	22
2729.58	32
2730.45	26
2731.33	34
2732.2	30
2733.08	26
2733.95	28
2734.83	24
2735.7	27
2736.58	27
2737.45	26
2738.33	24
2739.2	27
2740.08	30
2740.95	32
2741.83	23
2742.7	25
2743.58	30
2744.45	28
2745.32	26
2746.2	30
2747.07	31
2747.94	30
2748.82	26
2749.69	26
2750.56	27
2751.44	22
2752.31	28
2753.18	30
2754.05	28
2754.93	26
2755.8	20
2756.67	29
2757.54	28
2758.42	24
2759.29	29
2760.16	28
2761.03	27
2761.9	30
2762.77	31
2763.64	32
2764.51	24
2765.38	28
2766.26	23
2767.13	30
2768	28
2768.87	28
2769.74	27
2770.61	27
2771.48	28
2772.35	30
2773.22	24
2774.09	34
2774.96	28
2775.83	32
2776.7	28
2777.56	24
2778.43	24
2779.3	26
2780.17	28
2781.04	26
2781.91	28
2782.78	26
2783.64	29
2784.51	26
2785.38	32
2786.25	29
2787.12	28
2787.98	27
2788.85	29
2789.72	32
2790.59	28
2791.45	30
2792.32	26
2793.19	27
2794.05	30
2794.92	31
2795.79	32
2796.65	26
2797.52	24
2798.38	26
2799.25	26
2800.12	29
2800.98	28
2801.85	30
2802.71	28
2803.58	29.5
2804.44	30
2805.31	27
2806.17	25
2807.04	28
2807.9	28
2808.77	29
2809.63	33
2810.5	32
2811.36	28
2812.22	30
2813.09	24
2813.95	27
2814.82	31
2815.68	26
2816.54	29
2817.41	29
2818.27	28
2819.13	24
2820	24
2820.86	27
2821.72	32
2822.58	22
2823.45	29
2824.31	29
2825.17	22
2826.03	32
2826.9	22
2827.76	26
2828.62	29
2829.48	26
2830.34	25
2831.2	29
2832.06	31
2832.92	32
2833.79	28
2834.65	28
2835.51	28
2836.37	34
2837.23	28
2838.09	27
2838.95	27
2839.81	22
2840.67	24
2841.53	27
2842.39	32
2843.25	29
2844.11	33
2844.97	30
2845.83	30
2846.68	26
2847.54	31
2848.4	25
2849.26	24
2850.12	20
2850.98	26
2851.84	30
2852.69	33
2853.55	29
2854.41	27
2855.27	28
2856.13	26
2856.98	26
2857.84	30
2858.7	27
2859.56	30
2860.41	27
2861.27	29
2862.13	29
2862.98	27
2863.84	28
2864.7	28
2865.55	26
2866.41	33
2867.27	31
2868.12	30
2868.98	26
2869.83	30
2870.69	28
2871.54	31
2872.4	34
2873.25	34
2874.11	30
2874.96	34
2875.82	33
2876.68	32
2877.53	35
2878.38	32
2879.24	36
2880.09	32
2880.95	34
2881.8	28
2882.65	32
2883.51	37
2884.36	37
2885.22	36
2886.07	38
2886.92	40
2887.77	35
2888.63	36
2889.48	32
2890.33	34
2891.19	36
2892.04	40
2892.89	34
2893.74	44
2894.6	46
2895.45	41
2896.3	44
2897.15	44
2898	50
2898.85	48
2899.71	52
2900.56	51
2901.41	58
2902.26	52
2903.11	60
2903.96	61
2904.81	64
2905.66	65
2906.51	67
2907.36	66
2908.21	56
2909.06	68
2909.91	69
2910.76	59
2911.61	57
2912.46	53
2913.31	58
2914.16	48
2915.01	42
2915.86	44
2916.71	42
2917.56	43
2918.41	44
2919.26	37
2920.1	39
2920.95	40
2921.8	36
2922.65	37
2923.5	35
2924.34	38
2925.19	28
2926.04	39
2926.89	30
2927.74	35
2928.58	34
2929.43	33
2930.28	31
2931.12	28
2931.97	32
2932.82	34
2933.66	26
2934.51	30
2935.36	26
2936.2	31
2937.05	34
2937.89	32
2938.74	27
2939.59	32
2940.43	32
2941.28	30
2942.12	34
2942.97	36
2943.81	29
2944.66	28
2945.5	35
2946.35	28
2947.19	31
2948.04	31
2948.88	33
2949.72	28
2950.57	28
2951.41	32
2952.26	32
2953.1	30
2953.94	35
2954.79	28
2955.63	34
2956.47	30
2957.32	37
2958.16	39
2959	35
2959.85	45
2960.69	39
2961.53	45
2962.37	37
2963.22	42
2964.06	45
2964.9	44
2965.74	41
2966.58	43
2967.42	43
2968.27	44
2969.11	40
2969.95	37
2970.79	40
2971.63	34
2972.47	36
2973.31	38
2974.15	40
2974.99	34
2975.83	37
2976.68	34
2977.52	34
2978.36	36
2979.2	38
2980.04	34
2980.88	32
2981.71	35
2982.55	33
2983.39	26
2984.23	29
2985.07	28
2985.91	29
2986.75	27
2987.59	30
2988.43	30
2989.27	28
2990.1	26
2990.94	29
2991.78	29
2992.62	24
2993.46	22
2994.3	27
2995.13	24
2995.97	32
2996.81	30
2997.64	32
2998.48	29
2999.32	31
