#Acq. time (s)=	3
#Accumulations=	3
#Range (cm-¹)=	100...3000
#Windows=	3
#Autofocus=	Off
#AutoExposure=	Off
#Spike filter=	Multiple accum.
#Delay time (s)=	0
#Binning=	1
#Readout mode=	Signal
#DeNoise=	Off
#ICS correction=	Off
#Dark correction=	Off
#Inst. Process=	Off
#Instrument=	LabRAM HR Evol
#Detector=	Syncerity OE
#Objective=	x100_VIS_LWD
#Grating=	600 (500nm)
#ND Filter=	25%
#Laser=	633nm_Edge
#Hole=	100.021
#Range=	Visible
#Project=	Bolus
#Sample=	B3
#Site=	stripside
#Title=	m12
#Remark=	
#Date=	03.11.2025 20:23
#Acquired=	03.11.2025 20:23:00
100.969	26
102.252	34
103.535	40
104.818	41
106.101	32
107.384	44
108.666	38
109.948	32
111.232	32
112.514	36
113.795	30
115.077	34
116.358	35
117.639	38
118.919	34
120.2	35
121.48	37
122.76	40
124.04	40
125.32	38
126.599	40
127.879	36
129.158	37
130.436	34
131.715	39
132.992	34
134.27	42
135.548	44
136.826	36
138.104	40
139.381	38
140.658	42
141.935	44
143.212	39
144.489	40
145.763	43
147.04	48
148.315	40
149.591	49
150.867	48
152.142	41
153.416	42
154.691	44
155.965	44
157.24	42
158.514	50
159.786	49
161.06	44
162.334	36
163.607	49
164.881	42
166.152	38
167.425	49
168.698	43
169.969	42
171.241	48
172.513	38
173.785	43
175.055	46
176.326	41
177.597	46
178.867	44
180.137	43
181.408	44
182.677	42
183.947	52
185.217	49
186.485	42
187.755	50
189.022	42
190.291	42
191.56	36
192.828	49
194.096	44
195.363	44
196.631	48
197.899	43
199.165	47
200.432	44
201.698	44
202.965	40
204.23	36
205.497	44
206.762	42
208.028	41
209.293	46
210.559	44
211.823	45
213.088	40
214.352	45
215.617	45
216.88	36
218.145	45
219.408	44
220.672	42
221.934	38
223.196	42
224.46	36
225.722	38
226.985	36
228.246	35
229.508	38
230.77	40
232.031	39
233.292	45
234.554	34
235.814	41
237.074	36
238.335	38
239.595	42
240.854	36
242.115	38
243.374	40
244.633	41
245.893	40
247.151	36
248.409	35
249.667	34
250.927	36
252.184	37
253.442	39
254.699	37
255.957	36
257.214	42
258.47	36
259.727	39
260.983	36
262.24	36
263.496	32
264.752	39
266.007	42
267.262	49
268.517	38
269.773	38
271.028	37
272.282	40
273.536	36
274.79	32
276.044	38
277.297	34
278.551	32
279.804	35
281.057	37
282.31	43
283.564	32
284.816	36
286.068	37
287.32	34
288.572	38
289.823	40
291.074	38
292.325	38
293.576	35
294.827	38
296.077	34
297.328	42
298.578	40
299.828	40
301.077	35
302.325	46
303.575	30
304.824	34
306.073	39
307.321	38
308.57	36
309.818	41
311.066	37
312.314	35
313.562	36
314.808	39
316.055	38
317.302	39
318.549	37
319.796	32
321.042	38
322.288	38
323.533	42
324.779	40
326.024	38
327.27	31
328.515	44
329.759	39
331.004	39
332.248	36
333.493	40
334.736	46
335.98	40
337.223	34
338.466	35
339.709	36
340.952	40
342.195	34
343.437	34
344.68	38
345.922	30
347.163	35
348.405	37
349.647	42
350.887	38
352.128	41
353.37	35
354.609	46
355.85	40
357.089	41
358.33	38
359.57	40
360.809	38
362.049	36
363.287	38
364.526	41
365.764	31
367.003	36
368.241	37
369.479	36
370.718	41
371.955	37
373.193	40
374.429	34
375.667	34
376.903	34
378.139	37
379.376	30
380.611	37
381.848	36
383.083	36
384.319	42
385.554	40
386.79	37
388.024	43
389.258	34
390.493	30
391.727	37
392.962	32
394.195	40
395.428	41
396.663	37
397.895	26
399.128	38
400.361	34
401.593	47
402.825	32
404.058	44
405.29	32
406.521	43
407.752	24
408.985	36
410.215	34
411.446	39
412.678	37
413.908	42
415.138	37
416.367	40
417.597	37
418.828	30
420.057	36
421.286	39
422.514	39
423.743	34
424.973	38
426.201	35
427.429	39
428.657	30
429.884	43
431.112	40
432.34	38
433.567	40
434.794	39
436.02	32
437.247	42
438.473	43
439.699	40
440.925	36
442.15	45
443.376	38
444.601	36
445.826	35
447.051	36
448.275	34
449.5	36
450.724	34
451.948	42
453.172	38
454.396	42
455.619	38
456.842	37
458.065	38
459.288	40
460.511	42
461.733	45
462.956	42
464.178	36
465.4	40
466.621	38
467.843	32
469.064	37
470.285	40
471.505	46
472.726	45
473.946	44
475.166	41
476.387	38
477.606	48
478.825	47
480.044	54
481.264	50
482.483	52
483.702	56
484.921	52
486.138	61
487.356	62
488.574	67
489.792	60
491.009	66
492.226	60
493.444	56
494.661	66
495.877	63
497.094	50
498.31	50
499.525	52
500.741	52
501.958	48
503.172	49
504.388	49
505.603	44
506.817	48
508.032	47
509.247	46
510.46	48
511.675	46
512.888	45
514.102	48
515.316	45
516.528	46
517.742	45
518.954	42
520.167	39
521.378	38
522.591	38
523.802	38
525.015	37
526.226	36
527.438	41
528.648	32
529.86	35
531.07	46
532.281	39
533.491	42
534.702	36
535.911	44
537.121	36
538.33	37
539.54	34
540.749	36
541.957	40
543.167	40
544.375	44
545.584	38
546.791	41
547.999	41
549.207	39
550.414	41
551.621	40
552.829	38
554.035	36
555.241	38
556.449	37
557.655	39
558.86	40
560.066	40
561.272	34
562.477	40
563.682	40
564.888	40
566.093	36
567.297	32
568.501	33
569.705	34
570.91	36
572.114	36
573.317	38
574.52	37
575.723	37
576.927	38
578.13	40
579.332	38
580.535	37
581.737	36
582.938	38
584.14	34
585.343	38
586.544	32
587.745	39
588.946	38
590.147	40
591.347	32
592.548	40
593.748	38
594.948	36
596.147	37
597.347	36
598.546	39
599.745	39
600.944	32
602.143	39
603.342	37
604.54	36
605.738	34
606.937	50
608.134	43
609.332	34
610.529	36
611.727	39
612.924	40
614.121	43
615.317	34
616.513	41
617.709	40
618.905	32
620.101	36
621.297	36
622.492	36
623.688	43
624.883	40
626.077	36
627.271	39
628.466	38
629.66	42
630.855	41
632.047	35
633.241	37
634.435	41
635.629	39
636.82	41
638.014	37
639.207	40
640.399	41
641.59	39
642.783	38
643.975	38
645.166	42
646.357	39
647.549	38
648.741	40
649.93	36
651.122	37
652.311	38
653.502	32
654.692	40
655.881	41
657.071	39
658.261	40
659.45	42
660.639	34
661.827	41
663.016	39
664.204	38
665.393	41
666.581	38
667.769	41
668.957	42
670.143	36
671.331	42
672.518	42
673.705	36
674.891	44
676.078	46
677.264	39
678.451	42
679.636	39
680.821	43
682.007	41
683.192	41
684.378	44
685.562	47
686.747	45
687.931	43
689.115	42
690.3	46
691.483	40
692.666	42
693.851	40
695.034	41
696.216	44
697.4	47
698.582	45
699.764	46
700.948	47
702.129	44
703.311	50
704.493	50
705.674	51
706.855	57
708.036	48
709.218	57
710.399	58
711.579	57
712.759	51
713.939	52
715.12	44
716.299	46
717.478	48
718.657	40
719.836	42
721.015	35
722.195	41
723.373	32
724.552	39
725.729	40
726.907	38
728.085	36
729.262	39
730.44	36
731.617	38
732.795	34
733.972	36
735.148	41
736.324	38
737.501	45
738.677	38
739.852	34
741.028	34
742.203	35
743.379	39
744.554	39
745.729	39
746.903	36
748.078	34
749.252	36
750.426	39
751.599	32
752.772	34
753.946	46
755.119	36
756.293	39
757.466	32
758.639	38
759.811	37
760.984	36
762.155	34
763.327	34
764.499	36
765.67	42
766.842	38
768.013	34
769.183	32
770.354	42
771.525	38
772.696	37
773.865	35
775.035	37
776.205	36
777.375	36
778.544	34
779.713	40
780.882	39
782.052	42
783.219	36
784.388	43
785.557	42
786.724	38
787.892	41
789.06	43
790.227	38
791.395	40
792.562	42
793.728	38
794.895	40
796.061	39
797.228	40
798.395	38
799.56	38
800.726	37
801.891	37
803.057	41
804.221	40
805.387	36
806.551	34
807.716	36
808.879	36
810.044	37
811.208	39
812.372	38
813.535	40
814.699	35
815.862	39
817.025	38
818.188	40
819.351	41
820.513	33
821.675	33
822.837	37
823.999	39
825.161	34
826.322	38
827.483	39
828.645	36
829.805	39
830.966	37
832.127	37
833.287	37
834.447	34
835.607	42
836.767	32
837.926	40
839.085	36
840.245	33
841.404	42
842.562	36
843.72	35
844.88	37
846.038	36
847.195	38
848.353	40
849.512	40
850.669	38
851.826	36
852.983	34
854.139	35
855.296	36
856.453	35
857.609	36
858.765	40
859.921	42
861.077	44
862.232	36
863.387	38
864.542	40
865.697	34
866.852	38
868.008	36
869.162	37
870.316	34
871.47	34
872.624	39
873.778	43
874.931	40
876.084	40
877.237	34
878.39	41
879.543	39
880.695	34
881.846	40
882.999	40
884.151	36
885.302	32
886.454	35
887.606	35
888.757	38
889.908	34
891.059	38
892.21	40
893.359	38
894.509	36
895.659	33
896.81	30
897.959	38
899.109	35
900.257	35
901.407	37
902.556	33
903.705	33
904.854	33
906.001	34
907.149	37
908.298	40
909.446	33
910.592	39
911.74	36
912.888	37
914.034	36
915.181	33
916.328	35
917.473	35
918.62	32
919.766	37
920.911	32
922.058	36
923.204	38
924.348	39
925.494	36
926.638	34
927.783	37
928.928	39
930.072	38
931.216	36
932.36	32
933.504	34
934.647	30
935.791	36
936.933	36
938.077	36
939.219	36
940.363	39
941.504	35
942.647	38
943.789	29
944.932	39
946.073	39
947.215	33
948.356	37
949.498	35
950.638	38
951.778	35
952.92	35
954.06	34
955.199	36
956.34	36
957.479	32
958.62	31
959.759	34
960.898	35
962.038	36
963.176	38
964.315	40
965.453	36
966.592	34
967.73	32
968.867	38
970.006	34
971.144	36.5
972.281	39
973.418	34
974.554	31
975.692	40
976.829	30
977.965	34
979.101	35
980.237	42
981.374	38
982.509	38
983.645	39
984.78	38
985.915	32
987.05	41
988.184	35
989.319	36
990.453	34
991.589	32
992.722	33
993.856	34
994.99	32
996.123	39
997.257	41
998.39	35
999.523	35
1000.66	29
1001.79	33
1002.92	34
1004.05	40
1005.18	29
1006.32	40
1007.45	36
1008.58	39
1009.71	28
1010.84	34
1011.97	33
1013.1	34
1014.23	39
1015.36	34
1016.49	38
1017.62	30
1018.75	36
1019.88	35
1021.01	38
1022.14	28
1023.27	33
1024.4	34
1025.53	35
1026.66	35
1027.79	35
1028.91	36
1030.04	34
1031.17	34
1032.3	37
1033.42	32
1034.55	38
1035.68	36
1036.81	35
1037.93	30
1039.06	39
1040.18	36
1041.31	36
1042.44	37
1043.56	33
1044.69	32
1045.81	39
1046.94	34
1048.06	36
1049.19	28
1050.31	38
1051.44	29
1052.56	36
1053.69	36
1054.81	24
1055.93	34
1057.06	38
1058.18	38
1059.3	39
1060.43	34
1061.55	31
1062.67	34
1063.79	34
1064.92	30
1066.04	39
1067.16	33
1068.28	34
1069.4	36
1070.52	32
1071.65	31
1072.77	38
1073.89	32
1075.01	34
1076.13	38
1077.25	40
1078.37	33
1079.49	36
1080.61	34
1081.73	35
1082.85	31
1083.97	38
1085.09	38
1086.2	31
1087.32	34
1088.44	36
1089.56	41
1090.68	32
1091.8	34
1092.91	38
1094.03	39
1095.15	37
1096.26	33
1097.38	38
1098.5	36
1099.61	42
1100.73	35
1101.85	32
1102.96	36
1104.08	36
1105.19	32
1106.31	31
1107.43	28
1108.54	34
1109.66	36
1110.77	36
1111.88	34
1113	38
1114.11	34
1115.23	33
1116.34	37
1117.46	35
1118.57	34
1119.68	32
1120.8	34
1121.91	33
1123.02	32
1124.13	35
1125.25	35
1126.36	34
1127.47	31
1128.58	32
1129.69	38
1130.8	34
1131.92	36
1133.03	32
1134.14	31
1135.25	35
1136.36	35
1137.47	35
1138.58	29
1139.69	28
1140.8	33
1141.91	35
1143.02	40
1144.13	30
1145.24	34
1146.35	38
1147.46	28
1148.56	30
1149.67	34
1150.78	40
1151.89	34
1153	34
1154.1	32
1155.21	38
1156.32	38
1157.43	34
1158.53	35
1159.64	33
1160.75	35
1161.85	28
1162.96	34
1164.07	28
1165.17	37
1166.28	34
1167.38	40
1168.49	35
1169.59	36
1170.7	30
1171.8	32
1172.91	34
1174.01	34
1175.12	34
1176.22	34
1177.32	31
1178.43	34
1179.53	34
1180.64	24
1181.74	30
1182.84	36
1183.94	38
1185.05	36
1186.15	35
1187.25	41
1188.35	33
1189.46	26
1190.56	38
1191.66	39
1192.76	36
1193.86	29
1194.96	34
1196.06	33.9755
1197.16	32.9163
1198.26	40.7558
1199.37	34.9428
1200.47	35.775
1201.57	34.6716
1202.67	35.4212
1203.77	34.3382
1204.86	27.8333
1205.96	35.1668
1207.06	33.3824
1208.16	34.3274
1209.26	31.6922
1210.36	33.5398
1211.46	31.714
1212.56	33.0882
1213.65	33.9474
1214.75	36.3722
1215.85	31.8297
1216.95	30.4945
1218.04	34.2065
1219.14	31.282
1220.24	33.8495
1221.33	33.6638
1222.43	34.4978
1223.53	30.5494
1224.62	31.249
1225.72	30.9216
1226.82	33.3994
1227.91	34.5268
1229.01	34.083
1230.1	30.6596
1231.2	33.6099
1232.29	30.6569
1233.39	32.4989
1234.48	32.5196
1235.58	30.2051
1236.67	31.935
1237.77	31.6126
1238.86	30.7204
1239.95	31.315
1241.05	30.8824
1242.14	31.3775
1243.23	30.5349
1244.33	31.1311
1245.42	30.4008
1246.51	29.8009
1247.61	30
1248.7	35.685
1249.79	31.3971
1250.88	32.3156
1251.97	31.8703
1253.07	34.3895
1254.16	31.8427
1255.25	33.3379
1256.34	31.4924
1257.43	32.4005
1258.52	31.0882
1259.61	32.0187
1260.7	29.3345
1261.79	34.032
1262.88	34.4794
1263.97	31.7663
1265.06	33.4568
1266.15	32.1385
1267.24	30.7453
1268.33	30.3952
1269.42	32.3382
1270.51	33.322
1271.6	29.7505
1272.68	29.6611
1273.77	32.7859
1274.86	31.5534
1275.95	33.918
1277.04	30.0802
1278.12	33.7402
1279.21	33.8489
1280.3	33.8702
1281.39	33.409
1282.47	30.4445
1283.56	27.6217
1284.65	26.6558
1285.73	30.1038
1286.82	28.7255
1287.91	30.1805
1288.99	34.1921
1290.08	31.5467
1291.16	30.3002
1292.25	29.256
1293.33	28.7997
1294.42	22.6466
1295.5	29.5547
1296.59	28.2831
1297.67	31.2993
1298.76	32.1932
1299.84	27.3136
1300.92	33.9461
1302.01	33.769
1303.09	31.4327
1304.17	26.9471
1305.26	34.2905
1306.34	27.3634
1307.34	31
1308.43	30
1309.52	32
1310.61	32
1311.7	32
1312.78	31
1313.87	24
1314.96	20
1316.04	27
1317.13	26
1318.22	27
1319.3	29
1320.39	32
1321.48	32
1322.56	29
1323.65	30
1324.73	27
1325.82	34
1326.9	34
1327.99	30
1329.07	26
1330.16	28
1331.24	26
1332.33	32
1333.41	26
1334.5	28
1335.58	31
1336.66	28
1337.75	28
1338.83	30
1339.91	20
1341	37
1342.08	27
1343.16	31
1344.24	33
1345.33	36
1346.41	37
1347.49	32
1348.57	27
1349.65	28
1350.74	26
1351.82	30
1352.9	30
1353.98	28
1355.06	31
1356.14	25
1357.22	29
1358.3	32
1359.38	30
1360.46	32
1361.54	33
1362.62	29
1363.7	32
1364.78	27
1365.86	33
1366.94	27
1368.02	22
1369.09	35
1370.17	28
1371.25	30
1372.33	30
1373.41	26
1374.48	34
1375.56	28
1376.64	28
1377.72	25
1378.79	36
1379.87	35
1380.95	32
1382.02	29
1383.1	32
1384.17	28
1385.25	28
1386.33	34
1387.4	36
1388.48	31
1389.55	32
1390.63	31
1391.7	28
1392.78	32
1393.85	32
1394.93	36
1396	31
1397.07	37
1398.15	36
1399.22	31
1400.3	35
1401.37	30
1402.44	32
1403.52	33
1404.59	36
1405.66	42
1406.73	36
1407.81	42
1408.88	34
1409.95	35
1411.02	34
1412.09	40
1413.17	30
1414.24	34
1415.31	37
1416.38	35
1417.45	38
1418.52	35
1419.59	38
1420.66	35
1421.73	35
1422.8	26
1423.87	32
1424.94	33
1426.01	30
1427.08	34
1428.15	31
1429.22	33
1430.29	32
1431.35	31
1432.42	32
1433.49	30
1434.56	32
1435.63	28
1436.69	31
1437.76	32
1438.83	34
1439.9	32
1440.96	31
1442.03	34
1443.1	33
1444.17	31
1445.23	33
1446.3	32
1447.36	34
1448.43	35
1449.49	30
1450.56	30
1451.63	36
1452.69	29
1453.76	30
1454.82	33
1455.89	36
1456.95	28
1458.01	34
1459.08	32
1460.14	34
1461.21	33
1462.27	31
1463.34	38
1464.4	31
1465.46	30
1466.52	31
1467.59	29
1468.65	29
1469.71	32
1470.77	34
1471.84	37
1472.9	29
1473.96	30
1475.02	31
1476.08	32
1477.15	28
1478.21	36
1479.27	31
1480.33	26
1481.39	32
1482.45	28
1483.51	30
1484.57	28
1485.63	36
1486.69	31
1487.75	34
1488.81	31
1489.87	35
1490.93	34
1491.99	34
1493.05	29
1494.1	30
1495.16	34
1496.22	29
1497.28	34
1498.34	28
1499.4	30
1500.45	29
1501.51	31
1502.57	33
1503.63	33
1504.68	30
1505.74	33
1506.8	28
1507.85	27
1508.91	34
1509.97	35
1511.02	36
1512.08	30
1513.13	30
1514.19	33
1515.24	33
1516.3	32
1517.35	35
1518.41	32
1519.46	33
1520.52	24
1521.57	34
1522.63	34
1523.68	30
1524.73	24
1525.79	32
1526.84	26
1527.9	33
1528.95	29
1530	22
1531.05	20
1532.11	34
1533.16	37
1534.21	32
1535.26	32
1536.32	30
1537.37	28
1538.42	30
1539.47	34
1540.52	31
1541.57	30
1542.63	35
1543.68	36
1544.73	30
1545.78	29
1546.83	31
1547.88	31
1548.93	29
1549.98	34
1551.03	33
1552.08	30
1553.13	31
1554.18	32
1555.23	26
1556.27	34
1557.32	34
1558.37	30
1559.42	33
1560.47	26
1561.52	34
1562.56	29
1563.61	40
1564.66	32
1565.71	33
1566.75	29
1567.8	32
1568.85	28
1569.9	30
1570.94	22
1571.99	30
1573.03	29
1574.08	28
1575.13	36
1576.17	34
1577.22	28
1578.26	30
1579.31	30
1580.35	28
1581.4	29
1582.44	29
1583.49	34
1584.53	34
1585.58	29
1586.62	30
1587.66	34
1588.71	27
1589.75	33
1590.8	31
1591.84	32
1592.88	30
1593.92	30
1594.97	30
1596.01	30
1597.05	32
1598.1	36
1599.14	33
1600.18	34
1601.22	31
1602.26	29
1603.3	32
1604.35	30
1605.39	32
1606.43	28
1607.47	34
1608.51	30
1609.55	28
1610.59	31
1611.63	33
1612.67	28
1613.71	31
1614.75	32
1615.79	33
1616.83	37
1617.87	26
1618.91	37
1619.95	37
1620.99	34
1622.02	30
1623.06	27
1624.1	32
1625.14	34
1626.18	32
1627.21	24
1628.25	32
1629.29	32
1630.33	31
1631.36	27
1632.4	30
1633.44	32
1634.48	32
1635.51	30
1636.55	34
1637.58	32
1638.62	30
1639.66	36
1640.69	26
1641.73	28
1642.76	26
1643.8	26
1644.83	27
1645.87	30
1646.9	32
1647.94	30
1648.97	31
1650	32
1651.04	32
1652.07	33
1653.11	32
1654.14	32
1655.17	33
1656.21	28
1657.24	28
1658.27	32
1659.31	33
1660.34	34
1661.37	28
1662.4	32
1663.43	34
1664.47	32
1665.5	34
1666.53	34
1667.56	37
1668.59	32
1669.62	27
1670.66	30
1671.69	37
1672.72	32
1673.75	28
1674.78	30
1675.81	30
1676.84	26
1677.87	34
1678.9	32
1679.93	30
1680.96	32
1681.98	28
1683.01	37
1684.04	31
1685.07	32
1686.1	32
1687.13	28
1688.16	30
1689.18	32
1690.21	30
1691.24	33
1692.27	33
1693.3	37
1694.32	32
1695.35	34
1696.38	26
1697.4	27
1698.43	33
1699.46	32
1700.48	30
1701.51	28
1702.54	35
1703.56	32
1704.59	33
1705.61	30
1706.64	30
1707.66	30
1708.69	29
1709.71	26
1710.74	33
1711.76	32
1712.79	30
1713.81	28
1714.83	33
1715.86	32
1716.88	30
1717.91	28
1718.93	36
1719.95	36
1720.98	26
1722	34
1723.02	30
1724.04	26
1725.07	30
1726.09	26
1727.11	28
1728.13	32
1729.15	34
1730.18	32
1731.2	29
1732.22	28
1733.24	27
1734.26	31
1735.28	36
1736.3	31
1737.32	34
1738.34	28
1739.36	35
1740.38	32
1741.4	30
1742.42	30
1743.44	29
1744.46	26
1745.48	30
1746.5	28
1747.52	27
1748.54	32
1749.56	32
1750.58	32
1751.6	32
1752.61	35
1753.63	24
1754.65	30
1755.67	29
1756.68	28
1757.7	26
1758.72	32
1759.74	33
1760.75	22
1761.77	34
1762.79	30
1763.8	33
1764.82	28
1765.83	28
1766.85	32
1767.87	31
1768.88	28
1769.9	37
1770.91	30
1771.93	35
1772.94	29
1773.96	34
1774.97	31
1775.99	26
1777	33
1778.02	29
1779.03	31
1780.04	34
1781.06	30
1782.07	30
1783.09	29
1784.1	31
1785.11	34
1786.13	30
1787.14	26
1788.15	34
1789.16	33
1790.18	35
1791.19	33
1792.2	34
1793.21	30
1794.22	26
1795.23	33
1796.25	29
1797.26	29
1798.27	31
1799.28	32
1800.29	30
1801.3	30
1802.31	35
1803.32	33
1804.33	34
1805.34	28
1806.35	29
1807.36	32
1808.37	26
1809.38	34
1810.39	34
1811.4	29
1812.41	28
1813.42	33
1814.42	32
1815.43	33
1816.44	33
1817.45	25
1818.46	28
1819.47	32
1820.47	32
1821.48	34
1822.49	32
1823.49	32
1824.5	34
1825.51	30
1826.52	32
1827.52	33
1828.53	31
1829.53	33
1830.54	32
1831.55	34
1832.55	30
1833.56	32
1834.56	27
1835.57	30
1836.57	30
1837.58	28
1838.58	28
1839.59	30
1840.59	30
1841.6	28
1842.6	34
1843.61	33
1844.61	32
1845.61	32
1846.62	24
1847.62	29
1848.62	29
1849.63	27
1850.63	26
1851.63	34
1852.64	32
1853.64	32
1854.64	31
1855.64	32
1856.64	30
1857.65	30
1858.65	30
1859.65	36
1860.65	32
1861.65	33
1862.65	30
1863.65	30
1864.66	26
1865.66	28
1866.66	34
1867.66	31
1868.66	24
1869.66	27
1870.66	33
1871.66	30
1872.66	26
1873.66	32
1874.66	30
1875.65	29
1876.65	30
1877.65	30
1878.65	29
1879.65	29
1880.65	26
1881.65	33
1882.64	32
1883.64	30
1884.64	28
1885.64	30
1886.63	28
1887.63	32
1888.63	28
1889.63	30
1890.62	33
1891.62	34
1892.62	32
1893.61	26
1894.61	34
1895.6	30
1896.6	29
1897.6	30
1898.59	30
1899.59	27
1900.58	30
1901.58	32
1902.57	31
1903.57	34
1904.56	31
1905.56	26
1906.55	29
1907.54	32
1908.54	26
1909.53	34
1910.53	31
1911.52	28
1912.51	33
1913.51	28
1914.5	28
1915.49	24
1916.49	34
1917.48	30
1918.47	30
1919.46	31
1920.46	31
1921.45	32
1922.44	30
1923.43	30
1924.42	31
1925.41	28
1926.41	30
1927.4	24
1928.39	34
1929.38	31
1930.37	31
1931.36	31
1932.35	31
1933.34	32
1934.33	26
1935.32	28
1936.31	24
1937.3	27
1938.29	26
1939.28	33
1940.27	39
1941.26	33
1942.24	33
1943.23	24
1944.22	27
1945.21	26
1946.2	29
1947.19	30
1948.17	29
1949.16	30
1950.15	31
1951.14	32
1952.12	33
1953.11	29
1954.1	31
1955.09	29
1956.07	28
1957.06	33
1958.05	29
1959.03	34
1960.02	36
1961	30
1961.99	33
1962.98	26
1963.96	29
1964.95	27
1965.93	30
1966.92	30
1967.9	31
1968.89	33
1969.87	30
1970.85	33
1971.84	28
1972.82	28
1973.81	32
1974.79	30
1975.78	30
1976.76	30
1977.74	33
1978.73	32
1979.71	28
1980.69	30
1981.67	27
1982.66	29
1983.64	22
1984.62	31
1985.6	27
1986.59	32
1987.57	30
1988.55	28
1989.53	28
1990.51	30
1991.49	24
1992.47	26
1993.45	26
1994.44	27
1995.42	29
1996.4	28
1997.38	26
1998.36	30
1999.34	26
2000.32	27
2001.3	28
2002.28	30
2003.26	32
2004.24	31
2005.22	30
2006.19	27
2007.17	30
2008.15	29
2009.13	25
2010.11	36
2011.09	27
2012.06	26
2013.04	32
2014.02	28
2015	34
2015.98	27
2016.95	31
2017.93	28
2018.91	31
2019.88	29
2020.86	28
2021.84	36
2022.81	30
2023.79	28
2024.77	33
2025.74	29
2026.72	24
2027.69	28
2028.67	26
2029.65	28
2030.62	29
2031.6	24
2032.57	26
2033.55	30
2034.52	30
2035.5	26
2036.47	28
2037.44	30
2038.42	32
2039.39	32
2040.36	28
2041.34	33
2042.31	33
2043.29	27
2044.26	26
2045.23	29
2046.2	26
2047.18	31
2048.15	27
2049.12	28
2050.09	26
2051.07	30
2052.04	34
2053.01	30
2053.98	35
2054.95	34
2055.93	26
2056.9	26
2057.87	30
2058.84	28
2059.81	28
2060.78	32
2061.75	34
2062.72	29
2063.69	30
2064.66	33
2065.63	28
2066.6	26
2067.57	31
2068.54	26
2069.51	30
2070.48	32
2071.45	29
2072.42	26
2073.38	26
2074.35	27
2075.32	28
2076.29	27
2077.26	25
2078.23	28
2079.19	28
2080.16	30
2081.13	28
2082.1	33
2083.06	31
2084.03	29
2085	27
2085.96	34
2086.93	32
2087.9	29
2088.86	26
2089.83	26
2090.8	30
2091.76	27
2092.73	27
2093.69	29
2094.66	36
2095.62	33
2096.59	27
2097.55	29
2098.52	29
2099.48	30
2100.45	22
2101.41	28
2102.38	25
2103.34	24
2104.31	34
2105.27	27
2106.23	22
2107.2	30
2108.16	27
2109.12	27
2110.09	26
2111.05	24
2112.01	30
2112.98	26
2113.94	25
2114.9	30
2115.86	27
2116.82	32
2117.79	27
2118.75	31
2119.71	28
2120.67	28
2121.63	30
2122.59	27
2123.55	30
2124.52	30
2125.48	27
2126.44	30
2127.4	30
2128.36	32
2129.32	27
2130.28	26
2131.24	27
2132.2	26
2133.16	29
2134.12	27
2135.08	28
2136.04	30
2136.99	26
2137.95	32
2138.91	29
2139.87	29
2140.83	33
2141.79	28
2142.75	24
2143.7	26
2144.66	26
2145.62	27.9864
2146.58	29.8383
2147.53	24.1205
2148.49	31.8655
2149.45	29.9423
2150.41	27.8421
2151.36	26.0042
2152.32	27.9132
2153.27	24.0232
2154.23	21.7209
2155.19	25.7751
2156.14	31.5577
2157.1	27.6279
2158.06	25.7434
2159.01	29.4314
2159.97	26.848
2160.92	31.0244
2161.88	26.4926
2162.83	29.6383
2163.79	29.8088
2164.74	31.396
2165.7	28.6914
2166.65	27.54
2167.61	27.0877
2168.56	27.5077
2169.51	26.5074
2170.47	29.4536
2171.42	30.2371
2172.38	26.5166
2173.33	24.8389
2174.28	25.7335
2175.24	29.7275
2176.19	28.0649
2177.14	26
2178.09	28.9243
2179.05	24.138
2180	24
2180.95	25.3367
2181.9	28
2182.86	26.9551
2183.81	25.8506
2184.76	24.5931
2185.71	27.07
2186.66	30.5441
2187.61	27.0915
2188.57	31.7659
2189.52	27.1599
2190.47	26.9314
2191.42	27.4755
2192.37	27.1764
2193.32	28.0196
2194.27	27.125
2195.22	27.513
2196.17	28.0335
2197.12	28.1373
2198.07	27.7971
2199.02	27.9282
2199.97	26.7099
2200.92	29.5276
2201.87	29.4514
2202.82	29.6539
2203.76	27.1794
2204.71	25.2474
2205.66	24.2048
2206.61	25.9827
2207.56	27.0403
2208.51	29.3922
2209.45	27.824
2210.4	26.8532
2211.35	25.3307
2212.3	25.2353
2213.24	28.8851
2214.19	26.7077
2215.14	26.7575
2216.09	27.0523
2217.03	28.5291
2217.98	27.7175
2218.93	28.1639
2219.87	28.4636
2220.82	28.2206
2221.77	23.0139
2222.71	26.7842
2223.66	25.3737
2224.6	27.8422
2225.55	29.1039
2226.49	31.7759
2227.44	28.1684
2228.38	26
2229.33	27.386
2230.27	25.0108
2231.22	24.9031
2232.16	28.3439
2233.11	25.8349
2234.05	27.4867
2235	28.6391
2235.94	25.7103
2236.88	25.2543
2237.83	25.9118
2238.77	28.2289
2239.71	27.6514
2240.66	29.4561
2241.6	28.5211
2242	26
2242.95	27
2243.9	23
2244.84	30
2245.79	29
2246.74	26
2247.69	27
2248.63	26
2249.58	30
2250.53	28
2251.47	27
2252.42	24
2253.37	26
2254.31	31
2255.26	23
2256.2	24
2257.15	26
2258.1	24
2259.04	29
2259.99	30
2260.93	31
2261.88	28
2262.82	25
2263.77	30
2264.71	28
2265.65	26
2266.6	28
2267.54	26
2268.49	25
2269.43	29
2270.38	32
2271.32	29
2272.26	28
2273.21	29
2274.15	28
2275.09	28
2276.04	26
2276.98	26
2277.92	26
2278.86	28
2279.81	28
2280.75	22
2281.69	31
2282.63	29
2283.57	30
2284.52	28
2285.46	28
2286.4	26
2287.34	28
2288.28	28
2289.22	26
2290.16	29
2291.1	26
2292.04	26
2292.98	24
2293.93	32
2294.86	26
2295.8	28
2296.74	28
2297.69	28
2298.62	26
2299.56	28
2300.5	27
2301.44	24
2302.38	28
2303.32	24
2304.26	26
2305.2	23
2306.14	23
2307.07	30
2308.01	28
2308.95	30
2309.89	26
2310.83	22
2311.76	32
2312.7	28
2313.64	32
2314.58	30
2315.51	29
2316.45	24
2317.39	28
2318.32	32
2319.26	27
2320.2	33
2321.13	28
2322.07	35
2323	29
2323.94	31
2324.88	26
2325.81	31
2326.75	22
2327.68	28
2328.62	30
2329.55	28
2330.49	27
2331.42	29
2332.36	27
2333.29	24
2334.22	26
2335.16	30
2336.09	34
2337.03	32
2337.96	28
2338.89	33
2339.83	26
2340.76	28
2341.69	27
2342.63	30
2343.56	26
2344.49	29
2345.43	32
2346.36	30
2347.29	28
2348.22	24
2349.15	31
2350.09	29
2351.02	29
2351.95	30
2352.88	25
2353.81	28
2354.74	31
2355.67	28
2356.61	30
2357.54	30
2358.47	30
2359.4	29
2360.33	28
2361.26	28
2362.19	26
2363.12	30
2364.05	29
2364.98	30
2365.91	28
2366.84	29
2367.77	24
2368.7	32
2369.62	27
2370.55	29
2371.48	32
2372.41	33
2373.34	24
2374.27	30
2375.2	29
2376.12	24
2377.05	29
2377.98	29
2378.91	27
2379.83	30
2380.76	24
2381.69	28
2382.62	26
2383.54	26
2384.47	26
2385.4	28
2386.32	20
2387.25	26
2388.18	33
2389.1	29
2390.03	26
2390.95	32
2391.88	25
2392.81	28
2393.73	25
2394.66	22
2395.58	31
2396.51	24
2397.43	27
2398.36	27
2399.28	32
2400.2	28
2401.13	36
2402.05	29
2402.98	31
2403.9	31
2404.83	26
2405.75	25
2406.67	24
2407.6	27
2408.52	26
2409.44	24
2410.37	32
2411.29	30
2412.21	34
2413.13	30
2414.06	28
2414.98	22
2415.9	26
2416.82	27
2417.74	32
2418.67	22
2419.59	28
2420.51	30
2421.43	27
2422.35	29
2423.27	30
2424.19	31
2425.11	32
2426.03	25
2426.96	28
2427.88	30
2428.8	32
2429.72	29
2430.64	24
2431.56	26
2432.48	26
2433.39	30
2434.31	26
2435.23	31
2436.15	27
2437.07	28
2437.99	28
2438.91	39
2439.83	32
2440.75	31
2441.67	30
2442.58	26
2443.5	34
2444.42	27
2445.34	27
2446.26	30
2447.17	29
2448.09	29
2449.01	31
2449.92	28
2450.84	26
2451.76	27
2452.68	27
2453.59	29
2454.51	29
2455.42	26
2456.34	24
2457.26	28
2458.17	27
2459.09	30
2460	28
2460.92	28
2461.83	29
2462.75	26
2463.66	30
2464.58	24
2465.49	28
2466.41	28
2467.32	31
2468.24	30
2469.15	22
2470.07	30
2470.98	31
2471.89	32
2472.81	31
2473.72	30
2474.64	24
2475.55	31
2476.46	29
2477.37	32
2478.29	26
2479.2	31
2480.11	27
2481.03	25
2481.94	29
2482.85	30
2483.76	31
2484.67	29
2485.59	31
2486.5	30
2487.41	29
2488.32	29
2489.23	26
2490.14	28
2491.05	26
2491.97	24
2492.88	26
2493.79	28
2494.7	33
2495.61	32
2496.52	27
2497.43	32
2498.34	28
2499.25	32
2500.16	28
2501.07	28
2501.98	29
2502.89	34
2503.79	30
2504.7	28
2505.61	28
2506.52	28
2507.43	28
2508.34	29
2509.25	27
2510.16	30
2511.06	25
2511.97	32
2512.88	29
2513.79	31
2514.69	30
2515.6	24
2516.51	31
2517.42	30
2518.32	29
2519.23	24
2520.14	32
2521.04	28
2521.95	26
2522.86	27
2523.76	32
2524.67	34
2525.57	32
2526.48	27
2527.39	30
2528.29	31
2529.2	22
2530.1	32
2531.01	29
2531.91	30
2532.82	26
2533.72	34
2534.63	27
2535.53	28
2536.44	22
2537.34	29
2538.24	29
2539.15	30
2540.05	30
2540.96	27
2541.86	26
2542.76	31
2543.67	26
2544.57	30
2545.47	32
2546.37	26
2547.28	28
2548.18	24
2549.08	24
2549.99	32
2550.89	29
2551.79	30
2552.69	26
2553.59	32
2554.49	30
2555.4	35
2556.3	32
2557.2	29
2558.1	30
2559	30
2559.9	30
2560.8	16
2561.7	32
2562.6	30
2563.5	31
2564.4	29
2565.3	24
2566.2	28
2567.1	27
2568	28
2568.9	28
2569.8	29
2570.7	30
2571.6	25
2572.5	32
2573.4	31
2574.3	32
2575.2	28
2576.1	26
2576.99	26
2577.89	31
2578.79	21
2579.69	34
2580.59	32
2581.48	30
2582.38	30
2583.28	30
2584.18	32
2585.07	26
2585.97	32
2586.87	26
2587.76	24
2588.66	26
2589.56	24
2590.45	30
2591.35	32
2592.25	28
2593.14	26
2594.04	32
2594.93	30
2595.83	28
2596.73	29
2597.62	28
2598.52	32
2599.41	26
2600.31	30
2601.2	31
2602.1	32
2602.99	29
2603.88	28
2604.78	32
2605.67	26
2606.57	31
2607.46	30
2608.35	28
2609.25	26
2610.14	30
2611.03	22
2611.93	26
2612.82	24
2613.71	26
2614.61	29
2615.5	26
2616.39	28
2617.29	32
2618.18	26
2619.07	30
2619.96	30
2620.85	30
2621.75	30
2622.64	30
2623.53	26
2624.42	30
2625.31	29
2626.2	26
2627.09	28
2627.98	34
2628.88	28
2629.77	34
2630.66	28
2631.55	26
2632.44	31
2633.33	26
2634.22	24
2635.11	32
2636	26
2636.89	28
2637.78	31
2638.66	32
2639.55	27
2640.44	30
2641.33	26
2642.22	30
2643.11	29
2644	22
2644.89	29
2645.78	30
2646.66	30
2647.55	32
2648.44	30
2649.33	28
2650.21	31
2651.1	28
2651.99	27
2652.88	33
2653.76	22
2654.65	31
2655.54	29
2656.42	28
2657.31	30
2658.2	29
2659.08	24
2659.97	27
2660.86	26
2661.74	29
2662.63	27
2663.51	30
2664.4	24
2665.29	26
2666.17	30
2667.06	32
2667.94	27
2668.83	28
2669.71	28
2670.6	28
2671.48	25
2672.36	28
2673.25	26
2674.13	29
2675.02	28
2675.9	26
2676.78	26
2677.67	30
2678.55	26
2679.43	24
2680.32	26
2681.2	32
2682.08	29
2682.97	32
2683.85	28
2684.73	28
2685.61	31
2686.5	26
2687.38	27
2688.26	26
2689.14	29
2690.03	25
2690.91	27
2691.79	29
2692.67	33
2693.55	30
2694.43	27
2695.31	24
2696.19	27
2697.08	27
2697.96	29
2698.84	32
2699.72	28
2700.6	31
2701.48	24
2702.36	26
2703.24	26
2704.12	29
2705	32
2705.88	28
2706.76	27
2707.64	31
2708.51	30
2709.39	28
2710.27	31
2711.15	22
2712.03	32
2712.91	24
2713.79	29
2714.67	30
2715.54	28
2716.42	28
2717.3	32
2718.18	31
2719.05	32
2719.93	32
2720.81	31
2721.69	30
2722.56	26
2723.44	27
2724.32	24
2725.19	28
2726.07	28
2726.95	28
2727.82	28
2728.7	35
2729.58	34
2730.45	26
2731.33	31
2732.2	28
2733.08	31
2733.95	26
2734.83	28
2735.7	31
2736.58	31
2737.45	25
2738.33	24
2739.2	31
2740.08	25
2740.95	22
2741.83	28
2742.7	32
2743.58	28
2744.45	27
2745.32	29
2746.2	31
2747.07	29
2747.94	30
2748.82	32
2749.69	30
2750.56	30
2751.44	25
2752.31	32
2753.18	26
2754.05	27
2754.93	29
2755.8	30
2756.67	26
2757.54	26
2758.42	28
2759.29	30
2760.16	24
2761.03	26
2761.9	31
2762.77	25
2763.64	29
2764.51	22
2765.38	30
2766.26	29
2767.13	28
2768	28
2768.87	28
2769.74	29
2770.61	28
2771.48	31
2772.35	30
2773.22	28
2774.09	34
2774.96	29
2775.83	27
2776.7	31
2777.56	25
2778.43	30
2779.3	22
2780.17	26
2781.04	28
2781.91	33
2782.78	29
2783.64	24
2784.51	24
2785.38	30
2786.25	27
2787.12	26
2787.98	28
2788.85	30
2789.72	28
2790.59	29
2791.45	32
2792.32	24
2793.19	34
2794.05	33
2794.92	26
2795.79	32
2796.65	30
2797.52	33
2798.38	26
2799.25	26
2800.12	24
2800.98	29
2801.85	25
2802.71	30
2803.58	29
2804.44	28
2805.31	27
2806.17	32
2807.04	29
2807.9	28
2808.77	27
2809.63	33
2810.5	25
2811.36	28
2812.22	30
2813.09	28
2813.95	30
2814.82	30
2815.68	25
2816.54	26
2817.41	26
2818.27	28
2819.13	26
2820	29
2820.86	29
2821.72	32
2822.58	32
2823.45	31
2824.31	24
2825.17	32
2826.03	28
2826.9	25
2827.76	34
2828.62	31
2829.48	31
2830.34	26
2831.2	33
2832.06	33
2832.92	26
2833.79	27
2834.65	32
2835.51	21
2836.37	30
2837.23	24
2838.09	33
2838.95	33
2839.81	27
2840.67	30
2841.53	29
2842.39	29
2843.25	30
2844.11	30
2844.97	35
2845.83	27
2846.68	29
2847.54	31
2848.4	31
2849.26	30
2850.12	33
2850.98	29
2851.84	30
2852.69	26
2853.55	26
2854.41	30
2855.27	33
2856.13	30
2856.98	24
2857.84	33
2858.7	28
2859.56	28
2860.41	24
2861.27	27
2862.13	30
2862.98	32
2863.84	28
2864.7	30
2865.55	28
2866.41	31
2867.27	28
2868.12	34
2868.98	28
2869.83	28
2870.69	29
2871.54	30
2872.4	31
2873.25	28
2874.11	29
2874.96	34
2875.82	33
2876.68	36
2877.53	28
2878.38	34
2879.24	30
2880.09	24
2880.95	32
2881.8	30
2882.65	30
2883.51	31
2884.36	37
2885.22	34
2886.07	40
2886.92	34
2887.77	36
2888.63	34
2889.48	35
2890.33	38
2891.19	36
2892.04	34
2892.89	42
2893.74	38
2894.6	37
2895.45	46
2896.3	48
2897.15	42
2898	47
2898.85	49
2899.71	50
2900.56	55
2901.41	53
2902.26	58
2903.11	60
2903.96	60
2904.81	64
2905.66	62
2906.51	58
2907.36	66
2908.21	66
2909.06	57
2909.91	58
2910.76	56
2911.61	58
2912.46	52
2913.31	51
2914.16	57
2915.01	40
2915.86	43
2916.71	44
2917.56	44
2918.41	40
2919.26	38
2920.1	40
2920.95	37
2921.8	32
2922.65	34
2923.5	34
2924.34	33
2925.19	34
2926.04	29
2926.89	32
2927.74	31
2928.58	30
2929.43	32
2930.28	30
2931.12	32
2931.97	31
2932.82	31
2933.66	29
2934.51	32
2935.36	29
2936.2	30
2937.05	28
2937.89	29
2938.74	34
2939.59	28
2940.43	30
2941.28	30
2942.12	30
2942.97	30
2943.81	32
2944.66	31
2945.5	31
2946.35	32
2947.19	34
2948.04	36
2948.88	26
2949.72	30
2950.57	30
2951.41	31
2952.26	33
2953.1	30
2953.94	37
2954.79	36
2955.63	36
2956.47	34
2957.32	36
2958.16	33
2959	30
2959.85	42
2960.69	38
2961.53	40
2962.37	40
2963.22	40
2964.06	39
2964.9	40
2965.74	41
2966.58	43
2967.42	45
2968.27	42
2969.11	42
2969.95	42
2970.79	38
2971.63	43
2972.47	44
2973.31	39
2974.15	32
2974.99	36
2975.83	37
2976.68	35
2977.52	33
2978.36	32
2979.2	31
2980.04	29
2980.88	31
2981.71	31
2982.55	34
2983.39	32
2984.23	32
2985.07	28
2985.91	30
2986.75	30
2987.59	33
2988.43	32
2989.27	32
2990.1	28
2990.94	28
2991.78	28
2992.62	24
2993.46	28
2994.3	29
2995.13	28
2995.97	22
2996.81	28
2997.64	27
2998.48	33
2999.32	31
