#Acq. time (s)=	3
#Accumulations=	3
#Range (cm-¹)=	100...3000
#Windows=	3
#Autofocus=	Off
#AutoExposure=	Off
#Spike filter=	Multiple accum.
#Delay time (s)=	0
#Binning=	1
#Readout mode=	Signal
#DeNoise=	Off
#ICS correction=	Off
#Dark correction=	Off
#Inst. Process=	Off
#Instrument=	LabRAM HR Evol
#Detector=	Syncerity OE
#Objective=	x100_VIS_LWD
#Grating=	600 (500nm)
#ND Filter=	25%
#Laser=	633nm_Edge
#Hole=	100.021
#Range=	Visible
#Project=	Bolus
#Sample=	B3
#Site=	stripside
#Title=	m01
#Remark=	
#Date=	03.11.2025 20:08
#Acquired=	03.11.2025 20:08:48
100.969	28
102.252	32
103.535	32
104.818	26
106.101	32
107.384	32
108.666	31
109.948	31
111.232	29
112.514	35
113.795	29
115.077	30
116.358	29
117.639	35
118.919	32
120.2	30
121.48	24
122.76	32
124.04	24
125.32	30
126.599	28
127.879	27
129.158	34
130.436	29
131.715	33
132.992	28
134.27	31
135.548	31
136.826	30
138.104	30
139.381	33
140.658	34
141.935	34
143.212	24
144.489	34
145.763	32
147.04	39
148.315	34
149.591	30
150.867	33
152.142	34
153.416	30
154.691	35
155.965	36
157.24	34
158.514	26
159.786	33
161.06	36
162.334	32
163.607	39
164.881	32
166.152	28
167.425	34
168.698	40
169.969	36
171.241	30
172.513	34
173.785	38
175.055	35
176.326	30
177.597	35
178.867	42
180.137	34
181.408	36
182.677	28
183.947	38
185.217	31
186.485	35
187.755	37
189.022	26
190.291	37
191.56	26
192.828	36
194.096	35
195.363	37
196.631	29
197.899	33
199.165	34
200.432	32
201.698	32
202.965	34
204.23	30
205.497	38
206.762	32
208.028	34
209.293	30
210.559	30
211.823	36
213.088	31
214.352	30
215.617	32
216.88	31
218.145	38
219.408	31
220.672	28
221.934	28
223.196	26
224.46	28
225.722	28
226.985	30
228.246	29
229.508	30
230.77	29
232.031	34
233.292	35
234.554	29
235.814	31
237.074	28
238.335	27
239.595	33
240.854	32
242.115	30
243.374	32
244.633	37
245.893	24
247.151	26
248.409	32
249.667	32
250.927	28
252.184	33
253.442	32
254.699	28
255.957	30
257.214	26
258.47	33
259.727	32
260.983	26
262.24	32
263.496	26
264.752	32
266.007	33
267.262	33
268.517	34
269.773	30
271.028	30
272.282	30
273.536	32
274.79	30
276.044	28
277.297	30
278.551	29
279.804	26
281.057	27
282.31	31
283.564	32
284.816	27
286.068	32
287.32	28
288.572	25
289.823	28
291.074	31
292.325	30
293.576	32
294.827	28
296.077	30
297.328	28
298.578	32
299.828	31
301.077	30
302.325	31
303.575	22
304.824	31
306.073	30
307.321	35
308.57	28
309.818	31
311.066	30
312.314	29
313.562	26
314.808	29
316.055	28
317.302	34
318.549	30
319.796	28
321.042	31
322.288	36
323.533	30
324.779	32
326.024	30
327.27	29
328.515	27
329.759	30
331.004	28
332.248	24
333.493	34
334.736	32
335.98	27
337.223	26
338.466	30
339.709	30
340.952	30
342.195	24
343.437	30
344.68	30
345.922	28
347.163	24
348.405	28
349.647	24
350.887	28
352.128	30
353.37	34
354.609	29
355.85	26
357.089	28
358.33	28
359.57	30
360.809	28
362.049	28
363.287	38
364.526	28
365.764	33
367.003	27
368.241	20
369.479	33
370.718	32
371.955	33
373.193	28
374.429	33
375.667	28
376.903	33
378.139	34
379.376	27
380.611	32
381.848	32
383.083	30
384.319	31
385.554	33
386.79	34
388.024	29
389.258	29
390.493	32
391.727	30
392.962	30
394.195	30
395.428	29
396.663	27
397.895	35
399.128	26
400.361	26
401.593	29
402.825	30
404.058	30
405.29	27
406.521	32
407.752	36
408.985	32
410.215	29
411.446	28
412.678	28
413.908	24
415.138	26
416.367	36
417.597	30
418.828	29
420.057	29
421.286	28
422.514	32
423.743	29
424.973	32
426.201	24
427.429	32
428.657	26
429.884	34
431.112	32
432.34	33
433.567	27
434.794	24
436.02	30
437.247	30
438.473	26
439.699	29
440.925	32
442.15	31
443.376	27
444.601	25
445.826	30
447.051	30
448.275	33
449.5	33
450.724	30
451.948	30
453.172	30
454.396	26
455.619	31
456.842	30
458.065	33
459.288	31
460.511	30
461.733	32
462.956	28
464.178	34
465.4	34
466.621	32
467.843	30
469.064	24
470.285	30
471.505	30
472.726	33
473.946	28
475.166	35
476.387	37
477.606	35
478.825	30
480.044	30
481.264	45
482.483	36
483.702	42
484.921	44
486.138	41
487.356	41
488.574	48
489.792	40
491.009	49
492.226	40
493.444	40
494.661	41
495.877	41
497.094	40
498.31	42
499.525	38
500.741	39
501.958	37
503.172	40
504.388	39
505.603	36
506.817	34
508.032	35
509.247	28
510.46	34
511.675	30
512.888	31
514.102	31
515.316	35
516.528	34
517.742	33
518.954	30
520.167	32
521.378	30
522.591	27
523.802	32
525.015	31
526.226	33
527.438	34
528.648	30
529.86	30
531.07	32
532.281	26
533.491	33
534.702	27
535.911	30
537.121	28
538.33	28
539.54	30
540.749	32
541.957	29
543.167	32
544.375	29
545.584	30
546.791	28
547.999	30
549.207	31
550.414	31
551.621	32
552.829	29
554.035	28
555.241	32
556.449	30
557.655	34
558.86	32
560.066	34
561.272	26
562.477	31
563.682	34
564.888	28
566.093	29
567.297	30
568.501	24
569.705	31
570.91	26
572.114	28
573.317	32
574.52	22
575.723	29
576.927	30
578.13	32
579.332	30
580.535	25
581.737	30
582.938	27
584.14	28
585.343	28
586.544	28
587.745	28
588.946	27
590.147	30
591.347	30
592.548	32
593.748	29
594.948	27
596.147	29
597.347	30
598.546	28
599.745	26
600.944	31
602.143	28
603.342	30
604.54	30
605.738	30
606.937	31
608.134	24
609.332	28
610.529	31
611.727	26
612.924	29
614.121	26
615.317	31
616.513	36
617.709	31
618.905	28
620.101	31
621.297	30
622.492	34
623.688	30
624.883	31
626.077	28
627.271	31
628.466	30
629.66	26
630.855	28
632.047	28
633.241	32
634.435	30
635.629	35
636.82	27
638.014	27
639.207	30
640.399	33
641.59	32
642.783	31
643.975	30
645.166	33
646.357	35
647.549	32
648.741	34
649.93	35
651.122	29
652.311	22
653.502	30
654.692	26
655.881	30
657.071	36
658.261	24
659.45	32
660.639	33
661.827	29
663.016	32
664.204	30
665.393	36
666.581	30
667.769	26
668.957	35
670.143	33
671.331	33
672.518	30
673.705	32
674.891	28
676.078	34
677.264	34
678.451	28
679.636	33
680.821	35
682.007	32
683.192	32
684.378	36
685.562	30
686.747	28
687.931	35
689.115	29
690.3	32
691.483	30
692.666	28
693.851	36
695.034	36
696.216	34
697.4	35
698.582	34
699.764	40
700.948	34
702.129	34
703.311	35
704.493	36
705.674	38
706.855	43
708.036	42
709.218	41
710.399	39
711.579	38
712.759	43
713.939	41
715.12	32
716.299	37
717.478	32
718.657	32
719.836	35
721.015	34
722.195	33
723.373	34
724.552	38
725.729	30
726.907	29
728.085	30
729.262	28
730.44	32
731.617	26
732.795	28
733.972	32
735.148	32
736.324	26
737.501	29
738.677	28
739.852	30
741.028	31
742.203	35
743.379	36
744.554	31
745.729	30
746.903	29
748.078	32
749.252	32
750.426	32
751.599	32
752.772	24
753.946	33
755.119	33
756.293	28
757.466	30
758.639	30
759.811	30
760.984	30
762.155	32
763.327	28
764.499	33
765.67	30
766.842	27
768.013	32
769.183	33
770.354	33
771.525	28
772.696	30
773.865	26
775.035	26
776.205	30
777.375	32
778.544	32
779.713	26
780.882	36
782.052	31
783.219	31
784.388	32
785.557	32
786.724	32
787.892	35
789.06	33
790.227	30
791.395	29
792.562	29
793.728	34
794.895	30
796.061	32
797.228	31
798.395	31
799.56	26
800.726	29
801.891	34
803.057	31
804.221	30
805.387	33
806.551	32
807.716	31
808.879	34
810.044	30
811.208	30
812.372	32
813.535	36
814.699	36
815.862	30
817.025	26
818.188	24
819.351	25
820.513	28
821.675	28
822.837	29
823.999	31
825.161	32
826.322	32
827.483	28
828.645	26
829.805	32
830.966	27
832.127	24
833.287	29
834.447	31
835.607	26
836.767	31
837.926	29
839.085	28
840.245	30
841.404	30
842.562	24
843.72	32
844.88	26
846.038	28
847.195	29
848.353	32
849.512	28
850.669	30
851.826	27
852.983	34
854.139	32
855.296	31
856.453	30
857.609	30
858.765	30
859.921	28
861.077	30
862.232	30
863.387	28
864.542	32
865.697	29
866.852	30
868.008	34
869.162	30
870.316	31
871.47	31
872.624	30
873.778	31
874.931	31
876.084	30
877.237	28
878.39	26
879.543	33
880.695	28
881.846	31
882.999	28
884.151	33
885.302	31
886.454	26
887.606	30
888.757	30
889.908	30
891.059	29
892.21	27
893.359	30
894.509	26
895.659	28
896.81	28
897.959	28
899.109	32
900.257	28
901.407	28
902.556	28
903.705	27
904.854	31
906.001	28
907.149	26
908.298	31
909.446	32
910.592	32
911.74	29
912.888	27
914.034	24
915.181	30
916.328	27
917.473	26
918.62	30
919.766	28
920.911	30
922.058	28
923.204	32
924.348	32
925.494	30
926.638	32
927.783	28
928.928	28
930.072	25
931.216	25
932.36	28
933.504	31
934.647	28
935.791	31
936.933	24
938.077	27
939.219	22
940.363	28
941.504	26
942.647	26
943.789	28
944.932	26
946.073	26
947.215	26
948.356	35
949.498	26
950.638	28
951.778	26
952.92	30
954.06	26
955.199	30
956.34	26
957.479	30
958.62	30
959.759	30
960.898	20
962.038	32
963.176	28
964.315	31
965.453	22
966.592	27
967.73	28
968.867	31
970.006	31
971.144	32
972.281	32
973.418	28
974.554	28
975.692	32
976.829	28
977.965	30
979.101	28
980.237	28
981.374	28
982.509	34
983.645	28
984.78	24
985.915	28
987.05	29
988.184	29
989.319	28
990.453	28
991.589	30
992.722	30
993.856	28
994.99	31
996.123	31
997.257	27
998.39	28
999.523	28
1000.66	31
1001.79	31
1002.92	24
1004.05	28
1005.18	31
1006.32	31
1007.45	31
1008.58	32
1009.71	26
1010.84	31
1011.97	22
1013.1	27
1014.23	32
1015.36	30
1016.49	27
1017.62	22
1018.75	26
1019.88	28
1021.01	32
1022.14	29
1023.27	28
1024.4	32
1025.53	18
1026.66	24
1027.79	33
1028.91	33
1030.04	28
1031.17	28
1032.3	28
1033.42	28
1034.55	22
1035.68	25
1036.81	28
1037.93	28
1039.06	28
1040.18	28
1041.31	28
1042.44	28
1043.56	26
1044.69	28
1045.81	28
1046.94	28
1048.06	22
1049.19	28
1050.31	30
1051.44	25
1052.56	31
1053.69	26
1054.81	29
1055.93	28
1057.06	27
1058.18	32
1059.3	30
1060.43	32
1061.55	30
1062.67	25
1063.79	26
1064.92	31
1066.04	28
1067.16	30
1068.28	32
1069.4	28
1070.52	28
1071.65	28
1072.77	30
1073.89	28
1075.01	27
1076.13	32
1077.25	26
1078.37	29
1079.49	27
1080.61	30
1081.73	32
1082.85	30
1083.97	31
1085.09	27
1086.2	26
1087.32	27
1088.44	31
1089.56	20
1090.68	24
1091.8	32
1092.91	28
1094.03	26
1095.15	29
1096.26	26
1097.38	26
1098.5	29
1099.61	32
1100.73	28
1101.85	24
1102.96	28
1104.08	27
1105.19	26
1106.31	31
1107.43	26
1108.54	31
1109.66	29
1110.77	30
1111.88	29
1113	28
1114.11	31
1115.23	30
1116.34	25
1117.46	32
1118.57	28
1119.68	28
1120.8	29
1121.91	29
1123.02	26
1124.13	18
1125.25	27
1126.36	25
1127.47	22
1128.58	26
1129.69	30
1130.8	26
1131.92	27
1133.03	26
1134.14	23
1135.25	24
1136.36	30
1137.47	26
1138.58	28
1139.69	33
1140.8	25
1141.91	32
1143.02	25
1144.13	28
1145.24	28
1146.35	24
1147.46	22
1148.56	28
1149.67	29
1150.78	31
1151.89	26
1153	30
1154.1	29
1155.21	28
1156.32	24
1157.43	30
1158.53	30
1159.64	24
1160.75	26
1161.85	28
1162.96	25
1164.07	31
1165.17	29
1166.28	28
1167.38	28
1168.49	22
1169.59	29
1170.7	30
1171.8	26
1172.91	26
1174.01	25
1175.12	25
1176.22	28
1177.32	28
1178.43	30
1179.53	27
1180.64	29
1181.74	27
1182.84	28
1183.94	25
1185.05	25
1186.15	30
1187.25	29
1188.35	28
1189.46	32
1190.56	24
1191.66	25
1192.76	26
1193.86	31
1194.96	26
1196.06	18.0294
1197.16	23.9834
1198.26	31.8235
1199.37	27.0191
1200.47	26.0397
1201.57	24.2549
1202.67	35.5779
1203.77	24.1365
1204.86	22.388
1205.96	27.5532
1207.06	28.4048
1208.16	27.8834
1209.26	25.9373
1210.36	26.6009
1211.46	24.5013
1212.56	29.244
1213.65	27.9383
1214.75	22.2722
1215.85	26.5206
1216.95	25.6731
1218.04	27.8094
1219.14	27.1832
1220.24	25.5271
1221.33	27.645
1222.43	27.6506
1223.53	27.0879
1224.62	26.4324
1225.72	22.9597
1226.82	28.7247
1227.91	27.5462
1229.01	27.8285
1230.1	29.5526
1231.2	20.7437
1232.29	23.9014
1233.39	26.4649
1234.48	26.6305
1235.58	30.9317
1236.67	24.4849
1237.77	24.7313
1238.86	29.3163
1239.95	24.4406
1241.05	27.5192
1242.14	30.3856
1243.23	28.1471
1244.33	24.5277
1245.42	27.0619
1246.51	22.7353
1247.61	28.4576
1248.7	26.8325
1249.79	26.8971
1250.88	27.0266
1251.97	24.6488
1253.07	25.7769
1254.16	26.2022
1255.25	26.8722
1256.34	25.9891
1257.43	27.6234
1258.52	24.4117
1259.61	26.612
1260.7	23.3342
1261.79	26.3869
1262.88	26.9603
1263.97	27.2213
1265.06	26.7549
1266.15	24.9355
1267.24	26.4162
1268.33	27.5842
1269.42	26.6719
1270.51	25.3055
1271.6	28.3106
1272.68	24.9368
1273.77	25.3659
1274.86	24.0245
1275.95	23.4287
1277.04	26.5468
1278.12	27.9808
1279.21	27.5
1280.3	26.7283
1281.39	29.9825
1282.47	29.9929
1283.56	26.499
1284.65	28.8039
1285.73	28.2785
1286.82	29.7262
1287.91	27.5591
1288.99	26.0406
1290.08	29.0468
1291.16	25.8054
1292.25	27.5856
1293.33	29.5148
1294.42	28.2255
1295.5	27.7718
1296.59	25.8499
1297.67	27.892
1298.76	26.307
1299.84	25.9265
1300.92	24.4096
1302.01	26.0882
1303.09	26.218
1304.17	29.951
1305.26	29.5864
1306.34	26.0049
1307.34	26
1308.43	28
1309.52	27
1310.61	28
1311.7	26
1312.78	20
1313.87	28
1314.96	26
1316.04	28
1317.13	29
1318.22	31
1319.3	30
1320.39	22
1321.48	28
1322.56	26
1323.65	26
1324.73	24
1325.82	26
1326.9	27
1327.99	24
1329.07	34
1330.16	28
1331.24	26
1332.33	26
1333.41	26
1334.5	29
1335.58	28
1336.66	28
1337.75	29
1338.83	26
1339.91	22
1341	24
1342.08	23
1343.16	27
1344.24	31
1345.33	30
1346.41	26
1347.49	25
1348.57	26
1349.65	25
1350.74	26
1351.82	27
1352.9	25
1353.98	30
1355.06	30
1356.14	30
1357.22	30
1358.3	31
1359.38	20
1360.46	27
1361.54	28
1362.62	28
1363.7	26
1364.78	29
1365.86	29
1366.94	30
1368.02	26
1369.09	28
1370.17	24
1371.25	28
1372.33	22
1373.41	27
1374.48	29
1375.56	26
1376.64	28
1377.72	18
1378.79	24
1379.87	24
1380.95	30
1382.02	20
1383.1	33
1384.17	27
1385.25	25
1386.33	28
1387.4	30
1388.48	27
1389.55	26
1390.63	29
1391.7	28
1392.78	27
1393.85	30
1394.93	28
1396	28
1397.07	26
1398.15	24
1399.22	28
1400.3	27
1401.37	26
1402.44	26
1403.52	26
1404.59	30
1405.66	27
1406.73	31
1407.81	29
1408.88	32
1409.95	30
1411.02	30
1412.09	30
1413.17	29
1414.24	29
1415.31	36
1416.38	28
1417.45	28
1418.52	26
1419.59	32
1420.66	24
1421.73	28
1422.8	24
1423.87	31
1424.94	24
1426.01	28
1427.08	28
1428.15	26
1429.22	28
1430.29	22
1431.35	26
1432.42	29
1433.49	22
1434.56	26
1435.63	31
1436.69	25
1437.76	26
1438.83	31
1439.9	26
1440.96	28
1442.03	30
1443.1	24
1444.17	26
1445.23	29
1446.3	27
1447.36	28
1448.43	30
1449.49	28
1450.56	31
1451.63	30
1452.69	32
1453.76	34
1454.82	24
1455.89	28
1456.95	28
1458.01	26
1459.08	26
1460.14	30
1461.21	27
1462.27	28
1463.34	32
1464.4	25
1465.46	29
1466.52	25
1467.59	26
1468.65	29
1469.71	26
1470.77	28
1471.84	32
1472.9	24
1473.96	25
1475.02	30
1476.08	30
1477.15	20
1478.21	27
1479.27	28
1480.33	26
1481.39	26
1482.45	30
1483.51	32
1484.57	27
1485.63	26
1486.69	28
1487.75	32
1488.81	23
1489.87	32
1490.93	24
1491.99	29
1493.05	26
1494.1	29
1495.16	28
1496.22	26
1497.28	25
1498.34	35
1499.4	31
1500.45	22
1501.51	28
1502.57	31
1503.63	28
1504.68	24
1505.74	31
1506.8	28
1507.85	29
1508.91	30
1509.97	29
1511.02	29
1512.08	24
1513.13	27
1514.19	26
1515.24	29
1516.3	24
1517.35	31
1518.41	26
1519.46	22
1520.52	26
1521.57	30
1522.63	29
1523.68	30
1524.73	30
1525.79	26
1526.84	22
1527.9	27
1528.95	31
1530	26
1531.05	22
1532.11	31
1533.16	30
1534.21	28
1535.26	22
1536.32	29
1537.37	31
1538.42	37
1539.47	28
1540.52	26
1541.57	28
1542.63	30
1543.68	22
1544.73	28
1545.78	30
1546.83	28
1547.88	30
1548.93	27
1549.98	24
1551.03	24
1552.08	30
1553.13	29
1554.18	30
1555.23	28
1556.27	26
1557.32	27
1558.37	28
1559.42	26
1560.47	30
1561.52	28
1562.56	24
1563.61	25
1564.66	25
1565.71	33
1566.75	28
1567.8	28
1568.85	27
1569.9	24
1570.94	28
1571.99	28
1573.03	22
1574.08	30
1575.13	25
1576.17	24
1577.22	32
1578.26	30
1579.31	26
1580.35	26
1581.4	26
1582.44	26
1583.49	27
1584.53	33
1585.58	31
1586.62	29
1587.66	22
1588.71	24
1589.75	18
1590.8	26
1591.84	30
1592.88	27
1593.92	30
1594.97	22
1596.01	30
1597.05	26
1598.1	24
1599.14	27
1600.18	27
1601.22	32
1602.26	26
1603.3	30
1604.35	32
1605.39	28
1606.43	29
1607.47	29
1608.51	20
1609.55	31
1610.59	26
1611.63	27
1612.67	30
1613.71	24
1614.75	29
1615.79	28
1616.83	23
1617.87	26
1618.91	27
1619.95	32
1620.99	30
1622.02	28
1623.06	24
1624.1	27
1625.14	29
1626.18	32
1627.21	27
1628.25	28
1629.29	23
1630.33	28
1631.36	28
1632.4	22
1633.44	28
1634.48	20
1635.51	28
1636.55	24
1637.58	32
1638.62	22
1639.66	32
1640.69	30
1641.73	26
1642.76	20
1643.8	32
1644.83	28
1645.87	29
1646.9	24
1647.94	28
1648.97	22
1650	26
1651.04	22
1652.07	26
1653.11	32
1654.14	28
1655.17	28
1656.21	29
1657.24	24
1658.27	26
1659.31	28
1660.34	31
1661.37	22
1662.4	28
1663.43	28
1664.47	30
1665.5	27
1666.53	27
1667.56	30
1668.59	29
1669.62	24
1670.66	31
1671.69	24
1672.72	22
1673.75	35
1674.78	28
1675.81	30
1676.84	27
1677.87	31
1678.9	30
1679.93	26
1680.96	30
1681.98	24
1683.01	24
1684.04	28
1685.07	30
1686.1	28
1687.13	30
1688.16	30
1689.18	28
1690.21	27
1691.24	26
1692.27	29
1693.3	28
1694.32	29
1695.35	34
1696.38	28
1697.4	26
1698.43	27
1699.46	27
1700.48	33
1701.51	24
1702.54	29
1703.56	29
1704.59	28
1705.61	29
1706.64	28
1707.66	29
1708.69	28
1709.71	30
1710.74	26
1711.76	29
1712.79	26
1713.81	31
1714.83	28
1715.86	26
1716.88	32
1717.91	29
1718.93	29
1719.95	28
1720.98	30
1722	26
1723.02	31
1724.04	26
1725.07	26
1726.09	27
1727.11	32
1728.13	26
1729.15	24
1730.18	28
1731.2	30
1732.22	26
1733.24	29
1734.26	28
1735.28	26
1736.3	26
1737.32	30
1738.34	26
1739.36	31
1740.38	28
1741.4	28
1742.42	23
1743.44	32
1744.46	30
1745.48	29
1746.5	23
1747.52	24
1748.54	29
1749.56	28
1750.58	23
1751.6	24
1752.61	24
1753.63	22
1754.65	26
1755.67	24
1756.68	28
1757.7	30
1758.72	29
1759.74	28
1760.75	32
1761.77	25
1762.79	30
1763.8	27
1764.82	31
1765.83	29
1766.85	30
1767.87	29
1768.88	29
1769.9	28
1770.91	26
1771.93	32
1772.94	24
1773.96	26
1774.97	25
1775.99	31
1777	28
1778.02	35
1779.03	28
1780.04	29
1781.06	22
1782.07	31
1783.09	28
1784.1	30
1785.11	24
1786.13	25
1787.14	27
1788.15	29
1789.16	29
1790.18	24
1791.19	28
1792.2	30
1793.21	27
1794.22	24
1795.23	30
1796.25	28
1797.26	30
1798.27	31
1799.28	31
1800.29	23
1801.3	28
1802.31	24
1803.32	31
1804.33	28
1805.34	23
1806.35	30
1807.36	30
1808.37	29
1809.38	26
1810.39	32
1811.4	26
1812.41	29
1813.42	26
1814.42	28
1815.43	30
1816.44	28
1817.45	26
1818.46	22
1819.47	28
1820.47	27
1821.48	31
1822.49	24
1823.49	24
1824.5	28
1825.51	26
1826.52	30
1827.52	25
1828.53	30
1829.53	30
1830.54	26
1831.55	29
1832.55	24
1833.56	28
1834.56	25
1835.57	24
1836.57	31
1837.58	30
1838.58	24
1839.59	28
1840.59	25
1841.6	26
1842.6	26
1843.61	27
1844.61	26
1845.61	28
1846.62	26
1847.62	28
1848.62	25
1849.63	27
1850.63	28
1851.63	20
1852.64	26
1853.64	26
1854.64	30
1855.64	32
1856.64	32
1857.65	27
1858.65	29
1859.65	29
1860.65	24
1861.65	24
1862.65	30
1863.65	23
1864.66	24
1865.66	27
1866.66	26
1867.66	29
1868.66	25
1869.66	26
1870.66	32
1871.66	30
1872.66	32
1873.66	28
1874.66	24
1875.65	27
1876.65	26
1877.65	34
1878.65	26
1879.65	29
1880.65	22
1881.65	28
1882.64	23
1883.64	29
1884.64	30
1885.64	30
1886.63	29
1887.63	25
1888.63	27
1889.63	24
1890.62	27
1891.62	27
1892.62	30
1893.61	24
1894.61	29
1895.6	28
1896.6	29
1897.6	30
1898.59	29
1899.59	28
1900.58	26
1901.58	24
1902.57	29
1903.57	32
1904.56	28
1905.56	27
1906.55	28
1907.54	22
1908.54	30
1909.53	26
1910.53	29
1911.52	30
1912.51	29
1913.51	28
1914.5	32
1915.49	23
1916.49	20
1917.48	28
1918.47	27
1919.46	28
1920.46	27
1921.45	25
1922.44	32
1923.43	26
1924.42	27
1925.41	29
1926.41	29
1927.4	28
1928.39	30
1929.38	25
1930.37	27
1931.36	27
1932.35	30
1933.34	28
1934.33	27
1935.32	23
1936.31	22
1937.3	21
1938.29	32
1939.28	30
1940.27	27
1941.26	30
1942.24	27
1943.23	28
1944.22	30
1945.21	31
1946.2	30
1947.19	30
1948.17	26
1949.16	24
1950.15	24.5
1951.14	25
1952.12	26
1953.11	30
1954.1	24
1955.09	26
1956.07	18
1957.06	33
1958.05	29
1959.03	30
1960.02	30
1961	28
1961.99	27
1962.98	22
1963.96	24
1964.95	24
1965.93	28
1966.92	31
1967.9	29
1968.89	22
1969.87	29
1970.85	30
1971.84	21
1972.82	24
1973.81	25
1974.79	24
1975.78	22
1976.76	27
1977.74	24
1978.73	22
1979.71	22
1980.69	32
1981.67	27
1982.66	24
1983.64	26
1984.62	29
1985.6	29
1986.59	29
1987.57	32
1988.55	27
1989.53	29
1990.51	24
1991.49	26
1992.47	25
1993.45	28
1994.44	29
1995.42	28
1996.4	29
1997.38	28
1998.36	26
1999.34	24
2000.32	31
2001.3	24
2002.28	22
2003.26	26
2004.24	21
2005.22	28
2006.19	26
2007.17	24
2008.15	29
2009.13	22
2010.11	26
2011.09	30
2012.06	32
2013.04	24
2014.02	28
2015	27
2015.98	30
2016.95	27
2017.93	26
2018.91	28
2019.88	21
2020.86	25
2021.84	30
2022.81	29
2023.79	26
2024.77	30
2025.74	35
2026.72	30
2027.69	28
2028.67	24
2029.65	26
2030.62	22
2031.6	29
2032.57	28
2033.55	20
2034.52	24
2035.5	24
2036.47	28
2037.44	23
2038.42	30
2039.39	27
2040.36	28
2041.34	26
2042.31	24
2043.29	28
2044.26	31
2045.23	27
2046.2	26
2047.18	27
2048.15	29
2049.12	32
2050.09	22
2051.07	26
2052.04	26
2053.01	26
2053.98	22
2054.95	24
2055.93	26
2056.9	23
2057.87	26
2058.84	26
2059.81	25
2060.78	25
2061.75	24
2062.72	25
2063.69	23
2064.66	22
2065.63	25
2066.6	28
2067.57	30
2068.54	30
2069.51	27
2070.48	29
2071.45	26
2072.42	26
2073.38	20
2074.35	28
2075.32	26
2076.29	32
2077.26	26
2078.23	31
2079.19	25
2080.16	24
2081.13	28
2082.1	26
2083.06	26
2084.03	18
2085	33
2085.96	26
2086.93	26
2087.9	24
2088.86	25
2089.83	25
2090.8	26
2091.76	23
2092.73	27
2093.69	30
2094.66	22
2095.62	23
2096.59	25
2097.55	24
2098.52	27
2099.48	24
2100.45	25
2101.41	28
2102.38	26
2103.34	26
2104.31	16
2105.27	24
2106.23	23
2107.2	20
2108.16	26
2109.12	31
2110.09	27
2111.05	22
2112.01	22
2112.98	31
2113.94	25
2114.9	24
2115.86	24
2116.82	30
2117.79	29
2118.75	24
2119.71	28
2120.67	24
2121.63	25
2122.59	29
2123.55	29
2124.52	22
2125.48	31
2126.44	26
2127.4	29
2128.36	23
2129.32	31
2130.28	27
2131.24	27
2132.2	26
2133.16	33
2134.12	31
2135.08	26
2136.04	31
2136.99	25
2137.95	24
2138.91	30
2139.87	26
2140.83	20
2141.79	22
2142.75	28
2143.7	25
2144.66	24
2145.62	24.9878
2146.58	23.9238
2147.53	22.11
2148.49	19.0882
2149.45	27.9932
2150.41	27.8845
2151.36	25.8641
2152.32	24.7838
2153.27	25.7593
2154.23	29.5392
2155.19	29.5645
2156.14	26.3282
2157.1	25.5323
2158.06	29.6233
2159.01	25.1076
2159.97	25.6961
2160.92	25.6864
2161.88	26.334
2162.83	23.824
2163.79	24.7647
2164.74	26.4009
2165.7	27.9461
2166.65	27.643
2167.61	26.47
2168.56	25.7777
2169.51	26.5222
2170.47	25.9643
2171.42	23.0784
2172.38	26.2668
2173.33	26.0144
2174.28	24.7335
2175.24	20.1431
2176.19	24.9144
2177.14	26.0229
2178.09	24.7479
2179.05	26.5527
2180	26.5686
2180.95	23.4037
2181.9	23.8511
2182.86	27.0967
2183.81	27.0386
2184.76	26.8242
2185.71	25.215
2186.66	19.8088
2187.61	23.509
2188.57	27.4862
2189.52	21.5538
2190.47	23.2695
2191.42	25.6511
2192.37	27.1324
2193.32	24.9689
2194.27	22.1637
2195.22	23.2865
2196.17	27.2955
2197.12	26.5605
2198.07	26.9008
2199.02	26.0993
2199.97	26.3462
2200.92	26.5735
2201.87	25.6528
2202.82	24.9373
2203.76	25.9755
2204.71	22.9391
2205.66	24.2048
2206.61	24.8729
2207.56	25.9265
2208.51	27.9934
2209.45	26.8222
2210.4	26.6809
2211.35	25.968
2212.3	25.6417
2213.24	26.299
2214.19	25.7108
2215.14	24.7507
2216.09	26.2354
2217.03	25.8931
2217.98	25.2825
2218.93	25.7598
2219.87	25.0784
2220.82	26.2206
2221.77	25.5439
2222.71	26.7891
2223.66	24.7092
2224.6	23.4652
2225.55	23.4471
2226.49	26.2612
2227.44	27.2402
2228.38	25.2031
2229.33	23.5606
2230.27	25.2988
2231.22	27.1469
2232.16	23.4957
2233.11	22.0778
2234.05	24.2224
2235	25.3495
2235.94	25.8088
2236.88	25.7843
2237.83	27.7206
2238.77	26.6682
2239.71	25.4524
2240.66	26.5466
2241.6	27.5716
2242	28
2242.95	23
2243.9	22
2244.84	21
2245.79	25
2246.74	22
2247.69	28
2248.63	27
2249.58	25
2250.53	24
2251.47	27
2252.42	29
2253.37	24
2254.31	26
2255.26	27
2256.2	30
2257.15	23
2258.1	26
2259.04	28
2259.99	26
2260.93	30
2261.88	22
2262.82	26
2263.77	24
2264.71	24
2265.65	22
2266.6	24
2267.54	26
2268.49	29
2269.43	28
2270.38	27
2271.32	30
2272.26	25
2273.21	28
2274.15	23
2275.09	29
2276.04	30
2276.98	24
2277.92	21
2278.86	27
2279.81	21
2280.75	27
2281.69	27
2282.63	22
2283.57	28
2284.52	27
2285.46	26
2286.4	26
2287.34	26
2288.28	24
2289.22	26
2290.16	28
2291.1	26
2292.04	28
2292.98	20
2293.93	24
2294.86	24
2295.8	27
2296.74	24
2297.69	26
2298.62	30
2299.56	22
2300.5	26
2301.44	28
2302.38	24
2303.32	24
2304.26	27
2305.2	25
2306.14	26
2307.07	26
2308.01	26
2308.95	18
2309.89	30
2310.83	24
2311.76	26
2312.7	26
2313.64	27
2314.58	23
2315.51	20
2316.45	20
2317.39	18
2318.32	27
2319.26	26
2320.2	26
2321.13	24
2322.07	26
2323	24
2323.94	29
2324.88	24
2325.81	28
2326.75	29
2327.68	28
2328.62	23
2329.55	25
2330.49	27
2331.42	30
2332.36	28
2333.29	28
2334.22	26
2335.16	26
2336.09	30
2337.03	26
2337.96	26
2338.89	30
2339.83	24
2340.76	26
2341.69	20
2342.63	28
2343.56	26
2344.49	26
2345.43	26
2346.36	27
2347.29	25
2348.22	30
2349.15	29
2350.09	20
2351.02	23
2351.95	26
2352.88	26
2353.81	29
2354.74	24
2355.67	22
2356.61	26
2357.54	20
2358.47	31
2359.4	26
2360.33	26
2361.26	23
2362.19	30
2363.12	26
2364.05	26
2364.98	26
2365.91	29
2366.84	24
2367.77	24
2368.7	27
2369.62	27
2370.55	28
2371.48	24
2372.41	28
2373.34	18
2374.27	28
2375.2	25
2376.12	27
2377.05	27
2377.98	26
2378.91	27
2379.83	26
2380.76	28
2381.69	30
2382.62	26
2383.54	28
2384.47	22
2385.4	28
2386.32	22
2387.25	29
2388.18	30
2389.1	32
2390.03	28
2390.95	28
2391.88	24
2392.81	25
2393.73	26
2394.66	25
2395.58	28
2396.51	22
2397.43	20
2398.36	26
2399.28	26
2400.2	23
2401.13	26
2402.05	23
2402.98	28
2403.9	29
2404.83	26
2405.75	24
2406.67	31
2407.6	28
2408.52	29
2409.44	26
2410.37	26
2411.29	26
2412.21	29
2413.13	26
2414.06	25
2414.98	27
2415.9	27
2416.82	30
2417.74	24
2418.67	28
2419.59	26
2420.51	27
2421.43	31
2422.35	24
2423.27	28
2424.19	28
2425.11	30
2426.03	24
2426.96	28
2427.88	24
2428.8	24
2429.72	28
2430.64	28
2431.56	25
2432.48	27
2433.39	30
2434.31	22
2435.23	28
2436.15	27
2437.07	25
2437.99	31
2438.91	30
2439.83	26
2440.75	24
2441.67	28
2442.58	28
2443.5	31
2444.42	28
2445.34	29
2446.26	28
2447.17	29
2448.09	29
2449.01	26
2449.92	26
2450.84	30
2451.76	25
2452.68	28
2453.59	27
2454.51	24
2455.42	32
2456.34	26
2457.26	28
2458.17	24
2459.09	24
2460	26
2460.92	29
2461.83	26
2462.75	28
2463.66	26
2464.58	20
2465.49	26
2466.41	22
2467.32	29
2468.24	22
2469.15	32
2470.07	24
2470.98	34
2471.89	26
2472.81	25
2473.72	26
2474.64	30
2475.55	24
2476.46	27
2477.37	26
2478.29	24
2479.2	20
2480.11	24
2481.03	28
2481.94	30
2482.85	24
2483.76	22
2484.67	22
2485.59	28
2486.5	26
2487.41	24
2488.32	28
2489.23	27
2490.14	26
2491.05	27
2491.97	28
2492.88	24
2493.79	22
2494.7	26
2495.61	28
2496.52	30
2497.43	30
2498.34	23
2499.25	29
2500.16	30
2501.07	26
2501.98	20
2502.89	24
2503.79	22
2504.7	22
2505.61	29
2506.52	28
2507.43	24
2508.34	29
2509.25	29
2510.16	23
2511.06	28
2511.97	28
2512.88	24
2513.79	26
2514.69	28
2515.6	27
2516.51	26
2517.42	28
2518.32	26
2519.23	29
2520.14	31
2521.04	26
2521.95	26
2522.86	34
2523.76	31
2524.67	28
2525.57	26
2526.48	27
2527.39	30
2528.29	28
2529.2	26
2530.1	32
2531.01	30
2531.91	27
2532.82	25
2533.72	25
2534.63	29
2535.53	26
2536.44	26
2537.34	26
2538.24	31
2539.15	26
2540.05	22
2540.96	21
2541.86	28
2542.76	27
2543.67	33
2544.57	24
2545.47	26
2546.37	22
2547.28	30
2548.18	24
2549.08	24
2549.99	26
2550.89	30
2551.79	27
2552.69	28
2553.59	28
2554.49	27
2555.4	20
2556.3	27
2557.2	26
2558.1	26
2559	30
2559.9	26
2560.8	29
2561.7	29
2562.6	29
2563.5	26
2564.4	27
2565.3	31
2566.2	30
2567.1	26
2568	26
2568.9	22
2569.8	25
2570.7	28
2571.6	30
2572.5	24
2573.4	34
2574.3	31
2575.2	28
2576.1	28
2576.99	31
2577.89	22
2578.79	26
2579.69	27
2580.59	27
2581.48	30
2582.38	30
2583.28	24
2584.18	28
2585.07	28
2585.97	28
2586.87	27
2587.76	25
2588.66	28
2589.56	24
2590.45	33
2591.35	22
2592.25	28
2593.14	31
2594.04	28
2594.93	29
2595.83	24
2596.73	24
2597.62	26
2598.52	28
2599.41	25
2600.31	24
2601.2	28
2602.1	22
2602.99	29
2603.88	24
2604.78	27
2605.67	28
2606.57	24
2607.46	24
2608.35	25
2609.25	26
2610.14	30
2611.03	26
2611.93	24
2612.82	28
2613.71	27
2614.61	30
2615.5	24
2616.39	26
2617.29	29
2618.18	27
2619.07	26
2619.96	23
2620.85	22
2621.75	30
2622.64	29
2623.53	27
2624.42	27
2625.31	26
2626.2	26
2627.09	30
2627.98	29
2628.88	28
2629.77	26
2630.66	26
2631.55	31
2632.44	29
2633.33	27
2634.22	24
2635.11	24
2636	28
2636.89	29
2637.78	25
2638.66	26
2639.55	23
2640.44	24
2641.33	30
2642.22	27
2643.11	30
2644	23
2644.89	25
2645.78	28
2646.66	28
2647.55	29
2648.44	24
2649.33	26
2650.21	24
2651.1	27
2651.99	28
2652.88	28
2653.76	24
2654.65	30
2655.54	28
2656.42	22
2657.31	27
2658.2	28
2659.08	23
2659.97	33
2660.86	28
2661.74	24
2662.63	32
2663.51	26
2664.4	25
2665.29	26
2666.17	24
2667.06	29
2667.94	23
2668.83	31
2669.71	30
2670.6	30
2671.48	22
2672.36	29
2673.25	27
2674.13	26
2675.02	30
2675.9	30
2676.78	26
2677.67	27
2678.55	25
2679.43	26
2680.32	24
2681.2	30
2682.08	31
2682.97	28
2683.85	30
2684.73	34
2685.61	32
2686.5	25
2687.38	22
2688.26	27
2689.14	26
2690.03	28
2690.91	26
2691.79	28
2692.67	25
2693.55	28
2694.43	22
2695.31	28
2696.19	27
2697.08	31
2697.96	29
2698.84	24
2699.72	28
2700.6	28
2701.48	30
2702.36	22
2703.24	24
2704.12	28
2705	27
2705.88	21
2706.76	27
2707.64	26
2708.51	24
2709.39	29
2710.27	22
2711.15	25
2712.03	25
2712.91	24
2713.79	27
2714.67	31
2715.54	28
2716.42	22
2717.3	22
2718.18	26
2719.05	24
2719.93	30
2720.81	28
2721.69	26
2722.56	24
2723.44	25
2724.32	28
2725.19	28
2726.07	29
2726.95	27
2727.82	27
2728.7	30
2729.58	31
2730.45	24
2731.33	29
2732.2	30
2733.08	28
2733.95	28
2734.83	32
2735.7	28
2736.58	28
2737.45	27
2738.33	30
2739.2	27
2740.08	27
2740.95	26
2741.83	27
2742.7	22
2743.58	27
2744.45	24
2745.32	24
2746.2	18
2747.07	24
2747.94	26
2748.82	24
2749.69	28
2750.56	24
2751.44	26
2752.31	24
2753.18	31
2754.05	22
2754.93	26
2755.8	24
2756.67	27
2757.54	26
2758.42	26
2759.29	27
2760.16	25
2761.03	22
2761.9	28
2762.77	29
2763.64	25
2764.51	20
2765.38	27
2766.26	27
2767.13	30
2768	22
2768.87	28
2769.74	22
2770.61	25
2771.48	25
2772.35	25
2773.22	30
2774.09	26
2774.96	26
2775.83	22
2776.7	29
2777.56	30
2778.43	28
2779.3	28
2780.17	30
2781.04	24
2781.91	27
2782.78	30
2783.64	25
2784.51	22
2785.38	24
2786.25	24
2787.12	29
2787.98	22
2788.85	27
2789.72	23
2790.59	25
2791.45	27
2792.32	28
2793.19	28
2794.05	30
2794.92	28
2795.79	30
2796.65	26
2797.52	22
2798.38	25
2799.25	26
2800.12	30
2800.98	27
2801.85	29
2802.71	26
2803.58	27.5
2804.44	29
2805.31	24
2806.17	28
2807.04	28
2807.9	28
2808.77	28
2809.63	26
2810.5	34
2811.36	24
2812.22	33
2813.09	22
2813.95	29
2814.82	26
2815.68	25
2816.54	24
2817.41	27
2818.27	25
2819.13	31
2820	26
2820.86	26
2821.72	30
2822.58	26
2823.45	30
2824.31	29
2825.17	25
2826.03	32
2826.9	29
2827.76	24
2828.62	29
2829.48	28
2830.34	26
2831.2	20
2832.06	28
2832.92	28
2833.79	30
2834.65	28
2835.51	22
2836.37	30
2837.23	26
2838.09	28
2838.95	25
2839.81	24
2840.67	28
2841.53	22
2842.39	30
2843.25	32
2844.11	26
2844.97	25
2845.83	28
2846.68	27
2847.54	24
2848.4	26
2849.26	26
2850.12	24
2850.98	30
2851.84	30
2852.69	30
2853.55	30
2854.41	22
2855.27	28
2856.13	26
2856.98	29
2857.84	32
2858.7	27
2859.56	30
2860.41	30
2861.27	29
2862.13	32
2862.98	28
2863.84	27
2864.7	28
2865.55	21
2866.41	24
2867.27	33
2868.12	28
2868.98	26
2869.83	32
2870.69	31
2871.54	24
2872.4	29
2873.25	26
2874.11	27
2874.96	27
2875.82	28
2876.68	30
2877.53	29
2878.38	24
2879.24	30
2880.09	22
2880.95	29
2881.8	29
2882.65	30
2883.51	30
2884.36	30
2885.22	30
2886.07	33
2886.92	33
2887.77	30
2888.63	30
2889.48	27
2890.33	36
2891.19	34
2892.04	31
2892.89	33
2893.74	30
2894.6	38
2895.45	31
2896.3	37
2897.15	33
2898	34
2898.85	39
2899.71	40
2900.56	42
2901.41	40
2902.26	35
2903.11	42
2903.96	41
2904.81	46
2905.66	46
2906.51	40
2907.36	42
2908.21	39
2909.06	38
2909.91	44
2910.76	44
2911.61	35
2912.46	40
2913.31	36
2914.16	31
2915.01	40
2915.86	36
2916.71	33
2917.56	30
2918.41	35
2919.26	29
2920.1	30
2920.95	32
2921.8	32
2922.65	33
2923.5	31
2924.34	27
2925.19	28
2926.04	28
2926.89	30
2927.74	26
2928.58	30
2929.43	29
2930.28	31
2931.12	32
2931.97	28
2932.82	27
2933.66	24
2934.51	31
2935.36	26
2936.2	31
2937.05	24
2937.89	31
2938.74	29
2939.59	30
2940.43	27
2941.28	32
2942.12	24
2942.97	28
2943.81	30
2944.66	27
2945.5	25
2946.35	30
2947.19	30
2948.04	28
2948.88	26
2949.72	26
2950.57	28
2951.41	28
2952.26	25
2953.1	30
2953.94	30
2954.79	32
2955.63	33
2956.47	29
2957.32	31
2958.16	30
2959	30
2959.85	32
2960.69	32
2961.53	30
2962.37	36
2963.22	33
2964.06	31
2964.9	31
2965.74	35
2966.58	36
2967.42	36
2968.27	32
2969.11	38
2969.95	36
2970.79	32
2971.63	32
2972.47	32
2973.31	30
2974.15	32
2974.99	28
2975.83	29
2976.68	33
2977.52	30
2978.36	26
2979.2	30
2980.04	30
2980.88	29
2981.71	22
2982.55	26
2983.39	26
2984.23	29
2985.07	29
2985.91	26
2986.75	26
2987.59	28
2988.43	28
2989.27	25
2990.1	26
2990.94	29
2991.78	22
2992.62	25
2993.46	28
2994.3	26
2995.13	24
2995.97	28
2996.81	28
2997.64	29
2998.48	26
2999.32	27
