#Acq. time (s)=	3
#Accumulations=	3
#Range (cm-¹)=	100...3000
#Windows=	3
#Autofocus=	Off
#AutoExposure=	Off
#Spike filter=	Multiple accum.
#Delay time (s)=	0
#Binning=	1
#Readout mode=	Signal
#DeNoise=	Off
#ICS correction=	Off
#Dark correction=	Off
#Inst. Process=	Off
#Instrument=	LabRAM HR Evol
#Detector=	Syncerity OE
#Objective=	x100_VIS_LWD
#Grating=	600 (500nm)
#ND Filter=	25%
#Laser=	633nm_Edge
#Hole=	100.021
#Range=	Visible
#Project=	Bolus
#Sample=	B3
#Site=	stripside
#Title=	m15
#Remark=	
#Date=	03.11.2025 20:26
#Acquired=	03.11.2025 20:26:38
100.969	26
102.252	31
103.535	32
104.818	28
106.101	29
107.384	27
108.666	33
109.948	27
111.232	36
112.514	32
113.795	33
115.077	30
116.358	30
117.639	33
118.919	32
120.2	35
121.48	31
122.76	34
124.04	26
125.32	30
126.599	28
127.879	28
129.158	32
130.436	35
131.715	32
132.992	32
134.27	34
135.548	37
136.826	30
138.104	31
139.381	30
140.658	40
141.935	37
143.212	34
144.489	30
145.763	37
147.04	40
148.315	39
149.591	35
150.867	38
152.142	36
153.416	36
154.691	36
155.965	39
157.24	40
158.514	38
159.786	39
161.06	37
162.334	36
163.607	35
164.881	38
166.152	40
167.425	36
168.698	35
169.969	32
171.241	45
172.513	35
173.785	39
175.055	34
176.326	36
177.597	34
178.867	36
180.137	39
181.408	34
182.677	39
183.947	39
185.217	41
186.485	40
187.755	43
189.022	36
190.291	36
191.56	36
192.828	39
194.096	37
195.363	34
196.631	36
197.899	42
199.165	40
200.432	37
201.698	32
202.965	36
204.23	37
205.497	37
206.762	44
208.028	43
209.293	36
210.559	33
211.823	33
213.088	36
214.352	38
215.617	32
216.88	34
218.145	34
219.408	35
220.672	32
221.934	35
223.196	38
224.46	35
225.722	39
226.985	30
228.246	30
229.508	32
230.77	27
232.031	34
233.292	34
234.554	30
235.814	32
237.074	29
238.335	30
239.595	35
240.854	28
242.115	28
243.374	28
244.633	34
245.893	26
247.151	30
248.409	29
249.667	38
250.927	35
252.184	28
253.442	31
254.699	31
255.957	28
257.214	26
258.47	29
259.727	27
260.983	38
262.24	32
263.496	29
264.752	28
266.007	32
267.262	32
268.517	23
269.773	29
271.028	34
272.282	28
273.536	32
274.79	26
276.044	31
277.297	28
278.551	29
279.804	28
281.057	34
282.31	32
283.564	30
284.816	25
286.068	32
287.32	28
288.572	28
289.823	30
291.074	31
292.325	32
293.576	31
294.827	31
296.077	27
297.328	29
298.578	32
299.828	27
301.077	32
302.325	32
303.575	32
304.824	30
306.073	27
307.321	32
308.57	33
309.818	30
311.066	28
312.314	29
313.562	30
314.808	30
316.055	30
317.302	24
318.549	31
319.796	31
321.042	32
322.288	26
323.533	25
324.779	35
326.024	30
327.27	24
328.515	24
329.759	26
331.004	26
332.248	35
333.493	28
334.736	36
335.98	28
337.223	32
338.466	33
339.709	30
340.952	29
342.195	31
343.437	31
344.68	30
345.922	28
347.163	28
348.405	30
349.647	27
350.887	26
352.128	29
353.37	34
354.609	35
355.85	30
357.089	30
358.33	28
359.57	30
360.809	30
362.049	28
363.287	32
364.526	28
365.764	31
367.003	29
368.241	31
369.479	30
370.718	32
371.955	32
373.193	33
374.429	27
375.667	30
376.903	22
378.139	24
379.376	29
380.611	30
381.848	32
383.083	28
384.319	30
385.554	27
386.79	28
388.024	29
389.258	30
390.493	33
391.727	25
392.962	28
394.195	32
395.428	26
396.663	33
397.895	30
399.128	33
400.361	26
401.593	32
402.825	26
404.058	33
405.29	26
406.521	24
407.752	28
408.985	31
410.215	29
411.446	28
412.678	30
413.908	30
415.138	28
416.367	32
417.597	32
418.828	28
420.057	36
421.286	32
422.514	29
423.743	30
424.973	26
426.201	30
427.429	31
428.657	28
429.884	26
431.112	31
432.34	32
433.567	34
434.794	28
436.02	28
437.247	32
438.473	30
439.699	30
440.925	29
442.15	31
443.376	31
444.601	30
445.826	30
447.051	33
448.275	34
449.5	29
450.724	29
451.948	31
453.172	30
454.396	29
455.619	28
456.842	28
458.065	28
459.288	30
460.511	32
461.733	28
462.956	34
464.178	32
465.4	22
466.621	28
467.843	32
469.064	34
470.285	34
471.505	32
472.726	39
473.946	32
475.166	34
476.387	35
477.606	40
478.825	38
480.044	42
481.264	44
482.483	46
483.702	42
484.921	42
486.138	44
487.356	45
488.574	52
489.792	46
491.009	45
492.226	51
493.444	47
494.661	46
495.877	42
497.094	38
498.31	44
499.525	43
500.741	42
501.958	46
503.172	44
504.388	38
505.603	41
506.817	39
508.032	32
509.247	35
510.46	36
511.675	38
512.888	32
514.102	35
515.316	33
516.528	40
517.742	36
518.954	38
520.167	30
521.378	33
522.591	32
523.802	34
525.015	36
526.226	35
527.438	33
528.648	28
529.86	31
531.07	35
532.281	28
533.491	35
534.702	36
535.911	30
537.121	30
538.33	26
539.54	27
540.749	33
541.957	36
543.167	27
544.375	26
545.584	33
546.791	28
547.999	37
549.207	31
550.414	29
551.621	28
552.829	30
554.035	30
555.241	36
556.449	31
557.655	34
558.86	29
560.066	28
561.272	31
562.477	26
563.682	28
564.888	28
566.093	28
567.297	37
568.501	32
569.705	24
570.91	32
572.114	28
573.317	29
574.52	30
575.723	30
576.927	30
578.13	29
579.332	34
580.535	32
581.737	26
582.938	22
584.14	26
585.343	30
586.544	30
587.745	29
588.946	28
590.147	34
591.347	31
592.548	28
593.748	30
594.948	30
596.147	37
597.347	28
598.546	29
599.745	26
600.944	32
602.143	32
603.342	32
604.54	34
605.738	21
606.937	28
608.134	32
609.332	30
610.529	24
611.727	29
612.924	26
614.121	33
615.317	24
616.513	29
617.709	34
618.905	28
620.101	33
621.297	34
622.492	32
623.688	32
624.883	31
626.077	36
627.271	32
628.466	33
629.66	33
630.855	28
632.047	29
633.241	31
634.435	30
635.629	30
636.82	30
638.014	33
639.207	34
640.399	28
641.59	31
642.783	32
643.975	33
645.166	30
646.357	30
647.549	32
648.741	32
649.93	29
651.122	28
652.311	27
653.502	30
654.692	34
655.881	32
657.071	33
658.261	31
659.45	30
660.639	27
661.827	31
663.016	32
664.204	33
665.393	22
666.581	32
667.769	30
668.957	36
670.143	26
671.331	31
672.518	28
673.705	34
674.891	32
676.078	32
677.264	36
678.451	32
679.636	33
680.821	32
682.007	34
683.192	32
684.378	34
685.562	38
686.747	33
687.931	36
689.115	30
690.3	30
691.483	35
692.666	34
693.851	37
695.034	26
696.216	29
697.4	34
698.582	36
699.764	38
700.948	34
702.129	38
703.311	33
704.493	38
705.674	43
706.855	36
708.036	43
709.218	49
710.399	43
711.579	44
712.759	36
713.939	41
715.12	36
716.299	38
717.478	34
718.657	34
719.836	36
721.015	29
722.195	32
723.373	32
724.552	31
725.729	32
726.907	33
728.085	25
729.262	34
730.44	30
731.617	28
732.795	28
733.972	28
735.148	32
736.324	28
737.501	29
738.677	34
739.852	31
741.028	26
742.203	32
743.379	29
744.554	30
745.729	26
746.903	36
748.078	31
749.252	30
750.426	31
751.599	30
752.772	33
753.946	30
755.119	30
756.293	28
757.466	32
758.639	32
759.811	32
760.984	28
762.155	28
763.327	23
764.499	28
765.67	32
766.842	32
768.013	32
769.183	26
770.354	28
771.525	26
772.696	32
773.865	34
775.035	28
776.205	34
777.375	30
778.544	26
779.713	26
780.882	32
782.052	34
783.219	32
784.388	33
785.557	32
786.724	33
787.892	32
789.06	31
790.227	29
791.395	29
792.562	32
793.728	28
794.895	29
796.061	28
797.228	30
798.395	30
799.56	31
800.726	30
801.891	32
803.057	29
804.221	32
805.387	35
806.551	31
807.716	28
808.879	30
810.044	30
811.208	28
812.372	31
813.535	29
814.699	30
815.862	33
817.025	31
818.188	29
819.351	32
820.513	28
821.675	30
822.837	28
823.999	32
825.161	28
826.322	29
827.483	34
828.645	26
829.805	30
830.966	29
832.127	33
833.287	26
834.447	31
835.607	26
836.767	29
837.926	26
839.085	26
840.245	30
841.404	31
842.562	31
843.72	34
844.88	28
846.038	34
847.195	27
848.353	26
849.512	19
850.669	32
851.826	33
852.983	34
854.139	31
855.296	26
856.453	26
857.609	22
858.765	29
859.921	29
861.077	31
862.232	27
863.387	33
864.542	29
865.697	33
866.852	32
868.008	30
869.162	25
870.316	30
871.47	28
872.624	34
873.778	30
874.931	34
876.084	32
877.237	32
878.39	29
879.543	29
880.695	26
881.846	30
882.999	32
884.151	27
885.302	29
886.454	30
887.606	34
888.757	31
889.908	29
891.059	27
892.21	31
893.359	28
894.509	31
895.659	25
896.81	31
897.959	27
899.109	29
900.257	29
901.407	28
902.556	26
903.705	24
904.854	23
906.001	25
907.149	28
908.298	33
909.446	32
910.592	30
911.74	28
912.888	30
914.034	26
915.181	30
916.328	28
917.473	30
918.62	28
919.766	26
920.911	28
922.058	28
923.204	30
924.348	29
925.494	33
926.638	22
927.783	27
928.928	31
930.072	31
931.216	33
932.36	32
933.504	26
934.647	32
935.791	34
936.933	28
938.077	28
939.219	31
940.363	31
941.504	28
942.647	31
943.789	29
944.932	32
946.073	26
947.215	28
948.356	27
949.498	29
950.638	28
951.778	30
952.92	30
954.06	28
955.199	30
956.34	30
957.479	27
958.62	25
959.759	26
960.898	22
962.038	28
963.176	28
964.315	30
965.453	30
966.592	30
967.73	28
968.867	28
970.006	28
971.144	29.5
972.281	30
973.418	27
974.554	28
975.692	31
976.829	30
977.965	22
979.101	28
980.237	29
981.374	27
982.509	29
983.645	27
984.78	24
985.915	27
987.05	28
988.184	28
989.319	29
990.453	26
991.589	29
992.722	29
993.856	31
994.99	37
996.123	31
997.257	29
998.39	33
999.523	24
1000.66	32
1001.79	22
1002.92	31
1004.05	22
1005.18	30
1006.32	28
1007.45	27
1008.58	31
1009.71	28
1010.84	26
1011.97	24
1013.1	24
1014.23	27
1015.36	30
1016.49	30
1017.62	27
1018.75	26
1019.88	34
1021.01	29
1022.14	30
1023.27	30
1024.4	26
1025.53	29
1026.66	24
1027.79	24
1028.91	31
1030.04	28
1031.17	28
1032.3	26
1033.42	30
1034.55	32
1035.68	30
1036.81	34
1037.93	23
1039.06	31
1040.18	34
1041.31	27
1042.44	33
1043.56	26
1044.69	30
1045.81	22
1046.94	28
1048.06	27
1049.19	27
1050.31	25
1051.44	27
1052.56	29
1053.69	30
1054.81	29
1055.93	32
1057.06	34
1058.18	26
1059.3	26
1060.43	31
1061.55	30
1062.67	26
1063.79	27
1064.92	26
1066.04	28
1067.16	27
1068.28	30
1069.4	29
1070.52	30
1071.65	26
1072.77	26
1073.89	32
1075.01	20
1076.13	28
1077.25	28
1078.37	26
1079.49	25
1080.61	30
1081.73	29
1082.85	26
1083.97	25
1085.09	28
1086.2	30
1087.32	27
1088.44	29
1089.56	26
1090.68	32
1091.8	30
1092.91	27
1094.03	24
1095.15	30
1096.26	27
1097.38	29
1098.5	29
1099.61	28
1100.73	22
1101.85	26
1102.96	24
1104.08	26
1105.19	27
1106.31	27
1107.43	30
1108.54	25
1109.66	29
1110.77	34
1111.88	29
1113	29
1114.11	32
1115.23	26
1116.34	31
1117.46	28
1118.57	29
1119.68	26
1120.8	29
1121.91	26
1123.02	32
1124.13	26
1125.25	28
1126.36	29
1127.47	31
1128.58	29
1129.69	27
1130.8	22
1131.92	28
1133.03	26
1134.14	26
1135.25	26
1136.36	26
1137.47	28
1138.58	27
1139.69	30
1140.8	24
1141.91	26
1143.02	28
1144.13	24
1145.24	28
1146.35	31
1147.46	28
1148.56	22
1149.67	30
1150.78	26
1151.89	26
1153	26
1154.1	27
1155.21	29
1156.32	26
1157.43	32
1158.53	22
1159.64	24
1160.75	25
1161.85	29
1162.96	28
1164.07	34
1165.17	26
1166.28	23
1167.38	28
1168.49	26
1169.59	30
1170.7	30
1171.8	25
1172.91	24
1174.01	24
1175.12	25
1176.22	28
1177.32	28
1178.43	28
1179.53	23
1180.64	30
1181.74	26
1182.84	24
1183.94	29
1185.05	30
1186.15	24
1187.25	26
1188.35	27
1189.46	24
1190.56	28
1191.66	28
1192.76	26
1193.86	28
1194.96	31
1196.06	27.9804
1197.16	27.8914
1198.26	27.9195
1199.37	24.1297
1200.47	29.7993
1201.57	27.9853
1202.67	29.931
1203.77	23.4071
1204.86	24.1068
1205.96	29.6476
1207.06	28.2059
1208.16	27.8757
1209.26	28.5127
1210.36	26
1211.46	26.8578
1212.56	31.1639
1213.65	25.7631
1214.75	26.5605
1215.85	25.918
1216.95	28.2274
1218.04	29.0055
1219.14	25.8749
1220.24	27.677
1221.33	26.9042
1222.43	26.5153
1223.53	24.4506
1224.62	28.1618
1225.72	28.8253
1226.82	30.5529
1227.91	25.6709
1229.01	22.4311
1230.1	25.3591
1231.2	25.7608
1232.29	29.4163
1233.39	23.8139
1234.48	27.0243
1235.58	22.9998
1236.67	24.1916
1237.77	28.1085
1238.86	27.0637
1239.95	27.9179
1241.05	23.3527
1242.14	28.4378
1243.23	27.8597
1244.33	24.3448
1245.42	27.365
1246.51	26.6227
1247.61	27.1521
1248.7	25.105
1249.79	26.5441
1250.88	26.0266
1251.97	26.1243
1253.07	26.5765
1254.16	27.7681
1255.25	29.5317
1256.34	26.9118
1257.43	28.4498
1258.52	27.9216
1259.61	27.7404
1260.7	27.0836
1261.79	26.7098
1262.88	25.2353
1263.97	29.834
1265.06	28.0794
1266.15	27.3909
1267.24	28.226
1268.33	25.1843
1269.42	26.0046
1270.51	28.6527
1271.6	28.7175
1272.68	28.5118
1273.77	29.9001
1274.86	26.2386
1275.95	25.1176
1277.04	24.9236
1278.12	25.68
1279.21	30.1458
1280.3	27.0392
1281.39	27.2437
1282.47	25.8508
1283.56	27.5784
1284.65	27.0932
1285.73	24.4091
1286.82	28.182
1287.91	26.5222
1288.99	27.0415
1290.08	29.2376
1291.16	30.1049
1292.25	26.7593
1293.33	29.995
1294.42	29.9278
1295.5	24.5482
1296.59	27.5019
1297.67	28.4167
1298.76	28.4651
1299.84	26.2647
1300.92	27.8491
1302.01	26.9611
1303.09	27.5478
1304.17	26.2095
1305.26	28.5492
1306.34	24.0921
1307.34	25
1308.43	25
1309.52	31
1310.61	27
1311.7	24
1312.78	27
1313.87	26
1314.96	26
1316.04	26
1317.13	29
1318.22	22
1319.3	26
1320.39	28
1321.48	26
1322.56	28
1323.65	31
1324.73	30
1325.82	24
1326.9	26
1327.99	31
1329.07	20
1330.16	24
1331.24	24
1332.33	33
1333.41	25
1334.5	24
1335.58	24
1336.66	26
1337.75	20
1338.83	29
1339.91	25
1341	30
1342.08	26
1343.16	28
1344.24	30
1345.33	25
1346.41	26
1347.49	24
1348.57	26
1349.65	26
1350.74	28
1351.82	27
1352.9	24
1353.98	30
1355.06	25
1356.14	26
1357.22	31
1358.3	24
1359.38	29
1360.46	30
1361.54	28
1362.62	26
1363.7	30
1364.78	30
1365.86	22
1366.94	32
1368.02	27
1369.09	28
1370.17	26
1371.25	31
1372.33	24
1373.41	24
1374.48	27
1375.56	24
1376.64	22
1377.72	28
1378.79	24
1379.87	28
1380.95	26
1382.02	32
1383.1	30
1384.17	24
1385.25	24
1386.33	28
1387.4	29
1388.48	24
1389.55	28
1390.63	30
1391.7	24
1392.78	27
1393.85	28
1394.93	30
1396	33
1397.07	28
1398.15	28
1399.22	29
1400.3	33
1401.37	32
1402.44	34
1403.52	32
1404.59	29
1405.66	22
1406.73	30
1407.81	32
1408.88	31
1409.95	32
1411.02	32
1412.09	33
1413.17	30
1414.24	28
1415.31	29
1416.38	32
1417.45	25
1418.52	28
1419.59	26
1420.66	30
1421.73	28
1422.8	26
1423.87	26
1424.94	26
1426.01	28
1427.08	30
1428.15	31
1429.22	24
1430.29	24
1431.35	30
1432.42	32
1433.49	31
1434.56	30
1435.63	29
1436.69	24
1437.76	31
1438.83	26
1439.9	26
1440.96	22
1442.03	26
1443.1	32
1444.17	30
1445.23	25
1446.3	32
1447.36	29
1448.43	27
1449.49	29
1450.56	28
1451.63	30
1452.69	32
1453.76	30
1454.82	31
1455.89	31
1456.95	31
1458.01	28
1459.08	26
1460.14	28
1461.21	22
1462.27	27
1463.34	30
1464.4	26
1465.46	30
1466.52	28
1467.59	22
1468.65	27
1469.71	32
1470.77	25
1471.84	32
1472.9	30
1473.96	24
1475.02	27
1476.08	24
1477.15	25
1478.21	32
1479.27	29
1480.33	26
1481.39	30
1482.45	28
1483.51	28
1484.57	24
1485.63	26
1486.69	24
1487.75	32
1488.81	28
1489.87	32
1490.93	23
1491.99	32
1493.05	28
1494.1	32
1495.16	24
1496.22	24
1497.28	26
1498.34	26
1499.4	26
1500.45	30
1501.51	25
1502.57	32
1503.63	28
1504.68	26
1505.74	28
1506.8	29
1507.85	26
1508.91	29
1509.97	28
1511.02	29
1512.08	28
1513.13	29
1514.19	24
1515.24	30
1516.3	30
1517.35	21
1518.41	25
1519.46	27
1520.52	28
1521.57	28
1522.63	28
1523.68	28
1524.73	30
1525.79	28
1526.84	26
1527.9	28
1528.95	27
1530	18
1531.05	24
1532.11	25
1533.16	30
1534.21	30
1535.26	28
1536.32	24
1537.37	31
1538.42	33
1539.47	24
1540.52	28
1541.57	32
1542.63	28
1543.68	31
1544.73	29
1545.78	26
1546.83	28
1547.88	27
1548.93	31
1549.98	26
1551.03	30
1552.08	22
1553.13	28
1554.18	30
1555.23	24
1556.27	25
1557.32	26
1558.37	28
1559.42	36
1560.47	24
1561.52	24
1562.56	26
1563.61	33
1564.66	30
1565.71	24
1566.75	25
1567.8	25
1568.85	27
1569.9	24
1570.94	29
1571.99	30
1573.03	29
1574.08	26
1575.13	28
1576.17	29
1577.22	26
1578.26	28
1579.31	26
1580.35	28
1581.4	27
1582.44	28
1583.49	26
1584.53	22
1585.58	31
1586.62	23
1587.66	24
1588.71	27
1589.75	26
1590.8	24
1591.84	29
1592.88	26
1593.92	30
1594.97	28
1596.01	30
1597.05	30
1598.1	24
1599.14	24
1600.18	28
1601.22	31
1602.26	27
1603.3	26
1604.35	25
1605.39	30
1606.43	28
1607.47	31
1608.51	28
1609.55	32
1610.59	30
1611.63	30
1612.67	31
1613.71	25
1614.75	26
1615.79	32
1616.83	28
1617.87	27
1618.91	32
1619.95	26
1620.99	32
1622.02	27
1623.06	29
1624.1	22
1625.14	28
1626.18	31
1627.21	27
1628.25	33
1629.29	30
1630.33	32
1631.36	30
1632.4	32
1633.44	28
1634.48	24
1635.51	28
1636.55	29
1637.58	22
1638.62	27
1639.66	28
1640.69	25
1641.73	28
1642.76	24
1643.8	28
1644.83	27
1645.87	26
1646.9	31
1647.94	24
1648.97	28
1650	30
1651.04	29
1652.07	27
1653.11	29
1654.14	31
1655.17	28
1656.21	28
1657.24	28
1658.27	24
1659.31	28
1660.34	28
1661.37	26
1662.4	24
1663.43	26
1664.47	27
1665.5	27
1666.53	25
1667.56	32
1668.59	25
1669.62	26
1670.66	29
1671.69	27
1672.72	26
1673.75	30
1674.78	29
1675.81	28
1676.84	31
1677.87	32
1678.9	29
1679.93	28
1680.96	35
1681.98	29
1683.01	26
1684.04	26
1685.07	29
1686.1	26
1687.13	22
1688.16	26
1689.18	28
1690.21	32
1691.24	26
1692.27	32
1693.3	28
1694.32	23
1695.35	27
1696.38	28
1697.4	28
1698.43	26
1699.46	24
1700.48	29
1701.51	28
1702.54	32
1703.56	25
1704.59	22
1705.61	24
1706.64	30
1707.66	29
1708.69	27
1709.71	26
1710.74	22
1711.76	29
1712.79	29
1713.81	30
1714.83	30
1715.86	28
1716.88	27
1717.91	27
1718.93	27
1719.95	26
1720.98	29
1722	26
1723.02	28
1724.04	26
1725.07	28
1726.09	29
1727.11	26
1728.13	28
1729.15	29
1730.18	28
1731.2	23
1732.22	29
1733.24	28
1734.26	27
1735.28	31
1736.3	27
1737.32	28
1738.34	32
1739.36	34
1740.38	27
1741.4	28
1742.42	27
1743.44	28
1744.46	26
1745.48	28
1746.5	24
1747.52	28
1748.54	30
1749.56	25
1750.58	29
1751.6	28
1752.61	26
1753.63	28
1754.65	23
1755.67	24
1756.68	28
1757.7	30
1758.72	29
1759.74	28
1760.75	27
1761.77	30
1762.79	32
1763.8	28
1764.82	28
1765.83	30
1766.85	25
1767.87	30
1768.88	28
1769.9	24
1770.91	31
1771.93	30
1772.94	26
1773.96	28
1774.97	28
1775.99	27
1777	27
1778.02	29
1779.03	25
1780.04	30
1781.06	24
1782.07	26
1783.09	20
1784.1	27
1785.11	26
1786.13	28
1787.14	26
1788.15	27
1789.16	31
1790.18	29
1791.19	26
1792.2	26
1793.21	26
1794.22	22
1795.23	28
1796.25	28
1797.26	29
1798.27	27
1799.28	22
1800.29	30
1801.3	31
1802.31	26
1803.32	33
1804.33	28
1805.34	22
1806.35	29
1807.36	28
1808.37	30
1809.38	30
1810.39	32
1811.4	16
1812.41	24
1813.42	27
1814.42	27
1815.43	29
1816.44	29
1817.45	30
1818.46	26
1819.47	28
1820.47	30
1821.48	30
1822.49	28
1823.49	28
1824.5	24
1825.51	26
1826.52	29
1827.52	24
1828.53	31
1829.53	26
1830.54	28
1831.55	27
1832.55	31
1833.56	27
1834.56	26
1835.57	30
1836.57	30
1837.58	30
1838.58	28
1839.59	29
1840.59	27
1841.6	28
1842.6	29
1843.61	27
1844.61	28
1845.61	28
1846.62	34
1847.62	26
1848.62	31
1849.63	29
1850.63	28
1851.63	28
1852.64	27
1853.64	27
1854.64	27
1855.64	24
1856.64	35
1857.65	26
1858.65	24
1859.65	28
1860.65	22
1861.65	30
1862.65	24
1863.65	27
1864.66	27
1865.66	28
1866.66	26
1867.66	27
1868.66	25
1869.66	28
1870.66	27
1871.66	32
1872.66	27
1873.66	24
1874.66	28
1875.65	25
1876.65	22
1877.65	28
1878.65	26
1879.65	26
1880.65	26
1881.65	26
1882.64	25
1883.64	30
1884.64	24
1885.64	24
1886.63	26
1887.63	30
1888.63	28
1889.63	28
1890.62	31
1891.62	26
1892.62	28
1893.61	31
1894.61	30
1895.6	29
1896.6	26
1897.6	25
1898.59	24
1899.59	20
1900.58	24
1901.58	28
1902.57	26
1903.57	22
1904.56	25
1905.56	22
1906.55	26
1907.54	36
1908.54	28
1909.53	28
1910.53	27
1911.52	28
1912.51	29
1913.51	31
1914.5	21
1915.49	24
1916.49	29
1917.48	30
1918.47	26
1919.46	26
1920.46	24
1921.45	28
1922.44	24
1923.43	26
1924.42	29
1925.41	28
1926.41	20
1927.4	24
1928.39	28
1929.38	30
1930.37	26
1931.36	29
1932.35	27
1933.34	31
1934.33	28
1935.32	26
1936.31	26
1937.3	31
1938.29	26
1939.28	30
1940.27	26
1941.26	25
1942.24	28
1943.23	28
1944.22	34
1945.21	27
1946.2	28
1947.19	25
1948.17	26
1949.16	32
1950.15	28.5
1951.14	24
1952.12	32
1953.11	26
1954.1	26
1955.09	27
1956.07	28
1957.06	25
1958.05	22
1959.03	28
1960.02	26
1961	27
1961.99	28
1962.98	26
1963.96	29
1964.95	26
1965.93	25
1966.92	32
1967.9	27
1968.89	24
1969.87	24
1970.85	28
1971.84	29
1972.82	22
1973.81	26
1974.79	24
1975.78	25
1976.76	28
1977.74	27
1978.73	28
1979.71	22
1980.69	30
1981.67	26
1982.66	33
1983.64	32
1984.62	28
1985.6	25
1986.59	26
1987.57	22
1988.55	25
1989.53	20
1990.51	24
1991.49	27
1992.47	24
1993.45	29
1994.44	29
1995.42	22
1996.4	29
1997.38	24
1998.36	24
1999.34	28
2000.32	23
2001.3	26
2002.28	28
2003.26	27
2004.24	28
2005.22	28
2006.19	20
2007.17	29
2008.15	27
2009.13	25
2010.11	22
2011.09	31
2012.06	18
2013.04	24
2014.02	27
2015	26
2015.98	28
2016.95	22
2017.93	28
2018.91	27
2019.88	24
2020.86	20
2021.84	26
2022.81	28
2023.79	25
2024.77	30
2025.74	27
2026.72	29
2027.69	28
2028.67	28
2029.65	31
2030.62	22
2031.6	27
2032.57	24
2033.55	28
2034.52	25
2035.5	27
2036.47	28
2037.44	20
2038.42	27
2039.39	33
2040.36	24
2041.34	30
2042.31	26
2043.29	27
2044.26	24
2045.23	24
2046.2	26
2047.18	30
2048.15	26
2049.12	28
2050.09	35
2051.07	27
2052.04	24
2053.01	26
2053.98	25
2054.95	28
2055.93	27
2056.9	26
2057.87	25
2058.84	34
2059.81	28
2060.78	26
2061.75	18
2062.72	26
2063.69	31
2064.66	25
2065.63	21
2066.6	25
2067.57	26
2068.54	28
2069.51	29
2070.48	22
2071.45	26
2072.42	24
2073.38	26
2074.35	20
2075.32	23
2076.29	26
2077.26	28
2078.23	24
2079.19	26
2080.16	22
2081.13	22
2082.1	29
2083.06	22
2084.03	21
2085	24
2085.96	30
2086.93	20
2087.9	28
2088.86	22
2089.83	28
2090.8	26
2091.76	28
2092.73	22
2093.69	22
2094.66	28
2095.62	29
2096.59	27
2097.55	26
2098.52	26
2099.48	27
2100.45	29
2101.41	28
2102.38	30
2103.34	27
2104.31	26
2105.27	21
2106.23	20
2107.2	27
2108.16	20
2109.12	27
2110.09	24
2111.05	26
2112.01	22
2112.98	32
2113.94	27
2114.9	22
2115.86	24
2116.82	24
2117.79	26
2118.75	26
2119.71	25
2120.67	24
2121.63	24
2122.59	26
2123.55	28
2124.52	29
2125.48	29
2126.44	27
2127.4	24
2128.36	26
2129.32	30
2130.28	26
2131.24	27
2132.2	27
2133.16	28
2134.12	22
2135.08	22
2136.04	30
2136.99	30
2137.95	22
2138.91	24
2139.87	28
2140.83	31
2141.79	27
2142.75	26
2143.7	30
2144.66	24
2145.62	24.9946
2146.58	27.9278
2147.53	23.9979
2148.49	26.8712
2149.45	30.7794
2150.41	25.977
2151.36	27.5071
2152.32	20.2941
2153.27	25.8426
2154.23	24.2008
2155.19	27.1774
2156.14	22.1127
2157.1	24.7414
2158.06	21.7516
2159.01	24
2159.97	22.3169
2160.92	26.3111
2161.88	23.8303
2162.83	24
2163.79	28.0441
2164.74	26.9971
2165.7	24.1688
2166.65	27.3257
2167.61	26.4469
2168.56	27.0631
2169.51	25.7426
2170.47	25.9911
2171.42	24.5392
2172.38	27.815
2173.33	26.2647
2174.28	23.9674
2175.24	26.6539
2176.19	26.767
2177.14	24.7954
2178.09	26.1261
2179.05	25.6685
2180	27
2180.95	26.7018
2181.9	24.426
2182.86	26.412
2183.81	23.0092
2184.76	24.4102
2185.71	24.535
2186.66	27.397
2187.61	23.5825
2188.57	24.5009
2189.52	24.7353
2190.47	26.8013
2191.42	25.6926
2192.37	22.3381
2193.32	25.4374
2194.27	24.9181
2195.22	26.8847
2196.17	22.278
2197.12	25.8103
2198.07	23.3084
2199.02	22.4589
2199.97	24.5637
2200.92	25.1011
2201.87	22.243
2202.82	27.1979
2203.76	27.4216
2204.71	24.9572
2205.66	23.1461
2206.61	23.5121
2207.56	24.5652
2208.51	22.6078
2209.45	22.6747
2210.4	24.518
2211.35	24.6493
2212.3	24.9506
2213.24	22.5575
2214.19	21.8811
2215.14	24.4111
2216.09	27.7434
2217.03	27.0095
2217.98	26.1524
2218.93	25.1856
2219.87	21.0008
2220.82	22.7872
2221.77	25.0884
2222.71	26.2892
2223.66	22.2991
2224.6	23.0258
2225.55	27.7941
2226.49	25.2535
2227.44	25.9281
2228.38	25.1846
2229.33	28.5973
2230.27	23.7524
2231.22	23.501
2232.16	25.1029
2233.11	25.3821
2234.05	26.5695
2235	24.793
2235.94	25.2259
2236.88	24.5453
2237.83	26.3971
2238.77	26.6682
2239.71	25.6484
2240.66	26.5172
2241.6	24.6791
2242	23
2242.95	26
2243.9	26
2244.84	24
2245.79	28
2246.74	29
2247.69	25
2248.63	20
2249.58	24
2250.53	27
2251.47	28
2252.42	23
2253.37	24
2254.31	23
2255.26	24
2256.2	27
2257.15	22
2258.1	28
2259.04	23
2259.99	32
2260.93	20
2261.88	25
2262.82	27
2263.77	28
2264.71	24
2265.65	20
2266.6	26
2267.54	28
2268.49	24
2269.43	29
2270.38	25
2271.32	26
2272.26	26
2273.21	27
2274.15	27
2275.09	25
2276.04	32
2276.98	26
2277.92	27
2278.86	24
2279.81	24
2280.75	27
2281.69	24
2282.63	27
2283.57	23
2284.52	29
2285.46	26
2286.4	28
2287.34	28
2288.28	28
2289.22	29
2290.16	32
2291.1	22
2292.04	21
2292.98	25
2293.93	24
2294.86	27
2295.8	24
2296.74	22
2297.69	27
2298.62	24
2299.56	20
2300.5	25
2301.44	26
2302.38	26
2303.32	26
2304.26	32
2305.2	27
2306.14	27
2307.07	26
2308.01	24
2308.95	24
2309.89	28
2310.83	24
2311.76	26
2312.7	24
2313.64	26
2314.58	25
2315.51	31
2316.45	22
2317.39	26
2318.32	24
2319.26	26
2320.2	30
2321.13	28
2322.07	24
2323	29
2323.94	27
2324.88	26
2325.81	29
2326.75	28
2327.68	24
2328.62	26
2329.55	27
2330.49	28
2331.42	28
2332.36	24
2333.29	25
2334.22	26
2335.16	28
2336.09	26
2337.03	27
2337.96	26
2338.89	28
2339.83	27
2340.76	24
2341.69	24
2342.63	27
2343.56	25
2344.49	23
2345.43	26
2346.36	25
2347.29	25
2348.22	28
2349.15	23
2350.09	27
2351.02	24
2351.95	28
2352.88	28
2353.81	29
2354.74	27
2355.67	25
2356.61	28
2357.54	25
2358.47	18
2359.4	22
2360.33	25
2361.26	29
2362.19	26
2363.12	26
2364.05	23
2364.98	26
2365.91	24
2366.84	27
2367.77	30
2368.7	30
2369.62	28
2370.55	26
2371.48	23
2372.41	26
2373.34	24
2374.27	26
2375.2	28
2376.12	29
2377.05	25
2377.98	30
2378.91	31
2379.83	26
2380.76	26
2381.69	30
2382.62	26
2383.54	25
2384.47	26
2385.4	28
2386.32	24
2387.25	26
2388.18	24
2389.1	24
2390.03	24
2390.95	26
2391.88	22
2392.81	24
2393.73	28
2394.66	27
2395.58	23
2396.51	28
2397.43	25
2398.36	34
2399.28	24
2400.2	28
2401.13	26
2402.05	26
2402.98	25
2403.9	30
2404.83	21
2405.75	28
2406.67	30
2407.6	24
2408.52	30
2409.44	21
2410.37	28
2411.29	26
2412.21	31
2413.13	31
2414.06	28
2414.98	24
2415.9	28
2416.82	30
2417.74	28
2418.67	24
2419.59	24
2420.51	24
2421.43	26
2422.35	25
2423.27	27
2424.19	27
2425.11	30
2426.03	25
2426.96	24
2427.88	26
2428.8	18
2429.72	23
2430.64	22
2431.56	30
2432.48	29
2433.39	25
2434.31	24
2435.23	27
2436.15	25
2437.07	29
2437.99	24
2438.91	26
2439.83	30
2440.75	27
2441.67	25
2442.58	29
2443.5	22
2444.42	27
2445.34	23
2446.26	27
2447.17	25
2448.09	30
2449.01	27
2449.92	26
2450.84	28
2451.76	26
2452.68	22
2453.59	26
2454.51	26
2455.42	30
2456.34	28
2457.26	22
2458.17	26
2459.09	26
2460	28
2460.92	30
2461.83	30
2462.75	26
2463.66	26
2464.58	24
2465.49	27
2466.41	26
2467.32	28
2468.24	25
2469.15	30
2470.07	18
2470.98	26
2471.89	26
2472.81	28
2473.72	22
2474.64	28
2475.55	29
2476.46	30
2477.37	30
2478.29	29
2479.2	24
2480.11	29
2481.03	28
2481.94	31
2482.85	31
2483.76	26
2484.67	28
2485.59	24
2486.5	26
2487.41	28
2488.32	31
2489.23	27
2490.14	28
2491.05	29
2491.97	24
2492.88	28
2493.79	28
2494.7	29
2495.61	28
2496.52	26
2497.43	28
2498.34	28
2499.25	26
2500.16	28
2501.07	28
2501.98	24
2502.89	28
2503.79	28
2504.7	30
2505.61	24
2506.52	28
2507.43	31
2508.34	27
2509.25	25
2510.16	26
2511.06	28
2511.97	26
2512.88	26
2513.79	24
2514.69	32
2515.6	28
2516.51	24
2517.42	26
2518.32	28
2519.23	22
2520.14	24
2521.04	22
2521.95	30
2522.86	32
2523.76	28
2524.67	22
2525.57	26
2526.48	26
2527.39	21
2528.29	26
2529.2	22
2530.1	29
2531.01	28
2531.91	24
2532.82	32
2533.72	26
2534.63	25
2535.53	26
2536.44	24
2537.34	26
2538.24	29
2539.15	26
2540.05	27
2540.96	29
2541.86	26
2542.76	23
2543.67	29
2544.57	28
2545.47	26
2546.37	28
2547.28	26
2548.18	27
2549.08	31
2549.99	22
2550.89	26
2551.79	24
2552.69	25
2553.59	31
2554.49	29
2555.4	28
2556.3	24
2557.2	27
2558.1	26
2559	28
2559.9	29
2560.8	26
2561.7	23
2562.6	24
2563.5	27
2564.4	23
2565.3	29
2566.2	23
2567.1	23
2568	26
2568.9	29
2569.8	26
2570.7	24
2571.6	26
2572.5	30
2573.4	28
2574.3	26
2575.2	28
2576.1	31
2576.99	27
2577.89	29
2578.79	29
2579.69	30
2580.59	32
2581.48	31
2582.38	28
2583.28	26
2584.18	27
2585.07	23
2585.97	27
2586.87	29
2587.76	24
2588.66	26
2589.56	28
2590.45	30
2591.35	28
2592.25	19
2593.14	27
2594.04	27
2594.93	27
2595.83	27
2596.73	27
2597.62	22
2598.52	26
2599.41	24
2600.31	25
2601.2	27
2602.1	32
2602.99	28
2603.88	28
2604.78	28
2605.67	26
2606.57	29
2607.46	28
2608.35	22
2609.25	24
2610.14	30
2611.03	30
2611.93	26
2612.82	27
2613.71	29
2614.61	27
2615.5	24
2616.39	29
2617.29	26
2618.18	26
2619.07	22
2619.96	26
2620.85	27
2621.75	25
2622.64	27
2623.53	27
2624.42	26
2625.31	27
2626.2	26
2627.09	30
2627.98	26
2628.88	25
2629.77	32
2630.66	25
2631.55	26
2632.44	28
2633.33	21
2634.22	28
2635.11	21
2636	32
2636.89	28
2637.78	20
2638.66	28
2639.55	26
2640.44	29
2641.33	28
2642.22	30
2643.11	22
2644	28
2644.89	28
2645.78	27
2646.66	29
2647.55	26
2648.44	23
2649.33	20
2650.21	28
2651.1	24
2651.99	26
2652.88	28
2653.76	25
2654.65	25
2655.54	26
2656.42	30
2657.31	22
2658.2	28
2659.08	26
2659.97	28
2660.86	30
2661.74	28
2662.63	29
2663.51	25
2664.4	31
2665.29	23
2666.17	27
2667.06	26
2667.94	25
2668.83	24
2669.71	27
2670.6	27
2671.48	24
2672.36	26
2673.25	27
2674.13	26
2675.02	26
2675.9	27
2676.78	24
2677.67	28
2678.55	27
2679.43	30
2680.32	30
2681.2	29
2682.08	26
2682.97	30
2683.85	27
2684.73	26
2685.61	29
2686.5	29
2687.38	28
2688.26	30
2689.14	26
2690.03	24
2690.91	26
2691.79	32
2692.67	25
2693.55	29
2694.43	28
2695.31	29
2696.19	22
2697.08	23
2697.96	28
2698.84	25
2699.72	25
2700.6	23
2701.48	29
2702.36	24
2703.24	29
2704.12	27
2705	32
2705.88	28
2706.76	24
2707.64	30
2708.51	22
2709.39	28
2710.27	23
2711.15	28
2712.03	28
2712.91	25
2713.79	24
2714.67	28
2715.54	22
2716.42	25
2717.3	24
2718.18	30
2719.05	30
2719.93	30
2720.81	24
2721.69	30
2722.56	24
2723.44	26
2724.32	26
2725.19	25
2726.07	31
2726.95	24
2727.82	26
2728.7	29
2729.58	29
2730.45	30
2731.33	26
2732.2	29
2733.08	26
2733.95	29
2734.83	28
2735.7	24
2736.58	28
2737.45	25
2738.33	24
2739.2	26
2740.08	32
2740.95	26
2741.83	30
2742.7	22
2743.58	27
2744.45	20
2745.32	26
2746.2	29
2747.07	26
2747.94	34
2748.82	30
2749.69	25
2750.56	29
2751.44	28
2752.31	27
2753.18	26
2754.05	26
2754.93	28
2755.8	28
2756.67	29
2757.54	28
2758.42	26
2759.29	29
2760.16	30
2761.03	20
2761.9	30
2762.77	24
2763.64	24
2764.51	26
2765.38	27
2766.26	30
2767.13	28
2768	27
2768.87	26
2769.74	26
2770.61	22
2771.48	22
2772.35	28
2773.22	25
2774.09	30
2774.96	28
2775.83	27
2776.7	22
2777.56	29
2778.43	26
2779.3	24
2780.17	26
2781.04	25
2781.91	26
2782.78	27
2783.64	30
2784.51	28
2785.38	30
2786.25	26
2787.12	27
2787.98	24
2788.85	27
2789.72	27
2790.59	28
2791.45	28
2792.32	27
2793.19	30
2794.05	30
2794.92	24
2795.79	29
2796.65	29
2797.52	26
2798.38	30
2799.25	26
2800.12	23
2800.98	30
2801.85	31
2802.71	26
2803.58	26
2804.44	24
2805.31	26
2806.17	29
2807.04	27
2807.9	27
2808.77	27
2809.63	29
2810.5	28
2811.36	28
2812.22	29
2813.09	22
2813.95	35
2814.82	24
2815.68	29
2816.54	26
2817.41	28
2818.27	30
2819.13	28
2820	26
2820.86	28
2821.72	27
2822.58	27
2823.45	28
2824.31	24
2825.17	27
2826.03	26
2826.9	27
2827.76	30
2828.62	28
2829.48	28
2830.34	30
2831.2	27
2832.06	30
2832.92	24
2833.79	32
2834.65	30
2835.51	31
2836.37	29
2837.23	28
2838.09	27
2838.95	28
2839.81	24
2840.67	28
2841.53	31
2842.39	33
2843.25	22
2844.11	26
2844.97	24
2845.83	24
2846.68	24
2847.54	26
2848.4	26
2849.26	24
2850.12	26
2850.98	29
2851.84	34
2852.69	26
2853.55	26
2854.41	31
2855.27	29
2856.13	18
2856.98	31
2857.84	32
2858.7	24
2859.56	24
2860.41	31
2861.27	32
2862.13	28
2862.98	28
2863.84	26
2864.7	33
2865.55	29
2866.41	24
2867.27	34
2868.12	26
2868.98	30
2869.83	30
2870.69	32
2871.54	31
2872.4	30
2873.25	27
2874.11	33
2874.96	27
2875.82	28
2876.68	32
2877.53	32
2878.38	28
2879.24	27
2880.09	29
2880.95	27
2881.8	35
2882.65	28
2883.51	33
2884.36	32
2885.22	37
2886.07	30
2886.92	32
2887.77	32
2888.63	35
2889.48	34
2890.33	42
2891.19	40
2892.04	38
2892.89	34
2893.74	38
2894.6	41
2895.45	43
2896.3	40
2897.15	44
2898	44
2898.85	46
2899.71	50
2900.56	50
2901.41	47
2902.26	54
2903.11	52
2903.96	62
2904.81	60
2905.66	62
2906.51	61
2907.36	56
2908.21	56
2909.06	53
2909.91	61
2910.76	56
2911.61	56
2912.46	44
2913.31	51
2914.16	44
2915.01	41
2915.86	40
2916.71	38
2917.56	38
2918.41	38
2919.26	37
2920.1	39
2920.95	30
2921.8	39
2922.65	37
2923.5	34
2924.34	32
2925.19	30
2926.04	28
2926.89	34
2927.74	32
2928.58	38
2929.43	28
2930.28	33
2931.12	28
2931.97	30
2932.82	30
2933.66	28
2934.51	30
2935.36	23
2936.2	32
2937.05	32
2937.89	32
2938.74	27
2939.59	28
2940.43	28
2941.28	32
2942.12	26
2942.97	22
2943.81	28
2944.66	29
2945.5	28
2946.35	30
2947.19	31
2948.04	32
2948.88	28
2949.72	32
2950.57	33
2951.41	30
2952.26	27
2953.1	33
2953.94	34
2954.79	31
2955.63	34
2956.47	34
2957.32	35
2958.16	32
2959	34
2959.85	35
2960.69	34
2961.53	32
2962.37	42
2963.22	41
2964.06	33
2964.9	38
2965.74	39
2966.58	41
2967.42	42
2968.27	35
2969.11	38
2969.95	42
2970.79	40
2971.63	38
2972.47	34
2973.31	34
2974.15	34
2974.99	36
2975.83	30
2976.68	29
2977.52	37
2978.36	28
2979.2	28
2980.04	31
2980.88	27
2981.71	26
2982.55	32
2983.39	26
2984.23	25
2985.07	24
2985.91	26
2986.75	30
2987.59	23
2988.43	25
2989.27	24
2990.1	28
2990.94	25
2991.78	26
2992.62	30
2993.46	28
2994.3	34
2995.13	30
2995.97	28
2996.81	26
2997.64	26
2998.48	28
2999.32	24
