#Acq. time (s)=	3
#Accumulations=	3
#Range (cm-¹)=	100...3000
#Windows=	3
#Autofocus=	Off
#AutoExposure=	Off
#Spike filter=	Multiple accum.
#Delay time (s)=	0
#Binning=	1
#Readout mode=	Signal
#DeNoise=	Off
#ICS correction=	Off
#Dark correction=	Off
#Inst. Process=	Off
#Instrument=	LabRAM HR Evol
#Detector=	Syncerity OE
#Objective=	x100_VIS_LWD
#Grating=	600 (500nm)
#ND Filter=	25%
#Laser=	633nm_Edge
#Hole=	100.021
#Range=	Visible
#Project=	Bolus
#Sample=	B3
#Site=	stripside
#Title=	m04
#Remark=	
#Date=	03.11.2025 20:12
#Acquired=	03.11.2025 20:12:42
100.969	29
102.252	32
103.535	33
104.818	32
106.101	28
107.384	24
108.666	29
109.948	30
111.232	30
112.514	30
113.795	31
115.077	35
116.358	30
117.639	31
118.919	30
120.2	34
121.48	30
122.76	32
124.04	34
125.32	28
126.599	32
127.879	28
129.158	30
130.436	34
131.715	28
132.992	39
134.27	36
135.548	33
136.826	38
138.104	34
139.381	34
140.658	35
141.935	32
143.212	32
144.489	36
145.763	34
147.04	34
148.315	41
149.591	37
150.867	38
152.142	36
153.416	45
154.691	41
155.965	44
157.24	40
158.514	38
159.786	41
161.06	36
162.334	37
163.607	39
164.881	38
166.152	40
167.425	42
168.698	38
169.969	36
171.241	38
172.513	34
173.785	39
175.055	43
176.326	38
177.597	36
178.867	41
180.137	39
181.408	41
182.677	38
183.947	33
185.217	44
186.485	39
187.755	34
189.022	36
190.291	32
191.56	43
192.828	32
194.096	41
195.363	38
196.631	32
197.899	37
199.165	37
200.432	35
201.698	39
202.965	40
204.23	34
205.497	38
206.762	40
208.028	36
209.293	36
210.559	39
211.823	39
213.088	37
214.352	32
215.617	38
216.88	38
218.145	33
219.408	37
220.672	41
221.934	29
223.196	33
224.46	31
225.722	36
226.985	32
228.246	37
229.508	36
230.77	31
232.031	32
233.292	28
234.554	35
235.814	30
237.074	33
238.335	30
239.595	28
240.854	36
242.115	28
243.374	30
244.633	27
245.893	20
247.151	32
248.409	30
249.667	36
250.927	32
252.184	27
253.442	30
254.699	28
255.957	28
257.214	32
258.47	26
259.727	34
260.983	29
262.24	29
263.496	30
264.752	32
266.007	28
267.262	30
268.517	28
269.773	28
271.028	32
272.282	28
273.536	30
274.79	31
276.044	33
277.297	31
278.551	29
279.804	30
281.057	32
282.31	28
283.564	30
284.816	30
286.068	34
287.32	32
288.572	29
289.823	29
291.074	32
292.325	34
293.576	28
294.827	26
296.077	32
297.328	30
298.578	32
299.828	29
301.077	33
302.325	28
303.575	28
304.824	28
306.073	32
307.321	30
308.57	33
309.818	27
311.066	28
312.314	29
313.562	31
314.808	25
316.055	30
317.302	29
318.549	30
319.796	32
321.042	32
322.288	29
323.533	30
324.779	29
326.024	31
327.27	32
328.515	33
329.759	30
331.004	29
332.248	30
333.493	31
334.736	28
335.98	29
337.223	30
338.466	28
339.709	28
340.952	24
342.195	34
343.437	31
344.68	32
345.922	29
347.163	32
348.405	31
349.647	32
350.887	30
352.128	34
353.37	30
354.609	28
355.85	28
357.089	35
358.33	25
359.57	34
360.809	32
362.049	28
363.287	33
364.526	24
365.764	32
367.003	31
368.241	31
369.479	32
370.718	32
371.955	29
373.193	34
374.429	24
375.667	28
376.903	33
378.139	31
379.376	28
380.611	32
381.848	33
383.083	34
384.319	26
385.554	38
386.79	33
388.024	31
389.258	36
390.493	26
391.727	24
392.962	31
394.195	30
395.428	29
396.663	28
397.895	29
399.128	29
400.361	28
401.593	26
402.825	36
404.058	29
405.29	30
406.521	33
407.752	24
408.985	28
410.215	26
411.446	33
412.678	27
413.908	26
415.138	24
416.367	26
417.597	26
418.828	32
420.057	22
421.286	31
422.514	32
423.743	26
424.973	22
426.201	28
427.429	27
428.657	29
429.884	28
431.112	31
432.34	27
433.567	24
434.794	29
436.02	34
437.247	29
438.473	32
439.699	24
440.925	26
442.15	29
443.376	28
444.601	30
445.826	26
447.051	35
448.275	28
449.5	32
450.724	28
451.948	26
453.172	26
454.396	30
455.619	30
456.842	28
458.065	30
459.288	34
460.511	30
461.733	34
462.956	34
464.178	37
465.4	22
466.621	34
467.843	36
469.064	35
470.285	34
471.505	35
472.726	39
473.946	36
475.166	33
476.387	37
477.606	36
478.825	45
480.044	44
481.264	42
482.483	43
483.702	46
484.921	50
486.138	56
487.356	44
488.574	58
489.792	54
491.009	60
492.226	52
493.444	50
494.661	40
495.877	50
497.094	46
498.31	42
499.525	47
500.741	40
501.958	43
503.172	36
504.388	47
505.603	40
506.817	36
508.032	35
509.247	34
510.46	40
511.675	32
512.888	30
514.102	33
515.316	32
516.528	38
517.742	33
518.954	26
520.167	37
521.378	28
522.591	31
523.802	28
525.015	30
526.226	31
527.438	32
528.648	32
529.86	28
531.07	30
532.281	32
533.491	31
534.702	31
535.911	28
537.121	31
538.33	24
539.54	35
540.749	28
541.957	33
543.167	29
544.375	28
545.584	24
546.791	32
547.999	26
549.207	30
550.414	30
551.621	25
552.829	28
554.035	34
555.241	30
556.449	30
557.655	27
558.86	31
560.066	32
561.272	31
562.477	33
563.682	33
564.888	26
566.093	28
567.297	30
568.501	28
569.705	31
570.91	34
572.114	34
573.317	24
574.52	33
575.723	28
576.927	29
578.13	28
579.332	29
580.535	34
581.737	29
582.938	27
584.14	32
585.343	32
586.544	30
587.745	34
588.946	28
590.147	32
591.347	31
592.548	32
593.748	35
594.948	30
596.147	30
597.347	31
598.546	30
599.745	28
600.944	31
602.143	32
603.342	32
604.54	30
605.738	33
606.937	30
608.134	32
609.332	33
610.529	31
611.727	37
612.924	31
614.121	34
615.317	28
616.513	35
617.709	32
618.905	33
620.101	33
621.297	31
622.492	26
623.688	35
624.883	32
626.077	28
627.271	30
628.466	29
629.66	30
630.855	34
632.047	24
633.241	32
634.435	26
635.629	32
636.82	28
638.014	30
639.207	29
640.399	30
641.59	26
642.783	28
643.975	38
645.166	26
646.357	35
647.549	28
648.741	36
649.93	32
651.122	33
652.311	22
653.502	26
654.692	27
655.881	36
657.071	30
658.261	32
659.45	28
660.639	31
661.827	29
663.016	35
664.204	28
665.393	32
666.581	28
667.769	24
668.957	34
670.143	33
671.331	36
672.518	32
673.705	32
674.891	32
676.078	36
677.264	30
678.451	30
679.636	30
680.821	34
682.007	37
683.192	35
684.378	38
685.562	36
686.747	34
687.931	32
689.115	28
690.3	29
691.483	36
692.666	32
693.851	37
695.034	32
696.216	37
697.4	34
698.582	33
699.764	31
700.948	40
702.129	38
703.311	36
704.493	44
705.674	36
706.855	46
708.036	46
709.218	54
710.399	42
711.579	45
712.759	48
713.939	44
715.12	40
716.299	39
717.478	33
718.657	34
719.836	38
721.015	34
722.195	30
723.373	34
724.552	33
725.729	28
726.907	33
728.085	34
729.262	30
730.44	31
731.617	32
732.795	33
733.972	32
735.148	35
736.324	30
737.501	35
738.677	33
739.852	33
741.028	28
742.203	32
743.379	28
744.554	28
745.729	31
746.903	26
748.078	28
749.252	32
750.426	32
751.599	30
752.772	26
753.946	33
755.119	34
756.293	35
757.466	32
758.639	33
759.811	28
760.984	30
762.155	34
763.327	30
764.499	31
765.67	24
766.842	32
768.013	30
769.183	32
770.354	28
771.525	31
772.696	30
773.865	30
775.035	29
776.205	25
777.375	29
778.544	28
779.713	28
780.882	36
782.052	31
783.219	39
784.388	26
785.557	30
786.724	32
787.892	32
789.06	34
790.227	36
791.395	28
792.562	24
793.728	32
794.895	31
796.061	31
797.228	32
798.395	37
799.56	30
800.726	30
801.891	33
803.057	27
804.221	28
805.387	34
806.551	32
807.716	28
808.879	30
810.044	30
811.208	38
812.372	28
813.535	32
814.699	34
815.862	35
817.025	29
818.188	33
819.351	35
820.513	29
821.675	28
822.837	32
823.999	29
825.161	31
826.322	30
827.483	28
828.645	28
829.805	28
830.966	31
832.127	31
833.287	30
834.447	33
835.607	28
836.767	34
837.926	28
839.085	29
840.245	30
841.404	25
842.562	27
843.72	26
844.88	34
846.038	25
847.195	32
848.353	34
849.512	31
850.669	31
851.826	31
852.983	31
854.139	26
855.296	28
856.453	27
857.609	32
858.765	30
859.921	29
861.077	30
862.232	33
863.387	28
864.542	31
865.697	26
866.852	30
868.008	29
869.162	31
870.316	29
871.47	29
872.624	29
873.778	31
874.931	30
876.084	31
877.237	30
878.39	30
879.543	29
880.695	35
881.846	28
882.999	33
884.151	31
885.302	31
886.454	29
887.606	29
888.757	24
889.908	31
891.059	28
892.21	28
893.359	27
894.509	31
895.659	32
896.81	29
897.959	24
899.109	29
900.257	30
901.407	26
902.556	30
903.705	33
904.854	31
906.001	26
907.149	30
908.298	27
909.446	28
910.592	30
911.74	26
912.888	28
914.034	33
915.181	28
916.328	29
917.473	29
918.62	26
919.766	26
920.911	30
922.058	29
923.204	28
924.348	22
925.494	30
926.638	30
927.783	25
928.928	33
930.072	31
931.216	27
932.36	29
933.504	30
934.647	30
935.791	32
936.933	28
938.077	28
939.219	28
940.363	25
941.504	30
942.647	28
943.789	33
944.932	29
946.073	32
947.215	26
948.356	27
949.498	28
950.638	25
951.778	27
952.92	26
954.06	32
955.199	26
956.34	30
957.479	27
958.62	28
959.759	28
960.898	26
962.038	30
963.176	30
964.315	27
965.453	27
966.592	27
967.73	30
968.867	28
970.006	28
971.144	27.5
972.281	26
973.418	28
974.554	22
975.692	26
976.829	30
977.965	24
979.101	28
980.237	27
981.374	28
982.509	28
983.645	24
984.78	28
985.915	34
987.05	30
988.184	28
989.319	28
990.453	28
991.589	28
992.722	30
993.856	24
994.99	31
996.123	29
997.257	22
998.39	27
999.523	30
1000.66	20
1001.79	28
1002.92	30
1004.05	24
1005.18	27
1006.32	24
1007.45	30
1008.58	34
1009.71	29
1010.84	31
1011.97	24
1013.1	31
1014.23	31
1015.36	33
1016.49	26
1017.62	29
1018.75	29
1019.88	26
1021.01	27
1022.14	28
1023.27	22
1024.4	27
1025.53	25
1026.66	28
1027.79	30
1028.91	25
1030.04	24
1031.17	31
1032.3	29
1033.42	26
1034.55	22
1035.68	26
1036.81	29
1037.93	29
1039.06	28
1040.18	32
1041.31	26
1042.44	27
1043.56	31
1044.69	29
1045.81	28
1046.94	28
1048.06	28
1049.19	24
1050.31	28
1051.44	29
1052.56	25
1053.69	26
1054.81	28
1055.93	32
1057.06	28
1058.18	32
1059.3	22
1060.43	25
1061.55	30
1062.67	32
1063.79	22
1064.92	31
1066.04	30
1067.16	20
1068.28	26
1069.4	24
1070.52	24
1071.65	26
1072.77	28
1073.89	27
1075.01	28
1076.13	29
1077.25	30
1078.37	32
1079.49	26
1080.61	30
1081.73	30
1082.85	24
1083.97	30
1085.09	30
1086.2	24
1087.32	29
1088.44	27
1089.56	33
1090.68	28
1091.8	27
1092.91	28
1094.03	30
1095.15	25
1096.26	29
1097.38	26
1098.5	22
1099.61	27
1100.73	34
1101.85	28
1102.96	26
1104.08	26
1105.19	28
1106.31	28
1107.43	28
1108.54	31
1109.66	24
1110.77	32
1111.88	29
1113	28
1114.11	28
1115.23	31
1116.34	26
1117.46	24
1118.57	25
1119.68	32
1120.8	26
1121.91	29
1123.02	28
1124.13	36
1125.25	26
1126.36	28
1127.47	28
1128.58	26
1129.69	29
1130.8	30
1131.92	30
1133.03	24
1134.14	26
1135.25	29
1136.36	32
1137.47	31
1138.58	22
1139.69	26
1140.8	27
1141.91	28
1143.02	30
1144.13	32
1145.24	35
1146.35	28
1147.46	28
1148.56	28
1149.67	26
1150.78	27
1151.89	28
1153	27
1154.1	27
1155.21	33
1156.32	30
1157.43	22
1158.53	25
1159.64	28
1160.75	30
1161.85	26
1162.96	30
1164.07	28
1165.17	26
1166.28	29
1167.38	32
1168.49	34
1169.59	28
1170.7	30
1171.8	31
1172.91	28
1174.01	29
1175.12	24
1176.22	33
1177.32	26
1178.43	30
1179.53	23
1180.64	26
1181.74	27
1182.84	25
1183.94	27
1185.05	28
1186.15	22
1187.25	25
1188.35	23
1189.46	25
1190.56	28
1191.66	24
1192.76	27
1193.86	26
1194.96	24
1196.06	24.0098
1197.16	24.0294
1198.26	29.902
1199.37	26.0572
1200.47	29.9559
1201.57	33.701
1202.67	27.931
1203.77	27.8529
1204.86	26.0443
1205.96	28.8137
1207.06	27.9508
1208.16	28
1209.26	24.2393
1210.36	25.7353
1211.46	27.5029
1212.56	24.2277
1213.65	27.9954
1214.75	25.5232
1215.85	27.286
1216.95	27.4028
1218.04	24.8039
1219.14	27.0132
1220.24	25.1182
1221.33	22.9028
1222.43	27.4322
1223.53	28.7253
1224.62	26.7402
1225.72	26.6116
1226.82	31.3635
1227.91	24.9974
1229.01	29.1321
1230.1	26.6511
1231.2	30.0711
1232.29	28.5694
1233.39	24.6657
1234.48	26.3068
1235.58	26.5736
1236.67	27
1237.77	27.7688
1238.86	29.522
1239.95	28.1912
1241.05	26.4412
1242.14	28.5261
1243.23	27.6899
1244.33	29.0699
1245.42	25.5807
1246.51	28.6324
1247.61	27.7483
1248.7	28.1048
1249.79	27.1618
1250.88	26.3254
1251.97	29.4853
1253.07	25.2449
1254.16	26.4949
1255.25	29.6312
1256.34	30.4151
1257.43	25.4954
1258.52	27.7059
1259.61	28.1816
1260.7	29.831
1261.79	25.8114
1262.88	28.4118
1263.97	29.0595
1265.06	30.3901
1266.15	26.3676
1267.24	27.4314
1268.33	25.8157
1269.42	26.3111
1270.51	28.0147
1271.6	29.9639
1272.68	29.7007
1273.77	25.5018
1274.86	26.1629
1275.95	24.3617
1277.04	29.8451
1278.12	29.7794
1279.21	27.7968
1280.3	26.1496
1281.39	27.2129
1282.47	27.2135
1283.56	24.841
1284.65	27.2225
1285.73	29.096
1286.82	27.6824
1287.91	27.2987
1288.99	28.2629
1290.08	29.7624
1291.16	27.5211
1292.25	28.3316
1293.33	24.2451
1294.42	24.8106
1295.5	28.0112
1296.59	28.6483
1297.67	25.9072
1298.76	26.8678
1299.84	21.1126
1300.92	26.3987
1302.01	29.148
1303.09	31.7739
1304.17	30.2742
1305.26	24.4655
1306.34	28.8502
1307.34	27
1308.43	28
1309.52	29
1310.61	30
1311.7	23
1312.78	25
1313.87	24
1314.96	27
1316.04	22
1317.13	28
1318.22	30
1319.3	27
1320.39	28
1321.48	30
1322.56	23
1323.65	29
1324.73	25
1325.82	26
1326.9	26
1327.99	29
1329.07	28
1330.16	28
1331.24	24
1332.33	25
1333.41	27
1334.5	25
1335.58	28
1336.66	24
1337.75	22
1338.83	30
1339.91	26
1341	30
1342.08	26
1343.16	28
1344.24	29
1345.33	32
1346.41	28
1347.49	24
1348.57	27
1349.65	30
1350.74	28
1351.82	27
1352.9	31
1353.98	28
1355.06	27
1356.14	23
1357.22	28
1358.3	22
1359.38	29
1360.46	28
1361.54	30
1362.62	33
1363.7	29
1364.78	31
1365.86	30
1366.94	28
1368.02	29
1369.09	28
1370.17	26
1371.25	29
1372.33	28
1373.41	28
1374.48	28
1375.56	28
1376.64	27
1377.72	23
1378.79	28
1379.87	33
1380.95	30
1382.02	27
1383.1	28
1384.17	26
1385.25	28
1386.33	28
1387.4	20
1388.48	29
1389.55	28
1390.63	22
1391.7	28
1392.78	27
1393.85	28
1394.93	30
1396	28
1397.07	32
1398.15	33
1399.22	29
1400.3	28
1401.37	32
1402.44	33
1403.52	28
1404.59	30
1405.66	30
1406.73	32
1407.81	32
1408.88	37
1409.95	33
1411.02	27
1412.09	32
1413.17	33
1414.24	26
1415.31	38
1416.38	35
1417.45	34
1418.52	31
1419.59	36
1420.66	33
1421.73	28
1422.8	30
1423.87	32
1424.94	30
1426.01	31
1427.08	29
1428.15	28
1429.22	24
1430.29	32
1431.35	28
1432.42	24
1433.49	30
1434.56	32
1435.63	27
1436.69	32
1437.76	32
1438.83	27
1439.9	32
1440.96	30
1442.03	30
1443.1	30
1444.17	30
1445.23	28
1446.3	28
1447.36	29
1448.43	29
1449.49	32
1450.56	34
1451.63	33
1452.69	26
1453.76	26
1454.82	24
1455.89	26
1456.95	31
1458.01	24
1459.08	30
1460.14	30
1461.21	31
1462.27	25
1463.34	29
1464.4	28
1465.46	26
1466.52	27
1467.59	30
1468.65	24
1469.71	29
1470.77	30
1471.84	28
1472.9	26
1473.96	30
1475.02	24
1476.08	22
1477.15	26
1478.21	24
1479.27	26
1480.33	23
1481.39	22
1482.45	24
1483.51	26
1484.57	26
1485.63	25
1486.69	26
1487.75	26
1488.81	24
1489.87	30
1490.93	32
1491.99	27
1493.05	28
1494.1	27
1495.16	26
1496.22	26
1497.28	26
1498.34	26
1499.4	28
1500.45	30
1501.51	30
1502.57	24
1503.63	28
1504.68	30
1505.74	28
1506.8	30
1507.85	29
1508.91	26
1509.97	28
1511.02	26
1512.08	30
1513.13	28
1514.19	26
1515.24	30
1516.3	32
1517.35	30
1518.41	25
1519.46	24
1520.52	29
1521.57	32
1522.63	33
1523.68	27
1524.73	26
1525.79	26
1526.84	24
1527.9	28
1528.95	27
1530	22
1531.05	25
1532.11	27
1533.16	36
1534.21	29
1535.26	29
1536.32	28
1537.37	24
1538.42	26
1539.47	32
1540.52	28
1541.57	32
1542.63	27
1543.68	34
1544.73	24
1545.78	26
1546.83	30
1547.88	28
1548.93	30
1549.98	27
1551.03	31
1552.08	30
1553.13	25
1554.18	26
1555.23	27
1556.27	27
1557.32	21
1558.37	32
1559.42	28
1560.47	27
1561.52	28
1562.56	32
1563.61	34
1564.66	24
1565.71	30
1566.75	31
1567.8	30
1568.85	28
1569.9	22
1570.94	28
1571.99	29
1573.03	26
1574.08	30
1575.13	30
1576.17	23
1577.22	29
1578.26	30
1579.31	29
1580.35	28
1581.4	26
1582.44	30
1583.49	33
1584.53	30
1585.58	30
1586.62	24
1587.66	32
1588.71	28
1589.75	28
1590.8	26
1591.84	32
1592.88	24
1593.92	26
1594.97	27
1596.01	26
1597.05	30
1598.1	30
1599.14	26
1600.18	27
1601.22	23
1602.26	26
1603.3	26
1604.35	29
1605.39	28
1606.43	25
1607.47	28
1608.51	29
1609.55	29
1610.59	27
1611.63	30
1612.67	30
1613.71	25
1614.75	30
1615.79	28
1616.83	28
1617.87	24
1618.91	26
1619.95	25
1620.99	29
1622.02	24
1623.06	30
1624.1	30
1625.14	31
1626.18	26
1627.21	26
1628.25	30
1629.29	25
1630.33	28
1631.36	24
1632.4	24
1633.44	31
1634.48	29
1635.51	27
1636.55	32
1637.58	25
1638.62	25
1639.66	28
1640.69	28
1641.73	25
1642.76	29
1643.8	30
1644.83	28
1645.87	22
1646.9	28
1647.94	24
1648.97	32
1650	31
1651.04	34
1652.07	24
1653.11	31
1654.14	26
1655.17	29
1656.21	29
1657.24	30
1658.27	29
1659.31	29
1660.34	26
1661.37	28
1662.4	28
1663.43	27
1664.47	28
1665.5	28
1666.53	24
1667.56	30
1668.59	32
1669.62	26
1670.66	29
1671.69	26
1672.72	30
1673.75	26
1674.78	29
1675.81	27
1676.84	32
1677.87	31
1678.9	33
1679.93	26
1680.96	29
1681.98	30
1683.01	28
1684.04	30
1685.07	33
1686.1	22
1687.13	30
1688.16	31
1689.18	28
1690.21	28
1691.24	24
1692.27	23
1693.3	26
1694.32	31
1695.35	26
1696.38	27
1697.4	32
1698.43	27
1699.46	28
1700.48	25
1701.51	27
1702.54	28
1703.56	32
1704.59	27
1705.61	27
1706.64	26
1707.66	30
1708.69	30
1709.71	30
1710.74	24
1711.76	28
1712.79	29
1713.81	30
1714.83	28
1715.86	26
1716.88	28
1717.91	30
1718.93	26
1719.95	31
1720.98	26
1722	26
1723.02	22
1724.04	29
1725.07	24
1726.09	26
1727.11	32
1728.13	29
1729.15	28
1730.18	30
1731.2	30
1732.22	25
1733.24	31
1734.26	29
1735.28	28
1736.3	24
1737.32	29
1738.34	28
1739.36	28
1740.38	26
1741.4	26
1742.42	30
1743.44	28
1744.46	29
1745.48	28
1746.5	28
1747.52	30
1748.54	24
1749.56	26
1750.58	28
1751.6	26
1752.61	30
1753.63	22
1754.65	28
1755.67	32
1756.68	33
1757.7	31
1758.72	24
1759.74	33
1760.75	22
1761.77	27
1762.79	28
1763.8	31
1764.82	32
1765.83	25
1766.85	26
1767.87	36
1768.88	26
1769.9	22
1770.91	26
1771.93	27
1772.94	25
1773.96	31
1774.97	34
1775.99	26
1777	26
1778.02	33
1779.03	26
1780.04	27
1781.06	24
1782.07	26
1783.09	31
1784.1	29
1785.11	30
1786.13	23
1787.14	26
1788.15	28
1789.16	25
1790.18	24
1791.19	27
1792.2	26
1793.21	22
1794.22	28
1795.23	28
1796.25	30
1797.26	28
1798.27	28
1799.28	30
1800.29	26
1801.3	22
1802.31	30
1803.32	26
1804.33	27
1805.34	28
1806.35	30
1807.36	24
1808.37	33
1809.38	29
1810.39	28
1811.4	26
1812.41	24
1813.42	28
1814.42	28
1815.43	28
1816.44	28
1817.45	29
1818.46	27
1819.47	28
1820.47	29
1821.48	26
1822.49	29
1823.49	25
1824.5	25
1825.51	30
1826.52	30
1827.52	20
1828.53	26
1829.53	27
1830.54	29
1831.55	33
1832.55	27
1833.56	24
1834.56	31
1835.57	30
1836.57	31
1837.58	24
1838.58	27
1839.59	30
1840.59	30
1841.6	29
1842.6	27
1843.61	30
1844.61	25
1845.61	37
1846.62	26
1847.62	27
1848.62	30
1849.63	26
1850.63	28
1851.63	27
1852.64	29
1853.64	27
1854.64	31
1855.64	26
1856.64	29
1857.65	31
1858.65	26
1859.65	26
1860.65	30
1861.65	28
1862.65	24
1863.65	28
1864.66	29
1865.66	30
1866.66	32
1867.66	22
1868.66	25
1869.66	28
1870.66	30
1871.66	32
1872.66	29
1873.66	29
1874.66	25
1875.65	26
1876.65	31
1877.65	29
1878.65	31
1879.65	24
1880.65	29
1881.65	22
1882.64	30
1883.64	26
1884.64	28
1885.64	26
1886.63	30
1887.63	26
1888.63	32
1889.63	28
1890.62	31
1891.62	25
1892.62	30
1893.61	29
1894.61	26
1895.6	26
1896.6	24
1897.6	24
1898.59	27
1899.59	32
1900.58	24
1901.58	20
1902.57	26
1903.57	21
1904.56	27
1905.56	25
1906.55	29
1907.54	27
1908.54	29
1909.53	26
1910.53	30
1911.52	26
1912.51	20
1913.51	30
1914.5	25
1915.49	26
1916.49	31
1917.48	21
1918.47	27
1919.46	26
1920.46	33
1921.45	32
1922.44	30
1923.43	25
1924.42	32
1925.41	26
1926.41	32
1927.4	22
1928.39	27
1929.38	29
1930.37	32
1931.36	28
1932.35	26
1933.34	26
1934.33	22
1935.32	28
1936.31	28
1937.3	16
1938.29	22
1939.28	26
1940.27	30
1941.26	25
1942.24	30
1943.23	26
1944.22	26
1945.21	30
1946.2	24
1947.19	29
1948.17	26
1949.16	26
1950.15	27
1951.14	26
1952.12	22
1953.11	27
1954.1	25
1955.09	24
1956.07	22
1957.06	29
1958.05	29
1959.03	27
1960.02	28
1961	27
1961.99	31
1962.98	26
1963.96	23
1964.95	29
1965.93	24
1966.92	25
1967.9	27
1968.89	27
1969.87	30
1970.85	28
1971.84	20
1972.82	29
1973.81	30
1974.79	24
1975.78	24
1976.76	24
1977.74	27
1978.73	26
1979.71	28
1980.69	28
1981.67	24
1982.66	27
1983.64	28
1984.62	30
1985.6	27
1986.59	29
1987.57	26
1988.55	28
1989.53	26
1990.51	29
1991.49	24
1992.47	22
1993.45	24
1994.44	27
1995.42	26
1996.4	29
1997.38	27
1998.36	26
1999.34	30
2000.32	27
2001.3	26
2002.28	26
2003.26	20
2004.24	28
2005.22	29
2006.19	25
2007.17	26
2008.15	28
2009.13	31
2010.11	30
2011.09	27
2012.06	28
2013.04	26
2014.02	23
2015	28
2015.98	25
2016.95	29
2017.93	24
2018.91	28
2019.88	26
2020.86	21
2021.84	24
2022.81	27
2023.79	28
2024.77	32
2025.74	20
2026.72	26
2027.69	26
2028.67	23
2029.65	28
2030.62	28
2031.6	25
2032.57	24
2033.55	30
2034.52	24
2035.5	30
2036.47	28
2037.44	29
2038.42	23
2039.39	25
2040.36	29
2041.34	20
2042.31	29
2043.29	29
2044.26	25
2045.23	24
2046.2	28
2047.18	26
2048.15	22
2049.12	27
2050.09	28
2051.07	22
2052.04	28
2053.01	32
2053.98	22
2054.95	26
2055.93	24
2056.9	26
2057.87	28
2058.84	29
2059.81	26
2060.78	28
2061.75	30
2062.72	27
2063.69	24
2064.66	26
2065.63	27
2066.6	26
2067.57	25
2068.54	29
2069.51	26
2070.48	26
2071.45	29
2072.42	26
2073.38	28
2074.35	25
2075.32	32
2076.29	30
2077.26	21
2078.23	28
2079.19	29
2080.16	20
2081.13	28
2082.1	30
2083.06	22
2084.03	21
2085	26
2085.96	25
2086.93	24
2087.9	22
2088.86	25
2089.83	22
2090.8	25
2091.76	30
2092.73	28
2093.69	24
2094.66	24
2095.62	30
2096.59	27
2097.55	27
2098.52	22
2099.48	24
2100.45	25
2101.41	30
2102.38	24
2103.34	29
2104.31	22
2105.27	26
2106.23	27
2107.2	26
2108.16	33
2109.12	24
2110.09	26
2111.05	30
2112.01	18
2112.98	28
2113.94	24
2114.9	28
2115.86	27
2116.82	27
2117.79	34
2118.75	28
2119.71	24
2120.67	25
2121.63	30
2122.59	28
2123.55	22
2124.52	24
2125.48	22
2126.44	24
2127.4	26
2128.36	24
2129.32	28
2130.28	31
2131.24	26
2132.2	19
2133.16	27
2134.12	28
2135.08	26
2136.04	30
2136.99	33
2137.95	28
2138.91	24
2139.87	27
2140.83	28
2141.79	26
2142.75	29
2143.7	25
2144.66	24
2145.62	30.9682
2146.58	20.996
2147.53	24.1064
2148.49	29.0917
2149.45	25.1357
2150.41	26.135
2151.36	22.9405
2152.32	27.619
2153.27	25.5371
2154.23	26.1766
2155.19	22.407
2156.14	24.1268
2157.1	27.982
2158.06	27.4706
2159.01	27.4388
2159.97	26.8351
2160.92	27.0369
2161.88	27.4871
2162.83	21.9069
2163.79	22.7647
2164.74	25.5999
2165.7	20.5174
2166.65	23.3664
2167.61	26.7465
2168.56	27.811
2169.51	21.0444
2170.47	23.4447
2171.42	26.3824
2172.38	28.5652
2173.33	27.4072
2174.28	28.5329
2175.24	26.3647
2176.19	25.425
2177.14	25.7092
2178.09	24.2878
2179.05	22.0717
2180	25.2977
2180.95	21.5375
2181.9	25.0238
2182.86	24.549
2183.81	26.5372
2184.76	25.3173
2185.71	27.1667
2186.66	29.397
2187.61	25.5653
2188.57	20.9544
2189.52	23.4462
2190.47	23.1987
2191.42	22.902
2192.37	25.7206
2193.32	28
2194.27	25.8127
2195.22	26.37
2196.17	25.4345
2197.12	24.7078
2198.07	22.9118
2199.02	23.8014
2199.97	24.2175
2200.92	27.0527
2201.87	25.9514
2202.82	28.1617
2203.76	24.6157
2204.71	27.3997
2205.66	24.8217
2206.61	27.8687
2207.56	27.1505
2208.51	24.8646
2209.45	25.0303
2210.4	25.6662
2211.35	25.8708
2212.3	27.3088
2213.24	25.8868
2214.19	24.0944
2215.14	26.6095
2216.09	25.8169
2217.03	23.6725
2217.98	25.0976
2218.93	23.264
2219.87	26.6139
2220.82	23.8746
2221.77	27.0743
2222.71	24.3138
2223.66	26.0996
2224.6	25.6997
2225.55	26.3451
2226.49	24.8492
2227.44	23.6961
2228.38	24.2843
2229.33	27.4649
2230.27	26.9419
2231.22	24.0798
2232.16	25.6751
2233.11	27.4753
2234.05	27.6667
2235	25.0758
2235.94	25.2259
2236.88	27.6272
2237.83	26.9412
2238.77	26.9772
2239.71	25.7984
2240.66	22.8921
2241.6	25.4495
2242	28
2242.95	24
2243.9	26
2244.84	22
2245.79	24
2246.74	22
2247.69	26
2248.63	28
2249.58	29
2250.53	28
2251.47	20
2252.42	22
2253.37	22
2254.31	25
2255.26	28
2256.2	24
2257.15	27
2258.1	26
2259.04	24
2259.99	26
2260.93	27
2261.88	28
2262.82	20
2263.77	18
2264.71	30
2265.65	20
2266.6	29
2267.54	27
2268.49	26
2269.43	25
2270.38	25
2271.32	30
2272.26	24
2273.21	27
2274.15	25
2275.09	25
2276.04	28
2276.98	25
2277.92	27
2278.86	25
2279.81	22
2280.75	29
2281.69	26
2282.63	24
2283.57	28
2284.52	29
2285.46	24
2286.4	23
2287.34	26
2288.28	26
2289.22	22
2290.16	27
2291.1	22
2292.04	28
2292.98	26
2293.93	28
2294.86	23
2295.8	25
2296.74	26
2297.69	28
2298.62	27
2299.56	30
2300.5	24
2301.44	27
2302.38	26
2303.32	28
2304.26	24
2305.2	24
2306.14	24
2307.07	26
2308.01	23
2308.95	29
2309.89	29
2310.83	28
2311.76	27
2312.7	23
2313.64	25
2314.58	27
2315.51	29
2316.45	28
2317.39	27
2318.32	20
2319.26	31
2320.2	21
2321.13	28
2322.07	25
2323	27
2323.94	24
2324.88	30
2325.81	26
2326.75	26
2327.68	30
2328.62	24
2329.55	24
2330.49	27
2331.42	24
2332.36	24
2333.29	22
2334.22	25
2335.16	23
2336.09	25
2337.03	28
2337.96	27
2338.89	23
2339.83	26
2340.76	29
2341.69	25
2342.63	25
2343.56	29
2344.49	19
2345.43	26
2346.36	28
2347.29	26
2348.22	24
2349.15	27
2350.09	26
2351.02	24
2351.95	28
2352.88	30
2353.81	30
2354.74	24
2355.67	26
2356.61	24
2357.54	26
2358.47	26
2359.4	24
2360.33	22
2361.26	30
2362.19	18
2363.12	24
2364.05	24
2364.98	26
2365.91	24
2366.84	24
2367.77	27
2368.7	30
2369.62	26
2370.55	24
2371.48	26
2372.41	23
2373.34	28
2374.27	28
2375.2	26
2376.12	26
2377.05	24
2377.98	20
2378.91	24
2379.83	28
2380.76	22
2381.69	28
2382.62	25
2383.54	26
2384.47	26
2385.4	27
2386.32	22
2387.25	26
2388.18	23
2389.1	26
2390.03	28
2390.95	26
2391.88	27
2392.81	27
2393.73	26
2394.66	21
2395.58	26
2396.51	30
2397.43	24
2398.36	26
2399.28	26
2400.2	28
2401.13	25
2402.05	24
2402.98	26
2403.9	29
2404.83	27
2405.75	24
2406.67	22
2407.6	26
2408.52	29
2409.44	26
2410.37	32
2411.29	29
2412.21	29
2413.13	27
2414.06	30
2414.98	24
2415.9	26
2416.82	23
2417.74	30
2418.67	33
2419.59	26
2420.51	20
2421.43	26
2422.35	32
2423.27	25
2424.19	24
2425.11	30
2426.03	20
2426.96	26
2427.88	26
2428.8	24
2429.72	29
2430.64	28
2431.56	30
2432.48	20
2433.39	22
2434.31	27
2435.23	31
2436.15	23
2437.07	29
2437.99	25
2438.91	28
2439.83	29
2440.75	27
2441.67	31
2442.58	30
2443.5	29
2444.42	27
2445.34	22
2446.26	24
2447.17	30
2448.09	28
2449.01	26
2449.92	24
2450.84	26
2451.76	26
2452.68	25
2453.59	24
2454.51	25
2455.42	29
2456.34	24
2457.26	28
2458.17	25
2459.09	25
2460	29
2460.92	27
2461.83	31
2462.75	27
2463.66	29
2464.58	30
2465.49	32
2466.41	27
2467.32	29
2468.24	25
2469.15	23
2470.07	30
2470.98	32
2471.89	32
2472.81	24
2473.72	27
2474.64	25
2475.55	24
2476.46	28
2477.37	26
2478.29	34
2479.2	24
2480.11	20
2481.03	28
2481.94	24
2482.85	23
2483.76	29
2484.67	28
2485.59	18
2486.5	30
2487.41	27
2488.32	22
2489.23	26
2490.14	28
2491.05	24
2491.97	24
2492.88	28
2493.79	32
2494.7	33
2495.61	27
2496.52	28
2497.43	29
2498.34	28
2499.25	26
2500.16	23
2501.07	29
2501.98	27
2502.89	28
2503.79	29
2504.7	26
2505.61	26
2506.52	24
2507.43	27
2508.34	30
2509.25	29
2510.16	31
2511.06	24
2511.97	29
2512.88	23
2513.79	22
2514.69	28
2515.6	26
2516.51	26
2517.42	27
2518.32	26
2519.23	28
2520.14	26
2521.04	25
2521.95	31
2522.86	24
2523.76	28
2524.67	26
2525.57	29
2526.48	28
2527.39	26
2528.29	28
2529.2	32
2530.1	26
2531.01	29
2531.91	30
2532.82	28
2533.72	26
2534.63	28
2535.53	26
2536.44	29
2537.34	26
2538.24	30
2539.15	25
2540.05	23
2540.96	23
2541.86	32
2542.76	26
2543.67	28
2544.57	27
2545.47	27
2546.37	22
2547.28	26
2548.18	24
2549.08	29
2549.99	28
2550.89	28
2551.79	22
2552.69	29
2553.59	26
2554.49	30
2555.4	28
2556.3	21
2557.2	30
2558.1	30
2559	26
2559.9	22
2560.8	20
2561.7	27
2562.6	28
2563.5	28
2564.4	28
2565.3	26
2566.2	30
2567.1	26
2568	27
2568.9	27
2569.8	23
2570.7	32
2571.6	26
2572.5	26
2573.4	24
2574.3	28
2575.2	22
2576.1	29
2576.99	28
2577.89	24
2578.79	25
2579.69	29
2580.59	28
2581.48	26
2582.38	24
2583.28	28
2584.18	24
2585.07	24
2585.97	28
2586.87	26
2587.76	30
2588.66	29
2589.56	24
2590.45	26
2591.35	24
2592.25	29
2593.14	29
2594.04	29
2594.93	24
2595.83	22
2596.73	27
2597.62	33
2598.52	28
2599.41	20
2600.31	25
2601.2	28
2602.1	28
2602.99	22
2603.88	26
2604.78	28
2605.67	20
2606.57	29
2607.46	30
2608.35	24
2609.25	22
2610.14	26
2611.03	26
2611.93	25
2612.82	31
2613.71	28
2614.61	24
2615.5	29
2616.39	27
2617.29	26
2618.18	26
2619.07	30
2619.96	26
2620.85	28
2621.75	28
2622.64	30
2623.53	26
2624.42	29
2625.31	30
2626.2	26
2627.09	18
2627.98	29
2628.88	26
2629.77	28
2630.66	28
2631.55	24
2632.44	27
2633.33	22
2634.22	27
2635.11	26
2636	29
2636.89	27
2637.78	24
2638.66	26
2639.55	28
2640.44	25
2641.33	27
2642.22	30
2643.11	27
2644	28
2644.89	31
2645.78	29
2646.66	29
2647.55	29
2648.44	28
2649.33	26
2650.21	23
2651.1	24
2651.99	24
2652.88	29
2653.76	26
2654.65	25
2655.54	28
2656.42	29
2657.31	32
2658.2	20
2659.08	30
2659.97	27
2660.86	28
2661.74	24
2662.63	31
2663.51	29
2664.4	25
2665.29	26
2666.17	22
2667.06	26
2667.94	27
2668.83	28
2669.71	26
2670.6	27
2671.48	26
2672.36	28
2673.25	25
2674.13	29
2675.02	26
2675.9	23
2676.78	24
2677.67	26
2678.55	28
2679.43	30
2680.32	20
2681.2	27
2682.08	26
2682.97	32
2683.85	30
2684.73	30
2685.61	25
2686.5	27
2687.38	25
2688.26	24
2689.14	25
2690.03	28
2690.91	29
2691.79	22
2692.67	20
2693.55	27
2694.43	24
2695.31	22
2696.19	24
2697.08	28
2697.96	30
2698.84	27
2699.72	26
2700.6	24
2701.48	25
2702.36	28
2703.24	28
2704.12	22
2705	28
2705.88	24
2706.76	24
2707.64	27
2708.51	24
2709.39	26
2710.27	30
2711.15	30
2712.03	29
2712.91	26
2713.79	26
2714.67	25
2715.54	23
2716.42	25
2717.3	28
2718.18	27
2719.05	25
2719.93	26
2720.81	26
2721.69	28
2722.56	34
2723.44	25
2724.32	30
2725.19	23
2726.07	22
2726.95	27
2727.82	28
2728.7	27
2729.58	25
2730.45	28
2731.33	29
2732.2	23
2733.08	26
2733.95	24
2734.83	26
2735.7	26
2736.58	26
2737.45	26
2738.33	26
2739.2	28
2740.08	28
2740.95	25
2741.83	30
2742.7	24
2743.58	26
2744.45	27
2745.32	24
2746.2	30
2747.07	28
2747.94	26
2748.82	28
2749.69	30
2750.56	26
2751.44	24
2752.31	28
2753.18	24
2754.05	30
2754.93	22
2755.8	29
2756.67	29
2757.54	28
2758.42	27
2759.29	21
2760.16	28
2761.03	28
2761.9	29
2762.77	28
2763.64	25
2764.51	24
2765.38	26
2766.26	26
2767.13	26
2768	27
2768.87	28
2769.74	24
2770.61	30
2771.48	26
2772.35	25
2773.22	24
2774.09	24
2774.96	32
2775.83	30
2776.7	27
2777.56	30
2778.43	29
2779.3	28
2780.17	27
2781.04	30
2781.91	28
2782.78	30
2783.64	31
2784.51	26
2785.38	32
2786.25	24
2787.12	31
2787.98	21
2788.85	28
2789.72	22
2790.59	31
2791.45	30
2792.32	28
2793.19	28
2794.05	26
2794.92	28
2795.79	28
2796.65	27
2797.52	26
2798.38	26
2799.25	24
2800.12	30
2800.98	20
2801.85	26
2802.71	24
2803.58	26.5
2804.44	29
2805.31	26
2806.17	22
2807.04	27
2807.9	31
2808.77	29
2809.63	30
2810.5	29
2811.36	25
2812.22	31
2813.09	32
2813.95	26
2814.82	28
2815.68	26
2816.54	31
2817.41	24
2818.27	28
2819.13	31
2820	24
2820.86	24
2821.72	32
2822.58	28
2823.45	30
2824.31	33
2825.17	27
2826.03	31
2826.9	25
2827.76	26
2828.62	24
2829.48	29
2830.34	31
2831.2	22
2832.06	31
2832.92	30
2833.79	28
2834.65	24
2835.51	27
2836.37	27
2837.23	28
2838.09	25
2838.95	26
2839.81	24
2840.67	28
2841.53	26
2842.39	28
2843.25	28
2844.11	34
2844.97	24
2845.83	29
2846.68	26
2847.54	28
2848.4	25
2849.26	26
2850.12	26
2850.98	29
2851.84	28
2852.69	27
2853.55	34
2854.41	24
2855.27	27
2856.13	28
2856.98	31
2857.84	32
2858.7	28
2859.56	24
2860.41	29
2861.27	26
2862.13	27
2862.98	28
2863.84	31
2864.7	29
2865.55	30
2866.41	25
2867.27	28
2868.12	30
2868.98	28
2869.83	30
2870.69	24
2871.54	32
2872.4	22
2873.25	30
2874.11	33
2874.96	28
2875.82	30
2876.68	31
2877.53	30
2878.38	30
2879.24	34
2880.09	30
2880.95	32
2881.8	36
2882.65	32
2883.51	32
2884.36	29
2885.22	30
2886.07	28
2886.92	36
2887.77	35
2888.63	35
2889.48	32
2890.33	32
2891.19	41
2892.04	34
2892.89	38
2893.74	42
2894.6	39
2895.45	43
2896.3	44
2897.15	40
2898	46
2898.85	45
2899.71	50
2900.56	51
2901.41	51
2902.26	58
2903.11	60
2903.96	58
2904.81	62
2905.66	61
2906.51	60
2907.36	57
2908.21	54
2909.06	57
2909.91	58
2910.76	50
2911.61	54
2912.46	55
2913.31	50
2914.16	49
2915.01	34
2915.86	40
2916.71	43
2917.56	38
2918.41	32
2919.26	40
2920.1	35
2920.95	37
2921.8	38
2922.65	33
2923.5	38
2924.34	30
2925.19	34
2926.04	32
2926.89	29
2927.74	24
2928.58	30
2929.43	30
2930.28	30
2931.12	30
2931.97	30
2932.82	31
2933.66	31
2934.51	26
2935.36	27
2936.2	30
2937.05	30
2937.89	29
2938.74	27
2939.59	22
2940.43	34
2941.28	34
2942.12	30
2942.97	33
2943.81	30
2944.66	26
2945.5	32
2946.35	24
2947.19	30
2948.04	32
2948.88	29
2949.72	29
2950.57	32
2951.41	33
2952.26	30
2953.1	32
2953.94	34
2954.79	30
2955.63	32
2956.47	32
2957.32	38
2958.16	33
2959	39
2959.85	38
2960.69	42
2961.53	32
2962.37	40
2963.22	37
2964.06	41
2964.9	38
2965.74	40
2966.58	44
2967.42	38
2968.27	36
2969.11	38
2969.95	32
2970.79	40
2971.63	43
2972.47	40
2973.31	41
2974.15	40
2974.99	33
2975.83	38
2976.68	27
2977.52	33
2978.36	32
2979.2	32
2980.04	33
2980.88	33
2981.71	30
2982.55	31
2983.39	31
2984.23	30
2985.07	33
2985.91	31
2986.75	28
2987.59	28
2988.43	28
2989.27	27
2990.1	33
2990.94	34
2991.78	24
2992.62	30
2993.46	29
2994.3	28
2995.13	27
2995.97	24
2996.81	28
2997.64	32
2998.48	29
2999.32	27
