#Acq. time (s)=	3
#Accumulations=	3
#Range (cm-¹)=	100...3000
#Windows=	3
#Autofocus=	Off
#AutoExposure=	Off
#Spike filter=	Multiple accum.
#Delay time (s)=	0
#Binning=	1
#Readout mode=	Signal
#DeNoise=	Off
#ICS correction=	Off
#Dark correction=	Off
#Inst. Process=	Off
#Instrument=	LabRAM HR Evol
#Detector=	Syncerity OE
#Objective=	x100_VIS_LWD
#Grating=	600 (500nm)
#ND Filter=	25%
#Laser=	633nm_Edge
#Hole=	100.021
#Range=	Visible
#Project=	Bolus
#Sample=	B3
#Site=	stripside
#Title=	m05
#Remark=	
#Date=	03.11.2025 20:14
#Acquired=	03.11.2025 20:14:01
100.969	31
102.252	30
103.535	30
104.818	33
106.101	29
107.384	28
108.666	30
109.948	27
111.232	30
112.514	28
113.795	26
115.077	34
116.358	28
117.639	30
118.919	38
120.2	34
121.48	32
122.76	35
124.04	34
125.32	28
126.599	28
127.879	26
129.158	30
130.436	36
131.715	34
132.992	30
134.27	35
135.548	30
136.826	32
138.104	38
139.381	36
140.658	34
141.935	30
143.212	38
144.489	36
145.763	32
147.04	34
148.315	36
149.591	39
150.867	38
152.142	37
153.416	34
154.691	38
155.965	43
157.24	35
158.514	39
159.786	40
161.06	38
162.334	32
163.607	38
164.881	34
166.152	39
167.425	43
168.698	35
169.969	37
171.241	39
172.513	39
173.785	34
175.055	33
176.326	37
177.597	34
178.867	38
180.137	40
181.408	32
182.677	41
183.947	40
185.217	36
186.485	43
187.755	41
189.022	40
190.291	41
191.56	37
192.828	30
194.096	31
195.363	43
196.631	37
197.899	36
199.165	36
200.432	32
201.698	36
202.965	38
204.23	30
205.497	38
206.762	38
208.028	36
209.293	34
210.559	35
211.823	40
213.088	32
214.352	30
215.617	33
216.88	28
218.145	38
219.408	37
220.672	34
221.934	33
223.196	34
224.46	36
225.722	33
226.985	34
228.246	34
229.508	34
230.77	28
232.031	32
233.292	32
234.554	32
235.814	34
237.074	30
238.335	34
239.595	31
240.854	30
242.115	29
243.374	31
244.633	31
245.893	32
247.151	30
248.409	26
249.667	34
250.927	28
252.184	33
253.442	28
254.699	31
255.957	35
257.214	30
258.47	28
259.727	31
260.983	30
262.24	31
263.496	36
264.752	27
266.007	31
267.262	32
268.517	35
269.773	30
271.028	24
272.282	32
273.536	33
274.79	33
276.044	26
277.297	30
278.551	31
279.804	30
281.057	29
282.31	33
283.564	36
284.816	27
286.068	33
287.32	28
288.572	28
289.823	24
291.074	31
292.325	31
293.576	28
294.827	32
296.077	29
297.328	26
298.578	33
299.828	30
301.077	30
302.325	29
303.575	30
304.824	36
306.073	30
307.321	24
308.57	33
309.818	31
311.066	28
312.314	26
313.562	32
314.808	28
316.055	24
317.302	32
318.549	24
319.796	30
321.042	29
322.288	31
323.533	29
324.779	36
326.024	26
327.27	28
328.515	32
329.759	29
331.004	27
332.248	33
333.493	28
334.736	34
335.98	33
337.223	29
338.466	35
339.709	28
340.952	24
342.195	28
343.437	31
344.68	28
345.922	28
347.163	31
348.405	31
349.647	32
350.887	29
352.128	30
353.37	34
354.609	35
355.85	33
357.089	32
358.33	32
359.57	26
360.809	32
362.049	32
363.287	32
364.526	33
365.764	31
367.003	33
368.241	30
369.479	32
370.718	36
371.955	26
373.193	33
374.429	29
375.667	30
376.903	31
378.139	28
379.376	28
380.611	26
381.848	28
383.083	27
384.319	26
385.554	32
386.79	32
388.024	28
389.258	30
390.493	18
391.727	30
392.962	28
394.195	34
395.428	33
396.663	36
397.895	28
399.128	30
400.361	29
401.593	30
402.825	31
404.058	33
405.29	27
406.521	24
407.752	32
408.985	30
410.215	25
411.446	30
412.678	30
413.908	30
415.138	30
416.367	26
417.597	31
418.828	32
420.057	28
421.286	26
422.514	34
423.743	28
424.973	31
426.201	30
427.429	31
428.657	30
429.884	28
431.112	28
432.34	31
433.567	31
434.794	26
436.02	28
437.247	31
438.473	30
439.699	34
440.925	30
442.15	30
443.376	31
444.601	26
445.826	30
447.051	31
448.275	32
449.5	34
450.724	29
451.948	29
453.172	30
454.396	30
455.619	34
456.842	35
458.065	32
459.288	28
460.511	32
461.733	32
462.956	32
464.178	38
465.4	31
466.621	29
467.843	34
469.064	32
470.285	33
471.505	35
472.726	33
473.946	32
475.166	38
476.387	35
477.606	30
478.825	34
480.044	46
481.264	44
482.483	42
483.702	48
484.921	50
486.138	50
487.356	49
488.574	54
489.792	52
491.009	52
492.226	49
493.444	50
494.661	44
495.877	52
497.094	48
498.31	46
499.525	36
500.741	42
501.958	44
503.172	43
504.388	39
505.603	36
506.817	42
508.032	45
509.247	32
510.46	38
511.675	36
512.888	36
514.102	31
515.316	31
516.528	33
517.742	35
518.954	29
520.167	32
521.378	32
522.591	31
523.802	27
525.015	36
526.226	30
527.438	30
528.648	30
529.86	30
531.07	36
532.281	34
533.491	37
534.702	31
535.911	32
537.121	32
538.33	28
539.54	34
540.749	31
541.957	30
543.167	32
544.375	26
545.584	33
546.791	32
547.999	32
549.207	34
550.414	30
551.621	32
552.829	36
554.035	33
555.241	32
556.449	34
557.655	34
558.86	37
560.066	28
561.272	30
562.477	32
563.682	38
564.888	26
566.093	30
567.297	36
568.501	32
569.705	26
570.91	26
572.114	29
573.317	35
574.52	29
575.723	26
576.927	28
578.13	31
579.332	29
580.535	27
581.737	32
582.938	34
584.14	25
585.343	29
586.544	37
587.745	29
588.946	24
590.147	33
591.347	30
592.548	30
593.748	26
594.948	29
596.147	32
597.347	31
598.546	32
599.745	31
600.944	32
602.143	28
603.342	28
604.54	28
605.738	28
606.937	27
608.134	31
609.332	26
610.529	27
611.727	33
612.924	35
614.121	32
615.317	28
616.513	32
617.709	29
618.905	30
620.101	30
621.297	28
622.492	29
623.688	34
624.883	32
626.077	30
627.271	29
628.466	29
629.66	36
630.855	32
632.047	31
633.241	29
634.435	29
635.629	31
636.82	33
638.014	28
639.207	32
640.399	31
641.59	28
642.783	30
643.975	29
645.166	32
646.357	32
647.549	30
648.741	28
649.93	34
651.122	34
652.311	29
653.502	32
654.692	30
655.881	30
657.071	33
658.261	31
659.45	28
660.639	30
661.827	34
663.016	35
664.204	32
665.393	34
666.581	32
667.769	29
668.957	32
670.143	37
671.331	28
672.518	32
673.705	30
674.891	35
676.078	38
677.264	29
678.451	35
679.636	32
680.821	34
682.007	24
683.192	30
684.378	30
685.562	38
686.747	36
687.931	34
689.115	34
690.3	33
691.483	39
692.666	32
693.851	33
695.034	32
696.216	37
697.4	36
698.582	34
699.764	42
700.948	43
702.129	40
703.311	40
704.493	42
705.674	36
706.855	42
708.036	46
709.218	48
710.399	47
711.579	47
712.759	36
713.939	36
715.12	30
716.299	34
717.478	34
718.657	28
719.836	36
721.015	29
722.195	35
723.373	30
724.552	28
725.729	32
726.907	33
728.085	28
729.262	31
730.44	33
731.617	31
732.795	36
733.972	34
735.148	30
736.324	30
737.501	36
738.677	31
739.852	30
741.028	30
742.203	32
743.379	28
744.554	30
745.729	32
746.903	36
748.078	26
749.252	32
750.426	34
751.599	24
752.772	30
753.946	31
755.119	32
756.293	31
757.466	29
758.639	34
759.811	34
760.984	32
762.155	32
763.327	26
764.499	31
765.67	28
766.842	30
768.013	26
769.183	28
770.354	29
771.525	26
772.696	33
773.865	32
775.035	34
776.205	35
777.375	32
778.544	30
779.713	27
780.882	30
782.052	33
783.219	28
784.388	34
785.557	33
786.724	32
787.892	35
789.06	34
790.227	32
791.395	28
792.562	30
793.728	35
794.895	32
796.061	30
797.228	33
798.395	30
799.56	34
800.726	31
801.891	33
803.057	31
804.221	34
805.387	28
806.551	31
807.716	29
808.879	31
810.044	34
811.208	29
812.372	36
813.535	30
814.699	34
815.862	31
817.025	32
818.188	35
819.351	36
820.513	33
821.675	26
822.837	30
823.999	30
825.161	30
826.322	29
827.483	22
828.645	31
829.805	28
830.966	27
832.127	29
833.287	32
834.447	30
835.607	29
836.767	26
837.926	26
839.085	29
840.245	30
841.404	32
842.562	31
843.72	31
844.88	28
846.038	29
847.195	32
848.353	37
849.512	29
850.669	31
851.826	26
852.983	33
854.139	36
855.296	30
856.453	30
857.609	30
858.765	29
859.921	29
861.077	27
862.232	34
863.387	34
864.542	30
865.697	30
866.852	33
868.008	32
869.162	25
870.316	29
871.47	34
872.624	29
873.778	30
874.931	34
876.084	35
877.237	31
878.39	30
879.543	34
880.695	31
881.846	34
882.999	36
884.151	34
885.302	26
886.454	28
887.606	34
888.757	29
889.908	32
891.059	24
892.21	30
893.359	33
894.509	30
895.659	28
896.81	32
897.959	24
899.109	29
900.257	24
901.407	28
902.556	31
903.705	32
904.854	30
906.001	26
907.149	31
908.298	30
909.446	26
910.592	29
911.74	32
912.888	29
914.034	24
915.181	31
916.328	28
917.473	32
918.62	31
919.766	27
920.911	34
922.058	30
923.204	26
924.348	34
925.494	31
926.638	36
927.783	26
928.928	27
930.072	33
931.216	31
932.36	30
933.504	32
934.647	29
935.791	32
936.933	33
938.077	28
939.219	31
940.363	26
941.504	22
942.647	32
943.789	32
944.932	29
946.073	26
947.215	30
948.356	30
949.498	29
950.638	29
951.778	27
952.92	30
954.06	33
955.199	32
956.34	28
957.479	27
958.62	24
959.759	28
960.898	28
962.038	31
963.176	30
964.315	32
965.453	25
966.592	31
967.73	30
968.867	26
970.006	29
971.144	29
972.281	28
973.418	29
974.554	28
975.692	28
976.829	32
977.965	26
979.101	26
980.237	28
981.374	30
982.509	26
983.645	26
984.78	30
985.915	32
987.05	28
988.184	31
989.319	27
990.453	28
991.589	28
992.722	33
993.856	28
994.99	30
996.123	30
997.257	29
998.39	28
999.523	29
1000.66	36
1001.79	29
1002.92	28
1004.05	29
1005.18	28
1006.32	28
1007.45	28
1008.58	32
1009.71	30
1010.84	22
1011.97	25
1013.1	28
1014.23	24
1015.36	25
1016.49	30
1017.62	22
1018.75	30
1019.88	26
1021.01	28
1022.14	32
1023.27	28
1024.4	25
1025.53	28
1026.66	32
1027.79	25
1028.91	25
1030.04	33
1031.17	28
1032.3	22
1033.42	29
1034.55	24
1035.68	30
1036.81	26
1037.93	32
1039.06	24
1040.18	28
1041.31	34
1042.44	27
1043.56	30
1044.69	28
1045.81	29
1046.94	31
1048.06	28
1049.19	27
1050.31	30
1051.44	29
1052.56	28
1053.69	31
1054.81	29
1055.93	33
1057.06	24
1058.18	24
1059.3	27
1060.43	27
1061.55	24
1062.67	27
1063.79	27
1064.92	27
1066.04	31
1067.16	29
1068.28	27
1069.4	32
1070.52	28
1071.65	32
1072.77	28
1073.89	26
1075.01	30
1076.13	24
1077.25	29
1078.37	28
1079.49	27
1080.61	28
1081.73	24
1082.85	29
1083.97	29
1085.09	23
1086.2	26
1087.32	30
1088.44	26
1089.56	26
1090.68	26
1091.8	30
1092.91	24
1094.03	25
1095.15	33
1096.26	29
1097.38	28
1098.5	29
1099.61	29
1100.73	32
1101.85	31
1102.96	33
1104.08	29
1105.19	30
1106.31	28
1107.43	32
1108.54	25
1109.66	28
1110.77	36
1111.88	26
1113	26
1114.11	24
1115.23	29
1116.34	28
1117.46	26
1118.57	28
1119.68	28
1120.8	26
1121.91	32
1123.02	31
1124.13	29
1125.25	22
1126.36	30
1127.47	24
1128.58	28
1129.69	25
1130.8	32
1131.92	32
1133.03	28
1134.14	27
1135.25	26
1136.36	29
1137.47	29
1138.58	26
1139.69	27
1140.8	26
1141.91	28
1143.02	30
1144.13	28
1145.24	26
1146.35	32
1147.46	29
1148.56	28
1149.67	30
1150.78	32
1151.89	28
1153	24
1154.1	26
1155.21	30
1156.32	32
1157.43	28
1158.53	32
1159.64	29
1160.75	28
1161.85	27
1162.96	29
1164.07	26
1165.17	27
1166.28	26
1167.38	31
1168.49	29
1169.59	30
1170.7	22
1171.8	32
1172.91	26
1174.01	27
1175.12	30
1176.22	27
1177.32	27
1178.43	24
1179.53	27
1180.64	31
1181.74	26
1182.84	28
1183.94	22
1185.05	30
1186.15	32
1187.25	26
1188.35	29
1189.46	32
1190.56	24
1191.66	22
1192.76	27
1193.86	22
1194.96	28
1196.06	27.0098
1197.16	27.9981
1198.26	24.0872
1199.37	30.9161
1200.47	30.8147
1201.57	29.9068
1202.67	32.5967
1203.77	23.9659
1204.86	27.6667
1205.96	27.4802
1207.06	27.3868
1208.16	27.4946
1209.26	29.8913
1210.36	24.607
1211.46	25.1438
1212.56	31.0893
1213.65	26.8337
1214.75	24.1843
1215.85	29.0758
1216.95	24.3981
1218.04	31.0959
1219.14	27.539
1220.24	25.5752
1221.33	29.9539
1222.43	31.668
1223.53	28
1224.62	25.8256
1225.72	26.7387
1226.82	31.6071
1227.91	25.7879
1229.01	29.745
1230.1	25.1051
1231.2	28.9114
1232.29	28.5547
1233.39	26.8032
1234.48	27.1641
1235.58	27.8527
1236.67	26.5674
1237.77	26.4527
1238.86	26.9228
1239.95	25.685
1241.05	29.4954
1242.14	24.6978
1243.23	28.0613
1244.33	27.5925
1245.42	28.2885
1246.51	23.6471
1247.61	26.0767
1248.7	25.3571
1249.79	25.3529
1250.88	30
1251.97	27.7015
1253.07	25.4122
1254.16	28.7667
1255.25	24.6621
1256.34	29.2429
1257.43	27.9963
1258.52	28.4117
1259.61	28.6278
1260.7	30.6658
1261.79	25.0057
1262.88	27.2677
1263.97	28.289
1265.06	25.8873
1266.15	25.0645
1267.24	25.8359
1268.33	26.0441
1269.42	26.5283
1270.51	27.7667
1271.6	25.963
1272.68	26.8
1273.77	26.0474
1274.86	25.5539
1275.95	27.9937
1277.04	27.8797
1278.12	24.9991
1279.21	27.25
1280.3	28
1281.39	27.5392
1282.47	27.8573
1283.56	25.2754
1284.65	26.8588
1285.73	26.4178
1286.82	28.4968
1287.91	24.6125
1288.99	26.1418
1290.08	30.1793
1291.16	25.6157
1292.25	30.0996
1293.33	27.5123
1294.42	26.5437
1295.5	26.2171
1296.59	26.8318
1297.67	28.142
1298.76	26.0038
1299.84	22.2131
1300.92	27.6983
1302.01	26.1817
1303.09	26.8425
1304.17	26.049
1305.26	26.4067
1306.34	30.6465
1307.34	27
1308.43	24
1309.52	25
1310.61	28
1311.7	24
1312.78	27
1313.87	33
1314.96	30
1316.04	24
1317.13	31
1318.22	26
1319.3	30
1320.39	29
1321.48	25
1322.56	26
1323.65	26
1324.73	22
1325.82	26
1326.9	27
1327.99	29
1329.07	30
1330.16	22
1331.24	22
1332.33	28
1333.41	28
1334.5	22
1335.58	29
1336.66	26
1337.75	24
1338.83	30
1339.91	31
1341	30
1342.08	30
1343.16	31
1344.24	23
1345.33	21
1346.41	22
1347.49	24
1348.57	22
1349.65	29
1350.74	27
1351.82	31
1352.9	27
1353.98	29
1355.06	28
1356.14	31
1357.22	32
1358.3	25
1359.38	28
1360.46	24
1361.54	25
1362.62	27
1363.7	28
1364.78	28
1365.86	23
1366.94	29
1368.02	24
1369.09	32
1370.17	26
1371.25	28
1372.33	30
1373.41	22
1374.48	30
1375.56	28
1376.64	29
1377.72	24
1378.79	28
1379.87	29
1380.95	25
1382.02	28
1383.1	28
1384.17	32
1385.25	29
1386.33	28
1387.4	33
1388.48	29
1389.55	22
1390.63	28
1391.7	29
1392.78	29
1393.85	26
1394.93	27
1396	34
1397.07	29
1398.15	30
1399.22	34
1400.3	28
1401.37	30
1402.44	34
1403.52	26
1404.59	28
1405.66	30
1406.73	26
1407.81	30
1408.88	31
1409.95	30
1411.02	24
1412.09	28
1413.17	31
1414.24	28
1415.31	34
1416.38	38
1417.45	28
1418.52	30
1419.59	30
1420.66	30
1421.73	32
1422.8	28
1423.87	30
1424.94	29
1426.01	26
1427.08	24
1428.15	31
1429.22	29
1430.29	32
1431.35	32
1432.42	25
1433.49	34
1434.56	26
1435.63	26
1436.69	24
1437.76	32
1438.83	32
1439.9	28
1440.96	31
1442.03	24
1443.1	32
1444.17	29
1445.23	24
1446.3	30
1447.36	32
1448.43	24
1449.49	32
1450.56	28
1451.63	26
1452.69	27
1453.76	29
1454.82	27
1455.89	25
1456.95	27
1458.01	28
1459.08	26
1460.14	23
1461.21	24
1462.27	27
1463.34	27
1464.4	30
1465.46	20
1466.52	28
1467.59	26
1468.65	28
1469.71	28
1470.77	27
1471.84	25
1472.9	27
1473.96	26
1475.02	27
1476.08	31
1477.15	25
1478.21	26
1479.27	27
1480.33	25
1481.39	30
1482.45	28
1483.51	28
1484.57	31
1485.63	29
1486.69	33
1487.75	31
1488.81	25
1489.87	32
1490.93	25
1491.99	27
1493.05	29
1494.1	35
1495.16	28
1496.22	24
1497.28	28
1498.34	26
1499.4	30
1500.45	32
1501.51	31
1502.57	26
1503.63	32
1504.68	29
1505.74	33
1506.8	31
1507.85	23
1508.91	20
1509.97	28
1511.02	28
1512.08	30
1513.13	28
1514.19	28
1515.24	24
1516.3	27
1517.35	28
1518.41	33
1519.46	20
1520.52	27
1521.57	20
1522.63	22
1523.68	23
1524.73	32
1525.79	22
1526.84	22
1527.9	26
1528.95	32
1530	26
1531.05	29
1532.11	28
1533.16	32
1534.21	28
1535.26	32
1536.32	28
1537.37	26
1538.42	28
1539.47	29
1540.52	28
1541.57	31
1542.63	24
1543.68	31
1544.73	25
1545.78	26
1546.83	30
1547.88	30
1548.93	27
1549.98	30
1551.03	27
1552.08	24
1553.13	29
1554.18	24
1555.23	28
1556.27	24
1557.32	28
1558.37	30
1559.42	29
1560.47	28
1561.52	32
1562.56	24
1563.61	33
1564.66	28
1565.71	28
1566.75	28
1567.8	28
1568.85	28
1569.9	24
1570.94	27
1571.99	33
1573.03	26
1574.08	29
1575.13	32
1576.17	32
1577.22	20
1578.26	26
1579.31	29
1580.35	26
1581.4	23
1582.44	28
1583.49	34
1584.53	28
1585.58	29
1586.62	26
1587.66	31
1588.71	32
1589.75	26
1590.8	29
1591.84	31
1592.88	30
1593.92	29
1594.97	26
1596.01	26
1597.05	31
1598.1	30
1599.14	26
1600.18	28
1601.22	24
1602.26	28
1603.3	30
1604.35	26
1605.39	31
1606.43	26
1607.47	26
1608.51	22
1609.55	31
1610.59	30
1611.63	31
1612.67	28
1613.71	29
1614.75	29
1615.79	28
1616.83	27
1617.87	26
1618.91	20
1619.95	28
1620.99	29
1622.02	30
1623.06	32
1624.1	24
1625.14	28
1626.18	26
1627.21	29
1628.25	28
1629.29	28
1630.33	22
1631.36	28
1632.4	22
1633.44	28
1634.48	32
1635.51	26
1636.55	26
1637.58	24
1638.62	24
1639.66	29
1640.69	31
1641.73	26
1642.76	26
1643.8	25
1644.83	32
1645.87	26
1646.9	28
1647.94	29
1648.97	28
1650	32
1651.04	28
1652.07	33
1653.11	22
1654.14	28
1655.17	30
1656.21	30
1657.24	28
1658.27	24
1659.31	24
1660.34	25
1661.37	35
1662.4	24
1663.43	29
1664.47	24
1665.5	30
1666.53	29
1667.56	28
1668.59	32
1669.62	26
1670.66	24
1671.69	29
1672.72	26
1673.75	28
1674.78	28
1675.81	27
1676.84	24
1677.87	30
1678.9	30
1679.93	25
1680.96	30
1681.98	28
1683.01	20
1684.04	26
1685.07	18
1686.1	31
1687.13	31
1688.16	29
1689.18	26
1690.21	28
1691.24	28
1692.27	33
1693.3	24
1694.32	30
1695.35	29
1696.38	29
1697.4	30
1698.43	28
1699.46	24
1700.48	26
1701.51	27
1702.54	25
1703.56	30
1704.59	26
1705.61	26
1706.64	26
1707.66	27
1708.69	26
1709.71	26
1710.74	28
1711.76	32
1712.79	32
1713.81	25
1714.83	26
1715.86	30
1716.88	27
1717.91	29
1718.93	24
1719.95	27
1720.98	31
1722	29
1723.02	31
1724.04	25
1725.07	31
1726.09	24
1727.11	26
1728.13	29
1729.15	28
1730.18	25
1731.2	27
1732.22	30
1733.24	29
1734.26	29
1735.28	30
1736.3	22
1737.32	24
1738.34	27
1739.36	28
1740.38	31
1741.4	24
1742.42	26
1743.44	28
1744.46	28
1745.48	34
1746.5	30
1747.52	26
1748.54	31
1749.56	30
1750.58	30
1751.6	27
1752.61	24
1753.63	28
1754.65	29
1755.67	27
1756.68	28
1757.7	31
1758.72	26
1759.74	28
1760.75	30
1761.77	28
1762.79	24
1763.8	23
1764.82	33
1765.83	25
1766.85	26
1767.87	29
1768.88	30
1769.9	25
1770.91	24
1771.93	24
1772.94	28
1773.96	26
1774.97	26
1775.99	26
1777	31
1778.02	30
1779.03	28
1780.04	30
1781.06	22
1782.07	32
1783.09	26
1784.1	28
1785.11	28
1786.13	28
1787.14	29
1788.15	25
1789.16	28
1790.18	26
1791.19	28
1792.2	30
1793.21	31
1794.22	26
1795.23	23
1796.25	30
1797.26	22
1798.27	32
1799.28	28
1800.29	30
1801.3	26
1802.31	31
1803.32	30
1804.33	27
1805.34	27
1806.35	22
1807.36	33
1808.37	28
1809.38	24
1810.39	26
1811.4	28
1812.41	25
1813.42	31
1814.42	30
1815.43	28
1816.44	28
1817.45	30
1818.46	28
1819.47	31
1820.47	29
1821.48	24
1822.49	28
1823.49	29
1824.5	22
1825.51	23
1826.52	24
1827.52	24
1828.53	27
1829.53	30
1830.54	27
1831.55	26
1832.55	26
1833.56	33
1834.56	34
1835.57	24
1836.57	26
1837.58	29
1838.58	28
1839.59	26
1840.59	22
1841.6	27
1842.6	26
1843.61	24
1844.61	29
1845.61	32
1846.62	30
1847.62	22
1848.62	29
1849.63	27
1850.63	22
1851.63	29
1852.64	26
1853.64	26
1854.64	29
1855.64	32
1856.64	29
1857.65	26
1858.65	26
1859.65	27
1860.65	20
1861.65	25
1862.65	28
1863.65	28
1864.66	26
1865.66	27
1866.66	26
1867.66	30
1868.66	28
1869.66	30
1870.66	32
1871.66	24
1872.66	26
1873.66	29
1874.66	28
1875.65	28
1876.65	25
1877.65	27
1878.65	27
1879.65	24
1880.65	20
1881.65	26
1882.64	29
1883.64	26
1884.64	28
1885.64	27
1886.63	25
1887.63	28
1888.63	26
1889.63	29
1890.62	24
1891.62	22
1892.62	28
1893.61	24
1894.61	29
1895.6	26
1896.6	22
1897.6	29
1898.59	28
1899.59	28
1900.58	26
1901.58	27
1902.57	25
1903.57	23
1904.56	32
1905.56	27
1906.55	27
1907.54	24
1908.54	30
1909.53	27
1910.53	26
1911.52	26
1912.51	25
1913.51	30
1914.5	28
1915.49	27
1916.49	29
1917.48	31
1918.47	27
1919.46	29
1920.46	26
1921.45	26
1922.44	25
1923.43	26
1924.42	26
1925.41	23
1926.41	32
1927.4	29
1928.39	24
1929.38	20
1930.37	32
1931.36	30
1932.35	30
1933.34	25
1934.33	25
1935.32	27
1936.31	28
1937.3	30
1938.29	26
1939.28	24
1940.27	27
1941.26	30
1942.24	26
1943.23	28
1944.22	26
1945.21	26
1946.2	25
1947.19	28
1948.17	28
1949.16	29
1950.15	25.5
1951.14	21
1952.12	24
1953.11	31
1954.1	27
1955.09	28
1956.07	28
1957.06	32
1958.05	28
1959.03	26
1960.02	33
1961	26
1961.99	30
1962.98	27
1963.96	31
1964.95	24
1965.93	28
1966.92	28
1967.9	26
1968.89	35
1969.87	30
1970.85	32
1971.84	27
1972.82	24
1973.81	28
1974.79	26
1975.78	23
1976.76	25
1977.74	29
1978.73	25
1979.71	30
1980.69	34
1981.67	26
1982.66	29
1983.64	31
1984.62	18
1985.6	24
1986.59	28
1987.57	30
1988.55	24
1989.53	26
1990.51	30
1991.49	28
1992.47	28
1993.45	29
1994.44	26
1995.42	27
1996.4	27
1997.38	27
1998.36	32
1999.34	25
2000.32	26
2001.3	28
2002.28	26
2003.26	26
2004.24	26
2005.22	23
2006.19	27
2007.17	20
2008.15	30
2009.13	26
2010.11	20
2011.09	26
2012.06	24
2013.04	23
2014.02	28
2015	24
2015.98	23
2016.95	26
2017.93	30
2018.91	26
2019.88	22
2020.86	27
2021.84	27
2022.81	28
2023.79	26
2024.77	28
2025.74	25
2026.72	26
2027.69	25
2028.67	28
2029.65	26
2030.62	26
2031.6	23
2032.57	28
2033.55	26
2034.52	20
2035.5	24
2036.47	24
2037.44	28
2038.42	32
2039.39	26
2040.36	24
2041.34	30
2042.31	29
2043.29	30
2044.26	28
2045.23	24
2046.2	26
2047.18	25
2048.15	28
2049.12	26
2050.09	28
2051.07	29
2052.04	29
2053.01	26
2053.98	26
2054.95	22
2055.93	29
2056.9	25
2057.87	26
2058.84	27
2059.81	28
2060.78	24
2061.75	26
2062.72	30
2063.69	26
2064.66	30
2065.63	26
2066.6	20
2067.57	22
2068.54	21
2069.51	22
2070.48	22
2071.45	29
2072.42	26
2073.38	25
2074.35	25
2075.32	26
2076.29	28
2077.26	30
2078.23	26
2079.19	32
2080.16	24
2081.13	26
2082.1	29
2083.06	24
2084.03	28
2085	25
2085.96	25
2086.93	27
2087.9	24
2088.86	26
2089.83	20
2090.8	28
2091.76	27
2092.73	26
2093.69	25
2094.66	26
2095.62	24
2096.59	30
2097.55	28
2098.52	24
2099.48	26
2100.45	26
2101.41	26
2102.38	21
2103.34	27
2104.31	30
2105.27	26
2106.23	26
2107.2	24
2108.16	24
2109.12	26
2110.09	27
2111.05	28
2112.01	26
2112.98	26
2113.94	29
2114.9	23
2115.86	26
2116.82	25
2117.79	28
2118.75	30
2119.71	21
2120.67	31
2121.63	24
2122.59	25
2123.55	26
2124.52	27
2125.48	24
2126.44	26
2127.4	24
2128.36	26
2129.32	20
2130.28	18
2131.24	25
2132.2	26
2133.16	27
2134.12	24
2135.08	27
2136.04	25
2136.99	29
2137.95	26
2138.91	24
2139.87	26
2140.83	26
2141.79	31
2142.75	25
2143.7	28
2144.66	25
2145.62	22.0208
2146.58	25.9011
2147.53	24.9494
2148.49	26.2262
2149.45	27.0407
2150.41	23.2157
2151.36	22.3018
2152.32	28.5366
2153.27	25.3519
2154.23	28.348
2155.19	26.4995
2156.14	26.7605
2157.1	26.3962
2158.06	22.2688
2159.01	23.2806
2159.97	26.5473
2160.92	25.8407
2161.88	24.3395
2162.83	28.0985
2163.79	26.5735
2164.74	22.4067
2165.7	27.7832
2166.65	24.0094
2167.61	26.6269
2168.56	22.7598
2169.51	24.7574
2170.47	29.1546
2171.42	23.4825
2172.38	30.2733
2173.33	23.1569
2174.28	26.701
2175.24	27.4931
2176.19	24
2177.14	25.3431
2178.09	26.9601
2179.05	24.3259
2180	26.1036
2180.95	26.0309
2181.9	25.5864
2182.86	27.8831
2183.81	22.2509
2184.76	25.8209
2185.71	27.5966
2186.66	24.5514
2187.61	26.0547
2188.57	22.788
2189.52	24.0262
2190.47	25.402
2191.42	25.8114
2192.37	20.5147
2193.32	25.4357
2194.27	24.8069
2195.22	27.5976
2196.17	23.6635
2197.12	25.8527
2198.07	27.1101
2199.02	26.4375
2199.97	25.3088
2200.92	24.8529
2201.87	26.0833
2202.82	25.2206
2203.76	24.6294
2204.71	23.2407
2205.66	24.5892
2206.61	25.1444
2207.56	24.8662
2208.51	25.0441
2209.45	26.1778
2210.4	25.9907
2211.35	25.9559
2212.3	24.5856
2213.24	27.0303
2214.19	24.7077
2215.14	24.7575
2216.09	21.33
2217.03	24.6265
2217.98	23.9675
2218.93	25.4958
2219.87	25.1529
2220.82	26.6032
2221.77	25.7695
2222.71	24.3555
2223.66	23.7838
2224.6	25.5512
2225.55	27.449
2226.49	27.6765
2227.44	27.6961
2228.38	29.3938
2229.33	24.7631
2230.27	24.1806
2231.22	27.1469
2232.16	28.2283
2233.11	27.2549
2234.05	26.1248
2235	24.5034
2235.94	27.0532
2236.88	26.9028
2237.83	24.5882
2238.77	22.8169
2239.71	24.948
2240.66	24.74
2241.6	22.9853
2242	23
2242.95	28
2243.9	23
2244.84	26
2245.79	23
2246.74	25
2247.69	23
2248.63	24
2249.58	25
2250.53	24
2251.47	24
2252.42	29
2253.37	27
2254.31	25
2255.26	25
2256.2	24
2257.15	21
2258.1	22
2259.04	22
2259.99	22
2260.93	28
2261.88	28
2262.82	27
2263.77	27
2264.71	26
2265.65	27
2266.6	24
2267.54	26
2268.49	23
2269.43	26
2270.38	24
2271.32	22
2272.26	26
2273.21	24
2274.15	30
2275.09	26
2276.04	30
2276.98	26
2277.92	30
2278.86	26
2279.81	30
2280.75	25
2281.69	23
2282.63	24
2283.57	24
2284.52	26
2285.46	24
2286.4	28
2287.34	22
2288.28	20
2289.22	28
2290.16	29
2291.1	26
2292.04	22
2292.98	25
2293.93	24
2294.86	27
2295.8	18
2296.74	22
2297.69	30
2298.62	25
2299.56	26
2300.5	24
2301.44	25
2302.38	26
2303.32	24
2304.26	22
2305.2	26
2306.14	23
2307.07	25
2308.01	20
2308.95	24
2309.89	28
2310.83	26
2311.76	27
2312.7	26
2313.64	26
2314.58	29
2315.51	27
2316.45	26
2317.39	20
2318.32	26
2319.26	26
2320.2	29
2321.13	26
2322.07	28
2323	24
2323.94	24
2324.88	28
2325.81	24
2326.75	23
2327.68	24
2328.62	25
2329.55	31
2330.49	22
2331.42	27
2332.36	27
2333.29	29
2334.22	29
2335.16	22
2336.09	30
2337.03	24
2337.96	24
2338.89	29
2339.83	26
2340.76	22
2341.69	27
2342.63	28
2343.56	30
2344.49	26
2345.43	28
2346.36	21
2347.29	28
2348.22	28
2349.15	24
2350.09	24
2351.02	26
2351.95	26
2352.88	27
2353.81	30
2354.74	24
2355.67	22
2356.61	24
2357.54	26
2358.47	25
2359.4	26
2360.33	28
2361.26	29
2362.19	27
2363.12	23
2364.05	25
2364.98	29
2365.91	26
2366.84	33
2367.77	28
2368.7	26
2369.62	28
2370.55	28
2371.48	28
2372.41	26
2373.34	24
2374.27	28
2375.2	22
2376.12	22
2377.05	24
2377.98	22
2378.91	27
2379.83	27
2380.76	26
2381.69	24
2382.62	24
2383.54	27
2384.47	25
2385.4	31
2386.32	24
2387.25	27
2388.18	24
2389.1	26
2390.03	30
2390.95	29
2391.88	25
2392.81	29
2393.73	24
2394.66	24
2395.58	28
2396.51	28
2397.43	30
2398.36	26
2399.28	27
2400.2	26
2401.13	28
2402.05	28
2402.98	31
2403.9	23
2404.83	27
2405.75	26
2406.67	22
2407.6	22
2408.52	29
2409.44	26
2410.37	24
2411.29	26
2412.21	28
2413.13	24
2414.06	28
2414.98	20
2415.9	29
2416.82	27
2417.74	26
2418.67	27
2419.59	29
2420.51	27
2421.43	23
2422.35	20
2423.27	30
2424.19	26
2425.11	27
2426.03	29
2426.96	22
2427.88	29
2428.8	28
2429.72	20
2430.64	25
2431.56	29
2432.48	24
2433.39	23
2434.31	29
2435.23	31
2436.15	28
2437.07	27
2437.99	24
2438.91	30
2439.83	26
2440.75	30
2441.67	24
2442.58	29
2443.5	27
2444.42	27
2445.34	30
2446.26	27
2447.17	28
2448.09	26
2449.01	25
2449.92	27
2450.84	26
2451.76	29
2452.68	29
2453.59	29
2454.51	26
2455.42	25
2456.34	22
2457.26	26
2458.17	27
2459.09	33
2460	28
2460.92	30
2461.83	25
2462.75	27
2463.66	22
2464.58	26
2465.49	27
2466.41	26
2467.32	26
2468.24	30
2469.15	24
2470.07	29
2470.98	26
2471.89	26
2472.81	27
2473.72	28
2474.64	22
2475.55	27
2476.46	22
2477.37	26
2478.29	24
2479.2	29
2480.11	28
2481.03	32
2481.94	27
2482.85	24
2483.76	32
2484.67	24
2485.59	29
2486.5	28
2487.41	29
2488.32	26
2489.23	30
2490.14	26
2491.05	27
2491.97	30
2492.88	28
2493.79	26
2494.7	24
2495.61	28
2496.52	34
2497.43	30
2498.34	26
2499.25	25
2500.16	31
2501.07	26
2501.98	24
2502.89	26
2503.79	31
2504.7	24
2505.61	26
2506.52	26
2507.43	26
2508.34	24
2509.25	28
2510.16	24
2511.06	29
2511.97	31
2512.88	30
2513.79	25
2514.69	28
2515.6	28
2516.51	21
2517.42	33
2518.32	26
2519.23	26
2520.14	28
2521.04	20
2521.95	24
2522.86	25
2523.76	21
2524.67	26
2525.57	26
2526.48	26
2527.39	28
2528.29	24
2529.2	28
2530.1	26
2531.01	28
2531.91	29
2532.82	35
2533.72	24
2534.63	25
2535.53	24
2536.44	27
2537.34	20
2538.24	28
2539.15	28
2540.05	27
2540.96	33
2541.86	24
2542.76	26
2543.67	26
2544.57	29
2545.47	28
2546.37	25
2547.28	24
2548.18	30
2549.08	26
2549.99	20
2550.89	30
2551.79	31
2552.69	26
2553.59	27
2554.49	22
2555.4	26
2556.3	28
2557.2	28
2558.1	26
2559	30
2559.9	26
2560.8	25
2561.7	26
2562.6	26
2563.5	26
2564.4	28
2565.3	28
2566.2	24
2567.1	24
2568	27
2568.9	24
2569.8	25
2570.7	22
2571.6	28
2572.5	32
2573.4	32
2574.3	28
2575.2	27
2576.1	26
2576.99	23
2577.89	26
2578.79	30
2579.69	32
2580.59	22
2581.48	18
2582.38	25
2583.28	28
2584.18	28
2585.07	22
2585.97	28
2586.87	34
2587.76	24
2588.66	22
2589.56	22
2590.45	27
2591.35	26
2592.25	23
2593.14	26
2594.04	26
2594.93	30
2595.83	28
2596.73	26
2597.62	25
2598.52	29
2599.41	26
2600.31	24
2601.2	28
2602.1	26
2602.99	22
2603.88	24
2604.78	26
2605.67	24
2606.57	26
2607.46	25
2608.35	27
2609.25	30
2610.14	28
2611.03	29
2611.93	28
2612.82	26
2613.71	28
2614.61	32
2615.5	30
2616.39	28
2617.29	30
2618.18	28
2619.07	25
2619.96	25
2620.85	28
2621.75	25
2622.64	26
2623.53	26
2624.42	25
2625.31	28
2626.2	26
2627.09	25
2627.98	27
2628.88	24
2629.77	32
2630.66	25
2631.55	26
2632.44	27
2633.33	30
2634.22	28
2635.11	28
2636	29
2636.89	27
2637.78	30
2638.66	22
2639.55	30
2640.44	25
2641.33	28
2642.22	25
2643.11	27
2644	26
2644.89	27
2645.78	27
2646.66	32
2647.55	29
2648.44	26
2649.33	25
2650.21	26
2651.1	28
2651.99	24
2652.88	24
2653.76	26
2654.65	31
2655.54	26
2656.42	26
2657.31	20
2658.2	25
2659.08	23
2659.97	28
2660.86	26
2661.74	28
2662.63	28
2663.51	31
2664.4	27
2665.29	28
2666.17	26
2667.06	28
2667.94	24
2668.83	28
2669.71	25
2670.6	22
2671.48	28
2672.36	32
2673.25	28
2674.13	28
2675.02	25
2675.9	26
2676.78	28
2677.67	28
2678.55	26
2679.43	28
2680.32	30
2681.2	26
2682.08	28
2682.97	24
2683.85	25
2684.73	27
2685.61	34
2686.5	25
2687.38	25
2688.26	27
2689.14	24
2690.03	26
2690.91	28
2691.79	24
2692.67	24
2693.55	24
2694.43	24
2695.31	27
2696.19	26
2697.08	28
2697.96	16
2698.84	26
2699.72	28
2700.6	24
2701.48	27
2702.36	28
2703.24	27
2704.12	26
2705	30
2705.88	26
2706.76	26
2707.64	26
2708.51	30
2709.39	31
2710.27	28
2711.15	26
2712.03	23
2712.91	26
2713.79	26
2714.67	26
2715.54	22
2716.42	20
2717.3	25
2718.18	24
2719.05	26
2719.93	26
2720.81	30
2721.69	34
2722.56	27
2723.44	28
2724.32	28
2725.19	24
2726.07	22
2726.95	24
2727.82	27
2728.7	24
2729.58	22
2730.45	30
2731.33	29
2732.2	25
2733.08	27
2733.95	24
2734.83	26
2735.7	24
2736.58	24
2737.45	28
2738.33	27
2739.2	28
2740.08	25
2740.95	26
2741.83	22
2742.7	29
2743.58	28
2744.45	27
2745.32	28
2746.2	28
2747.07	27
2747.94	28
2748.82	26
2749.69	23
2750.56	28
2751.44	30
2752.31	28
2753.18	25
2754.05	28
2754.93	28
2755.8	28
2756.67	26
2757.54	26
2758.42	26
2759.29	28
2760.16	20
2761.03	22
2761.9	27
2762.77	26
2763.64	26
2764.51	28
2765.38	30
2766.26	26
2767.13	30
2768	28
2768.87	28
2769.74	22
2770.61	26
2771.48	24
2772.35	23
2773.22	26
2774.09	28
2774.96	24
2775.83	26
2776.7	28
2777.56	22
2778.43	24
2779.3	26
2780.17	24
2781.04	32
2781.91	30
2782.78	24
2783.64	26
2784.51	28
2785.38	28
2786.25	26
2787.12	29
2787.98	27
2788.85	27
2789.72	28
2790.59	26
2791.45	26
2792.32	29
2793.19	27
2794.05	34
2794.92	20
2795.79	22
2796.65	28
2797.52	36
2798.38	23
2799.25	27
2800.12	26
2800.98	30
2801.85	33
2802.71	31
2803.58	31
2804.44	31
2805.31	26
2806.17	30
2807.04	24
2807.9	32
2808.77	26
2809.63	28
2810.5	29
2811.36	27
2812.22	28
2813.09	31
2813.95	28
2814.82	28
2815.68	26
2816.54	26
2817.41	29
2818.27	29
2819.13	28
2820	28
2820.86	28
2821.72	30
2822.58	28
2823.45	30
2824.31	28
2825.17	25
2826.03	24
2826.9	30
2827.76	31
2828.62	27
2829.48	26
2830.34	33
2831.2	28
2832.06	28
2832.92	28
2833.79	26
2834.65	24
2835.51	26
2836.37	28
2837.23	32
2838.09	24
2838.95	28
2839.81	26
2840.67	32
2841.53	28
2842.39	26
2843.25	29
2844.11	30
2844.97	31
2845.83	31
2846.68	29
2847.54	26
2848.4	24
2849.26	26
2850.12	27
2850.98	27
2851.84	26
2852.69	22
2853.55	28
2854.41	27
2855.27	26
2856.13	22
2856.98	28
2857.84	29
2858.7	31
2859.56	27
2860.41	22
2861.27	30
2862.13	24
2862.98	32
2863.84	31
2864.7	26
2865.55	34
2866.41	24
2867.27	26
2868.12	28
2868.98	30
2869.83	26
2870.69	30
2871.54	32
2872.4	22
2873.25	26
2874.11	27
2874.96	33
2875.82	32
2876.68	34
2877.53	28
2878.38	32
2879.24	26
2880.09	27
2880.95	29
2881.8	30
2882.65	28
2883.51	28
2884.36	31
2885.22	32
2886.07	37
2886.92	36
2887.77	32
2888.63	33
2889.48	36
2890.33	33
2891.19	33
2892.04	38
2892.89	35
2893.74	40
2894.6	37
2895.45	39
2896.3	44
2897.15	39
2898	40
2898.85	46
2899.71	38
2900.56	52
2901.41	44
2902.26	58
2903.11	50
2903.96	64
2904.81	60
2905.66	54
2906.51	56
2907.36	60
2908.21	58
2909.06	61
2909.91	53
2910.76	54
2911.61	55
2912.46	47
2913.31	48
2914.16	48
2915.01	43
2915.86	44
2916.71	40
2917.56	37
2918.41	38
2919.26	35
2920.1	35
2920.95	37
2921.8	34
2922.65	31
2923.5	35
2924.34	34
2925.19	34
2926.04	34
2926.89	33
2927.74	34
2928.58	36
2929.43	31
2930.28	32
2931.12	34
2931.97	26
2932.82	27
2933.66	30
2934.51	26
2935.36	30
2936.2	28
2937.05	31
2937.89	28
2938.74	28
2939.59	30
2940.43	30
2941.28	29
2942.12	26
2942.97	32
2943.81	29
2944.66	28
2945.5	28
2946.35	32
2947.19	27
2948.04	26
2948.88	24
2949.72	30
2950.57	32
2951.41	34
2952.26	33
2953.1	32
2953.94	34
2954.79	32
2955.63	29
2956.47	37
2957.32	31
2958.16	33
2959	37
2959.85	28
2960.69	34
2961.53	39
2962.37	43
2963.22	38
2964.06	40
2964.9	44
2965.74	36
2966.58	42
2967.42	42
2968.27	36
2969.11	40
2969.95	39
2970.79	35
2971.63	36
2972.47	34
2973.31	36
2974.15	36
2974.99	31
2975.83	36
2976.68	34
2977.52	34
2978.36	33
2979.2	29
2980.04	31
2980.88	31
2981.71	29
2982.55	32
2983.39	35
2984.23	28
2985.07	26
2985.91	26
2986.75	30
2987.59	30
2988.43	27
2989.27	28
2990.1	24
2990.94	26
2991.78	23
2992.62	29
2993.46	26
2994.3	29
2995.13	22
2995.97	30
2996.81	26
2997.64	25
2998.48	31
2999.32	25
