#Acq. time (s)=	3
#Accumulations=	3
#Range (cm-¹)=	100...3000
#Windows=	3
#Autofocus=	Off
#AutoExposure=	Off
#Spike filter=	Multiple accum.
#Delay time (s)=	0
#Binning=	1
#Readout mode=	Signal
#DeNoise=	Off
#ICS correction=	Off
#Dark correction=	Off
#Inst. Process=	Off
#Instrument=	LabRAM HR Evol
#Detector=	Syncerity OE
#Objective=	x100_VIS_LWD
#Grating=	600 (500nm)
#ND Filter=	25%
#Laser=	633nm_Edge
#Hole=	100.021
#Range=	Visible
#Project=	Bolus
#Sample=	B3
#Site=	stripside
#Title=	m06
#Remark=	
#Date=	03.11.2025 20:15
#Acquired=	03.11.2025 20:15:18
100.969	28
102.252	32
103.535	30
104.818	32
106.101	30
107.384	30
108.666	31
109.948	30
111.232	30
112.514	33
113.795	34
115.077	32
116.358	24
117.639	30
118.919	30
120.2	30
121.48	26
122.76	34
124.04	32
125.32	31
126.599	28
127.879	30
129.158	26
130.436	32
131.715	32
132.992	26
134.27	34
135.548	30
136.826	32
138.104	34
139.381	39
140.658	31
141.935	35
143.212	38
144.489	36
145.763	36
147.04	35
148.315	35
149.591	32
150.867	33
152.142	39
153.416	36
154.691	38
155.965	40
157.24	32
158.514	32
159.786	42
161.06	40
162.334	36
163.607	38
164.881	40
166.152	36
167.425	40
168.698	37
169.969	40
171.241	34
172.513	34
173.785	36
175.055	38
176.326	27
177.597	38
178.867	33
180.137	38
181.408	36
182.677	41
183.947	40
185.217	39
186.485	36
187.755	41
189.022	38
190.291	41
191.56	34
192.828	36
194.096	30
195.363	36
196.631	36
197.899	36
199.165	35
200.432	34
201.698	37
202.965	33
204.23	37
205.497	34
206.762	37
208.028	39
209.293	38
210.559	34
211.823	33
213.088	31
214.352	40
215.617	35
216.88	33
218.145	38
219.408	32
220.672	34
221.934	32
223.196	34
224.46	35
225.722	42
226.985	31
228.246	30
229.508	29
230.77	30
232.031	29
233.292	30
234.554	33
235.814	30
237.074	35
238.335	33
239.595	32
240.854	29
242.115	32
243.374	32
244.633	27
245.893	33
247.151	33
248.409	31
249.667	34
250.927	30
252.184	33
253.442	34
254.699	30
255.957	27
257.214	28
258.47	24
259.727	35
260.983	32
262.24	32
263.496	34
264.752	30
266.007	27
267.262	36
268.517	30
269.773	24
271.028	32
272.282	30
273.536	31
274.79	31
276.044	33
277.297	30
278.551	29
279.804	30
281.057	28
282.31	32
283.564	27
284.816	32
286.068	30
287.32	26
288.572	33
289.823	31
291.074	32
292.325	32
293.576	29
294.827	22
296.077	31
297.328	28
298.578	26
299.828	31
301.077	29
302.325	28
303.575	30
304.824	29
306.073	31
307.321	32
308.57	30
309.818	30
311.066	29
312.314	31
313.562	32
314.808	32
316.055	32
317.302	28
318.549	31
319.796	26
321.042	30
322.288	28
323.533	28
324.779	28
326.024	34
327.27	29
328.515	28
329.759	28
331.004	30
332.248	28
333.493	24
334.736	30
335.98	28
337.223	33
338.466	28
339.709	35
340.952	33
342.195	31
343.437	27
344.68	31
345.922	27
347.163	29
348.405	30
349.647	34
350.887	30
352.128	31
353.37	24
354.609	33
355.85	33
357.089	30
358.33	26
359.57	34
360.809	28
362.049	25
363.287	26
364.526	28
365.764	29
367.003	29
368.241	28
369.479	26
370.718	32
371.955	25
373.193	29
374.429	27
375.667	25
376.903	32
378.139	34
379.376	34
380.611	28
381.848	32
383.083	30
384.319	29
385.554	31
386.79	29
388.024	29
389.258	30
390.493	30
391.727	29
392.962	30
394.195	28
395.428	32
396.663	33
397.895	30
399.128	32
400.361	30
401.593	30
402.825	26
404.058	28
405.29	28
406.521	35
407.752	27
408.985	28
410.215	28
411.446	28
412.678	34
413.908	28
415.138	29
416.367	33
417.597	28
418.828	29
420.057	32
421.286	31
422.514	26
423.743	32
424.973	27
426.201	28
427.429	32
428.657	31
429.884	29
431.112	28
432.34	24
433.567	27
434.794	31
436.02	28
437.247	33
438.473	32
439.699	26
440.925	24
442.15	26
443.376	26
444.601	29
445.826	26
447.051	33
448.275	32
449.5	31
450.724	31
451.948	31
453.172	24
454.396	31
455.619	30
456.842	27
458.065	29
459.288	32
460.511	30
461.733	32
462.956	32
464.178	36
465.4	28
466.621	34
467.843	35
469.064	33
470.285	34
471.505	38
472.726	24
473.946	37
475.166	34
476.387	38
477.606	36
478.825	36
480.044	46
481.264	40
482.483	45
483.702	40
484.921	42
486.138	44
487.356	43
488.574	42
489.792	58
491.009	50
492.226	49
493.444	46
494.661	42
495.877	48
497.094	48
498.31	38
499.525	48
500.741	40
501.958	44
503.172	38
504.388	36
505.603	38
506.817	36
508.032	36
509.247	36
510.46	35
511.675	36
512.888	33
514.102	36
515.316	36
516.528	35
517.742	33
518.954	30
520.167	33
521.378	36
522.591	39
523.802	31
525.015	31
526.226	33
527.438	29
528.648	28
529.86	37
531.07	32
532.281	34
533.491	32
534.702	39
535.911	30
537.121	30
538.33	31
539.54	35
540.749	32
541.957	33
543.167	30
544.375	28
545.584	37
546.791	26
547.999	36
549.207	28
550.414	34
551.621	29
552.829	26
554.035	31
555.241	32
556.449	27
557.655	32
558.86	28
560.066	31
561.272	26
562.477	32
563.682	29
564.888	22
566.093	30
567.297	34
568.501	30
569.705	29
570.91	32
572.114	24
573.317	33
574.52	30
575.723	34
576.927	29
578.13	34
579.332	28
580.535	30
581.737	30
582.938	32
584.14	28
585.343	28
586.544	31
587.745	36
588.946	29
590.147	26
591.347	26
592.548	31
593.748	31
594.948	26
596.147	33
597.347	31
598.546	30
599.745	27
600.944	32
602.143	30
603.342	26
604.54	30
605.738	31
606.937	33
608.134	32
609.332	24
610.529	31
611.727	30
612.924	28
614.121	30
615.317	27
616.513	26
617.709	32
618.905	30
620.101	31
621.297	28
622.492	28
623.688	33
624.883	31
626.077	29
627.271	24
628.466	27
629.66	32
630.855	29
632.047	30
633.241	31
634.435	33
635.629	26
636.82	28
638.014	29
639.207	31
640.399	32
641.59	31
642.783	34
643.975	27
645.166	32
646.357	30
647.549	22
648.741	33
649.93	20
651.122	34
652.311	32
653.502	32
654.692	33
655.881	31
657.071	33
658.261	31
659.45	35
660.639	28
661.827	32
663.016	36
664.204	28
665.393	37
666.581	32
667.769	26
668.957	34
670.143	32
671.331	36
672.518	34
673.705	32
674.891	32
676.078	33
677.264	38
678.451	32
679.636	30
680.821	35
682.007	36
683.192	32
684.378	39
685.562	34
686.747	28
687.931	32
689.115	32
690.3	32
691.483	30
692.666	36
693.851	37
695.034	32
696.216	34
697.4	37
698.582	36
699.764	39
700.948	37
702.129	34
703.311	40
704.493	34
705.674	36
706.855	34
708.036	46
709.218	46
710.399	50
711.579	42
712.759	42
713.939	38
715.12	39
716.299	34
717.478	33
718.657	32
719.836	34
721.015	33
722.195	32
723.373	35
724.552	32
725.729	30
726.907	31
728.085	34
729.262	29
730.44	29
731.617	32
732.795	35
733.972	30
735.148	32
736.324	36
737.501	30
738.677	31
739.852	31
741.028	30
742.203	37
743.379	26
744.554	26
745.729	28
746.903	28
748.078	33
749.252	34
750.426	34
751.599	33
752.772	28
753.946	32
755.119	35
756.293	31
757.466	35
758.639	29
759.811	31
760.984	33
762.155	26
763.327	32
764.499	34
765.67	30
766.842	30
768.013	30
769.183	33
770.354	24
771.525	32
772.696	32
773.865	32
775.035	30
776.205	34
777.375	32
778.544	32
779.713	34
780.882	29
782.052	28
783.219	35
784.388	33
785.557	31
786.724	29
787.892	28
789.06	31
790.227	32
791.395	36
792.562	31
793.728	36
794.895	32
796.061	27
797.228	34
798.395	29
799.56	29
800.726	31
801.891	30
803.057	36
804.221	36
805.387	30
806.551	35
807.716	24
808.879	28
810.044	22
811.208	28
812.372	34
813.535	29
814.699	32
815.862	35
817.025	22
818.188	32
819.351	30
820.513	36
821.675	25
822.837	30
823.999	24
825.161	32
826.322	29
827.483	33
828.645	31
829.805	28
830.966	25
832.127	29
833.287	28
834.447	22
835.607	30
836.767	32
837.926	25
839.085	34
840.245	28
841.404	30
842.562	32
843.72	30
844.88	34
846.038	32
847.195	30
848.353	26
849.512	28
850.669	24
851.826	26
852.983	30
854.139	22
855.296	30
856.453	30
857.609	32
858.765	30
859.921	33
861.077	30
862.232	27
863.387	34
864.542	28
865.697	30
866.852	26
868.008	30
869.162	31
870.316	29
871.47	28
872.624	31
873.778	32
874.931	34
876.084	34
877.237	31
878.39	22
879.543	31
880.695	30
881.846	32
882.999	27
884.151	31
885.302	30
886.454	34
887.606	28
888.757	30
889.908	33
891.059	29
892.21	30
893.359	29
894.509	31
895.659	30
896.81	27
897.959	29
899.109	34
900.257	32
901.407	31
902.556	28
903.705	27
904.854	26
906.001	26
907.149	30
908.298	28
909.446	32
910.592	31
911.74	24
912.888	29
914.034	31
915.181	22
916.328	30
917.473	29
918.62	26
919.766	31
920.911	32
922.058	32
923.204	31
924.348	31
925.494	32
926.638	26
927.783	26
928.928	26
930.072	26
931.216	33
932.36	26
933.504	28
934.647	22
935.791	32
936.933	27
938.077	28
939.219	30
940.363	30
941.504	29
942.647	30
943.789	30
944.932	26
946.073	28
947.215	27
948.356	30
949.498	27
950.638	28
951.778	26
952.92	32
954.06	31
955.199	24
956.34	31
957.479	35
958.62	28
959.759	27
960.898	29
962.038	28
963.176	32
964.315	31
965.453	29
966.592	26
967.73	27
968.867	29
970.006	28
971.144	27
972.281	24
973.418	28
974.554	29
975.692	31
976.829	28
977.965	29
979.101	28
980.237	28
981.374	24
982.509	32
983.645	28
984.78	28
985.915	28
987.05	30
988.184	30
989.319	31
990.453	26
991.589	28
992.722	28
993.856	27
994.99	20
996.123	24
997.257	24
998.39	22
999.523	26
1000.66	25
1001.79	30
1002.92	26
1004.05	32
1005.18	27
1006.32	31
1007.45	27
1008.58	28
1009.71	32
1010.84	24
1011.97	28
1013.1	33
1014.23	30
1015.36	28
1016.49	31
1017.62	28
1018.75	22
1019.88	28
1021.01	24
1022.14	23
1023.27	30
1024.4	28
1025.53	28
1026.66	32
1027.79	24
1028.91	28
1030.04	35
1031.17	24
1032.3	29
1033.42	24
1034.55	30
1035.68	22
1036.81	26
1037.93	28
1039.06	30
1040.18	31
1041.31	28
1042.44	24
1043.56	28
1044.69	26
1045.81	30
1046.94	24
1048.06	22
1049.19	28
1050.31	26
1051.44	32
1052.56	30
1053.69	28
1054.81	25
1055.93	26
1057.06	27
1058.18	28
1059.3	26
1060.43	33
1061.55	28
1062.67	28
1063.79	26
1064.92	30
1066.04	29
1067.16	30
1068.28	24
1069.4	31
1070.52	31
1071.65	28
1072.77	28
1073.89	28
1075.01	26
1076.13	31
1077.25	26
1078.37	30
1079.49	26
1080.61	32
1081.73	24
1082.85	30
1083.97	28
1085.09	28
1086.2	32
1087.32	29
1088.44	27
1089.56	28
1090.68	28
1091.8	29
1092.91	28
1094.03	31
1095.15	29
1096.26	22
1097.38	32
1098.5	21
1099.61	24
1100.73	19
1101.85	23
1102.96	24
1104.08	26
1105.19	24
1106.31	27
1107.43	26
1108.54	30
1109.66	23
1110.77	30
1111.88	23
1113	28
1114.11	29
1115.23	28
1116.34	26
1117.46	31
1118.57	32
1119.68	24
1120.8	26
1121.91	31
1123.02	28
1124.13	30
1125.25	28
1126.36	26
1127.47	27
1128.58	29
1129.69	26
1130.8	26
1131.92	24
1133.03	24
1134.14	25
1135.25	32
1136.36	30
1137.47	25
1138.58	26
1139.69	26
1140.8	29
1141.91	30
1143.02	22
1144.13	28
1145.24	26
1146.35	28
1147.46	34
1148.56	30
1149.67	24
1150.78	28
1151.89	31
1153	27
1154.1	28
1155.21	24
1156.32	30
1157.43	28
1158.53	29
1159.64	20
1160.75	28
1161.85	26
1162.96	26
1164.07	31
1165.17	27
1166.28	32
1167.38	24
1168.49	26
1169.59	30
1170.7	27
1171.8	26
1172.91	28
1174.01	32
1175.12	28
1176.22	28
1177.32	28
1178.43	33
1179.53	28
1180.64	30
1181.74	30
1182.84	29
1183.94	25
1185.05	30
1186.15	28
1187.25	26
1188.35	26
1189.46	23
1190.56	26
1191.66	24
1192.76	26
1193.86	30
1194.96	28
1196.06	24.9804
1197.16	28.9321
1198.26	26.0519
1199.37	25.1182
1200.47	26.9956
1201.57	22.1863
1202.67	28.7106
1203.77	30.6035
1204.86	26.0833
1205.96	26.9509
1207.06	26.8971
1208.16	24.9961
1209.26	26.3815
1210.36	25.4746
1211.46	29.576
1212.56	30
1213.65	28.3235
1214.75	27.6738
1215.85	25.4501
1216.95	26.0599
1218.04	27.0592
1219.14	27.394
1220.24	26.9994
1221.33	24.2117
1222.43	27.3012
1223.53	29.4753
1224.62	22.6922
1225.72	26.8895
1226.82	26.0859
1227.91	23.86
1229.01	26.2596
1230.1	28.6679
1231.2	24.8585
1232.29	24.0874
1233.39	26
1234.48	27.5835
1235.58	25.5054
1236.67	27.1618
1237.77	26.7827
1238.86	28.3027
1239.95	26.0558
1241.05	25.7794
1242.14	26.1797
1243.23	27.7899
1244.33	25.9964
1245.42	29.5622
1246.51	25.0882
1247.61	25.175
1248.7	28.0846
1249.79	25.7059
1250.88	24.9776
1251.97	26.6542
1253.07	28.0436
1254.16	25.6108
1255.25	28.2693
1256.34	26.2794
1257.43	26.1171
1258.52	26.8481
1259.61	20.3733
1260.7	25.8357
1261.79	27.3925
1262.88	26.0544
1263.97	28.166
1265.06	27.4165
1266.15	26.4089
1267.24	26.6834
1268.33	27.7952
1269.42	28.8077
1270.51	27.6969
1271.6	28.959
1272.68	24.2331
1273.77	27.2321
1274.86	29.5534
1275.95	28.3173
1277.04	29.9253
1278.12	30.3671
1279.21	26.5989
1280.3	26.5002
1281.39	26.6219
1282.47	24.4624
1283.56	22.1852
1284.65	25.2803
1285.73	29.5909
1286.82	25.7735
1287.91	27.3137
1288.99	28.0303
1290.08	26.1988
1291.16	23.6108
1292.25	27.7353
1293.33	28.4801
1294.42	30.631
1295.5	27.9036
1296.59	23.6131
1297.67	26.5152
1298.76	28.9303
1299.84	24.0637
1300.92	24.5174
1302.01	26.0987
1303.09	27.7053
1304.17	26.766
1305.26	24.3547
1306.34	28.0098
1307.34	28
1308.43	31
1309.52	26
1310.61	28
1311.7	28
1312.78	22
1313.87	32
1314.96	28
1316.04	26
1317.13	31
1318.22	26
1319.3	24
1320.39	25
1321.48	26
1322.56	28
1323.65	28
1324.73	26
1325.82	26
1326.9	22
1327.99	29
1329.07	30
1330.16	24
1331.24	25
1332.33	22
1333.41	23
1334.5	26
1335.58	23
1336.66	27
1337.75	28
1338.83	26
1339.91	24
1341	25
1342.08	26
1343.16	27
1344.24	30
1345.33	30
1346.41	23
1347.49	28
1348.57	26
1349.65	28
1350.74	30
1351.82	28
1352.9	26
1353.98	26
1355.06	29
1356.14	30
1357.22	26
1358.3	28
1359.38	24
1360.46	28
1361.54	20
1362.62	26
1363.7	22
1364.78	31
1365.86	22
1366.94	24
1368.02	25
1369.09	28
1370.17	30
1371.25	28
1372.33	26
1373.41	32
1374.48	24
1375.56	30
1376.64	34
1377.72	26
1378.79	29
1379.87	32
1380.95	29
1382.02	30
1383.1	28
1384.17	29
1385.25	25
1386.33	27
1387.4	31
1388.48	26
1389.55	29
1390.63	29
1391.7	29
1392.78	26
1393.85	28
1394.93	22
1396	29
1397.07	34
1398.15	28
1399.22	32
1400.3	32
1401.37	32
1402.44	26
1403.52	30
1404.59	35
1405.66	31
1406.73	30
1407.81	29
1408.88	33
1409.95	34
1411.02	34
1412.09	31
1413.17	32
1414.24	28
1415.31	34
1416.38	32
1417.45	30
1418.52	28
1419.59	30
1420.66	26
1421.73	30
1422.8	30
1423.87	24
1424.94	27
1426.01	24
1427.08	24
1428.15	25
1429.22	33
1430.29	28
1431.35	34
1432.42	26
1433.49	30
1434.56	26
1435.63	32
1436.69	28
1437.76	31
1438.83	33
1439.9	24
1440.96	24
1442.03	24
1443.1	26
1444.17	28
1445.23	32
1446.3	26
1447.36	30
1448.43	27
1449.49	22
1450.56	26
1451.63	20
1452.69	33
1453.76	33
1454.82	27
1455.89	28
1456.95	28
1458.01	26
1459.08	26
1460.14	30
1461.21	28
1462.27	29
1463.34	24
1464.4	29
1465.46	26
1466.52	28
1467.59	30
1468.65	31
1469.71	27
1470.77	28
1471.84	28
1472.9	26
1473.96	30
1475.02	28
1476.08	24
1477.15	28
1478.21	28
1479.27	28
1480.33	23
1481.39	27
1482.45	29
1483.51	30
1484.57	28
1485.63	30
1486.69	30
1487.75	27
1488.81	24
1489.87	28
1490.93	32
1491.99	31
1493.05	31
1494.1	27
1495.16	30
1496.22	34
1497.28	20
1498.34	31
1499.4	28
1500.45	26
1501.51	22
1502.57	30
1503.63	30
1504.68	30
1505.74	29
1506.8	26
1507.85	30
1508.91	30
1509.97	27
1511.02	28
1512.08	30
1513.13	24
1514.19	26
1515.24	31
1516.3	31
1517.35	30
1518.41	27
1519.46	29
1520.52	25
1521.57	28
1522.63	27
1523.68	27
1524.73	25
1525.79	26
1526.84	27
1527.9	32
1528.95	35
1530	24
1531.05	26
1532.11	33
1533.16	32
1534.21	30
1535.26	28
1536.32	30
1537.37	24
1538.42	30
1539.47	29
1540.52	28
1541.57	33
1542.63	30
1543.68	24
1544.73	31
1545.78	24
1546.83	33
1547.88	29
1548.93	30
1549.98	30
1551.03	31
1552.08	27
1553.13	29
1554.18	24
1555.23	27
1556.27	32
1557.32	30
1558.37	24
1559.42	29
1560.47	26
1561.52	34
1562.56	28
1563.61	26
1564.66	29
1565.71	26
1566.75	31
1567.8	28
1568.85	24
1569.9	33
1570.94	30
1571.99	20
1573.03	32
1574.08	26
1575.13	29
1576.17	24
1577.22	29
1578.26	26
1579.31	30
1580.35	22
1581.4	27
1582.44	30
1583.49	29
1584.53	32
1585.58	28
1586.62	32
1587.66	28
1588.71	26
1589.75	28
1590.8	26
1591.84	24
1592.88	30
1593.92	30
1594.97	29
1596.01	18
1597.05	32
1598.1	30
1599.14	28
1600.18	26
1601.22	34
1602.26	26
1603.3	24
1604.35	28
1605.39	30
1606.43	26
1607.47	28
1608.51	26
1609.55	29
1610.59	30
1611.63	33
1612.67	28
1613.71	29
1614.75	24
1615.79	36
1616.83	30
1617.87	27
1618.91	27
1619.95	24
1620.99	32
1622.02	22
1623.06	22
1624.1	30
1625.14	32
1626.18	28
1627.21	26
1628.25	27
1629.29	30
1630.33	28
1631.36	28
1632.4	26
1633.44	30
1634.48	30
1635.51	22
1636.55	26
1637.58	25
1638.62	24
1639.66	29
1640.69	31
1641.73	27
1642.76	32
1643.8	28
1644.83	27
1645.87	24
1646.9	26
1647.94	27
1648.97	32
1650	28
1651.04	27
1652.07	33
1653.11	32
1654.14	33
1655.17	27
1656.21	24
1657.24	28
1658.27	23
1659.31	26
1660.34	24
1661.37	25
1662.4	29
1663.43	31
1664.47	34
1665.5	24
1666.53	29
1667.56	24
1668.59	28
1669.62	29
1670.66	29
1671.69	30
1672.72	26
1673.75	26
1674.78	30
1675.81	24
1676.84	24
1677.87	22
1678.9	27
1679.93	24
1680.96	26
1681.98	28
1683.01	30
1684.04	24
1685.07	28
1686.1	24
1687.13	30
1688.16	28
1689.18	30
1690.21	26
1691.24	24
1692.27	28
1693.3	26
1694.32	31
1695.35	31
1696.38	31
1697.4	29
1698.43	24
1699.46	22
1700.48	28
1701.51	28
1702.54	24
1703.56	29
1704.59	30
1705.61	30
1706.64	30
1707.66	28
1708.69	26
1709.71	28
1710.74	33
1711.76	29
1712.79	25
1713.81	26
1714.83	26
1715.86	27
1716.88	22
1717.91	29
1718.93	25
1719.95	30
1720.98	22
1722	28
1723.02	36
1724.04	31
1725.07	30
1726.09	28
1727.11	28
1728.13	30
1729.15	30
1730.18	27
1731.2	26
1732.22	28
1733.24	28
1734.26	29
1735.28	31
1736.3	27
1737.32	30
1738.34	30
1739.36	30
1740.38	31
1741.4	27
1742.42	26
1743.44	25
1744.46	29
1745.48	24
1746.5	26
1747.52	24
1748.54	27
1749.56	27
1750.58	26
1751.6	29
1752.61	30
1753.63	29
1754.65	30
1755.67	30
1756.68	28
1757.7	28
1758.72	28
1759.74	28
1760.75	24
1761.77	26
1762.79	28
1763.8	27
1764.82	31
1765.83	24
1766.85	28
1767.87	28
1768.88	27
1769.9	24
1770.91	20
1771.93	28
1772.94	30
1773.96	24
1774.97	27
1775.99	27
1777	28
1778.02	22
1779.03	29
1780.04	28
1781.06	28
1782.07	30
1783.09	31
1784.1	29
1785.11	27
1786.13	26
1787.14	26
1788.15	25
1789.16	28
1790.18	29
1791.19	24
1792.2	26
1793.21	28
1794.22	30
1795.23	27
1796.25	18
1797.26	28
1798.27	29
1799.28	27
1800.29	28
1801.3	23
1802.31	28
1803.32	30
1804.33	29
1805.34	22
1806.35	28
1807.36	30
1808.37	28
1809.38	29
1810.39	27
1811.4	25
1812.41	30
1813.42	22
1814.42	25
1815.43	28
1816.44	28
1817.45	24
1818.46	27
1819.47	30
1820.47	28
1821.48	26
1822.49	24
1823.49	26
1824.5	24
1825.51	28
1826.52	28
1827.52	26
1828.53	22
1829.53	27
1830.54	26
1831.55	26
1832.55	28
1833.56	28
1834.56	29
1835.57	22
1836.57	30
1837.58	28
1838.58	31
1839.59	25
1840.59	28
1841.6	26
1842.6	28
1843.61	26
1844.61	30
1845.61	32
1846.62	24
1847.62	27
1848.62	25
1849.63	20
1850.63	23
1851.63	25
1852.64	28
1853.64	27
1854.64	29
1855.64	27
1856.64	30
1857.65	25
1858.65	27
1859.65	24
1860.65	25
1861.65	30
1862.65	29
1863.65	30
1864.66	23
1865.66	32
1866.66	29
1867.66	29
1868.66	26
1869.66	33
1870.66	29
1871.66	26
1872.66	28
1873.66	26
1874.66	22
1875.65	26
1876.65	28
1877.65	32
1878.65	26
1879.65	28
1880.65	28
1881.65	25
1882.64	28
1883.64	22
1884.64	27
1885.64	30
1886.63	28
1887.63	27
1888.63	25
1889.63	28
1890.62	25
1891.62	22
1892.62	23
1893.61	24
1894.61	27
1895.6	29
1896.6	23
1897.6	28
1898.59	31
1899.59	25
1900.58	30
1901.58	26
1902.57	29
1903.57	24
1904.56	30
1905.56	25
1906.55	26
1907.54	25
1908.54	27
1909.53	28
1910.53	28
1911.52	26
1912.51	24
1913.51	30
1914.5	30
1915.49	30
1916.49	24
1917.48	24
1918.47	28
1919.46	26
1920.46	29
1921.45	28
1922.44	24
1923.43	24
1924.42	26
1925.41	28
1926.41	30
1927.4	24
1928.39	30
1929.38	29
1930.37	28
1931.36	29
1932.35	24
1933.34	26
1934.33	22
1935.32	26
1936.31	28
1937.3	28
1938.29	29
1939.28	25
1940.27	32
1941.26	23
1942.24	27
1943.23	26
1944.22	27
1945.21	26
1946.2	26
1947.19	27
1948.17	27
1949.16	32
1950.15	26
1951.14	20
1952.12	28
1953.11	29
1954.1	28
1955.09	29
1956.07	24
1957.06	26
1958.05	22
1959.03	24
1960.02	28
1961	25
1961.99	24
1962.98	28
1963.96	26
1964.95	26
1965.93	30
1966.92	22
1967.9	28
1968.89	23
1969.87	29
1970.85	30
1971.84	28
1972.82	27
1973.81	26
1974.79	29
1975.78	28
1976.76	24
1977.74	20
1978.73	26
1979.71	30
1980.69	27
1981.67	25
1982.66	34
1983.64	26
1984.62	30
1985.6	31
1986.59	29
1987.57	27
1988.55	23
1989.53	26
1990.51	27
1991.49	28
1992.47	26
1993.45	28
1994.44	20
1995.42	25
1996.4	26
1997.38	24
1998.36	27
1999.34	30
2000.32	26
2001.3	25
2002.28	30
2003.26	25
2004.24	28
2005.22	26
2006.19	26
2007.17	26
2008.15	27
2009.13	22
2010.11	24
2011.09	29
2012.06	25
2013.04	27
2014.02	31
2015	25
2015.98	24
2016.95	32
2017.93	24
2018.91	26
2019.88	25
2020.86	22
2021.84	21
2022.81	31
2023.79	25
2024.77	28
2025.74	29
2026.72	25
2027.69	28
2028.67	22
2029.65	29
2030.62	25
2031.6	26
2032.57	27
2033.55	24
2034.52	28
2035.5	29
2036.47	32
2037.44	24
2038.42	29
2039.39	27
2040.36	26
2041.34	27
2042.31	28
2043.29	28
2044.26	29
2045.23	27
2046.2	26
2047.18	26
2048.15	31
2049.12	26
2050.09	27
2051.07	28
2052.04	27
2053.01	28
2053.98	24
2054.95	27
2055.93	22
2056.9	26
2057.87	18
2058.84	28
2059.81	24
2060.78	24
2061.75	20
2062.72	29
2063.69	22
2064.66	22
2065.63	26
2066.6	24
2067.57	16
2068.54	26
2069.51	27
2070.48	27
2071.45	30
2072.42	26
2073.38	29
2074.35	26
2075.32	25
2076.29	24
2077.26	24
2078.23	26
2079.19	25
2080.16	20
2081.13	16
2082.1	29
2083.06	26
2084.03	27
2085	24
2085.96	28
2086.93	20
2087.9	25
2088.86	27
2089.83	26
2090.8	26
2091.76	26
2092.73	22
2093.69	23
2094.66	30
2095.62	26
2096.59	26
2097.55	23
2098.52	28
2099.48	26
2100.45	27
2101.41	28
2102.38	24
2103.34	26
2104.31	29
2105.27	26
2106.23	29
2107.2	25
2108.16	24
2109.12	29
2110.09	28
2111.05	29
2112.01	22
2112.98	30
2113.94	27
2114.9	20
2115.86	24
2116.82	26
2117.79	30
2118.75	26
2119.71	22
2120.67	26
2121.63	24
2122.59	26
2123.55	24
2124.52	23
2125.48	26
2126.44	25
2127.4	24
2128.36	30
2129.32	24
2130.28	27
2131.24	24
2132.2	22
2133.16	28
2134.12	26
2135.08	28
2136.04	26
2136.99	20
2137.95	27
2138.91	27
2139.87	23
2140.83	26
2141.79	26
2142.75	24
2143.7	30
2144.66	26
2145.62	22.0035
2146.58	22.9626
2147.53	27.9327
2148.49	20.2689
2149.45	29.8235
2150.41	21.2658
2151.36	27.813
2152.32	27.8086
2153.27	24.3056
2154.23	26.1814
2155.19	27.8733
2156.14	25.549
2157.1	24.6683
2158.06	25.6536
2159.01	26.2584
2159.97	26.9395
2160.92	23.6864
2161.88	26.8284
2162.83	26.0032
2163.79	24.9559
2164.74	23.8047
2165.7	26.4116
2166.65	22.2363
2167.61	27.6176
2168.56	28.5529
2169.51	23.0074
2170.47	23.4893
2171.42	23.4608
2172.38	25.6299
2173.33	21.9987
2174.28	23.0443
2175.24	26.148
2176.19	25.3627
2177.14	24.3055
2178.09	22.7731
2179.05	25.514
2180	26.6121
2180.95	24.0669
2181.9	24.6225
2182.86	23.8194
2183.81	24.4807
2184.76	25.3621
2185.71	25.4783
2186.66	27.1912
2187.61	25.5465
2188.57	26.9853
2189.52	22.938
2190.47	22.7305
2191.42	24.5943
2192.37	22.9706
2193.32	22.1547
2194.27	23.6922
2195.22	27.3994
2196.17	24.7455
2197.12	24.9576
2198.07	25.7025
2199.02	22.8689
2199.97	24.455
2200.92	24.0796
2201.87	25.7431
2202.82	26.1843
2203.76	27.1402
2204.71	22.6708
2205.66	23.5098
2206.61	25.917
2207.56	25.8329
2208.51	26.7027
2209.45	25.6626
2210.4	26.5194
2211.35	26.2175
2212.3	25.155
2213.24	25.4626
2214.19	22.4019
2215.14	25.1242
2216.09	23.178
2217.03	24.7333
2217.98	26.4349
2218.93	25.3102
2219.87	23.1557
2220.82	25.5849
2221.77	26.8237
2222.71	26.9584
2223.66	25.4265
2224.6	24.8975
2225.55	23.7902
2226.49	22.7683
2227.44	25.0939
2228.38	26.0142
2229.33	26.8253
2230.27	26.0689
2231.22	24.0798
2232.16	26.8068
2233.11	27.0154
2234.05	26.0833
2235	26.8462
2235.94	23.4844
2236.88	24.2823
2237.83	25.8088
2238.77	24.4256
2239.71	22.8257
2240.66	24.3335
2241.6	24.8322
2242	24
2242.95	26
2243.9	22
2244.84	32
2245.79	24
2246.74	24
2247.69	33
2248.63	26
2249.58	23
2250.53	22
2251.47	26
2252.42	24
2253.37	22
2254.31	31
2255.26	26
2256.2	22
2257.15	22
2258.1	25
2259.04	24
2259.99	27
2260.93	23
2261.88	22
2262.82	25
2263.77	26
2264.71	29
2265.65	29
2266.6	26
2267.54	28
2268.49	21
2269.43	30
2270.38	29
2271.32	27
2272.26	20
2273.21	24
2274.15	22
2275.09	26
2276.04	24
2276.98	24
2277.92	28
2278.86	30
2279.81	20
2280.75	23
2281.69	24
2282.63	26
2283.57	24
2284.52	26
2285.46	26
2286.4	22
2287.34	26
2288.28	23
2289.22	27
2290.16	30
2291.1	22
2292.04	26
2292.98	24
2293.93	26
2294.86	29
2295.8	20
2296.74	23
2297.69	26
2298.62	28
2299.56	26
2300.5	22
2301.44	25
2302.38	28
2303.32	30
2304.26	27
2305.2	23
2306.14	28
2307.07	25
2308.01	22
2308.95	28
2309.89	24
2310.83	27
2311.76	24
2312.7	26
2313.64	31
2314.58	22
2315.51	26
2316.45	31
2317.39	27
2318.32	24
2319.26	28
2320.2	28
2321.13	27
2322.07	26
2323	26
2323.94	24
2324.88	31
2325.81	28
2326.75	28
2327.68	23
2328.62	27
2329.55	24
2330.49	26
2331.42	32
2332.36	25
2333.29	26
2334.22	28
2335.16	29
2336.09	31
2337.03	29
2337.96	26
2338.89	27
2339.83	23
2340.76	25
2341.69	20
2342.63	26
2343.56	24
2344.49	24
2345.43	22
2346.36	24
2347.29	28
2348.22	31
2349.15	24
2350.09	25
2351.02	24
2351.95	28
2352.88	26
2353.81	23
2354.74	30
2355.67	24
2356.61	26
2357.54	27
2358.47	24
2359.4	26
2360.33	22
2361.26	26
2362.19	22
2363.12	29
2364.05	29
2364.98	27
2365.91	20
2366.84	23
2367.77	25
2368.7	26
2369.62	31
2370.55	32
2371.48	28
2372.41	29
2373.34	29
2374.27	21
2375.2	22
2376.12	27
2377.05	28
2377.98	28
2378.91	28
2379.83	26
2380.76	25
2381.69	24
2382.62	24
2383.54	20
2384.47	28
2385.4	26
2386.32	18
2387.25	29
2388.18	27
2389.1	24
2390.03	24
2390.95	22
2391.88	21
2392.81	30
2393.73	29
2394.66	25
2395.58	27
2396.51	26
2397.43	30
2398.36	28
2399.28	27
2400.2	27
2401.13	22
2402.05	26
2402.98	28
2403.9	25
2404.83	30
2405.75	29
2406.67	27
2407.6	28
2408.52	28
2409.44	20
2410.37	28
2411.29	28
2412.21	20
2413.13	22
2414.06	29
2414.98	25
2415.9	28
2416.82	26
2417.74	30
2418.67	27
2419.59	28
2420.51	22
2421.43	26
2422.35	26
2423.27	31
2424.19	26
2425.11	26
2426.03	28
2426.96	29
2427.88	27
2428.8	25
2429.72	30
2430.64	26
2431.56	26
2432.48	26
2433.39	24
2434.31	29
2435.23	32
2436.15	29
2437.07	24
2437.99	24
2438.91	22
2439.83	22
2440.75	24
2441.67	25
2442.58	32
2443.5	30
2444.42	28
2445.34	20
2446.26	27
2447.17	28
2448.09	25
2449.01	21
2449.92	22
2450.84	30
2451.76	30
2452.68	27
2453.59	28
2454.51	26
2455.42	26
2456.34	26
2457.26	20
2458.17	22
2459.09	26
2460	22
2460.92	27
2461.83	29
2462.75	26
2463.66	24
2464.58	25
2465.49	24
2466.41	26
2467.32	30
2468.24	31
2469.15	25
2470.07	27
2470.98	29
2471.89	27
2472.81	31
2473.72	29
2474.64	30
2475.55	23
2476.46	27
2477.37	28
2478.29	24
2479.2	25
2480.11	25
2481.03	21
2481.94	24
2482.85	30
2483.76	26
2484.67	24
2485.59	25
2486.5	20
2487.41	24
2488.32	30
2489.23	30
2490.14	28
2491.05	27
2491.97	25
2492.88	29
2493.79	26
2494.7	25
2495.61	28
2496.52	30
2497.43	30
2498.34	24
2499.25	26
2500.16	26
2501.07	23
2501.98	29
2502.89	25
2503.79	29
2504.7	24
2505.61	33
2506.52	26
2507.43	31
2508.34	28
2509.25	27
2510.16	28
2511.06	27
2511.97	29
2512.88	26
2513.79	26
2514.69	27
2515.6	24
2516.51	30
2517.42	24
2518.32	29
2519.23	28
2520.14	28
2521.04	29
2521.95	26
2522.86	24
2523.76	30
2524.67	26
2525.57	22
2526.48	27
2527.39	28
2528.29	26
2529.2	29
2530.1	26
2531.01	22
2531.91	24
2532.82	25
2533.72	28
2534.63	22
2535.53	25
2536.44	27
2537.34	27
2538.24	30
2539.15	25
2540.05	26
2540.96	27
2541.86	28
2542.76	24
2543.67	32
2544.57	28
2545.47	30
2546.37	25
2547.28	28
2548.18	28
2549.08	26
2549.99	30
2550.89	22
2551.79	25
2552.69	28
2553.59	24
2554.49	24
2555.4	27
2556.3	29
2557.2	26
2558.1	25
2559	29
2559.9	29
2560.8	25
2561.7	26
2562.6	26
2563.5	28
2564.4	24
2565.3	26
2566.2	22
2567.1	26
2568	26
2568.9	26
2569.8	22
2570.7	24
2571.6	25
2572.5	27
2573.4	24
2574.3	32
2575.2	29
2576.1	24
2576.99	26
2577.89	29
2578.79	22
2579.69	29
2580.59	27
2581.48	29
2582.38	24
2583.28	30
2584.18	24
2585.07	24
2585.97	28
2586.87	26
2587.76	27
2588.66	22
2589.56	28
2590.45	31
2591.35	26
2592.25	27
2593.14	28
2594.04	29
2594.93	24
2595.83	29
2596.73	26
2597.62	30
2598.52	30
2599.41	28
2600.31	27
2601.2	26
2602.1	28
2602.99	22
2603.88	30
2604.78	26
2605.67	26
2606.57	30
2607.46	28
2608.35	24
2609.25	26
2610.14	35
2611.03	27
2611.93	27
2612.82	30
2613.71	27
2614.61	24
2615.5	27
2616.39	25
2617.29	29
2618.18	29
2619.07	27
2619.96	24
2620.85	29
2621.75	20
2622.64	24
2623.53	22
2624.42	31
2625.31	25
2626.2	26
2627.09	27
2627.98	29
2628.88	26
2629.77	25
2630.66	27
2631.55	22
2632.44	26
2633.33	26
2634.22	29
2635.11	27
2636	22
2636.89	26
2637.78	26
2638.66	29
2639.55	22
2640.44	29
2641.33	25
2642.22	27
2643.11	28
2644	28
2644.89	22
2645.78	24
2646.66	26
2647.55	28
2648.44	28
2649.33	30
2650.21	26
2651.1	30
2651.99	27
2652.88	25
2653.76	32
2654.65	28
2655.54	20
2656.42	26
2657.31	28
2658.2	26
2659.08	29
2659.97	28
2660.86	26
2661.74	26
2662.63	29
2663.51	25
2664.4	28
2665.29	28
2666.17	24
2667.06	28
2667.94	28
2668.83	32
2669.71	23
2670.6	26
2671.48	27
2672.36	26
2673.25	29
2674.13	24
2675.02	25
2675.9	29
2676.78	30
2677.67	25
2678.55	29
2679.43	24
2680.32	27
2681.2	26
2682.08	28
2682.97	26
2683.85	26
2684.73	28
2685.61	32
2686.5	20
2687.38	26
2688.26	22
2689.14	27
2690.03	29
2690.91	28
2691.79	28
2692.67	29
2693.55	29
2694.43	24
2695.31	27
2696.19	26
2697.08	28
2697.96	26
2698.84	29
2699.72	24
2700.6	27
2701.48	30
2702.36	28
2703.24	29
2704.12	26
2705	27
2705.88	28
2706.76	32
2707.64	30
2708.51	25
2709.39	28
2710.27	26
2711.15	26
2712.03	29
2712.91	26
2713.79	27
2714.67	26
2715.54	26
2716.42	24
2717.3	30
2718.18	29
2719.05	23
2719.93	28
2720.81	26
2721.69	30
2722.56	30
2723.44	25
2724.32	26
2725.19	29
2726.07	30
2726.95	31
2727.82	26
2728.7	28
2729.58	32
2730.45	29
2731.33	28
2732.2	28
2733.08	28
2733.95	30
2734.83	28
2735.7	32
2736.58	28
2737.45	26
2738.33	26
2739.2	30
2740.08	28
2740.95	29
2741.83	29
2742.7	24
2743.58	24
2744.45	24
2745.32	26
2746.2	26
2747.07	29
2747.94	24
2748.82	25
2749.69	24
2750.56	29
2751.44	26
2752.31	30
2753.18	32
2754.05	26
2754.93	26
2755.8	24
2756.67	30
2757.54	24
2758.42	24
2759.29	28
2760.16	25
2761.03	32
2761.9	30
2762.77	24
2763.64	28
2764.51	26
2765.38	26
2766.26	26
2767.13	27
2768	26
2768.87	26
2769.74	30
2770.61	25
2771.48	23
2772.35	20
2773.22	27
2774.09	30
2774.96	32
2775.83	28
2776.7	28
2777.56	26
2778.43	29
2779.3	24
2780.17	29
2781.04	26
2781.91	29
2782.78	26
2783.64	28
2784.51	28
2785.38	29
2786.25	32
2787.12	26
2787.98	26
2788.85	24
2789.72	22
2790.59	30
2791.45	26
2792.32	30
2793.19	29
2794.05	26
2794.92	25
2795.79	23
2796.65	30
2797.52	30
2798.38	26
2799.25	30
2800.12	27
2800.98	28
2801.85	26
2802.71	28
2803.58	26.5
2804.44	25
2805.31	30
2806.17	28
2807.04	31
2807.9	31
2808.77	33
2809.63	24
2810.5	31
2811.36	31
2812.22	22
2813.09	25
2813.95	28
2814.82	29
2815.68	32
2816.54	28
2817.41	24
2818.27	27
2819.13	26
2820	30
2820.86	32
2821.72	22
2822.58	22
2823.45	24
2824.31	24
2825.17	22
2826.03	26
2826.9	31
2827.76	28
2828.62	22
2829.48	30
2830.34	24
2831.2	28
2832.06	24
2832.92	28
2833.79	26
2834.65	30
2835.51	28
2836.37	30
2837.23	27
2838.09	30
2838.95	31
2839.81	24
2840.67	28
2841.53	28
2842.39	30
2843.25	28
2844.11	28
2844.97	28
2845.83	28
2846.68	25
2847.54	25
2848.4	28
2849.26	27
2850.12	26
2850.98	24
2851.84	28
2852.69	26
2853.55	26
2854.41	22
2855.27	27
2856.13	30
2856.98	27
2857.84	29
2858.7	25
2859.56	30
2860.41	28
2861.27	29
2862.13	18
2862.98	26
2863.84	26
2864.7	30
2865.55	28
2866.41	30
2867.27	32
2868.12	26
2868.98	28
2869.83	28
2870.69	25
2871.54	31
2872.4	34
2873.25	26
2874.11	27
2874.96	30
2875.82	29
2876.68	30
2877.53	27
2878.38	36
2879.24	29
2880.09	30
2880.95	37
2881.8	29
2882.65	30
2883.51	32
2884.36	28
2885.22	30
2886.07	32
2886.92	33
2887.77	36
2888.63	35
2889.48	33
2890.33	32
2891.19	36
2892.04	34
2892.89	39
2893.74	38
2894.6	39
2895.45	42
2896.3	35
2897.15	40
2898	46
2898.85	48
2899.71	49
2900.56	42
2901.41	49
2902.26	50
2903.11	54
2903.96	50
2904.81	52
2905.66	56
2906.51	53
2907.36	54
2908.21	50
2909.06	54
2909.91	52
2910.76	49
2911.61	56
2912.46	45
2913.31	44
2914.16	45
2915.01	46
2915.86	44
2916.71	38
2917.56	42
2918.41	38
2919.26	31
2920.1	32
2920.95	31
2921.8	38
2922.65	32
2923.5	25
2924.34	33
2925.19	30
2926.04	32
2926.89	32
2927.74	31
2928.58	28
2929.43	33
2930.28	34
2931.12	30
2931.97	34
2932.82	29
2933.66	27
2934.51	25
2935.36	28
2936.2	26
2937.05	28
2937.89	31
2938.74	27
2939.59	31
2940.43	26
2941.28	29
2942.12	28
2942.97	29
2943.81	32
2944.66	32
2945.5	27
2946.35	28
2947.19	28
2948.04	30
2948.88	29
2949.72	27
2950.57	26
2951.41	36
2952.26	35
2953.1	28
2953.94	33
2954.79	33
2955.63	31
2956.47	32
2957.32	35
2958.16	32
2959	32
2959.85	37
2960.69	34
2961.53	32
2962.37	40
2963.22	38
2964.06	39
2964.9	37
2965.74	38
2966.58	36
2967.42	42
2968.27	43
2969.11	32
2969.95	35
2970.79	42
2971.63	30
2972.47	36
2973.31	31
2974.15	33
2974.99	37
2975.83	30
2976.68	40
2977.52	26
2978.36	32
2979.2	33
2980.04	30
2980.88	28
2981.71	30
2982.55	30
2983.39	30
2984.23	29
2985.07	29
2985.91	29
2986.75	31
2987.59	28
2988.43	31
2989.27	25
2990.1	27
2990.94	28
2991.78	27
2992.62	28
2993.46	27
2994.3	26
2995.13	32
2995.97	24
2996.81	28
2997.64	25
2998.48	33
2999.32	28
