#Acq. time (s)=	3
#Accumulations=	3
#Range (cm-¹)=	100...3000
#Windows=	3
#Autofocus=	Off
#AutoExposure=	Off
#Spike filter=	Multiple accum.
#Delay time (s)=	0
#Binning=	1
#Readout mode=	Signal
#DeNoise=	Off
#ICS correction=	Off
#Dark correction=	Off
#Inst. Process=	Off
#Instrument=	LabRAM HR Evol
#Detector=	Syncerity OE
#Objective=	x100_VIS_LWD
#Grating=	600 (500nm)
#ND Filter=	25%
#Laser=	633nm_Edge
#Hole=	100.021
#Range=	Visible
#Project=	Bolus
#Sample=	B3
#Site=	stripside
#Title=	m07
#Remark=	
#Date=	03.11.2025 20:16
#Acquired=	03.11.2025 20:16:37
100.969	25
102.252	32
103.535	31
104.818	31
106.101	26
107.384	31
108.666	28
109.948	30
111.232	32
112.514	31
113.795	26
115.077	31
116.358	33
117.639	33
118.919	30
120.2	32
121.48	30
122.76	27
124.04	30
125.32	28
126.599	28
127.879	29
129.158	33
130.436	35
131.715	36
132.992	34
134.27	34
135.548	28
136.826	30
138.104	32
139.381	34
140.658	35
141.935	36
143.212	32
144.489	38
145.763	38
147.04	34
148.315	32
149.591	36
150.867	36
152.142	34
153.416	36
154.691	36
155.965	32
157.24	42
158.514	40
159.786	34
161.06	38
162.334	31
163.607	38
164.881	36
166.152	34
167.425	40
168.698	42
169.969	42
171.241	32
172.513	32
173.785	35
175.055	32
176.326	41
177.597	36
178.867	40
180.137	38
181.408	43
182.677	36
183.947	35
185.217	38
186.485	38
187.755	39
189.022	36
190.291	34
191.56	40
192.828	34
194.096	35
195.363	37
196.631	38
197.899	40
199.165	37
200.432	35
201.698	37
202.965	36
204.23	34
205.497	36
206.762	34
208.028	36
209.293	36
210.559	29
211.823	30
213.088	37
214.352	35
215.617	37
216.88	30
218.145	37
219.408	37
220.672	32
221.934	30
223.196	32
224.46	29
225.722	34
226.985	33
228.246	30
229.508	31
230.77	32
232.031	29
233.292	32
234.554	30
235.814	27
237.074	27
238.335	32
239.595	31
240.854	30
242.115	32
243.374	31
244.633	27
245.893	26
247.151	34
248.409	30
249.667	25
250.927	32
252.184	32
253.442	30
254.699	36
255.957	31
257.214	33
258.47	26
259.727	30
260.983	34
262.24	28
263.496	29
264.752	34
266.007	27
267.262	30
268.517	33
269.773	34
271.028	35
272.282	29
273.536	28
274.79	24
276.044	30
277.297	27
278.551	33
279.804	24
281.057	24
282.31	31
283.564	30
284.816	30
286.068	27
287.32	32
288.572	30
289.823	33
291.074	28
292.325	27
293.576	31
294.827	31
296.077	30
297.328	26
298.578	26
299.828	30
301.077	26
302.325	33
303.575	27
304.824	26
306.073	26
307.321	31
308.57	30
309.818	24
311.066	28
312.314	28
313.562	28
314.808	32
316.055	30
317.302	28
318.549	28
319.796	27
321.042	28
322.288	29
323.533	28
324.779	29
326.024	27
327.27	31
328.515	28
329.759	30
331.004	29
332.248	33
333.493	28
334.736	26
335.98	30
337.223	32
338.466	32
339.709	26
340.952	32
342.195	26
343.437	30
344.68	30
345.922	32
347.163	30
348.405	28
349.647	27
350.887	29
352.128	33
353.37	30
354.609	33
355.85	34
357.089	28
358.33	32
359.57	28
360.809	32
362.049	24
363.287	32
364.526	30
365.764	30
367.003	34
368.241	32
369.479	28
370.718	30
371.955	26
373.193	30
374.429	32
375.667	29
376.903	26
378.139	32
379.376	29
380.611	33
381.848	26
383.083	34
384.319	31
385.554	30
386.79	29
388.024	28
389.258	28
390.493	31
391.727	33
392.962	31
394.195	32
395.428	31
396.663	31
397.895	22
399.128	31
400.361	30
401.593	34
402.825	30
404.058	32
405.29	24
406.521	31
407.752	31
408.985	28
410.215	28
411.446	26
412.678	29
413.908	32
415.138	32
416.367	28
417.597	32
418.828	26
420.057	27
421.286	28
422.514	30
423.743	26
424.973	29
426.201	27
427.429	25
428.657	32
429.884	28
431.112	27
432.34	28
433.567	33
434.794	30
436.02	28
437.247	31
438.473	26
439.699	28
440.925	24
442.15	30
443.376	29
444.601	30
445.826	30
447.051	30
448.275	26
449.5	32
450.724	30
451.948	30
453.172	30
454.396	30
455.619	28
456.842	28
458.065	29
459.288	28
460.511	30
461.733	34
462.956	30
464.178	32
465.4	26
466.621	34
467.843	34
469.064	31
470.285	30
471.505	36
472.726	34
473.946	36
475.166	41
476.387	40
477.606	37
478.825	44
480.044	44
481.264	45
482.483	46
483.702	52
484.921	50
486.138	51
487.356	49
488.574	50
489.792	58
491.009	52
492.226	54
493.444	57
494.661	53
495.877	49
497.094	48
498.31	42
499.525	41
500.741	44
501.958	44
503.172	42
504.388	40
505.603	40
506.817	40
508.032	30
509.247	36
510.46	38
511.675	40
512.888	32
514.102	37
515.316	34
516.528	30
517.742	34
518.954	32
520.167	27
521.378	29
522.591	35
523.802	30
525.015	26
526.226	33
527.438	32
528.648	31
529.86	32
531.07	29
532.281	36
533.491	32
534.702	31
535.911	31
537.121	28
538.33	28
539.54	31
540.749	26
541.957	32
543.167	30
544.375	31
545.584	30
546.791	29
547.999	30
549.207	29
550.414	30
551.621	27
552.829	29
554.035	33
555.241	34
556.449	30
557.655	28
558.86	30
560.066	30
561.272	32
562.477	30
563.682	31
564.888	30
566.093	28
567.297	28
568.501	30
569.705	32
570.91	28
572.114	31
573.317	28
574.52	29
575.723	29
576.927	33
578.13	29
579.332	30
580.535	28
581.737	29
582.938	33
584.14	33
585.343	28
586.544	35
587.745	32
588.946	29
590.147	34
591.347	33
592.548	25
593.748	32
594.948	31
596.147	32
597.347	31
598.546	27
599.745	29
600.944	31
602.143	29
603.342	33
604.54	32
605.738	30
606.937	26
608.134	30
609.332	30
610.529	26
611.727	30
612.924	29
614.121	34
615.317	32
616.513	26
617.709	27
618.905	28
620.101	28
621.297	24
622.492	26
623.688	33
624.883	28
626.077	26
627.271	30
628.466	26
629.66	31
630.855	31
632.047	32
633.241	32
634.435	35
635.629	29
636.82	31
638.014	30
639.207	26
640.399	28
641.59	31
642.783	26
643.975	31
645.166	24
646.357	28
647.549	32
648.741	31
649.93	29
651.122	31
652.311	34
653.502	28
654.692	33
655.881	32
657.071	36
658.261	22
659.45	30
660.639	32
661.827	36
663.016	30
664.204	29
665.393	28
666.581	29
667.769	31
668.957	34
670.143	29
671.331	28
672.518	30
673.705	31
674.891	32
676.078	28
677.264	33
678.451	31
679.636	31
680.821	30
682.007	30
683.192	37
684.378	36
685.562	38
686.747	34
687.931	34
689.115	36
690.3	36
691.483	36
692.666	28
693.851	34
695.034	26
696.216	33
697.4	32
698.582	30
699.764	30
700.948	30
702.129	37
703.311	38
704.493	46
705.674	37
706.855	38
708.036	43
709.218	46
710.399	44
711.579	44
712.759	42
713.939	44
715.12	42
716.299	36
717.478	36
718.657	30
719.836	33
721.015	33
722.195	22
723.373	36
724.552	28
725.729	32
726.907	28
728.085	31
729.262	30
730.44	30
731.617	30
732.795	29
733.972	32
735.148	33
736.324	34
737.501	28
738.677	30
739.852	31
741.028	30
742.203	29
743.379	32
744.554	27
745.729	28
746.903	30
748.078	34
749.252	32
750.426	28
751.599	31
752.772	28
753.946	28
755.119	33
756.293	22
757.466	27
758.639	28
759.811	27
760.984	32
762.155	32
763.327	26
764.499	34
765.67	35
766.842	32
768.013	26
769.183	29
770.354	30
771.525	32
772.696	33
773.865	29
775.035	26
776.205	29
777.375	30
778.544	31
779.713	28
780.882	30
782.052	36
783.219	28
784.388	30
785.557	35
786.724	34
787.892	31
789.06	30
790.227	34
791.395	30
792.562	33
793.728	38
794.895	33
796.061	32
797.228	26
798.395	36
799.56	33
800.726	24
801.891	29
803.057	32
804.221	26
805.387	30
806.551	28
807.716	26
808.879	30
810.044	28
811.208	29
812.372	27
813.535	28
814.699	32
815.862	33
817.025	33
818.188	27
819.351	24
820.513	28
821.675	30
822.837	26
823.999	26
825.161	27
826.322	33
827.483	28
828.645	31
829.805	32
830.966	29
832.127	24
833.287	30
834.447	30
835.607	29
836.767	34
837.926	29
839.085	28
840.245	27
841.404	28
842.562	30
843.72	28
844.88	30
846.038	33
847.195	28
848.353	29
849.512	30
850.669	30
851.826	30
852.983	30
854.139	28
855.296	31
856.453	30
857.609	33
858.765	29
859.921	32
861.077	29
862.232	26
863.387	32
864.542	26
865.697	26
866.852	30
868.008	26
869.162	33
870.316	33
871.47	34
872.624	30
873.778	30
874.931	22
876.084	30
877.237	24
878.39	34
879.543	33
880.695	33
881.846	33
882.999	26
884.151	30
885.302	28
886.454	25
887.606	27
888.757	26
889.908	30
891.059	24
892.21	29
893.359	30
894.509	33
895.659	29
896.81	24
897.959	32
899.109	24
900.257	28
901.407	24
902.556	32
903.705	32
904.854	27
906.001	35
907.149	30
908.298	24
909.446	28
910.592	26
911.74	28
912.888	24
914.034	28
915.181	26
916.328	30
917.473	28
918.62	25
919.766	29
920.911	28
922.058	26
923.204	28
924.348	32
925.494	30
926.638	29
927.783	30
928.928	29
930.072	28
931.216	22
932.36	32
933.504	30
934.647	27
935.791	32
936.933	28
938.077	31
939.219	30
940.363	28
941.504	33
942.647	32
943.789	28
944.932	28
946.073	30
947.215	27
948.356	26
949.498	27
950.638	31
951.778	27
952.92	27
954.06	28
955.199	22
956.34	26
957.479	20
958.62	31
959.759	29
960.898	28
962.038	31
963.176	29
964.315	32
965.453	26
966.592	30
967.73	29
968.867	28
970.006	29
971.144	30
972.281	30
973.418	26
974.554	32
975.692	29
976.829	26
977.965	28
979.101	29
980.237	30
981.374	31
982.509	33
983.645	32
984.78	29
985.915	28
987.05	29
988.184	18
989.319	28
990.453	30
991.589	29
992.722	31
993.856	28
994.99	26
996.123	28
997.257	29
998.39	26
999.523	30
1000.66	29
1001.79	28
1002.92	26
1004.05	30
1005.18	30
1006.32	28
1007.45	30
1008.58	36
1009.71	28
1010.84	24
1011.97	24
1013.1	23
1014.23	32
1015.36	23
1016.49	26
1017.62	26
1018.75	32
1019.88	28
1021.01	31
1022.14	30
1023.27	28
1024.4	27
1025.53	28
1026.66	31
1027.79	26
1028.91	27
1030.04	31
1031.17	31
1032.3	30
1033.42	30
1034.55	27
1035.68	22
1036.81	28
1037.93	29
1039.06	29
1040.18	30
1041.31	28
1042.44	31
1043.56	31
1044.69	27
1045.81	26
1046.94	26
1048.06	27
1049.19	29
1050.31	26
1051.44	31
1052.56	30
1053.69	30
1054.81	28
1055.93	28
1057.06	26
1058.18	26
1059.3	30
1060.43	27
1061.55	20
1062.67	31
1063.79	36
1064.92	25
1066.04	26
1067.16	28
1068.28	26
1069.4	30
1070.52	24
1071.65	30
1072.77	29
1073.89	24
1075.01	25
1076.13	27
1077.25	29
1078.37	27
1079.49	28
1080.61	25
1081.73	30
1082.85	26
1083.97	26
1085.09	20
1086.2	32
1087.32	28
1088.44	31
1089.56	29
1090.68	28
1091.8	25
1092.91	26
1094.03	28
1095.15	28
1096.26	29
1097.38	29
1098.5	28
1099.61	26
1100.73	28
1101.85	26
1102.96	25
1104.08	30
1105.19	29
1106.31	24
1107.43	24
1108.54	26
1109.66	31
1110.77	26
1111.88	30
1113	24
1114.11	24
1115.23	26
1116.34	32
1117.46	28
1118.57	32
1119.68	26
1120.8	26
1121.91	20
1123.02	24
1124.13	30
1125.25	24
1126.36	26
1127.47	26
1128.58	28
1129.69	26
1130.8	24
1131.92	28
1133.03	26
1134.14	25
1135.25	28
1136.36	24
1137.47	29
1138.58	28
1139.69	26
1140.8	26
1141.91	26
1143.02	29
1144.13	27
1145.24	25
1146.35	32
1147.46	24
1148.56	24
1149.67	23
1150.78	29
1151.89	25
1153	28
1154.1	32
1155.21	26
1156.32	30
1157.43	26
1158.53	27
1159.64	26
1160.75	30
1161.85	26
1162.96	30
1164.07	32
1165.17	32
1166.28	24
1167.38	31
1168.49	29
1169.59	34
1170.7	30
1171.8	28
1172.91	32
1174.01	29
1175.12	24
1176.22	26
1177.32	25
1178.43	26
1179.53	27
1180.64	26
1181.74	22
1182.84	32
1183.94	24
1185.05	28
1186.15	32
1187.25	28
1188.35	26
1189.46	30
1190.56	30
1191.66	28
1192.76	25
1193.86	22
1194.96	28
1196.06	29.9951
1197.16	25.9777
1198.26	25.9597
1199.37	31.9237
1200.47	29.9912
1201.57	22.2647
1202.67	29.6416
1203.77	25.05
1204.86	29.7448
1205.96	26.1964
1207.06	24.3491
1208.16	25.9456
1209.26	29.4471
1210.36	27.6701
1211.46	26
1212.56	22.305
1213.65	23.836
1214.75	26.4853
1215.85	26.8071
1216.95	29.7093
1218.04	27.9151
1219.14	30.34
1220.24	24.6453
1221.33	26.01
1222.43	22.1748
1223.53	24.3874
1224.62	24.3755
1225.72	21.4989
1226.82	27.4053
1227.91	26.5386
1229.01	27.598
1230.1	28.8698
1231.2	27.7346
1232.29	27.3431
1233.39	25.3382
1234.48	26.5592
1235.58	27.7894
1236.67	23.3407
1237.77	28.1505
1238.86	24.5051
1239.95	26
1241.05	25.2695
1242.14	27.3725
1243.23	25.845
1244.33	27.7236
1245.42	24.2036
1246.51	25.3852
1247.61	25.4428
1248.7	25.2165
1249.79	26.0294
1250.88	26.5035
1251.97	27.2019
1253.07	26.6126
1254.16	25.4162
1255.25	27.6029
1256.34	28.8752
1257.43	27.4917
1258.52	26.1667
1259.61	28.78
1260.7	28.583
1261.79	29.3149
1262.88	25.2059
1263.97	29.2088
1265.06	28.7883
1266.15	28.4032
1267.24	27.5516
1268.33	27.3716
1269.42	27.5113
1270.51	24.6716
1271.6	24.8347
1272.68	25.5772
1273.77	24.1503
1274.86	26.0256
1275.95	27.689
1277.04	26.6194
1278.12	29.3269
1279.21	27.6926
1280.3	23.5593
1281.39	25.2437
1282.47	24.5125
1283.56	25.445
1284.65	27.7775
1285.73	25.8001
1286.82	28.3627
1287.91	27.62
1288.99	26.8462
1290.08	21.6688
1291.16	26.4472
1292.25	26.7506
1293.33	29.6646
1294.42	26.2041
1295.5	23.4276
1296.59	28.9212
1297.67	26.3428
1298.76	24.0846
1299.84	22.4289
1300.92	24.5371
1302.01	18.7267
1303.09	23.0537
1304.17	29.6806
1305.26	27.9931
1306.34	29.1596
1307.34	31
1308.43	22
1309.52	24
1310.61	28
1311.7	23
1312.78	30
1313.87	22
1314.96	26
1316.04	27
1317.13	24
1318.22	29
1319.3	23
1320.39	28
1321.48	26
1322.56	26
1323.65	24
1324.73	28
1325.82	28
1326.9	30
1327.99	24
1329.07	27
1330.16	28
1331.24	27
1332.33	22
1333.41	28
1334.5	24
1335.58	30
1336.66	26
1337.75	31
1338.83	28
1339.91	26
1341	28
1342.08	25
1343.16	28
1344.24	23
1345.33	30
1346.41	24
1347.49	24
1348.57	28
1349.65	30
1350.74	32
1351.82	25
1352.9	28
1353.98	20
1355.06	26
1356.14	28
1357.22	28
1358.3	24
1359.38	25
1360.46	34
1361.54	26
1362.62	24
1363.7	34
1364.78	26
1365.86	24
1366.94	32
1368.02	27
1369.09	26
1370.17	30
1371.25	29
1372.33	23
1373.41	27
1374.48	16
1375.56	30
1376.64	20
1377.72	26
1378.79	29
1379.87	26
1380.95	25
1382.02	28
1383.1	24
1384.17	28
1385.25	28
1386.33	32
1387.4	30
1388.48	27
1389.55	32
1390.63	29
1391.7	31
1392.78	28
1393.85	30
1394.93	28
1396	24
1397.07	31
1398.15	30
1399.22	28
1400.3	28
1401.37	30
1402.44	31
1403.52	33
1404.59	26
1405.66	34
1406.73	32
1407.81	29
1408.88	24
1409.95	32
1411.02	32
1412.09	31
1413.17	29
1414.24	30
1415.31	28
1416.38	30
1417.45	34
1418.52	28
1419.59	32
1420.66	30
1421.73	22
1422.8	29
1423.87	27
1424.94	30
1426.01	22
1427.08	28
1428.15	28
1429.22	25
1430.29	27
1431.35	32
1432.42	29
1433.49	24
1434.56	24
1435.63	26
1436.69	30
1437.76	26
1438.83	31
1439.9	26
1440.96	26
1442.03	28
1443.1	30
1444.17	24
1445.23	29
1446.3	30
1447.36	26
1448.43	28
1449.49	28
1450.56	29
1451.63	27
1452.69	28
1453.76	27
1454.82	28
1455.89	33
1456.95	29
1458.01	29
1459.08	29
1460.14	21
1461.21	28
1462.27	26
1463.34	24
1464.4	32
1465.46	28
1466.52	30
1467.59	33
1468.65	26
1469.71	24
1470.77	26
1471.84	27
1472.9	23
1473.96	32
1475.02	28
1476.08	28
1477.15	22
1478.21	27
1479.27	30
1480.33	26
1481.39	24
1482.45	30
1483.51	30
1484.57	28
1485.63	25
1486.69	23
1487.75	29
1488.81	29
1489.87	28
1490.93	30
1491.99	26
1493.05	30
1494.1	31
1495.16	26
1496.22	35
1497.28	28
1498.34	30
1499.4	25
1500.45	32
1501.51	29
1502.57	29
1503.63	28
1504.68	31
1505.74	26
1506.8	27
1507.85	26
1508.91	26
1509.97	26
1511.02	24
1512.08	24
1513.13	28
1514.19	28
1515.24	26
1516.3	22
1517.35	28
1518.41	25
1519.46	24
1520.52	31
1521.57	31
1522.63	26
1523.68	24
1524.73	31
1525.79	23
1526.84	32
1527.9	27
1528.95	30
1530	29
1531.05	31
1532.11	27
1533.16	29
1534.21	31
1535.26	33
1536.32	24
1537.37	28
1538.42	22
1539.47	31
1540.52	21
1541.57	28
1542.63	28
1543.68	31
1544.73	28
1545.78	28
1546.83	30
1547.88	25
1548.93	28
1549.98	23
1551.03	26
1552.08	33
1553.13	32
1554.18	23
1555.23	30
1556.27	29
1557.32	28
1558.37	32
1559.42	29
1560.47	29
1561.52	37
1562.56	24
1563.61	29
1564.66	30
1565.71	24
1566.75	26
1567.8	26
1568.85	28
1569.9	30
1570.94	26
1571.99	32
1573.03	25
1574.08	33
1575.13	24
1576.17	26
1577.22	26
1578.26	25
1579.31	30
1580.35	29
1581.4	26
1582.44	30
1583.49	31
1584.53	28
1585.58	29
1586.62	27
1587.66	27
1588.71	25
1589.75	22
1590.8	22
1591.84	24
1592.88	28
1593.92	23
1594.97	27
1596.01	28
1597.05	25
1598.1	32
1599.14	27
1600.18	26
1601.22	26
1602.26	30
1603.3	29
1604.35	21
1605.39	34
1606.43	26
1607.47	30
1608.51	29
1609.55	28
1610.59	30
1611.63	29
1612.67	31
1613.71	24
1614.75	33
1615.79	31
1616.83	27
1617.87	27
1618.91	32
1619.95	30
1620.99	30
1622.02	27
1623.06	29
1624.1	24
1625.14	24
1626.18	26
1627.21	28
1628.25	31
1629.29	27
1630.33	26
1631.36	29
1632.4	24
1633.44	32
1634.48	28
1635.51	30
1636.55	32
1637.58	27
1638.62	26
1639.66	28
1640.69	26
1641.73	27
1642.76	27
1643.8	30
1644.83	31
1645.87	26
1646.9	29
1647.94	28
1648.97	30
1650	28
1651.04	26
1652.07	28
1653.11	23
1654.14	26
1655.17	27
1656.21	30
1657.24	22
1658.27	24
1659.31	30
1660.34	26
1661.37	24
1662.4	26
1663.43	27
1664.47	28
1665.5	24
1666.53	28
1667.56	30
1668.59	28
1669.62	29
1670.66	28
1671.69	24
1672.72	24
1673.75	30
1674.78	24
1675.81	28
1676.84	24
1677.87	24
1678.9	26
1679.93	33
1680.96	27
1681.98	24
1683.01	26
1684.04	28
1685.07	30
1686.1	29
1687.13	27
1688.16	28
1689.18	26
1690.21	24
1691.24	29
1692.27	25
1693.3	29
1694.32	28
1695.35	31
1696.38	28
1697.4	18
1698.43	26
1699.46	26
1700.48	22
1701.51	26
1702.54	27
1703.56	26
1704.59	28
1705.61	26
1706.64	27
1707.66	30
1708.69	28
1709.71	23
1710.74	25
1711.76	32
1712.79	30
1713.81	32
1714.83	28
1715.86	28
1716.88	23
1717.91	24
1718.93	34
1719.95	28
1720.98	30
1722	26
1723.02	32
1724.04	25
1725.07	26
1726.09	28
1727.11	32
1728.13	27
1729.15	31
1730.18	28
1731.2	32
1732.22	28
1733.24	28
1734.26	33
1735.28	27
1736.3	26
1737.32	34
1738.34	24
1739.36	30
1740.38	31
1741.4	26
1742.42	29
1743.44	26
1744.46	28
1745.48	24
1746.5	29
1747.52	22
1748.54	31
1749.56	28
1750.58	31
1751.6	28
1752.61	30
1753.63	26
1754.65	26
1755.67	32
1756.68	33
1757.7	26
1758.72	30
1759.74	30
1760.75	27
1761.77	27
1762.79	28
1763.8	30
1764.82	30
1765.83	22
1766.85	32
1767.87	26
1768.88	28
1769.9	24
1770.91	32
1771.93	30
1772.94	26
1773.96	29
1774.97	27
1775.99	31
1777	27
1778.02	29
1779.03	24
1780.04	22
1781.06	26
1782.07	33
1783.09	30
1784.1	28
1785.11	24
1786.13	26
1787.14	28
1788.15	28
1789.16	26
1790.18	22
1791.19	24
1792.2	33
1793.21	32
1794.22	26
1795.23	30
1796.25	25
1797.26	26
1798.27	26
1799.28	24
1800.29	28
1801.3	26
1802.31	26
1803.32	26
1804.33	22
1805.34	22
1806.35	24
1807.36	29
1808.37	22
1809.38	31
1810.39	30
1811.4	27
1812.41	24
1813.42	30
1814.42	28
1815.43	28
1816.44	30
1817.45	29
1818.46	27
1819.47	25
1820.47	26
1821.48	24
1822.49	26
1823.49	27
1824.5	22
1825.51	30
1826.52	26
1827.52	28
1828.53	28
1829.53	31
1830.54	28
1831.55	24
1832.55	26
1833.56	28
1834.56	32
1835.57	26
1836.57	28
1837.58	28
1838.58	33
1839.59	25
1840.59	30
1841.6	26
1842.6	31
1843.61	28
1844.61	26
1845.61	22
1846.62	31
1847.62	27
1848.62	29
1849.63	30
1850.63	28
1851.63	26
1852.64	30
1853.64	30
1854.64	28
1855.64	31
1856.64	27
1857.65	26
1858.65	26
1859.65	26
1860.65	24
1861.65	31
1862.65	24
1863.65	22
1864.66	28
1865.66	28
1866.66	28
1867.66	26
1868.66	26
1869.66	20
1870.66	29
1871.66	24
1872.66	30
1873.66	28
1874.66	22
1875.65	27
1876.65	26
1877.65	27
1878.65	28
1879.65	28
1880.65	24
1881.65	30
1882.64	27
1883.64	24
1884.64	25
1885.64	23
1886.63	26
1887.63	27
1888.63	30
1889.63	24
1890.62	27
1891.62	27
1892.62	28
1893.61	27
1894.61	26
1895.6	28
1896.6	24
1897.6	24
1898.59	25
1899.59	28
1900.58	28
1901.58	28
1902.57	28
1903.57	30
1904.56	25
1905.56	25
1906.55	29
1907.54	27
1908.54	26
1909.53	27
1910.53	28
1911.52	28
1912.51	27
1913.51	26
1914.5	24
1915.49	28
1916.49	30
1917.48	28
1918.47	32
1919.46	24
1920.46	28
1921.45	30
1922.44	27
1923.43	26
1924.42	26
1925.41	28
1926.41	26
1927.4	28
1928.39	24
1929.38	31
1930.37	26
1931.36	30
1932.35	24
1933.34	26
1934.33	24
1935.32	31
1936.31	27
1937.3	31
1938.29	27
1939.28	27
1940.27	28
1941.26	26
1942.24	26
1943.23	28
1944.22	26
1945.21	23
1946.2	26
1947.19	31
1948.17	25
1949.16	28
1950.15	25
1951.14	22
1952.12	27
1953.11	22
1954.1	27
1955.09	27
1956.07	22
1957.06	29
1958.05	26
1959.03	23
1960.02	31
1961	24
1961.99	26
1962.98	23
1963.96	30
1964.95	25
1965.93	28
1966.92	23
1967.9	26
1968.89	26
1969.87	29
1970.85	29
1971.84	27
1972.82	21
1973.81	28
1974.79	26
1975.78	26
1976.76	29
1977.74	28
1978.73	27
1979.71	27
1980.69	27
1981.67	29
1982.66	31
1983.64	26
1984.62	27
1985.6	28
1986.59	28
1987.57	26
1988.55	22
1989.53	22
1990.51	26
1991.49	26
1992.47	28
1993.45	28
1994.44	30
1995.42	24
1996.4	22
1997.38	26
1998.36	29
1999.34	28
2000.32	24
2001.3	28
2002.28	28
2003.26	23
2004.24	27
2005.22	29
2006.19	30
2007.17	26
2008.15	25
2009.13	26
2010.11	27
2011.09	25
2012.06	25
2013.04	27
2014.02	25
2015	20
2015.98	26
2016.95	23
2017.93	26
2018.91	20
2019.88	30
2020.86	29
2021.84	26
2022.81	24
2023.79	25
2024.77	24
2025.74	26
2026.72	24
2027.69	27
2028.67	22
2029.65	26
2030.62	25
2031.6	28
2032.57	24
2033.55	23
2034.52	22
2035.5	28
2036.47	27
2037.44	30
2038.42	30
2039.39	28
2040.36	23
2041.34	24
2042.31	26
2043.29	28
2044.26	24
2045.23	28
2046.2	28
2047.18	24
2048.15	29
2049.12	32
2050.09	24
2051.07	26
2052.04	24
2053.01	27
2053.98	29
2054.95	26
2055.93	23
2056.9	30
2057.87	23
2058.84	28
2059.81	30
2060.78	27
2061.75	28
2062.72	26
2063.69	28
2064.66	26
2065.63	26
2066.6	21
2067.57	28
2068.54	26
2069.51	26
2070.48	28
2071.45	24
2072.42	24
2073.38	24
2074.35	26
2075.32	30
2076.29	29
2077.26	24
2078.23	29
2079.19	30
2080.16	28
2081.13	22
2082.1	30
2083.06	28
2084.03	30
2085	22
2085.96	27
2086.93	22
2087.9	25
2088.86	27
2089.83	24
2090.8	25
2091.76	22
2092.73	20
2093.69	27
2094.66	24
2095.62	28
2096.59	22
2097.55	26
2098.52	27
2099.48	28
2100.45	24
2101.41	25
2102.38	27
2103.34	26
2104.31	28
2105.27	27
2106.23	23
2107.2	32
2108.16	27
2109.12	26
2110.09	30
2111.05	25
2112.01	28
2112.98	28
2113.94	28
2114.9	25
2115.86	30
2116.82	26
2117.79	30
2118.75	28
2119.71	28
2120.67	25
2121.63	27
2122.59	25
2123.55	25
2124.52	26
2125.48	26
2126.44	25
2127.4	27
2128.36	22
2129.32	24
2130.28	22
2131.24	28
2132.2	28
2133.16	28
2134.12	28
2135.08	28
2136.04	26
2136.99	27
2137.95	22
2138.91	28
2139.87	28
2140.83	27
2141.79	24
2142.75	22
2143.7	31
2144.66	20
2145.62	26.9578
2146.58	23.9813
2147.53	27.0756
2148.49	26.1632
2149.45	26.0815
2150.41	25.9885
2151.36	27.694
2152.32	25.0735
2153.27	24.1574
2154.23	24
2155.19	28.4805
2156.14	21.2208
2157.1	24.6413
2158.06	22.2647
2159.01	27.4536
2159.97	30.8319
2160.92	26.6814
2161.88	19.5405
2162.83	27.4602
2163.79	26.5735
2164.74	28.7989
2165.7	29.3617
2166.65	25.1333
2167.61	25.0784
2168.56	26.2675
2169.51	28.787
2170.47	24.6956
2171.42	28.733
2172.38	32.6281
2173.33	26.915
2174.28	24
2175.24	29.8196
2176.19	24.0207
2177.14	25.9541
2178.09	27.6365
2179.05	25.3646
2180	23.4915
2180.95	28.5294
2181.9	20.3371
2182.86	28.1086
2183.81	26.8925
2184.76	21.4102
2185.71	24.39
2186.66	25.897
2187.61	26
2188.57	26.2212
2189.52	25.3934
2190.47	26.1328
2191.42	25.6358
2192.37	25.2499
2193.32	25.0098
2194.27	24.2789
2195.22	24.2577
2196.17	25.3855
2197.12	24.0948
2198.07	24.8899
2199.02	24.649
2199.97	23.8725
2200.92	23.3928
2201.87	22.4653
2202.82	26.099
2203.76	25.3343
2204.71	27.5271
2205.66	24.6238
2206.61	23.7111
2207.56	25.6089
2208.51	28.2973
2209.45	26.6592
2210.4	22.6622
2211.35	23.8426
2212.3	23.3583
2213.24	22.0201
2214.19	23.8296
2215.14	24.7572
2216.09	25.1308
2217.03	27.3477
2217.98	25.5
2218.93	24.4496
2219.87	23.1539
2220.82	25.1657
2221.77	25.6324
2222.71	25.201
2223.66	23.1634
2224.6	22
2225.55	23.201
2226.49	25.1913
2227.44	22.3481
2228.38	23.2326
2229.33	25.8143
2230.27	27
2231.22	24.7416
2232.16	29.8131
2233.11	27.2324
2234.05	25.3057
2235	26.8462
2235.94	26.9826
2236.88	24.53
2237.83	25.5
2238.77	25.8971
2239.71	27.6757
2240.66	26.0905
2241.6	26.316
2242	28
2242.95	22
2243.9	20
2244.84	32
2245.79	24
2246.74	24
2247.69	26
2248.63	26
2249.58	30
2250.53	24
2251.47	25
2252.42	23
2253.37	18
2254.31	26
2255.26	28
2256.2	19
2257.15	25
2258.1	24
2259.04	27
2259.99	28
2260.93	22
2261.88	26
2262.82	28
2263.77	25
2264.71	22
2265.65	22
2266.6	25
2267.54	24
2268.49	26
2269.43	28
2270.38	21
2271.32	22
2272.26	26
2273.21	29
2274.15	28
2275.09	24
2276.04	18
2276.98	23
2277.92	24
2278.86	25
2279.81	27
2280.75	26
2281.69	30
2282.63	30
2283.57	24
2284.52	27
2285.46	28
2286.4	32
2287.34	28
2288.28	26
2289.22	26
2290.16	24
2291.1	23
2292.04	26
2292.98	28
2293.93	26
2294.86	26
2295.8	26
2296.74	25
2297.69	22
2298.62	28
2299.56	24
2300.5	22
2301.44	26
2302.38	24
2303.32	24
2304.26	24
2305.2	26
2306.14	26
2307.07	27
2308.01	24
2308.95	26
2309.89	23
2310.83	20
2311.76	28
2312.7	24
2313.64	28
2314.58	26
2315.51	28
2316.45	26
2317.39	26
2318.32	25
2319.26	28
2320.2	31
2321.13	27
2322.07	24
2323	24
2323.94	28
2324.88	28
2325.81	25
2326.75	24
2327.68	29
2328.62	33
2329.55	22
2330.49	24
2331.42	25
2332.36	28
2333.29	28
2334.22	20
2335.16	29
2336.09	28
2337.03	32
2337.96	30
2338.89	26
2339.83	29
2340.76	28
2341.69	25
2342.63	24
2343.56	24
2344.49	25
2345.43	26
2346.36	28
2347.29	22
2348.22	27
2349.15	26
2350.09	20
2351.02	27
2351.95	26
2352.88	28
2353.81	28
2354.74	25
2355.67	28
2356.61	26
2357.54	25
2358.47	31
2359.4	26
2360.33	24
2361.26	27
2362.19	26
2363.12	24
2364.05	26
2364.98	31
2365.91	30
2366.84	28
2367.77	26
2368.7	24
2369.62	20
2370.55	24
2371.48	24
2372.41	26
2373.34	28
2374.27	28
2375.2	26
2376.12	24
2377.05	24
2377.98	27
2378.91	22
2379.83	24
2380.76	22
2381.69	26
2382.62	24
2383.54	28
2384.47	26
2385.4	26
2386.32	24
2387.25	20
2388.18	30
2389.1	24
2390.03	24
2390.95	24
2391.88	27
2392.81	27
2393.73	24
2394.66	27
2395.58	29
2396.51	26
2397.43	28
2398.36	27
2399.28	21
2400.2	30
2401.13	24
2402.05	28
2402.98	25
2403.9	24
2404.83	29
2405.75	27
2406.67	23
2407.6	26
2408.52	22
2409.44	24
2410.37	26
2411.29	26
2412.21	27
2413.13	22
2414.06	26
2414.98	28
2415.9	26
2416.82	28
2417.74	26
2418.67	26
2419.59	27
2420.51	24
2421.43	28
2422.35	26
2423.27	30
2424.19	26
2425.11	30
2426.03	28
2426.96	31
2427.88	26
2428.8	26
2429.72	29
2430.64	25
2431.56	30
2432.48	31
2433.39	26
2434.31	26
2435.23	30
2436.15	22
2437.07	25
2437.99	26
2438.91	28
2439.83	28
2440.75	20
2441.67	26
2442.58	22
2443.5	26
2444.42	24
2445.34	25
2446.26	22
2447.17	27
2448.09	26
2449.01	27
2449.92	27
2450.84	26
2451.76	26
2452.68	28
2453.59	24
2454.51	26
2455.42	28
2456.34	28
2457.26	24
2458.17	25
2459.09	23
2460	25
2460.92	26
2461.83	22
2462.75	33
2463.66	26
2464.58	24
2465.49	30
2466.41	26
2467.32	25
2468.24	27
2469.15	27
2470.07	26
2470.98	22
2471.89	24
2472.81	28
2473.72	26
2474.64	29
2475.55	28
2476.46	27
2477.37	23
2478.29	28
2479.2	28
2480.11	23
2481.03	24
2481.94	27
2482.85	29
2483.76	24
2484.67	27
2485.59	28
2486.5	26
2487.41	28
2488.32	24
2489.23	26
2490.14	25
2491.05	25
2491.97	25
2492.88	25
2493.79	26
2494.7	24
2495.61	30
2496.52	26
2497.43	22
2498.34	25
2499.25	22
2500.16	27
2501.07	25
2501.98	29
2502.89	25
2503.79	22
2504.7	27
2505.61	26
2506.52	28
2507.43	24
2508.34	28
2509.25	26
2510.16	26
2511.06	24
2511.97	23
2512.88	25
2513.79	30
2514.69	26
2515.6	24
2516.51	32
2517.42	29
2518.32	22
2519.23	26
2520.14	28
2521.04	22
2521.95	30
2522.86	25
2523.76	24
2524.67	25
2525.57	29
2526.48	32
2527.39	29
2528.29	27
2529.2	26
2530.1	30
2531.01	26
2531.91	27
2532.82	26
2533.72	30
2534.63	27
2535.53	28
2536.44	28
2537.34	28
2538.24	30
2539.15	27
2540.05	28
2540.96	18
2541.86	24
2542.76	22
2543.67	29
2544.57	30
2545.47	26
2546.37	32
2547.28	22
2548.18	27
2549.08	29
2549.99	20
2550.89	28
2551.79	29
2552.69	20
2553.59	31
2554.49	24
2555.4	28
2556.3	30
2557.2	28
2558.1	27
2559	28
2559.9	26
2560.8	24
2561.7	23
2562.6	25
2563.5	26
2564.4	24
2565.3	26
2566.2	31
2567.1	25
2568	28
2568.9	23
2569.8	26
2570.7	26
2571.6	29
2572.5	26
2573.4	22
2574.3	30
2575.2	24
2576.1	28
2576.99	24
2577.89	33
2578.79	27
2579.69	24
2580.59	31
2581.48	27
2582.38	24
2583.28	25
2584.18	24
2585.07	32
2585.97	24
2586.87	22
2587.76	28
2588.66	22
2589.56	30
2590.45	28
2591.35	28
2592.25	28
2593.14	26
2594.04	34
2594.93	25
2595.83	29
2596.73	26
2597.62	28
2598.52	29
2599.41	26
2600.31	24
2601.2	28
2602.1	28
2602.99	27
2603.88	26
2604.78	28
2605.67	30
2606.57	22
2607.46	31
2608.35	29
2609.25	28
2610.14	29
2611.03	22
2611.93	24
2612.82	27
2613.71	28
2614.61	25
2615.5	24
2616.39	26
2617.29	30
2618.18	32
2619.07	31
2619.96	28
2620.85	21
2621.75	24
2622.64	26
2623.53	30
2624.42	20
2625.31	30
2626.2	27
2627.09	26
2627.98	26
2628.88	29
2629.77	20
2630.66	24
2631.55	29
2632.44	26
2633.33	27
2634.22	30
2635.11	24
2636	26
2636.89	31
2637.78	26
2638.66	26
2639.55	34
2640.44	27
2641.33	26
2642.22	31
2643.11	25
2644	29
2644.89	29
2645.78	28
2646.66	31
2647.55	29
2648.44	26
2649.33	24
2650.21	30
2651.1	28
2651.99	25
2652.88	30
2653.76	29
2654.65	28
2655.54	20
2656.42	27
2657.31	28
2658.2	24
2659.08	26
2659.97	25
2660.86	27
2661.74	27
2662.63	28
2663.51	26
2664.4	26
2665.29	29
2666.17	27
2667.06	26
2667.94	28
2668.83	28
2669.71	30
2670.6	26
2671.48	22
2672.36	26
2673.25	24
2674.13	25
2675.02	28
2675.9	28
2676.78	29
2677.67	22
2678.55	23
2679.43	31
2680.32	30
2681.2	27
2682.08	26
2682.97	25
2683.85	28
2684.73	26
2685.61	22
2686.5	26
2687.38	22
2688.26	26
2689.14	21
2690.03	20
2690.91	25
2691.79	29
2692.67	26
2693.55	30
2694.43	28
2695.31	22
2696.19	24
2697.08	30
2697.96	22
2698.84	26
2699.72	25
2700.6	29
2701.48	28
2702.36	28
2703.24	26
2704.12	22
2705	29
2705.88	29
2706.76	26
2707.64	26
2708.51	30
2709.39	27
2710.27	25
2711.15	28
2712.03	28
2712.91	24
2713.79	25
2714.67	28
2715.54	30
2716.42	24
2717.3	24
2718.18	22
2719.05	26
2719.93	30
2720.81	26
2721.69	30
2722.56	28
2723.44	27
2724.32	28
2725.19	27
2726.07	27
2726.95	23
2727.82	26
2728.7	25
2729.58	29
2730.45	27
2731.33	24
2732.2	24
2733.08	31
2733.95	26
2734.83	26
2735.7	26
2736.58	30
2737.45	25
2738.33	24
2739.2	28
2740.08	28
2740.95	26
2741.83	28
2742.7	29
2743.58	24
2744.45	30
2745.32	26
2746.2	20
2747.07	27
2747.94	25
2748.82	28
2749.69	33
2750.56	32
2751.44	30
2752.31	22
2753.18	24
2754.05	29
2754.93	30
2755.8	26
2756.67	28
2757.54	27
2758.42	25
2759.29	29
2760.16	28
2761.03	26
2761.9	28
2762.77	26
2763.64	27
2764.51	27
2765.38	28
2766.26	27
2767.13	20
2768	30
2768.87	26
2769.74	24
2770.61	24
2771.48	28
2772.35	18
2773.22	26
2774.09	29
2774.96	29
2775.83	29
2776.7	29
2777.56	30
2778.43	27
2779.3	32
2780.17	26
2781.04	30
2781.91	22
2782.78	25
2783.64	30
2784.51	32
2785.38	30
2786.25	28
2787.12	28
2787.98	26
2788.85	27
2789.72	28
2790.59	24
2791.45	28
2792.32	27
2793.19	28
2794.05	32
2794.92	28
2795.79	32
2796.65	24
2797.52	26
2798.38	32
2799.25	30
2800.12	24
2800.98	24
2801.85	26
2802.71	32
2803.58	31
2804.44	28
2805.31	24
2806.17	24
2807.04	30
2807.9	28
2808.77	26
2809.63	24
2810.5	28
2811.36	32
2812.22	30
2813.09	32
2813.95	28
2814.82	28
2815.68	30
2816.54	30
2817.41	26
2818.27	30
2819.13	26
2820	26
2820.86	24
2821.72	27
2822.58	24
2823.45	31
2824.31	28
2825.17	30
2826.03	24
2826.9	28
2827.76	27
2828.62	31
2829.48	33
2830.34	27
2831.2	27
2832.06	22
2832.92	27
2833.79	25
2834.65	24
2835.51	30
2836.37	31
2837.23	24
2838.09	27
2838.95	25
2839.81	22
2840.67	28
2841.53	23
2842.39	26
2843.25	28
2844.11	25
2844.97	27
2845.83	26
2846.68	29
2847.54	26
2848.4	30
2849.26	30
2850.12	29
2850.98	28
2851.84	28
2852.69	26
2853.55	26
2854.41	28
2855.27	30
2856.13	28
2856.98	30
2857.84	26
2858.7	28
2859.56	27
2860.41	27
2861.27	34
2862.13	30
2862.98	28
2863.84	33
2864.7	24
2865.55	26
2866.41	26
2867.27	24
2868.12	30
2868.98	31
2869.83	28
2870.69	30
2871.54	30
2872.4	32
2873.25	32
2874.11	27
2874.96	32
2875.82	29
2876.68	30
2877.53	29
2878.38	30
2879.24	30
2880.09	32
2880.95	36
2881.8	33
2882.65	32
2883.51	32
2884.36	32
2885.22	33
2886.07	32
2886.92	33
2887.77	38
2888.63	35
2889.48	30
2890.33	38
2891.19	39
2892.04	37
2892.89	40
2893.74	41
2894.6	38
2895.45	34
2896.3	44
2897.15	44
2898	40
2898.85	44
2899.71	49
2900.56	48
2901.41	48
2902.26	48
2903.11	55
2903.96	42
2904.81	56
2905.66	62
2906.51	61
2907.36	62
2908.21	56
2909.06	56
2909.91	54
2910.76	57
2911.61	49
2912.46	48
2913.31	52
2914.16	47
2915.01	47
2915.86	44
2916.71	40
2917.56	42
2918.41	40
2919.26	40
2920.1	36
2920.95	34
2921.8	31
2922.65	38
2923.5	34
2924.34	32
2925.19	33
2926.04	30
2926.89	30
2927.74	33
2928.58	32
2929.43	24
2930.28	28
2931.12	27
2931.97	26
2932.82	31
2933.66	31
2934.51	27
2935.36	30
2936.2	34
2937.05	34
2937.89	24
2938.74	31
2939.59	28
2940.43	30
2941.28	30
2942.12	30
2942.97	30
2943.81	30
2944.66	24
2945.5	30
2946.35	30
2947.19	28
2948.04	26
2948.88	32
2949.72	28
2950.57	29
2951.41	30
2952.26	31
2953.1	32
2953.94	35
2954.79	30
2955.63	32
2956.47	33
2957.32	32
2958.16	34
2959	37
2959.85	34
2960.69	36
2961.53	34
2962.37	38
2963.22	42
2964.06	38
2964.9	41
2965.74	42
2966.58	43
2967.42	40
2968.27	38
2969.11	41
2969.95	32
2970.79	36
2971.63	41
2972.47	37
2973.31	26
2974.15	37
2974.99	33
2975.83	30
2976.68	39
2977.52	33
2978.36	28
2979.2	30
2980.04	28
2980.88	30
2981.71	27
2982.55	28
2983.39	30
2984.23	32
2985.07	28
2985.91	32
2986.75	30
2987.59	22
2988.43	30
2989.27	28
2990.1	23
2990.94	22
2991.78	25
2992.62	32
2993.46	28
2994.3	31
2995.13	24
2995.97	25
2996.81	26
2997.64	26
2998.48	28
2999.32	29
