#Acq. time (s)=	3
#Accumulations=	3
#Range (cm-¹)=	100...3000
#Windows=	3
#Autofocus=	Off
#AutoExposure=	Off
#Spike filter=	Multiple accum.
#Delay time (s)=	0
#Binning=	1
#Readout mode=	Signal
#DeNoise=	Off
#ICS correction=	Off
#Dark correction=	Off
#Inst. Process=	Off
#Instrument=	LabRAM HR Evol
#Detector=	Syncerity OE
#Objective=	x100_VIS_LWD
#Grating=	600 (500nm)
#ND Filter=	25%
#Laser=	633nm_Edge
#Hole=	100.021
#Range=	Visible
#Project=	Bolus
#Sample=	B3
#Site=	stripside
#Title=	m08
#Remark=	
#Date=	03.11.2025 20:17
#Acquired=	03.11.2025 20:17:51
100.969	26
102.252	30
103.535	34
104.818	28
106.101	29
107.384	32
108.666	32
109.948	26
111.232	28
112.514	30
113.795	22
115.077	33
116.358	32
117.639	31
118.919	32
120.2	34
121.48	30
122.76	28
124.04	34
125.32	29
126.599	36
127.879	31
129.158	35
130.436	36
131.715	32
132.992	34
134.27	32
135.548	33
136.826	37
138.104	39
139.381	34
140.658	28
141.935	38
143.212	30
144.489	41
145.763	31
147.04	31
148.315	34
149.591	34
150.867	28
152.142	36
153.416	40
154.691	32
155.965	39
157.24	35
158.514	39
159.786	36
161.06	39
162.334	36
163.607	37
164.881	35
166.152	39
167.425	41
168.698	36
169.969	37
171.241	39
172.513	32
173.785	37
175.055	32
176.326	38
177.597	34
178.867	36
180.137	41
181.408	38
182.677	40
183.947	36
185.217	37
186.485	40
187.755	37
189.022	38
190.291	42
191.56	45
192.828	36
194.096	39
195.363	36
196.631	36
197.899	36
199.165	35
200.432	38
201.698	41
202.965	42
204.23	35
205.497	34
206.762	35
208.028	40
209.293	32
210.559	31
211.823	37
213.088	30
214.352	34
215.617	34
216.88	31
218.145	30
219.408	36
220.672	34
221.934	34
223.196	34
224.46	36
225.722	33
226.985	32
228.246	32
229.508	30
230.77	30
232.031	32
233.292	30
234.554	29
235.814	31
237.074	33
238.335	26
239.595	29
240.854	28
242.115	34
243.374	33
244.633	34
245.893	30
247.151	31
248.409	32
249.667	26
250.927	28
252.184	28
253.442	34
254.699	24
255.957	32
257.214	31
258.47	34
259.727	30
260.983	26
262.24	28
263.496	35
264.752	32
266.007	28
267.262	33
268.517	34
269.773	33
271.028	32
272.282	31
273.536	32
274.79	31
276.044	28
277.297	26
278.551	25
279.804	34
281.057	35
282.31	32
283.564	30
284.816	32
286.068	28
287.32	31
288.572	32
289.823	30
291.074	28
292.325	26
293.576	29
294.827	32
296.077	30
297.328	30
298.578	28
299.828	29
301.077	31
302.325	30
303.575	27
304.824	28
306.073	29
307.321	30
308.57	28
309.818	26
311.066	24
312.314	26
313.562	27
314.808	32
316.055	32
317.302	31
318.549	26
319.796	31
321.042	28
322.288	35
323.533	33
324.779	29
326.024	26
327.27	26
328.515	33
329.759	30
331.004	35
332.248	32
333.493	32
334.736	22
335.98	28
337.223	28
338.466	31
339.709	26
340.952	28
342.195	32
343.437	29
344.68	30
345.922	31
347.163	29
348.405	28
349.647	31
350.887	26
352.128	32
353.37	36
354.609	28
355.85	30
357.089	32
358.33	32
359.57	32
360.809	34
362.049	29
363.287	31
364.526	28
365.764	28
367.003	26
368.241	32
369.479	30
370.718	31
371.955	34
373.193	28
374.429	36
375.667	31
376.903	35
378.139	24
379.376	29
380.611	24
381.848	32
383.083	31
384.319	31
385.554	27
386.79	30
388.024	32
389.258	30
390.493	30
391.727	33
392.962	33
394.195	28
395.428	28
396.663	30
397.895	32
399.128	26
400.361	30
401.593	30
402.825	30
404.058	29
405.29	32
406.521	30
407.752	31
408.985	30
410.215	32
411.446	28
412.678	29
413.908	30
415.138	32
416.367	29
417.597	28
418.828	32
420.057	29
421.286	31
422.514	24
423.743	27
424.973	31
426.201	31
427.429	26
428.657	28
429.884	28
431.112	28
432.34	32
433.567	33
434.794	30
436.02	34
437.247	35
438.473	23
439.699	32
440.925	30
442.15	30
443.376	29
444.601	36
445.826	30
447.051	29
448.275	34
449.5	36
450.724	24
451.948	30
453.172	34
454.396	26
455.619	30
456.842	32
458.065	30
459.288	29
460.511	22
461.733	33
462.956	26
464.178	29
465.4	36
466.621	34
467.843	36
469.064	38
470.285	32
471.505	34
472.726	38
473.946	34
475.166	34
476.387	37
477.606	42
478.825	48
480.044	48
481.264	37
482.483	41
483.702	48
484.921	46
486.138	48
487.356	55
488.574	57
489.792	48
491.009	50
492.226	48
493.444	50
494.661	44
495.877	46
497.094	42
498.31	46
499.525	36
500.741	37
501.958	43
503.172	42
504.388	36
505.603	36
506.817	38
508.032	30
509.247	35
510.46	33
511.675	32
512.888	38
514.102	31
515.316	34
516.528	30
517.742	36
518.954	34
520.167	35
521.378	31
522.591	26
523.802	31
525.015	33
526.226	30
527.438	36
528.648	31
529.86	27
531.07	33
532.281	31
533.491	34
534.702	27
535.911	33
537.121	34
538.33	31
539.54	30
540.749	33
541.957	34
543.167	32
544.375	24
545.584	31
546.791	32
547.999	32
549.207	30
550.414	35
551.621	32
552.829	30
554.035	28
555.241	26
556.449	34
557.655	29
558.86	26
560.066	30
561.272	36
562.477	30
563.682	31
564.888	31
566.093	30
567.297	32
568.501	29
569.705	28
570.91	31
572.114	31
573.317	31
574.52	34
575.723	34
576.927	32
578.13	28
579.332	30
580.535	31
581.737	32
582.938	30
584.14	32
585.343	30
586.544	31
587.745	30
588.946	26
590.147	34
591.347	26
592.548	29
593.748	34
594.948	31
596.147	31
597.347	30
598.546	30
599.745	30
600.944	31
602.143	26
603.342	31
604.54	35
605.738	28
606.937	29
608.134	30
609.332	31
610.529	33
611.727	32
612.924	30
614.121	29
615.317	27
616.513	33
617.709	32
618.905	32
620.101	30
621.297	34
622.492	32
623.688	38
624.883	30
626.077	34
627.271	22
628.466	28
629.66	32
630.855	32
632.047	28
633.241	32
634.435	32
635.629	30
636.82	32
638.014	22
639.207	29
640.399	26
641.59	26
642.783	29
643.975	32
645.166	35
646.357	36
647.549	30
648.741	28
649.93	34
651.122	36
652.311	33
653.502	32
654.692	30
655.881	30
657.071	34
658.261	31
659.45	28
660.639	28
661.827	32
663.016	26
664.204	27
665.393	35
666.581	34
667.769	28
668.957	28
670.143	36
671.331	35
672.518	32
673.705	32
674.891	32
676.078	37
677.264	37
678.451	31
679.636	32
680.821	30
682.007	28
683.192	32
684.378	30
685.562	40
686.747	32
687.931	34
689.115	36
690.3	36
691.483	30
692.666	30
693.851	36
695.034	37
696.216	36
697.4	34
698.582	40
699.764	42
700.948	37
702.129	34
703.311	37
704.493	44
705.674	38
706.855	41
708.036	46
709.218	52
710.399	45
711.579	40
712.759	46
713.939	40
715.12	37
716.299	39
717.478	38
718.657	31
719.836	35
721.015	32
722.195	34
723.373	32
724.552	35
725.729	26
726.907	28
728.085	30
729.262	29
730.44	26
731.617	33
732.795	36
733.972	30
735.148	33
736.324	34
737.501	27
738.677	29
739.852	27
741.028	26
742.203	34
743.379	29
744.554	29
745.729	28
746.903	32
748.078	32
749.252	32
750.426	26
751.599	33
752.772	30
753.946	29
755.119	33
756.293	32
757.466	29
758.639	29
759.811	30
760.984	30
762.155	28
763.327	30
764.499	28
765.67	28
766.842	28
768.013	36
769.183	28
770.354	31
771.525	30
772.696	29
773.865	32
775.035	31
776.205	30
777.375	35
778.544	30
779.713	28
780.882	28
782.052	33
783.219	33
784.388	33
785.557	28
786.724	34
787.892	34
789.06	35
790.227	30
791.395	32
792.562	34
793.728	34
794.895	32
796.061	30
797.228	29
798.395	30
799.56	32
800.726	30
801.891	32
803.057	30
804.221	33
805.387	30
806.551	34
807.716	22
808.879	31
810.044	24
811.208	34
812.372	28
813.535	32
814.699	33
815.862	30
817.025	30
818.188	28
819.351	31
820.513	30
821.675	29
822.837	32
823.999	28
825.161	34
826.322	32
827.483	27
828.645	27
829.805	28
830.966	36
832.127	29
833.287	26
834.447	33
835.607	31
836.767	31
837.926	32
839.085	26
840.245	30
841.404	29
842.562	24
843.72	30
844.88	32
846.038	28
847.195	28
848.353	36
849.512	28
850.669	32
851.826	27
852.983	24
854.139	32
855.296	31
856.453	34
857.609	27
858.765	30
859.921	29
861.077	30
862.232	32
863.387	34
864.542	26
865.697	31
866.852	32
868.008	29
869.162	32
870.316	34
871.47	31
872.624	32
873.778	28
874.931	34
876.084	30
877.237	30
878.39	29
879.543	26
880.695	30
881.846	26
882.999	33
884.151	28
885.302	33
886.454	32
887.606	32
888.757	28
889.908	30
891.059	29
892.21	28
893.359	24
894.509	34
895.659	30
896.81	24
897.959	32
899.109	31
900.257	22
901.407	26
902.556	32
903.705	28
904.854	25
906.001	32
907.149	22
908.298	22
909.446	30
910.592	31
911.74	34
912.888	30
914.034	30
915.181	29
916.328	30
917.473	26
918.62	30
919.766	30
920.911	27
922.058	28
923.204	30
924.348	26
925.494	29
926.638	28
927.783	27
928.928	31
930.072	31
931.216	28
932.36	28
933.504	24
934.647	26
935.791	30
936.933	27
938.077	30
939.219	30
940.363	33
941.504	30
942.647	25
943.789	28
944.932	33
946.073	30
947.215	26
948.356	26
949.498	24
950.638	28
951.778	33
952.92	30
954.06	25
955.199	32
956.34	29
957.479	32
958.62	28
959.759	29
960.898	32
962.038	28
963.176	22
964.315	29
965.453	28
966.592	34
967.73	28
968.867	27
970.006	24
971.144	26
972.281	27
973.418	29
974.554	31
975.692	26
976.829	28
977.965	24
979.101	27
980.237	32
981.374	29
982.509	27
983.645	31
984.78	31
985.915	29
987.05	31
988.184	30
989.319	28
990.453	27
991.589	29
992.722	29
993.856	30
994.99	24
996.123	28
997.257	26
998.39	28
999.523	28
1000.66	28
1001.79	31
1002.92	31
1004.05	28
1005.18	33
1006.32	31
1007.45	29
1008.58	30
1009.71	29
1010.84	27
1011.97	33
1013.1	24
1014.23	28
1015.36	26
1016.49	28
1017.62	26
1018.75	26
1019.88	31
1021.01	25
1022.14	31
1023.27	22
1024.4	34
1025.53	24
1026.66	26
1027.79	28
1028.91	32
1030.04	26
1031.17	32
1032.3	28
1033.42	26
1034.55	33
1035.68	28
1036.81	26
1037.93	27
1039.06	27
1040.18	30
1041.31	30
1042.44	34
1043.56	30
1044.69	30
1045.81	30
1046.94	26
1048.06	26
1049.19	26
1050.31	26
1051.44	31
1052.56	24
1053.69	24
1054.81	32
1055.93	31
1057.06	30
1058.18	30
1059.3	24
1060.43	20
1061.55	31
1062.67	34
1063.79	28
1064.92	27
1066.04	31
1067.16	32
1068.28	30
1069.4	28
1070.52	30
1071.65	28
1072.77	26
1073.89	26
1075.01	31
1076.13	27
1077.25	25
1078.37	28
1079.49	26
1080.61	23
1081.73	28
1082.85	31
1083.97	22
1085.09	20
1086.2	28
1087.32	28
1088.44	26
1089.56	26
1090.68	26
1091.8	30
1092.91	30
1094.03	24
1095.15	30
1096.26	31
1097.38	28
1098.5	28
1099.61	30
1100.73	26
1101.85	24
1102.96	25
1104.08	27
1105.19	28
1106.31	29
1107.43	28
1108.54	26
1109.66	24
1110.77	33
1111.88	28
1113	28
1114.11	31
1115.23	30
1116.34	28
1117.46	25
1118.57	22
1119.68	30
1120.8	35
1121.91	22
1123.02	32
1124.13	27
1125.25	26
1126.36	21
1127.47	22
1128.58	30
1129.69	26
1130.8	26
1131.92	33
1133.03	26
1134.14	20
1135.25	27
1136.36	28
1137.47	36
1138.58	28
1139.69	24
1140.8	30
1141.91	30
1143.02	25
1144.13	28
1145.24	26
1146.35	29
1147.46	26
1148.56	26
1149.67	32
1150.78	23
1151.89	28
1153	24
1154.1	28
1155.21	29
1156.32	28
1157.43	30
1158.53	26
1159.64	30
1160.75	31
1161.85	30
1162.96	28
1164.07	31
1165.17	30
1166.28	28
1167.38	26
1168.49	32
1169.59	27
1170.7	31
1171.8	28
1172.91	26
1174.01	29
1175.12	24
1176.22	28
1177.32	27
1178.43	24
1179.53	28
1180.64	30
1181.74	28
1182.84	27
1183.94	23
1185.05	26
1186.15	26
1187.25	26
1188.35	26
1189.46	28
1190.56	27
1191.66	26
1192.76	28
1193.86	27
1194.96	30
1196.06	27.9902
1197.16	22.0422
1198.26	29.8667
1199.37	30.8132
1200.47	25.9515
1201.57	24.1176
1202.67	29.0742
1203.77	28.8265
1204.86	27.8541
1205.96	25.7835
1207.06	26.557
1208.16	27.7124
1209.26	26.0685
1210.36	27.998
1211.46	31.3607
1212.56	26.1525
1213.65	27.9157
1214.75	24.6905
1215.85	25.918
1216.95	26.1675
1218.04	25.8143
1219.14	27.6047
1220.24	27.1176
1221.33	27.2901
1222.43	27.8426
1223.53	28.9012
1224.62	24.4716
1225.72	29.1912
1226.82	30.6029
1227.91	28.2969
1229.01	25.9365
1230.1	26.893
1231.2	27.3627
1232.29	24.1168
1233.39	20.9514
1234.48	27.5394
1235.58	26.2841
1236.67	27.4232
1237.77	26.7827
1238.86	28.451
1239.95	25.6998
1241.05	27.2695
1242.14	26.5833
1243.23	26.3101
1244.33	28.815
1245.42	26.7926
1246.51	26.7206
1247.61	26.5639
1248.7	29.5601
1249.79	26.8971
1250.88	27.0098
1251.97	26.4906
1253.07	29.4777
1254.16	27.1159
1255.25	25.7067
1256.34	27.221
1257.43	28.2834
1258.52	25.7794
1259.61	28.3337
1260.7	28.7471
1261.79	27.1925
1262.88	27.3103
1263.97	28.877
1265.06	27.3899
1266.15	26.3292
1267.24	28.1346
1268.33	30.1402
1269.42	28.3461
1270.51	26.611
1271.6	29.1203
1272.68	26.9162
1273.77	24.018
1274.86	26.3148
1275.95	28.2478
1277.04	26.0747
1278.12	24.9128
1279.21	27.5521
1280.3	28.1573
1281.39	30.4181
1282.47	26.3132
1283.56	23.5784
1284.65	24.4235
1285.73	25.4187
1286.82	28.0889
1287.91	26.2823
1288.99	23.8797
1290.08	26.3702
1291.16	23.5211
1292.25	25.4706
1293.33	26.7328
1294.42	26.8712
1295.5	24.7206
1296.59	24.1501
1297.67	22.6326
1298.76	24.2317
1299.84	23.2866
1300.92	30.4287
1302.01	28.7638
1303.09	26
1304.17	26.0735
1305.26	25.8226
1306.34	24.2321
1307.34	27
1308.43	20
1309.52	24
1310.61	29
1311.7	27
1312.78	30
1313.87	21
1314.96	28
1316.04	29
1317.13	24
1318.22	23
1319.3	26
1320.39	29
1321.48	22
1322.56	32
1323.65	23
1324.73	25
1325.82	31
1326.9	28
1327.99	24
1329.07	26
1330.16	26
1331.24	27
1332.33	27
1333.41	22
1334.5	26
1335.58	24
1336.66	26
1337.75	30
1338.83	26
1339.91	28
1341	26
1342.08	27
1343.16	26
1344.24	29
1345.33	29
1346.41	30
1347.49	30
1348.57	24
1349.65	27
1350.74	25
1351.82	31
1352.9	28
1353.98	28
1355.06	28
1356.14	26
1357.22	23
1358.3	30
1359.38	24
1360.46	30
1361.54	22
1362.62	28
1363.7	26
1364.78	29
1365.86	28
1366.94	30
1368.02	18
1369.09	30
1370.17	26
1371.25	25
1372.33	24
1373.41	22
1374.48	28
1375.56	27
1376.64	30
1377.72	28
1378.79	25
1379.87	31
1380.95	30
1382.02	27
1383.1	27
1384.17	30
1385.25	24
1386.33	26
1387.4	28
1388.48	24
1389.55	26
1390.63	30
1391.7	26
1392.78	28
1393.85	23
1394.93	26
1396	30
1397.07	30
1398.15	28
1399.22	28
1400.3	28
1401.37	28
1402.44	34
1403.52	29
1404.59	28
1405.66	29
1406.73	33
1407.81	30
1408.88	31
1409.95	33
1411.02	27
1412.09	30
1413.17	30
1414.24	30
1415.31	35
1416.38	32
1417.45	30
1418.52	28
1419.59	34
1420.66	27
1421.73	28
1422.8	30
1423.87	22
1424.94	25
1426.01	31
1427.08	30
1428.15	26
1429.22	28
1430.29	30
1431.35	28
1432.42	29
1433.49	28
1434.56	28
1435.63	27
1436.69	30
1437.76	28
1438.83	26
1439.9	26
1440.96	26
1442.03	28
1443.1	28
1444.17	34
1445.23	28
1446.3	32
1447.36	25
1448.43	29
1449.49	26
1450.56	29
1451.63	29
1452.69	30
1453.76	32
1454.82	26
1455.89	30
1456.95	24
1458.01	24
1459.08	24
1460.14	30
1461.21	26
1462.27	24
1463.34	28
1464.4	28
1465.46	33
1466.52	30
1467.59	26
1468.65	27
1469.71	25
1470.77	26
1471.84	24
1472.9	31
1473.96	28
1475.02	27
1476.08	32
1477.15	33
1478.21	29
1479.27	22
1480.33	32
1481.39	24
1482.45	31
1483.51	24
1484.57	28
1485.63	25
1486.69	32
1487.75	30
1488.81	24
1489.87	30
1490.93	29
1491.99	24
1493.05	32
1494.1	26
1495.16	29
1496.22	25
1497.28	26
1498.34	30
1499.4	20
1500.45	28
1501.51	28
1502.57	22
1503.63	28
1504.68	26
1505.74	30
1506.8	30
1507.85	30
1508.91	28
1509.97	29
1511.02	26
1512.08	29
1513.13	27
1514.19	28
1515.24	28
1516.3	31
1517.35	29
1518.41	24
1519.46	26
1520.52	28
1521.57	26
1522.63	28
1523.68	26
1524.73	28
1525.79	26
1526.84	30
1527.9	26
1528.95	26
1530	28
1531.05	29
1532.11	26
1533.16	30
1534.21	26
1535.26	26
1536.32	28
1537.37	29
1538.42	28
1539.47	26
1540.52	24
1541.57	24
1542.63	32
1543.68	22
1544.73	26
1545.78	32
1546.83	22
1547.88	27
1548.93	28
1549.98	26
1551.03	28
1552.08	28
1553.13	24
1554.18	31
1555.23	27
1556.27	28
1557.32	26
1558.37	26
1559.42	29
1560.47	28
1561.52	22
1562.56	26
1563.61	30
1564.66	24
1565.71	22
1566.75	26
1567.8	26
1568.85	28
1569.9	34
1570.94	25
1571.99	26
1573.03	28
1574.08	28
1575.13	30
1576.17	30
1577.22	28
1578.26	29
1579.31	32
1580.35	27
1581.4	30
1582.44	31
1583.49	27
1584.53	25
1585.58	31
1586.62	33
1587.66	24
1588.71	28
1589.75	30
1590.8	24
1591.84	20
1592.88	27
1593.92	25
1594.97	28
1596.01	28
1597.05	30
1598.1	32
1599.14	22
1600.18	30
1601.22	25
1602.26	29
1603.3	29
1604.35	29
1605.39	24
1606.43	22
1607.47	24
1608.51	26
1609.55	30
1610.59	28
1611.63	24
1612.67	30
1613.71	26
1614.75	22
1615.79	27
1616.83	24
1617.87	26
1618.91	25
1619.95	27
1620.99	28
1622.02	33
1623.06	29
1624.1	28
1625.14	28
1626.18	29
1627.21	30
1628.25	28
1629.29	24
1630.33	32
1631.36	30
1632.4	26
1633.44	30
1634.48	34
1635.51	28
1636.55	27
1637.58	30
1638.62	28
1639.66	26
1640.69	29
1641.73	24
1642.76	30
1643.8	28
1644.83	30
1645.87	30
1646.9	26
1647.94	25
1648.97	30
1650	29
1651.04	28
1652.07	25
1653.11	27
1654.14	29
1655.17	28
1656.21	26
1657.24	27
1658.27	29
1659.31	33
1660.34	26
1661.37	24
1662.4	28
1663.43	27
1664.47	26
1665.5	26
1666.53	30
1667.56	28
1668.59	31
1669.62	26
1670.66	28
1671.69	30
1672.72	27
1673.75	28
1674.78	30
1675.81	26
1676.84	22
1677.87	27
1678.9	24
1679.93	22
1680.96	27
1681.98	29
1683.01	31
1684.04	29
1685.07	24
1686.1	28
1687.13	29
1688.16	29
1689.18	28
1690.21	29
1691.24	27
1692.27	28
1693.3	30
1694.32	28
1695.35	27
1696.38	28
1697.4	25
1698.43	22
1699.46	28
1700.48	25
1701.51	25
1702.54	26
1703.56	26
1704.59	29
1705.61	28
1706.64	31
1707.66	26
1708.69	30
1709.71	30
1710.74	35
1711.76	24
1712.79	28
1713.81	27
1714.83	27
1715.86	24
1716.88	27
1717.91	31
1718.93	31
1719.95	26
1720.98	32
1722	32
1723.02	29
1724.04	26
1725.07	28
1726.09	21
1727.11	30
1728.13	26
1729.15	28
1730.18	28
1731.2	27
1732.22	22
1733.24	25
1734.26	33
1735.28	30
1736.3	27
1737.32	29
1738.34	20
1739.36	27
1740.38	26
1741.4	30
1742.42	32
1743.44	27
1744.46	24
1745.48	29
1746.5	26
1747.52	31
1748.54	22
1749.56	29
1750.58	31
1751.6	28
1752.61	24
1753.63	30
1754.65	29
1755.67	28
1756.68	28
1757.7	28
1758.72	27
1759.74	31
1760.75	30
1761.77	30
1762.79	24
1763.8	30
1764.82	30
1765.83	30
1766.85	28
1767.87	34
1768.88	25
1769.9	31
1770.91	27
1771.93	26
1772.94	26
1773.96	27
1774.97	26
1775.99	27
1777	28
1778.02	30
1779.03	29
1780.04	27
1781.06	22
1782.07	27
1783.09	27
1784.1	29
1785.11	30
1786.13	28
1787.14	26
1788.15	29
1789.16	27
1790.18	32
1791.19	28
1792.2	30
1793.21	32
1794.22	31
1795.23	24
1796.25	28
1797.26	29
1798.27	28
1799.28	24
1800.29	31
1801.3	26
1802.31	26
1803.32	28
1804.33	26
1805.34	30
1806.35	28
1807.36	27
1808.37	25
1809.38	28
1810.39	24
1811.4	27
1812.41	25
1813.42	34
1814.42	28
1815.43	26
1816.44	24
1817.45	29
1818.46	27
1819.47	29
1820.47	24
1821.48	29
1822.49	26
1823.49	30
1824.5	28
1825.51	24
1826.52	28
1827.52	26
1828.53	28
1829.53	20
1830.54	29
1831.55	28
1832.55	28
1833.56	28
1834.56	30
1835.57	23
1836.57	34
1837.58	28
1838.58	30
1839.59	27
1840.59	28
1841.6	26
1842.6	24
1843.61	24
1844.61	23
1845.61	28
1846.62	24
1847.62	25
1848.62	26
1849.63	28
1850.63	27
1851.63	31
1852.64	33
1853.64	28
1854.64	29
1855.64	30
1856.64	31
1857.65	26
1858.65	27
1859.65	29
1860.65	28
1861.65	27
1862.65	28
1863.65	30
1864.66	29
1865.66	30
1866.66	26
1867.66	27
1868.66	27
1869.66	26
1870.66	22
1871.66	26
1872.66	32
1873.66	26
1874.66	24
1875.65	25
1876.65	27
1877.65	32
1878.65	29
1879.65	28
1880.65	28
1881.65	29
1882.64	30
1883.64	28
1884.64	29
1885.64	27
1886.63	28
1887.63	28
1888.63	28
1889.63	28
1890.62	28
1891.62	28
1892.62	30
1893.61	28
1894.61	29
1895.6	27
1896.6	27
1897.6	24
1898.59	29
1899.59	22
1900.58	24
1901.58	29
1902.57	24
1903.57	28
1904.56	33
1905.56	30
1906.55	27
1907.54	29
1908.54	31
1909.53	26
1910.53	21
1911.52	24
1912.51	26
1913.51	26
1914.5	25
1915.49	14
1916.49	24
1917.48	27
1918.47	26
1919.46	24
1920.46	26
1921.45	26
1922.44	28
1923.43	25
1924.42	30
1925.41	27
1926.41	31
1927.4	26
1928.39	29
1929.38	22
1930.37	27
1931.36	33
1932.35	29
1933.34	32
1934.33	32
1935.32	31
1936.31	29
1937.3	24
1938.29	32
1939.28	26
1940.27	18
1941.26	29
1942.24	24
1943.23	31
1944.22	24
1945.21	28
1946.2	27
1947.19	30
1948.17	22
1949.16	28
1950.15	28
1951.14	24
1952.12	28
1953.11	26
1954.1	26
1955.09	23
1956.07	27
1957.06	31
1958.05	27
1959.03	28
1960.02	31
1961	27
1961.99	30
1962.98	24
1963.96	26
1964.95	28
1965.93	29
1966.92	26
1967.9	22
1968.89	20
1969.87	24
1970.85	27
1971.84	24
1972.82	34
1973.81	24
1974.79	25
1975.78	26
1976.76	28
1977.74	30
1978.73	28
1979.71	28
1980.69	28
1981.67	26
1982.66	32
1983.64	32
1984.62	23
1985.6	30
1986.59	28
1987.57	26
1988.55	26
1989.53	24
1990.51	22
1991.49	28
1992.47	26
1993.45	29
1994.44	24
1995.42	27
1996.4	26
1997.38	26
1998.36	28
1999.34	24
2000.32	25
2001.3	26
2002.28	30
2003.26	26
2004.24	29
2005.22	29
2006.19	30
2007.17	32
2008.15	24
2009.13	26
2010.11	28
2011.09	23
2012.06	26
2013.04	26
2014.02	27
2015	25
2015.98	29
2016.95	26
2017.93	25
2018.91	29
2019.88	27
2020.86	28
2021.84	23
2022.81	24
2023.79	32
2024.77	20
2025.74	20
2026.72	26
2027.69	26
2028.67	26
2029.65	27
2030.62	28
2031.6	29
2032.57	26
2033.55	26
2034.52	22
2035.5	23
2036.47	26
2037.44	26
2038.42	32
2039.39	27
2040.36	27
2041.34	24
2042.31	24
2043.29	26
2044.26	30
2045.23	30
2046.2	22
2047.18	24
2048.15	26
2049.12	22
2050.09	30
2051.07	24
2052.04	22
2053.01	25
2053.98	28
2054.95	25
2055.93	29
2056.9	26
2057.87	26
2058.84	22
2059.81	30
2060.78	27
2061.75	25
2062.72	28
2063.69	28
2064.66	24
2065.63	26
2066.6	28
2067.57	24
2068.54	24
2069.51	25
2070.48	24
2071.45	24
2072.42	28
2073.38	24
2074.35	19
2075.32	25
2076.29	28
2077.26	30
2078.23	27
2079.19	29
2080.16	28
2081.13	24
2082.1	22
2083.06	28
2084.03	25
2085	28
2085.96	26
2086.93	26
2087.9	26
2088.86	27
2089.83	24
2090.8	31
2091.76	18
2092.73	32
2093.69	26
2094.66	26
2095.62	30
2096.59	24
2097.55	27
2098.52	30
2099.48	24
2100.45	24
2101.41	26
2102.38	26
2103.34	28
2104.31	20
2105.27	28
2106.23	22
2107.2	27
2108.16	24
2109.12	27
2110.09	26
2111.05	28
2112.01	25
2112.98	26
2113.94	27
2114.9	26
2115.86	29
2116.82	24
2117.79	26
2118.75	28
2119.71	27
2120.67	29
2121.63	30
2122.59	28
2123.55	27
2124.52	28
2125.48	26
2126.44	28
2127.4	30
2128.36	28
2129.32	26
2130.28	25
2131.24	30
2132.2	26
2133.16	23
2134.12	22
2135.08	24
2136.04	18
2136.99	29
2137.95	24
2138.91	23
2139.87	28
2140.83	25
2141.79	23
2142.75	28
2143.7	24
2144.66	23
2145.62	22.0266
2146.58	26.9358
2147.53	28.0182
2148.49	27.9258
2149.45	24.9728
2150.41	25.1965
2151.36	26.8257
2152.32	27.9734
2153.27	20.1806
2154.23	29.5392
2155.19	25.0982
2156.14	25.8826
2157.1	24.0135
2158.06	21.7778
2159.01	22.1385
2159.97	24.5603
2160.92	27.8183
2161.88	24.8045
2162.83	26.915
2163.79	24.1912
2164.74	26.3991
2165.7	25.006
2166.65	24.873
2167.61	27.7742
2168.56	26.2402
2169.51	26.25
2170.47	24.5285
2171.42	27.6736
2172.38	25.4412
2173.33	23.4503
2174.28	24.3857
2175.24	28.1284
2176.19	26.5543
2177.14	28.3661
2178.09	24.7017
2179.05	27.9227
2180	22.9562
2180.95	28.0923
2181.9	25.5502
2182.86	27.7154
2183.81	23.2895
2184.76	25.9519
2185.71	27.0483
2186.66	24.1544
2187.61	23.6013
2188.57	19.6673
2189.52	22.6944
2190.47	23.1373
2191.42	21.2869
2192.37	29.4854
2193.32	25.2996
2194.27	25.649
2195.22	22.5441
2196.17	26.73
2197.12	24.337
2198.07	24.6806
2199.02	26.1036
2199.97	26.8351
2200.92	25.7733
2201.87	24.5555
2202.82	23.7529
2203.76	25.898
2204.71	24.9239
2205.66	24.2117
2206.61	22.3304
2207.56	22.776
2208.51	28.075
2209.45	26.3088
2210.4	23.7063
2211.35	24.7255
2212.3	22.9277
2213.24	22.2264
2214.19	19.7537
2215.14	24.05
2216.09	24.7434
2217.03	24.7984
2217.98	23.8698
2218.93	23.07
2219.87	26.3835
2220.82	28.0993
2221.77	22.3812
2222.71	24.4704
2223.66	24.2767
2224.6	25.0954
2225.55	24.4853
2226.49	27.3825
2227.44	22.3563
2228.38	23.6264
2229.33	24.614
2230.27	28.753
2231.22	28.5002
2232.16	28.0511
2233.11	24.6486
2234.05	25.181
2235	28.7104
2235.94	23.7661
2236.88	24.9095
2237.83	26.7647
2238.77	27.1144
2239.71	25.7494
2240.66	23.3946
2241.6	24.7541
2242	26
2242.95	22
2243.9	23
2244.84	26
2245.79	29
2246.74	23
2247.69	26
2248.63	29
2249.58	24
2250.53	32
2251.47	23
2252.42	29
2253.37	26
2254.31	20
2255.26	24
2256.2	24
2257.15	26
2258.1	28
2259.04	23
2259.99	25
2260.93	28
2261.88	28
2262.82	24
2263.77	26
2264.71	25
2265.65	20
2266.6	24
2267.54	24
2268.49	17
2269.43	26
2270.38	27
2271.32	26
2272.26	27
2273.21	27
2274.15	29
2275.09	23
2276.04	26
2276.98	23
2277.92	24
2278.86	25
2279.81	22
2280.75	22
2281.69	27
2282.63	27
2283.57	26
2284.52	29
2285.46	25
2286.4	22
2287.34	24
2288.28	22
2289.22	30
2290.16	28
2291.1	27
2292.04	25
2292.98	24
2293.93	25
2294.86	27
2295.8	20
2296.74	26
2297.69	24
2298.62	22
2299.56	24
2300.5	27
2301.44	29
2302.38	25
2303.32	26
2304.26	25
2305.2	25
2306.14	26
2307.07	22
2308.01	26
2308.95	26
2309.89	29
2310.83	27
2311.76	26
2312.7	26
2313.64	29
2314.58	25
2315.51	25
2316.45	24
2317.39	24
2318.32	26
2319.26	24
2320.2	24
2321.13	23
2322.07	31
2323	21
2323.94	24
2324.88	31
2325.81	25
2326.75	28
2327.68	30
2328.62	21
2329.55	22
2330.49	28
2331.42	24
2332.36	28
2333.29	28
2334.22	28
2335.16	27
2336.09	22
2337.03	26
2337.96	29
2338.89	26
2339.83	24
2340.76	26
2341.69	26
2342.63	21
2343.56	22
2344.49	21
2345.43	26
2346.36	26
2347.29	24
2348.22	25
2349.15	22
2350.09	26
2351.02	24
2351.95	26
2352.88	28
2353.81	26
2354.74	26
2355.67	26
2356.61	24
2357.54	22
2358.47	24
2359.4	22
2360.33	27
2361.26	20
2362.19	30
2363.12	31
2364.05	27
2364.98	26
2365.91	31
2366.84	28
2367.77	27
2368.7	27
2369.62	24
2370.55	23
2371.48	28
2372.41	28
2373.34	26
2374.27	29
2375.2	23
2376.12	25
2377.05	23
2377.98	32
2378.91	23
2379.83	23
2380.76	22
2381.69	31
2382.62	26
2383.54	28
2384.47	26
2385.4	25
2386.32	25
2387.25	26
2388.18	30
2389.1	28
2390.03	28
2390.95	27
2391.88	25
2392.81	22
2393.73	28
2394.66	22
2395.58	26
2396.51	22
2397.43	27
2398.36	20
2399.28	31
2400.2	20
2401.13	30
2402.05	27
2402.98	27
2403.9	24
2404.83	26
2405.75	18
2406.67	24
2407.6	24
2408.52	27
2409.44	29
2410.37	24
2411.29	25
2412.21	25
2413.13	26
2414.06	24
2414.98	30
2415.9	26
2416.82	29
2417.74	26
2418.67	30
2419.59	29
2420.51	29
2421.43	26
2422.35	28
2423.27	20
2424.19	25
2425.11	26
2426.03	33
2426.96	22
2427.88	30
2428.8	24
2429.72	29
2430.64	27
2431.56	26
2432.48	26
2433.39	27
2434.31	26
2435.23	30
2436.15	27
2437.07	25
2437.99	22
2438.91	24
2439.83	30
2440.75	33
2441.67	27
2442.58	25
2443.5	34
2444.42	26
2445.34	32
2446.26	26
2447.17	24
2448.09	23
2449.01	28
2449.92	30
2450.84	24
2451.76	32
2452.68	27
2453.59	25
2454.51	25
2455.42	26
2456.34	24
2457.26	28
2458.17	26
2459.09	25
2460	27
2460.92	20
2461.83	27
2462.75	24
2463.66	21
2464.58	24
2465.49	30
2466.41	25
2467.32	23
2468.24	33
2469.15	24
2470.07	29
2470.98	32
2471.89	23
2472.81	28
2473.72	26
2474.64	25
2475.55	26
2476.46	23
2477.37	24
2478.29	32
2479.2	30
2480.11	24
2481.03	26
2481.94	32
2482.85	29
2483.76	30
2484.67	28
2485.59	28
2486.5	26
2487.41	28
2488.32	30
2489.23	26
2490.14	22
2491.05	24
2491.97	22
2492.88	24
2493.79	30
2494.7	26
2495.61	24
2496.52	28
2497.43	28
2498.34	26
2499.25	26
2500.16	24
2501.07	30
2501.98	22
2502.89	28
2503.79	23
2504.7	20
2505.61	25
2506.52	26
2507.43	28
2508.34	26
2509.25	30
2510.16	26
2511.06	28
2511.97	27
2512.88	27
2513.79	26
2514.69	21
2515.6	27
2516.51	28
2517.42	24
2518.32	29
2519.23	27
2520.14	27
2521.04	26
2521.95	27
2522.86	27
2523.76	31
2524.67	24
2525.57	28
2526.48	28
2527.39	27
2528.29	29
2529.2	30
2530.1	25
2531.01	28
2531.91	28
2532.82	24
2533.72	31
2534.63	24
2535.53	29
2536.44	30
2537.34	30
2538.24	23
2539.15	24
2540.05	26
2540.96	31
2541.86	30
2542.76	26
2543.67	31
2544.57	30
2545.47	28
2546.37	26
2547.28	27
2548.18	24
2549.08	24
2549.99	28
2550.89	25
2551.79	31
2552.69	27
2553.59	22
2554.49	27
2555.4	26
2556.3	26
2557.2	29
2558.1	23
2559	30
2559.9	29
2560.8	26
2561.7	27
2562.6	28
2563.5	23
2564.4	25
2565.3	28
2566.2	27
2567.1	28
2568	29
2568.9	31
2569.8	24
2570.7	30
2571.6	26
2572.5	31
2573.4	27
2574.3	26
2575.2	27
2576.1	24
2576.99	29
2577.89	33
2578.79	28
2579.69	34
2580.59	25
2581.48	30
2582.38	27
2583.28	29
2584.18	30
2585.07	26
2585.97	20
2586.87	29
2587.76	29
2588.66	30
2589.56	31
2590.45	28
2591.35	22
2592.25	28
2593.14	26
2594.04	29
2594.93	28
2595.83	26
2596.73	22
2597.62	31
2598.52	28
2599.41	29
2600.31	24
2601.2	16
2602.1	29
2602.99	26
2603.88	28
2604.78	30
2605.67	32
2606.57	24
2607.46	28
2608.35	32
2609.25	24
2610.14	30
2611.03	20
2611.93	30
2612.82	20
2613.71	26
2614.61	22
2615.5	28
2616.39	30
2617.29	29
2618.18	22
2619.07	24
2619.96	28
2620.85	28
2621.75	28
2622.64	29
2623.53	20
2624.42	24
2625.31	24
2626.2	32
2627.09	28
2627.98	26
2628.88	26
2629.77	24
2630.66	24
2631.55	24
2632.44	30
2633.33	26
2634.22	26
2635.11	30
2636	24
2636.89	27
2637.78	27
2638.66	27
2639.55	25
2640.44	24
2641.33	29
2642.22	31
2643.11	28
2644	26
2644.89	26
2645.78	30
2646.66	28
2647.55	22
2648.44	26
2649.33	27
2650.21	32
2651.1	27
2651.99	30
2652.88	29
2653.76	22
2654.65	22
2655.54	22
2656.42	23
2657.31	26
2658.2	26
2659.08	29
2659.97	27
2660.86	28
2661.74	28
2662.63	29
2663.51	23
2664.4	28
2665.29	22
2666.17	24
2667.06	26
2667.94	28
2668.83	27
2669.71	28
2670.6	29
2671.48	25
2672.36	30
2673.25	27
2674.13	28
2675.02	25
2675.9	24
2676.78	24
2677.67	28
2678.55	32
2679.43	26
2680.32	26
2681.2	30
2682.08	26
2682.97	28
2683.85	33
2684.73	28
2685.61	26
2686.5	28
2687.38	27
2688.26	26
2689.14	26
2690.03	26
2690.91	27
2691.79	23
2692.67	28
2693.55	24
2694.43	24
2695.31	26
2696.19	29
2697.08	30
2697.96	26
2698.84	30
2699.72	29
2700.6	28
2701.48	28
2702.36	28
2703.24	30
2704.12	29
2705	28
2705.88	35
2706.76	26
2707.64	31
2708.51	29
2709.39	25
2710.27	24
2711.15	30
2712.03	29
2712.91	24
2713.79	31
2714.67	29
2715.54	28
2716.42	26
2717.3	27
2718.18	26
2719.05	28
2719.93	27
2720.81	26
2721.69	30
2722.56	32
2723.44	28
2724.32	30
2725.19	30
2726.07	20
2726.95	23
2727.82	31
2728.7	26
2729.58	25
2730.45	32
2731.33	28
2732.2	28
2733.08	26
2733.95	28
2734.83	26
2735.7	26
2736.58	28
2737.45	29
2738.33	27
2739.2	22
2740.08	29
2740.95	22
2741.83	26
2742.7	25
2743.58	26
2744.45	31
2745.32	26
2746.2	26
2747.07	28
2747.94	25
2748.82	29
2749.69	25
2750.56	29
2751.44	25
2752.31	28
2753.18	27
2754.05	28
2754.93	24
2755.8	28
2756.67	24
2757.54	27
2758.42	22
2759.29	26
2760.16	22
2761.03	27
2761.9	23
2762.77	25
2763.64	22
2764.51	26
2765.38	27
2766.26	30
2767.13	24
2768	26
2768.87	32
2769.74	26
2770.61	30
2771.48	31
2772.35	20
2773.22	22
2774.09	30
2774.96	26
2775.83	28
2776.7	24
2777.56	25
2778.43	26
2779.3	26
2780.17	22
2781.04	27
2781.91	24
2782.78	26
2783.64	30
2784.51	24
2785.38	31
2786.25	29
2787.12	26
2787.98	25
2788.85	30
2789.72	25
2790.59	28
2791.45	28
2792.32	26
2793.19	30
2794.05	32
2794.92	32
2795.79	28
2796.65	24
2797.52	31
2798.38	28
2799.25	32
2800.12	25
2800.98	29
2801.85	30
2802.71	22
2803.58	25
2804.44	28
2805.31	26
2806.17	26
2807.04	20
2807.9	25
2808.77	32
2809.63	24
2810.5	29
2811.36	22
2812.22	29
2813.09	27
2813.95	28
2814.82	28
2815.68	24
2816.54	27
2817.41	26
2818.27	31
2819.13	26
2820	25
2820.86	27
2821.72	30
2822.58	25
2823.45	26
2824.31	27
2825.17	26
2826.03	27
2826.9	26
2827.76	34
2828.62	28
2829.48	28
2830.34	30
2831.2	32
2832.06	31
2832.92	30
2833.79	30
2834.65	28
2835.51	28
2836.37	25
2837.23	28
2838.09	29
2838.95	32
2839.81	27
2840.67	26
2841.53	27
2842.39	26
2843.25	28
2844.11	28
2844.97	28
2845.83	27
2846.68	24
2847.54	28
2848.4	29
2849.26	21
2850.12	18
2850.98	27
2851.84	28
2852.69	30
2853.55	26
2854.41	27
2855.27	28
2856.13	25
2856.98	26
2857.84	29
2858.7	26
2859.56	29
2860.41	30
2861.27	28
2862.13	29
2862.98	26
2863.84	26
2864.7	26
2865.55	34
2866.41	30
2867.27	26
2868.12	31
2868.98	26
2869.83	30
2870.69	26
2871.54	32
2872.4	30
2873.25	32
2874.11	28
2874.96	32
2875.82	34
2876.68	33
2877.53	29
2878.38	35
2879.24	34
2880.09	26
2880.95	32
2881.8	38
2882.65	31
2883.51	32
2884.36	32
2885.22	31
2886.07	37
2886.92	28
2887.77	35
2888.63	30
2889.48	32
2890.33	36
2891.19	34
2892.04	37
2892.89	36
2893.74	40
2894.6	44
2895.45	39
2896.3	42
2897.15	44
2898	47
2898.85	46
2899.71	42
2900.56	51
2901.41	52
2902.26	49
2903.11	47
2903.96	58
2904.81	54
2905.66	59
2906.51	40
2907.36	55
2908.21	53
2909.06	59
2909.91	54
2910.76	57
2911.61	51
2912.46	46
2913.31	46
2914.16	45
2915.01	43
2915.86	38
2916.71	39
2917.56	40
2918.41	44
2919.26	34
2920.1	39
2920.95	35
2921.8	35
2922.65	35
2923.5	32
2924.34	33
2925.19	34
2926.04	32
2926.89	20
2927.74	36
2928.58	32
2929.43	32
2930.28	33
2931.12	32
2931.97	31
2932.82	34
2933.66	28
2934.51	29
2935.36	26
2936.2	32
2937.05	30
2937.89	30
2938.74	32
2939.59	24
2940.43	27
2941.28	24
2942.12	34
2942.97	32
2943.81	30
2944.66	24
2945.5	30
2946.35	28
2947.19	28
2948.04	28
2948.88	29
2949.72	32
2950.57	28
2951.41	30
2952.26	32
2953.1	31
2953.94	32
2954.79	33
2955.63	31
2956.47	35
2957.32	35
2958.16	33
2959	37
2959.85	34
2960.69	35
2961.53	40
2962.37	37
2963.22	37
2964.06	38
2964.9	36
2965.74	41
2966.58	41
2967.42	40
2968.27	39
2969.11	34
2969.95	34
2970.79	32
2971.63	35
2972.47	38
2973.31	31
2974.15	31
2974.99	34
2975.83	33
2976.68	30
2977.52	29
2978.36	30
2979.2	28
2980.04	32
2980.88	28
2981.71	28
2982.55	30
2983.39	35
2984.23	24
2985.07	28
2985.91	28
2986.75	28
2987.59	16
2988.43	29
2989.27	28
2990.1	29
2990.94	26
2991.78	30
2992.62	23
2993.46	27
2994.3	26
2995.13	22
2995.97	30
2996.81	27
2997.64	27
2998.48	22
2999.32	27
