#Acq. time (s)=	3
#Accumulations=	3
#Range (cm-¹)=	100...3000
#Windows=	3
#Autofocus=	Off
#AutoExposure=	Off
#Spike filter=	Multiple accum.
#Delay time (s)=	0
#Binning=	1
#Readout mode=	Signal
#DeNoise=	Off
#ICS correction=	Off
#Dark correction=	Off
#Inst. Process=	Off
#Instrument=	LabRAM HR Evol
#Detector=	Syncerity OE
#Objective=	x100_VIS_LWD
#Grating=	600 (500nm)
#ND Filter=	25%
#Laser=	633nm_Edge
#Hole=	100.021
#Range=	Visible
#Project=	Bolus
#Sample=	B3
#Site=	stripside
#Title=	m09
#Remark=	
#Date=	03.11.2025 20:19
#Acquired=	03.11.2025 20:19:11
100.969	28
102.252	31
103.535	31
104.818	28
106.101	30
107.384	34
108.666	32
109.948	30
111.232	33
112.514	30
113.795	36
115.077	34
116.358	30
117.639	32
118.919	27
120.2	34
121.48	33
122.76	36
124.04	36
125.32	34
126.599	31
127.879	38
129.158	41
130.436	28
131.715	38
132.992	36
134.27	31
135.548	36
136.826	30
138.104	39
139.381	35
140.658	32
141.935	44
143.212	34
144.489	37
145.763	38
147.04	30
148.315	42
149.591	42
150.867	36
152.142	39
153.416	44
154.691	38
155.965	36
157.24	36
158.514	36
159.786	38
161.06	46
162.334	38
163.607	46
164.881	44
166.152	40
167.425	41
168.698	32
169.969	38
171.241	42
172.513	38
173.785	36
175.055	33
176.326	34
177.597	37
178.867	35
180.137	40
181.408	39
182.677	42
183.947	43
185.217	41
186.485	44
187.755	37
189.022	46
190.291	36
191.56	47
192.828	34
194.096	41
195.363	40
196.631	43
197.899	38
199.165	37
200.432	36
201.698	34
202.965	37
204.23	34
205.497	37
206.762	32
208.028	38
209.293	32
210.559	36
211.823	43
213.088	32
214.352	34
215.617	34
216.88	34
218.145	33
219.408	30
220.672	36
221.934	32
223.196	37
224.46	36
225.722	32
226.985	28
228.246	34
229.508	29
230.77	35
232.031	33
233.292	26
234.554	33
235.814	28
237.074	32
238.335	31
239.595	33
240.854	36
242.115	25
243.374	27
244.633	29
245.893	30
247.151	33
248.409	28
249.667	38
250.927	30
252.184	29
253.442	36
254.699	36
255.957	30
257.214	28
258.47	28
259.727	32
260.983	28
262.24	33
263.496	28
264.752	30
266.007	32
267.262	30
268.517	30
269.773	31
271.028	34
272.282	29
273.536	29
274.79	28
276.044	30
277.297	34
278.551	31
279.804	35
281.057	33
282.31	31
283.564	28
284.816	26
286.068	32
287.32	29
288.572	31
289.823	29
291.074	28
292.325	30
293.576	28
294.827	30
296.077	24
297.328	29
298.578	32
299.828	33
301.077	30
302.325	30
303.575	28
304.824	31
306.073	32
307.321	32
308.57	26
309.818	33
311.066	28
312.314	30
313.562	26
314.808	28
316.055	32
317.302	31
318.549	32
319.796	26
321.042	30
322.288	33
323.533	26
324.779	32
326.024	30
327.27	30
328.515	28
329.759	31
331.004	32
332.248	32
333.493	29
334.736	30
335.98	28
337.223	34
338.466	30
339.709	31
340.952	30
342.195	30
343.437	31
344.68	24
345.922	32
347.163	28
348.405	28
349.647	32
350.887	31
352.128	32
353.37	22
354.609	31
355.85	29
357.089	31
358.33	28
359.57	32
360.809	32
362.049	30
363.287	29
364.526	32
365.764	28
367.003	30
368.241	36
369.479	26
370.718	29
371.955	31
373.193	28
374.429	29
375.667	33
376.903	34
378.139	30
379.376	33
380.611	34
381.848	31
383.083	29
384.319	28
385.554	28
386.79	30
388.024	34
389.258	32
390.493	28
391.727	30
392.962	32
394.195	32
395.428	31
396.663	26
397.895	30
399.128	37
400.361	28
401.593	33
402.825	33
404.058	30
405.29	28
406.521	28
407.752	32
408.985	33
410.215	30
411.446	28
412.678	24
413.908	30
415.138	26
416.367	28
417.597	30
418.828	27
420.057	25
421.286	34
422.514	28
423.743	33
424.973	36
426.201	25
427.429	25
428.657	25
429.884	32
431.112	28
432.34	34
433.567	28
434.794	35
436.02	32
437.247	32
438.473	35
439.699	31
440.925	35
442.15	29
443.376	31
444.601	34
445.826	32
447.051	30
448.275	24
449.5	28
450.724	34
451.948	26
453.172	32
454.396	36
455.619	33
456.842	35
458.065	29
459.288	31
460.511	28
461.733	38
462.956	29
464.178	30
465.4	35
466.621	34
467.843	34
469.064	30
470.285	37
471.505	35
472.726	35
473.946	32
475.166	40
476.387	37
477.606	42
478.825	43
480.044	47
481.264	44
482.483	44
483.702	49
484.921	48
486.138	49
487.356	53
488.574	54
489.792	54
491.009	57
492.226	56
493.444	55
494.661	50
495.877	55
497.094	48
498.31	42
499.525	45
500.741	45
501.958	46
503.172	42
504.388	42
505.603	41
506.817	38
508.032	39
509.247	41
510.46	35
511.675	36
512.888	40
514.102	37
515.316	39
516.528	41
517.742	36
518.954	33
520.167	32
521.378	38
522.591	31
523.802	33
525.015	34
526.226	26
527.438	35
528.648	26
529.86	32
531.07	33
532.281	34
533.491	34
534.702	32
535.911	26
537.121	30
538.33	32
539.54	38
540.749	32
541.957	32
543.167	28
544.375	30
545.584	28
546.791	36
547.999	30
549.207	28
550.414	29
551.621	33
552.829	28
554.035	28
555.241	28
556.449	32
557.655	26
558.86	36
560.066	30
561.272	33
562.477	32
563.682	26
564.888	32
566.093	30
567.297	35
568.501	24
569.705	28
570.91	24
572.114	29
573.317	30
574.52	29
575.723	31
576.927	26
578.13	31
579.332	33
580.535	28
581.737	31
582.938	24
584.14	34
585.343	32
586.544	32
587.745	26
588.946	33
590.147	29
591.347	25
592.548	32
593.748	28
594.948	29
596.147	32
597.347	30
598.546	30
599.745	33
600.944	31
602.143	30
603.342	30
604.54	29
605.738	34
606.937	26
608.134	36
609.332	27
610.529	31
611.727	32
612.924	29
614.121	33
615.317	26
616.513	30
617.709	38
618.905	30
620.101	32
621.297	33
622.492	30
623.688	32
624.883	30
626.077	28
627.271	30
628.466	34
629.66	34
630.855	33
632.047	33
633.241	32
634.435	26
635.629	32
636.82	28
638.014	30
639.207	28
640.399	33
641.59	33
642.783	30
643.975	27
645.166	34
646.357	32
647.549	30
648.741	32
649.93	28
651.122	28
652.311	31
653.502	28
654.692	28
655.881	34
657.071	31
658.261	30
659.45	34
660.639	32
661.827	22
663.016	28
664.204	30
665.393	36
666.581	34
667.769	28
668.957	32
670.143	30
671.331	32
672.518	27
673.705	31
674.891	32
676.078	34
677.264	31
678.451	30
679.636	36
680.821	32
682.007	36
683.192	35
684.378	40
685.562	34
686.747	38
687.931	38
689.115	36
690.3	32
691.483	36
692.666	31
693.851	43
695.034	29
696.216	36
697.4	33
698.582	30
699.764	36
700.948	33
702.129	40
703.311	39
704.493	40
705.674	47
706.855	44
708.036	42
709.218	49
710.399	51
711.579	46
712.759	51
713.939	46
715.12	40
716.299	43
717.478	38
718.657	33
719.836	34
721.015	30
722.195	34
723.373	36
724.552	33
725.729	27
726.907	34
728.085	24
729.262	33
730.44	32
731.617	37
732.795	31
733.972	31
735.148	28
736.324	28
737.501	30
738.677	31
739.852	32
741.028	26
742.203	31
743.379	24
744.554	28
745.729	34
746.903	30
748.078	26
749.252	31
750.426	32
751.599	37
752.772	28
753.946	29
755.119	31
756.293	30
757.466	28
758.639	26
759.811	25
760.984	33
762.155	30
763.327	30
764.499	32
765.67	32
766.842	31
768.013	30
769.183	30
770.354	31
771.525	36
772.696	30
773.865	27
775.035	26
776.205	28
777.375	31
778.544	26
779.713	31
780.882	24
782.052	31
783.219	33
784.388	28
785.557	32
786.724	33
787.892	32
789.06	35
790.227	33
791.395	30
792.562	30
793.728	32
794.895	30
796.061	35
797.228	33
798.395	32
799.56	28
800.726	34
801.891	35
803.057	34
804.221	31
805.387	33
806.551	33
807.716	31
808.879	32
810.044	30
811.208	21
812.372	37
813.535	27
814.699	34
815.862	35
817.025	31
818.188	29
819.351	31
820.513	28
821.675	30
822.837	32
823.999	31
825.161	33
826.322	32
827.483	32
828.645	24
829.805	32
830.966	35
832.127	32
833.287	30
834.447	33
835.607	30
836.767	29
837.926	22
839.085	26
840.245	30
841.404	28
842.562	30
843.72	36
844.88	28
846.038	34
847.195	25
848.353	28
849.512	29
850.669	33
851.826	34
852.983	31
854.139	33
855.296	35
856.453	33
857.609	28
858.765	36
859.921	36
861.077	32
862.232	30
863.387	34
864.542	30
865.697	32
866.852	35
868.008	31
869.162	32
870.316	30
871.47	29
872.624	30
873.778	26
874.931	30
876.084	33
877.237	33
878.39	31
879.543	34
880.695	30
881.846	33
882.999	32
884.151	29
885.302	30
886.454	32
887.606	28
888.757	28
889.908	28
891.059	28
892.21	28
893.359	29
894.509	29
895.659	28
896.81	28
897.959	28
899.109	28
900.257	31
901.407	35
902.556	31
903.705	29
904.854	31
906.001	28
907.149	31
908.298	27
909.446	26
910.592	28
911.74	31
912.888	28
914.034	30
915.181	24
916.328	33
917.473	28
918.62	22
919.766	30
920.911	27
922.058	31
923.204	26
924.348	29
925.494	32
926.638	26
927.783	28
928.928	30
930.072	32
931.216	29
932.36	33
933.504	27
934.647	35
935.791	30
936.933	24
938.077	28
939.219	32
940.363	24
941.504	28
942.647	34
943.789	30
944.932	34
946.073	30
947.215	32
948.356	27
949.498	31
950.638	29
951.778	26
952.92	32
954.06	28
955.199	32
956.34	28
957.479	32
958.62	31
959.759	27
960.898	30
962.038	31
963.176	27
964.315	29
965.453	31
966.592	30
967.73	30
968.867	26
970.006	29
971.144	30.5
972.281	30
973.418	28
974.554	32
975.692	31
976.829	22
977.965	28
979.101	30
980.237	31
981.374	28
982.509	33
983.645	31
984.78	30
985.915	28
987.05	26
988.184	28
989.319	29
990.453	31
991.589	31
992.722	32
993.856	26
994.99	38
996.123	31
997.257	26
998.39	32
999.523	34
1000.66	30
1001.79	25
1002.92	28
1004.05	32
1005.18	28
1006.32	29
1007.45	36
1008.58	24
1009.71	36
1010.84	34
1011.97	30
1013.1	33
1014.23	32
1015.36	31
1016.49	30
1017.62	26
1018.75	28
1019.88	24
1021.01	26
1022.14	28
1023.27	29
1024.4	30
1025.53	30
1026.66	33
1027.79	28
1028.91	28
1030.04	28
1031.17	26
1032.3	29
1033.42	30
1034.55	27
1035.68	30
1036.81	35
1037.93	32
1039.06	28
1040.18	22
1041.31	28
1042.44	22
1043.56	28
1044.69	28
1045.81	30
1046.94	26
1048.06	31
1049.19	22
1050.31	27
1051.44	28
1052.56	33
1053.69	28
1054.81	28
1055.93	24
1057.06	29
1058.18	28
1059.3	30
1060.43	30
1061.55	26
1062.67	26
1063.79	27
1064.92	22
1066.04	31
1067.16	26
1068.28	28
1069.4	28
1070.52	22
1071.65	22
1072.77	26
1073.89	26
1075.01	28
1076.13	26
1077.25	31
1078.37	30
1079.49	28
1080.61	28
1081.73	24
1082.85	28
1083.97	29
1085.09	26
1086.2	29
1087.32	28
1088.44	27
1089.56	33
1090.68	29
1091.8	25
1092.91	25
1094.03	32
1095.15	28
1096.26	25
1097.38	29
1098.5	28
1099.61	34
1100.73	27
1101.85	28
1102.96	34
1104.08	29
1105.19	27
1106.31	27
1107.43	30
1108.54	26
1109.66	24
1110.77	28
1111.88	26
1113	24
1114.11	24
1115.23	29
1116.34	24
1117.46	31
1118.57	34
1119.68	29
1120.8	24
1121.91	30
1123.02	28
1124.13	32
1125.25	26
1126.36	22
1127.47	34
1128.58	24
1129.69	29
1130.8	26
1131.92	28
1133.03	28
1134.14	29
1135.25	26
1136.36	32
1137.47	30
1138.58	30
1139.69	30
1140.8	28
1141.91	28
1143.02	31
1144.13	27
1145.24	30
1146.35	29
1147.46	31
1148.56	28
1149.67	30
1150.78	32
1151.89	26
1153	29
1154.1	22
1155.21	25
1156.32	24
1157.43	31
1158.53	26
1159.64	29
1160.75	31
1161.85	24
1162.96	26
1164.07	33
1165.17	27
1166.28	32
1167.38	27
1168.49	25
1169.59	28
1170.7	32
1171.8	30
1172.91	28
1174.01	30
1175.12	30
1176.22	27
1177.32	30
1178.43	26
1179.53	30
1180.64	30
1181.74	28
1182.84	28
1183.94	26
1185.05	30
1186.15	30
1187.25	22
1188.35	25
1189.46	28
1190.56	26
1191.66	25
1192.76	28
1193.86	26
1194.96	28
1196.06	28.9853
1197.16	24.9981
1198.26	26.0195
1199.37	27.0496
1200.47	30.9162
1201.57	28.0196
1202.67	26.1327
1203.77	26.1024
1204.86	27.6563
1205.96	25.7747
1207.06	27.7986
1208.16	26.171
1209.26	25.2422
1210.36	26.1344
1211.46	25.4265
1212.56	25.153
1213.65	24.1595
1214.75	32.2173
1215.85	26.7313
1216.95	28.2828
1218.04	24.8247
1219.14	31.3282
1220.24	28.1029
1221.33	26.6415
1222.43	24.131
1223.53	22.7253
1224.62	30.9039
1225.72	29.8812
1226.82	30.7965
1227.91	26.5861
1229.01	28.6324
1230.1	27.3824
1231.2	27.4954
1232.29	26.7335
1233.39	24.6804
1234.48	27.3753
1235.58	29.1423
1236.67	27.0555
1237.77	23.8776
1238.86	26.4206
1239.95	25.2034
1241.05	26.358
1242.14	24.8775
1243.23	28.8836
1244.33	25.9928
1245.42	27.8194
1246.51	28.5651
1247.61	25.3526
1248.7	24.7477
1249.79	26.3235
1250.88	22.9902
1251.97	26.471
1253.07	30.2479
1254.16	30.5348
1255.25	26.9314
1256.34	28.7353
1257.43	27.0055
1258.52	28.3872
1259.61	29.3857
1260.7	26.8339
1261.79	26.4812
1262.88	25.2927
1263.97	26.3915
1265.06	26.9597
1266.15	25.1414
1267.24	26.0412
1268.33	26.4882
1269.42	26.6516
1270.51	29.6839
1271.6	25.7545
1272.68	27.3419
1273.77	27.5357
1274.86	23.9438
1275.95	26.5651
1277.04	27.3881
1278.12	26.9608
1279.21	28
1280.3	26.4998
1281.39	24.7654
1282.47	26.4875
1283.56	24.5677
1284.65	24.1343
1285.73	28.9733
1286.82	24.0889
1287.91	23.3356
1288.99	24.1832
1290.08	29.7013
1291.16	27.2001
1292.25	30.373
1293.33	26.885
1294.42	25.0521
1295.5	29.6059
1296.59	26.4838
1297.67	27.0246
1298.76	27.9265
1299.84	27.7721
1300.92	27.2157
1302.01	27.4075
1303.09	28.9718
1304.17	30.1754
1305.26	22.1333
1306.34	24.1645
1307.34	26
1308.43	24
1309.52	27
1310.61	27
1311.7	27
1312.78	26
1313.87	25
1314.96	30
1316.04	26
1317.13	28
1318.22	32
1319.3	26
1320.39	26
1321.48	31
1322.56	26
1323.65	22
1324.73	27
1325.82	32
1326.9	31
1327.99	27
1329.07	31
1330.16	25
1331.24	27
1332.33	28
1333.41	18
1334.5	26
1335.58	27
1336.66	30
1337.75	26
1338.83	29
1339.91	25
1341	24
1342.08	28
1343.16	22
1344.24	18
1345.33	28
1346.41	23
1347.49	25
1348.57	28
1349.65	29
1350.74	20
1351.82	30
1352.9	27
1353.98	28
1355.06	26
1356.14	30
1357.22	28
1358.3	29
1359.38	28
1360.46	23
1361.54	22
1362.62	24
1363.7	30
1364.78	27
1365.86	27
1366.94	25
1368.02	22
1369.09	18
1370.17	28
1371.25	25
1372.33	26
1373.41	28
1374.48	20
1375.56	26
1376.64	26
1377.72	29
1378.79	28
1379.87	29
1380.95	26
1382.02	27
1383.1	32
1384.17	29
1385.25	31
1386.33	25
1387.4	22
1388.48	26
1389.55	32
1390.63	28
1391.7	30
1392.78	30
1393.85	28
1394.93	26
1396	29
1397.07	30
1398.15	30
1399.22	30
1400.3	32
1401.37	31
1402.44	32
1403.52	26
1404.59	32
1405.66	32
1406.73	30
1407.81	32
1408.88	24
1409.95	31
1411.02	33
1412.09	28
1413.17	31
1414.24	27
1415.31	31
1416.38	32
1417.45	33
1418.52	30
1419.59	35
1420.66	32
1421.73	26
1422.8	32
1423.87	29
1424.94	28
1426.01	31
1427.08	28
1428.15	26
1429.22	22
1430.29	24
1431.35	23
1432.42	31
1433.49	31
1434.56	29
1435.63	29
1436.69	34
1437.76	28
1438.83	23
1439.9	25
1440.96	26
1442.03	28
1443.1	32
1444.17	30
1445.23	29
1446.3	26
1447.36	26
1448.43	26
1449.49	30
1450.56	31
1451.63	32
1452.69	22
1453.76	26
1454.82	29
1455.89	26
1456.95	24
1458.01	28
1459.08	30
1460.14	29
1461.21	28
1462.27	28
1463.34	32
1464.4	24
1465.46	26
1466.52	27
1467.59	27
1468.65	28
1469.71	24
1470.77	30
1471.84	28
1472.9	24
1473.96	28
1475.02	27
1476.08	28
1477.15	29
1478.21	28
1479.27	27
1480.33	24
1481.39	30
1482.45	29
1483.51	26
1484.57	28
1485.63	28
1486.69	28
1487.75	30
1488.81	27
1489.87	29
1490.93	27
1491.99	33
1493.05	30
1494.1	20
1495.16	30
1496.22	31
1497.28	28
1498.34	30
1499.4	30
1500.45	30
1501.51	29
1502.57	28
1503.63	31
1504.68	30
1505.74	25
1506.8	28
1507.85	28
1508.91	30
1509.97	34
1511.02	28
1512.08	30
1513.13	31
1514.19	29
1515.24	28
1516.3	26
1517.35	32
1518.41	32
1519.46	22
1520.52	30
1521.57	28
1522.63	29
1523.68	30
1524.73	33
1525.79	30
1526.84	27
1527.9	26
1528.95	24
1530	29
1531.05	31
1532.11	25
1533.16	31
1534.21	28
1535.26	27
1536.32	28
1537.37	25
1538.42	34
1539.47	32
1540.52	31
1541.57	28
1542.63	29
1543.68	27
1544.73	28
1545.78	22
1546.83	30
1547.88	30
1548.93	30
1549.98	30
1551.03	29
1552.08	26
1553.13	34
1554.18	29
1555.23	26
1556.27	30
1557.32	34
1558.37	30
1559.42	28
1560.47	27
1561.52	25
1562.56	26
1563.61	27
1564.66	32
1565.71	28
1566.75	18
1567.8	26
1568.85	26
1569.9	27
1570.94	30
1571.99	32
1573.03	31
1574.08	27
1575.13	28
1576.17	31
1577.22	36
1578.26	31
1579.31	26
1580.35	27
1581.4	28
1582.44	28
1583.49	24
1584.53	26
1585.58	25
1586.62	26
1587.66	28
1588.71	26
1589.75	27
1590.8	28
1591.84	27
1592.88	27
1593.92	27
1594.97	22
1596.01	24
1597.05	30
1598.1	26
1599.14	22
1600.18	25
1601.22	28
1602.26	28
1603.3	29
1604.35	31
1605.39	22
1606.43	28
1607.47	32
1608.51	28
1609.55	27
1610.59	26
1611.63	29
1612.67	28
1613.71	25
1614.75	28
1615.79	27
1616.83	24
1617.87	24
1618.91	33
1619.95	28
1620.99	27
1622.02	27
1623.06	24
1624.1	24
1625.14	30
1626.18	28
1627.21	25
1628.25	24
1629.29	30
1630.33	30
1631.36	31
1632.4	32
1633.44	29
1634.48	32
1635.51	28
1636.55	26
1637.58	26
1638.62	30
1639.66	32
1640.69	26
1641.73	26
1642.76	28
1643.8	29
1644.83	28
1645.87	26
1646.9	27
1647.94	28
1648.97	32
1650	24
1651.04	26
1652.07	29
1653.11	31
1654.14	29
1655.17	32
1656.21	22
1657.24	30
1658.27	25
1659.31	24
1660.34	28
1661.37	28
1662.4	26
1663.43	25
1664.47	28
1665.5	32
1666.53	30
1667.56	33
1668.59	29
1669.62	32
1670.66	33
1671.69	27
1672.72	26
1673.75	29
1674.78	28
1675.81	30
1676.84	26
1677.87	24
1678.9	24
1679.93	30
1680.96	25
1681.98	31
1683.01	29
1684.04	26
1685.07	34
1686.1	32
1687.13	28
1688.16	32
1689.18	29
1690.21	21
1691.24	26
1692.27	26
1693.3	27
1694.32	31
1695.35	32
1696.38	34
1697.4	30
1698.43	25
1699.46	22
1700.48	24
1701.51	28
1702.54	26
1703.56	30
1704.59	28
1705.61	32
1706.64	28
1707.66	27
1708.69	26
1709.71	30
1710.74	25
1711.76	30
1712.79	26
1713.81	27
1714.83	28
1715.86	26
1716.88	27
1717.91	22
1718.93	27
1719.95	24
1720.98	28
1722	27
1723.02	28
1724.04	26
1725.07	32
1726.09	24
1727.11	27
1728.13	26
1729.15	30
1730.18	29
1731.2	28
1732.22	26
1733.24	26
1734.26	30
1735.28	24
1736.3	28
1737.32	30
1738.34	26
1739.36	25
1740.38	27
1741.4	22
1742.42	29
1743.44	30
1744.46	24
1745.48	27
1746.5	27
1747.52	31
1748.54	29
1749.56	28
1750.58	30
1751.6	23
1752.61	30
1753.63	26
1754.65	28
1755.67	33
1756.68	29
1757.7	28
1758.72	30
1759.74	30
1760.75	29
1761.77	30
1762.79	25
1763.8	27
1764.82	20
1765.83	26
1766.85	22
1767.87	25
1768.88	28
1769.9	28
1770.91	27
1771.93	22
1772.94	26
1773.96	28
1774.97	29
1775.99	28
1777	28
1778.02	32
1779.03	28
1780.04	24
1781.06	30
1782.07	25
1783.09	28
1784.1	23
1785.11	30
1786.13	26
1787.14	24
1788.15	30
1789.16	26
1790.18	26
1791.19	26
1792.2	26
1793.21	28
1794.22	27
1795.23	32
1796.25	28
1797.26	26
1798.27	29
1799.28	28
1800.29	26
1801.3	30
1802.31	33
1803.32	28
1804.33	25
1805.34	24
1806.35	30
1807.36	28
1808.37	26
1809.38	27
1810.39	24
1811.4	26
1812.41	20
1813.42	30
1814.42	36
1815.43	30
1816.44	30
1817.45	31
1818.46	29
1819.47	23
1820.47	28
1821.48	25
1822.49	24
1823.49	28
1824.5	22
1825.51	26
1826.52	25
1827.52	24
1828.53	25
1829.53	26
1830.54	26
1831.55	26
1832.55	29
1833.56	25
1834.56	28
1835.57	29
1836.57	22
1837.58	26
1838.58	24
1839.59	26
1840.59	27
1841.6	27
1842.6	24
1843.61	32
1844.61	28
1845.61	26
1846.62	25
1847.62	28
1848.62	31
1849.63	31
1850.63	26
1851.63	24
1852.64	25
1853.64	30
1854.64	27
1855.64	27
1856.64	30
1857.65	32
1858.65	25
1859.65	25
1860.65	30
1861.65	31
1862.65	28
1863.65	27
1864.66	24
1865.66	25
1866.66	28
1867.66	27
1868.66	26
1869.66	26
1870.66	31
1871.66	30
1872.66	32
1873.66	26
1874.66	30
1875.65	26
1876.65	26
1877.65	27
1878.65	28
1879.65	28
1880.65	28
1881.65	25
1882.64	28
1883.64	27
1884.64	28
1885.64	25
1886.63	28
1887.63	27
1888.63	28
1889.63	24
1890.62	28
1891.62	26
1892.62	29
1893.61	20
1894.61	26
1895.6	23
1896.6	26
1897.6	32
1898.59	28
1899.59	30
1900.58	30
1901.58	22
1902.57	28
1903.57	27
1904.56	31
1905.56	26
1906.55	32
1907.54	28
1908.54	31
1909.53	28
1910.53	28
1911.52	30
1912.51	26
1913.51	24
1914.5	26
1915.49	26
1916.49	27
1917.48	28
1918.47	26
1919.46	24
1920.46	26
1921.45	28
1922.44	24
1923.43	25
1924.42	30
1925.41	26
1926.41	26
1927.4	28
1928.39	26
1929.38	26
1930.37	26
1931.36	26
1932.35	26
1933.34	28
1934.33	27
1935.32	25
1936.31	30
1937.3	25
1938.29	26
1939.28	27
1940.27	30
1941.26	28
1942.24	24
1943.23	28
1944.22	29
1945.21	33
1946.2	29
1947.19	27
1948.17	26
1949.16	27
1950.15	27.5
1951.14	27
1952.12	28
1953.11	31
1954.1	33
1955.09	28
1956.07	26
1957.06	26
1958.05	32
1959.03	27
1960.02	33
1961	30
1961.99	28
1962.98	24
1963.96	28
1964.95	29
1965.93	27
1966.92	24
1967.9	26
1968.89	25
1969.87	28
1970.85	27
1971.84	26
1972.82	29
1973.81	28
1974.79	25
1975.78	28
1976.76	28
1977.74	29
1978.73	31
1979.71	31
1980.69	30
1981.67	24
1982.66	29
1983.64	31
1984.62	29
1985.6	28
1986.59	25
1987.57	29
1988.55	27
1989.53	30
1990.51	30
1991.49	28
1992.47	26
1993.45	25
1994.44	26
1995.42	30
1996.4	31
1997.38	27
1998.36	23
1999.34	25
2000.32	28
2001.3	21
2002.28	22
2003.26	25
2004.24	24
2005.22	30
2006.19	29
2007.17	26
2008.15	30
2009.13	30
2010.11	32
2011.09	20
2012.06	26
2013.04	27
2014.02	29
2015	29
2015.98	28
2016.95	20
2017.93	26
2018.91	24
2019.88	27
2020.86	28
2021.84	25
2022.81	31
2023.79	24
2024.77	25
2025.74	22
2026.72	28
2027.69	22
2028.67	25
2029.65	28
2030.62	30
2031.6	25
2032.57	22
2033.55	26
2034.52	26
2035.5	25
2036.47	25
2037.44	26
2038.42	24
2039.39	21
2040.36	24
2041.34	22
2042.31	28
2043.29	20
2044.26	26
2045.23	26
2046.2	18
2047.18	28
2048.15	29
2049.12	30
2050.09	25
2051.07	26
2052.04	29
2053.01	28
2053.98	28
2054.95	29
2055.93	26
2056.9	25
2057.87	28
2058.84	22
2059.81	32
2060.78	29
2061.75	26
2062.72	23
2063.69	29
2064.66	24
2065.63	24
2066.6	25
2067.57	27
2068.54	24
2069.51	20
2070.48	25
2071.45	25
2072.42	25
2073.38	25
2074.35	22
2075.32	28
2076.29	26
2077.26	28
2078.23	28
2079.19	26
2080.16	30
2081.13	22
2082.1	26
2083.06	22
2084.03	26
2085	26
2085.96	28
2086.93	28
2087.9	30
2088.86	28
2089.83	27
2090.8	26
2091.76	28
2092.73	24
2093.69	26
2094.66	27
2095.62	28
2096.59	20
2097.55	25
2098.52	24
2099.48	24
2100.45	25
2101.41	30
2102.38	29
2103.34	29
2104.31	23
2105.27	26
2106.23	28
2107.2	28
2108.16	26
2109.12	28
2110.09	26
2111.05	27
2112.01	26
2112.98	23
2113.94	24
2114.9	26
2115.86	26
2116.82	27
2117.79	25
2118.75	30
2119.71	22
2120.67	26
2121.63	30
2122.59	32
2123.55	28
2124.52	26
2125.48	26
2126.44	28
2127.4	22
2128.36	29
2129.32	28
2130.28	24
2131.24	27
2132.2	26
2133.16	23
2134.12	26
2135.08	26
2136.04	30
2136.99	28
2137.95	28
2138.91	26
2139.87	24
2140.83	24
2141.79	25
2142.75	25
2143.7	23
2144.66	19
2145.62	29.9913
2146.58	23.9666
2147.53	27.0469
2148.49	26.0658
2149.45	26.0339
2150.41	24.9614
2151.36	24.2296
2152.32	25.7281
2153.27	27.9074
2154.23	25
2155.19	28.5882
2156.14	25.8873
2157.1	24.9955
2158.06	24.0081
2159.01	25.9926
2159.97	24.0065
2160.92	22.6371
2161.88	18.6899
2162.83	25.6351
2163.79	24.4265
2164.74	21.002
2165.7	28.3657
2166.65	27.5588
2167.61	25.1381
2168.56	27.7717
2169.51	26.4926
2170.47	28.5018
2171.42	27.717
2172.38	26.8824
2173.33	22.967
2174.28	20.7075
2175.24	27.2902
2176.19	26.2127
2177.14	23.3431
2178.09	24.6828
2179.05	25.1714
2180	22.1938
2180.95	25.3007
2181.9	25.0962
2182.86	27.4322
2183.81	27.3732
2184.76	25.7689
2185.71	23.6849
2186.66	28.4337
2187.61	26.1642
2188.57	22.0129
2189.52	22.9641
2190.47	25.6054
2191.42	21.2583
2192.37	23.0882
2193.32	25.3617
2194.27	26.3078
2195.22	23.2553
2196.17	25.8535
2197.12	23.5005
2198.07	22.4559
2199.02	24.685
2199.97	23.09
2200.92	23.7059
2201.87	23.6667
2202.82	23.8784
2203.76	26.4745
2204.71	28.7317
2205.66	25.4511
2206.61	23.7526
2207.56	25.0902
2208.51	25.8315
2209.45	27.3235
2210.4	27.6716
2211.35	28.1894
2212.3	27.4639
2213.24	23.1756
2214.19	24.5784
2215.14	23.7575
2216.09	24.0654
2217.03	24
2217.98	24.5325
2218.93	24.8144
2219.87	25.5392
2220.82	24.0366
2221.77	27.6869
2222.71	25.9168
2223.66	27.6732
2224.6	27.2509
2225.55	22.8539
2226.49	24.3936
2227.44	23.326
2228.38	22.4265
2229.33	22.5294
2230.27	27.2431
2231.22	25.4808
2232.16	25.2409
2233.11	27
2234.05	24.8052
2235	22.4299
2235.94	24.672
2236.88	23.0259
2237.83	22.9853
2238.77	22.8856
2239.71	23.1253
2240.66	22.7303
2241.6	24.316
2242	26
2242.95	23
2243.9	28
2244.84	26
2245.79	28
2246.74	28
2247.69	29
2248.63	26
2249.58	24
2250.53	26
2251.47	28
2252.42	26
2253.37	26
2254.31	22
2255.26	30
2256.2	24
2257.15	30
2258.1	23
2259.04	25
2259.99	25
2260.93	29
2261.88	26
2262.82	26
2263.77	25
2264.71	28
2265.65	26
2266.6	24
2267.54	28
2268.49	28
2269.43	32
2270.38	22
2271.32	25
2272.26	26
2273.21	26
2274.15	28
2275.09	24
2276.04	30
2276.98	24
2277.92	25
2278.86	24
2279.81	24
2280.75	24
2281.69	28
2282.63	26
2283.57	29
2284.52	23
2285.46	28
2286.4	27
2287.34	30
2288.28	25
2289.22	29
2290.16	22
2291.1	29
2292.04	27
2292.98	26
2293.93	26
2294.86	29
2295.8	28
2296.74	26
2297.69	28
2298.62	24
2299.56	26
2300.5	28
2301.44	22
2302.38	23
2303.32	28
2304.26	28
2305.2	24
2306.14	27
2307.07	27
2308.01	25
2308.95	27
2309.89	24
2310.83	28
2311.76	24
2312.7	30
2313.64	26
2314.58	25
2315.51	26
2316.45	29
2317.39	24
2318.32	26
2319.26	26
2320.2	20
2321.13	27
2322.07	26
2323	26
2323.94	30
2324.88	30
2325.81	28
2326.75	28
2327.68	25
2328.62	24
2329.55	26
2330.49	27
2331.42	24
2332.36	25
2333.29	22
2334.22	26
2335.16	24
2336.09	26
2337.03	26
2337.96	26
2338.89	20
2339.83	29
2340.76	28
2341.69	24
2342.63	20
2343.56	32
2344.49	30
2345.43	25
2346.36	22
2347.29	27
2348.22	25
2349.15	26
2350.09	24
2351.02	28
2351.95	26
2352.88	25
2353.81	24
2354.74	24
2355.67	27
2356.61	24
2357.54	29
2358.47	24
2359.4	28
2360.33	27
2361.26	26
2362.19	23
2363.12	24
2364.05	25
2364.98	30
2365.91	24
2366.84	28
2367.77	25
2368.7	30
2369.62	26
2370.55	31
2371.48	29
2372.41	24
2373.34	31
2374.27	26
2375.2	22
2376.12	26
2377.05	28
2377.98	28
2378.91	28
2379.83	24
2380.76	26
2381.69	24
2382.62	28
2383.54	30
2384.47	21
2385.4	26
2386.32	24
2387.25	28
2388.18	29
2389.1	26
2390.03	24
2390.95	30
2391.88	22
2392.81	31
2393.73	26
2394.66	25
2395.58	25
2396.51	22
2397.43	28
2398.36	26
2399.28	26
2400.2	27
2401.13	28
2402.05	27
2402.98	26
2403.9	25
2404.83	26
2405.75	30
2406.67	27
2407.6	24
2408.52	30
2409.44	27
2410.37	24
2411.29	29
2412.21	28
2413.13	26
2414.06	26
2414.98	26
2415.9	28
2416.82	27
2417.74	24
2418.67	27
2419.59	28
2420.51	23
2421.43	32
2422.35	28
2423.27	30
2424.19	29
2425.11	28
2426.03	24
2426.96	25
2427.88	26
2428.8	24
2429.72	26
2430.64	32
2431.56	30
2432.48	24
2433.39	27
2434.31	22
2435.23	27
2436.15	23
2437.07	25
2437.99	28
2438.91	24
2439.83	30
2440.75	24
2441.67	25
2442.58	28
2443.5	26
2444.42	20
2445.34	26
2446.26	27
2447.17	20
2448.09	28
2449.01	31
2449.92	18
2450.84	22
2451.76	31
2452.68	25
2453.59	25
2454.51	24
2455.42	28
2456.34	28
2457.26	27
2458.17	29
2459.09	28
2460	26
2460.92	26
2461.83	22
2462.75	26
2463.66	24
2464.58	28
2465.49	24
2466.41	29
2467.32	28
2468.24	26
2469.15	27
2470.07	28
2470.98	24
2471.89	27
2472.81	27
2473.72	24
2474.64	25
2475.55	26
2476.46	22
2477.37	28
2478.29	30
2479.2	30
2480.11	18
2481.03	22
2481.94	26
2482.85	22
2483.76	25
2484.67	26
2485.59	27
2486.5	28
2487.41	26
2488.32	26
2489.23	28
2490.14	24
2491.05	26
2491.97	28
2492.88	29
2493.79	24
2494.7	26
2495.61	25
2496.52	28
2497.43	27
2498.34	26
2499.25	30
2500.16	24
2501.07	27
2501.98	18
2502.89	28
2503.79	24
2504.7	26
2505.61	30
2506.52	27
2507.43	28
2508.34	28
2509.25	31
2510.16	27
2511.06	25
2511.97	24
2512.88	26
2513.79	20
2514.69	28
2515.6	28
2516.51	28
2517.42	28
2518.32	25
2519.23	27
2520.14	28
2521.04	30
2521.95	28
2522.86	29
2523.76	22
2524.67	24
2525.57	26
2526.48	28
2527.39	24
2528.29	24
2529.2	30
2530.1	25
2531.01	30
2531.91	25
2532.82	30
2533.72	26
2534.63	27
2535.53	22
2536.44	28
2537.34	27
2538.24	28
2539.15	27
2540.05	31
2540.96	27
2541.86	28
2542.76	26
2543.67	24
2544.57	30
2545.47	30
2546.37	25
2547.28	29
2548.18	27
2549.08	28
2549.99	26
2550.89	20
2551.79	24
2552.69	28
2553.59	36
2554.49	18
2555.4	29
2556.3	29
2557.2	29
2558.1	25
2559	26
2559.9	25
2560.8	30
2561.7	27
2562.6	25
2563.5	22
2564.4	27
2565.3	25
2566.2	30
2567.1	28
2568	27
2568.9	28
2569.8	22
2570.7	26
2571.6	27
2572.5	24
2573.4	23
2574.3	29
2575.2	24
2576.1	30
2576.99	26
2577.89	28
2578.79	22
2579.69	28
2580.59	22
2581.48	32
2582.38	28
2583.28	32
2584.18	24
2585.07	23
2585.97	22
2586.87	26
2587.76	30
2588.66	28
2589.56	24
2590.45	26
2591.35	28
2592.25	28
2593.14	27
2594.04	28
2594.93	26
2595.83	20
2596.73	24
2597.62	30
2598.52	28
2599.41	20
2600.31	26
2601.2	27
2602.1	26
2602.99	24
2603.88	28
2604.78	30
2605.67	25
2606.57	26
2607.46	28
2608.35	28
2609.25	22
2610.14	31
2611.03	28
2611.93	24
2612.82	27
2613.71	24
2614.61	26
2615.5	29
2616.39	23
2617.29	32
2618.18	24
2619.07	28
2619.96	28
2620.85	26
2621.75	26
2622.64	22
2623.53	22
2624.42	20
2625.31	31
2626.2	27
2627.09	27
2627.98	31
2628.88	22
2629.77	29
2630.66	24
2631.55	26
2632.44	26
2633.33	32
2634.22	24
2635.11	27
2636	24
2636.89	24
2637.78	22
2638.66	31
2639.55	30
2640.44	22
2641.33	22
2642.22	29
2643.11	28
2644	26
2644.89	28
2645.78	30
2646.66	24
2647.55	31
2648.44	26
2649.33	22
2650.21	26
2651.1	29
2651.99	27
2652.88	25
2653.76	24
2654.65	26
2655.54	26
2656.42	26
2657.31	29
2658.2	26
2659.08	24
2659.97	31
2660.86	31
2661.74	29
2662.63	26
2663.51	28
2664.4	28
2665.29	22
2666.17	25
2667.06	26
2667.94	30
2668.83	29
2669.71	27
2670.6	26
2671.48	22
2672.36	24
2673.25	26
2674.13	24
2675.02	24
2675.9	23
2676.78	25
2677.67	28
2678.55	28
2679.43	20
2680.32	28
2681.2	24
2682.08	28
2682.97	24
2683.85	30
2684.73	29
2685.61	28
2686.5	28
2687.38	26
2688.26	28
2689.14	25
2690.03	26
2690.91	25
2691.79	32
2692.67	26
2693.55	29
2694.43	26
2695.31	24
2696.19	25
2697.08	31
2697.96	26
2698.84	28
2699.72	26
2700.6	29
2701.48	30
2702.36	28
2703.24	31
2704.12	27
2705	24
2705.88	26
2706.76	25
2707.64	30
2708.51	28
2709.39	26
2710.27	22
2711.15	28
2712.03	28
2712.91	34
2713.79	27
2714.67	24
2715.54	26
2716.42	18
2717.3	24
2718.18	23
2719.05	27
2719.93	24
2720.81	28
2721.69	24
2722.56	26
2723.44	24
2724.32	26
2725.19	22
2726.07	24
2726.95	24
2727.82	31
2728.7	28
2729.58	27
2730.45	26
2731.33	28
2732.2	24
2733.08	28
2733.95	31
2734.83	26
2735.7	22
2736.58	23
2737.45	22
2738.33	24
2739.2	28
2740.08	24
2740.95	28
2741.83	28
2742.7	26
2743.58	28
2744.45	26
2745.32	26
2746.2	25
2747.07	28
2747.94	28
2748.82	24
2749.69	28
2750.56	28
2751.44	27
2752.31	25
2753.18	30
2754.05	29
2754.93	28
2755.8	26
2756.67	20
2757.54	25
2758.42	29
2759.29	24
2760.16	29
2761.03	30
2761.9	28
2762.77	26
2763.64	25
2764.51	30
2765.38	29
2766.26	28
2767.13	30
2768	26
2768.87	25
2769.74	25
2770.61	25
2771.48	22
2772.35	31
2773.22	27
2774.09	28
2774.96	26
2775.83	27
2776.7	26
2777.56	28
2778.43	25
2779.3	26
2780.17	18
2781.04	31
2781.91	28
2782.78	29
2783.64	27
2784.51	28
2785.38	29
2786.25	30
2787.12	33
2787.98	28
2788.85	26
2789.72	29
2790.59	28
2791.45	25
2792.32	28
2793.19	28
2794.05	28
2794.92	29
2795.79	30
2796.65	26
2797.52	25
2798.38	33
2799.25	27
2800.12	26
2800.98	28
2801.85	26
2802.71	26
2803.58	26.5
2804.44	26
2805.31	24
2806.17	30
2807.04	30
2807.9	33
2808.77	26
2809.63	25
2810.5	26
2811.36	24
2812.22	29
2813.09	28
2813.95	24
2814.82	27
2815.68	24
2816.54	29
2817.41	31
2818.27	20
2819.13	31
2820	30
2820.86	29
2821.72	32
2822.58	28
2823.45	27
2824.31	27
2825.17	26
2826.03	20
2826.9	28
2827.76	26
2828.62	32
2829.48	32
2830.34	24
2831.2	29
2832.06	30
2832.92	28
2833.79	26
2834.65	24
2835.51	28
2836.37	27
2837.23	28
2838.09	27
2838.95	30
2839.81	26
2840.67	30
2841.53	24
2842.39	29
2843.25	31
2844.11	28
2844.97	25
2845.83	26
2846.68	28
2847.54	25
2848.4	32
2849.26	26
2850.12	23
2850.98	29
2851.84	25
2852.69	24
2853.55	28
2854.41	28
2855.27	26
2856.13	30
2856.98	28
2857.84	25
2858.7	28
2859.56	29
2860.41	28
2861.27	32
2862.13	30
2862.98	24
2863.84	29
2864.7	29
2865.55	24
2866.41	32
2867.27	25
2868.12	32
2868.98	30
2869.83	28
2870.69	27
2871.54	29
2872.4	32
2873.25	30
2874.11	26
2874.96	28
2875.82	31
2876.68	33
2877.53	31
2878.38	30
2879.24	35
2880.09	31
2880.95	33
2881.8	28
2882.65	31
2883.51	28
2884.36	31
2885.22	30
2886.07	36
2886.92	37
2887.77	38
2888.63	37
2889.48	33
2890.33	36
2891.19	38
2892.04	32
2892.89	42
2893.74	41
2894.6	43
2895.45	43
2896.3	48
2897.15	48
2898	45
2898.85	48
2899.71	47
2900.56	54
2901.41	52
2902.26	58
2903.11	60
2903.96	58
2904.81	59
2905.66	61
2906.51	63
2907.36	58
2908.21	66
2909.06	57
2909.91	61
2910.76	59
2911.61	57
2912.46	57
2913.31	48
2914.16	48
2915.01	48
2915.86	48
2916.71	45
2917.56	34
2918.41	37
2919.26	37
2920.1	38
2920.95	38
2921.8	30
2922.65	36
2923.5	34
2924.34	34
2925.19	32
2926.04	26
2926.89	33
2927.74	36
2928.58	28
2929.43	31
2930.28	32
2931.12	29
2931.97	29
2932.82	28
2933.66	29
2934.51	29
2935.36	32
2936.2	28
2937.05	34
2937.89	30
2938.74	30
2939.59	32
2940.43	29
2941.28	29
2942.12	24
2942.97	30
2943.81	31
2944.66	35
2945.5	32
2946.35	31
2947.19	28
2948.04	28
2948.88	28
2949.72	33
2950.57	34
2951.41	33
2952.26	33
2953.1	34
2953.94	38
2954.79	32
2955.63	32
2956.47	34
2957.32	34
2958.16	40
2959	32
2959.85	33
2960.69	38
2961.53	32
2962.37	41
2963.22	30
2964.06	44
2964.9	43
2965.74	40
2966.58	41
2967.42	45
2968.27	38
2969.11	43
2969.95	36
2970.79	35
2971.63	37
2972.47	34
2973.31	32
2974.15	34
2974.99	39
2975.83	26
2976.68	36
2977.52	35
2978.36	30
2979.2	32
2980.04	32
2980.88	26
2981.71	32
2982.55	27
2983.39	27
2984.23	30
2985.07	27
2985.91	27
2986.75	26
2987.59	32
2988.43	20
2989.27	26
2990.1	30
2990.94	26
2991.78	25
2992.62	25
2993.46	30
2994.3	30
2995.13	31
2995.97	29
2996.81	30
2997.64	28
2998.48	32
2999.32	24
