#Acq. time (s)=	5
#Accumulations=	5
#Range (cm-¹)=	100...3500
#Windows=	4
#Autofocus=	Off
#AutoExposure=	Off
#Spike filter=	Multiple accum.
#Delay time (s)=	0
#Binning=	1
#Readout mode=	Signal
#DeNoise=	Off
#ICS correction=	Off
#Dark correction=	Off
#Inst. Process=	Off
#Instrument=	LabRAM HR Evol
#Detector=	Syncerity OE
#Objective=	x100_VIS
#Grating=	600 (500nm)
#ND Filter=	25%
#Laser=	633nm_Edge
#Hole=	100.021
#Range=	Visible
#Project=	verificaciones
#Sample=	at1
#Site=	plain
#Title=	bolusat1plain
#Remark=	
#Date=	13.01.2026 14:27
#Acquired=	13.01.2026 14:27:33
100.692	32
101.975	30
103.258	32
104.542	32
105.824	26
107.107	27
108.39	28.5
109.672	34.5
110.954	27.5
112.236	29.5
113.519	29
114.8	28
116.081	32
117.362	30.5
118.643	32.5
119.924	31
121.204	32
122.484	32
123.764	32
125.044	31
126.323	35
127.603	26
128.882	28
130.161	33.5
131.438	34.5
132.716	37.5
133.995	38
135.273	36.5
136.55	34
137.828	38.5
139.106	36
140.383	36.5
141.66	39.5
142.937	38.5
144.213	35
145.488	41
146.764	37.5
148.04	39
149.316	38.5
150.592	42.5
151.867	39
153.141	39.5
154.416	40
155.69	40.5
156.965	42
158.239	39
159.512	40
160.786	41.5
162.059	39.5
163.333	42.5
164.605	40.5
165.878	37.5
167.15	42
168.423	43
169.694	41.5
170.966	37.5
172.238	39
173.51	39.5
174.78	40
176.052	38.5
177.323	43
178.592	41
179.863	39.5
181.134	40
182.403	46
183.673	44
184.943	44.5
186.211	41.5
187.481	38
188.749	37
190.018	42
191.287	39.5
192.554	43.5
193.822	43.5
195.089	38.5
196.357	45
197.625	43.5
198.891	38
200.159	38.5
201.425	37
202.692	42
203.957	38.5
205.224	39
206.489	33
207.755	38.5
209.02	36.5
210.286	31.5
211.55	36
212.815	34
214.079	33
215.344	34
216.607	30.5
217.872	31.5
219.135	39
220.399	34
221.662	35
222.924	28.5
224.187	34.5
225.449	33
226.713	30
227.974	30
229.235	34
230.498	30
231.759	32.5
233.019	33
234.281	32
235.542	31
236.802	37
238.063	29
239.323	34
240.582	31
241.843	35.5
243.102	33.5
244.361	31
245.621	31.5
246.879	33
248.138	31.5
249.396	30
250.655	35.5
251.913	26
253.17	30
254.427	29
255.686	23
256.943	26
258.199	28
259.456	29.5
260.712	30.5
261.969	30
263.225	31
264.481	30
265.736	31.5
266.991	33.5
268.246	32.5
269.502	30
270.757	31.5
272.011	24
273.265	28
274.519	31
275.773	28.5
277.027	33
278.28	28.5
279.533	29.5
280.786	30.5
282.04	30
283.293	27.5
284.545	25.5
285.798	31
287.049	30
288.301	31
289.553	29
290.804	28.5
292.055	30
293.306	27
294.557	26
295.807	28
297.058	28.5
298.308	25.5
299.558	31
300.808	30.5
302.057	32.5
303.305	26.5
304.554	30.5
305.803	28
307.052	25
308.3	24
309.549	31.5
310.797	34
312.045	28.5
313.292	27
314.54	33
315.786	27.5
317.033	29
318.28	30
319.526	30
320.773	28
322.019	29.5
323.264	32
324.51	29
325.755	30
327.001	29
328.246	27.5
329.49	26.5
330.735	28.5
331.979	28.5
333.224	24
334.467	29
335.711	24.5
336.955	28
338.199	31
339.441	30
340.684	29
341.927	30
343.168	29
344.411	29.5
345.654	30.5
346.895	26.5
348.137	31
349.379	25.5
350.619	29.5
351.86	25
353.102	30.5
354.341	31.5
355.582	28.5
356.821	30.5
358.062	29
359.302	25
360.541	29
361.781	31.5
363.019	28
364.259	29
365.496	30
366.736	30
367.974	28
369.212	24
370.45	28.5
371.687	28
372.925	27.5
374.162	30.5
375.399	29.5
376.635	31
377.873	28.5
379.109	30
380.344	31.5
381.581	29
382.816	24.5
384.052	30.5
385.287	28
386.523	29
387.757	28
388.991	27
390.227	27.5
391.46	30
392.695	19.5
393.928	30
395.162	28
396.396	26
397.629	32.5
398.861	29
400.095	30
401.327	30.5
402.559	33
403.792	29
405.024	26
406.255	25
407.488	32.5
408.719	25.5
409.949	29
411.18	29.5
412.412	25.5
413.642	27
414.872	26
416.102	29
417.333	28
418.562	30
419.791	26.5
421.02	29.5
422.249	29.5
423.479	27.5
424.707	30
425.935	26
427.163	28.5
428.391	24
429.619	26
430.848	22.5
432.075	25.5
433.302	28
434.529	27
435.755	27.5
436.982	25.5
438.208	31
439.434	27
440.66	25
441.885	31.5
443.111	30.5
444.338	27
445.563	25
446.788	27.5
448.012	29.5
449.237	31.5
450.461	28
451.685	30
452.909	26.5
454.133	28
455.356	34
456.579	28.5
457.802	31
459.025	30.5
460.247	27.5
461.469	28.5
462.691	28.5
463.914	29
465.136	32.5
466.357	30.5
467.579	33
468.8	34
470.021	34
471.242	36
472.462	34.5
473.682	35.5
474.903	38.5
476.123	43
477.343	46
478.563	46
479.782	46
481	47
482.219	52
483.438	55
484.657	56
485.874	59.5
487.093	63.5
488.311	62.5
489.529	63.5
490.747	66
491.963	61.5
493.181	66
494.398	52
495.614	52
496.83	52
498.047	49
499.264	49.5
500.479	44.5
501.695	41
502.911	43
504.125	43
505.34	41
506.554	39
507.769	37.5
508.984	37.5
510.198	40.5
511.412	36.5
512.627	35.5
513.839	37
515.053	33.5
516.266	32
517.479	34.5
518.691	31
519.905	35.5
521.118	35
522.329	29
523.542	35.5
524.753	32
525.965	28.5
527.176	31
528.388	32
529.598	32
530.809	28
532.019	30.5
533.23	32.5
534.44	32
535.649	28
536.86	29.5
538.068	31.5
539.279	27
540.487	31
541.697	26.5
542.905	28.5
544.113	36
545.322	29
546.53	31.5
547.737	33.5
548.946	26.5
550.153	31.5
551.361	28.5
552.568	28
553.774	28.5
554.982	30
556.188	30
557.394	28.5
558.599	30
559.806	30.5
561.012	27.5
562.217	29
563.423	33.5
564.628	30
565.832	28.5
567.036	27
568.241	31
569.446	26.5
570.65	31.5
571.853	30.5
573.057	30
574.26	25.5
575.464	27.5
576.667	27
577.87	25.5
579.072	24.5
580.274	30
581.477	29
582.68	26.5
583.881	26
585.083	29
586.284	26
587.485	27.5
588.686	26
589.887	26
591.087	29.5
592.288	23.5
593.488	28
594.688	26.5
595.888	31
597.087	26
598.287	30
599.486	26
600.685	30.5
601.884	35.5
603.082	28.5
604.281	27.5
605.479	30.5
606.677	32
607.875	30.5
609.073	28.5
610.27	30.5
611.468	29
612.665	30
613.862	32
615.058	30
616.255	27
617.451	29
618.648	28
619.842	28
621.038	29
622.234	28.5
623.429	32
624.624	31.5
625.819	33
627.013	29.5
628.207	28
629.402	25
630.596	30.5
631.79	27
632.983	26.5
634.177	30
635.37	29.5
636.564	31
637.755	24
638.948	30.5
640.141	29.5
641.334	28.5
642.525	28
643.717	24
644.909	31
646.099	27.5
647.291	26.5
648.483	28
649.674	32.5
650.864	26.5
652.055	28.5
653.244	28.5
654.435	32
655.625	28.5
656.814	29
658.004	29.5
659.193	27.5
660.382	27
661.571	28.5
662.759	27.5
663.948	24
665.135	26
666.324	28.5
667.511	27
668.7	30
669.886	29
671.074	29
672.262	28
673.448	33
674.634	30
675.821	33.5
677.007	33
678.194	34
679.379	34
680.565	32.5
681.75	33
682.936	33
684.121	39
685.305	33
686.491	35
687.675	33
688.86	40.5
690.043	33
691.227	33
692.411	34.5
693.594	34
694.777	37
695.961	36
697.144	35.5
698.326	37
699.509	34.5
700.691	36.5
701.873	41.5
703.056	38
704.237	43
705.419	42
706.599	50.5
707.782	54.5
708.962	52.5
710.143	52.5
711.323	48
712.504	42
713.684	40.5
714.864	38.5
716.043	38
717.223	29.5
718.403	30.5
719.582	32.5
720.761	35
721.94	27
723.118	31
724.296	32.5
725.474	31
726.652	27
727.831	30.5
729.009	27.5
730.186	31.5
731.363	29.5
732.54	27.5
733.717	28.5
734.893	28.5
736.07	27
737.246	29.5
738.422	29
739.598	28
740.773	27
741.949	26.5
743.124	28.5
744.299	29.5
745.474	27.5
746.649	29.5
747.823	30
748.997	28
750.172	30
751.346	26
752.519	25
753.693	23
754.867	27
756.038	26
757.211	32.5
758.384	28
759.557	31
760.73	28
761.902	32.5
763.074	27.5
764.246	24.5
765.417	30
766.588	27.5
767.76	28.5
768.931	29
770.102	28.5
771.271	29
772.442	31
773.613	28
774.783	26
775.952	27
777.122	29.5
778.291	31.5
779.461	25.5
780.629	33
781.798	31.5
782.967	32.5
784.135	32
785.304	30
786.472	34
787.639	33.5
788.807	26
789.975	27
791.142	31.5
792.309	38.5
793.477	31.5
794.642	29
795.81	27.5
796.975	25
798.142	32
799.308	27
800.473	27
801.639	27.5
802.804	30.5
803.97	27.5
805.134	28
806.299	26.5
807.463	32
808.628	26.5
809.792	26
810.957	29
812.12	27
813.284	29
814.447	27
815.611	26.5
816.773	28.5
817.937	28
819.099	28
820.261	30
821.424	26
822.585	25
823.748	27.5
824.909	33
826.07	27
827.232	28
828.393	26
829.554	27
830.715	26
831.875	30.5
833.035	22.5
834.196	28
835.356	27
836.515	31
837.676	29
838.835	26
839.994	28.5
841.152	33
842.312	31
843.47	27
844.629	27.5
845.786	27
846.946	27
848.103	28
849.261	27.5
850.418	30
851.575	28.5
852.733	25.5
853.89	32
855.046	29
856.203	27.5
857.359	29
858.515	29
859.67	30.5
860.827	29
861.983	30.5
863.138	32
864.293	31
865.448	31
866.603	27
867.757	31.5
868.912	26.5
870.066	28
871.22	28
872.374	27
873.527	29.5
874.681	29.5
875.834	30
876.987	27
878.14	27
879.293	30
880.445	27.5
881.598	30
882.75	28.5
883.902	27.5
885.054	28
886.206	29
887.357	29
888.507	26
889.658	27.5
890.809	24
891.96	28
893.111	26
894.261	26.5
895.411	23.5
896.561	28
897.71	26.5
898.86	23.5
900.009	26.5
901.159	24
902.308	30
903.455	28.5
904.604	29
905.753	28
906.901	27
908.048	24.5
909.197	27
910.344	28
911.492	25.5
912.639	26
913.786	30
914.933	30.5
916.079	28
917.226	27.5
918.373	24
919.518	29.5
920.664	25.5
921.81	27.5
922.955	27
924.101	25.5
925.245	25
926.391	25
927.536	26
928.68	26
929.825	26.5
930.968	26
932.113	29.5
933.256	25
934.4	26
935.543	27
936.687	27
937.83	23.5
938.973	28.5
940.115	25.5
941.258	29
942.399	27.5
943.542	28.5
944.684	24
945.826	29
946.967	24.5
948.109	26
949.25	25
950.392	27
951.532	27
952.672	22
953.813	29
954.953	24
956.093	24
957.233	30
958.373	23.5
959.512	31.5
960.652	27.5
961.791	23.5
962.929	27
964.069	25
965.207	24
966.345	23
967.484	26
968.622	28.5
969.759	23.5
970.896	26
972.035	27.5
973.172	25
974.309	24
975.445	29
976.582	27
977.719	24
978.855	25.5
979.991	22
981.127	27
982.263	26.5
983.398	26.5
984.535	23
985.67	27
986.804	26
987.939	26.5
989.074	25
990.208	25.5
991.342	27
992.476	29
993.61	24
994.744	28
995.877	25.5
997.01	25.5
998.143	22
999.276	27
1000.41	27.5
1001.54	25
1002.67	24.5
1003.81	22
1004.94	24.5
1006.07	26.5
1007.2	29.5
1008.33	28
1009.47	25
1010.6	26
1011.73	24.5
1012.86	27.5
1013.99	27
1015.12	25
1016.25	26.5
1017.38	26
1018.51	28.5
1019.64	22
1020.77	25
1021.9	25
1023.03	28
1024.15	25.5
1025.28	24.5
1026.41	24
1027.54	27
1028.67	31.5
1029.8	26.5
1030.92	26.5
1032.05	26
1033.18	25.5
1034.31	29.5
1035.43	27
1036.56	26.5
1037.69	25.5
1038.81	24
1039.94	24
1041.07	30.5
1042.19	25.5
1043.32	27
1044.44	29.5
1045.57	27.5
1046.69	28.5
1047.82	26.5
1048.94	29.5
1050.07	24.5
1051.19	26
1052.32	26
1053.44	24.5
1054.57	24.5
1055.69	26.5
1056.81	23
1057.94	28
1059.06	26
1060.18	26
1061.31	28
1062.43	27
1063.55	27
1064.67	25.5
1065.8	26.5
1066.92	27
1068.04	25.5
1069.16	26.5
1070.28	22
1071.4	27
1072.52	30
1073.64	27.5
1074.76	26.5
1075.89	22
1077.01	25
1078.13	28
1079.25	24
1080.37	27
1081.49	26
1082.6	22
1083.72	21.5
1084.84	26
1085.96	25.5
1087.08	24
1088.2	27.5
1089.32	25
1090.43	27.5
1091.55	23
1092.67	29
1093.79	26.5
1094.91	25
1096.02	25
1097.14	24
1098.26	26
1099.37	25
1100.49	23
1101.61	24.5
1102.72	23.5
1103.84	21
1104.95	24
1106.07	23.5
1107.18	27.5
1108.3	25
1109.41	23
1110.53	24
1111.64	29.5
1112.76	23
1113.87	26.5
1114.99	26.5
1116.1	31.5
1117.21	22
1118.33	26
1119.44	17.5
1120.55	28
1121.67	26.5
1122.78	25
1123.89	24.5
1125	20.5
1126.12	21.5
1127.23	26.5
1128.34	22.5
1129.45	26
1130.56	28
1131.68	27.5
1132.79	27
1133.9	28
1135.01	24
1136.12	23
1137.23	20.5
1138.34	26.5
1139.45	25
1140.56	25.5
1141.67	25
1142.78	23
1143.89	23
1145	23
1146.11	28
1147.22	27.5
1148.32	24
1149.43	24.5
1150.54	25.5
1151.65	23.5
1152.76	25.5
1153.86	23
1154.97	27.5
1156.08	28
1157.19	23.5
1158.29	26
1159.4	26
1160.51	23
1161.61	21.5
1162.72	26
1163.83	26.5
1164.93	25.5
1166.04	28
1167.14	27
1168.25	29
1169.35	26.5
1170.46	23
1171.56	20
1172.67	26.5
1173.77	23.5
1174.88	26
1175.98	26.5
1177.08	27.5
1178.19	25.5
1179.29	28
1180.4	23
1181.5	22
1182.6	25
1183.71	23
1184.81	27.5
1185.91	27
1187.01	22
1188.12	26
1189.22	24.5
1190.32	22
1191.42	22.5
1192.52	28
1193.62	24.5
1194.72	19.0052
1195.83	25.903
1196.93	23.9835
1198.03	21.1767
1199.13	24.0224
1200.23	24.4236
1201.33	24.5456
1202.43	24.8944
1203.53	27.4636
1204.63	23.8324
1205.73	22.8058
1206.83	24.5663
1207.92	25.7025
1209.02	26.9345
1210.12	23.912
1211.22	23.5051
1212.32	25.4724
1213.42	22.8737
1214.51	24.3823
1215.61	21.5451
1216.71	25.5015
1217.81	22.2803
1218.9	24.4489
1220	24.0292
1221.1	26.9534
1222.19	25.4582
1223.29	23.543
1224.39	24.1675
1225.48	28.1699
1226.58	26.2704
1227.68	24.5054
1228.77	21.8872
1229.87	23.5364
1230.96	22.043
1232.06	23.9181
1233.15	25.6523
1234.25	24.985
1235.34	24.3246
1236.43	24.4762
1237.53	22.8342
1238.62	24.4108
1239.72	24.8888
1240.81	24.8784
1241.9	24.0724
1243	24.8398
1244.09	25.0704
1245.18	23.3714
1246.27	24.7558
1247.37	26.5175
1248.46	23.4274
1249.55	26.5355
1250.64	26.2041
1251.74	22.1038
1252.83	28.0441
1253.92	25.1283
1255.01	25.9517
1256.1	26.9241
1257.19	28.3118
1258.28	24.5848
1259.38	26.7635
1260.46	25.9475
1261.56	27.9834
1262.65	26.6068
1263.74	23.0396
1264.82	26.3312
1265.91	26.245
1267	26.0943
1268.09	26.6065
1269.18	25.9109
1270.27	26.9862
1271.36	24.6819
1272.45	23.0099
1273.54	23.4876
1274.63	21.3509
1275.71	22.1018
1276.8	26.4653
1277.89	23.0413
1278.98	26.9904
1280.06	27.1482
1281.15	25.2109
1282.24	23.926
1283.32	25.0555
1284.41	23.9363
1285.5	23.1893
1286.58	24.3238
1287.67	24.8366
1288.76	25.1697
1289.84	24.7871
1290.93	25.861
1292.01	22.6013
1293.1	23.2076
1294.18	22.9134
1295.27	23.1897
1296.35	24.3773
1297.44	23.539
1298.52	24.7598
1299.6	25.6376
1300.69	24.8917
1301.77	26.2656
1302.86	25.9044
1303.94	24.4472
1305.02	22.5819
1306.11	24.5159
1306.41	25.5
1307.5	22
1308.59	21.5
1309.68	24
1310.77	21.5
1311.85	23
1312.94	27.5
1314.03	22
1315.11	25.5
1316.2	26
1317.29	25
1318.37	23
1319.46	26
1320.55	25
1321.63	25.5
1322.72	23
1323.8	27
1324.89	21.5
1325.98	25
1327.06	23.5
1328.15	23
1329.23	26
1330.31	28
1331.4	23
1332.48	27.5
1333.57	27
1334.65	24.5
1335.74	27
1336.82	23.5
1337.9	23.5
1338.99	27.5
1340.07	22
1341.15	27.5
1342.24	28.5
1343.32	25.5
1344.4	27.5
1345.48	23
1346.56	23.5
1347.65	24.5
1348.73	23
1349.81	27
1350.89	28
1351.97	22.5
1353.05	25.5
1354.13	24.5
1355.21	22
1356.29	25
1357.37	24
1358.46	28
1359.54	25.5
1360.62	25
1361.69	25
1362.77	23.5
1363.85	26.5
1364.93	26
1366.01	27
1367.09	24.5
1368.17	23.5
1369.25	25.5
1370.33	25.5
1371.41	22.5
1372.48	25.5
1373.56	25.5
1374.64	24
1375.72	23.5
1376.79	26
1377.87	25
1378.95	27
1380.02	21
1381.1	26
1382.18	29
1383.25	28.5
1384.33	22
1385.4	27.5
1386.48	27
1387.56	25
1388.63	24
1389.71	27.5
1390.78	27
1391.86	27
1392.93	25
1394.01	25.5
1395.08	27.5
1396.15	24.5
1397.23	29
1398.3	28.5
1399.38	29
1400.45	28.5
1401.52	28
1402.6	28.5
1403.67	30
1404.74	29
1405.81	29
1406.89	30.5
1407.96	29.5
1409.03	29
1410.1	28.5
1411.17	28.5
1412.25	29.5
1413.32	30
1414.39	33.5
1415.46	33
1416.53	26
1417.6	30
1418.67	29.5
1419.74	28
1420.81	29
1421.88	27
1422.95	30
1424.02	28
1425.09	27
1426.16	30
1427.23	24
1428.3	27.5
1429.37	26.5
1430.44	26.5
1431.51	27
1432.58	23.5
1433.64	24.5
1434.71	22.5
1435.78	28.5
1436.85	28.5
1437.92	26.5
1438.98	23
1440.05	23.5
1441.12	24.5
1442.18	29
1443.25	23.5
1444.32	31
1445.38	27
1446.45	26
1447.52	23.5
1448.58	27.5
1449.65	28.5
1450.71	27
1451.78	29
1452.84	26
1453.91	26
1454.97	26
1456.04	22.5
1457.1	25.5
1458.17	25.5
1459.23	26
1460.3	25
1461.36	26
1462.42	26
1463.49	27
1464.55	27
1465.61	28
1466.68	26
1467.74	23
1468.8	26
1469.86	25
1470.93	24.5
1471.99	28.5
1473.05	22
1474.11	23
1475.17	24.5
1476.24	27.5
1477.3	27
1478.36	24.5
1479.42	24
1480.48	21
1481.54	23.5
1482.6	29.5
1483.66	23
1484.72	26
1485.78	26
1486.84	27.5
1487.9	27.5
1488.96	26.5
1490.02	29
1491.08	25
1492.14	28.5
1493.2	24
1494.26	25
1495.31	25.5
1496.37	27
1497.43	26
1498.49	27
1499.55	25
1500.6	23
1501.66	23
1502.72	30
1503.78	25.5
1504.83	21.5
1505.89	26
1506.95	25.5
1508	25
1509.06	27.5
1510.12	23.5
1511.17	27.5
1512.23	25.5
1513.28	23.5
1514.34	28
1515.39	26.5
1516.45	28.5
1517.5	26
1518.56	26
1519.61	24
1520.67	28
1521.72	28.5
1522.78	25
1523.83	27.5
1524.88	26.5
1525.94	28
1526.99	22
1528.05	25.5
1529.1	28.5
1530.15	28
1531.2	28.5
1532.26	31.5
1533.31	30
1534.36	23.5
1535.41	26.5
1536.47	24
1537.52	30
1538.57	22.5
1539.62	23
1540.67	27
1541.72	28
1542.77	26.5
1543.83	26
1544.88	21
1545.93	23
1546.98	28
1548.03	24.5
1549.08	23.5
1550.13	26
1551.18	29.5
1552.23	27.5
1553.28	28
1554.32	23
1555.37	26.5
1556.42	24.5
1557.47	29
1558.52	23
1559.57	24
1560.62	25
1561.67	30
1562.71	27
1563.76	24
1564.81	27.5
1565.86	27.5
1566.9	26.5
1567.95	25
1569	26
1570.04	25.5
1571.09	25
1572.14	27
1573.18	27
1574.23	29
1575.27	29
1576.32	22
1577.37	25
1578.41	26.5
1579.46	29.5
1580.5	25.5
1581.55	24.5
1582.59	24.5
1583.64	26.5
1584.68	25
1585.72	23
1586.77	25.5
1587.81	23.5
1588.86	22.5
1589.9	25
1590.94	27
1591.99	23
1593.03	25.5
1594.07	23.5
1595.12	26
1596.16	30.5
1597.2	25.5
1598.24	24.5
1599.29	25
1600.33	24
1601.37	26
1602.41	23.5
1603.45	25
1604.49	26
1605.53	26.5
1606.58	25
1607.62	26
1608.66	24.5
1609.7	27.5
1610.74	25
1611.78	28
1612.82	24
1613.86	29.5
1614.9	23
1615.94	23.5
1616.98	24.5
1618.02	26
1619.06	26
1620.09	25
1621.13	24
1622.17	26.5
1623.21	25
1624.25	27.5
1625.29	24.5
1626.32	24
1627.36	28.5
1628.4	25.5
1629.44	28
1630.47	26
1631.51	26
1632.55	28
1633.58	25
1634.62	25.5
1635.66	27.5
1636.69	26
1637.73	27
1638.77	27.5
1639.8	29
1640.84	24.5
1641.87	29
1642.91	29.5
1643.94	22
1644.98	22
1646.01	23
1647.05	25.5
1648.08	25
1649.12	24
1650.15	26
1651.18	25
1652.22	26
1653.25	25
1654.29	27.5
1655.32	26
1656.35	22
1657.39	22
1658.42	25.5
1659.45	26
1660.48	28
1661.52	27
1662.55	25
1663.58	23.5
1664.61	24
1665.64	22
1666.68	26
1667.71	24
1668.74	27.5
1669.77	28
1670.8	24.5
1671.83	27
1672.86	22
1673.89	26
1674.92	21.5
1675.95	24
1676.98	30
1678.01	29
1679.04	24
1680.07	27
1681.1	25.5
1682.13	24.5
1683.16	27
1684.19	22.5
1685.22	24.5
1686.25	29
1687.27	28
1688.3	27.5
1689.33	24
1690.36	28
1691.38	26.5
1692.41	26
1693.44	24.5
1694.47	22
1695.49	22.5
1696.52	29.5
1697.55	26
1698.57	24.5
1699.6	25.5
1700.63	26.5
1701.65	24
1702.68	26.5
1703.7	28.5
1704.73	26
1705.76	27
1706.78	23.5
1707.81	24.5
1708.83	28.5
1709.86	26.5
1710.88	23
1711.91	26
1712.93	25.5
1713.95	27.5
1714.98	26
1716	23.5
1717.03	24
1718.05	23
1719.07	23.5
1720.1	28
1721.12	27.5
1722.14	25.5
1723.16	26
1724.19	27
1725.21	23
1726.23	28
1727.25	26
1728.28	30
1729.3	21
1730.32	25.5
1731.34	24.5
1732.36	28
1733.38	24
1734.41	27.5
1735.43	26
1736.45	24
1737.47	24.5
1738.49	28
1739.51	23
1740.53	27.5
1741.55	28
1742.57	22
1743.59	24
1744.61	27
1745.63	27.5
1746.64	27
1747.66	25.5
1748.68	21
1749.7	23.5
1750.72	24.5
1751.74	20
1752.76	22
1753.77	26.5
1754.79	27.5
1755.81	25
1756.83	26
1757.84	28
1758.86	25.5
1759.88	27
1760.9	26
1761.91	29
1762.93	27.5
1763.95	26.5
1764.96	25.5
1765.98	30
1766.99	24.5
1768.01	23.5
1769.02	21.5
1770.04	28
1771.06	26
1772.07	28.5
1773.09	23
1774.1	25.5
1775.12	26
1776.13	25.5
1777.14	24
1778.16	23.5
1779.17	23.5
1780.19	25
1781.2	22
1782.21	26
1783.23	25
1784.24	25
1785.25	27.5
1786.27	26.5
1787.28	29.5
1788.29	23
1789.3	26
1790.32	24
1791.33	22.5
1792.34	28.5
1793.35	25
1794.36	24
1795.38	26.5
1796.39	22
1797.4	22
1798.41	24.5
1799.42	24.5
1800.43	24.5
1801.44	25
1802.45	21
1803.46	23.5
1804.47	28
1805.48	24
1806.49	25
1807.5	23.5
1808.51	22
1809.52	24
1810.53	26
1811.54	26.5
1812.55	25.5
1813.56	29.5
1814.57	24
1815.57	27
1816.58	25.5
1817.59	25.5
1818.6	27
1819.61	24.5
1820.61	21.5
1821.62	26
1822.63	26.5
1823.64	23
1824.64	23
1825.65	24
1826.66	22.5
1827.66	23
1828.67	28
1829.68	27.5
1830.68	23
1831.69	22
1832.69	27.5
1833.7	28.5
1834.7	29.5
1835.71	24.5
1836.71	24.5
1837.72	23.5
1838.72	19.5
1839.73	24.5
1840.73	27.5
1841.74	20
1842.74	25
1843.75	22
1844.75	25
1845.75	26
1846.76	29
1847.76	25
1848.76	26.5
1849.77	22.5
1850.77	23.5
1851.77	23
1852.78	31
1853.78	21.5
1854.78	29
1855.78	28.5
1856.78	29
1857.79	23.5
1858.79	23.5
1859.79	23.5
1860.79	24
1861.79	26
1862.79	26
1863.79	23.5
1864.79	24
1865.79	27.5
1866.8	24
1867.8	24
1868.8	22.5
1869.8	25
1870.8	26
1871.8	27.5
1872.8	23
1873.79	26
1874.79	26.5
1875.79	23
1876.79	25
1877.79	25
1878.79	19.5
1879.79	27
1880.79	23
1881.78	22
1882.78	23.5
1883.78	26
1884.78	21
1885.77	26
1886.77	26.5
1887.77	22.5
1888.77	24.5
1889.76	26.5
1890.76	25
1891.76	22.5
1892.75	21.5
1893.75	25
1894.75	28.5
1895.74	27
1896.74	24.5
1897.73	25.5
1898.73	22
1899.73	24
1900.72	23.5
1901.72	29
1902.71	22.5
1903.7	22
1904.7	25
1905.69	24.5
1906.69	20.5
1907.68	28.5
1908.68	26.5
1909.67	25.5
1910.66	23.5
1911.66	23
1912.65	25.5
1913.64	24
1914.64	20.5
1915.63	27.5
1916.62	24
1917.62	26
1918.61	23
1919.6	22.5
1920.59	24.5
1921.58	26
1922.58	22
1923.57	25.5
1924.56	25.5
1925.55	26
1926.54	22
1927.53	26.5
1928.52	25
1929.51	25
1930.51	25
1931.5	22
1932.49	24.5
1933.48	25
1934.47	23.5
1935.46	28
1936.45	21
1937.44	27.5
1938.42	25.5
1939.41	21
1940.4	27.5
1941.39	26
1942.38	26.5
1943.37	26
1944.36	23.5
1945.35	20
1946.33	22.5
1947.32	23
1948.31	27
1949.3	29
1950.29	24.5
1951.27	25
1952.26	24.5
1953.25	24
1954.23	27
1955.22	26.5
1956.21	27
1957.19	24.5
1958.18	27.5
1959.17	27
1960.15	23.5
1961.14	24
1962.13	24.5
1963.11	23
1964.1	26
1965.08	26
1966.07	27
1967.05	21
1968.04	23.5
1969.02	25.5
1970.01	24
1970.99	25
1971.97	25.5
1972.96	20.5
1973.94	22
1974.93	25
1975.91	23.5
1976.89	23
1977.88	22
1978.86	26
1979.84	22.5
1980.83	24
1981.81	27
1982.79	27.5
1983.77	26
1984.76	25
1985.74	27
1986.72	21.5
1987.7	26
1988.68	27
1989.67	21
1990.65	25.5
1991.63	23
1992.61	25.5
1993.59	21
1994.57	28.5
1995.55	24.5
1996.53	25.5
1997.51	22.5
1998.49	28
1999.47	21
2000.45	23.5
2001.43	24
2002.41	22.5
2003.39	25
2004.37	23.5
2005.35	22
2006.33	21.5
2007.31	25.5
2008.29	26
2009.26	19.5
2010.24	21
2011.22	22.5
2012.2	19.5
2013.18	27.5
2014.15	25.5
2015.13	25.5
2016.11	24
2017.09	23.5
2018.06	27.5
2019.04	27
2020.02	25.5
2021	26
2021.97	27
2022.95	24
2023.92	24.5
2024.9	23.5
2025.88	25
2026.85	24
2027.83	25
2028.8	26.5
2029.78	23
2030.75	22
2031.73	23
2032.7	21
2033.68	24
2034.65	23
2035.63	24
2036.6	26.5
2037.58	24.5
2038.55	21.5
2039.52	22.5
2040.5	24
2041.47	22
2042.45	25.5
2043.42	19
2044.39	25.5
2045.36	23.5
2046.34	28
2047.31	21.5
2048.28	20
2049.26	21
2050.23	22.5
2051.2	24.5
2052.17	23
2053.14	22.5
2054.12	22
2055.09	22.5
2056.06	21.5
2057.03	25
2058	25.5
2058.97	26
2059.94	22.5
2060.91	24
2061.88	22.5
2062.85	23.5
2063.82	23
2064.79	28
2065.76	25
2066.73	25
2067.7	23.5
2068.67	26.5
2069.64	25
2070.61	25
2071.58	21.5
2072.55	25.5
2073.52	25.5
2074.49	25
2075.45	29.5
2076.42	23.5
2077.39	24.5
2078.36	21.5
2079.33	26.5
2080.29	24.5
2081.26	23
2082.23	25
2083.2	23
2084.16	23.5
2085.13	22.5
2086.1	23.5
2087.06	24
2088.03	23.5
2089	24.5
2089.96	23.5
2090.93	25
2091.89	23
2092.86	23.5
2093.83	25.5
2094.79	23
2095.76	24.5
2096.72	25.5
2097.69	22.5
2098.65	23.5
2099.62	24
2100.58	24
2101.55	22.5
2102.51	24
2103.47	22
2104.44	28
2105.4	21
2106.36	24.5
2107.33	21
2108.29	25.5
2109.25	22
2110.22	21.5
2111.18	22
2112.14	17
2113.11	22
2114.07	24
2115.03	23.5
2115.99	22
2116.96	25
2117.92	22.5
2118.88	28
2119.84	25
2120.8	26.5
2121.76	19.5
2122.72	25
2123.68	25.5
2124.65	24.5
2125.61	23
2126.57	20.5
2127.53	21
2128.49	22
2129.45	24
2130.41	24.5
2131.37	23
2132.33	26.5
2133.29	25.5
2134.25	20
2135.21	22.5
2136.17	21
2137.12	22
2138.08	22
2139.04	24.5
2140	22
2140.96	25.5
2141.92	20
2142.88	24.9903
2143.83	23.4507
2144.79	22.5695
2145.75	22.5711
2146.71	21.0918
2147.66	22.9883
2148.62	23.9984
2149.58	23.3545
2150.53	29.3817
2151.49	19.6828
2152.45	27.5023
2153.4	22.9399
2154.36	21.7323
2155.32	24.5708
2156.27	23.8019
2157.23	19.8485
2158.19	26.2273
2159.14	21.9566
2160.1	22.6562
2161.05	21.8426
2162.01	23.2085
2162.96	18.3797
2163.92	22.4405
2164.87	22.714
2165.83	23.6797
2166.78	21.292
2167.73	22.7138
2168.69	25.4058
2169.64	22.1383
2170.6	25.5702
2171.55	23.6751
2172.5	23.0078
2173.46	21.2418
2174.41	23.7504
2175.36	24.1907
2176.32	22.2581
2177.27	22.3788
2178.22	23.7275
2179.18	22.9671
2180.13	22.6938
2181.08	22.6514
2182.03	22.3699
2182.98	24.8777
2183.94	24.172
2184.89	24.6311
2185.84	18.9481
2186.79	20.866
2187.74	21.0618
2188.69	21.2045
2189.64	21.383
2190.6	23.9314
2191.55	22.2869
2192.5	23.728
2193.45	20.5813
2194.4	22.8278
2195.35	22.3911
2196.3	22.771
2197.25	20.5033
2198.2	23.0074
2199.15	23.6222
2200.1	21.7639
2201.04	22.2703
2201.99	23.2878
2202.94	23.0492
2203.89	22.4811
2204.84	23.639
2205.79	22.5468
2206.74	24.103
2207.69	22.1205
2208.63	21.8347
2209.58	22.7419
2210.53	23.5907
2211.48	22.6116
2212.43	21.9176
2213.37	24.8072
2214.32	22.2082
2215.27	22.3088
2216.21	22.9896
2217.16	24.7621
2218.11	22.4946
2219.05	24.4834
2220	24.0993
2220.95	22.0616
2221.89	20.8658
2222.84	22.5947
2223.78	24.8086
2224.73	19.3381
2225.68	19.393
2226.62	22.8685
2227.57	20.9013
2228.51	21.0302
2229.46	20.1289
2230.4	22.1587
2231.35	21.9477
2232.29	20.4734
2233.24	20.5899
2234.18	20.2532
2235.12	20.9085
2236.07	21.4189
2237.01	23.7798
2237.95	23.2927
2238.9	25.6167
2239.84	24.1869
2240.06	23.5
2241.01	22
2241.96	24.5
2242.91	22
2243.86	24.5
2244.8	19.5
2245.75	23
2246.7	24
2247.65	26
2248.59	22
2249.54	21.5
2250.49	22.5
2251.43	19.5
2252.38	24
2253.33	22
2254.27	17
2255.22	26.5
2256.16	26
2257.11	25
2258.06	22.5
2259	24
2259.95	20
2260.89	22.5
2261.84	23
2262.78	24
2263.73	22.5
2264.67	24.5
2265.62	21
2266.56	22.5
2267.5	25
2268.45	24
2269.39	25
2270.34	23.5
2271.28	26
2272.22	22
2273.17	24.5
2274.11	20
2275.05	23
2276	24.5
2276.94	21.5
2277.88	22
2278.82	22.5
2279.77	25
2280.71	19
2281.65	27
2282.59	23.5
2283.53	22
2284.48	24.5
2285.42	24
2286.36	22
2287.3	24.5
2288.24	25
2289.18	22
2290.12	19
2291.06	23
2292	21
2292.94	21.5
2293.89	20
2294.83	22.5
2295.77	23
2296.71	22
2297.65	22.5
2298.58	22
2299.52	25.5
2300.46	23.5
2301.4	21.5
2302.34	19.5
2303.28	22
2304.22	25.5
2305.16	23
2306.1	23
2307.03	23.5
2307.97	23
2308.91	17.5
2309.85	25.5
2310.79	22.5
2311.72	24.5
2312.66	23
2313.6	21
2314.54	24
2315.47	19
2316.41	23
2317.35	27
2318.28	22.5
2319.22	24
2320.16	24.5
2321.09	21
2322.03	26
2322.96	24.5
2323.9	26
2324.84	23
2325.77	26.5
2326.71	21
2327.64	23.5
2328.58	23
2329.51	22
2330.45	23
2331.38	22.5
2332.32	26
2333.25	22
2334.18	26
2335.12	26
2336.05	21
2336.99	24.5
2337.92	21
2338.85	24.5
2339.79	23
2340.72	22.5
2341.65	24
2342.59	28
2343.52	22
2344.45	21.5
2345.39	24.5
2346.32	24.5
2347.25	26
2348.18	20.5
2349.11	23.5
2350.05	25
2350.98	21
2351.91	23
2352.84	25
2353.77	21.5
2354.7	23
2355.64	20.5
2356.57	21
2357.5	25.5
2358.43	23.5
2359.36	26
2360.29	25.5
2361.22	22
2362.15	22
2363.08	26
2364.01	20
2364.94	24.5
2365.87	23.5
2366.8	22
2367.73	26.5
2368.66	26
2369.58	23.5
2370.51	22.5
2371.44	23
2372.37	24
2373.3	25
2374.23	22.5
2375.16	25
2376.08	24.5
2377.01	22.5
2377.94	24.5
2378.87	24
2379.8	22
2380.72	27.5
2381.65	24
2382.58	23
2383.5	21
2384.43	25.5
2385.36	23
2386.28	23
2387.21	21.5
2388.14	23
2389.06	23.5
2389.99	21
2390.91	25.5
2391.84	22.5
2392.77	25
2393.69	22
2394.62	23
2395.54	23.5
2396.47	25.5
2397.39	23
2398.32	26
2399.24	29
2400.16	20
2401.09	19
2402.01	22
2402.94	26.5
2403.86	24
2404.78	25
2405.71	26.5
2406.63	24
2407.56	18
2408.48	25.5
2409.4	24
2410.32	22.5
2411.25	21
2412.17	24
2413.09	20.5
2414.02	23
2414.94	25.5
2415.86	26
2416.78	23
2417.7	23
2418.63	25
2419.55	21.5
2420.47	21.5
2421.39	23.5
2422.31	24
2423.23	24
2424.15	23
2425.07	22
2425.99	24.5
2426.92	26.5
2427.84	26.5
2428.76	20.5
2429.68	24.5
2430.59	25
2431.51	26
2432.43	25.5
2433.35	20
2434.27	26
2435.19	22
2436.11	19
2437.03	29
2437.95	28
2438.87	22.5
2439.79	23.5
2440.71	25.5
2441.62	19
2442.54	23
2443.46	25
2444.38	24
2445.3	19
2446.21	22.5
2447.13	26
2448.05	23.5
2448.97	23.5
2449.88	23.5
2450.8	24
2451.72	28.5
2452.63	20.5
2453.55	24.5
2454.47	22.5
2455.38	21
2456.3	26
2457.21	24.5
2458.13	23.5
2459.05	22.5
2459.96	21.5
2460.88	19
2461.79	23
2462.71	26
2463.62	23
2464.54	24.5
2465.45	21.5
2466.37	28.5
2467.28	24.5
2468.2	25.5
2469.11	27
2470.02	23
2470.94	27
2471.85	24.5
2472.77	24
2473.68	22
2474.59	24
2475.51	25.5
2476.42	24.5
2477.33	26.5
2478.25	20
2479.16	23
2480.07	22
2480.98	30.5
2481.9	21.5
2482.81	25
2483.72	23
2484.63	21
2485.55	21
2486.46	25.5
2487.37	23.5
2488.28	21
2489.19	22
2490.1	23.5
2491.01	25
2491.92	25
2492.83	23.5
2493.74	24
2494.66	22.5
2495.57	22.5
2496.48	24.5
2497.39	23.5
2498.3	30.5
2499.21	26.5
2500.12	25.5
2501.03	20
2501.93	24.5
2502.84	25
2503.75	22.5
2504.66	25.5
2505.57	26
2506.48	27.5
2507.39	27.5
2508.3	24
2509.21	23.5
2510.11	24
2511.02	24
2511.93	24.5
2512.84	18.5
2513.75	23
2514.65	24.5
2515.56	24.5
2516.47	23
2517.37	23.5
2518.28	24
2519.19	28
2520.09	24
2521	29
2521.91	23.5
2522.81	26
2523.72	23.5
2524.63	24.5
2525.53	24
2526.44	26.5
2527.34	21
2528.25	27.5
2529.16	24.5
2530.06	25
2530.97	20
2531.87	20
2532.78	23.5
2533.68	28.5
2534.58	26
2535.49	24.5
2536.39	24.5
2537.3	24.5
2538.2	25
2539.11	25
2540.01	24.5
2540.91	26
2541.82	28
2542.72	24.5
2543.62	26
2544.53	26
2545.43	21
2546.33	24
2547.23	21.5
2548.14	28.5
2549.04	24
2549.94	23
2550.84	25
2551.75	25
2552.65	26
2553.55	24
2554.45	24.5
2555.35	24.5
2556.26	23
2557.16	23.5
2558.06	27
2558.96	26
2559.86	22
2560.76	24.5
2561.66	22.5
2562.56	21
2563.46	23.5
2564.36	23
2565.26	19
2566.16	21
2567.06	22
2567.96	24
2568.86	24
2569.76	23.5
2570.66	27.5
2571.56	24
2572.46	25
2573.36	24.5
2574.26	24
2575.16	22.5
2576.05	23
2576.95	23.5
2577.85	29
2578.75	24.5
2579.65	24.5
2580.54	21
2581.44	21
2582.34	25
2583.24	20
2584.13	26
2585.03	27.5
2585.93	20.5
2586.83	25
2587.72	22.5
2588.62	22
2589.52	23
2590.41	24.5
2591.31	24
2592.2	23
2593.1	21
2594	24.5
2594.89	23
2595.79	26.5
2596.68	22.5
2597.58	27
2598.47	22.5
2599.37	27
2600.26	26
2601.16	27.5
2602.05	25.5
2602.95	21.5
2603.84	28.5
2604.74	23
2605.63	26.5
2606.52	22.5
2607.42	26
2608.31	22
2609.21	22
2610.1	24
2610.99	22.5
2611.89	22
2612.78	25.5
2613.67	23
2614.56	23.5
2615.46	26
2616.35	22
2617.24	24
2618.13	25
2619.03	24
2619.92	21
2620.81	25
2621.7	24
2622.59	25.5
2623.49	24.5
2624.38	23
2625.27	24.5
2626.16	24
2627.05	27
2627.94	23
2628.83	26
2629.72	18
2630.61	25
2631.5	24
2632.39	23.5
2633.28	23.5
2634.17	26
2635.06	20.5
2635.95	24
2636.84	24
2637.73	23.5
2638.62	26
2639.51	27
2640.4	23
2641.29	25
2642.18	25
2643.07	24.5
2643.96	25.5
2644.84	26.5
2645.73	23.5
2646.62	23
2647.51	25.5
2648.4	22
2649.28	25.5
2650.17	23
2651.06	25.5
2651.95	23
2652.83	21
2653.72	23
2654.61	23.5
2655.49	24
2656.38	26
2657.27	25
2658.16	19.5
2659.04	23.5
2659.93	23
2660.81	21
2661.7	24
2662.59	25
2663.47	23.5
2664.36	25
2665.24	28
2666.13	25
2667.01	24
2667.9	26
2668.78	24
2669.67	26.5
2670.55	24.5
2671.44	28.5
2672.32	20
2673.21	27
2674.09	20
2674.97	26.5
2675.86	25.5
2676.74	24.5
2677.62	25.5
2678.51	21
2679.39	26
2680.27	26
2681.16	25.5
2682.04	24
2682.92	23.5
2683.81	26
2684.69	24
2685.57	23
2686.45	24.5
2687.34	26
2688.22	22.5
2689.1	23.5
2689.98	23
2690.86	22.5
2691.75	24.5
2692.63	24
2693.51	26
2694.39	24.5
2695.27	20
2696.15	26.5
2697.03	24
2697.91	26
2698.79	25
2699.67	22
2700.55	24
2701.43	22.5
2702.31	24
2703.19	23.5
2704.07	27.5
2704.95	28
2705.83	23
2706.71	23.5
2707.59	21.5
2708.47	24
2709.35	21
2710.23	22.5
2711.11	27
2711.99	25
2712.86	23
2713.74	22.5
2714.62	26
2715.5	27
2716.38	21.5
2717.26	27
2718.13	29
2719.01	20.5
2719.89	24.5
2720.77	22
2721.64	20
2722.52	26
2723.4	26.5
2724.27	24
2725.15	24
2726.03	18
2726.9	26.5
2727.78	25
2728.66	24.5
2729.53	24
2730.41	23.5
2731.28	22.5
2732.16	23
2733.03	23
2733.91	26
2734.79	23.5
2735.66	26
2736.54	26
2737.41	22
2738.29	26.5
2739.16	24
2740.03	21.5
2740.91	19
2741.78	28
2742.66	25
2743.53	28
2744.41	25
2745.28	23
2746.15	26.5
2747.03	23
2747.9	26
2748.77	24.5
2749.65	22
2750.52	23
2751.39	27
2752.27	24
2753.14	25
2754.01	25
2754.88	24
2755.75	20
2756.63	26
2757.5	27.5
2758.37	24
2759.24	26
2760.11	20
2760.99	22.5
2761.86	26.5
2762.73	22.5
2763.6	20.5
2764.47	23.5
2765.34	26.5
2766.21	23
2767.08	27.5
2767.95	22
2768.82	27
2769.69	20
2770.56	25
2771.43	23.5
2772.3	24
2773.17	25.5
2774.04	28
2774.91	29
2775.78	26.5
2776.65	25.5
2777.52	28
2778.39	22.5
2779.26	24.5
2780.13	25.5
2780.99	23.5
2781.86	25
2782.73	26.5
2783.6	25.5
2784.47	26
2785.34	19
2786.2	20.5
2787.07	27
2787.94	27
2788.81	28.5
2789.67	25
2790.54	29.5
2791.41	26
2792.27	25.5
2793.14	24.5
2794.01	28.5
2794.87	27.5
2795.74	23
2796.61	26
2797.47	22.5
2798.34	27
2799.21	28
2800.07	26.5
2800.94	28.25
2801.8	25
2802.67	27
2803.53	23
2804.4	29
2805.26	20
2806.13	21.5
2806.99	23.5
2807.86	22
2808.72	24.5
2809.59	31.5
2810.45	24.5
2811.32	27
2812.18	25.5
2813.04	24
2813.91	26.5
2814.77	26
2815.64	29
2816.5	23.5
2817.36	25
2818.22	21.5
2819.09	30.5
2819.95	27.5
2820.81	26.5
2821.68	23
2822.54	28.5
2823.4	23
2824.26	23
2825.13	27.5
2825.99	28
2826.85	28
2827.71	25
2828.57	25
2829.44	27
2830.3	26.5
2831.16	24.5
2832.02	26.5
2832.88	25.5
2833.74	28
2834.6	20
2835.46	29.5
2836.32	26.5
2837.18	27.5
2838.04	26
2838.9	26
2839.76	24
2840.62	27
2841.48	25
2842.34	25
2843.2	31.5
2844.06	28.5
2844.92	28
2845.78	25.5
2846.64	24
2847.5	27
2848.36	20
2849.22	28
2850.08	27
2850.93	26.5
2851.79	28
2852.65	30
2853.51	26.5
2854.37	24.5
2855.22	23
2856.08	24
2856.94	27.5
2857.8	22
2858.65	26.5
2859.51	21.5
2860.37	28
2861.23	26
2862.08	25
2862.94	27
2863.79	26
2864.65	24
2865.51	30
2866.36	25
2867.22	25.5
2868.08	28
2868.93	29
2869.79	26
2870.64	28.5
2871.5	26
2872.35	29
2873.21	24
2874.06	28.5
2874.92	23
2875.77	29
2876.63	36
2877.48	32
2878.34	35.5
2879.19	27
2880.05	31
2880.9	28.5
2881.76	31
2882.61	34
2883.46	34.5
2884.32	32.5
2885.17	34.5
2886.02	32
2886.88	34
2887.73	39
2888.58	36
2889.44	38.5
2890.29	38
2891.14	39.5
2891.99	40
2892.85	44
2893.7	44
2894.55	42
2895.4	49.5
2896.25	47
2897.11	52
2897.96	48.5
2898.81	56
2899.66	55
2900.51	63.5
2901.36	68
2902.21	64.5
2903.07	65.5
2903.92	67
2904.77	64.5
2905.62	70
2906.47	70
2907.32	71
2908.17	65
2909.02	65
2909.87	63
2910.72	63
2911.57	67
2912.42	51
2913.27	50.5
2914.12	51.5
2914.97	46.5
2915.81	47
2916.66	44.5
2917.51	39.5
2918.36	38
2919.21	37
2920.06	38
2920.91	38.5
2921.75	37
2922.6	34
2923.45	32.5
2924.3	36.5
2925.15	33.5
2925.99	27.5
2926.84	32.5
2927.69	32
2928.54	33.5
2929.38	24.5
2930.23	29.5
2931.08	30
2931.92	29.5
2932.77	28.5
2933.62	28
2934.46	24.5
2935.31	26
2936.16	26.5
2937	29.5
2937.85	26.5
2938.69	22
2939.54	27
2940.38	26
2941.23	28
2942.08	29.5
2942.92	26.5
2943.77	30.5
2944.61	29
2945.46	26.5
2946.3	25
2947.15	25
2947.99	30.5
2948.83	28
2949.68	29
2950.52	28.5
2951.37	32
2952.21	33
2953.05	30
2953.9	32
2954.74	36.5
2955.58	33
2956.43	32.5
2957.27	36.5
2958.11	38
2958.96	38.5
2959.8	43.5
2960.64	44.5
2961.48	43.5
2962.33	41.5
2963.17	43.5
2964.01	48
2964.85	42.5
2965.69	43
2966.54	45.5
2967.38	40.5
2968.22	48.5
2969.06	40
2969.9	40
2970.74	39
2971.58	38
2972.43	36.9404
2973.27	38.4438
2974.11	39.258
2974.95	31.2424
2975.79	36.6859
2976.63	30.7982
2977.47	32.86
2978.31	29.1696
2979.15	29.6791
2979.99	25.7981
2980.83	27.751
2981.67	29.7893
2982.51	28.83
2983.35	27.2714
2984.19	30.0309
2985.03	28.0734
2985.86	27.4903
2986.7	22.7989
2987.54	26.6561
2988.38	28
2989.22	28.555
2990.06	26.6197
2990.9	22.2496
2991.73	25.9304
2992.57	27.0898
2993.41	24.5995
2994.25	25.7249
2995.09	25.259
2995.92	24.9818
2996.76	23.4491
2997.6	23.1369
2998.44	27.2189
2999.27	23.1464
3000.11	21.2497
3000.95	21.5147
3001.78	26.5013
3002.62	23.6883
3003.46	25.5402
3004.29	24.6879
3005.13	23.9308
3005.96	24.996
3006.8	23.4957
3007.64	21.5254
3008.47	24.0301
3009.31	22.7114
3010.14	21.5332
3010.98	23.867
3011.81	25.341
3012.65	23.1966
3013.48	23.5207
3014.32	21.6055
3015.15	21.8918
3015.99	21.2984
3016.82	21.9417
3017.66	23.4706
3018.49	21.9559
3019.33	21.9932
3020.16	23.264
3020.99	23.826
3021.83	22.7672
3022.66	23.1379
3023.5	21.166
3024.33	22.1018
3025.16	22.318
3026	23.4459
3026.83	25.9565
3027.66	24.2499
3028.49	23.7513
3029.33	22.7719
3030.16	23.517
3030.99	23.6589
3031.83	22.2108
3032.66	23.3474
3033.49	21.6696
3034.32	20.4194
3035.15	21.2953
3035.99	22.9067
3036.82	24.6303
3037.65	23.2641
3038.48	20.7212
3039.31	22.7161
3040.14	22.1218
3040.97	21.7496
3041.81	22.8671
3042.64	22.9808
3043.47	22.4633
3044.3	24.1394
3045.13	23.6369
3045.96	20.5082
3046.79	21.6773
3047.62	24.6927
3048.45	21.4021
3049.28	20.8377
3050.11	22.2081
3050.94	25.1957
3051.77	23.8497
3052.6	22.3082
3053.43	22.9126
3054.26	23.284
3055.08	22.883
3055.91	22.5763
3056.74	24.2371
3057.26	23
3058.09	23.5
3058.92	20
3059.76	26
3060.59	22
3061.42	19.5
3062.25	23
3063.09	24.5
3063.92	23.5
3064.75	25
3065.58	21.5
3066.42	22.5
3067.25	22.5
3068.08	21.5
3068.91	21.5
3069.74	24
3070.57	25
3071.41	23.5
3072.24	23
3073.07	22.5
3073.9	21.5
3074.73	22
3075.56	20.5
3076.39	19
3077.22	23.5
3078.05	21.5
3078.88	23.5
3079.71	28
3080.54	25
3081.37	24.5
3082.2	27
3083.03	24
3083.86	22.5
3084.69	23.5
3085.52	22
3086.35	21
3087.18	25
3088.01	24.5
3088.84	23
3089.67	22
3090.5	27.5
3091.32	19.5
3092.15	21
3092.98	23
3093.81	23.5
3094.64	26.5
3095.47	24
3096.29	23
3097.12	21
3097.95	22.5
3098.78	22
3099.6	26
3100.43	20.5
3101.26	22
3102.09	22
3102.91	20
3103.74	25
3104.57	24.5
3105.39	21.5
3106.22	23.5
3107.05	24.5
3107.87	22.5
3108.7	25
3109.52	20.5
3110.35	23
3111.18	23.5
3112	26
3112.83	26.5
3113.65	23
3114.48	22
3115.3	22
3116.13	24
3116.95	25
3117.78	23
3118.6	19.5
3119.43	18
3120.25	23.5
3121.08	21
3121.9	23
3122.72	23.5
3123.55	24.5
3124.37	22.5
3125.2	19.5
3126.02	24
3126.84	22
3127.67	26.5
3128.49	26
3129.31	24.5
3130.14	23
3130.96	24
3131.78	26.5
3132.61	21
3133.43	23
3134.25	22
3135.07	24
3135.89	21
3136.72	22.5
3137.54	24
3138.36	25.5
3139.18	23
3140	24.5
3140.83	24.5
3141.65	18.5
3142.47	19.5
3143.29	25
3144.11	28
3144.93	24.5
3145.75	20.5
3146.57	19
3147.4	25
3148.22	24.5
3149.04	25
3149.86	24.5
3150.68	23
3151.5	26.5
3152.32	20
3153.14	22
3153.96	25.5
3154.78	31
3155.59	23
3156.42	21.5
3157.23	24
3158.05	23
3158.87	21.5
3159.69	19
3160.51	24.5
3161.33	26.5
3162.15	22.5
3162.97	22
3163.78	23
3164.6	24
3165.42	24
3166.24	23.5
3167.06	25
3167.87	29.5
3168.69	22
3169.51	21
3170.33	22
3171.14	22.5
3171.96	22
3172.78	21
3173.6	21.5
3174.41	18.5
3175.23	23.5
3176.05	22
3176.86	19.5
3177.68	24.5
3178.5	24.5
3179.31	24
3180.13	21
3180.94	23
3181.76	27
3182.58	23.5
3183.39	24.5
3184.21	25.5
3185.02	25
3185.84	24.5
3186.65	22.5
3187.47	23.5
3188.28	26
3189.1	20
3189.91	27.5
3190.73	22
3191.54	22
3192.36	24
3193.17	22
3193.98	24
3194.8	22
3195.61	24
3196.43	25.5
3197.24	24
3198.05	18.5
3198.87	24.5
3199.68	23
3200.49	22
3201.31	23.5
3202.12	25.5
3202.93	27
3203.75	24.5
3204.56	21
3205.37	26
3206.18	21
3207	22.5
3207.81	25.5
3208.62	23.5
3209.43	23.5
3210.24	27
3211.06	20
3211.87	22.5
3212.68	23
3213.49	22.5
3214.3	24.5
3215.11	21
3215.92	26.5
3216.73	23
3217.55	24.5
3218.36	21
3219.17	27.5
3219.98	26.5
3220.79	20
3221.6	24
3222.41	22
3223.22	24
3224.03	21.5
3224.84	24
3225.65	24
3226.46	23.5
3227.27	26.5
3228.08	20.5
3228.89	21.5
3229.7	23
3230.5	28
3231.31	21.5
3232.12	24
3232.93	27.5
3233.74	23.5
3234.55	25.5
3235.36	22
3236.16	24.5
3236.97	22.5
3237.78	21.5
3238.59	27
3239.4	21
3240.2	23.5
3241.01	24.5
3241.82	20.5
3242.63	23.5
3243.43	23
3244.24	24
3245.05	24.5
3245.85	25.5
3246.66	26
3247.47	25
3248.27	22
3249.08	21
3249.89	26
3250.69	28
3251.5	21
3252.31	26
3253.11	21.5
3253.92	23
3254.72	22.5
3255.53	21
3256.33	23
3257.14	24.5
3257.94	22.5
3258.75	27.5
3259.55	22.5
3260.36	24.5
3261.16	22.5
3261.97	20.5
3262.77	18.5
3263.58	22
3264.38	22
3265.19	25
3265.99	19
3266.79	25.5
3267.6	21
3268.4	22.5
3269.21	24
3270.01	22
3270.81	25
3271.62	22.5
3272.42	28
3273.22	27
3274.03	18.5
3274.83	25.5
3275.63	21
3276.43	22
3277.24	27.5
3278.04	24.5
3278.84	24.5
3279.64	24
3280.45	21
3281.25	24.5
3282.05	27
3282.85	22
3283.65	27.5
3284.45	25
3285.26	24
3286.06	22.5
3286.86	24.5
3287.66	23
3288.46	21.5
3289.26	24
3290.06	22.5
3290.86	24
3291.66	23.5
3292.46	25
3293.26	23
3294.06	23.5
3294.86	26.5
3295.66	23
3296.46	23.5
3297.26	24
3298.06	23.5
3298.86	26
3299.66	23.5
3300.46	24.5
3301.26	23
3302.06	20
3302.86	26.5
3303.66	22
3304.46	21
3305.25	24
3306.05	24
3306.85	23.5
3307.65	24.5
3308.45	23
3309.25	24
3310.04	26.5
3310.84	24.5
3311.64	22.5
3312.44	26.5
3313.23	26
3314.03	23.5
3314.83	24
3315.63	26
3316.42	25.5
3317.22	28.5
3318.02	21.5
3318.81	25
3319.61	20.5
3320.41	24
3321.2	19.5
3322	23
3322.8	21.5
3323.59	25.5
3324.39	26.5
3325.18	24
3325.98	25.5
3326.78	24
3327.57	22
3328.37	20.5
3329.16	25
3329.96	24.5
3330.75	27.5
3331.55	22.5
3332.34	21.5
3333.14	25
3333.93	22
3334.73	25.5
3335.52	23
3336.31	22
3337.11	21.5
3337.9	25.5
3338.7	26.5
3339.49	24.5
3340.28	23
3341.08	26.5
3341.87	23.5
3342.66	23
3343.46	24.5
3344.25	21.5
3345.04	25
3345.84	23.5
3346.63	25
3347.42	24
3348.22	23.5
3349.01	23
3349.8	24
3350.59	25
3351.39	23
3352.18	21
3352.97	25
3353.76	22
3354.55	26
3355.35	22.5
3356.14	24.5
3356.93	20.5
3357.72	21
3358.51	24.5
3359.3	23
3360.09	27
3360.88	19
3361.67	26.5
3362.46	24
3363.26	25.5
3364.05	24
3364.84	25
3365.63	25.5
3366.42	25.5
3367.21	25
3368	23
3368.79	21.5
3369.58	22
3370.37	20
3371.15	23
3371.94	23
3372.73	24.5
3373.52	25
3374.31	24.5
3375.1	25.5
3375.89	25
3376.68	24.5
3377.47	23.5
3378.26	23
3379.04	22.5
3379.83	24
3380.62	24.5
3381.41	24
3382.2	21.5
3382.98	25
3383.77	23.5
3384.56	24
3385.35	23.5
3386.13	22
3386.92	24
3387.71	24
3388.5	25
3389.28	24
3390.07	21.5
3390.86	23.5
3391.64	24.5
3392.43	24
3393.22	20.5
3394	20.5
3394.79	23.5
3395.57	19.5
3396.36	24
3397.15	25.5
3397.93	23
3398.72	24
3399.5	25
3400.29	26
3401.07	29
3401.86	25.5
3402.65	26.5
3403.43	23
3404.21	25.5
3405	22.5
3405.78	24.5
3406.57	22.5
3407.35	26
3408.14	20.5
3408.92	25.5
3409.71	29
3410.49	23
3411.27	24
3412.06	25
3412.84	23.5
3413.62	24
3414.41	25.5
3415.19	24
3415.97	25.5
3416.76	27
3417.54	23
3418.32	21.5
3419.11	21.5
3419.89	24.5
3420.67	25
3421.46	28
3422.24	21.5
3423.02	22
3423.8	26.5
3424.58	21.5
3425.37	23.5
3426.15	26.5
3426.93	24
3427.71	23
3428.49	22.5
3429.27	23.5
3430.05	24
3430.84	22
3431.62	26
3432.4	19
3433.18	26.5
3433.96	21
3434.74	23.5
3435.52	24.5
3436.3	25
3437.08	23
3437.86	21.5
3438.64	21.5
3439.42	24.5
3440.2	23
3440.98	25
3441.76	21
3442.54	23.5
3443.32	23
3444.1	23.5
3444.88	24
3445.66	23
3446.44	21
3447.22	23.5
3448	26.5
3448.77	20.5
3449.55	24
3450.33	23.5
3451.11	23
3451.89	23
3452.67	25
3453.45	25
3454.22	23
3455	24.5
3455.78	24
3456.56	23
3457.33	25
3458.11	25
3458.89	22
3459.67	21.5
3460.44	25.5
3461.22	23.5
3462	22.5
3462.77	22
3463.55	28
3464.33	21
3465.1	24
3465.88	16
3466.66	26.5
3467.43	24
3468.21	22
3468.98	23.5
3469.76	22.5
3470.54	25
3471.31	23
3472.09	21.5
3472.86	25.5
3473.64	23.5
3474.41	24.5
3475.19	22
3475.96	23.5
3476.74	24
3477.51	24.5
3478.29	24
3479.06	26.5
3479.84	22.5
3480.61	21
3481.39	23.5
3482.16	22
3482.93	20
3483.71	23
3484.48	26
3485.25	23.5
3486.03	19.5
3486.8	26.5
3487.57	27
3488.35	22
3489.12	26.5
3489.89	21
3490.67	24
3491.44	23.5
3492.21	19
3492.99	26.5
3493.76	18
3494.53	20
3495.3	23.5
3496.08	24
3496.85	23.5
3497.62	20
3498.39	22
3499.16	24
3499.93	20
