#Acq. time (s)=	5
#Accumulations=	5
#Range (cm-¹)=	100...3500
#Windows=	4
#Autofocus=	Off
#AutoExposure=	Off
#Spike filter=	Multiple accum.
#Delay time (s)=	0
#Binning=	1
#Readout mode=	Signal
#DeNoise=	Off
#ICS correction=	Off
#Dark correction=	Off
#Inst. Process=	Off
#Instrument=	LabRAM HR Evol
#Detector=	Syncerity OE
#Objective=	x100_VIS
#Grating=	600 (500nm)
#ND Filter=	25%
#Laser=	633nm_Edge
#Hole=	100.021
#Range=	Visible
#Project=	verificaciones
#Sample=	at1
#Site=	plain
#Title=	bolusat1plain
#Remark=	
#Date=	13.01.2026 14:08
#Acquired=	13.01.2026 14:08:17
100.692	28
101.975	34
103.258	33.5
104.542	34
105.824	36
107.107	35
108.39	34.5
109.672	33
110.954	32.5
112.236	30
113.519	33.5
114.8	34.5
116.081	35
117.362	34
118.643	29.5
119.924	36
121.204	32.5
122.484	37
123.764	34.5
125.044	32.5
126.323	34.5
127.603	34.5
128.882	37.5
130.161	36.5
131.438	35.5
132.716	38
133.995	30
135.273	38
136.55	37.5
137.828	40.5
139.106	38.5
140.383	42
141.66	42
142.937	33
144.213	44
145.488	42
146.764	39
148.04	39
149.316	42.5
150.592	41.5
151.867	46
153.141	45.5
154.416	42.5
155.69	45
156.965	46.5
158.239	46
159.512	38
160.786	44
162.059	42.5
163.333	43.5
164.605	45
165.878	37
167.15	42
168.423	44
169.694	46.5
170.966	42
172.238	41
173.51	41
174.78	42
176.052	46
177.323	43.5
178.592	44.5
179.863	43
181.134	41
182.403	45.5
183.673	40.5
184.943	45
186.211	46.5
187.481	43.5
188.749	43.5
190.018	39.5
191.287	43.5
192.554	41.5
193.822	43
195.089	38.5
196.357	43
197.625	41.5
198.891	42
200.159	39
201.425	43
202.692	38.5
203.957	41.5
205.224	42
206.489	39
207.755	46
209.02	43
210.286	34.5
211.55	37.5
212.815	39.5
214.079	35
215.344	35.5
216.607	38
217.872	40
219.135	38.5
220.399	33.5
221.662	34
222.924	37
224.187	33
225.449	36.5
226.713	36.5
227.974	34
229.235	32
230.498	35
231.759	35.5
233.019	33
234.281	33
235.542	35.5
236.802	32
238.063	32.5
239.323	36.5
240.582	33
241.843	32
243.102	34
244.361	32.5
245.621	31
246.879	33
248.138	34.5
249.396	35
250.655	30
251.913	33
253.17	29
254.427	30.5
255.686	34
256.943	35
258.199	27
259.456	34
260.712	33
261.969	33
263.225	29.5
264.481	31
265.736	30
266.991	33.5
268.246	32
269.502	32.5
270.757	32.5
272.011	31
273.265	36
274.519	28
275.773	30
277.027	34
278.28	32
279.533	29.5
280.786	31
282.04	31
283.293	34
284.545	33
285.798	29
287.049	31
288.301	35
289.553	32.5
290.804	30
292.055	32.5
293.306	34
294.557	36
295.807	33.5
297.058	31.5
298.308	35.5
299.558	31
300.808	32.5
302.057	32
303.305	32.5
304.554	31
305.803	27
307.052	30.5
308.3	35
309.549	34.5
310.797	32.5
312.045	29
313.292	30.5
314.54	32
315.786	32
317.033	36
318.28	29.5
319.526	32
320.773	31.5
322.019	31
323.264	31
324.51	34.5
325.755	32
327.001	32
328.246	30.5
329.49	36
330.735	33
331.979	30.5
333.224	28
334.467	32
335.711	31
336.955	33
338.199	32.5
339.441	33
340.684	32
341.927	30.5
343.168	33
344.411	33.5
345.654	31.5
346.895	36
348.137	34.5
349.379	36
350.619	33.5
351.86	35
353.102	32
354.341	35
355.582	32.5
356.821	35.5
358.062	34.5
359.302	34.5
360.541	29.5
361.781	32.5
363.019	32
364.259	30
365.496	31
366.736	33.5
367.974	30
369.212	36.5
370.45	33.5
371.687	35.5
372.925	33
374.162	31.5
375.399	30.5
376.635	34
377.873	32
379.109	35
380.344	33.5
381.581	26
382.816	32.5
384.052	27.5
385.287	28.5
386.523	34
387.757	33.5
388.991	29.5
390.227	31
391.46	32
392.695	34
393.928	30.5
395.162	34
396.396	32.5
397.629	32.5
398.861	33.5
400.095	32
401.327	34.5
402.559	32
403.792	32.5
405.024	28
406.255	30.5
407.488	34.5
408.719	31.5
409.949	35.5
411.18	31
412.412	33
413.642	26.5
414.872	33
416.102	33
417.333	34
418.562	31.5
419.791	30.5
421.02	32
422.249	35
423.479	36
424.707	31
425.935	30.5
427.163	34.5
428.391	34.5
429.619	33
430.848	33.5
432.075	33
433.302	32
434.529	32.5
435.755	35
436.982	36.5
438.208	34.5
439.434	38
440.66	35.5
441.885	32
443.111	31
444.338	40
445.563	34.5
446.788	32
448.012	34.5
449.237	36.5
450.461	34
451.685	36.5
452.909	34.5
454.133	29.5
455.356	37
456.579	29.5
457.802	40.5
459.025	35.5
460.247	35
461.469	34
462.691	34
463.914	31
465.136	33.5
466.357	38.5
467.579	35
468.8	47.5
470.021	41.5
471.242	43.5
472.462	39
473.682	38.5
474.903	47.5
476.123	45
477.343	47
478.563	46.5
479.782	51.5
481	48
482.219	54
483.438	58
484.657	63.5
485.874	68
487.093	62
488.311	71
489.529	74
490.747	60.5
491.963	62
493.181	59
494.398	63.5
495.614	56
496.83	56
498.047	53.5
499.264	54.5
500.479	49
501.695	48.5
502.911	47.5
504.125	46
505.34	44
506.554	46
507.769	40
508.984	43.5
510.198	42.5
511.412	37.5
512.627	38
513.839	38
515.053	37.5
516.266	41.5
517.479	41
518.691	40
519.905	36.5
521.118	37
522.329	38
523.542	39
524.753	37
525.965	39.5
527.176	39.5
528.388	39.5
529.598	35
530.809	36
532.019	39.5
533.23	34
534.44	34
535.649	35
536.86	33.5
538.068	41
539.279	36.5
540.487	36
541.697	38
542.905	35.5
544.113	35.5
545.322	33.5
546.53	35.5
547.737	28
548.946	35
550.153	35.5
551.361	34
552.568	39
553.774	30
554.982	34.5
556.188	35.5
557.394	31.5
558.599	34.5
559.806	37
561.012	31
562.217	30
563.423	32
564.628	31.5
565.832	31.5
567.036	36
568.241	36
569.446	34
570.65	35
571.853	35.5
573.057	34
574.26	30.5
575.464	34
576.667	31.5
577.87	34.5
579.072	30
580.274	31.5
581.477	33
582.68	35.5
583.881	37
585.083	31
586.284	34.5
587.485	37.5
588.686	34
589.887	33.5
591.087	39.5
592.288	37.5
593.488	27
594.688	33.5
595.888	33
597.087	34
598.287	34.5
599.486	31.5
600.685	35.5
601.884	29
603.082	36.5
604.281	36
605.479	31.5
606.677	34.5
607.875	30
609.073	34
610.27	30
611.468	34.5
612.665	32.5
613.862	31
615.058	37
616.255	36
617.451	36.5
618.648	30
619.842	33
621.038	33.5
622.234	33
623.429	39
624.624	37
625.819	35.5
627.013	35.5
628.207	36.5
629.402	33
630.596	31
631.79	30.5
632.983	37.5
634.177	35.5
635.37	36.5
636.564	35
637.755	31.5
638.948	31.5
640.141	36.5
641.334	33
642.525	37.5
643.717	33
644.909	38
646.099	33.5
647.291	29.5
648.483	34
649.674	33
650.864	33
652.055	36.5
653.244	34.5
654.435	39.5
655.625	32.5
656.814	35
658.004	30.5
659.193	38
660.382	34.5
661.571	36
662.759	37.5
663.948	36
665.135	40.5
666.324	33.5
667.511	38.5
668.7	33.5
669.886	36.5
671.074	37
672.262	36.5
673.448	41.5
674.634	36.5
675.821	39
677.007	34.5
678.194	38.5
679.379	36
680.565	36
681.75	38
682.936	33.5
684.121	43
685.305	41.5
686.491	44
687.675	40.5
688.86	40
690.043	35.5
691.227	40
692.411	39
693.594	40.5
694.777	40.5
695.961	41.5
697.144	45
698.326	42
699.509	40
700.691	41.5
701.873	41.5
703.056	45
704.237	46.5
705.419	53
706.599	52.5
707.782	55
708.962	55.5
710.143	58
711.323	57.5
712.504	52
713.684	47.5
714.864	40.5
716.043	41
717.223	39
718.403	37
719.582	38
720.761	38.5
721.94	35
723.118	36.5
724.296	35.5
725.474	36
726.652	35.5
727.831	31
729.009	35.5
730.186	33.5
731.363	37.5
732.54	34.5
733.717	33
734.893	31
736.07	30
737.246	35.5
738.422	29.5
739.598	34.5
740.773	33
741.949	28
743.124	36
744.299	36
745.474	33
746.649	31
747.823	35.5
748.997	31
750.172	34
751.346	32.5
752.519	29.5
753.693	33.5
754.867	35
756.038	32
757.211	32.5
758.384	31.5
759.557	34
760.73	34
761.902	31.5
763.074	34
764.246	35
765.417	30.5
766.588	32.5
767.76	27
768.931	34
770.102	30
771.271	31.5
772.442	36
773.613	32
774.783	38
775.952	31.5
777.122	34.5
778.291	33.5
779.461	35
780.629	34
781.798	33
782.967	34.5
784.135	34
785.304	35
786.472	34
787.639	36.5
788.807	36
789.975	34
791.142	34.5
792.309	36
793.477	38
794.642	34
795.81	34
796.975	35
798.142	33
799.308	37.5
800.473	36
801.639	28.5
802.804	36
803.97	33.5
805.134	35
806.299	34.5
807.463	28.5
808.628	33.5
809.792	33.5
810.957	30
812.12	33.5
813.284	34.5
814.447	35.5
815.611	37.5
816.773	30
817.937	33
819.099	32
820.261	34
821.424	35
822.585	32
823.748	34.5
824.909	37.5
826.07	35
827.232	30.5
828.393	31
829.554	35
830.715	31
831.875	29
833.035	35
834.196	33.5
835.356	29.5
836.515	33
837.676	34.5
838.835	32
839.994	30
841.152	33.5
842.312	33
843.47	30
844.629	32.5
845.786	29
846.946	31.5
848.103	31.5
849.261	34.5
850.418	30.5
851.575	31.5
852.733	29
853.89	32
855.046	34
856.203	36
857.359	39
858.515	37
859.67	36
860.827	35.5
861.983	34
863.138	35
864.293	33.5
865.448	29.5
866.603	34.5
867.757	32
868.912	30.5
870.066	32
871.22	32.5
872.374	31
873.527	32
874.681	32.5
875.834	31
876.987	33
878.14	34.5
879.293	26.5
880.445	30.5
881.598	34.5
882.75	35
883.902	33.5
885.054	35
886.206	32.5
887.357	28
888.507	26.5
889.658	30.5
890.809	29.5
891.96	32
893.111	31
894.261	37
895.411	32
896.561	35
897.71	35
898.86	31.5
900.009	34.5
901.159	33
902.308	34.5
903.455	31.5
904.604	37
905.753	35.5
906.901	31
908.048	27
909.197	33.5
910.344	30.5
911.492	31.5
912.639	27.5
913.786	24.5
914.933	32.5
916.079	25.5
917.226	33
918.373	29
919.518	33
920.664	38
921.81	32
922.955	33.5
924.101	32
925.245	33
926.391	29
927.536	29.5
928.68	34
929.825	28
930.968	31.5
932.113	33.5
933.256	33
934.4	30.5
935.543	30
936.687	24
937.83	34
938.973	26
940.115	32
941.258	26
942.399	32.5
943.542	25.5
944.684	29
945.826	32.5
946.967	30.5
948.109	32.5
949.25	30
950.392	31
951.532	28
952.672	35
953.813	31
954.953	32
956.093	31.5
957.233	29
958.373	30.5
959.512	30
960.652	32
961.791	35
962.929	32
964.069	30.5
965.207	28.5
966.345	31.5
967.484	27
968.622	32.5
969.759	32.5
970.896	31
972.035	27
973.172	25
974.309	29
975.445	31.5
976.582	28.5
977.719	30.5
978.855	31
979.991	31
981.127	32
982.263	33
983.398	26
984.535	27
985.67	33.5
986.804	31.5
987.939	32
989.074	28.5
990.208	30
991.342	33
992.476	32
993.61	30.5
994.744	32
995.877	32
997.01	29
998.143	29
999.276	29.5
1000.41	30.5
1001.54	28
1002.67	31
1003.81	30.5
1004.94	34
1006.07	32
1007.2	28
1008.33	29
1009.47	32
1010.6	33.5
1011.73	25
1012.86	29
1013.99	30
1015.12	28
1016.25	30.5
1017.38	29
1018.51	30
1019.64	32
1020.77	31.5
1021.9	30.5
1023.03	27.5
1024.15	27.5
1025.28	32
1026.41	34.5
1027.54	30.5
1028.67	30.5
1029.8	30
1030.92	32.5
1032.05	28
1033.18	29
1034.31	32.5
1035.43	31.5
1036.56	28
1037.69	31
1038.81	31
1039.94	31
1041.07	32.5
1042.19	31.5
1043.32	30.5
1044.44	30
1045.57	31
1046.69	29
1047.82	32.5
1048.94	35
1050.07	28.5
1051.19	33
1052.32	32
1053.44	31.5
1054.57	31.5
1055.69	31.5
1056.81	26.5
1057.94	28
1059.06	30.5
1060.18	29
1061.31	31
1062.43	30.5
1063.55	29.5
1064.67	26.5
1065.8	33.5
1066.92	31
1068.04	30
1069.16	33.5
1070.28	29
1071.4	29
1072.52	28
1073.64	30.5
1074.76	29.5
1075.89	31
1077.01	31
1078.13	34
1079.25	26
1080.37	26.5
1081.49	31.5
1082.6	30
1083.72	33
1084.84	29.5
1085.96	32
1087.08	29.5
1088.2	29.5
1089.32	31
1090.43	28
1091.55	25
1092.67	28
1093.79	31
1094.91	30.5
1096.02	31.5
1097.14	33
1098.26	30.5
1099.37	28
1100.49	32
1101.61	33
1102.72	29.5
1103.84	30
1104.95	26.5
1106.07	32
1107.18	26
1108.3	26
1109.41	33
1110.53	27
1111.64	31.5
1112.76	26
1113.87	30.5
1114.99	30
1116.1	30
1117.21	31.5
1118.33	28
1119.44	32
1120.55	31
1121.67	26
1122.78	32.5
1123.89	32.5
1125	26.5
1126.12	34.5
1127.23	29
1128.34	28.5
1129.45	31.5
1130.56	30.5
1131.68	30.5
1132.79	28
1133.9	32.5
1135.01	25.5
1136.12	28
1137.23	29.5
1138.34	32
1139.45	33
1140.56	26
1141.67	28.5
1142.78	29
1143.89	26
1145	30.5
1146.11	26.5
1147.22	30.5
1148.32	28
1149.43	26
1150.54	25.5
1151.65	23
1152.76	31
1153.86	26
1154.97	32.5
1156.08	26
1157.19	30
1158.29	32
1159.4	33
1160.51	27.5
1161.61	24.5
1162.72	28
1163.83	31.5
1164.93	30
1166.04	28.5
1167.14	26
1168.25	29.5
1169.35	34.5
1170.46	29
1171.56	29.5
1172.67	30.5
1173.77	27
1174.88	29
1175.98	28.5
1177.08	23
1178.19	34
1179.29	27
1180.4	30
1181.5	29.5
1182.6	27
1183.71	28
1184.81	31.5
1185.91	31.5
1187.01	30
1188.12	27.5
1189.22	25
1190.32	31.5
1191.42	29
1192.52	27
1193.62	29
1194.72	24.9915
1195.83	28.9098
1196.93	27.0819
1198.03	28.4387
1199.13	27.5788
1200.23	27.5635
1201.33	28.9907
1202.43	24.1784
1203.53	30.3132
1204.63	32.0321
1205.73	27.6277
1206.83	28.1364
1207.92	29.1454
1209.02	28.7976
1210.12	31.9928
1211.22	27.6936
1212.32	29.6298
1213.42	30.2041
1214.51	26.0576
1215.61	26.8554
1216.71	29.0902
1217.81	24.6381
1218.9	27.181
1220	27.2454
1221.1	27.012
1222.19	28.1286
1223.29	30.2731
1224.39	27.0679
1225.48	31.7858
1226.58	27.1297
1227.68	24.3484
1228.77	28.4404
1229.87	27.4169
1230.96	31.6255
1232.06	27.0385
1233.15	26.8284
1234.25	27.476
1235.34	28.2453
1236.43	30.0097
1237.53	26.8807
1238.62	27.0282
1239.72	24.3374
1240.81	28.7563
1241.9	27.2854
1243	26.8398
1244.09	24.5583
1245.18	28.2636
1246.27	28.9115
1247.37	30.132
1248.46	27.3679
1249.55	28.7264
1250.64	29.9694
1251.74	27.7895
1252.83	32.5808
1253.92	29.0583
1255.01	29.2831
1256.1	27.335
1257.19	30.6203
1258.28	31.8457
1259.38	27.3141
1260.46	28.7588
1261.56	30.1058
1262.65	27.1544
1263.74	29.8364
1264.82	32.7328
1265.91	27.9282
1267	28.7699
1268.09	24.5074
1269.18	25.0121
1270.27	26.8574
1271.36	27.4504
1272.45	27.4235
1273.54	27.1315
1274.63	27.1736
1275.71	27.7796
1276.8	27.7033
1277.89	28.2001
1278.98	27.8714
1280.06	28.3385
1281.15	26.019
1282.24	24.0091
1283.32	26.0992
1284.41	28.5325
1285.5	27.3262
1286.58	24.3735
1287.67	28.9276
1288.76	25.6715
1289.84	26.9946
1290.93	30.1009
1292.01	29.3893
1293.1	28.0507
1294.18	26.0673
1295.27	25.7961
1296.35	26.9932
1297.44	27.2347
1298.52	27.1456
1299.6	26.2362
1300.69	26.0801
1301.77	27.8749
1302.86	27.2035
1303.94	26.5364
1305.02	24.6746
1306.11	26.8878
1306.41	28
1307.5	30
1308.59	25
1309.68	24
1310.77	24
1311.85	23.5
1312.94	25
1314.03	27
1315.11	29
1316.2	26.5
1317.29	25.5
1318.37	26
1319.46	27.5
1320.55	25.5
1321.63	26
1322.72	25
1323.8	26
1324.89	27
1325.98	27.5
1327.06	26
1328.15	27
1329.23	24.5
1330.31	25
1331.4	25.5
1332.48	27
1333.57	24
1334.65	28.5
1335.74	26.5
1336.82	29
1337.9	28
1338.99	26
1340.07	22.5
1341.15	30
1342.24	28
1343.32	24
1344.4	23
1345.48	30.5
1346.56	27
1347.65	30
1348.73	25
1349.81	28.5
1350.89	28.5
1351.97	27
1353.05	28.5
1354.13	28.5
1355.21	26
1356.29	26.5
1357.37	26.5
1358.46	30
1359.54	24
1360.62	25.5
1361.69	31.5
1362.77	28.5
1363.85	28
1364.93	26
1366.01	28.5
1367.09	27
1368.17	29.5
1369.25	26
1370.33	27.5
1371.41	29.5
1372.48	26.5
1373.56	24.5
1374.64	30
1375.72	29
1376.79	27
1377.87	30
1378.95	28
1380.02	26
1381.1	29.5
1382.18	29
1383.25	26
1384.33	29
1385.4	27
1386.48	29.5
1387.56	27
1388.63	28
1389.71	27.5
1390.78	29.5
1391.86	27.5
1392.93	31
1394.01	28.5
1395.08	30.5
1396.15	32
1397.23	31
1398.3	31
1399.38	33
1400.45	32.5
1401.52	31
1402.6	31.5
1403.67	34
1404.74	30
1405.81	34.5
1406.89	31
1407.96	38
1409.03	33
1410.1	29
1411.17	28.5
1412.25	32.5
1413.32	32
1414.39	39.5
1415.46	33.5
1416.53	34
1417.6	32
1418.67	32.5
1419.74	27
1420.81	31
1421.88	29
1422.95	31
1424.02	29.5
1425.09	31
1426.16	29.5
1427.23	30
1428.3	25
1429.37	31
1430.44	28.5
1431.51	28
1432.58	24.5
1433.64	29.5
1434.71	29.5
1435.78	27.5
1436.85	27.5
1437.92	24
1438.98	28
1440.05	27
1441.12	29.5
1442.18	26
1443.25	28.5
1444.32	30.5
1445.38	28
1446.45	29.5
1447.52	29.5
1448.58	34
1449.65	29
1450.71	28
1451.78	29
1452.84	30.5
1453.91	27.5
1454.97	25
1456.04	32
1457.1	25.5
1458.17	30.5
1459.23	25
1460.3	27
1461.36	21
1462.42	26.5
1463.49	28.5
1464.55	23.5
1465.61	29.5
1466.68	31
1467.74	29
1468.8	27.5
1469.86	28
1470.93	29.5
1471.99	27
1473.05	26
1474.11	26
1475.17	25
1476.24	29.5
1477.3	26.5
1478.36	28
1479.42	25
1480.48	29.5
1481.54	31
1482.6	24.5
1483.66	27
1484.72	28
1485.78	26
1486.84	30.5
1487.9	26
1488.96	29.5
1490.02	27
1491.08	25.5
1492.14	28
1493.2	27.5
1494.26	24
1495.31	29.5
1496.37	31.5
1497.43	29.5
1498.49	28
1499.55	32
1500.6	27
1501.66	28.5
1502.72	29
1503.78	28
1504.83	26.5
1505.89	25.5
1506.95	24
1508	28.5
1509.06	25
1510.12	29.5
1511.17	24
1512.23	30
1513.28	30
1514.34	26
1515.39	28
1516.45	26.5
1517.5	23.5
1518.56	30.5
1519.61	27
1520.67	28
1521.72	27
1522.78	24.5
1523.83	25
1524.88	29.5
1525.94	30
1526.99	27
1528.05	26
1529.1	29.5
1530.15	27.5
1531.2	22.5
1532.26	31.5
1533.31	25
1534.36	26.5
1535.41	27
1536.47	29.5
1537.52	28.5
1538.57	26
1539.62	30
1540.67	26.5
1541.72	24
1542.77	24.5
1543.83	28
1544.88	32
1545.93	26.5
1546.98	25.5
1548.03	27
1549.08	29.5
1550.13	27.5
1551.18	31.5
1552.23	28
1553.28	29
1554.32	27.5
1555.37	29
1556.42	27.5
1557.47	30
1558.52	26.5
1559.57	26
1560.62	26.5
1561.67	30
1562.71	30.5
1563.76	30.5
1564.81	27
1565.86	26.5
1566.9	26
1567.95	33
1569	27.5
1570.04	24
1571.09	28
1572.14	26.5
1573.18	27
1574.23	29.5
1575.27	26.5
1576.32	29
1577.37	27.5
1578.41	27.5
1579.46	26.5
1580.5	28
1581.55	29.5
1582.59	26.5
1583.64	26.5
1584.68	27
1585.72	25.5
1586.77	29.5
1587.81	25.5
1588.86	22.5
1589.9	25.5
1590.94	28
1591.99	27.5
1593.03	28.5
1594.07	28.5
1595.12	31
1596.16	29.5
1597.2	31.5
1598.24	26.5
1599.29	25
1600.33	26
1601.37	24
1602.41	30
1603.45	27.5
1604.49	30.5
1605.53	30
1606.58	28.5
1607.62	29.5
1608.66	28
1609.7	25.5
1610.74	25
1611.78	29
1612.82	29.5
1613.86	25
1614.9	27
1615.94	26
1616.98	29.5
1618.02	29
1619.06	28.5
1620.09	29
1621.13	28
1622.17	31
1623.21	29
1624.25	30
1625.29	28
1626.32	33
1627.36	26
1628.4	31.5
1629.44	26
1630.47	30.5
1631.51	27
1632.55	27.5
1633.58	29
1634.62	28
1635.66	28.5
1636.69	26
1637.73	29
1638.77	30
1639.8	27
1640.84	32.5
1641.87	28
1642.91	29
1643.94	26
1644.98	25
1646.01	27
1647.05	28
1648.08	29.5
1649.12	20
1650.15	26
1651.18	26
1652.22	31
1653.25	25
1654.29	29
1655.32	29.5
1656.35	27
1657.39	25.5
1658.42	26.5
1659.45	26
1660.48	30.5
1661.52	26.5
1662.55	30
1663.58	26
1664.61	29.5
1665.64	30.5
1666.68	28
1667.71	29
1668.74	27.5
1669.77	28.5
1670.8	27
1671.83	29.5
1672.86	27.5
1673.89	29
1674.92	25
1675.95	30
1676.98	27.5
1678.01	26.5
1679.04	28
1680.07	27
1681.1	29.5
1682.13	26
1683.16	27
1684.19	24.5
1685.22	27
1686.25	30.5
1687.27	26
1688.3	28.5
1689.33	28.5
1690.36	28.5
1691.38	31
1692.41	27
1693.44	28.5
1694.47	28
1695.49	30
1696.52	31.5
1697.55	22
1698.57	30.5
1699.6	31.5
1700.63	28.5
1701.65	26
1702.68	25
1703.7	24
1704.73	27.5
1705.76	28
1706.78	25.5
1707.81	28.5
1708.83	25.5
1709.86	28
1710.88	27.5
1711.91	25
1712.93	27.5
1713.95	27
1714.98	27
1716	29
1717.03	28.5
1718.05	30
1719.07	22.5
1720.1	28
1721.12	24.5
1722.14	26
1723.16	24.5
1724.19	28
1725.21	27
1726.23	26
1727.25	24.5
1728.28	27
1729.3	27
1730.32	27
1731.34	23
1732.36	25
1733.38	30
1734.41	26
1735.43	26
1736.45	27.5
1737.47	28
1738.49	25.5
1739.51	24.5
1740.53	28
1741.55	26
1742.57	28
1743.59	25.5
1744.61	26.5
1745.63	25
1746.64	31
1747.66	26
1748.68	22
1749.7	28
1750.72	25
1751.74	21
1752.76	25
1753.77	25.5
1754.79	26
1755.81	27.5
1756.83	26
1757.84	26
1758.86	24
1759.88	27.5
1760.9	27.5
1761.91	29.5
1762.93	26
1763.95	29.5
1764.96	27.5
1765.98	27
1766.99	26.5
1768.01	30.5
1769.02	26.5
1770.04	28
1771.06	23.5
1772.07	26
1773.09	21
1774.1	29.5
1775.12	28.5
1776.13	28.5
1777.14	25
1778.16	22
1779.17	28
1780.19	28.5
1781.2	23.5
1782.21	24
1783.23	27
1784.24	28
1785.25	27.5
1786.27	28
1787.28	26.5
1788.29	23.5
1789.3	27.5
1790.32	28
1791.33	26.5
1792.34	25
1793.35	25
1794.36	27
1795.38	25.5
1796.39	26.5
1797.4	30
1798.41	25.5
1799.42	29
1800.43	26
1801.44	26.5
1802.45	25.5
1803.46	27
1804.47	28
1805.48	30
1806.49	30.5
1807.5	25
1808.51	27
1809.52	31
1810.53	24.5
1811.54	31
1812.55	28.5
1813.56	27
1814.57	24
1815.57	30
1816.58	27.5
1817.59	24.5
1818.6	25.5
1819.61	26.5
1820.61	26.5
1821.62	27
1822.63	26
1823.64	25.5
1824.64	28
1825.65	26.5
1826.66	25
1827.66	23.5
1828.67	27
1829.68	25
1830.68	28
1831.69	26.5
1832.69	27
1833.7	28
1834.7	23.5
1835.71	23
1836.71	27.5
1837.72	25.5
1838.72	29.5
1839.73	24
1840.73	26.5
1841.74	28
1842.74	30
1843.75	26
1844.75	22.5
1845.75	26
1846.76	30
1847.76	26
1848.76	26
1849.77	26.5
1850.77	30
1851.77	27.5
1852.78	28.5
1853.78	29
1854.78	31.5
1855.78	25.5
1856.78	19
1857.79	25.5
1858.79	29.5
1859.79	26.5
1860.79	23.5
1861.79	28.5
1862.79	29.5
1863.79	24
1864.79	29
1865.79	28.5
1866.8	27.5
1867.8	24.5
1868.8	27
1869.8	26.5
1870.8	28
1871.8	25
1872.8	27
1873.79	24.5
1874.79	28
1875.79	31
1876.79	27.5
1877.79	28.5
1878.79	25.5
1879.79	24
1880.79	28
1881.78	28
1882.78	26.5
1883.78	25
1884.78	24.5
1885.77	29
1886.77	23
1887.77	27
1888.77	30.5
1889.76	22.5
1890.76	25.5
1891.76	24
1892.75	24.5
1893.75	25
1894.75	25.5
1895.74	25
1896.74	22
1897.73	23
1898.73	25.5
1899.73	27.5
1900.72	26.5
1901.72	26
1902.71	25
1903.7	27
1904.7	28
1905.69	29
1906.69	25
1907.68	30
1908.68	28.5
1909.67	23
1910.66	28.5
1911.66	24
1912.65	26
1913.64	27.5
1914.64	27
1915.63	27
1916.62	25.5
1917.62	27
1918.61	23.5
1919.6	28
1920.59	28
1921.58	25.5
1922.58	26.5
1923.57	27
1924.56	27.5
1925.55	20
1926.54	24.5
1927.53	26
1928.52	22
1929.51	23
1930.51	24
1931.5	26
1932.49	26.5
1933.48	27
1934.47	24.5
1935.46	25
1936.45	23.5
1937.44	23
1938.42	25
1939.41	21
1940.4	28.5
1941.39	24
1942.38	26.5
1943.37	26
1944.36	31
1945.35	27
1946.33	20.5
1947.32	25.5
1948.31	25.75
1949.3	24
1950.29	25
1951.27	26
1952.26	24
1953.25	27.5
1954.23	26
1955.22	24.5
1956.21	26
1957.19	26.5
1958.18	26.5
1959.17	25
1960.15	23
1961.14	25
1962.13	28
1963.11	25
1964.1	28
1965.08	25.5
1966.07	27
1967.05	23.5
1968.04	26
1969.02	31.5
1970.01	25.5
1970.99	29
1971.97	26.5
1972.96	25
1973.94	24
1974.93	25.5
1975.91	27
1976.89	26
1977.88	28
1978.86	25.5
1979.84	28
1980.83	30
1981.81	23.5
1982.79	23.5
1983.77	30.5
1984.76	24
1985.74	24.5
1986.72	25.5
1987.7	28
1988.68	28
1989.67	22
1990.65	25.5
1991.63	27
1992.61	25
1993.59	25
1994.57	25.5
1995.55	28
1996.53	23
1997.51	26
1998.49	27
1999.47	25.5
2000.45	23.5
2001.43	25
2002.41	26.5
2003.39	24.5
2004.37	27
2005.35	26.5
2006.33	27
2007.31	25
2008.29	28.5
2009.26	26
2010.24	24
2011.22	24.5
2012.2	28.5
2013.18	27
2014.15	28.5
2015.13	24.5
2016.11	25
2017.09	26.5
2018.06	24
2019.04	25.5
2020.02	25.5
2021	20.5
2021.97	27.5
2022.95	27.5
2023.92	23
2024.9	24
2025.88	23
2026.85	27
2027.83	27
2028.8	27
2029.78	23
2030.75	24.5
2031.73	26
2032.7	25
2033.68	22
2034.65	28
2035.63	26.5
2036.6	28
2037.58	23
2038.55	26
2039.52	29
2040.5	27
2041.47	24
2042.45	23
2043.42	27
2044.39	24.5
2045.36	23.5
2046.34	24
2047.31	23.5
2048.28	27.5
2049.26	23
2050.23	27
2051.2	25
2052.17	26.5
2053.14	25.5
2054.12	23.5
2055.09	25.5
2056.06	20
2057.03	24.5
2058	25.5
2058.97	25.5
2059.94	25
2060.91	26
2061.88	27
2062.85	25
2063.82	26.5
2064.79	22.5
2065.76	25.5
2066.73	27.5
2067.7	26
2068.67	26
2069.64	28
2070.61	27
2071.58	20.5
2072.55	22
2073.52	24.5
2074.49	26.5
2075.45	26
2076.42	23.5
2077.39	20
2078.36	26
2079.33	23
2080.29	26
2081.26	23.5
2082.23	27
2083.2	23
2084.16	26
2085.13	23
2086.1	28
2087.06	26
2088.03	23
2089	28.5
2089.96	24
2090.93	22
2091.89	23
2092.86	24
2093.83	23
2094.79	25
2095.76	23
2096.72	30
2097.69	21.5
2098.65	24.5
2099.62	22
2100.58	22
2101.55	25
2102.51	25
2103.47	23
2104.44	24
2105.4	23
2106.36	24
2107.33	24.5
2108.29	24.5
2109.25	27.5
2110.22	23.5
2111.18	25.5
2112.14	20
2113.11	22.5
2114.07	24.5
2115.03	27
2115.99	29.5
2116.96	29
2117.92	25.5
2118.88	25.5
2119.84	28
2120.8	25.5
2121.76	21
2122.72	25.5
2123.68	24.5
2124.65	21.5
2125.61	28
2126.57	24
2127.53	19.5
2128.49	24.5
2129.45	26
2130.41	21.5
2131.37	22
2132.33	28.5
2133.29	21.5
2134.25	25.5
2135.21	26
2136.17	24
2137.12	24
2138.08	27
2139.04	24.5
2140	22.5
2140.96	23.5
2141.92	22.5
2142.88	23.4993
2143.83	24.4643
2144.79	20.1624
2145.75	27.0003
2146.71	23.029
2147.66	25.9524
2148.62	23.5477
2149.58	24.4999
2150.53	24.3965
2151.49	26.2361
2152.45	24.8172
2153.4	22.3135
2154.36	27.2912
2155.32	22.3759
2156.27	23.8535
2157.23	21.5357
2158.19	22.351
2159.14	20.4585
2160.1	20.6796
2161.05	22.8423
2162.01	24.8521
2162.96	23.487
2163.92	27.8886
2164.87	24.5994
2165.83	22.7818
2166.78	24.3811
2167.73	22.2084
2168.69	26.2322
2169.64	24.1699
2170.6	25.0155
2171.55	24.4524
2172.5	25.4446
2173.46	23.6934
2174.41	23.8962
2175.36	25.0577
2176.32	23.6648
2177.27	24.1483
2178.22	25.9812
2179.18	22.8232
2180.13	23.929
2181.08	25.9727
2182.03	25.6058
2182.98	25.7621
2183.94	23.4803
2184.89	23.0912
2185.84	23.7791
2186.79	23.2872
2187.74	24.2803
2188.69	21.8367
2189.64	24.7403
2190.6	24.2607
2191.55	25.9631
2192.5	23.7549
2193.45	24.4714
2194.4	23.9314
2195.35	21.9707
2196.3	24.6681
2197.25	20.5432
2198.2	23.0374
2199.15	25.0521
2200.1	22.1048
2201.04	23.1805
2201.99	24.6562
2202.94	24.1559
2203.89	21.9142
2204.84	25.0055
2205.79	23.7085
2206.74	21.5698
2207.69	23.4213
2208.63	23.8158
2209.58	24.6279
2210.53	23.8212
2211.48	24.0922
2212.43	22.8568
2213.37	23.1711
2214.32	23.392
2215.27	26.7639
2216.21	24.1536
2217.16	26.1691
2218.11	23.4274
2219.05	25.1705
2220	24.3029
2220.95	21.217
2221.89	22.158
2222.84	23.9466
2223.78	26.2943
2224.73	23.0006
2225.68	24.9652
2226.62	23.7882
2227.57	27.2912
2228.51	24.0322
2229.46	22.4937
2230.4	23.5686
2231.35	24.6912
2232.29	23.145
2233.24	25.5806
2234.18	21.4619
2235.12	21.7636
2236.07	22.9032
2237.01	23.034
2237.95	23.0121
2238.9	25.2741
2239.84	25.5979
2240.06	25.5
2241.01	25
2241.96	22
2242.91	20.5
2243.86	24.5
2244.8	22
2245.75	22
2246.7	24
2247.65	21.5
2248.59	22.5
2249.54	21.5
2250.49	24
2251.43	20
2252.38	23
2253.33	24
2254.27	23
2255.22	24.5
2256.16	20.5
2257.11	26.5
2258.06	25
2259	23
2259.95	25.5
2260.89	22.5
2261.84	20
2262.78	22
2263.73	21
2264.67	24
2265.62	25
2266.56	23.5
2267.5	23.5
2268.45	27
2269.39	22.5
2270.34	22
2271.28	24
2272.22	23
2273.17	24.5
2274.11	20
2275.05	21
2276	23.5
2276.94	23
2277.88	24.5
2278.82	24.5
2279.77	22
2280.71	24.5
2281.65	27.5
2282.59	25
2283.53	25.5
2284.48	26.5
2285.42	18.5
2286.36	27
2287.3	25
2288.24	22
2289.18	22
2290.12	23
2291.06	22
2292	24
2292.94	26
2293.89	22
2294.83	23.5
2295.77	18.5
2296.71	26
2297.65	21
2298.58	24.5
2299.52	22
2300.46	24
2301.4	21.5
2302.34	23
2303.28	25.5
2304.22	24.5
2305.16	23
2306.1	23.5
2307.03	27
2307.97	21
2308.91	25
2309.85	20.5
2310.79	23
2311.72	26
2312.66	24.5
2313.6	23
2314.54	25.5
2315.47	23
2316.41	22.5
2317.35	27
2318.28	25
2319.22	19
2320.16	21.5
2321.09	21
2322.03	25
2322.96	24
2323.9	24.5
2324.84	25.5
2325.77	21.5
2326.71	20.5
2327.64	24.5
2328.58	26
2329.51	24.5
2330.45	25
2331.38	21.5
2332.32	25
2333.25	25.5
2334.18	24
2335.12	25
2336.05	24
2336.99	23.5
2337.92	21
2338.85	25
2339.79	24
2340.72	25.5
2341.65	25
2342.59	22
2343.52	26
2344.45	29
2345.39	27.5
2346.32	22.5
2347.25	22.5
2348.18	26.5
2349.11	27.5
2350.05	25
2350.98	24.5
2351.91	24.5
2352.84	23
2353.77	25
2354.7	26
2355.64	26
2356.57	21.5
2357.5	23
2358.43	27
2359.36	22
2360.29	22.5
2361.22	26.5
2362.15	25
2363.08	25
2364.01	25.5
2364.94	21.5
2365.87	22
2366.8	21
2367.73	27.5
2368.66	22.5
2369.58	23
2370.51	24.5
2371.44	25.5
2372.37	20
2373.3	24
2374.23	20
2375.16	23.5
2376.08	23
2377.01	25.5
2377.94	23.5
2378.87	23
2379.8	24.5
2380.72	26
2381.65	21
2382.58	24.5
2383.5	24
2384.43	25.5
2385.36	26
2386.28	27
2387.21	26.5
2388.14	26
2389.06	23
2389.99	23.5
2390.91	24
2391.84	23.5
2392.77	23
2393.69	22
2394.62	24.5
2395.54	22.5
2396.47	25.5
2397.39	24.5
2398.32	23
2399.24	23.5
2400.16	22
2401.09	20.5
2402.01	24.5
2402.94	24.5
2403.86	22.5
2404.78	26
2405.71	25
2406.63	18
2407.56	24
2408.48	25
2409.4	28
2410.32	23
2411.25	26.5
2412.17	24.5
2413.09	27
2414.02	24
2414.94	23
2415.86	23
2416.78	22
2417.7	24.5
2418.63	22
2419.55	20
2420.47	28
2421.39	28
2422.31	24
2423.23	24
2424.15	24.5
2425.07	25.5
2425.99	24.5
2426.92	19
2427.84	26
2428.76	25
2429.68	22
2430.59	24.5
2431.51	24
2432.43	25
2433.35	24.5
2434.27	28
2435.19	25.5
2436.11	31
2437.03	26
2437.95	23
2438.87	19.5
2439.79	27
2440.71	23.5
2441.62	26
2442.54	22
2443.46	24
2444.38	23
2445.3	21
2446.21	24
2447.13	24
2448.05	24.5
2448.97	26
2449.88	21.5
2450.8	27
2451.72	23
2452.63	24
2453.55	23.5
2454.47	25
2455.38	27
2456.3	26
2457.21	24.5
2458.13	28.5
2459.05	24.5
2459.96	26
2460.88	21
2461.79	24
2462.71	26.5
2463.62	23
2464.54	25
2465.45	23
2466.37	25
2467.28	24.5
2468.2	29
2469.11	26
2470.02	24.5
2470.94	24
2471.85	26
2472.77	24
2473.68	28.5
2474.59	24.5
2475.51	19.5
2476.42	26.5
2477.33	23
2478.25	25
2479.16	24
2480.07	26.5
2480.98	23.5
2481.9	21
2482.81	25
2483.72	27.5
2484.63	23
2485.55	26
2486.46	25
2487.37	26.5
2488.28	24
2489.19	23
2490.1	26.5
2491.01	25.5
2491.92	27
2492.83	25.5
2493.74	24
2494.66	27.5
2495.57	23
2496.48	26
2497.39	24
2498.3	26
2499.21	24
2500.12	22
2501.03	27
2501.93	26
2502.84	25.5
2503.75	27
2504.66	23.5
2505.57	27
2506.48	27.5
2507.39	23
2508.3	25.5
2509.21	23
2510.11	23.5
2511.02	22.5
2511.93	29.5
2512.84	24.5
2513.75	25
2514.65	22
2515.56	24
2516.47	24
2517.37	22.5
2518.28	24.5
2519.19	25.5
2520.09	23.5
2521	24
2521.91	24
2522.81	29
2523.72	24
2524.63	21.5
2525.53	24
2526.44	24
2527.34	20
2528.25	25.5
2529.16	22.5
2530.06	24
2530.97	27.5
2531.87	28
2532.78	23
2533.68	26.5
2534.58	23
2535.49	26.5
2536.39	26
2537.3	27
2538.2	23.5
2539.11	22.5
2540.01	27.5
2540.91	24.5
2541.82	24
2542.72	24
2543.62	26.5
2544.53	23.5
2545.43	27.5
2546.33	28
2547.23	27
2548.14	21
2549.04	25.5
2549.94	20
2550.84	26.5
2551.75	27
2552.65	27
2553.55	25
2554.45	26
2555.35	27.5
2556.26	23
2557.16	25
2558.06	26
2558.96	18
2559.86	22.5
2560.76	31
2561.66	22
2562.56	29
2563.46	23.5
2564.36	29.5
2565.26	22
2566.16	24
2567.06	25.5
2567.96	23.5
2568.86	25
2569.76	25.5
2570.66	22
2571.56	29
2572.46	26
2573.36	23.5
2574.26	29
2575.16	27
2576.05	26.5
2576.95	28
2577.85	26.5
2578.75	20.5
2579.65	23.5
2580.54	26.5
2581.44	24.5
2582.34	23.5
2583.24	23
2584.13	24.5
2585.03	28
2585.93	23
2586.83	30
2587.72	28.5
2588.62	23.5
2589.52	22.5
2590.41	27
2591.31	25.5
2592.2	26
2593.1	25.5
2594	26
2594.89	22.5
2595.79	23
2596.68	25
2597.58	27.5
2598.47	28
2599.37	25.5
2600.26	23
2601.16	28.5
2602.05	24
2602.95	25.5
2603.84	25
2604.74	24.5
2605.63	26.5
2606.52	23
2607.42	25
2608.31	27.5
2609.21	23.5
2610.1	20
2610.99	24.5
2611.89	27
2612.78	27
2613.67	24
2614.56	25
2615.46	23
2616.35	24.5
2617.24	26
2618.13	23.5
2619.03	23.5
2619.92	29.5
2620.81	24
2621.7	25
2622.59	28
2623.49	26
2624.38	25
2625.27	26.5
2626.16	25.5
2627.05	26.5
2627.94	28.5
2628.83	25
2629.72	29.5
2630.61	23.5
2631.5	24.5
2632.39	28
2633.28	26
2634.17	26
2635.06	24.5
2635.95	24
2636.84	26
2637.73	23
2638.62	22
2639.51	26.5
2640.4	23.5
2641.29	23
2642.18	23
2643.07	29
2643.96	19.5
2644.84	25.5
2645.73	22.5
2646.62	25.5
2647.51	24.5
2648.4	19
2649.28	20.5
2650.17	23
2651.06	23
2651.95	25
2652.83	26
2653.72	23
2654.61	25.5
2655.49	23
2656.38	22.5
2657.27	27
2658.16	26
2659.04	22.5
2659.93	27.5
2660.81	25
2661.7	26.5
2662.59	25.5
2663.47	23
2664.36	23.5
2665.24	27
2666.13	24.5
2667.01	26
2667.9	23
2668.78	25
2669.67	26.5
2670.55	23
2671.44	25.5
2672.32	26.5
2673.21	23.5
2674.09	23
2674.97	23
2675.86	22
2676.74	24.5
2677.62	24
2678.51	26
2679.39	30
2680.27	24
2681.16	24
2682.04	25.5
2682.92	21
2683.81	25
2684.69	25
2685.57	22
2686.45	25.5
2687.34	26.5
2688.22	26.5
2689.1	26.5
2689.98	24.5
2690.86	25.5
2691.75	28
2692.63	27
2693.51	24
2694.39	22.5
2695.27	25
2696.15	28
2697.03	25
2697.91	24.5
2698.79	23
2699.67	26
2700.55	25
2701.43	24.5
2702.31	24.5
2703.19	23
2704.07	23
2704.95	26
2705.83	21.5
2706.71	23.5
2707.59	21
2708.47	27
2709.35	24
2710.23	21.5
2711.11	25.5
2711.99	26
2712.86	23.5
2713.74	23.5
2714.62	23.5
2715.5	23
2716.38	20
2717.26	21.5
2718.13	24
2719.01	27.5
2719.89	24
2720.77	25
2721.64	19
2722.52	22.5
2723.4	24
2724.27	24
2725.15	22.5
2726.03	26
2726.9	25
2727.78	26
2728.66	27
2729.53	22
2730.41	25.5
2731.28	24.5
2732.16	28.5
2733.03	25
2733.91	21.5
2734.79	23
2735.66	27
2736.54	24
2737.41	28
2738.29	27
2739.16	28.5
2740.03	20.5
2740.91	26
2741.78	25.5
2742.66	25
2743.53	25.5
2744.41	24.5
2745.28	28.5
2746.15	25
2747.03	22.5
2747.9	23
2748.77	25.5
2749.65	24
2750.52	25.5
2751.39	26
2752.27	25
2753.14	25
2754.01	25
2754.88	26.5
2755.75	22
2756.63	27
2757.5	25
2758.37	25.5
2759.24	25
2760.11	25
2760.99	24.5
2761.86	25
2762.73	23.5
2763.6	25.5
2764.47	29
2765.34	27.5
2766.21	27
2767.08	21.5
2767.95	26
2768.82	26
2769.69	23
2770.56	25.5
2771.43	24
2772.3	27.5
2773.17	25
2774.04	28
2774.91	23.5
2775.78	25
2776.65	23
2777.52	29.5
2778.39	25.5
2779.26	19
2780.13	25.5
2780.99	28
2781.86	22.5
2782.73	26
2783.6	27.5
2784.47	24.5
2785.34	24
2786.2	26
2787.07	23
2787.94	24.5
2788.81	27
2789.67	27
2790.54	27.5
2791.41	24
2792.27	28
2793.14	23
2794.01	24.5
2794.87	29
2795.74	25.5
2796.61	27.5
2797.47	28.5
2798.34	25.5
2799.21	28
2800.07	25
2800.94	27.5
2801.8	29
2802.67	24.5
2803.53	24
2804.4	26
2805.26	26
2806.13	27
2806.99	27.5
2807.86	26.5
2808.72	26
2809.59	26
2810.45	27
2811.32	24
2812.18	27.5
2813.04	24.5
2813.91	29
2814.77	24.5
2815.64	28
2816.5	30.5
2817.36	25.5
2818.22	24
2819.09	30
2819.95	25
2820.81	25.5
2821.68	27.5
2822.54	26
2823.4	23
2824.26	27
2825.13	25.5
2825.99	25.5
2826.85	26
2827.71	27
2828.57	21.5
2829.44	30
2830.3	24.5
2831.16	26
2832.02	26
2832.88	25.5
2833.74	26.5
2834.6	23.5
2835.46	26.5
2836.32	25
2837.18	26
2838.04	24.5
2838.9	26
2839.76	26.5
2840.62	24
2841.48	25
2842.34	22
2843.2	27.5
2844.06	24.5
2844.92	27
2845.78	27
2846.64	30
2847.5	26.5
2848.36	21.5
2849.22	25.5
2850.08	27.5
2850.93	26
2851.79	25
2852.65	28
2853.51	25.5
2854.37	26
2855.22	24
2856.08	27
2856.94	27
2857.8	25
2858.65	28.5
2859.51	25
2860.37	25.5
2861.23	28.5
2862.08	27.5
2862.94	25
2863.79	25.5
2864.65	23.5
2865.51	25.5
2866.36	27
2867.22	28
2868.08	28
2868.93	28
2869.79	29
2870.64	31
2871.5	29
2872.35	30
2873.21	33
2874.06	22
2874.92	26.5
2875.77	27
2876.63	29.5
2877.48	32.5
2878.34	29.5
2879.19	30.5
2880.05	31.5
2880.9	29
2881.76	31
2882.61	29
2883.46	32
2884.32	33.5
2885.17	33.5
2886.02	32.5
2886.88	41
2887.73	36
2888.58	35.5
2889.44	40
2890.29	37.5
2891.14	38.5
2891.99	41
2892.85	45
2893.7	41
2894.55	47.5
2895.4	47.5
2896.25	43.5
2897.11	55
2897.96	49
2898.81	55
2899.66	58.5
2900.51	55.5
2901.36	63
2902.21	61.5
2903.07	66
2903.92	66
2904.77	61
2905.62	72.5
2906.47	63.5
2907.32	75.5
2908.17	67.5
2909.02	65.5
2909.87	63
2910.72	61.5
2911.57	57
2912.42	55.5
2913.27	52
2914.12	53
2914.97	48
2915.81	48
2916.66	48
2917.51	39.5
2918.36	41
2919.21	35
2920.06	42.5
2920.91	36
2921.75	31
2922.6	32
2923.45	36
2924.3	32
2925.15	32.5
2925.99	30
2926.84	32
2927.69	30
2928.54	26.5
2929.38	28
2930.23	32
2931.08	27.5
2931.92	31
2932.77	26
2933.62	30.5
2934.46	28
2935.31	29
2936.16	28
2937	28.5
2937.85	29.5
2938.69	25
2939.54	25.5
2940.38	29.5
2941.23	29
2942.08	29
2942.92	29
2943.77	28.5
2944.61	28
2945.46	26.5
2946.3	24
2947.15	30.5
2947.99	30
2948.83	29
2949.68	27.5
2950.52	31
2951.37	31.5
2952.21	28
2953.05	32.5
2953.9	33
2954.74	33
2955.58	32.5
2956.43	33
2957.27	35
2958.11	34
2958.96	37.5
2959.8	38
2960.64	38.5
2961.48	40
2962.33	34
2963.17	41.5
2964.01	48
2964.85	42.5
2965.69	44
2966.54	45
2967.38	42.5
2968.22	41.5
2969.06	38
2969.9	42.5
2970.74	38.5
2971.58	37.9879
2972.43	35.4663
2973.27	40.4969
2974.11	35.0483
2974.95	35.9603
2975.79	36.4441
2976.63	29.0981
2977.47	35.498
2978.31	28.6514
2979.15	30.663
2979.99	31.3332
2980.83	30.6862
2981.67	29.4413
2982.51	28.5887
2983.35	29.4297
2984.19	32.0485
2985.03	27.0734
2985.86	25.5309
2986.7	26.6354
2987.54	28.3894
2988.38	27.8248
2989.22	25.12
2990.06	28.4215
2990.9	24.7009
2991.73	24.6152
2992.57	25.3362
2993.41	23.959
2994.25	24.6942
2995.09	25.0752
2995.92	26.6383
2996.76	24.3232
2997.6	24.71
2998.44	27.4834
2999.27	22.8374
3000.11	25.2052
3000.95	25.4977
3001.78	22.3781
3002.62	25.6719
3003.46	21.282
3004.29	23.1012
3005.13	25.3304
3005.96	23.3353
3006.8	24.679
3007.64	24.0305
3008.47	24.3722
3009.31	22.6762
3010.14	22.55
3010.98	23.888
3011.81	23.2284
3012.65	24.1651
3013.48	23.296
3014.32	22.8264
3015.15	22.2354
3015.99	22.4864
3016.82	23.2354
3017.66	23.9223
3018.49	23.9729
3019.33	23.7461
3020.16	21.8661
3020.99	22.7966
3021.83	21.7625
3022.66	20.6883
3023.5	21.9238
3024.33	23.2014
3025.16	23.3678
3026	23.0397
3026.83	22.3445
3027.66	24.6052
3028.49	23.9042
3029.33	21.6139
3030.16	22.3825
3030.99	21.6987
3031.83	23.1697
3032.66	21.5313
3033.49	21.8017
3034.32	21.9207
3035.15	22.7092
3035.99	21.4744
3036.82	21.8265
3037.65	23.0257
3038.48	22.9888
3039.31	22.7278
3040.14	23.7961
3040.97	22.0293
3041.81	21.4816
3042.64	22.1874
3043.47	23.5618
3044.3	23.5475
3045.13	23.055
3045.96	23.5525
3046.79	23.1939
3047.62	22.2592
3048.45	23.9037
3049.28	23.3184
3050.11	21.8808
3050.94	21.4147
3051.77	22.8439
3052.6	22.7282
3053.43	23.7969
3054.26	26.9162
3055.08	23.8771
3055.91	22.2882
3056.74	23.6907
3057.26	24
3058.09	21
3058.92	22
3059.76	25.5
3060.59	21
3061.42	24.5
3062.25	26
3063.09	25
3063.92	24.5
3064.75	24.5
3065.58	25
3066.42	23
3067.25	19.5
3068.08	24
3068.91	23.5
3069.74	23
3070.57	21.5
3071.41	22.5
3072.24	24
3073.07	18.5
3073.9	23
3074.73	23
3075.56	25
3076.39	25.5
3077.22	23.5
3078.05	27
3078.88	21.5
3079.71	19.5
3080.54	24.5
3081.37	23
3082.2	23.5
3083.03	22
3083.86	22
3084.69	25.5
3085.52	27.5
3086.35	20.5
3087.18	24
3088.01	23
3088.84	25
3089.67	22.5
3090.5	24.5
3091.32	24.5
3092.15	24.5
3092.98	24.5
3093.81	22.5
3094.64	23
3095.47	25.5
3096.29	21
3097.12	26
3097.95	25
3098.78	22
3099.6	21
3100.43	23
3101.26	26.5
3102.09	19.5
3102.91	23
3103.74	24
3104.57	24
3105.39	23
3106.22	23
3107.05	25
3107.87	22
3108.7	23.5
3109.52	23
3110.35	21.5
3111.18	26.5
3112	22
3112.83	20
3113.65	23.5
3114.48	24
3115.3	23.5
3116.13	26
3116.95	21
3117.78	25
3118.6	22
3119.43	26
3120.25	22
3121.08	24.5
3121.9	24.5
3122.72	23
3123.55	21.5
3124.37	24
3125.2	27
3126.02	21
3126.84	22
3127.67	21
3128.49	23
3129.31	25.5
3130.14	22.5
3130.96	22.5
3131.78	22
3132.61	23
3133.43	23
3134.25	23
3135.07	23
3135.89	23.5
3136.72	22.5
3137.54	23
3138.36	19.5
3139.18	23
3140	25.5
3140.83	28
3141.65	24
3142.47	22.5
3143.29	23
3144.11	27
3144.93	20.5
3145.75	23
3146.57	23
3147.4	22.5
3148.22	24.5
3149.04	24.5
3149.86	25
3150.68	23
3151.5	25.5
3152.32	22.5
3153.14	25.5
3153.96	22.5
3154.78	23
3155.59	26.5
3156.42	23.5
3157.23	19
3158.05	21
3158.87	21
3159.69	26
3160.51	24.5
3161.33	20.5
3162.15	25.5
3162.97	24.5
3163.78	21
3164.6	24
3165.42	23.5
3166.24	28
3167.06	23.5
3167.87	22
3168.69	23
3169.51	25
3170.33	23.5
3171.14	24
3171.96	21
3172.78	23.5
3173.6	21.5
3174.41	24
3175.23	22
3176.05	20.5
3176.86	22.5
3177.68	26
3178.5	25.5
3179.31	22.5
3180.13	21
3180.94	26.5
3181.76	28
3182.58	23.5
3183.39	23
3184.21	23
3185.02	23
3185.84	23
3186.65	23
3187.47	25.5
3188.28	21
3189.1	28
3189.91	20
3190.73	24
3191.54	26
3192.36	26
3193.17	24.5
3193.98	23
3194.8	24.5
3195.61	25.5
3196.43	22.5
3197.24	24
3198.05	19
3198.87	24
3199.68	23
3200.49	21
3201.31	23
3202.12	22.5
3202.93	22.5
3203.75	28
3204.56	26
3205.37	23
3206.18	20.5
3207	22
3207.81	24.5
3208.62	20.5
3209.43	21.5
3210.24	23.5
3211.06	22.5
3211.87	25
3212.68	22.5
3213.49	15
3214.3	25
3215.11	23.5
3215.92	26
3216.73	21.5
3217.55	24.5
3218.36	26.5
3219.17	21.5
3219.98	24
3220.79	19.5
3221.6	26
3222.41	25
3223.22	23
3224.03	25
3224.84	19
3225.65	22.5
3226.46	24
3227.27	26
3228.08	22.5
3228.89	20
3229.7	22
3230.5	20.5
3231.31	27
3232.12	24
3232.93	22
3233.74	25.5
3234.55	22
3235.36	25
3236.16	20
3236.97	26.5
3237.78	24.5
3238.59	21
3239.4	20
3240.2	23
3241.01	23
3241.82	19.5
3242.63	22
3243.43	26.5
3244.24	19
3245.05	25
3245.85	22
3246.66	25.5
3247.47	22
3248.27	21
3249.08	24.5
3249.89	24.5
3250.69	24
3251.5	21.5
3252.31	22
3253.11	24.5
3253.92	22
3254.72	23
3255.53	29
3256.33	25.5
3257.14	20
3257.94	25.5
3258.75	24.5
3259.55	16
3260.36	23
3261.16	21.5
3261.97	27
3262.77	21
3263.58	19
3264.38	23.5
3265.19	23.5
3265.99	24.5
3266.79	20.5
3267.6	25.5
3268.4	25
3269.21	23.5
3270.01	21
3270.81	20.5
3271.62	24
3272.42	25.5
3273.22	23
3274.03	25.5
3274.83	24
3275.63	24.5
3276.43	23
3277.24	22
3278.04	23.5
3278.84	24
3279.64	25
3280.45	24
3281.25	24.5
3282.05	23
3282.85	27
3283.65	28.5
3284.45	23
3285.26	24.5
3286.06	19
3286.86	21
3287.66	23.5
3288.46	24
3289.26	22
3290.06	22.5
3290.86	26
3291.66	26.5
3292.46	25.5
3293.26	22
3294.06	25
3294.86	24.5
3295.66	25.5
3296.46	22.5
3297.26	21.5
3298.06	21.5
3298.86	23
3299.66	22
3300.46	26
3301.26	23
3302.06	23.5
3302.86	24
3303.66	21
3304.46	23.5
3305.25	24
3306.05	24.5
3306.85	24
3307.65	23.5
3308.45	21
3309.25	23
3310.04	22
3310.84	24.5
3311.64	25
3312.44	25
3313.23	25
3314.03	26.5
3314.83	25
3315.63	22
3316.42	22
3317.22	23
3318.02	26.5
3318.81	26.5
3319.61	21
3320.41	25
3321.2	21
3322	25.5
3322.8	24
3323.59	20
3324.39	21.5
3325.18	25
3325.98	23
3326.78	19
3327.57	22.5
3328.37	25.5
3329.16	25
3329.96	23
3330.75	28
3331.55	24
3332.34	26
3333.14	25
3333.93	27
3334.73	23
3335.52	25.5
3336.31	21.5
3337.11	25
3337.9	27
3338.7	23
3339.49	24.5
3340.28	24
3341.08	24
3341.87	23
3342.66	20.5
3343.46	27
3344.25	22.5
3345.04	19.5
3345.84	23
3346.63	25
3347.42	24.5
3348.22	23.5
3349.01	25
3349.8	26
3350.59	21
3351.39	24.5
3352.18	21
3352.97	23.5
3353.76	24.5
3354.55	24
3355.35	25
3356.14	22
3356.93	20.5
3357.72	22
3358.51	26.5
3359.3	23.5
3360.09	20.5
3360.88	26
3361.67	24
3362.46	23
3363.26	26.5
3364.05	20
3364.84	23
3365.63	26
3366.42	21.5
3367.21	26
3368	24
3368.79	26.5
3369.58	24
3370.37	25.5
3371.15	26
3371.94	22
3372.73	24
3373.52	21.5
3374.31	26
3375.1	25
3375.89	25.5
3376.68	26.5
3377.47	22.5
3378.26	25
3379.04	27
3379.83	21
3380.62	22.5
3381.41	23.5
3382.2	25
3382.98	21
3383.77	24.5
3384.56	24
3385.35	24.5
3386.13	24.5
3386.92	26
3387.71	24.5
3388.5	22
3389.28	27
3390.07	24
3390.86	23.5
3391.64	26.5
3392.43	23.5
3393.22	24.5
3394	23
3394.79	26
3395.57	20.5
3396.36	28.5
3397.15	24
3397.93	24.5
3398.72	25
3399.5	25.5
3400.29	26
3401.07	21.5
3401.86	23
3402.65	21
3403.43	26
3404.21	24
3405	24.5
3405.78	22.5
3406.57	23.5
3407.35	24.5
3408.14	23
3408.92	23.5
3409.71	27.5
3410.49	22.5
3411.27	22.5
3412.06	27
3412.84	21
3413.62	26.5
3414.41	23.5
3415.19	24
3415.97	22.5
3416.76	24.5
3417.54	25
3418.32	24.5
3419.11	26
3419.89	23.5
3420.67	23.5
3421.46	27.5
3422.24	23.5
3423.02	24.5
3423.8	19
3424.58	21
3425.37	24
3426.15	23
3426.93	23.5
3427.71	25.5
3428.49	25
3429.27	23
3430.05	26
3430.84	22.5
3431.62	24.5
3432.4	23
3433.18	22
3433.96	24
3434.74	23.5
3435.52	23.5
3436.3	28
3437.08	26
3437.86	23
3438.64	23
3439.42	22
3440.2	21.5
3440.98	22
3441.76	25.5
3442.54	26.5
3443.32	22.5
3444.1	29
3444.88	22.5
3445.66	22.5
3446.44	22
3447.22	24.5
3448	27
3448.77	25.5
3449.55	22.5
3450.33	22.5
3451.11	19
3451.89	26
3452.67	22
3453.45	22
3454.22	24.5
3455	22
3455.78	22
3456.56	26
3457.33	26.5
3458.11	23
3458.89	22.5
3459.67	27.5
3460.44	29
3461.22	24.5
3462	21
3462.77	23.5
3463.55	28
3464.33	24
3465.1	23.5
3465.88	21
3466.66	22.5
3467.43	22.5
3468.21	24
3468.98	19.5
3469.76	25
3470.54	24
3471.31	25
3472.09	20.5
3472.86	20
3473.64	23.5
3474.41	20
3475.19	22
3475.96	19
3476.74	19.5
3477.51	25.5
3478.29	23
3479.06	26.5
3479.84	25
3480.61	23
3481.39	21
3482.16	24
3482.93	22
3483.71	22
3484.48	30
3485.25	23.5
3486.03	24.5
3486.8	24
3487.57	24
3488.35	21.5
3489.12	21
3489.89	24
3490.67	23.5
3491.44	24
3492.21	26
3492.99	23.5
3493.76	23
3494.53	19.5
3495.3	28.5
3496.08	20.5
3496.85	22
3497.62	21
3498.39	26
3499.16	23.5
3499.93	26.5
