#Acq. time (s)=	5
#Accumulations=	5
#Range (cm-¹)=	100...3500
#Windows=	4
#Autofocus=	Off
#AutoExposure=	Off
#Spike filter=	Multiple accum.
#Delay time (s)=	0
#Binning=	1
#Readout mode=	Signal
#DeNoise=	Off
#ICS correction=	Off
#Dark correction=	Off
#Inst. Process=	Off
#Instrument=	LabRAM HR Evol
#Detector=	Syncerity OE
#Objective=	x100_VIS
#Grating=	600 (500nm)
#ND Filter=	25%
#Laser=	633nm_Edge
#Hole=	100.021
#Range=	Visible
#Project=	verificaciones
#Sample=	at1
#Site=	plain
#Title=	bolusat1plain
#Remark=	com
#Date=	16.01.2026 16:10
#Acquired=	16.01.2026 16:10:02
100.564	25.5
101.847	32
103.131	32
104.414	32.5
105.697	29.5
106.979	29
108.262	29.5
109.544	30
110.826	29
112.109	31.5
113.391	30
114.672	31.5
115.954	24
117.235	34.5
118.515	30.5
119.796	29
121.076	33.5
122.357	29
123.637	32
124.916	31.5
126.196	34
127.475	28.5
128.754	31
130.033	35
131.31	35
132.589	36
133.867	33.5
135.145	32
136.423	39.5
137.701	33
138.978	36
140.256	31.5
141.533	36
142.809	38.5
144.086	40.5
145.361	35.5
146.637	37
147.913	36
149.189	40.5
150.464	37
151.74	37
153.014	39.5
154.288	38.5
155.563	43.5
156.838	44.5
158.112	42
159.385	38
160.659	41.5
161.932	39.5
163.206	40.5
164.479	39.5
165.751	41
167.024	43
168.296	42
169.567	37.5
170.84	39.5
172.112	39.5
173.383	36.5
174.654	42.5
175.925	36
177.196	39
178.466	41
179.737	39.5
181.007	41
182.276	41
183.546	44.5
184.816	41.5
186.085	43
187.354	40.5
188.624	40.5
189.891	43.5
191.16	39
192.427	39
193.696	41
194.964	37
196.231	43.5
197.499	38.5
198.765	34
200.033	40
201.298	34.5
202.566	37.5
203.831	35.5
205.098	39.5
206.363	36
207.629	36
208.894	35.5
210.159	37
211.424	37.5
212.689	37
213.953	30.5
215.218	39.5
216.481	33
217.746	32
219.009	34.5
220.273	35.5
221.536	34
222.798	30.5
224.062	31.5
225.323	32.5
226.587	31
227.848	31.5
229.109	29.5
230.372	30.5
231.633	32.5
232.894	25
234.156	31
235.416	31
236.678	30.5
237.937	37
239.197	27
240.457	31.5
241.717	28
242.976	31
244.235	27.5
245.495	27.5
246.754	31
248.012	27.5
249.27	31
250.529	28
251.787	30
253.045	32
254.302	30
255.56	24
256.817	28.5
258.074	29.5
259.33	30
260.586	30
261.844	28
263.1	29
264.355	28.5
265.611	31
266.866	34
268.121	29
269.377	31
270.632	29
271.886	32
273.14	29
274.394	28
275.648	29
276.902	29
278.155	28.5
279.408	26
280.663	30
281.915	24
283.168	32.5
284.42	29
285.673	33
286.925	24
288.176	28
289.428	31.5
290.679	27.5
291.93	28
293.181	26
294.432	29
295.683	28
296.933	29.5
298.183	31.5
299.433	27
300.683	29.5
301.932	26
303.182	29.5
304.429	28
305.678	25
306.927	32.5
308.176	30.5
309.424	32
310.672	27.5
311.92	30
313.168	31.5
314.415	26
315.661	31
316.908	29
318.155	28.5
319.402	32.5
320.648	28
321.895	29
323.139	30
324.385	28.5
325.631	31
326.877	27.5
328.122	25.5
329.366	26
330.611	27
331.855	29
333.1	28.5
334.343	27
335.587	32
336.831	31
338.074	32
339.317	28
340.56	29
341.803	24
343.044	25
344.287	29
345.53	27
346.771	23.5
348.013	28.5
349.255	29.5
350.495	27
351.736	29
352.978	30
354.217	31
355.458	28
356.699	27
357.938	29
359.178	29
360.417	27
361.657	25
362.895	26
364.135	25
365.374	27
366.612	30
367.851	33.5
369.088	30
370.327	28
371.564	27
372.802	26
374.038	31.5
375.276	27
376.512	27.5
377.749	29.5
378.985	30
380.222	27.5
381.457	30
382.692	27.5
383.929	25.5
385.164	25.5
386.4	23
387.634	23
388.869	29
390.103	28
391.337	24.5
392.572	26
393.805	30.5
395.038	26.5
396.273	28.5
397.506	31
398.74	29.5
399.972	28
401.204	24.5
402.437	26
403.669	27
404.901	26
406.132	28
407.365	26.5
408.596	31
409.826	28.5
411.058	26.5
412.289	28
413.519	24
414.749	25
415.98	30
417.21	31
418.439	28.5
419.668	26
420.897	26.5
422.128	27
423.356	27
424.585	30
425.813	26.5
427.041	27
428.269	22.5
429.498	28
430.725	29.5
431.952	28
433.179	27
434.406	29
435.633	29
436.859	26
438.085	30
439.312	27.5
440.537	29
441.764	26
442.99	27.5
444.215	27.5
445.44	30
446.665	26.5
447.89	27
449.114	34
450.339	27.5
451.563	26
452.787	22.5
454.01	30.5
455.234	24.5
456.457	27.5
457.68	30
458.903	27
460.126	29.5
461.348	25
462.569	31
463.792	23.5
465.013	32.5
466.235	32
467.457	28.5
468.678	39
469.899	33
471.12	34.5
472.341	36.5
473.56	36
474.781	36
476.001	42.5
477.221	38
478.441	39.5
479.66	43.5
480.878	50
482.098	47
483.317	47
484.535	54.5
485.754	52.5
486.971	61
488.189	58.5
489.407	57
490.625	64
491.842	58.5
493.059	56
494.276	50.5
495.493	48
496.709	46.5
497.926	49
499.142	45
500.357	45.5
501.573	45
502.789	43
504.003	38
505.219	39.5
506.434	40.5
507.648	36
508.863	38
510.078	38
511.291	36
512.505	32
513.718	37.5
514.932	38.5
516.145	33.5
517.358	29
518.572	33.5
519.783	32
520.997	31
522.208	32
523.421	31.5
524.632	31.5
525.844	26.5
527.055	30
528.266	31
529.477	29
530.688	31.5
531.898	29.5
533.109	30.5
534.319	30
535.53	30.5
536.739	31
537.948	28
539.158	28.5
540.366	32.5
541.576	27
542.784	30.5
543.994	28.5
545.201	25
546.409	30
547.618	26
548.825	28
550.032	28
551.24	28.5
552.447	29
553.654	33
554.861	30.5
556.067	30
557.273	28.5
558.48	26.5
559.686	26
560.891	28
562.096	28
563.302	30
564.507	29.5
565.712	31
566.916	32
568.122	29
569.326	29
570.529	26.5
571.733	28.5
572.936	28
574.141	27.5
575.344	27.5
576.547	30
577.75	24
578.952	27
580.154	26.5
581.358	30
582.56	30
583.761	24
584.963	25
586.164	30
587.365	28
588.566	31
589.767	28
590.967	25.5
592.168	26.5
593.369	28
594.569	27
595.769	27.5
596.969	28.5
598.168	25.5
599.367	29
600.566	31.5
601.765	22.5
602.964	30.5
604.162	29
605.361	25
606.559	29
607.757	32
608.953	26.5
610.151	29.5
611.348	27.5
612.545	28.5
613.742	25
614.939	30.5
616.135	26.5
617.332	32
618.528	31.5
619.724	28.5
620.918	27.5
622.114	28
623.309	31
624.505	30
625.7	29.5
626.895	29
628.088	27
629.282	30
630.477	32
631.671	29
632.865	25
634.057	27
635.251	31.5
636.444	28.5
637.637	29.5
638.829	28
640.022	25
641.214	27
642.407	27
643.598	28
644.79	31
645.982	29.5
647.172	27
648.364	28.5
649.555	25
650.745	28
651.936	30.5
653.126	25
654.315	26
655.506	29.5
656.696	30
657.885	26.5
659.074	29.5
660.263	31
661.452	31
662.64	29
663.829	29.5
665.018	27
666.205	28.5
667.394	26
668.581	29.5
669.769	28
670.955	32.5
672.143	27.5
673.329	26.5
674.517	32
675.703	30
676.89	32
678.075	33.5
679.262	33
680.447	33.5
681.632	34
682.818	35
684.002	32
685.188	31
686.372	35.5
687.556	31
688.741	36
689.925	32.5
691.11	34
692.293	32
693.476	35.5
694.66	36.5
695.843	33.5
697.025	34.5
698.209	34.5
699.391	35
700.573	36.5
701.756	36
702.938	43
704.119	39.5
705.3	47
706.483	49.5
707.664	50.5
708.844	48.5
710.025	50.5
711.206	47.5
712.386	44
713.566	35.5
714.746	37.5
715.925	34.5
717.106	28
718.285	31.5
719.464	31.5
720.643	30
721.822	30.5
723	32.5
724.178	31.5
725.358	26.5
726.536	27.5
727.713	25
728.891	29.5
730.068	29.5
731.245	30
732.422	25.5
733.599	28
734.775	27.5
735.952	27
737.128	29.5
738.304	28.5
739.48	28.5
740.656	28
741.831	26
743.006	29.5
744.181	31.5
745.356	26
746.531	29
747.706	32
748.88	28
750.054	26
751.228	29
752.402	24.5
753.576	33
754.749	29.5
755.922	26
757.095	28
758.267	28
759.44	24
760.612	28.5
761.785	28
762.957	29
764.129	25
765.301	28
766.471	28.5
767.642	29.5
768.814	32
769.985	29.5
771.156	24.5
772.325	27
773.495	25
774.666	28
775.836	30.5
777.005	29
778.174	30
779.344	32
780.513	29.5
781.681	28.5
782.85	32
784.019	28.5
785.187	27.5
786.355	29
787.523	33
788.69	31
789.858	29.5
791.026	33
792.192	34
793.36	32
794.526	29
795.693	32
796.86	31
798.025	32
799.191	28.5
800.356	30
801.523	28.5
802.689	28
803.853	28
805.019	29.5
806.183	30
807.348	28.5
808.512	29
809.677	31.5
810.84	27.5
812.005	30
813.167	29
814.332	29
815.494	27
816.657	26
817.82	28.5
818.982	27
820.146	29
821.307	28.5
822.47	28.5
823.632	29
824.793	26.5
825.955	29.5
827.116	30
828.277	27
829.439	26
830.599	23
831.759	28
832.92	28.5
834.08	30
835.24	26.5
836.4	29
837.56	30
838.719	25.5
839.877	26.5
841.037	20
842.196	25
843.354	25
844.512	27.5
845.672	27
846.83	28
847.987	26
849.145	28
850.302	24
851.46	29
852.617	30
853.774	30.5
854.93	28.5
856.087	28
857.243	29
858.4	29.5
859.556	33
860.712	28.5
861.867	30.5
863.022	35
864.177	32.5
865.332	28
866.487	27
867.642	30.5
868.796	27
869.95	28.5
871.104	27
872.258	28
873.412	32
874.565	31
875.718	24
876.872	30.5
878.024	27.5
879.177	26.5
880.33	27.5
881.482	28.5
882.635	28
883.787	28
884.938	28
886.09	26.5
887.242	26.5
888.393	26.5
889.544	26
890.695	23.5
891.845	23
892.995	28
894.146	29.5
895.296	26.5
896.446	25
897.596	27
898.744	24
899.894	30
901.043	29
902.193	26.5
903.342	26.5
904.489	28
905.638	25
906.786	25.5
907.935	22
909.081	30
910.229	25.5
911.377	26.5
912.525	29
913.671	27.5
914.818	27
915.965	22.5
917.111	29
918.258	28.5
919.404	27
920.549	26
921.695	27.5
922.84	26.5
923.986	29.5
925.132	27.5
926.276	25.5
927.421	26
928.565	26
929.71	25.5
930.855	26.5
931.998	24.5
933.142	30
934.285	25.5
935.429	25.5
936.572	27
937.716	25
938.858	26
940.001	24.5
941.143	25.5
942.286	26
943.428	27
944.57	24.5
945.712	26.5
946.854	26.5
947.995	25
949.135	28.5
950.277	27.5
951.418	26
952.559	27
953.699	24.5
954.839	25
955.98	24
957.119	27
958.258	24.5
959.399	27
960.538	26
961.676	27.5
962.816	23
963.955	25
965.093	25
966.232	27
967.37	24.5
968.508	26
969.645	25.5
970.784	25.5
971.921	25
973.058	21
974.195	30
975.333	24
976.469	24
977.605	24.5
978.741	24.5
979.877	27.5
981.013	23.5
982.15	30
983.285	26
984.421	27
985.556	25
986.691	24
987.825	28.5
988.96	25
990.094	25.5
991.228	24.5
992.364	26.5
993.497	27
994.631	29.5
995.765	24.5
996.898	26.5
998.031	25
999.164	26.5
1000.3	26
1001.43	28
1002.56	26
1003.69	24
1004.83	26.5
1005.96	27.5
1007.09	24.5
1008.22	32
1009.35	23.5
1010.48	26.5
1011.61	25.5
1012.74	27
1013.88	28.5
1015.01	24
1016.14	26.5
1017.27	26.5
1018.4	23
1019.53	27
1020.65	28
1021.78	26
1022.91	23.5
1024.04	25
1025.17	26
1026.3	27
1027.43	24.5
1028.56	28
1029.68	24.5
1030.81	27
1031.94	25
1033.07	24
1034.19	26
1035.32	27
1036.45	22.5
1037.58	26
1038.7	26.5
1039.83	25.5
1040.95	22
1042.08	25.5
1043.21	25.5
1044.33	24
1045.46	27
1046.58	25
1047.71	25
1048.83	25
1049.96	24
1051.08	22
1052.21	28.5
1053.33	25
1054.45	28
1055.58	26
1056.7	26.5
1057.82	27
1058.95	21.5
1060.07	25
1061.19	25.5
1062.32	24
1063.44	27
1064.56	23
1065.68	25.5
1066.81	29.5
1067.93	25
1069.05	19.5
1070.17	24
1071.29	28
1072.41	26
1073.53	30
1074.65	23.5
1075.77	28
1076.89	24
1078.01	27
1079.13	26.5
1080.25	23.5
1081.37	29
1082.49	23
1083.61	25
1084.73	24
1085.85	31
1086.97	24.5
1088.09	23
1089.2	25
1090.32	27.5
1091.44	27
1092.56	25.5
1093.68	26.5
1094.79	25
1095.91	25
1097.03	29.5
1098.14	23.5
1099.26	23
1100.38	23.5
1101.49	25
1102.61	19
1103.73	27
1104.84	25
1105.96	23.5
1107.07	26
1108.19	24.5
1109.3	26
1110.42	24
1111.53	25.5
1112.65	20.5
1113.76	27.5
1114.88	24
1115.99	26
1117.1	23.5
1118.22	23.5
1119.33	22.5
1120.44	26.5
1121.56	21.5
1122.67	28.5
1123.78	22.5
1124.89	25
1126.01	25.5
1127.12	27
1128.23	23
1129.34	27.5
1130.45	22.5
1131.56	23.5
1132.67	24
1133.79	22
1134.9	26
1136.01	27
1137.12	23
1138.23	24
1139.34	28
1140.45	22.5
1141.56	28
1142.67	22
1143.78	24.5
1144.89	24
1145.99	27.5
1147.1	27.5
1148.21	26
1149.32	24.5
1150.43	24.5
1151.54	23
1152.65	23
1153.75	25.5
1154.86	27
1155.97	26
1157.08	24
1158.18	27.5
1159.29	27.5
1160.4	24
1161.5	22.5
1162.61	27.5
1163.72	28
1164.82	26
1165.93	27.5
1167.03	23.5
1168.14	24.5
1169.24	28
1170.35	28
1171.45	23.5
1172.56	25.5
1173.66	25.5
1174.77	21
1175.87	24.5
1176.98	28.5
1178.08	24.5
1179.18	26.5
1180.29	23.5
1181.39	26
1182.49	29
1183.6	25.5
1184.7	24.5
1185.8	25
1186.9	26.5
1188	23
1189.11	24.5
1190.21	23.5
1191.31	26
1192.41	25.5
1193.51	23
1194.61	22.0091
1195.72	25.4727
1196.82	24.5879
1197.92	24.6353
1199.02	21.1529
1200.12	23.5534
1201.22	22.1642
1202.32	23.1996
1203.42	21.5512
1204.52	24.0184
1205.62	26.4178
1206.71	23.629
1207.81	24.2772
1208.91	22.245
1210.01	25.5184
1211.11	27.3633
1212.21	23.7876
1213.31	24.7642
1214.4	24.0296
1215.5	21.0939
1216.6	26.4845
1217.7	20.3097
1218.79	24.0658
1219.89	24.1715
1220.99	27.5175
1222.08	26.2547
1223.18	25.2297
1224.28	23.6332
1225.37	22.2777
1226.47	25.7816
1227.56	28.5412
1228.66	23.382
1229.76	25.3534
1230.85	23.0397
1231.95	25.2994
1233.04	22.043
1234.14	25.8888
1235.23	23.5032
1236.32	25.3441
1237.42	25.0966
1238.51	23.6843
1239.61	24.7517
1240.7	24.2249
1241.79	26.72
1242.89	23.2862
1243.98	26.214
1245.07	25.3678
1246.17	23.3417
1247.26	24.7532
1248.35	24.4417
1249.44	25.4172
1250.53	26.1923
1251.63	24.0834
1252.72	25.6886
1253.81	24.4994
1254.9	25.4585
1255.99	25.8335
1257.08	22.0679
1258.17	26.1298
1259.27	26.1882
1260.36	27.0378
1261.45	26.2946
1262.54	28.1716
1263.63	27.318
1264.72	26.0817
1265.81	24.818
1266.89	25.524
1267.98	25.1148
1269.07	22.7966
1270.16	22.3073
1271.25	23.8431
1272.34	25.2824
1273.43	24.5315
1274.52	24.2774
1275.6	24.7931
1276.69	27.3946
1277.78	25.8995
1278.87	26.0329
1279.95	23.8244
1281.04	23.4968
1282.13	24.618
1283.22	25.314
1284.3	25.3037
1285.39	24.6893
1286.48	24.8592
1287.56	26.4592
1288.65	25.5803
1289.73	24.5227
1290.82	23.416
1291.9	23.6482
1292.99	24.9275
1294.07	24.4707
1295.16	27.2767
1296.24	26.2137
1297.33	24.8149
1298.41	25.595
1299.5	25.0681
1300.58	22.2893
1301.66	24.119
1302.75	23.7797
1303.83	23.3991
1304.91	23.8146
1306	23.9782
1306.4	24
1307.48	22
1308.57	24
1309.66	27
1310.75	26.5
1311.84	24
1312.92	27
1314.01	23.5
1315.1	25.5
1316.18	27
1317.27	24
1318.36	25.5
1319.44	23.5
1320.53	22
1321.62	25
1322.7	23.5
1323.79	26
1324.87	23
1325.96	23.5
1327.04	28
1328.13	21.5
1329.21	23.5
1330.3	22
1331.38	23
1332.47	23
1333.55	22.5
1334.64	24.5
1335.72	25
1336.8	27
1337.89	27
1338.97	29
1340.05	26
1341.14	24
1342.22	28
1343.3	27
1344.38	22
1345.47	23
1346.55	28
1347.63	24
1348.71	27
1349.79	24
1350.87	23
1351.96	22.5
1353.04	24
1354.12	24.5
1355.2	23
1356.28	27.5
1357.36	25
1358.44	27.5
1359.52	24
1360.6	24.5
1361.68	24.5
1362.76	24.5
1363.84	23.5
1364.92	25
1366	26
1367.07	20
1368.15	24
1369.23	24
1370.31	27
1371.39	26
1372.47	25.5
1373.54	24
1374.62	27.5
1375.7	23.5
1376.78	26
1377.85	25.5
1378.93	24.5
1380.01	27
1381.08	27
1382.16	26.5
1383.24	27.5
1384.31	23
1385.39	28
1386.46	25
1387.54	30.5
1388.61	27
1389.69	27.5
1390.76	26
1391.84	28
1392.91	24.5
1393.99	28.5
1395.06	30
1396.14	29
1397.21	28
1398.29	27
1399.36	29
1400.43	29.5
1401.51	31.5
1402.58	30.5
1403.65	28
1404.72	29
1405.8	30
1406.87	33.5
1407.94	32
1409.02	29
1410.09	34
1411.16	34
1412.23	30
1413.3	30.5
1414.37	34.5
1415.44	33
1416.51	32
1417.59	31.5
1418.66	29.5
1419.73	29
1420.8	32
1421.87	31
1422.94	24.5
1424.01	25.5
1425.08	30
1426.15	28
1427.22	27.5
1428.28	27
1429.35	26
1430.42	26
1431.49	26.5
1432.56	26.5
1433.63	24.5
1434.7	27
1435.76	25.5
1436.83	24
1437.9	24.5
1438.97	29.5
1440.03	25
1441.1	31.5
1442.17	30
1443.23	28
1444.3	25.5
1445.37	29.5
1446.43	26.5
1447.5	25
1448.57	31
1449.63	26.5
1450.7	31.5
1451.76	29
1452.83	27
1453.89	25.5
1454.96	29.5
1456.02	25
1457.09	29
1458.15	26
1459.22	29
1460.28	30.5
1461.34	26.5
1462.41	24.5
1463.47	27.5
1464.53	24.5
1465.6	27
1466.66	23
1467.72	27
1468.78	25
1469.85	27
1470.91	27
1471.97	26
1473.03	26.5
1474.1	23
1475.16	26
1476.22	25.5
1477.28	21.5
1478.34	26
1479.4	25.5
1480.46	23
1481.52	26
1482.58	24.5
1483.65	29
1484.71	24.5
1485.77	26.5
1486.82	27
1487.89	28
1488.94	28
1490	27
1491.06	29.5
1492.12	23
1493.18	25
1494.24	26
1495.3	25.5
1496.36	28.5
1497.41	25
1498.47	25
1499.53	26.5
1500.59	27
1501.65	21
1502.7	26
1503.76	22
1504.82	27
1505.87	22.5
1506.93	24.5
1507.99	28
1509.04	25
1510.1	26
1511.16	25
1512.21	28.5
1513.27	23
1514.32	28.5
1515.38	22
1516.43	27
1517.49	25.5
1518.54	28
1519.6	27.5
1520.65	24.5
1521.71	25.5
1522.76	29.5
1523.81	23
1524.87	26
1525.92	25
1526.98	28
1528.03	27.5
1529.08	28
1530.14	23
1531.19	25
1532.24	25.5
1533.29	25.5
1534.35	26
1535.4	28
1536.45	25.5
1537.5	25
1538.55	25.5
1539.61	25
1540.66	27.5
1541.71	25
1542.76	25
1543.81	23.5
1544.86	28.5
1545.91	23.5
1546.96	24
1548.01	23
1549.06	27
1550.11	25
1551.16	24
1552.21	24.5
1553.26	24.5
1554.31	24.5
1555.36	30.5
1556.41	27
1557.46	29.5
1558.5	27.5
1559.55	27.5
1560.6	27
1561.65	29.5
1562.7	29
1563.74	25
1564.79	27
1565.84	24
1566.89	28.5
1567.93	28
1568.98	24
1570.03	27
1571.07	27.5
1572.12	28.5
1573.17	27
1574.21	26.5
1575.26	26
1576.3	26.5
1577.35	29.5
1578.4	29.5
1579.44	29.5
1580.49	26
1581.53	28
1582.58	26
1583.62	24.5
1584.66	25
1585.71	21
1586.75	25.5
1587.8	28.5
1588.84	23.5
1589.88	25
1590.93	27.5
1591.97	26
1593.01	23
1594.06	25.5
1595.1	24.5
1596.14	25.5
1597.18	24
1598.23	24
1599.27	27.5
1600.31	23
1601.35	26
1602.39	24
1603.44	28.5
1604.48	24
1605.52	27
1606.56	25
1607.6	26
1608.64	22.5
1609.68	27
1610.72	25
1611.76	26.5
1612.8	25
1613.84	21
1614.88	28
1615.92	25
1616.96	28.5
1618	25.5
1619.04	23.5
1620.08	24.5
1621.12	27
1622.16	24
1623.19	27.5
1624.23	25
1625.27	27
1626.31	23.5
1627.35	26
1628.38	24.5
1629.42	24.5
1630.46	27
1631.49	27
1632.53	24.5
1633.57	25
1634.6	26
1635.64	27.5
1636.68	22
1637.71	23.5
1638.75	26.5
1639.79	23
1640.82	30
1641.86	28
1642.89	27
1643.93	28.5
1644.96	24.5
1646	25
1647.03	23.5
1648.07	25.5
1649.1	25.5
1650.13	29
1651.17	24.5
1652.2	22.5
1653.24	30
1654.27	24.5
1655.3	26
1656.34	24
1657.37	25
1658.4	26
1659.43	25.5
1660.47	24
1661.5	23.5
1662.53	23.5
1663.56	24.5
1664.6	22
1665.63	28.5
1666.66	26.5
1667.69	24
1668.72	28
1669.75	28.5
1670.78	28.5
1671.81	26
1672.85	22
1673.88	29.5
1674.91	26.5
1675.94	25
1676.97	24.5
1678	25
1679.03	26.5
1680.06	23.5
1681.09	24
1682.11	22
1683.14	24.5
1684.17	25
1685.2	26
1686.23	26.5
1687.26	24
1688.29	26.5
1689.31	30
1690.34	23.5
1691.37	25.5
1692.4	24.5
1693.42	27
1694.45	28.5
1695.48	25
1696.51	25.5
1697.53	23
1698.56	25
1699.59	23
1700.61	25
1701.64	24.5
1702.66	23
1703.69	25
1704.72	26
1705.74	24.5
1706.77	25
1707.79	27.5
1708.82	27
1709.84	25
1710.87	29
1711.89	19
1712.91	27.5
1713.94	22.5
1714.96	27
1715.99	23.5
1717.01	22.5
1718.03	27
1719.06	25.5
1720.08	19.5
1721.1	26
1722.13	27
1723.15	23
1724.17	27.5
1725.19	26
1726.22	24
1727.24	25
1728.26	26
1729.28	27.5
1730.3	23.5
1731.33	24
1732.35	23
1733.37	28
1734.39	26.5
1735.41	22.5
1736.43	25
1737.45	27
1738.47	30.5
1739.49	21.5
1740.51	24
1741.53	24
1742.55	27
1743.57	27
1744.59	26.5
1745.61	27.5
1746.63	24
1747.65	21.5
1748.67	26.5
1749.69	26.5
1750.7	25
1751.72	24.5
1752.74	27.5
1753.76	23.5
1754.78	29
1755.79	28.5
1756.81	23.5
1757.83	29.5
1758.85	26
1759.86	27.5
1760.88	26
1761.9	25.5
1762.91	23.5
1763.93	26
1764.95	25.5
1765.96	23.5
1766.98	26
1767.99	24.5
1769.01	26.5
1770.02	27
1771.04	25.5
1772.06	29.5
1773.07	21
1774.09	24.5
1775.1	24.5
1776.11	24.5
1777.13	23
1778.14	23
1779.16	26
1780.17	25
1781.18	26
1782.2	24
1783.21	28.5
1784.22	23.5
1785.24	26
1786.25	23.5
1787.26	25.5
1788.28	25
1789.29	28.5
1790.3	24.5
1791.31	23.5
1792.33	25
1793.34	27.5
1794.35	26
1795.36	25.5
1796.37	26
1797.38	23.5
1798.39	27.5
1799.4	25
1800.42	24
1801.43	26
1802.44	27.5
1803.45	25.5
1804.46	24.5
1805.47	24
1806.48	23.5
1807.49	26.5
1808.5	24.5
1809.51	24
1810.51	25
1811.52	30.5
1812.53	26.5
1813.54	28.5
1814.55	22
1815.56	28
1816.57	27.5
1817.57	22
1818.58	24
1819.59	28
1820.6	27
1821.61	24
1822.61	27
1823.62	25.5
1824.63	26
1825.63	29
1826.64	25
1827.65	19
1828.65	23
1829.66	22.5
1830.67	26
1831.67	25.5
1832.68	30
1833.68	20
1834.69	25
1835.69	29.5
1836.7	25.5
1837.7	25.5
1838.71	27
1839.71	24.5
1840.72	27
1841.72	26
1842.73	21.5
1843.73	23
1844.73	25
1845.74	23.5
1846.74	27.5
1847.74	23
1848.75	22.5
1849.75	28
1850.75	26.5
1851.76	25.5
1852.76	22
1853.76	23
1854.76	27
1855.77	28
1856.77	23
1857.77	27
1858.77	23
1859.77	21
1860.77	29.5
1861.78	21
1862.78	28.5
1863.78	24.5
1864.78	23
1865.78	24.5
1866.78	25
1867.78	25
1868.78	28.5
1869.78	25.5
1870.78	30
1871.78	21.5
1872.78	29
1873.78	24
1874.78	21.5
1875.78	26
1876.78	24
1877.78	23.5
1878.77	28.5
1879.77	26
1880.77	26
1881.77	26
1882.77	26
1883.77	27.5
1884.76	23.5
1885.76	27.5
1886.76	27
1887.75	23
1888.75	22.5
1889.75	24.5
1890.75	24
1891.74	24
1892.74	28
1893.73	21
1894.73	23.5
1895.73	23
1896.72	23.5
1897.72	28
1898.71	28
1899.71	25.5
1900.7	24
1901.7	24.5
1902.69	23
1903.69	22.5
1904.68	24.5
1905.68	25
1906.67	22.5
1907.67	27.5
1908.66	25
1909.65	26.5
1910.65	24
1911.64	24
1912.63	24
1913.63	26
1914.62	26
1915.61	23
1916.61	20
1917.6	28
1918.59	27
1919.58	23.5
1920.58	22.5
1921.57	23
1922.56	24.5
1923.55	25.5
1924.54	28
1925.54	24
1926.53	26.5
1927.52	26
1928.51	24
1929.5	24
1930.49	24
1931.48	26.5
1932.47	25.5
1933.46	20
1934.45	24.5
1935.44	23
1936.43	22
1937.42	23.5
1938.41	25.5
1939.4	27
1940.39	23
1941.38	28.5
1942.37	26.5
1943.35	26
1944.34	26
1945.33	26.5
1946.32	18
1947.31	26
1948.3	24.75
1949.28	23.5
1950.27	24.5
1951.26	24
1952.25	24
1953.23	22.5
1954.22	23.5
1955.21	20.5
1956.19	23.5
1957.18	23.5
1958.17	28.5
1959.15	25.5
1960.14	23.5
1961.12	22
1962.11	25.5
1963.1	25
1964.08	24.5
1965.07	22
1966.05	24.5
1967.04	24
1968.02	28.5
1969.01	29
1969.99	25
1970.98	26
1971.96	24.5
1972.94	24
1973.93	25
1974.91	23
1975.9	23
1976.88	24
1977.86	26.5
1978.85	26.5
1979.83	24
1980.81	28
1981.79	25
1982.78	20.5
1983.76	26
1984.74	21.5
1985.72	25.5
1986.71	23.5
1987.69	26
1988.67	27.5
1989.65	26.5
1990.63	24
1991.61	25.5
1992.59	26.5
1993.57	25.5
1994.56	26
1995.54	26.5
1996.52	24.5
1997.5	27
1998.48	25.5
1999.46	23.5
2000.44	27.5
2001.42	23
2002.4	23
2003.38	24
2004.36	25
2005.33	22
2006.31	25.5
2007.29	22.5
2008.27	25.5
2009.25	24
2010.23	24
2011.21	25.5
2012.18	21.5
2013.16	21.5
2014.14	21.5
2015.12	23.5
2016.09	26.5
2017.07	22.5
2018.05	26
2019.03	26.5
2020	22
2020.98	24
2021.96	24.5
2022.93	24.5
2023.91	25
2024.89	27
2025.86	26
2026.84	24
2027.81	23
2028.79	24
2029.76	22.5
2030.74	23
2031.71	25
2032.69	22.5
2033.66	22.5
2034.64	25
2035.61	23
2036.59	23
2037.56	27
2038.54	23
2039.51	24.5
2040.48	22.5
2041.46	26
2042.43	22
2043.4	24
2044.38	23.5
2045.35	26
2046.32	23.5
2047.29	18
2048.27	22
2049.24	23.5
2050.21	24.5
2051.18	22
2052.16	22
2053.13	26
2054.1	24.5
2055.07	19.5
2056.04	22
2057.01	29
2057.98	22.5
2058.96	24
2059.93	24.5
2060.9	24
2061.87	23
2062.84	24
2063.81	23.5
2064.78	23
2065.75	23.5
2066.72	22.5
2067.69	25.5
2068.66	23
2069.63	24
2070.6	21
2071.56	23.5
2072.53	25.5
2073.5	20.5
2074.47	26.5
2075.44	27.5
2076.41	22.5
2077.38	25
2078.34	26
2079.31	23
2080.28	24.5
2081.25	21.5
2082.21	26
2083.18	23
2084.15	25.5
2085.11	23.5
2086.08	25
2087.05	27
2088.01	24.5
2088.98	24.5
2089.95	26
2090.91	23
2091.88	24
2092.84	25.5
2093.81	21
2094.78	25
2095.74	28
2096.71	22.5
2097.67	25.5
2098.64	22
2099.6	22.5
2100.57	22.5
2101.53	26.5
2102.49	22
2103.46	27.5
2104.42	22
2105.39	25.5
2106.35	24
2107.31	22
2108.28	22
2109.24	23
2110.2	24
2111.17	21.5
2112.13	25.5
2113.09	25
2114.05	22.5
2115.02	24.5
2115.98	23.5
2116.94	28.5
2117.9	29
2118.86	26.5
2119.83	25
2120.79	25
2121.75	21.5
2122.71	25
2123.67	26.5
2124.63	24
2125.59	21
2126.55	27
2127.51	19.5
2128.47	25
2129.43	23.5
2130.39	23.5
2131.35	21.5
2132.31	23
2133.27	24.5
2134.23	23
2135.19	24
2136.15	18.5
2137.11	25
2138.07	19.5
2139.03	20.5
2139.99	22
2140.94	25.5
2141.9	23
2142.86	21.4869
2143.82	23.9517
2144.78	25.9324
2145.73	20.5636
2146.69	24.4821
2147.65	22.1008
2148.61	20.5316
2149.56	21.4515
2150.52	19.6143
2151.48	23.6269
2152.43	23.3038
2153.39	22.0487
2154.35	24.5009
2155.3	21.5446
2156.26	22.6742
2157.21	21.1316
2158.17	18.4999
2159.13	22.3757
2160.08	21.6704
2161.04	22.726
2161.99	24.3929
2162.95	24.675
2163.9	22.8208
2164.86	23.9222
2165.81	21.5721
2166.77	22.8762
2167.72	23.2876
2168.67	22.7488
2169.63	20.5951
2170.58	21.979
2171.54	21.2697
2172.49	25.2783
2173.44	22.0788
2174.4	22.6575
2175.35	21.84
2176.3	20.5384
2177.26	21.7439
2178.21	21.0024
2179.16	20.0988
2180.11	22.2752
2181.07	19.393
2182.02	24.391
2182.97	25.8165
2183.92	23.398
2184.87	22.7114
2185.82	19.8603
2186.78	21.6594
2187.73	19.8635
2188.68	23.9316
2189.63	21.7431
2190.58	22.6661
2191.53	25.1933
2192.48	26.0034
2193.43	21.1988
2194.38	21.6017
2195.33	24.0015
2196.28	21.7758
2197.23	23.1044
2198.18	23.7696
2199.13	20.726
2200.08	24.2325
2201.03	22.8062
2201.98	22.4107
2202.93	21.7177
2203.88	20.9836
2204.83	23.3514
2205.77	23.6456
2206.72	21.5693
2207.67	21.1219
2208.62	24.9106
2209.57	20.0245
2210.52	24.3631
2211.46	19.3945
2212.41	22.0624
2213.36	23.7357
2214.31	21.6626
2215.25	21.5146
2216.2	25.2733
2217.15	24.2619
2218.09	22.9513
2219.04	22.9768
2219.99	21.4369
2220.93	21.5304
2221.88	21.3638
2222.82	23.2665
2223.77	21.3886
2224.72	21.6023
2225.66	20.5686
2226.61	21.1773
2227.55	23.7111
2228.5	24.2573
2229.44	22.8572
2230.39	23.8646
2231.33	21.6322
2232.28	22.3599
2233.22	21.3628
2234.16	20.2932
2235.11	22.2834
2236.05	23.253
2237	23.8209
2237.94	24.1755
2238.88	23.275
2239.83	23.6853
2240.13	24
2241.08	18
2242.03	22
2242.98	19
2243.92	24
2244.87	23.5
2245.82	24.5
2246.76	25.5
2247.71	23.5
2248.66	24
2249.61	24.5
2250.55	25
2251.5	21.5
2252.45	20
2253.39	23
2254.34	24
2255.28	24.5
2256.23	24
2257.18	24.5
2258.12	23.5
2259.07	20.5
2260.01	22.5
2260.96	20
2261.9	23.5
2262.85	22.5
2263.79	24
2264.74	22
2265.68	25
2266.63	25.5
2267.57	25
2268.51	25.5
2269.46	24.5
2270.4	23
2271.35	24.5
2272.29	27.5
2273.23	22
2274.18	26
2275.12	24
2276.06	22.5
2277	22.5
2277.95	23.5
2278.89	25
2279.83	21.5
2280.78	24
2281.72	21
2282.66	23.5
2283.6	22
2284.54	22
2285.48	24
2286.43	27
2287.37	23.5
2288.31	22.5
2289.25	21.5
2290.19	26
2291.13	21
2292.07	21.5
2293.01	20.5
2293.95	20
2294.89	24.5
2295.83	20.5
2296.77	23
2297.71	21.5
2298.65	25
2299.59	25
2300.53	27
2301.47	24
2302.41	23.5
2303.35	25
2304.29	25
2305.22	26
2306.16	23.5
2307.1	21
2308.04	24
2308.98	24
2309.91	22.5
2310.85	22.5
2311.79	23.5
2312.73	23
2313.66	24.5
2314.6	25
2315.54	24
2316.48	23.5
2317.41	22
2318.35	22.5
2319.29	26.5
2320.22	23.5
2321.16	23.5
2322.09	24.5
2323.03	23.5
2323.97	23.5
2324.9	22
2325.84	20
2326.77	22
2327.71	22
2328.64	21
2329.58	22
2330.51	25
2331.45	21.5
2332.38	25
2333.32	24
2334.25	25
2335.18	23.5
2336.12	25
2337.05	25
2337.99	22
2338.92	20
2339.85	23
2340.79	24.5
2341.72	26
2342.65	24.5
2343.59	21.5
2344.52	24
2345.45	23
2346.38	25
2347.32	23
2348.25	24
2349.18	23
2350.11	25.5
2351.04	24.5
2351.98	21
2352.91	20
2353.84	24.5
2354.77	23.5
2355.7	21.5
2356.63	21
2357.56	25
2358.49	22.5
2359.42	21
2360.35	25
2361.28	23
2362.21	23
2363.14	23.5
2364.07	22
2365	26.5
2365.93	22
2366.86	20.5
2367.79	18.5
2368.72	25.5
2369.65	24
2370.58	21.5
2371.51	23
2372.44	24
2373.36	28
2374.29	21.5
2375.22	22
2376.15	28
2377.08	21
2378	27
2378.93	27
2379.86	25
2380.79	16
2381.71	24
2382.64	24
2383.57	22
2384.49	21
2385.42	19.5
2386.35	21
2387.27	22
2388.2	27.5
2389.13	23
2390.05	25
2390.98	22.5
2391.9	26
2392.83	23.5
2393.76	26
2394.68	20
2395.61	24.5
2396.53	25
2397.46	19.5
2398.38	25
2399.3	26.5
2400.23	25
2401.15	26.5
2402.08	24
2403	24
2403.93	24.5
2404.85	25
2405.77	21
2406.7	21
2407.62	22
2408.54	24
2409.47	23.5
2410.39	22.5
2411.31	26
2412.24	24.5
2413.16	23
2414.08	24
2415	23
2415.92	28
2416.85	26
2417.77	25.5
2418.69	22
2419.61	29
2420.53	24
2421.45	22.5
2422.38	24
2423.3	23.5
2424.22	27
2425.14	22.5
2426.06	24
2426.98	22
2427.9	21.5
2428.82	25
2429.74	23.5
2430.66	23.5
2431.58	24
2432.5	23.5
2433.42	27.5
2434.34	23
2435.26	22
2436.18	23.5
2437.1	26.5
2438.01	28
2438.93	24
2439.85	25
2440.77	27.5
2441.69	24
2442.61	26.5
2443.52	27
2444.44	28
2445.36	28.5
2446.28	23.5
2447.2	25
2448.11	24
2449.03	21
2449.95	24.5
2450.86	23.5
2451.78	24.5
2452.7	25
2453.61	24
2454.53	24.5
2455.45	26.5
2456.36	21
2457.28	20
2458.2	21.5
2459.11	23
2460.03	26
2460.94	23
2461.86	23
2462.77	25.5
2463.69	24
2464.6	24.5
2465.52	21.5
2466.43	24
2467.35	26.5
2468.26	29
2469.18	24
2470.09	25
2471	24
2471.92	23
2472.83	21
2473.74	22.5
2474.66	26
2475.57	19
2476.48	23
2477.4	29
2478.31	19.5
2479.22	25.5
2480.14	25
2481.05	24
2481.96	25
2482.87	27
2483.79	25.5
2484.7	23.5
2485.61	24.5
2486.52	22
2487.43	24
2488.34	24.5
2489.25	26.5
2490.17	26
2491.08	25
2491.99	22.5
2492.9	26.5
2493.81	24
2494.72	25.5
2495.63	25.5
2496.54	24.5
2497.45	22
2498.36	25
2499.27	24
2500.18	22
2501.09	22
2502	23.5
2502.91	24
2503.82	24
2504.73	24
2505.63	26.5
2506.54	25
2507.45	24
2508.36	23
2509.27	23.5
2510.18	24
2511.09	26
2511.99	24
2512.9	23
2513.81	25.5
2514.72	25
2515.62	24.5
2516.53	27.5
2517.44	24.5
2518.34	19.5
2519.25	23
2520.16	24
2521.06	25.5
2521.97	27
2522.88	24
2523.78	23.5
2524.69	26.5
2525.6	25
2526.5	23.5
2527.41	24
2528.31	24
2529.22	22
2530.12	25.5
2531.03	22
2531.93	21.5
2532.84	29
2533.74	24.5
2534.65	21
2535.55	24
2536.46	26
2537.36	26.5
2538.27	27.5
2539.17	24
2540.07	23.5
2540.98	26.5
2541.88	23.5
2542.78	23.5
2543.69	24.5
2544.59	22
2545.49	23.5
2546.4	27.5
2547.3	24
2548.2	26
2549.1	24
2550.01	26.5
2550.91	22
2551.81	25
2552.71	26
2553.61	25
2554.52	25
2555.42	26
2556.32	28
2557.22	24
2558.12	27.5
2559.02	27.5
2559.92	25
2560.82	26
2561.72	23
2562.62	26
2563.53	23
2564.43	26.5
2565.33	25
2566.23	24
2567.13	27
2568.03	21
2568.92	24
2569.82	25.5
2570.72	24
2571.62	25.5
2572.52	25.5
2573.42	21
2574.32	23
2575.22	24
2576.12	25
2577.02	22
2577.91	21.5
2578.81	23
2579.71	26
2580.61	24
2581.5	24.5
2582.4	24
2583.3	24
2584.2	24.5
2585.09	23
2585.99	22
2586.89	24
2587.78	23.5
2588.68	28.5
2589.58	24.5
2590.47	22.5
2591.37	28.5
2592.27	27
2593.16	24.5
2594.06	24
2594.95	23
2595.85	24
2596.75	22
2597.64	25.5
2598.54	22
2599.43	27
2600.33	26
2601.22	25.5
2602.12	26
2603.01	26
2603.9	26
2604.8	28
2605.69	30
2606.59	23
2607.48	27.5
2608.37	22.5
2609.27	25
2610.16	23
2611.05	26
2611.95	23.5
2612.84	23.5
2613.73	24.5
2614.63	22.5
2615.52	28
2616.41	25
2617.3	24.5
2618.2	23.5
2619.09	24.5
2619.98	23
2620.87	24
2621.76	27
2622.66	25
2623.55	22
2624.44	28
2625.33	23
2626.22	26
2627.11	21
2628	24
2628.9	21.5
2629.79	27
2630.68	23
2631.57	27
2632.46	27
2633.35	24.5
2634.24	25
2635.13	26.5
2636.02	20
2636.91	24.5
2637.8	25
2638.68	25.5
2639.57	25.5
2640.46	24
2641.35	26
2642.24	24
2643.13	25
2644.02	26
2644.91	24.5
2645.79	26.5
2646.68	26.5
2647.57	25.5
2648.46	24
2649.35	26.5
2650.23	26
2651.12	22.5
2652.01	26.5
2652.9	22.5
2653.78	28
2654.67	27.5
2655.56	24.5
2656.44	23
2657.33	26
2658.22	21.5
2659.1	28
2659.99	26
2660.88	24.5
2661.76	24.5
2662.65	26
2663.53	23.5
2664.42	18
2665.3	24.5
2666.19	20
2667.07	24
2667.96	29
2668.84	23
2669.73	23.5
2670.61	24.5
2671.5	23.5
2672.38	22
2673.27	21.5
2674.15	24
2675.04	24.5
2675.92	23.5
2676.8	17.5
2677.69	23.5
2678.57	25.5
2679.45	24
2680.34	23.5
2681.22	27
2682.1	24
2682.99	29
2683.87	29
2684.75	21
2685.63	24.5
2686.52	23
2687.4	24
2688.28	27
2689.16	26
2690.04	22
2690.93	26.5
2691.81	24
2692.69	23
2693.57	25
2694.45	24
2695.33	23.5
2696.21	23
2697.09	24
2697.97	22.5
2698.85	27
2699.74	22.5
2700.62	26
2701.5	24
2702.38	25
2703.26	21.5
2704.14	23
2705.02	24
2705.89	24
2706.77	19.5
2707.65	24
2708.53	27.5
2709.41	27.5
2710.29	25
2711.17	24
2712.05	27
2712.93	28.5
2713.8	25
2714.68	22.5
2715.56	28
2716.44	25.5
2717.32	24
2718.19	25.5
2719.07	24
2719.95	21
2720.83	24.5
2721.7	25.5
2722.58	27
2723.46	22
2724.33	26
2725.21	25.5
2726.09	24.5
2726.97	23.5
2727.84	25.5
2728.72	27.5
2729.59	25
2730.47	24
2731.35	24.5
2732.22	24.5
2733.1	23.5
2733.97	28.5
2734.85	24.5
2735.72	26
2736.6	22.5
2737.47	20
2738.35	23
2739.22	27
2740.1	25.5
2740.97	23.5
2741.84	25
2742.72	23
2743.59	20
2744.47	25.5
2745.34	31
2746.21	25
2747.09	27
2747.96	24
2748.83	25.5
2749.71	27
2750.58	24
2751.45	23
2752.33	24
2753.2	23
2754.07	22
2754.94	23
2755.82	24.5
2756.69	22.5
2757.56	21.5
2758.43	26
2759.3	20.5
2760.18	24
2761.05	24.5
2761.92	25.5
2762.79	25
2763.66	23
2764.53	22
2765.4	26.5
2766.27	24.5
2767.14	21
2768.01	27
2768.88	22
2769.75	22.5
2770.62	25.5
2771.49	26.5
2772.36	25
2773.23	24.5
2774.1	22.5
2774.97	25
2775.84	23
2776.71	27
2777.58	29
2778.45	21
2779.32	23
2780.19	25.5
2781.06	23.5
2781.92	28
2782.79	24.5
2783.66	26.5
2784.53	27
2785.4	24.5
2786.26	23
2787.13	27
2788	23.5
2788.87	28.5
2789.73	25
2790.6	26.5
2791.47	23.5
2792.34	24
2793.2	25
2794.07	27.5
2794.94	24
2795.8	24.5
2796.67	32
2797.53	27
2798.4	26
2799.27	25.5
2800.13	23
2801	25
2801.86	25
2802.73	22
2803.59	23
2804.46	25.5
2805.32	27
2806.19	25.5
2807.05	22
2807.92	25
2808.78	23.5
2809.65	29
2810.51	30
2811.38	23
2812.24	25
2813.1	27
2813.97	28.5
2814.83	24.5
2815.7	23
2816.56	23.5
2817.42	23
2818.29	29
2819.15	25.5
2820.01	25
2820.87	25
2821.74	29.5
2822.6	26
2823.46	24
2824.32	28.5
2825.19	27
2826.05	28
2826.91	28
2827.77	24.5
2828.63	26
2829.5	24
2830.36	29
2831.22	23
2832.08	27
2832.94	20.5
2833.8	29
2834.66	29
2835.52	24.5
2836.38	26.5
2837.24	26
2838.1	27.5
2838.96	27
2839.82	25.5
2840.68	25
2841.54	25
2842.4	29
2843.26	24.5
2844.12	28.5
2844.98	26
2845.84	23
2846.7	24.5
2847.56	25
2848.42	24.5
2849.28	26
2850.14	22
2850.99	24.5
2851.85	30.5
2852.71	26
2853.57	27
2854.43	26
2855.28	27
2856.14	27.5
2857	26
2857.86	25
2858.71	28.5
2859.57	28
2860.43	30
2861.28	21
2862.14	27.5
2863	24
2863.86	27
2864.71	22.5
2865.57	28
2866.42	26.5
2867.28	23.5
2868.14	29.5
2868.99	26.5
2869.85	32
2870.7	26
2871.56	29
2872.41	30.5
2873.27	28.5
2874.13	26
2874.98	33
2875.83	30
2876.69	26
2877.54	27
2878.4	34
2879.25	32.5
2880.11	31
2880.96	28
2881.81	33
2882.67	35
2883.52	35.5
2884.38	33
2885.23	31.5
2886.08	35.5
2886.94	33.5
2887.79	33
2888.64	35.5
2889.5	39.5
2890.35	40
2891.2	38
2892.05	41.5
2892.91	38.5
2893.76	39.5
2894.61	42
2895.46	47
2896.31	48
2897.17	47
2898.02	53.5
2898.87	55.5
2899.72	63
2900.57	61
2901.42	59
2902.27	63.5
2903.12	62
2903.98	70
2904.83	73
2905.68	63.5
2906.53	70
2907.38	66.5
2908.23	63.5
2909.08	62
2909.93	65.5
2910.78	59.5
2911.63	57.5
2912.48	59.5
2913.33	48
2914.18	51
2915.02	39.5
2915.87	46
2916.72	44
2917.57	41
2918.42	41
2919.27	36.5
2920.12	33.5
2920.97	36.5
2921.81	40
2922.66	32.5
2923.51	34.5
2924.36	29.5
2925.21	34.5
2926.05	29
2926.9	26.5
2927.75	26.5
2928.59	33
2929.44	30
2930.29	30
2931.14	31
2931.98	29.5
2932.83	33.5
2933.68	26.5
2934.52	27.5
2935.37	28
2936.21	24
2937.06	29
2937.91	26.5
2938.75	28.5
2939.6	30.5
2940.44	31
2941.29	29
2942.14	28.5
2942.98	26.5
2943.82	24
2944.67	30
2945.51	30.5
2946.36	24
2947.2	28.5
2948.05	28.5
2948.89	32
2949.74	29
2950.58	29
2951.43	30
2952.27	37
2953.11	30
2953.96	34.5
2954.8	36.5
2955.64	31
2956.49	40
2957.33	31
2958.17	37.5
2959.02	36.5
2959.86	43
2960.7	38
2961.54	40.5
2962.39	38.5
2963.23	43
2964.07	41
2964.91	38.5
2965.75	44
2966.6	41.5
2967.44	38.5
2968.28	45
2969.12	40.5
2969.96	37.5
2970.8	41
2971.64	37
2972.48	35.4312
2973.33	36.0399
2974.17	34.0073
2975.01	34.9152
2975.85	31.7532
2976.69	33.5016
2977.53	33.7302
2978.37	32.3317
2979.21	29.3386
2980.05	30.9682
2980.89	30.3433
2981.73	27.6275
2982.57	29.4345
2983.41	25.9927
2984.25	26.5688
2985.08	27.4199
2985.92	26.2649
2986.76	27.6678
2987.6	27.4442
2988.44	26.3767
2989.28	25.8064
2990.12	27.3518
2990.96	24.9854
2991.79	23.7835
2992.63	24.3231
2993.47	25.9068
2994.31	26.2087
2995.14	24.948
2995.98	28.2521
2996.82	26.3237
2997.66	22.6649
2998.49	23.0534
2999.33	22.6059
3000.17	24.2576
3001	23.268
3001.84	20.4001
3002.68	20.9814
3003.51	24.1353
3004.35	27.047
3005.19	22.2352
3006.02	19.9589
3006.86	22.1867
3007.7	25.1992
3008.53	21.2647
3009.37	23.6335
3010.2	23.8942
3011.04	20.856
3011.87	23.8125
3012.71	22.72
3013.54	20.4163
3014.38	22.596
3015.21	25.5024
3016.05	24.8864
3016.88	22.8228
3017.72	24.8724
3018.55	23.7699
3019.39	21.9827
3020.22	21.8923
3021.05	22.6875
3021.89	24.2719
3022.72	23.6008
3023.55	22.5094
3024.39	21.8855
3025.22	23.8935
3026.05	23.1359
3026.89	24.2289
3027.72	23.5094
3028.55	23.7328
3029.39	22.799
3030.22	21.043
3031.05	20.1771
3031.88	22.7036
3032.72	23.3278
3033.55	23.4683
3034.38	24.0915
3035.21	24.1166
3036.04	22.7432
3036.88	23.821
3037.71	22.9613
3038.54	23.3447
3039.37	24.1044
3040.2	23.0605
3041.03	23.2727
3041.86	21.2867
3042.69	22.2838
3043.52	24.8185
3044.36	24.7117
3045.19	23.697
3046.02	23.8831
3046.85	23.0662
3047.68	21.624
3048.51	21.109
3049.34	22.3167
3050.17	22.7937
3051	23.2831
3051.83	22.4392
3052.66	21.8428
3053.48	23.5934
3054.31	24.0622
3055.14	22.6958
3055.97	22.3705
3056.8	22.9787
3057.29	25
3058.12	19
3058.95	25.5
3059.79	23
3060.62	25
3061.45	20
3062.29	22.5
3063.12	19
3063.95	23.5
3064.78	23.5
3065.62	20
3066.45	23
3067.28	19.5
3068.11	19.5
3068.94	24.5
3069.77	23.5
3070.61	23.5
3071.44	24
3072.27	26
3073.1	24.5
3073.93	19
3074.76	19.5
3075.59	28.5
3076.42	23
3077.25	21
3078.08	23.5
3078.92	21.5
3079.74	25.5
3080.57	23
3081.41	24
3082.24	27.5
3083.06	21
3083.89	24.5
3084.72	25
3085.55	23
3086.38	22
3087.21	24
3088.04	20
3088.87	27.5
3089.7	23
3090.53	22
3091.36	22.5
3092.18	22.5
3093.01	22
3093.84	25
3094.67	25
3095.5	22.5
3096.32	22
3097.15	20.5
3097.98	22.5
3098.81	23.5
3099.64	23
3100.46	24.5
3101.29	24
3102.12	17.5
3102.94	24
3103.77	24
3104.6	25
3105.42	26
3106.25	21.5
3107.08	26
3107.9	26
3108.73	26.5
3109.56	22.5
3110.38	26
3111.21	22
3112.03	24.5
3112.86	21.5
3113.68	27
3114.51	21.5
3115.33	25
3116.16	21
3116.98	19.5
3117.81	20
3118.63	21.5
3119.46	22.5
3120.28	24
3121.11	20.5
3121.93	22.5
3122.76	21
3123.58	23.5
3124.4	24
3125.23	27
3126.05	23
3126.87	21
3127.7	21.5
3128.52	24
3129.34	25
3130.17	21
3130.99	23.5
3131.81	26.5
3132.64	25
3133.46	24
3134.28	24.5
3135.1	26.5
3135.93	23.5
3136.75	23
3137.57	20
3138.39	25
3139.21	25
3140.04	30
3140.86	23.5
3141.68	19
3142.5	22
3143.32	23
3144.14	21
3144.96	22.5
3145.78	23.5
3146.61	23.5
3147.43	22
3148.25	25.5
3149.07	28.5
3149.89	24
3150.71	20
3151.53	26
3152.35	23
3153.17	24.5
3153.99	22
3154.81	22
3155.63	20
3156.45	23
3157.27	21.5
3158.08	27
3158.9	24.5
3159.72	20.5
3160.54	25.5
3161.36	25
3162.18	24
3163	25.5
3163.82	23.5
3164.63	25
3165.45	20
3166.27	22
3167.09	23
3167.91	21
3168.72	26.5
3169.54	23
3170.36	27
3171.18	26.5
3171.99	23
3172.81	21.5
3173.63	23
3174.44	22.5
3175.26	26
3176.08	21.5
3176.89	18
3177.71	24.5
3178.53	22.5
3179.34	22
3180.16	24
3180.97	25.5
3181.79	26
3182.61	22.5
3183.42	25
3184.24	20
3185.05	23.5
3185.87	24
3186.68	24.5
3187.5	22
3188.31	25
3189.13	21.5
3189.94	26.5
3190.76	23.5
3191.57	24
3192.39	24.5
3193.2	24.5
3194.02	25
3194.83	18
3195.64	26
3196.46	25.5
3197.27	25
3198.08	24.5
3198.9	23.5
3199.71	24
3200.52	25.5
3201.34	23
3202.15	24.5
3202.96	27
3203.78	22
3204.59	21
3205.4	22
3206.21	21
3207.03	21.5
3207.84	24.5
3208.65	25.5
3209.46	23
3210.27	20
3211.09	21
3211.9	28
3212.71	25
3213.52	24.5
3214.33	24.5
3215.14	25.5
3215.95	24.5
3216.77	23
3217.58	24.5
3218.39	25.5
3219.2	19
3220.01	22.5
3220.82	22.5
3221.63	26
3222.44	23
3223.25	26.5
3224.06	27
3224.87	25
3225.68	25
3226.49	27
3227.3	22
3228.11	23
3228.92	27
3229.73	25.5
3230.53	26
3231.34	23.5
3232.15	21
3232.96	23
3233.77	23.5
3234.58	22.5
3235.39	22
3236.19	21
3237	25.5
3237.81	20
3238.62	20.5
3239.43	21
3240.23	26
3241.04	23
3241.85	23
3242.66	25
3243.46	21
3244.27	20.5
3245.08	25.5
3245.89	22.5
3246.69	24
3247.5	22
3248.31	21
3249.11	22.5
3249.92	21
3250.72	22
3251.53	22.5
3252.34	22
3253.14	29.5
3253.95	21
3254.75	23.5
3255.56	24
3256.36	21
3257.17	21
3257.98	25
3258.78	21.5
3259.59	22.5
3260.39	25.5
3261.19	22
3262	24
3262.8	26.5
3263.61	21.5
3264.41	20.5
3265.22	27
3266.02	24.5
3266.83	25
3267.63	20
3268.43	24.5
3269.24	25
3270.04	22.5
3270.84	25.5
3271.65	22.5
3272.45	24.5
3273.25	23.5
3274.06	21.5
3274.86	20.5
3275.66	21
3276.46	21.5
3277.27	21
3278.07	26
3278.87	27
3279.67	26.5
3280.48	24
3281.28	22
3282.08	26.5
3282.88	25
3283.68	25.5
3284.48	24.5
3285.29	25
3286.09	23.5
3286.89	22.5
3287.69	17
3288.49	26
3289.29	25
3290.09	23
3290.89	25
3291.69	22
3292.49	29
3293.29	22.5
3294.09	25.5
3294.89	25.5
3295.69	25.5
3296.49	21.5
3297.29	23
3298.09	25
3298.89	26.5
3299.69	28
3300.49	25
3301.29	24
3302.09	27
3302.89	24.5
3303.69	23.5
3304.49	24.5
3305.28	27
3306.08	23.5
3306.88	20
3307.68	23.5
3308.48	23
3309.28	24
3310.07	27.5
3310.87	24
3311.67	26
3312.47	23
3313.26	22.5
3314.06	22.5
3314.86	23
3315.66	26
3316.45	24
3317.25	23
3318.05	23
3318.84	28.5
3319.64	24.5
3320.44	24
3321.23	25.5
3322.03	23
3322.83	23.5
3323.62	24
3324.42	26
3325.21	25
3326.01	21
3326.81	23
3327.6	24
3328.4	27
3329.19	22
3329.99	24.5
3330.78	21.5
3331.58	20
3332.37	27
3333.17	24
3333.96	25
3334.76	26.5
3335.55	26
3336.34	26.5
3337.14	25.5
3337.93	23.5
3338.73	23
3339.52	22
3340.31	26
3341.11	27
3341.9	26.5
3342.69	23
3343.49	24
3344.28	25.5
3345.07	26
3345.87	23.5
3346.66	21
3347.45	22
3348.25	23
3349.04	24.5
3349.83	23
3350.62	24.5
3351.42	26
3352.21	23
3353	20
3353.79	26
3354.58	23.5
3355.37	22
3356.17	22.5
3356.96	21
3357.75	23
3358.54	24
3359.33	23
3360.12	25
3360.91	24
3361.7	22
3362.49	22.5
3363.29	22.5
3364.08	21
3364.87	23
3365.66	22.5
3366.45	23
3367.24	23.5
3368.03	23.5
3368.82	23
3369.61	28.5
3370.4	22
3371.19	25.5
3371.97	24
3372.76	22
3373.55	25
3374.34	26
3375.13	25
3375.92	21
3376.71	25
3377.5	26
3378.29	25
3379.07	25
3379.86	25
3380.65	30
3381.44	23.5
3382.23	26
3383.01	26
3383.8	26.5
3384.59	26
3385.38	25
3386.16	23
3386.95	24.5
3387.74	21.5
3388.53	23
3389.31	24.5
3390.1	25.5
3390.89	24.5
3391.67	24
3392.46	25
3393.25	20.5
3394.03	24
3394.82	24
3395.6	25
3396.39	25
3397.18	23
3397.96	24
3398.75	18
3399.53	26
3400.32	21
3401.1	26.5
3401.89	24
3402.67	22.5
3403.46	23.5
3404.24	23
3405.03	25.5
3405.81	22
3406.6	25.5
3407.38	27
3408.17	26
3408.95	21.5
3409.74	26
3410.52	24
3411.3	25
3412.09	27
3412.87	26.5
3413.65	22.5
3414.44	21.5
3415.22	23.5
3416	23
3416.79	26
3417.57	22.5
3418.35	20.5
3419.14	25
3419.92	23.5
3420.7	21.5
3421.48	24
3422.27	26.5
3423.05	23.5
3423.83	23.5
3424.61	23
3425.4	25
3426.18	24
3426.96	22.5
3427.74	25.5
3428.52	25
3429.3	23.5
3430.08	21
3430.87	26
3431.65	26
3432.43	25.5
3433.21	24
3433.99	25
3434.77	23
3435.55	22
3436.33	23
3437.11	22
3437.89	24
3438.67	25
3439.45	26.5
3440.23	21
3441.01	25
3441.79	21
3442.57	27
3443.35	22.5
3444.13	24.5
3444.91	25.5
3445.69	26
3446.47	24
3447.25	24
3448.03	22
3448.8	21
3449.58	23
3450.36	24.5
3451.14	20.5
3451.92	24
3452.7	28
3453.47	22
3454.25	22
3455.03	25
3455.81	24
3456.59	25
3457.36	23.5
3458.14	24
3458.92	27
3459.69	25
3460.47	25.5
3461.25	28
3462.03	22
3462.8	22.5
3463.58	23
3464.36	23
3465.13	25
3465.91	21.5
3466.69	26
3467.46	23
3468.24	25
3469.01	23
3469.79	26
3470.57	24.5
3471.34	26
3472.12	23.5
3472.89	26
3473.67	22
3474.44	27.5
3475.22	20.5
3475.99	26
3476.77	24.5
3477.54	22.5
3478.32	21
3479.09	25.5
3479.87	24.5
3480.64	24
3481.41	25.5
3482.19	24.5
3482.96	23.5
3483.74	23.5
3484.51	21.5
3485.28	22
3486.06	25
3486.83	26
3487.6	23
3488.38	24.5
3489.15	21.5
3489.92	23.5
3490.7	25
3491.47	27.5
3492.24	23.5
3493.01	19
3493.79	22
3494.56	26
3495.33	23
3496.1	21
3496.88	21
3497.65	20
3498.42	22.5
3499.19	26
3499.96	23
