#Acq. time (s)=	5
#Accumulations=	5
#Range (cm-¹)=	100...3500
#Windows=	4
#Autofocus=	Off
#AutoExposure=	Off
#Spike filter=	Multiple accum.
#Delay time (s)=	0
#Binning=	1
#Readout mode=	Signal
#DeNoise=	Off
#ICS correction=	Off
#Dark correction=	Off
#Inst. Process=	Off
#Instrument=	LabRAM HR Evol
#Detector=	Syncerity OE
#Objective=	x100_VIS
#Grating=	600 (500nm)
#ND Filter=	25%
#Laser=	633nm_Edge
#Hole=	100.021
#Range=	Visible
#Project=	verificaciones
#Sample=	at1
#Site=	plain
#Title=	bolusat1plain
#Remark=	com
#Date=	16.01.2026 15:44
#Acquired=	16.01.2026 15:44:57
100.564	27.5
101.847	31
103.131	37.5
104.414	35.5
105.697	30.5
106.979	32
108.262	30.5
109.544	36
110.826	34.5
112.109	32.5
113.391	37
114.672	36
115.954	28
117.235	32
118.515	33.5
119.796	35.5
121.076	39.5
122.357	33.5
123.637	29
124.916	30.5
126.196	38
127.475	37
128.754	34
130.033	33.5
131.31	36
132.589	34
133.867	37
135.145	39.5
136.423	33.5
137.701	36
138.978	38
140.256	38
141.533	41
142.809	31
144.086	40
145.361	43
146.637	41
147.913	37
149.189	39
150.464	41.5
151.74	43
153.014	40
154.288	45
155.563	46.5
156.838	41
158.112	38
159.385	37
160.659	45
161.932	41
163.206	41
164.479	43
165.751	40
167.024	39.5
168.296	43
169.567	37
170.84	41
172.112	38.5
173.383	44
174.654	42
175.925	41
177.196	34
178.466	43
179.737	43.5
181.007	44.5
182.276	41.5
183.546	38.5
184.816	41
186.085	46.5
187.354	46.5
188.624	45
189.891	40.5
191.16	41.5
192.427	43.5
193.696	40.5
194.964	41.5
196.231	41
197.499	39
198.765	41.5
200.033	36
201.298	36.5
202.566	37
203.831	39
205.098	46
206.363	38.5
207.629	42.5
208.894	37
210.159	31
211.424	41
212.689	41
213.953	39
215.218	33
216.481	32.5
217.746	34.5
219.009	33
220.273	36
221.536	35.5
222.798	40
224.062	34
225.323	30
226.587	31.5
227.848	36
229.109	37.5
230.372	30.5
231.633	31.5
232.894	35.5
234.156	33
235.416	34.5
236.678	32.5
237.937	35
239.197	35.5
240.457	35.5
241.717	33.5
242.976	32.5
244.235	30.5
245.495	36.5
246.754	29.5
248.012	32.5
249.27	32.5
250.529	29
251.787	31
253.045	30.5
254.302	37
255.56	31
256.817	31.5
258.074	28.5
259.33	31
260.586	34.5
261.844	33
263.1	32
264.355	34
265.611	35.5
266.866	39.5
268.121	31
269.377	30
270.632	33.5
271.886	28.5
273.14	30.5
274.394	31
275.648	33
276.902	31
278.155	33
279.408	27
280.663	30.5
281.915	32
283.168	37.5
284.42	33.5
285.673	29
286.925	29.5
288.176	32
289.428	32.5
290.679	31
291.93	29.5
293.181	31
294.432	29.5
295.683	37.5
296.933	33
298.183	30
299.433	33
300.683	34.5
301.932	30.5
303.182	27
304.429	30
305.678	29.5
306.927	31
308.176	34.5
309.424	30
310.672	31
311.92	33
313.168	31
314.415	33.5
315.661	28.5
316.908	32
318.155	33
319.402	32.5
320.648	33
321.895	31.5
323.139	30
324.385	28.5
325.631	35.5
326.877	32
328.122	32
329.366	31.5
330.611	34.5
331.855	31.5
333.1	33.5
334.343	28
335.587	30
336.831	27.5
338.074	33
339.317	30
340.56	35
341.803	34
343.044	33
344.287	31
345.53	30
346.771	34.5
348.013	31.5
349.255	29
350.495	32
351.736	33
352.978	31
354.217	31
355.458	34
356.699	31
357.938	32
359.178	28.5
360.417	34
361.657	28.5
362.895	34.5
364.135	34.5
365.374	32
366.612	34.5
367.851	29
369.088	33.5
370.327	29
371.564	31.5
372.802	32
374.038	34
375.276	28.5
376.512	31.5
377.749	30
378.985	27
380.222	32.5
381.457	29
382.692	32
383.929	29
385.164	34.5
386.4	27
387.634	32.5
388.869	24.5
390.103	32
391.337	28.5
392.572	30.5
393.805	32
395.038	33
396.273	34
397.506	33.5
398.74	31
399.972	32
401.204	30
402.437	36.5
403.669	33
404.901	30.5
406.132	33.5
407.365	34
408.596	33.5
409.826	32
411.058	31.5
412.289	34
413.519	34.5
414.749	31
415.98	29.5
417.21	28.5
418.439	29.5
419.668	31.5
420.897	31
422.128	26
423.356	32.5
424.585	30.5
425.813	32.5
427.041	26.5
428.269	30
429.498	30.5
430.725	32
431.952	31
433.179	30
434.406	29
435.633	32.5
436.859	32
438.085	35
439.312	31
440.537	32
441.764	32
442.99	34.5
444.215	31
445.44	29.5
446.665	31.5
447.89	35.5
449.114	34.5
450.339	38
451.563	30.5
452.787	33
454.01	32
455.234	30
456.457	33
457.68	32.5
458.903	34
460.126	31
461.348	32.5
462.569	34.5
463.792	35
465.013	37.5
466.235	37
467.457	33.5
468.678	35.5
469.899	32.5
471.12	36.5
472.341	40.5
473.56	39
474.781	44
476.001	38
477.221	43.5
478.441	44.5
479.66	48
480.878	49.5
482.098	56
483.317	55.5
484.535	59
485.754	61
486.971	59
488.189	58.5
489.407	64.5
490.625	61.5
491.842	56
493.059	56.5
494.276	51.5
495.493	56
496.709	50
497.926	46.5
499.142	55
500.357	45
501.573	45
502.789	42.5
504.003	46
505.219	42
506.434	39
507.648	39.5
508.863	40
510.078	41.5
511.291	41.5
512.505	40
513.718	38.5
514.932	40
516.145	36
517.358	27
518.572	39
519.783	36.5
520.997	35
522.208	33
523.421	29.5
524.632	35
525.844	35
527.055	35
528.266	33
529.477	35
530.688	31.5
531.898	36
533.109	33
534.319	28
535.53	34
536.739	38
537.948	35
539.158	32
540.366	28
541.576	36.5
542.784	33.5
543.994	30
545.201	36
546.409	31
547.618	32.5
548.825	33.5
550.032	30
551.24	36
552.447	31.5
553.654	28
554.861	33
556.067	29
557.273	29
558.48	31.5
559.686	29.5
560.891	36
562.096	30
563.302	31
564.507	30
565.712	29.5
566.916	27
568.122	30.5
569.326	26.5
570.529	30.5
571.733	35.5
572.936	33.5
574.141	33.5
575.344	35.5
576.547	30.5
577.75	35
578.952	25
580.154	28.5
581.358	31
582.56	29
583.761	32.5
584.963	32.5
586.164	29.5
587.365	28
588.566	33
589.767	31
590.967	32.5
592.168	28
593.369	34
594.569	28
595.769	29
596.969	31
598.168	30
599.367	33
600.566	29.5
601.765	32.5
602.964	32
604.162	30.5
605.361	30
606.559	31
607.757	28.5
608.953	27.5
610.151	32
611.348	36.5
612.545	33
613.742	32
614.939	26
616.135	27
617.332	31
618.528	31
619.724	32.5
620.918	32
622.114	29.5
623.309	31.5
624.505	33
625.7	31.5
626.895	33
628.088	28
629.282	33
630.477	33
631.671	28
632.865	34.5
634.057	27
635.251	30.5
636.444	28
637.637	32
638.829	30.5
640.022	31
641.214	34.5
642.407	30
643.598	35
644.79	37
645.982	33
647.172	27.5
648.364	30.5
649.555	29
650.745	32.5
651.936	33
653.126	29.5
654.315	26.5
655.506	33.5
656.696	32
657.885	33.5
659.074	32
660.263	33.5
661.452	31
662.64	29.5
663.829	30.5
665.018	32
666.205	33.5
667.394	34
668.581	35
669.769	33.5
670.955	30
672.143	30
673.329	32.5
674.517	34
675.703	31
676.89	33.5
678.075	33.5
679.262	30
680.447	35
681.632	40.5
682.818	40.5
684.002	37.5
685.188	34
686.372	41
687.556	37.5
688.741	34
689.925	39.5
691.11	33
692.293	41
693.476	40.5
694.66	39
695.843	35
697.025	39.5
698.209	37.5
699.391	40
700.573	40
701.756	40.5
702.938	35.5
704.119	38
705.3	44
706.483	52.5
707.664	52
708.844	54
710.025	47.5
711.206	45
712.386	40
713.566	35
714.746	38.5
715.925	39
717.106	32
718.285	38
719.464	33.5
720.643	27.5
721.822	34
723	33.5
724.178	31.5
725.358	29
726.536	30.5
727.713	31.5
728.891	30
730.068	32.5
731.245	30
732.422	29
733.599	30
734.775	31
735.952	30
737.128	32.5
738.304	32.5
739.48	30.5
740.656	28
741.831	26
743.006	30.5
744.181	31
745.356	27
746.531	32
747.706	31.5
748.88	34.5
750.054	32
751.228	30.5
752.402	28
753.576	31
754.749	30
755.922	29.5
757.095	30.5
758.267	33.5
759.44	31
760.612	30
761.785	29.5
762.957	30
764.129	30
765.301	28
766.471	27.5
767.642	37
768.814	37.5
769.985	28.5
771.156	29.5
772.325	33
773.495	30.5
774.666	33.5
775.836	29
777.005	26
778.174	29.5
779.344	31
780.513	29
781.681	37.5
782.85	28
784.019	34.5
785.187	34
786.355	31
787.523	33
788.69	36.5
789.858	32.5
791.026	33
792.192	36
793.36	31
794.526	36.5
795.693	32.5
796.86	35
798.025	31.5
799.191	33.5
800.356	32.5
801.523	29.5
802.689	33.5
803.853	30.5
805.019	29.5
806.183	28
807.348	29.5
808.512	32
809.677	34
810.84	34
812.005	32
813.167	33.5
814.332	34
815.494	34.5
816.657	29.5
817.82	27
818.982	30
820.146	28
821.307	29
822.47	30
823.632	28
824.793	33.5
825.955	31.5
827.116	34.5
828.277	31.5
829.439	29.5
830.599	34
831.759	28.5
832.92	26
834.08	28
835.24	29
836.4	30.5
837.56	29.5
838.719	32.5
839.877	32
841.037	32
842.196	31.5
843.354	31.5
844.512	31
845.672	32
846.83	25
847.987	33
849.145	29.5
850.302	31.5
851.46	28
852.617	31
853.774	30.5
854.93	35
856.087	31
857.243	34.5
858.4	33
859.556	31
860.712	34.5
861.867	30.5
863.022	28.5
864.177	29.5
865.332	29.5
866.487	28.5
867.642	27.5
868.796	28
869.95	32
871.104	29.5
872.258	28
873.412	35.5
874.565	24.5
875.718	29
876.872	31.5
878.024	30.5
879.177	32.5
880.33	31
881.482	31
882.635	28
883.787	27.5
884.938	31
886.09	30
887.242	32
888.393	25.5
889.544	28.5
890.695	28
891.845	32.5
892.995	31
894.146	29
895.296	30.5
896.446	29
897.596	28.5
898.744	26.5
899.894	30
901.043	29.5
902.193	27
903.342	27
904.489	27
905.638	26
906.786	28
907.935	27
909.081	28
910.229	31.5
911.377	27.5
912.525	29
913.671	29
914.818	32.5
915.965	30.5
917.111	29.5
918.258	28
919.404	30
920.549	28.5
921.695	31
922.84	34.5
923.986	29.5
925.132	34.5
926.276	29.5
927.421	29
928.565	31
929.71	30.5
930.855	28
931.998	24
933.142	29
934.285	28
935.429	27.5
936.572	28.5
937.716	28.5
938.858	28
940.001	27.5
941.143	26.5
942.286	29
943.428	24
944.57	27
945.712	29
946.854	28.5
947.995	30
949.135	30.5
950.277	28.5
951.418	26.5
952.559	31.5
953.699	26
954.839	28.5
955.98	29.5
957.119	29
958.258	28
959.399	32.5
960.538	32.5
961.676	24.5
962.816	32
963.955	30
965.093	28.5
966.232	31
967.37	29.5
968.508	28.5
969.645	30
970.784	30
971.921	27
973.058	30
974.195	30
975.333	25.5
976.469	31
977.605	30.5
978.741	29
979.877	31.5
981.013	27.5
982.15	35
983.285	31.5
984.421	26
985.556	32
986.691	28
987.825	27.5
988.96	28
990.094	26
991.228	29.5
992.364	29.5
993.497	34
994.631	31.5
995.765	29.5
996.898	31
998.031	24
999.164	27
1000.3	24.5
1001.43	32.5
1002.56	31
1003.69	29.5
1004.83	26.5
1005.96	30.5
1007.09	29.5
1008.22	25
1009.35	32
1010.48	31.5
1011.61	25
1012.74	26.5
1013.88	27
1015.01	28
1016.14	29.5
1017.27	28
1018.4	24
1019.53	26
1020.65	30
1021.78	30
1022.91	27.5
1024.04	27.5
1025.17	27
1026.3	28
1027.43	29.5
1028.56	31.5
1029.68	29
1030.81	29
1031.94	25
1033.07	28
1034.19	28
1035.32	30.5
1036.45	26.5
1037.58	26.5
1038.7	31.5
1039.83	27
1040.95	29.5
1042.08	29.5
1043.21	27
1044.33	28.5
1045.46	31.5
1046.58	25
1047.71	30
1048.83	24.5
1049.96	27
1051.08	29.5
1052.21	34
1053.33	30.5
1054.45	27
1055.58	25
1056.7	29
1057.82	26.5
1058.95	26.5
1060.07	31
1061.19	27.5
1062.32	29
1063.44	27
1064.56	30
1065.68	32.5
1066.81	32
1067.93	27.5
1069.05	24.5
1070.17	23.5
1071.29	29
1072.41	27
1073.53	31.5
1074.65	25
1075.77	30
1076.89	27
1078.01	28.5
1079.13	28
1080.25	29
1081.37	27.5
1082.49	30.5
1083.61	25
1084.73	30
1085.85	28.5
1086.97	26.5
1088.09	29
1089.2	33.5
1090.32	22.5
1091.44	26
1092.56	28.5
1093.68	30.5
1094.79	27.5
1095.91	27.5
1097.03	30
1098.14	26.5
1099.26	27
1100.38	29.5
1101.49	27.5
1102.61	25.5
1103.73	30
1104.84	23
1105.96	27
1107.07	24
1108.19	27
1109.3	27.5
1110.42	30
1111.53	23.5
1112.65	27.5
1113.76	28
1114.88	30
1115.99	29
1117.1	26.5
1118.22	29
1119.33	33
1120.44	28.5
1121.56	29.5
1122.67	24.5
1123.78	22.5
1124.89	24
1126.01	26
1127.12	24
1128.23	30
1129.34	26.5
1130.45	28.5
1131.56	27
1132.67	31.5
1133.79	24.5
1134.9	26
1136.01	24
1137.12	29
1138.23	27.5
1139.34	24.5
1140.45	26
1141.56	31.5
1142.67	29.5
1143.78	26
1144.89	29.5
1145.99	27
1147.1	26
1148.21	26
1149.32	28
1150.43	28
1151.54	30
1152.65	27
1153.75	30.5
1154.86	29.5
1155.97	32
1157.08	26.5
1158.18	30
1159.29	25.5
1160.4	27
1161.5	27
1162.61	29
1163.72	30
1164.82	27
1165.93	22.5
1167.03	28
1168.14	29
1169.24	31
1170.35	24.5
1171.45	29.5
1172.56	27.5
1173.66	27.5
1174.77	27.5
1175.87	26.5
1176.98	28.5
1178.08	31.5
1179.18	29.5
1180.29	29.5
1181.39	27
1182.49	28.5
1183.6	24.5
1184.7	28
1185.8	27.5
1186.9	28.5
1188	28
1189.11	25
1190.21	26.5
1191.31	25
1192.41	27
1193.51	28.5
1194.61	23.9937
1195.72	28.4399
1196.82	26.9942
1197.92	25.0039
1199.02	26.4685
1200.12	27.7808
1201.22	31.4448
1202.32	29.1899
1203.42	27.447
1204.52	24.6246
1205.62	25.0216
1206.71	22.9014
1207.81	24.4004
1208.91	26.4609
1210.01	21.2446
1211.11	24.3632
1212.21	28.7961
1213.31	25.3152
1214.4	25.2587
1215.5	31.944
1216.6	29.9087
1217.7	25.9908
1218.79	26.8528
1219.89	25.2122
1220.99	27.4657
1222.08	30.5211
1223.18	22.9281
1224.28	26.3997
1225.37	29.3423
1226.47	28.71
1227.56	28.8134
1228.66	25.6999
1229.76	25.975
1230.85	27.6882
1231.95	24.665
1233.04	29.5744
1234.14	26.7837
1235.23	24.9796
1236.32	27.4442
1237.42	30.3561
1238.51	29.275
1239.61	26.0434
1240.7	27.4391
1241.79	25.9312
1242.89	25.9375
1243.98	26.6259
1245.07	26.5205
1246.17	28.3859
1247.26	29.0929
1248.35	24.841
1249.44	26.0925
1250.53	26.6057
1251.63	28.9515
1252.72	27.2209
1253.81	27.2115
1254.9	28.5417
1255.99	27.7293
1257.08	28.1213
1258.17	26.3859
1259.27	27.743
1260.36	27.4458
1261.45	26.9597
1262.54	27.2998
1263.63	28.1917
1264.72	27.7426
1265.81	25.1092
1266.89	25.9764
1267.98	27.6658
1269.07	26.0049
1270.16	27.1069
1271.25	26.633
1272.34	26.6174
1273.43	25.9354
1274.52	23.4453
1275.6	25.0917
1276.69	26.1616
1277.78	26.2526
1278.87	26.2275
1279.95	25.5206
1281.04	24.5973
1282.13	26.7162
1283.22	24.3704
1284.3	24.8575
1285.39	25.216
1286.48	27.6342
1287.56	28.9806
1288.65	27.1398
1289.73	27.7254
1290.82	27.2048
1291.9	27.1552
1292.99	26.0725
1294.07	25.4174
1295.16	26.535
1296.24	25.5213
1297.33	26.2247
1298.41	27.3466
1299.5	28.3688
1300.58	27.3065
1301.66	28.0629
1302.75	26.7547
1303.83	24.0022
1304.91	23.9946
1306	26.7243
1306.4	28
1307.48	26
1308.57	23
1309.66	28
1310.75	29.5
1311.84	28.5
1312.92	29.5
1314.01	27
1315.1	26
1316.18	25
1317.27	29.5
1318.36	23
1319.44	27.5
1320.53	22.5
1321.62	25
1322.7	26
1323.79	24
1324.87	24.5
1325.96	21
1327.04	25
1328.13	26
1329.21	28
1330.3	27.5
1331.38	26
1332.47	28.5
1333.55	23.5
1334.64	24
1335.72	27
1336.8	27
1337.89	31
1338.97	29
1340.05	22.5
1341.14	26.5
1342.22	26.5
1343.3	26.5
1344.38	27.5
1345.47	25
1346.55	21.5
1347.63	27.5
1348.71	23.5
1349.79	26.5
1350.87	27
1351.96	22
1353.04	22.5
1354.12	25
1355.2	25
1356.28	28.5
1357.36	26
1358.44	25
1359.52	25
1360.6	28
1361.68	24
1362.76	21.5
1363.84	26
1364.92	26
1366	26
1367.07	23
1368.15	29
1369.23	21
1370.31	26
1371.39	24
1372.47	24
1373.54	24
1374.62	28.5
1375.7	28
1376.78	25
1377.85	25.5
1378.93	31.5
1380.01	27
1381.08	31
1382.16	29
1383.24	26
1384.31	26
1385.39	29
1386.46	25.5
1387.54	29
1388.61	28.5
1389.69	27.5
1390.76	29.5
1391.84	30
1392.91	25
1393.99	30
1395.06	25.5
1396.14	31
1397.21	30
1398.29	31.5
1399.36	31.5
1400.43	31
1401.51	30.5
1402.58	27
1403.65	30
1404.72	30
1405.8	32.5
1406.87	28.5
1407.94	33.5
1409.02	33
1410.09	31
1411.16	30
1412.23	32
1413.3	29
1414.37	32.5
1415.44	32
1416.51	31.5
1417.59	30.5
1418.66	36
1419.73	26.5
1420.8	32
1421.87	31
1422.94	26
1424.01	28
1425.08	28.5
1426.15	29.5
1427.22	28
1428.28	27.5
1429.35	26
1430.42	25
1431.49	27.5
1432.56	31
1433.63	29
1434.7	28.5
1435.76	28
1436.83	28
1437.9	28
1438.97	28
1440.03	29
1441.1	26
1442.17	31
1443.23	26.5
1444.3	24
1445.37	28
1446.43	25.5
1447.5	27
1448.57	26.5
1449.63	29.5
1450.7	29.5
1451.76	25
1452.83	27.5
1453.89	28
1454.96	29
1456.02	28
1457.09	28
1458.15	30.5
1459.22	28.5
1460.28	29.5
1461.34	32.5
1462.41	29
1463.47	25.5
1464.53	28
1465.6	24.5
1466.66	26
1467.72	22
1468.78	27
1469.85	27.5
1470.91	28.5
1471.97	28
1473.03	27
1474.1	28.5
1475.16	28
1476.22	28
1477.28	28
1478.34	23.5
1479.4	26
1480.46	27
1481.52	27.5
1482.58	27.5
1483.65	28.5
1484.71	29
1485.77	27
1486.82	24
1487.89	28
1488.94	28
1490	26
1491.06	29.5
1492.12	29.5
1493.18	28.5
1494.24	26.5
1495.3	27.5
1496.36	25.5
1497.41	25
1498.47	25
1499.53	26.5
1500.59	25
1501.65	27
1502.7	30
1503.76	26
1504.82	24.5
1505.87	23.5
1506.93	23
1507.99	27.5
1509.04	21.5
1510.1	29
1511.16	29
1512.21	28.5
1513.27	26.5
1514.32	25
1515.38	26.5
1516.43	26
1517.49	26
1518.54	24
1519.6	27.5
1520.65	25
1521.71	25
1522.76	30.5
1523.81	22.5
1524.87	27.5
1525.92	27
1526.98	24.5
1528.03	24
1529.08	26
1530.14	26
1531.19	27
1532.24	25.5
1533.29	27.5
1534.35	29.5
1535.4	24.5
1536.45	30
1537.5	26
1538.55	22.5
1539.61	28
1540.66	28.5
1541.71	29.5
1542.76	20
1543.81	25
1544.86	28.5
1545.91	27
1546.96	28
1548.01	26
1549.06	25.5
1550.11	29.5
1551.16	24
1552.21	26
1553.26	28
1554.31	25.5
1555.36	28.5
1556.41	28
1557.46	28
1558.5	28
1559.55	24
1560.6	28
1561.65	31.5
1562.7	24.5
1563.74	28
1564.79	26.5
1565.84	22.5
1566.89	26
1567.93	34
1568.98	23.5
1570.03	27.5
1571.07	25.5
1572.12	26.5
1573.17	24
1574.21	27.5
1575.26	26
1576.3	29.5
1577.35	27.5
1578.4	29.5
1579.44	27
1580.49	22
1581.53	31.5
1582.58	29.5
1583.62	27
1584.66	27.5
1585.71	28.5
1586.75	23
1587.8	26
1588.84	24
1589.88	26
1590.93	26
1591.97	27.5
1593.01	28
1594.06	27
1595.1	26
1596.14	28
1597.18	26.5
1598.23	28.5
1599.27	29.5
1600.31	26.5
1601.35	26.5
1602.39	24.5
1603.44	26
1604.48	26
1605.52	28
1606.56	26.5
1607.6	24
1608.64	23.5
1609.68	28.5
1610.72	27
1611.76	26
1612.8	24.5
1613.84	27
1614.88	29
1615.92	26
1616.96	28
1618	29
1619.04	24
1620.08	29.5
1621.12	26
1622.16	29
1623.19	27.5
1624.23	28.5
1625.27	25.5
1626.31	24
1627.35	26
1628.38	26
1629.42	25
1630.46	26
1631.49	26
1632.53	28
1633.57	27.5
1634.6	28
1635.64	28
1636.68	25
1637.71	26
1638.75	27.5
1639.79	29.5
1640.82	26.5
1641.86	24
1642.89	25
1643.93	22.5
1644.96	27.5
1646	24.5
1647.03	24
1648.07	26
1649.1	26
1650.13	24.5
1651.17	25
1652.2	27.5
1653.24	20
1654.27	28
1655.3	24
1656.34	27.5
1657.37	26.5
1658.4	24.5
1659.43	24
1660.47	27
1661.5	25
1662.53	25.5
1663.56	23.5
1664.6	28
1665.63	29
1666.66	27
1667.69	25
1668.72	30.5
1669.75	24.5
1670.78	29
1671.81	32
1672.85	29
1673.88	28
1674.91	24
1675.94	26.5
1676.97	27
1678	27.5
1679.03	28
1680.06	26
1681.09	29.5
1682.11	22.5
1683.14	27.5
1684.17	27
1685.2	24
1686.23	32
1687.26	26
1688.29	29
1689.31	28
1690.34	30
1691.37	26.5
1692.4	27
1693.42	28
1694.45	26
1695.48	19
1696.51	25
1697.53	23
1698.56	27
1699.59	28
1700.61	27
1701.64	28
1702.66	26
1703.69	24
1704.72	28.5
1705.74	27
1706.77	24
1707.79	27.5
1708.82	30.5
1709.84	23.5
1710.87	26.5
1711.89	26
1712.91	27.5
1713.94	26
1714.96	28.5
1715.99	25
1717.01	26
1718.03	26
1719.06	26
1720.08	28
1721.1	27
1722.13	30
1723.15	27.5
1724.17	26.5
1725.19	25
1726.22	24
1727.24	28
1728.26	25.5
1729.28	29
1730.3	26.5
1731.33	24
1732.35	26
1733.37	27
1734.39	25
1735.41	26
1736.43	26.5
1737.45	26
1738.47	24.5
1739.49	28.5
1740.51	27.5
1741.53	30
1742.55	26
1743.57	27.5
1744.59	22
1745.61	25.5
1746.63	22
1747.65	29.5
1748.67	25.5
1749.69	29.5
1750.7	29.5
1751.72	27
1752.74	24.5
1753.76	26.5
1754.78	28
1755.79	24.5
1756.81	26
1757.83	23
1758.85	27.5
1759.86	26
1760.88	26.5
1761.9	24
1762.91	29
1763.93	30
1764.95	29
1765.96	27.5
1766.98	28
1767.99	27.5
1769.01	28
1770.02	25.5
1771.04	26
1772.06	29.5
1773.07	31
1774.09	30
1775.1	27.5
1776.11	25.5
1777.13	23
1778.14	23
1779.16	23.5
1780.17	26
1781.18	26
1782.2	26
1783.21	26
1784.22	27.5
1785.24	27
1786.25	20
1787.26	24
1788.28	26.5
1789.29	24
1790.3	27.5
1791.31	28
1792.33	28
1793.34	26
1794.35	24.5
1795.36	28
1796.37	29.5
1797.38	26.5
1798.39	28.5
1799.4	29
1800.42	30
1801.43	26
1802.44	27.5
1803.45	26.5
1804.46	23.5
1805.47	26.5
1806.48	27
1807.49	25
1808.5	25.5
1809.51	26
1810.51	26.5
1811.52	27.5
1812.53	25.5
1813.54	27.5
1814.55	29
1815.56	30
1816.57	29
1817.57	23.5
1818.58	28.5
1819.59	26.5
1820.6	24
1821.61	25.5
1822.61	26
1823.62	28.5
1824.63	25.5
1825.63	27
1826.64	26
1827.65	25.5
1828.65	22
1829.66	24.5
1830.67	28
1831.67	27
1832.68	25.5
1833.68	23
1834.69	29
1835.69	25.5
1836.7	28.5
1837.7	27
1838.71	27
1839.71	21
1840.72	27
1841.72	25
1842.73	25
1843.73	27
1844.73	23
1845.74	23.5
1846.74	28.5
1847.74	29
1848.75	25
1849.75	25.5
1850.75	27
1851.76	27
1852.76	28.5
1853.76	27.5
1854.76	31
1855.77	23
1856.77	26
1857.77	26
1858.77	26
1859.77	27
1860.77	27
1861.78	30
1862.78	27.5
1863.78	25.5
1864.78	28.5
1865.78	27.5
1866.78	23.5
1867.78	24
1868.78	24
1869.78	27
1870.78	28.5
1871.78	29.5
1872.78	27
1873.78	29.5
1874.78	25.5
1875.78	28.5
1876.78	23.5
1877.78	29.5
1878.77	28
1879.77	22
1880.77	30
1881.77	24
1882.77	22
1883.77	29
1884.76	21
1885.76	25
1886.76	25.5
1887.75	27.5
1888.75	27.5
1889.75	26.5
1890.75	28
1891.74	21
1892.74	25
1893.73	27
1894.73	25
1895.73	28
1896.72	24
1897.72	25
1898.71	23
1899.71	21
1900.7	27
1901.7	26.5
1902.69	28
1903.69	24.5
1904.68	26
1905.68	26
1906.67	25.5
1907.67	27.5
1908.66	28.5
1909.65	25.5
1910.65	26
1911.64	26
1912.63	30.5
1913.63	26.5
1914.62	26.5
1915.61	25
1916.61	28
1917.6	22
1918.59	26.5
1919.58	29
1920.58	26
1921.57	28
1922.56	25.5
1923.55	21
1924.54	30
1925.54	28
1926.53	28.5
1927.52	29
1928.51	26
1929.5	28
1930.49	24.5
1931.48	27
1932.47	27
1933.46	24.5
1934.45	28
1935.44	23.5
1936.43	28.5
1937.42	23
1938.41	27
1939.4	24.5
1940.39	24
1941.38	26
1942.37	27.5
1943.35	19
1944.34	25
1945.33	23
1946.32	30
1947.31	23.5
1948.3	25.25
1949.28	26
1950.27	27
1951.26	24
1952.25	25
1953.23	27.5
1954.22	27
1955.21	23
1956.19	25
1957.18	26
1958.17	28
1959.15	24
1960.14	27.5
1961.12	25
1962.11	23.5
1963.1	26.5
1964.08	23.5
1965.07	28
1966.05	26.5
1967.04	26.5
1968.02	27
1969.01	26.5
1969.99	23
1970.98	26
1971.96	26.5
1972.94	27
1973.93	25
1974.91	29.5
1975.9	26
1976.88	24
1977.86	24.5
1978.85	28.5
1979.83	26
1980.81	21.5
1981.79	24
1982.78	26.5
1983.76	25.5
1984.74	26
1985.72	27
1986.71	21.5
1987.69	28.5
1988.67	25.5
1989.65	30
1990.63	22.5
1991.61	27
1992.59	25.5
1993.57	29.5
1994.56	23
1995.54	23.5
1996.52	28.5
1997.5	25
1998.48	27
1999.46	25
2000.44	24
2001.42	25
2002.4	28.5
2003.38	28.5
2004.36	29.5
2005.33	27
2006.31	25.5
2007.29	24
2008.27	23
2009.25	30
2010.23	26.5
2011.21	22
2012.18	28.5
2013.16	20
2014.14	25
2015.12	22
2016.09	29
2017.07	25.5
2018.05	26
2019.03	25.5
2020	28
2020.98	25
2021.96	26
2022.93	27
2023.91	25
2024.89	26.5
2025.86	22
2026.84	24.5
2027.81	25.5
2028.79	23
2029.76	23.5
2030.74	23.5
2031.71	29.5
2032.69	25
2033.66	25
2034.64	22.5
2035.61	27.5
2036.59	27.5
2037.56	23.5
2038.54	25.5
2039.51	24
2040.48	25
2041.46	23
2042.43	26
2043.4	22
2044.38	24
2045.35	25
2046.32	28
2047.29	24.5
2048.27	22.5
2049.24	25
2050.21	22
2051.18	26.5
2052.16	22.5
2053.13	24.5
2054.1	24
2055.07	24
2056.04	24.5
2057.01	18.5
2057.98	25
2058.96	22
2059.93	30
2060.9	27
2061.87	27
2062.84	24
2063.81	25
2064.78	22
2065.75	22.5
2066.72	27
2067.69	25
2068.66	25.5
2069.63	20.5
2070.6	21
2071.56	23
2072.53	26
2073.5	26.5
2074.47	24
2075.44	27.5
2076.41	23
2077.38	24.5
2078.34	24
2079.31	25
2080.28	24
2081.25	25.5
2082.21	23
2083.18	22.5
2084.15	24
2085.11	25
2086.08	24
2087.05	28
2088.01	21
2088.98	22
2089.95	26.5
2090.91	28.5
2091.88	25.5
2092.84	26
2093.81	22
2094.78	26
2095.74	21
2096.71	27
2097.67	24
2098.64	23
2099.6	24.5
2100.57	25
2101.53	27
2102.49	25
2103.46	25
2104.42	23.5
2105.39	24.5
2106.35	22.5
2107.31	24.5
2108.28	26
2109.24	29
2110.2	25
2111.17	24
2112.13	25
2113.09	21
2114.05	24
2115.02	26
2115.98	28.5
2116.94	27.5
2117.9	24.5
2118.86	25.5
2119.83	28.5
2120.79	27.5
2121.75	25
2122.71	25
2123.67	25
2124.63	27
2125.59	21.5
2126.55	25
2127.51	28.5
2128.47	21
2129.43	24.5
2130.39	26
2131.35	22
2132.31	24
2133.27	24
2134.23	25
2135.19	27
2136.15	25
2137.11	26
2138.07	24.5
2139.03	25
2139.99	20
2140.94	23
2141.9	25.5
2142.86	22.9825
2143.82	24.4633
2144.78	19.1745
2145.73	26.498
2146.69	24
2147.65	24.492
2148.61	23.1515
2149.56	23.9089
2150.52	22.1518
2151.48	23.0576
2152.43	21.5657
2153.39	22.6512
2154.35	25.1624
2155.3	21.9224
2156.26	22.2169
2157.21	26.0124
2158.17	23.4946
2159.13	26.5948
2160.08	24.0801
2161.04	26.2146
2161.99	25.6839
2162.95	23.5081
2163.9	26.0869
2164.86	25.6408
2165.81	24.5868
2166.77	22.7383
2167.72	23.7786
2168.67	22.7488
2169.63	23.4216
2170.58	28.4119
2171.54	23.0628
2172.49	24.5963
2173.44	23.1641
2174.4	22.6736
2175.35	22.0147
2176.3	26.8105
2177.26	24.1594
2178.21	23.2693
2179.16	24.3339
2180.11	23.5276
2181.07	23.1084
2182.02	23.1991
2182.97	23.6792
2183.92	25.1448
2184.87	23.8611
2185.82	24.4187
2186.78	25.6595
2187.73	25.3941
2188.68	23.6479
2189.63	24.9085
2190.58	24.3394
2191.53	22.9716
2192.48	25.9646
2193.43	22.1108
2194.38	21.5764
2195.33	24.1076
2196.28	21.2102
2197.23	21.7951
2198.18	24.7313
2199.13	22.4372
2200.08	23.5202
2201.03	23.0577
2201.98	23.4214
2202.93	23.1355
2203.88	23.7254
2204.83	22.1219
2205.77	21.8228
2206.72	25.0101
2207.67	24.0936
2208.62	26.2705
2209.57	27.3943
2210.52	23.694
2211.46	21.3838
2212.41	21.4608
2213.36	23.5247
2214.31	23.3329
2215.25	25.2027
2216.2	24.9626
2217.15	25.3174
2218.09	24.4319
2219.04	25.5224
2219.99	24.4167
2220.93	24.3676
2221.88	20.8219
2222.82	22.885
2223.77	23.9573
2224.72	22.4391
2225.66	24.2727
2226.61	25.1844
2227.55	22.4456
2228.5	22.016
2229.44	24.3445
2230.39	24.0844
2231.33	25.5702
2232.28	25.3436
2233.22	25.4272
2234.16	23.8208
2235.11	23.727
2236.05	26.6317
2237	24.5217
2237.94	22.3875
2238.88	24.3883
2239.83	24.4672
2240.13	24
2241.08	26
2242.03	25
2242.98	27.5
2243.92	24
2244.87	28
2245.82	22.5
2246.76	26.5
2247.71	22.5
2248.66	26
2249.61	23
2250.55	22.5
2251.5	21.5
2252.45	25.5
2253.39	22
2254.34	23.5
2255.28	23
2256.23	24.5
2257.18	27.5
2258.12	21
2259.07	22
2260.01	23
2260.96	22.5
2261.9	25.5
2262.85	25
2263.79	24
2264.74	26.5
2265.68	23
2266.63	24
2267.57	25
2268.51	23
2269.46	21.5
2270.4	24.5
2271.35	23.5
2272.29	25.5
2273.23	26.5
2274.18	24.5
2275.12	24
2276.06	24.5
2277	22.5
2277.95	26
2278.89	26.5
2279.83	24.5
2280.78	22
2281.72	25
2282.66	26.5
2283.6	26
2284.54	26
2285.48	28.5
2286.43	23.5
2287.37	26
2288.31	25
2289.25	25
2290.19	26.5
2291.13	26.5
2292.07	26.5
2293.01	25
2293.95	21
2294.89	25.5
2295.83	26
2296.77	21.5
2297.71	23.5
2298.65	20
2299.59	24
2300.53	24.5
2301.47	23.5
2302.41	26
2303.35	23
2304.29	28
2305.22	24.5
2306.16	25.5
2307.1	21.5
2308.04	23
2308.98	27
2309.91	22
2310.85	24.5
2311.79	23.5
2312.73	24.5
2313.66	22.5
2314.6	24
2315.54	22
2316.48	27
2317.41	26.5
2318.35	23.5
2319.29	22
2320.22	20.5
2321.16	28.5
2322.09	27
2323.03	24
2323.97	21
2324.9	24
2325.84	26
2326.77	18
2327.71	22
2328.64	24
2329.58	25.5
2330.51	25.5
2331.45	22.5
2332.38	23
2333.32	24
2334.25	26
2335.18	23
2336.12	25
2337.05	25
2337.99	25.5
2338.92	21.5
2339.85	22.5
2340.79	25.5
2341.72	25.5
2342.65	22.5
2343.59	24.5
2344.52	27.5
2345.45	24
2346.38	25
2347.32	27.5
2348.25	21.5
2349.18	23.5
2350.11	24
2351.04	28
2351.98	24
2352.91	24.5
2353.84	26
2354.77	23.5
2355.7	24.5
2356.63	27
2357.56	25
2358.49	23
2359.42	25
2360.35	24
2361.28	27
2362.21	23.5
2363.14	27
2364.07	27
2365	30
2365.93	24
2366.86	23.5
2367.79	24
2368.72	25
2369.65	23
2370.58	28
2371.51	28.5
2372.44	24
2373.36	27.5
2374.29	23.5
2375.22	26.5
2376.15	20
2377.08	25.5
2378	25
2378.93	23
2379.86	26.5
2380.79	26
2381.71	24
2382.64	25.5
2383.57	26
2384.49	23.5
2385.42	24
2386.35	22
2387.27	21.5
2388.2	23
2389.13	24
2390.05	26
2390.98	27
2391.9	23
2392.83	23
2393.76	23
2394.68	23.5
2395.61	26
2396.53	24
2397.46	24
2398.38	23
2399.3	23.5
2400.23	25.5
2401.15	21.5
2402.08	24.5
2403	23
2403.93	26
2404.85	26.5
2405.77	24.5
2406.7	22
2407.62	22.5
2408.54	26
2409.47	22.5
2410.39	25.5
2411.31	22.5
2412.24	24.5
2413.16	26
2414.08	26
2415	23.5
2415.92	27
2416.85	24
2417.77	24.5
2418.69	23
2419.61	21.5
2420.53	27
2421.45	24.5
2422.38	26
2423.3	31
2424.22	22
2425.14	27
2426.06	23
2426.98	22
2427.9	25.5
2428.82	32
2429.74	22.5
2430.66	22
2431.58	24.5
2432.5	28
2433.42	25.5
2434.34	21
2435.26	26.5
2436.18	28
2437.1	27
2438.01	24
2438.93	24
2439.85	24
2440.77	26
2441.69	26
2442.61	22
2443.52	25
2444.44	23.5
2445.36	24.5
2446.28	21.5
2447.2	23.5
2448.11	27
2449.03	24.5
2449.95	23
2450.86	23
2451.78	26
2452.7	26
2453.61	25.5
2454.53	23
2455.45	25
2456.36	24.5
2457.28	23
2458.2	26
2459.11	26
2460.03	25
2460.94	23.5
2461.86	26
2462.77	26
2463.69	25.5
2464.6	26
2465.52	24.5
2466.43	26
2467.35	25
2468.26	25
2469.18	26
2470.09	25.5
2471	24
2471.92	22.5
2472.83	25
2473.74	25
2474.66	22.5
2475.57	23.5
2476.48	28
2477.4	23
2478.31	27
2479.22	25
2480.14	21
2481.05	23.5
2481.96	24.5
2482.87	22.5
2483.79	24
2484.7	29
2485.61	24
2486.52	25
2487.43	23.5
2488.34	25
2489.25	25
2490.17	24.5
2491.08	26.5
2491.99	26.5
2492.9	27
2493.81	23.5
2494.72	25
2495.63	25
2496.54	25.5
2497.45	27
2498.36	27
2499.27	23
2500.18	27
2501.09	26
2502	29.5
2502.91	24.5
2503.82	25.5
2504.73	23.5
2505.63	24.5
2506.54	23
2507.45	26
2508.36	25
2509.27	22.5
2510.18	26.5
2511.09	24
2511.99	27
2512.9	25.5
2513.81	30
2514.72	28
2515.62	25.5
2516.53	26.5
2517.44	25.5
2518.34	25
2519.25	27
2520.16	25.5
2521.06	28.5
2521.97	24.5
2522.88	27
2523.78	29
2524.69	26.5
2525.6	26.5
2526.5	25
2527.41	24
2528.31	28.5
2529.22	23.5
2530.12	25
2531.03	24
2531.93	23
2532.84	27.5
2533.74	22.5
2534.65	24.5
2535.55	26.5
2536.46	24
2537.36	30
2538.27	24.5
2539.17	29
2540.07	26.5
2540.98	24
2541.88	25.5
2542.78	24
2543.69	25.5
2544.59	24.5
2545.49	28
2546.4	27
2547.3	24
2548.2	24
2549.1	24.5
2550.01	23
2550.91	28
2551.81	27
2552.71	24
2553.61	26.5
2554.52	24
2555.42	25
2556.32	24.5
2557.22	25.5
2558.12	25
2559.02	22.5
2559.92	28.5
2560.82	26
2561.72	25.5
2562.62	25.5
2563.53	23
2564.43	24
2565.33	25
2566.23	25
2567.13	25
2568.03	24.5
2568.92	27.5
2569.82	21.5
2570.72	28.5
2571.62	24
2572.52	24.5
2573.42	26
2574.32	23.5
2575.22	24
2576.12	26.5
2577.02	26.5
2577.91	28
2578.81	26
2579.71	24
2580.61	23.5
2581.5	26
2582.4	28.5
2583.3	27.5
2584.2	23.5
2585.09	26
2585.99	25.5
2586.89	24.5
2587.78	24.5
2588.68	26
2589.58	26
2590.47	25.5
2591.37	25
2592.27	26.5
2593.16	25
2594.06	21.5
2594.95	27
2595.85	23.5
2596.75	25
2597.64	24
2598.54	26.5
2599.43	23.5
2600.33	27.5
2601.22	23
2602.12	26.5
2603.01	24.5
2603.9	29
2604.8	29.5
2605.69	26
2606.59	27
2607.48	27
2608.37	27
2609.27	21.5
2610.16	24
2611.05	28
2611.95	24
2612.84	22
2613.73	23
2614.63	23.5
2615.52	25
2616.41	24.5
2617.3	21
2618.2	25.5
2619.09	23
2619.98	25
2620.87	26.5
2621.76	22.5
2622.66	26.5
2623.55	27
2624.44	25
2625.33	24.5
2626.22	25.5
2627.11	27
2628	24
2628.9	24
2629.79	25
2630.68	23
2631.57	23
2632.46	26
2633.35	23.5
2634.24	26
2635.13	26
2636.02	29
2636.91	21
2637.8	25
2638.68	27
2639.57	28
2640.46	24
2641.35	23
2642.24	26
2643.13	23.5
2644.02	25
2644.91	26
2645.79	24.5
2646.68	27.5
2647.57	23.5
2648.46	21
2649.35	25
2650.23	27.5
2651.12	27
2652.01	22
2652.9	25
2653.78	25
2654.67	23
2655.56	25.5
2656.44	24
2657.33	27.5
2658.22	24.5
2659.1	24
2659.99	22
2660.88	24.5
2661.76	27.5
2662.65	25.5
2663.53	23
2664.42	22.5
2665.3	28.5
2666.19	23
2667.07	25
2667.96	25.5
2668.84	27
2669.73	27
2670.61	26
2671.5	22
2672.38	22.5
2673.27	23.5
2674.15	26
2675.04	21
2675.92	26.5
2676.8	22.5
2677.69	24
2678.57	26
2679.45	24.5
2680.34	28.5
2681.22	28.5
2682.1	26.5
2682.99	25.5
2683.87	30
2684.75	26
2685.63	24.5
2686.52	25
2687.4	25
2688.28	23
2689.16	26.5
2690.04	24.5
2690.93	25
2691.81	24
2692.69	24.5
2693.57	24.5
2694.45	20
2695.33	24.5
2696.21	24
2697.09	25.5
2697.97	25
2698.85	25.5
2699.74	28
2700.62	25
2701.5	28
2702.38	26.5
2703.26	22.5
2704.14	24.5
2705.02	25.5
2705.89	21
2706.77	25
2707.65	25.5
2708.53	24
2709.41	26
2710.29	24
2711.17	26
2712.05	25.5
2712.93	25
2713.8	21.5
2714.68	22.5
2715.56	25.5
2716.44	25
2717.32	23.5
2718.19	25
2719.07	26
2719.95	27
2720.83	24.5
2721.7	27.5
2722.58	20
2723.46	24
2724.33	27.5
2725.21	27
2726.09	26
2726.97	24
2727.84	29
2728.72	27
2729.59	25.5
2730.47	23
2731.35	24.5
2732.22	27
2733.1	28
2733.97	25.5
2734.85	26.5
2735.72	24.5
2736.6	27
2737.47	21.5
2738.35	23
2739.22	25
2740.1	25
2740.97	28.5
2741.84	25.5
2742.72	24.5
2743.59	23
2744.47	29
2745.34	24.5
2746.21	27
2747.09	26
2747.96	25.5
2748.83	29
2749.71	25.5
2750.58	23.5
2751.45	23.5
2752.33	26.5
2753.2	24
2754.07	26
2754.94	26.5
2755.82	25
2756.69	29
2757.56	27.5
2758.43	23
2759.3	24
2760.18	27
2761.05	24
2761.92	25
2762.79	25.5
2763.66	25
2764.53	28.5
2765.4	27
2766.27	27.5
2767.14	26
2768.01	23
2768.88	28
2769.75	28.5
2770.62	24
2771.49	25.5
2772.36	23
2773.23	26
2774.1	26
2774.97	23
2775.84	25.5
2776.71	27
2777.58	22
2778.45	26.5
2779.32	26.5
2780.19	23
2781.06	28
2781.92	26
2782.79	23.5
2783.66	27
2784.53	25.5
2785.4	25
2786.26	25
2787.13	25.5
2788	26.5
2788.87	24
2789.73	23
2790.6	26
2791.47	27
2792.34	28
2793.2	27
2794.07	26.5
2794.94	30.5
2795.8	29.5
2796.67	25.5
2797.53	26
2798.4	24.5
2799.27	26
2800.13	29
2801	27.5
2801.86	25
2802.73	24.5
2803.59	29
2804.46	24.5
2805.32	24.5
2806.19	25
2807.05	27.5
2807.92	25.5
2808.78	29
2809.65	29
2810.51	27
2811.38	26
2812.24	27.5
2813.1	24
2813.97	26
2814.83	25.5
2815.7	28
2816.56	23.5
2817.42	27
2818.29	26.5
2819.15	28
2820.01	27
2820.87	28
2821.74	31
2822.6	25
2823.46	25.5
2824.32	27.5
2825.19	27.5
2826.05	26.5
2826.91	23.5
2827.77	27.5
2828.63	28.5
2829.5	28
2830.36	29
2831.22	26.5
2832.08	29
2832.94	27
2833.8	25
2834.66	24
2835.52	28
2836.38	26.5
2837.24	24
2838.1	26
2838.96	29.5
2839.82	22.5
2840.68	23.5
2841.54	27
2842.4	24.5
2843.26	27
2844.12	26.5
2844.98	27
2845.84	25
2846.7	23.5
2847.56	27
2848.42	27.5
2849.28	27
2850.14	26
2850.99	25
2851.85	26.5
2852.71	25.5
2853.57	26
2854.43	28
2855.28	27
2856.14	30
2857	28
2857.86	25
2858.71	26
2859.57	30
2860.43	24
2861.28	22.5
2862.14	25
2863	31.5
2863.86	26.5
2864.71	22.5
2865.57	24
2866.42	26
2867.28	25
2868.14	28
2868.99	29.5
2869.85	28.5
2870.7	30
2871.56	24
2872.41	26
2873.27	26.5
2874.13	30
2874.98	31
2875.83	30.5
2876.69	30
2877.54	28
2878.4	30
2879.25	28.5
2880.11	31.5
2880.96	29
2881.81	29
2882.67	33
2883.52	32
2884.38	35.5
2885.23	33
2886.08	33
2886.94	33.5
2887.79	34.5
2888.64	35
2889.5	35.5
2890.35	38.5
2891.2	34.5
2892.05	37
2892.91	37.5
2893.76	41.5
2894.61	44.5
2895.46	51
2896.31	48.5
2897.17	48.5
2898.02	51
2898.87	52
2899.72	51.5
2900.57	56
2901.42	51
2902.27	59
2903.12	63
2903.98	62.5
2904.83	56
2905.68	62
2906.53	60
2907.38	64
2908.23	64
2909.08	62.5
2909.93	54
2910.78	60
2911.63	50.5
2912.48	46
2913.33	48.5
2914.18	45
2915.02	43
2915.87	40
2916.72	39
2917.57	38
2918.42	41
2919.27	36
2920.12	35
2920.97	32
2921.81	36
2922.66	34.5
2923.51	35.5
2924.36	29.5
2925.21	34.5
2926.05	34.5
2926.9	32
2927.75	31
2928.59	31.5
2929.44	32.5
2930.29	29
2931.14	29
2931.98	28
2932.83	27
2933.68	27.5
2934.52	28
2935.37	27.5
2936.21	31.5
2937.06	32.5
2937.91	27
2938.75	28.5
2939.6	25
2940.44	27.5
2941.29	32
2942.14	27
2942.98	27.5
2943.82	23
2944.67	26
2945.51	32.5
2946.36	27
2947.2	26.5
2948.05	33
2948.89	27
2949.74	26.5
2950.58	31.5
2951.43	30
2952.27	33
2953.11	30.5
2953.96	31.5
2954.8	34
2955.64	31.5
2956.49	36
2957.33	32
2958.17	37
2959.02	36
2959.86	40
2960.7	37
2961.54	35.5
2962.39	41
2963.23	41.5
2964.07	39.5
2964.91	42
2965.75	40
2966.6	37
2967.44	39.5
2968.28	39
2969.12	42.5
2969.96	39.5
2970.8	42
2971.64	35.9854
2972.48	34.9012
2973.33	40.8925
2974.17	34.9554
2975.01	33.9576
2975.85	33.05
2976.69	28.6118
2977.53	30.3961
2978.37	34.0081
2979.21	23.5073
2980.05	28.9026
2980.89	33.6732
2981.73	26.5061
2982.57	28.5313
2983.41	28.3199
2984.25	21.6367
2985.08	26.3981
2985.92	26.9582
2986.76	26.473
2987.6	25.6246
2988.44	26.8744
2989.28	27.521
2990.12	28.1595
2990.96	27.506
2991.79	24.4544
2992.63	24.8151
2993.47	24.9029
2994.31	22.8013
2995.14	26.2753
2995.98	26.5379
2996.82	25.7351
2997.66	25.7167
2998.49	26.0826
2999.33	22.5318
3000.17	24.1989
3001	24.4513
3001.84	24.5976
3002.68	24.6054
3003.51	23.9254
3004.35	26.814
3005.19	23.7101
3006.02	22.6432
3006.86	25.1891
3007.7	26.0658
3008.53	24.4686
3009.37	25.335
3010.2	23.2495
3011.04	24.0726
3011.87	26.392
3012.71	23.9463
3013.54	22.9199
3014.38	25.154
3015.21	26.3115
3016.05	25.5942
3016.88	24.3987
3017.72	21.294
3018.55	22.2311
3019.39	22.6673
3020.22	23.5104
3021.05	21.3274
3021.89	21.8006
3022.72	22.1044
3023.55	22.8715
3024.39	24.5048
3025.22	22.5622
3026.05	25.1998
3026.89	22.5336
3027.72	21.871
3028.55	22.7996
3029.39	21.7033
3030.22	21.1403
3031.05	22.1028
3031.88	22.7959
3032.72	21.0053
3033.55	20.429
3034.38	22.8656
3035.21	24.5994
3036.04	24.6733
3036.88	24.2442
3037.71	24.1845
3038.54	22.2348
3039.37	23.6189
3040.2	22.3938
3041.03	21.7882
3041.86	22.1174
3042.69	25.3503
3043.52	25.9607
3044.36	23.2768
3045.19	21.4511
3046.02	22.9796
3046.85	24.2021
3047.68	21.5666
3048.51	23.4183
3049.34	25.4452
3050.17	23.6693
3051	21.8609
3051.83	20.7855
3052.66	22.9187
3053.48	24.1267
3054.31	23.8217
3055.14	23.5153
3055.97	23.9193
3056.8	23.1202
3057.29	24
3058.12	22.5
3058.95	21.5
3059.79	22.5
3060.62	23.5
3061.45	22.5
3062.29	23
3063.12	25
3063.95	22.5
3064.78	24
3065.62	24.5
3066.45	22.5
3067.28	21.5
3068.11	23.5
3068.94	24
3069.77	21.5
3070.61	24
3071.44	23
3072.27	24.5
3073.1	25.5
3073.93	24
3074.76	24
3075.59	23
3076.42	22
3077.25	20.5
3078.08	25
3078.92	25
3079.74	24
3080.57	26
3081.41	25
3082.24	21
3083.06	25.5
3083.89	20
3084.72	26
3085.55	20.5
3086.38	25.5
3087.21	27
3088.04	21.5
3088.87	24
3089.7	22.5
3090.53	22
3091.36	23
3092.18	25.5
3093.01	28
3093.84	26
3094.67	20
3095.5	28
3096.32	20
3097.15	22
3097.98	25
3098.81	22.5
3099.64	22.5
3100.46	22
3101.29	25.5
3102.12	24
3102.94	22.5
3103.77	27.5
3104.6	22
3105.42	23
3106.25	23
3107.08	17
3107.9	27
3108.73	23
3109.56	23
3110.38	23
3111.21	22
3112.03	24.5
3112.86	22
3113.68	27
3114.51	24
3115.33	27
3116.16	22.5
3116.98	25
3117.81	23.5
3118.63	23.5
3119.46	25
3120.28	26
3121.11	26.5
3121.93	24
3122.76	25.5
3123.58	27.5
3124.4	27.5
3125.23	24
3126.05	25
3126.87	23.5
3127.7	23.5
3128.52	26
3129.34	24
3130.17	24
3130.99	25
3131.81	24.5
3132.64	26
3133.46	24
3134.28	26.5
3135.1	24
3135.93	23.5
3136.75	21
3137.57	25.5
3138.39	24.5
3139.21	23
3140.04	28
3140.86	24
3141.68	26
3142.5	21
3143.32	19.5
3144.14	23.5
3144.96	23
3145.78	24.5
3146.61	23
3147.43	22
3148.25	26
3149.07	28
3149.89	21.5
3150.71	23.5
3151.53	23
3152.35	23.5
3153.17	29
3153.99	26
3154.81	25
3155.63	24.5
3156.45	24
3157.27	24
3158.08	23
3158.9	24
3159.72	27
3160.54	21
3161.36	25
3162.18	22.5
3163	22
3163.82	27.5
3164.63	21
3165.45	25
3166.27	25.5
3167.09	24
3167.91	22
3168.72	22
3169.54	23
3170.36	25
3171.18	26.5
3171.99	26.5
3172.81	28
3173.63	25
3174.44	24
3175.26	21.5
3176.08	26
3176.89	24.5
3177.71	22
3178.53	24.5
3179.34	25
3180.16	26
3180.97	26
3181.79	23.5
3182.61	21.5
3183.42	23.5
3184.24	21.5
3185.05	24
3185.87	22.5
3186.68	21
3187.5	22
3188.31	20.5
3189.13	23
3189.94	27
3190.76	25
3191.57	26
3192.39	27
3193.2	23
3194.02	26
3194.83	24.5
3195.64	24
3196.46	21
3197.27	25.5
3198.08	21.5
3198.9	26
3199.71	23
3200.52	24.5
3201.34	23
3202.15	21
3202.96	23
3203.78	22
3204.59	20.5
3205.4	22.5
3206.21	25
3207.03	25
3207.84	22.5
3208.65	25.5
3209.46	25
3210.27	26.5
3211.09	24
3211.9	24
3212.71	23
3213.52	27
3214.33	25.5
3215.14	22.5
3215.95	22.5
3216.77	24.5
3217.58	25.5
3218.39	23
3219.2	19
3220.01	27
3220.82	25.5
3221.63	23.5
3222.44	24.5
3223.25	24.5
3224.06	22
3224.87	20.5
3225.68	24.5
3226.49	25.5
3227.3	24.5
3228.11	26.5
3228.92	23.5
3229.73	30
3230.53	27.5
3231.34	20.5
3232.15	25
3232.96	24
3233.77	26.5
3234.58	26
3235.39	28
3236.19	27.5
3237	24
3237.81	23
3238.62	27
3239.43	23
3240.23	24
3241.04	25.5
3241.85	26.5
3242.66	22.5
3243.46	23
3244.27	24
3245.08	24
3245.89	23.5
3246.69	25
3247.5	29
3248.31	24
3249.11	27.5
3249.92	25.5
3250.72	23
3251.53	25.5
3252.34	22.5
3253.14	28
3253.95	24
3254.75	25.5
3255.56	25
3256.36	23.5
3257.17	24
3257.98	25.5
3258.78	23
3259.59	23
3260.39	27.5
3261.19	23
3262	22
3262.8	24
3263.61	26
3264.41	23.5
3265.22	28
3266.02	25
3266.83	23
3267.63	26
3268.43	20
3269.24	25.5
3270.04	27
3270.84	24.5
3271.65	23
3272.45	26.5
3273.25	22.5
3274.06	27
3274.86	25
3275.66	24.5
3276.46	23.5
3277.27	21.5
3278.07	24.5
3278.87	25.5
3279.67	25.5
3280.48	28.5
3281.28	23.5
3282.08	28
3282.88	24.5
3283.68	25.5
3284.48	24
3285.29	23
3286.09	24
3286.89	28
3287.69	21
3288.49	24.5
3289.29	25.5
3290.09	25.5
3290.89	19.5
3291.69	26
3292.49	25
3293.29	22.5
3294.09	25
3294.89	26.5
3295.69	21.5
3296.49	25.5
3297.29	25.5
3298.09	24
3298.89	26.5
3299.69	23.5
3300.49	23
3301.29	23.5
3302.09	22
3302.89	23.5
3303.69	25
3304.49	24
3305.28	25.5
3306.08	23
3306.88	25.5
3307.68	22.5
3308.48	26
3309.28	26
3310.07	24
3310.87	24.5
3311.67	26
3312.47	23
3313.26	22
3314.06	24
3314.86	24
3315.66	24
3316.45	26.5
3317.25	24
3318.05	22.5
3318.84	25
3319.64	24.5
3320.44	25
3321.23	24
3322.03	24
3322.83	26.5
3323.62	25
3324.42	28
3325.21	22.5
3326.01	23
3326.81	26
3327.6	22
3328.4	21
3329.19	25
3329.99	27
3330.78	27.5
3331.58	25.5
3332.37	24
3333.17	26
3333.96	29
3334.76	23.5
3335.55	25.5
3336.34	24
3337.14	27
3337.93	27.5
3338.73	25.5
3339.52	19.5
3340.31	21
3341.11	25
3341.9	22
3342.69	26.5
3343.49	23
3344.28	24
3345.07	22.5
3345.87	24.5
3346.66	29
3347.45	23
3348.25	23.5
3349.04	23.5
3349.83	24
3350.62	26
3351.42	24
3352.21	21.5
3353	25
3353.79	24.5
3354.58	21.5
3355.37	25
3356.17	23.5
3356.96	28
3357.75	22
3358.54	27.5
3359.33	24
3360.12	24
3360.91	27.5
3361.7	24.5
3362.49	26
3363.29	24.5
3364.08	23
3364.87	25.5
3365.66	23.5
3366.45	24
3367.24	20.5
3368.03	25.5
3368.82	23
3369.61	22
3370.4	25
3371.19	27
3371.97	25
3372.76	25
3373.55	24
3374.34	26
3375.13	24.5
3375.92	25.5
3376.71	25.5
3377.5	25.5
3378.29	23.5
3379.07	29
3379.86	25
3380.65	27
3381.44	26.5
3382.23	24
3383.01	26
3383.8	21.5
3384.59	24
3385.38	23
3386.16	23.5
3386.95	21
3387.74	25
3388.53	28
3389.31	26
3390.1	25
3390.89	27
3391.67	22.5
3392.46	22
3393.25	24.5
3394.03	26.5
3394.82	25
3395.6	26.5
3396.39	27.5
3397.18	25.5
3397.96	26.5
3398.75	25
3399.53	23.5
3400.32	20
3401.1	23
3401.89	24
3402.67	26
3403.46	21.5
3404.24	26
3405.03	23
3405.81	24.5
3406.6	22.5
3407.38	26.5
3408.17	20
3408.95	25
3409.74	26.5
3410.52	24
3411.3	23
3412.09	27.5
3412.87	23.5
3413.65	23.5
3414.44	23
3415.22	25.5
3416	25
3416.79	26
3417.57	28.5
3418.35	24.5
3419.14	26
3419.92	27
3420.7	28.5
3421.48	24.5
3422.27	24.5
3423.05	19.5
3423.83	23.5
3424.61	22
3425.4	28
3426.18	20
3426.96	22
3427.74	24
3428.52	25.5
3429.3	25.5
3430.08	23.5
3430.87	24
3431.65	23.5
3432.43	23.5
3433.21	23
3433.99	25.5
3434.77	27.5
3435.55	27.5
3436.33	24.5
3437.11	24.5
3437.89	27
3438.67	23
3439.45	23.5
3440.23	24.5
3441.01	28
3441.79	26.5
3442.57	30
3443.35	24.5
3444.13	24
3444.91	26
3445.69	27
3446.47	27
3447.25	22
3448.03	25
3448.8	23
3449.58	29.5
3450.36	25
3451.14	26
3451.92	24
3452.7	25.5
3453.47	25
3454.25	22.5
3455.03	28
3455.81	26
3456.59	26
3457.36	25
3458.14	23.5
3458.92	25.5
3459.69	25.5
3460.47	23.5
3461.25	28
3462.03	24
3462.8	25
3463.58	23.5
3464.36	25
3465.13	23.5
3465.91	27.5
3466.69	23
3467.46	26
3468.24	22.5
3469.01	23.5
3469.79	23
3470.57	26.5
3471.34	29.5
3472.12	29.5
3472.89	24.5
3473.67	25
3474.44	25
3475.22	21
3475.99	23.5
3476.77	25
3477.54	23
3478.32	24.5
3479.09	27
3479.87	22
3480.64	26
3481.41	22.5
3482.19	26.5
3482.96	25.5
3483.74	23
3484.51	25
3485.28	21
3486.06	25
3486.83	24
3487.6	21
3488.38	22.5
3489.15	20
3489.92	22
3490.7	23
3491.47	27
3492.24	22.5
3493.01	24
3493.79	26
3494.56	25.5
3495.33	25.5
3496.1	24.5
3496.88	22
3497.65	19.5
3498.42	26.5
3499.19	26.5
3499.96	24
