#Acq. time (s)=	5
#Accumulations=	5
#Range (cm-¹)=	100...3500
#Windows=	4
#Autofocus=	Off
#AutoExposure=	Off
#Spike filter=	Multiple accum.
#Delay time (s)=	0
#Binning=	1
#Readout mode=	Signal
#DeNoise=	Off
#ICS correction=	Off
#Dark correction=	Off
#Inst. Process=	Off
#Instrument=	LabRAM HR Evol
#Detector=	Syncerity OE
#Objective=	x100_VIS
#Grating=	600 (500nm)
#ND Filter=	25%
#Laser=	633nm_Edge
#Hole=	100.021
#Range=	Visible
#Project=	verificaciones
#Sample=	at1
#Site=	plain
#Title=	bolusat1plain
#Remark=	com
#Date=	16.01.2026 16:00
#Acquired=	16.01.2026 16:00:33
100.564	25
101.847	32.5
103.131	32
104.414	33.5
105.697	35
106.979	32
108.262	28.5
109.544	29.5
110.826	29
112.109	30.5
113.391	26
114.672	34
115.954	34.5
117.235	32.5
118.515	31
119.796	32.5
121.076	30
122.357	30.5
123.637	30
124.916	35
126.196	33
127.475	30
128.754	32.5
130.033	35
131.31	35.5
132.589	39
133.867	34
135.145	33
136.423	36
137.701	37
138.978	37
140.256	35.5
141.533	35.5
142.809	34.5
144.086	42
145.361	38
146.637	40.5
147.913	38
149.189	41
150.464	41
151.74	40.5
153.014	38
154.288	38
155.563	40.5
156.838	41
158.112	41
159.385	38.5
160.659	40.5
161.932	39.5
163.206	42.5
164.479	36
165.751	39.5
167.024	35
168.296	38
169.567	39.5
170.84	37
172.112	39
173.383	40
174.654	37.5
175.925	38.5
177.196	37.5
178.466	40.5
179.737	38
181.007	47.5
182.276	40.5
183.546	41
184.816	41
186.085	43
187.354	40
188.624	44
189.891	37
191.16	41
192.427	39.5
193.696	42.5
194.964	41
196.231	40
197.499	43
198.765	37
200.033	37
201.298	40
202.566	39.5
203.831	36
205.098	35
206.363	36
207.629	39
208.894	34
210.159	33
211.424	37
212.689	36
213.953	37.5
215.218	35
216.481	35
217.746	32
219.009	36.5
220.273	38
221.536	32
222.798	32
224.062	33.5
225.323	30
226.587	34
227.848	32
229.109	29
230.372	29
231.633	28
232.894	34
234.156	31.5
235.416	30.5
236.678	30
237.937	32
239.197	30
240.457	31
241.717	30
242.976	30.5
244.235	32.5
245.495	30
246.754	30
248.012	28
249.27	33
250.529	31.5
251.787	35
253.045	31.5
254.302	29
255.56	29
256.817	28
258.074	28.5
259.33	27.5
260.586	29.5
261.844	36
263.1	29.5
264.355	33.5
265.611	35
266.866	28.5
268.121	30.5
269.377	32
270.632	32
271.886	30
273.14	22.5
274.394	24.5
275.648	28
276.902	26.5
278.155	27.5
279.408	28
280.663	31.5
281.915	28
283.168	29
284.42	29
285.673	33.5
286.925	27.5
288.176	29.5
289.428	25
290.679	26
291.93	29.5
293.181	27
294.432	28
295.683	30.5
296.933	27
298.183	27
299.433	30
300.683	30
301.932	28.5
303.182	30
304.429	30
305.678	26.5
306.927	29.5
308.176	26
309.424	31.5
310.672	25.5
311.92	32
313.168	26.5
314.415	29
315.661	32
316.908	25
318.155	29
319.402	29
320.648	28
321.895	31
323.139	24
324.385	28
325.631	29.5
326.877	28.5
328.122	31.5
329.366	28.5
330.611	27
331.855	27
333.1	26
334.343	28
335.587	31
336.831	29
338.074	29.5
339.317	26.5
340.56	30
341.803	29.5
343.044	25
344.287	24.5
345.53	30.5
346.771	30
348.013	30
349.255	28.5
350.495	33
351.736	28
352.978	27
354.217	31
355.458	26
356.699	27.5
357.938	29.5
359.178	25.5
360.417	29.5
361.657	30
362.895	31.5
364.135	28
365.374	30.5
366.612	31
367.851	32.5
369.088	30
370.327	27
371.564	28
372.802	27.5
374.038	35.5
375.276	31
376.512	29.5
377.749	25
378.985	28
380.222	31
381.457	29
382.692	30
383.929	31.5
385.164	24.5
386.4	28
387.634	29.5
388.869	27
390.103	27
391.337	32.5
392.572	25.5
393.805	29.5
395.038	26.5
396.273	29.5
397.506	29.5
398.74	27
399.972	27.5
401.204	29.5
402.437	28
403.669	28
404.901	29.5
406.132	27
407.365	29
408.596	28
409.826	30
411.058	27.5
412.289	28
413.519	29.5
414.749	31.5
415.98	30
417.21	26.5
418.439	28.5
419.668	27
420.897	28.5
422.128	31
423.356	29
424.585	28.5
425.813	25.5
427.041	28.5
428.269	26
429.498	27
430.725	26.5
431.952	31
433.179	29.5
434.406	25
435.633	28.5
436.859	27
438.085	28.5
439.312	32.5
440.537	27
441.764	31.5
442.99	28.5
444.215	29
445.44	30
446.665	32.5
447.89	29.5
449.114	32.5
450.339	31
451.563	31
452.787	30.5
454.01	29
455.234	29.5
456.457	31
457.68	27
458.903	29.5
460.126	31.5
461.348	30
462.569	34
463.792	35
465.013	33.5
466.235	30.5
467.457	34
468.678	32.5
469.899	36.5
471.12	36.5
472.341	36
473.56	35
474.781	39.5
476.001	39
477.221	40
478.441	42.5
479.66	47.5
480.878	48
482.098	48
483.317	53.5
484.535	50.5
485.754	53
486.971	53
488.189	56
489.407	63.5
490.625	59.5
491.842	57
493.059	54.5
494.276	54.5
495.493	50
496.709	50.5
497.926	47.5
499.142	45.5
500.357	43
501.573	42.5
502.789	44
504.003	39
505.219	38
506.434	38
507.648	35.5
508.863	36
510.078	39
511.291	37
512.505	36
513.718	33
514.932	34.5
516.145	34
517.358	32.5
518.572	31.5
519.783	28
520.997	35.5
522.208	33
523.421	28
524.632	35.5
525.844	31
527.055	34.5
528.266	35
529.477	27.5
530.688	27.5
531.898	32.5
533.109	33
534.319	34.5
535.53	28.5
536.739	32
537.948	29.5
539.158	32.5
540.366	29.5
541.576	30
542.784	31.5
543.994	30.5
545.201	31.5
546.409	26
547.618	28.5
548.825	28
550.032	31
551.24	29
552.447	32
553.654	31
554.861	27.5
556.067	26
557.273	25
558.48	29
559.686	25
560.891	27
562.096	30.5
563.302	31
564.507	26.5
565.712	29.5
566.916	29
568.122	25.5
569.326	27
570.529	29
571.733	29.5
572.936	27
574.141	30.5
575.344	28
576.547	30
577.75	30
578.952	29
580.154	29.5
581.358	28
582.56	29.5
583.761	28.5
584.963	27.5
586.164	33
587.365	28.5
588.566	27.5
589.767	27
590.967	32
592.168	31
593.369	27
594.569	32
595.769	25.5
596.969	30.5
598.168	30
599.367	25.5
600.566	29.5
601.765	29
602.964	25
604.162	30.5
605.361	29
606.559	27
607.757	25
608.953	25
610.151	27.5
611.348	26
612.545	30.5
613.742	27
614.939	31
616.135	25
617.332	28
618.528	27
619.724	27.5
620.918	27
622.114	28
623.309	30.5
624.505	28.5
625.7	33
626.895	30.5
628.088	30
629.282	28.5
630.477	27
631.671	27.5
632.865	33
634.057	25.5
635.251	26.5
636.444	24
637.637	31.5
638.829	31.5
640.022	30.5
641.214	29.5
642.407	28.5
643.598	32.5
644.79	26.5
645.982	32.5
647.172	34
648.364	27
649.555	30.5
650.745	30
651.936	30
653.126	28
654.315	32.5
655.506	30
656.696	26
657.885	29.5
659.074	32
660.263	32
661.452	28.5
662.64	29.5
663.829	28.5
665.018	32
666.205	33
667.394	29
668.581	33
669.769	29
670.955	32
672.143	29
673.329	30.5
674.517	29.5
675.703	32
676.89	30
678.075	30
679.262	33
680.447	33.5
681.632	30
682.818	36
684.002	38
685.188	38
686.372	34
687.556	34.5
688.741	34.5
689.925	34.5
691.11	33
692.293	33.5
693.476	38
694.66	37.5
695.843	35
697.025	36.5
698.209	35
699.391	32.5
700.573	37.5
701.756	39
702.938	40
704.119	42
705.3	41.5
706.483	43.5
707.664	56
708.844	53
710.025	50
711.206	48
712.386	45.5
713.566	40
714.746	40.5
715.925	36.5
717.106	32.5
718.285	31.5
719.464	34
720.643	31
721.822	33
723	30
724.178	30.5
725.358	30.5
726.536	27
727.713	29.5
728.891	31
730.068	29
731.245	30
732.422	28
733.599	26.5
734.775	26.5
735.952	27.5
737.128	28
738.304	33
739.48	33
740.656	29
741.831	25.5
743.006	27.5
744.181	34
745.356	30.5
746.531	27
747.706	25
748.88	30
750.054	31.5
751.228	32
752.402	29
753.576	22.5
754.749	31
755.922	32.5
757.095	27
758.267	25
759.44	29.5
760.612	25
761.785	31.5
762.957	28.5
764.129	29
765.301	32
766.471	26
767.642	26.5
768.814	28
769.985	27
771.156	33.5
772.325	28
773.495	28
774.666	28.5
775.836	31
777.005	28.5
778.174	30.5
779.344	28
780.513	35
781.681	30
782.85	31
784.019	31
785.187	35
786.355	32.5
787.523	36.5
788.69	32
789.858	28
791.026	29
792.192	35
793.36	35
794.526	33.5
795.693	28
796.86	29.5
798.025	28
799.191	28.5
800.356	31.5
801.523	27.5
802.689	29
803.853	26.5
805.019	30
806.183	28
807.348	31
808.512	27.5
809.677	26
810.84	27.5
812.005	27.5
813.167	30
814.332	32
815.494	31
816.657	30
817.82	26.5
818.982	31
820.146	29.5
821.307	26
822.47	29
823.632	27.5
824.793	25
825.955	29
827.116	25
828.277	27
829.439	30
830.599	30
831.759	31.5
832.92	29.5
834.08	29.5
835.24	31.5
836.4	25.5
837.56	30.5
838.719	29.5
839.877	28
841.037	23
842.196	27
843.354	30
844.512	27
845.672	31
846.83	23
847.987	30
849.145	31
850.302	30.5
851.46	28
852.617	25
853.774	31
854.93	30.5
856.087	31
857.243	30
858.4	29
859.556	28.5
860.712	28
861.867	26.5
863.022	31
864.177	29
865.332	27.5
866.487	28.5
867.642	28.5
868.796	29
869.95	31.5
871.104	31.5
872.258	31.5
873.412	31
874.565	28.5
875.718	27
876.872	29
878.024	31.5
879.177	29
880.33	27
881.482	30
882.635	28
883.787	29.5
884.938	24
886.09	31.5
887.242	22
888.393	29.5
889.544	25.5
890.695	28.5
891.845	27
892.995	26.5
894.146	24
895.296	29
896.446	31
897.596	25.5
898.744	27.5
899.894	30
901.043	29
902.193	31
903.342	28.5
904.489	26.5
905.638	30
906.786	26
907.935	27
909.081	26.5
910.229	26
911.377	26.5
912.525	25.5
913.671	27.5
914.818	22.5
915.965	25
917.111	29
918.258	31
919.404	27.5
920.549	28.5
921.695	27
922.84	25
923.986	27
925.132	26
926.276	26.5
927.421	29.5
928.565	29
929.71	30
930.855	26.5
931.998	26
933.142	28.5
934.285	27.5
935.429	29
936.572	27.5
937.716	26
938.858	27.5
940.001	25
941.143	28
942.286	29.5
943.428	26.5
944.57	27.5
945.712	28
946.854	24
947.995	27
949.135	24
950.277	25
951.418	26.5
952.559	26.5
953.699	25.5
954.839	28
955.98	26.5
957.119	24
958.258	30
959.399	28.5
960.538	24
961.676	25
962.816	29
963.955	26
965.093	26.5
966.232	25.5
967.37	27.5
968.508	25.5
969.645	25.5
970.784	27
971.921	24.5
973.058	28
974.195	26.5
975.333	28
976.469	29
977.605	23.5
978.741	24
979.877	25.5
981.013	25
982.15	26.5
983.285	25.5
984.421	25
985.556	28.5
986.691	26.5
987.825	27.5
988.96	29
990.094	26
991.228	27
992.364	25
993.497	25
994.631	27
995.765	26.5
996.898	24.5
998.031	27.5
999.164	26.5
1000.3	28.5
1001.43	25.5
1002.56	26.5
1003.69	25.5
1004.83	29.5
1005.96	27.5
1007.09	27.5
1008.22	30
1009.35	26
1010.48	26
1011.61	25.5
1012.74	22
1013.88	27.5
1015.01	24.5
1016.14	26
1017.27	25
1018.4	27
1019.53	28.5
1020.65	28.5
1021.78	28.5
1022.91	22
1024.04	22.5
1025.17	27.5
1026.3	28
1027.43	24
1028.56	27.5
1029.68	31.5
1030.81	25.5
1031.94	26
1033.07	25.5
1034.19	27.5
1035.32	23
1036.45	26.5
1037.58	25.5
1038.7	26
1039.83	22
1040.95	26.5
1042.08	27.5
1043.21	26.5
1044.33	26
1045.46	25.5
1046.58	25.5
1047.71	24
1048.83	25.5
1049.96	24.5
1051.08	23
1052.21	26.5
1053.33	25
1054.45	22.5
1055.58	29
1056.7	22
1057.82	26.5
1058.95	28.5
1060.07	27.5
1061.19	27
1062.32	25
1063.44	26
1064.56	30
1065.68	26.5
1066.81	28.5
1067.93	29.5
1069.05	27
1070.17	24.5
1071.29	23
1072.41	30
1073.53	25.5
1074.65	25.5
1075.77	25.5
1076.89	26
1078.01	24.5
1079.13	25.5
1080.25	29
1081.37	26
1082.49	27.5
1083.61	26
1084.73	27
1085.85	29.5
1086.97	25
1088.09	26.5
1089.2	27
1090.32	27
1091.44	24
1092.56	25.5
1093.68	24.5
1094.79	30.5
1095.91	27.5
1097.03	27
1098.14	25
1099.26	27
1100.38	23
1101.49	25
1102.61	28
1103.73	27.5
1104.84	26
1105.96	26
1107.07	23
1108.19	23
1109.3	26.5
1110.42	22.5
1111.53	28
1112.65	24.5
1113.76	26.5
1114.88	24.5
1115.99	30.5
1117.1	25.5
1118.22	23
1119.33	25
1120.44	28
1121.56	26
1122.67	24
1123.78	24
1124.89	24
1126.01	25.5
1127.12	26.5
1128.23	25.5
1129.34	26.5
1130.45	25.5
1131.56	29
1132.67	26
1133.79	25
1134.9	26
1136.01	26
1137.12	27.5
1138.23	28.5
1139.34	26
1140.45	24
1141.56	24
1142.67	24
1143.78	27
1144.89	25.5
1145.99	29
1147.1	28.5
1148.21	26
1149.32	26
1150.43	26
1151.54	26
1152.65	25.5
1153.75	22
1154.86	28
1155.97	29
1157.08	22.5
1158.18	24
1159.29	23
1160.4	22
1161.5	29
1162.61	21.5
1163.72	25.5
1164.82	29
1165.93	26
1167.03	24.5
1168.14	27.5
1169.24	28
1170.35	24
1171.45	25
1172.56	27
1173.66	26
1174.77	26.5
1175.87	24
1176.98	26.5
1178.08	25.5
1179.18	19
1180.29	28
1181.39	27
1182.49	29
1183.6	23
1184.7	27.5
1185.8	24.5
1186.9	24.5
1188	23.5
1189.11	22.5
1190.21	25
1191.31	24
1192.41	26.5
1193.51	27
1194.61	26.4872
1195.72	28.4281
1196.82	27.018
1197.92	24.6581
1199.02	27.4515
1200.12	25.0239
1201.22	24.0695
1202.32	26.9272
1203.42	25.0371
1204.52	23.2089
1205.62	24.0378
1206.71	25.8089
1207.81	24.6257
1208.91	25.1487
1210.01	24.505
1211.11	24.8894
1212.21	26.8495
1213.31	22.7358
1214.4	25.4652
1215.5	24.7087
1216.6	26.5219
1217.7	26.9843
1218.79	26.7626
1219.89	27.5284
1220.99	26.5175
1222.08	23.0105
1223.18	25.5108
1224.28	23.4008
1225.37	25.8607
1226.47	25.642
1227.56	24.2743
1228.66	25.0796
1229.76	27.1584
1230.85	23.5702
1231.95	22.6337
1233.04	20.5785
1234.14	22.3919
1235.23	24.6188
1236.32	25.4429
1237.42	25.2197
1238.51	24.3165
1239.61	25.9889
1240.7	24.5426
1241.79	24.1773
1242.89	27.7566
1243.98	23.0367
1245.07	24.6625
1246.17	24.6708
1247.26	25.5885
1248.35	24.9864
1249.44	23.7794
1250.53	26.25
1251.63	25.9388
1252.72	27.643
1253.81	22.6073
1254.9	28.3098
1255.99	23.1793
1257.08	24.9797
1258.17	27.1468
1259.27	25.8678
1260.36	30.4772
1261.45	26.3904
1262.54	26.8635
1263.63	25.3249
1264.72	22.0247
1265.81	27.8679
1266.89	26.2913
1267.98	24.5403
1269.07	27.1373
1270.16	25.4067
1271.25	27.4513
1272.34	22.8945
1273.43	23.735
1274.52	24.6732
1275.6	27.3177
1276.69	25.3466
1277.78	23.1171
1278.87	22.086
1279.95	21.8847
1281.04	26.6314
1282.13	27.3014
1283.22	24.2451
1284.3	24.2783
1285.39	27.3448
1286.48	23.0805
1287.56	22.4477
1288.65	25.359
1289.73	24.4966
1290.82	27.8124
1291.9	26.048
1292.99	25.6096
1294.07	24.6089
1295.16	25.3821
1296.24	24.014
1297.33	23.2476
1298.41	23.6203
1299.5	22.289
1300.58	21.8204
1301.66	23.9939
1302.75	25.593
1303.83	22.5204
1304.91	22.4019
1306	23.7987
1306.4	24
1307.48	25
1308.57	24
1309.66	27.5
1310.75	26.5
1311.84	24.5
1312.92	23.5
1314.01	28
1315.1	22.5
1316.18	24
1317.27	24
1318.36	28.5
1319.44	24
1320.53	26.5
1321.62	26.5
1322.7	25.5
1323.79	26.5
1324.87	24.5
1325.96	26.5
1327.04	23.5
1328.13	22.5
1329.21	23
1330.3	23
1331.38	23.5
1332.47	26
1333.55	23
1334.64	25.5
1335.72	26.5
1336.8	26
1337.89	24
1338.97	29
1340.05	18
1341.14	27.5
1342.22	21.5
1343.3	21
1344.38	25
1345.47	27.5
1346.55	26
1347.63	25
1348.71	23
1349.79	23
1350.87	20
1351.96	26.5
1353.04	23.5
1354.12	25.5
1355.2	28.5
1356.28	23
1357.36	29
1358.44	24.5
1359.52	23.5
1360.6	23.5
1361.68	27
1362.76	22.5
1363.84	26
1364.92	23.5
1366	26
1367.07	22.5
1368.15	25.5
1369.23	25
1370.31	25.5
1371.39	23.5
1372.47	23.5
1373.54	27.5
1374.62	24
1375.7	27.5
1376.78	28.5
1377.85	25
1378.93	28
1380.01	20
1381.08	26
1382.16	25
1383.24	26.5
1384.31	23
1385.39	28
1386.46	22
1387.54	29
1388.61	27
1389.69	24.5
1390.76	24.5
1391.84	22.5
1392.91	26
1393.99	29
1395.06	31.5
1396.14	26
1397.21	27
1398.29	27
1399.36	29.5
1400.43	26
1401.51	28
1402.58	29
1403.65	29.5
1404.72	32.5
1405.8	34.5
1406.87	31
1407.94	26.5
1409.02	31.5
1410.09	30
1411.16	32
1412.23	33
1413.3	31
1414.37	33.5
1415.44	31
1416.51	29
1417.59	31
1418.66	30
1419.73	30
1420.8	29
1421.87	28.5
1422.94	32
1424.01	24
1425.08	29
1426.15	30
1427.22	30
1428.28	24.5
1429.35	25
1430.42	30
1431.49	24
1432.56	26.5
1433.63	30
1434.7	28
1435.76	28.5
1436.83	24
1437.9	25.5
1438.97	29
1440.03	26.5
1441.1	28
1442.17	27
1443.23	26
1444.3	28
1445.37	25
1446.43	29.5
1447.5	27
1448.57	27
1449.63	27
1450.7	28
1451.76	23
1452.83	28
1453.89	27.5
1454.96	21
1456.02	26
1457.09	26
1458.15	28.5
1459.22	28
1460.28	30
1461.34	28.5
1462.41	25.5
1463.47	25
1464.53	27
1465.6	24.5
1466.66	27
1467.72	25.5
1468.78	23
1469.85	26
1470.91	24
1471.97	27
1473.03	25.5
1474.1	23.5
1475.16	23
1476.22	22.5
1477.28	26
1478.34	27
1479.4	26.5
1480.46	25
1481.52	26.5
1482.58	26.5
1483.65	25
1484.71	25
1485.77	28
1486.82	25
1487.89	27
1488.94	29.5
1490	28
1491.06	27
1492.12	25
1493.18	26
1494.24	26
1495.3	28.5
1496.36	27
1497.41	19
1498.47	28.5
1499.53	27.5
1500.59	27.5
1501.65	27.5
1502.7	25.5
1503.76	23
1504.82	28
1505.87	29
1506.93	26
1507.99	27
1509.04	25.5
1510.1	24.5
1511.16	25.5
1512.21	26.5
1513.27	26
1514.32	26
1515.38	27.5
1516.43	28
1517.49	24
1518.54	26
1519.6	24
1520.65	30
1521.71	25
1522.76	28
1523.81	27.5
1524.87	26
1525.92	28
1526.98	28.5
1528.03	29
1529.08	25.5
1530.14	26.5
1531.19	24
1532.24	25
1533.29	29
1534.35	31.5
1535.4	23.5
1536.45	26.5
1537.5	24
1538.55	25.5
1539.61	25.5
1540.66	26
1541.71	23
1542.76	26
1543.81	27
1544.86	27.5
1545.91	25
1546.96	27.5
1548.01	23
1549.06	28
1550.11	26
1551.16	26
1552.21	25.5
1553.26	29.5
1554.31	23.5
1555.36	29
1556.41	29.5
1557.46	24
1558.5	26.5
1559.55	25.5
1560.6	28
1561.65	29
1562.7	24
1563.74	22
1564.79	31
1565.84	28.5
1566.89	27.5
1567.93	27
1568.98	23.5
1570.03	29
1571.07	25.5
1572.12	32
1573.17	29
1574.21	23
1575.26	23
1576.3	24.5
1577.35	24.5
1578.4	22
1579.44	26
1580.49	27.5
1581.53	24
1582.58	26
1583.62	28.5
1584.66	21.5
1585.71	31
1586.75	23
1587.8	26
1588.84	24
1589.88	26
1590.93	26
1591.97	29.5
1593.01	25
1594.06	22
1595.1	23
1596.14	22.5
1597.18	27
1598.23	29.5
1599.27	26
1600.31	24.5
1601.35	26
1602.39	29.5
1603.44	27
1604.48	24
1605.52	27.5
1606.56	23
1607.6	28
1608.64	25
1609.68	28
1610.72	28
1611.76	24
1612.8	28
1613.84	22.5
1614.88	26
1615.92	23
1616.96	24.5
1618	28
1619.04	24.5
1620.08	26.5
1621.12	24.5
1622.16	24.5
1623.19	29.5
1624.23	26.5
1625.27	26
1626.31	26
1627.35	24
1628.38	26
1629.42	25
1630.46	27
1631.49	21
1632.53	24.5
1633.57	25.5
1634.6	24
1635.64	25.5
1636.68	28.5
1637.71	26
1638.75	24
1639.79	25
1640.82	25.5
1641.86	27
1642.89	23
1643.93	23
1644.96	24.5
1646	26.5
1647.03	27.5
1648.07	26
1649.1	22
1650.13	23.5
1651.17	28
1652.2	28
1653.24	28.5
1654.27	27
1655.3	31.5
1656.34	27
1657.37	26
1658.4	26
1659.43	27
1660.47	23.5
1661.5	24
1662.53	26.5
1663.56	25.5
1664.6	26.5
1665.63	28
1666.66	28
1667.69	22.5
1668.72	25
1669.75	24
1670.78	30
1671.81	20
1672.85	26
1673.88	26.5
1674.91	26
1675.94	25.5
1676.97	25
1678	25
1679.03	27
1680.06	27.5
1681.09	21.5
1682.11	29.5
1683.14	24.5
1684.17	28.5
1685.2	23
1686.23	24.5
1687.26	26.5
1688.29	26
1689.31	22
1690.34	24.5
1691.37	23.5
1692.4	25.5
1693.42	28
1694.45	28
1695.48	26
1696.51	25.5
1697.53	24.5
1698.56	23.5
1699.59	26
1700.61	27
1701.64	26.5
1702.66	23
1703.69	26
1704.72	27.5
1705.74	25
1706.77	26
1707.79	25
1708.82	26
1709.84	24
1710.87	23.5
1711.89	25.5
1712.91	27
1713.94	28
1714.96	28
1715.99	26.5
1717.01	25
1718.03	25.5
1719.06	25.5
1720.08	26
1721.1	26
1722.13	23.5
1723.15	24
1724.17	31
1725.19	29
1726.22	26
1727.24	27
1728.26	22
1729.28	26
1730.3	27
1731.33	26
1732.35	21.5
1733.37	23
1734.39	23.5
1735.41	26
1736.43	28
1737.45	26.5
1738.47	26.5
1739.49	23.5
1740.51	23
1741.53	27
1742.55	27
1743.57	25
1744.59	27.5
1745.61	26.5
1746.63	22.5
1747.65	28
1748.67	28
1749.69	22.5
1750.7	27.5
1751.72	26.5
1752.74	26.5
1753.76	26.5
1754.78	26
1755.79	27.5
1756.81	24.5
1757.83	29
1758.85	23
1759.86	21
1760.88	27
1761.9	23.5
1762.91	24.5
1763.93	26
1764.95	23
1765.96	27
1766.98	27.5
1767.99	26
1769.01	23
1770.02	26
1771.04	23.5
1772.06	22.5
1773.07	30
1774.09	25.5
1775.1	24
1776.11	26
1777.13	22
1778.14	24.5
1779.16	26.5
1780.17	26.5
1781.18	24.5
1782.2	26.5
1783.21	19.5
1784.22	27.5
1785.24	25
1786.25	27
1787.26	22.5
1788.28	25
1789.29	26
1790.3	25
1791.31	27
1792.33	28.5
1793.34	27.5
1794.35	27
1795.36	27
1796.37	24.5
1797.38	26
1798.39	22.5
1799.4	25
1800.42	22.5
1801.43	31.5
1802.44	27
1803.45	25
1804.46	25
1805.47	21.5
1806.48	25.5
1807.49	25.5
1808.5	27.5
1809.51	27
1810.51	24
1811.52	24.5
1812.53	28
1813.54	27.5
1814.55	25
1815.56	24.5
1816.57	27.5
1817.57	24
1818.58	22
1819.59	24.5
1820.6	23.5
1821.61	23
1822.61	22.5
1823.62	22.5
1824.63	26
1825.63	24
1826.64	24
1827.65	27
1828.65	28
1829.66	21.5
1830.67	25
1831.67	25
1832.68	24
1833.68	26
1834.69	22
1835.69	23.5
1836.7	25
1837.7	23.5
1838.71	25
1839.71	27.5
1840.72	25
1841.72	22
1842.73	25
1843.73	22.5
1844.73	24.5
1845.74	29
1846.74	29.5
1847.74	22
1848.75	24.5
1849.75	24
1850.75	27
1851.76	24.5
1852.76	24.5
1853.76	26
1854.76	29
1855.77	26.5
1856.77	24
1857.77	25.5
1858.77	26
1859.77	24
1860.77	24
1861.78	30.5
1862.78	23
1863.78	28.5
1864.78	26
1865.78	26
1866.78	23.5
1867.78	24
1868.78	22
1869.78	24
1870.78	25
1871.78	23
1872.78	25
1873.78	27
1874.78	24
1875.78	24.5
1876.78	24.5
1877.78	18
1878.77	25.5
1879.77	25.5
1880.77	21.5
1881.77	24.5
1882.77	26.5
1883.77	26
1884.76	23
1885.76	30
1886.76	27
1887.75	23
1888.75	27
1889.75	26
1890.75	26.5
1891.74	22
1892.74	28.5
1893.73	23.5
1894.73	24
1895.73	25.5
1896.72	23
1897.72	24.5
1898.71	23.5
1899.71	25
1900.7	27
1901.7	24.5
1902.69	23
1903.69	26
1904.68	24
1905.68	23
1906.67	25.5
1907.67	21.5
1908.66	28
1909.65	24.5
1910.65	22.5
1911.64	27
1912.63	26
1913.63	24
1914.62	26
1915.61	24.5
1916.61	28.5
1917.6	26
1918.59	25
1919.58	21
1920.58	24
1921.57	27
1922.56	23
1923.55	24
1924.54	23
1925.54	22.5
1926.53	24
1927.52	23.5
1928.51	24.5
1929.5	24
1930.49	27.5
1931.48	24
1932.47	28
1933.46	24.5
1934.45	22
1935.44	27
1936.43	24
1937.42	30
1938.41	22
1939.4	26
1940.39	27
1941.38	25
1942.37	21.5
1943.35	24
1944.34	21
1945.33	24
1946.32	27.5
1947.31	23.5
1948.3	26
1949.28	28.5
1950.27	26
1951.26	25
1952.25	26.5
1953.23	25
1954.22	26.5
1955.21	27.5
1956.19	23
1957.18	21.5
1958.17	24.5
1959.15	22
1960.14	22.5
1961.12	25.5
1962.11	23
1963.1	20
1964.08	23.5
1965.07	23
1966.05	25
1967.04	24.5
1968.02	21
1969.01	24.5
1969.99	22
1970.98	26.5
1971.96	25
1972.94	24
1973.93	25
1974.91	24.5
1975.9	23.5
1976.88	22
1977.86	23
1978.85	25.5
1979.83	21.5
1980.81	26
1981.79	25
1982.78	21.5
1983.76	26
1984.74	25.5
1985.72	21
1986.71	22
1987.69	28
1988.67	24
1989.65	25.5
1990.63	26
1991.61	26.5
1992.59	22
1993.57	25
1994.56	23.5
1995.54	26
1996.52	24.5
1997.5	23.5
1998.48	29
1999.46	26.5
2000.44	26.5
2001.42	23
2002.4	26
2003.38	23
2004.36	19
2005.33	29
2006.31	27.5
2007.29	24
2008.27	25
2009.25	21.5
2010.23	24
2011.21	21
2012.18	24
2013.16	24.5
2014.14	25
2015.12	25.5
2016.09	17
2017.07	29.5
2018.05	26.5
2019.03	23
2020	21.5
2020.98	22
2021.96	26
2022.93	24
2023.91	26.5
2024.89	25.5
2025.86	24
2026.84	23
2027.81	27.5
2028.79	24
2029.76	24
2030.74	22
2031.71	26
2032.69	22.5
2033.66	25.5
2034.64	31
2035.61	22.5
2036.59	21.5
2037.56	25
2038.54	26
2039.51	23
2040.48	23.5
2041.46	21
2042.43	22.5
2043.4	22.5
2044.38	26.5
2045.35	25
2046.32	22
2047.29	22
2048.27	27.5
2049.24	20
2050.21	24
2051.18	22.5
2052.16	25.5
2053.13	24.5
2054.1	25.5
2055.07	25
2056.04	20.5
2057.01	25.5
2057.98	23
2058.96	25.5
2059.93	24
2060.9	24
2061.87	24
2062.84	24
2063.81	25.5
2064.78	23
2065.75	24.5
2066.72	25.5
2067.69	26
2068.66	24
2069.63	27
2070.6	26
2071.56	25.5
2072.53	23
2073.5	26.5
2074.47	25
2075.44	19
2076.41	27
2077.38	24.5
2078.34	22
2079.31	23.5
2080.28	27
2081.25	22
2082.21	26
2083.18	22
2084.15	23
2085.11	25
2086.08	22.5
2087.05	23
2088.01	23.5
2088.98	20.5
2089.95	22.5
2090.91	24
2091.88	23
2092.84	22
2093.81	25
2094.78	25
2095.74	22
2096.71	20.5
2097.67	26
2098.64	24
2099.6	19.5
2100.57	23
2101.53	22.5
2102.49	24
2103.46	26.5
2104.42	22.5
2105.39	27
2106.35	26
2107.31	26
2108.28	21.5
2109.24	24
2110.2	23
2111.17	25
2112.13	22
2113.09	22.5
2114.05	21.5
2115.02	22.5
2115.98	29.5
2116.94	25.5
2117.9	21.5
2118.86	23
2119.83	24
2120.79	29
2121.75	27.5
2122.71	25
2123.67	26.5
2124.63	23
2125.59	21.5
2126.55	25.5
2127.51	26.5
2128.47	20
2129.43	25
2130.39	25
2131.35	24
2132.31	23
2133.27	23.5
2134.23	26
2135.19	26
2136.15	25
2137.11	22
2138.07	23
2139.03	24
2139.99	26
2140.94	21.5
2141.9	20
2142.86	23.0044
2143.82	26.4472
2144.78	18.715
2145.73	25.3949
2146.69	23.9324
2147.65	19.3077
2148.61	25.9676
2149.56	25.7876
2150.52	23.9322
2151.48	20.1312
2152.43	25.5056
2153.39	20.2558
2154.35	24.8786
2155.3	25.7111
2156.26	23.3408
2157.21	25.3983
2158.17	21.6242
2159.13	23.8598
2160.08	24.6103
2161.04	23.3736
2161.99	22.973
2162.95	24.3057
2163.9	23.4569
2164.86	25.9175
2165.81	23.7708
2166.77	20.95
2167.72	22.2539
2168.67	24.9226
2169.63	23.1699
2170.58	22.086
2171.54	22.7407
2172.49	23.3968
2173.44	23.0674
2174.4	24.0837
2175.35	20.6873
2176.3	22.7023
2177.26	26.1273
2178.21	22.067
2179.16	24.3078
2180.11	23.7276
2181.07	21.0184
2182.02	22.0923
2182.97	20.848
2183.92	21.4782
2184.87	23.1497
2185.82	24.5121
2186.78	22.4407
2187.73	23.78
2188.68	21.6576
2189.63	21.9196
2190.58	23.1786
2191.53	23.2926
2192.48	22.2868
2193.43	21.7734
2194.38	24.1509
2195.33	22.1473
2196.28	22.5547
2197.23	21.5208
2198.18	24.7345
2199.13	22.867
2200.08	22.6425
2201.03	23.6612
2201.98	23.6961
2202.93	23.3725
2203.88	23
2204.83	23.1906
2205.77	24.2049
2206.72	25.1723
2207.67	23.7611
2208.62	21.6271
2209.57	21.5013
2210.52	21.8889
2211.46	23.5025
2212.41	23.3352
2213.36	22.0726
2214.31	23.8022
2215.25	23.4696
2216.2	20.4676
2217.15	23.4321
2218.09	23.5849
2219.04	22.5407
2219.99	22.835
2220.93	23.0104
2221.88	21.8687
2222.82	23.1748
2223.77	24.6373
2224.72	24.1187
2225.66	24.9444
2226.61	21.9536
2227.55	23.4291
2228.5	21.9834
2229.44	23.52
2230.39	26.0724
2231.33	24.3627
2232.28	21.8426
2233.22	22.9145
2234.16	22.1048
2235.11	23.1425
2236.05	22.6841
2237	22.6379
2237.94	23.9855
2238.88	24.7933
2239.83	24.9927
2240.13	25
2241.08	25.5
2242.03	24.5
2242.98	25
2243.92	22.5
2244.87	20
2245.82	21.5
2246.76	22.5
2247.71	20.5
2248.66	25.5
2249.61	22.5
2250.55	21
2251.5	24
2252.45	25
2253.39	23
2254.34	26
2255.28	26
2256.23	22.5
2257.18	22.5
2258.12	25
2259.07	22.5
2260.01	22
2260.96	23
2261.9	22
2262.85	23.5
2263.79	22
2264.74	24.5
2265.68	25.5
2266.63	20.5
2267.57	24
2268.51	22.5
2269.46	21.5
2270.4	24.5
2271.35	28
2272.29	26
2273.23	22.5
2274.18	20
2275.12	23
2276.06	29
2277	27
2277.95	23
2278.89	26
2279.83	23
2280.78	25.5
2281.72	28
2282.66	23.5
2283.6	26
2284.54	22.5
2285.48	27.5
2286.43	22.5
2287.37	21.5
2288.31	26.5
2289.25	23.5
2290.19	23.5
2291.13	23
2292.07	25
2293.01	23.5
2293.95	24.5
2294.89	23.5
2295.83	23
2296.77	20
2297.71	25
2298.65	19.5
2299.59	22
2300.53	23
2301.47	26
2302.41	23.5
2303.35	24.5
2304.29	24
2305.22	22.5
2306.16	25.5
2307.1	26.5
2308.04	26.5
2308.98	23
2309.91	26
2310.85	26
2311.79	22
2312.73	24
2313.66	27.5
2314.6	24
2315.54	22
2316.48	23.5
2317.41	22
2318.35	23
2319.29	23.5
2320.22	20
2321.16	27.5
2322.09	23.5
2323.03	22.5
2323.97	25.5
2324.9	22.5
2325.84	24.5
2326.77	20
2327.71	22.5
2328.64	25
2329.58	21
2330.51	24.5
2331.45	23
2332.38	22
2333.32	25
2334.25	30.5
2335.18	22.5
2336.12	24.5
2337.05	25.5
2337.99	21
2338.92	23
2339.85	25
2340.79	22
2341.72	24
2342.65	23
2343.59	24
2344.52	24.5
2345.45	23.5
2346.38	23.5
2347.32	25
2348.25	24
2349.18	27
2350.11	25.5
2351.04	22
2351.98	22.5
2352.91	21
2353.84	25.5
2354.77	23.5
2355.7	23.5
2356.63	23
2357.56	23
2358.49	25
2359.42	25.5
2360.35	25
2361.28	25.5
2362.21	22.5
2363.14	24
2364.07	24
2365	25.5
2365.93	23
2366.86	27
2367.79	22.5
2368.72	22
2369.65	26
2370.58	26
2371.51	24
2372.44	24
2373.36	24.5
2374.29	24
2375.22	23
2376.15	26
2377.08	22
2378	19.5
2378.93	25
2379.86	24.5
2380.79	21
2381.71	21.5
2382.64	24
2383.57	23
2384.49	25
2385.42	25.5
2386.35	24.5
2387.27	21
2388.2	20
2389.13	22
2390.05	26
2390.98	27
2391.9	25.5
2392.83	23.5
2393.76	20
2394.68	24.5
2395.61	27
2396.53	26.5
2397.46	22.5
2398.38	24.5
2399.3	24.5
2400.23	23.5
2401.15	23.5
2402.08	23.5
2403	24.5
2403.93	23
2404.85	20
2405.77	25.5
2406.7	22.5
2407.62	27
2408.54	24
2409.47	25.5
2410.39	26
2411.31	24
2412.24	24.5
2413.16	24
2414.08	20.5
2415	24
2415.92	25.5
2416.85	27.5
2417.77	23
2418.69	25
2419.61	21
2420.53	27
2421.45	27
2422.38	28.5
2423.3	26.5
2424.22	22
2425.14	21.5
2426.06	24
2426.98	27
2427.9	27
2428.82	23.5
2429.74	25
2430.66	23.5
2431.58	26
2432.5	24.5
2433.42	21
2434.34	26
2435.26	22.5
2436.18	30
2437.1	24.5
2438.01	28.5
2438.93	23.5
2439.85	26
2440.77	25
2441.69	27.5
2442.61	22.5
2443.52	27.5
2444.44	26
2445.36	22
2446.28	25.5
2447.2	25.5
2448.11	22
2449.03	27
2449.95	27
2450.86	25
2451.78	24.5
2452.7	28.5
2453.61	20
2454.53	23.5
2455.45	23.5
2456.36	24.5
2457.28	24
2458.2	24.5
2459.11	21
2460.03	23
2460.94	22
2461.86	25
2462.77	27.5
2463.69	27
2464.6	23
2465.52	27
2466.43	25
2467.35	25
2468.26	28
2469.18	23
2470.09	26.5
2471	23
2471.92	27
2472.83	27.5
2473.74	25
2474.66	25
2475.57	26.5
2476.48	26
2477.4	28
2478.31	24.5
2479.22	24
2480.14	23
2481.05	27
2481.96	22
2482.87	25.5
2483.79	25
2484.7	23
2485.61	23
2486.52	22
2487.43	23.5
2488.34	25
2489.25	22.5
2490.17	24
2491.08	24
2491.99	28
2492.9	24
2493.81	21
2494.72	22
2495.63	26.5
2496.54	23
2497.45	27.5
2498.36	23.5
2499.27	26
2500.18	24
2501.09	26.5
2502	26
2502.91	29.5
2503.82	25.5
2504.73	24
2505.63	27.5
2506.54	22.5
2507.45	22.5
2508.36	22
2509.27	23.5
2510.18	26.5
2511.09	23.5
2511.99	26.5
2512.9	26.5
2513.81	24
2514.72	26
2515.62	23.5
2516.53	23
2517.44	27.5
2518.34	25.5
2519.25	23.5
2520.16	23.5
2521.06	24
2521.97	22
2522.88	24
2523.78	29.5
2524.69	25.5
2525.6	24.5
2526.5	23
2527.41	23
2528.31	25
2529.22	25.5
2530.12	26.5
2531.03	23.5
2531.93	24
2532.84	23
2533.74	25
2534.65	25.5
2535.55	29
2536.46	24
2537.36	23
2538.27	24
2539.17	25.5
2540.07	23.5
2540.98	22
2541.88	21
2542.78	22
2543.69	19
2544.59	23.5
2545.49	24.5
2546.4	24
2547.3	26.5
2548.2	22
2549.1	29
2550.01	27.5
2550.91	24
2551.81	26.5
2552.71	23.5
2553.61	25
2554.52	28
2555.42	27.5
2556.32	22.5
2557.22	25
2558.12	26
2559.02	26
2559.92	26
2560.82	25.5
2561.72	22
2562.62	29.5
2563.53	28.5
2564.43	23.5
2565.33	23.5
2566.23	24.5
2567.13	24
2568.03	27
2568.92	23
2569.82	25.5
2570.72	24.5
2571.62	26
2572.52	24
2573.42	26.5
2574.32	25.5
2575.22	20
2576.12	24
2577.02	23
2577.91	23
2578.81	24.5
2579.71	24
2580.61	20
2581.5	25
2582.4	26
2583.3	25
2584.2	23.5
2585.09	22
2585.99	23.5
2586.89	25
2587.78	24.5
2588.68	24.5
2589.58	23.5
2590.47	25
2591.37	25.5
2592.27	26
2593.16	28
2594.06	25
2594.95	26
2595.85	26.5
2596.75	24
2597.64	29.5
2598.54	24.5
2599.43	28.5
2600.33	25
2601.22	27
2602.12	24
2603.01	23.5
2603.9	23
2604.8	23
2605.69	28
2606.59	26.5
2607.48	26
2608.37	28.5
2609.27	27.5
2610.16	25
2611.05	27.5
2611.95	25.5
2612.84	27.5
2613.73	28
2614.63	26
2615.52	23.5
2616.41	27
2617.3	26.5
2618.2	23.5
2619.09	26
2619.98	27
2620.87	23
2621.76	25.5
2622.66	24
2623.55	28
2624.44	27.5
2625.33	21.5
2626.22	22.5
2627.11	26
2628	27.5
2628.9	24
2629.79	22
2630.68	21
2631.57	31
2632.46	22.5
2633.35	27
2634.24	24
2635.13	25
2636.02	25
2636.91	22
2637.8	23.5
2638.68	22.5
2639.57	21
2640.46	26.5
2641.35	24
2642.24	27.5
2643.13	23
2644.02	25.5
2644.91	23
2645.79	27
2646.68	21
2647.57	24
2648.46	28
2649.35	25.5
2650.23	22
2651.12	21.5
2652.01	26
2652.9	22
2653.78	25.5
2654.67	26
2655.56	23.5
2656.44	25
2657.33	27
2658.22	23.5
2659.1	23.5
2659.99	24
2660.88	22
2661.76	28
2662.65	26.5
2663.53	24
2664.42	25
2665.3	23
2666.19	22.5
2667.07	24
2667.96	24
2668.84	27.5
2669.73	26.5
2670.61	24
2671.5	24
2672.38	23
2673.27	22.5
2674.15	22
2675.04	27
2675.92	25.5
2676.8	23
2677.69	24
2678.57	28
2679.45	25.5
2680.34	25
2681.22	29.5
2682.1	21.5
2682.99	29
2683.87	23
2684.75	27.5
2685.63	24
2686.52	27.5
2687.4	20.5
2688.28	27.5
2689.16	26.5
2690.04	24
2690.93	24.5
2691.81	26.5
2692.69	25.5
2693.57	27
2694.45	25.5
2695.33	21.5
2696.21	27.5
2697.09	22.5
2697.97	23.5
2698.85	22.5
2699.74	22.5
2700.62	23
2701.5	24
2702.38	23
2703.26	21
2704.14	21
2705.02	25.5
2705.89	24
2706.77	27
2707.65	23
2708.53	25.5
2709.41	24.5
2710.29	28
2711.17	25
2712.05	26.5
2712.93	23
2713.8	25
2714.68	25
2715.56	21.5
2716.44	23
2717.32	28
2718.19	23
2719.07	27.5
2719.95	25
2720.83	24
2721.7	23.5
2722.58	24.5
2723.46	23
2724.33	22
2725.21	26
2726.09	22
2726.97	25.5
2727.84	26.5
2728.72	25.5
2729.59	22
2730.47	26.5
2731.35	22.5
2732.22	24
2733.1	26
2733.97	25.5
2734.85	22.5
2735.72	22
2736.6	23.5
2737.47	24.5
2738.35	27.5
2739.22	23
2740.1	25
2740.97	27.5
2741.84	25
2742.72	26
2743.59	28
2744.47	25
2745.34	26
2746.21	26.5
2747.09	25
2747.96	26
2748.83	26
2749.71	27
2750.58	27
2751.45	23.5
2752.33	24
2753.2	25
2754.07	25
2754.94	26
2755.82	23
2756.69	27.5
2757.56	26
2758.43	23.5
2759.3	25
2760.18	26
2761.05	25.5
2761.92	21.5
2762.79	24
2763.66	22
2764.53	24
2765.4	25
2766.27	24.5
2767.14	27
2768.01	27.5
2768.88	25
2769.75	24.5
2770.62	21.5
2771.49	27
2772.36	23.5
2773.23	23
2774.1	23
2774.97	26.5
2775.84	25
2776.71	27
2777.58	22.5
2778.45	28.5
2779.32	28.5
2780.19	20.5
2781.06	25
2781.92	25.5
2782.79	24
2783.66	22
2784.53	24
2785.4	26
2786.26	24.5
2787.13	22
2788	20.5
2788.87	30
2789.73	28.5
2790.6	26
2791.47	24
2792.34	28.5
2793.2	24.5
2794.07	25.5
2794.94	27.5
2795.8	30
2796.67	25
2797.53	27.5
2798.4	28
2799.27	26.5
2800.13	23
2801	24.5
2801.86	26
2802.73	28
2803.59	22.5
2804.46	27
2805.32	24.5
2806.19	31.5
2807.05	24
2807.92	27.5
2808.78	27.5
2809.65	27
2810.51	26
2811.38	24.5
2812.24	29
2813.1	26
2813.97	27.5
2814.83	22
2815.7	30
2816.56	25.5
2817.42	26
2818.29	25.5
2819.15	26
2820.01	23
2820.87	26.5
2821.74	23
2822.6	25
2823.46	25.5
2824.32	28
2825.19	29
2826.05	26.5
2826.91	25
2827.77	22.5
2828.63	23
2829.5	24
2830.36	26.5
2831.22	22
2832.08	27
2832.94	23
2833.8	26
2834.66	23.5
2835.52	25
2836.38	28
2837.24	24.5
2838.1	26.5
2838.96	25
2839.82	23
2840.68	27
2841.54	28.5
2842.4	26
2843.26	31.5
2844.12	27.5
2844.98	25
2845.84	28
2846.7	25.5
2847.56	25
2848.42	21.5
2849.28	29.5
2850.14	24
2850.99	26.5
2851.85	26
2852.71	26.5
2853.57	24.5
2854.43	25
2855.28	22.5
2856.14	27
2857	25.5
2857.86	28.5
2858.71	24
2859.57	21.5
2860.43	24.5
2861.28	27
2862.14	24.5
2863	25
2863.86	26.5
2864.71	24
2865.57	30
2866.42	24.5
2867.28	27
2868.14	23
2868.99	29
2869.85	26
2870.7	27.5
2871.56	28.5
2872.41	30
2873.27	29
2874.13	27
2874.98	31
2875.83	24.5
2876.69	27
2877.54	30
2878.4	32
2879.25	32
2880.11	29.5
2880.96	29
2881.81	33.5
2882.67	33
2883.52	32.5
2884.38	31.5
2885.23	36.5
2886.08	34
2886.94	32
2887.79	39.5
2888.64	37.5
2889.5	38.5
2890.35	39.5
2891.2	41
2892.05	38.5
2892.91	38.5
2893.76	41
2894.61	46
2895.46	47
2896.31	50.5
2897.17	51
2898.02	47.5
2898.87	57
2899.72	51.5
2900.57	59
2901.42	60
2902.27	59.5
2903.12	65.5
2903.98	67.5
2904.83	65.5
2905.68	68.5
2906.53	67
2907.38	67.5
2908.23	65
2909.08	64
2909.93	63
2910.78	60
2911.63	60.5
2912.48	55.5
2913.33	55
2914.18	49.5
2915.02	52
2915.87	42
2916.72	40.5
2917.57	42.5
2918.42	35.5
2919.27	38
2920.12	39.5
2920.97	34.5
2921.81	38
2922.66	35
2923.51	34
2924.36	32
2925.21	28.5
2926.05	33
2926.9	27
2927.75	25
2928.59	30.5
2929.44	29.5
2930.29	31.5
2931.14	32
2931.98	27
2932.83	29
2933.68	27
2934.52	28.5
2935.37	30.5
2936.21	28
2937.06	28
2937.91	28.5
2938.75	25.5
2939.6	27
2940.44	29
2941.29	23
2942.14	29
2942.98	26.5
2943.82	28
2944.67	27
2945.51	27.5
2946.36	29
2947.2	27
2948.05	31.5
2948.89	33
2949.74	26
2950.58	30.5
2951.43	32
2952.27	30.5
2953.11	28
2953.96	30.5
2954.8	35.5
2955.64	32
2956.49	31.5
2957.33	34.5
2958.17	33
2959.02	34.5
2959.86	42.5
2960.7	41
2961.54	38
2962.39	42
2963.23	44
2964.07	45.5
2964.91	45
2965.75	41
2966.6	44.5
2967.44	43
2968.28	41.5
2969.12	38.5
2969.96	37
2970.8	37.5
2971.64	36.017
2972.48	40.8945
2973.33	35.8931
2974.17	34.1563
2975.01	40.6658
2975.85	37.9081
2976.69	32.4877
2977.53	29.1173
2978.37	30.8827
2979.21	34.9043
2980.05	31.0906
2980.89	31.2024
2981.73	28.8968
2982.57	28.6105
2983.41	28.3903
2984.25	28.4161
2985.08	25.619
2985.92	29.1281
2986.76	25.0592
2987.6	26.7848
2988.44	29.0333
2989.28	26.1472
2990.12	28.4501
2990.96	24.7419
2991.79	25.3196
2992.63	25.4245
2993.47	27.7752
2994.31	25.4141
2995.14	27.3617
2995.98	27.0168
2996.82	21.9814
2997.66	24.836
2998.49	24.4688
2999.33	23.0446
3000.17	24.9477
3001	24.8275
3001.84	23.0252
3002.68	21.5132
3003.51	21.6023
3004.35	25
3005.19	24.7203
3006.02	25.7446
3006.86	25.2674
3007.7	25.1334
3008.53	23.7114
3009.37	24.5534
3010.2	23.8624
3011.04	25.2131
3011.87	24.0081
3012.71	23.2229
3013.54	22.807
3014.38	23.8659
3015.21	24.2257
3016.05	24.3151
3016.88	23.5388
3017.72	24.6853
3018.55	23.4179
3019.39	24.4147
3020.22	24.178
3021.05	21.1941
3021.89	22.7716
3022.72	24.6546
3023.55	24.8485
3024.39	22.4187
3025.22	23.0197
3026.05	23.6998
3026.89	23.8724
3027.72	23.9039
3028.55	24.2749
3029.39	22.8515
3030.22	23.0614
3031.05	24.3172
3031.88	22.7404
3032.72	22.5728
3033.55	22.5534
3034.38	24.56
3035.21	23.4072
3036.04	23.1682
3036.88	22.8222
3037.71	22.6892
3038.54	22.145
3039.37	24.9404
3040.2	23.9915
3041.03	22.9691
3041.86	24.2245
3042.69	25.4528
3043.52	23.2636
3044.36	21.301
3045.19	22.1967
3046.02	22.9469
3046.85	23.182
3047.68	23.3226
3048.51	24.7724
3049.34	25.5313
3050.17	26.2257
3051	26.2435
3051.83	23.79
3052.66	24.9879
3053.48	27.5342
3054.31	26.3537
3055.14	23.4604
3055.97	22.4658
3056.8	23.625
3057.29	24.5
3058.12	26
3058.95	25.5
3059.79	25.5
3060.62	23.5
3061.45	17.5
3062.29	23
3063.12	23.5
3063.95	24.5
3064.78	24
3065.62	23
3066.45	22
3067.28	24.5
3068.11	23.5
3068.94	24.5
3069.77	22
3070.61	23.5
3071.44	19.5
3072.27	23
3073.1	24
3073.93	21.5
3074.76	24
3075.59	23
3076.42	22.5
3077.25	24
3078.08	21
3078.92	24
3079.74	22
3080.57	24.5
3081.41	27.5
3082.24	25
3083.06	23
3083.89	24
3084.72	24
3085.55	18.5
3086.38	23
3087.21	24.5
3088.04	26.5
3088.87	22
3089.7	25.5
3090.53	26.5
3091.36	22.5
3092.18	27.5
3093.01	23
3093.84	25
3094.67	26
3095.5	20.5
3096.32	26
3097.15	23.5
3097.98	24.5
3098.81	25.5
3099.64	23.5
3100.46	25.5
3101.29	22.5
3102.12	20
3102.94	24.5
3103.77	24
3104.6	25
3105.42	23
3106.25	22
3107.08	24
3107.9	27
3108.73	22
3109.56	24
3110.38	21
3111.21	22
3112.03	22.5
3112.86	22.5
3113.68	22
3114.51	21.5
3115.33	22.5
3116.16	23
3116.98	19.5
3117.81	23.5
3118.63	23
3119.46	28.5
3120.28	22
3121.11	26
3121.93	21
3122.76	23.5
3123.58	27.5
3124.4	24
3125.23	26
3126.05	24
3126.87	21
3127.7	25.5
3128.52	27
3129.34	21.5
3130.17	23.5
3130.99	24.5
3131.81	23.5
3132.64	23.5
3133.46	23.5
3134.28	25
3135.1	22
3135.93	22
3136.75	25
3137.57	25.5
3138.39	22.5
3139.21	26.5
3140.04	28
3140.86	21
3141.68	24.5
3142.5	22.5
3143.32	22.5
3144.14	21
3144.96	24
3145.78	26
3146.61	21.5
3147.43	23
3148.25	20
3149.07	23.5
3149.89	25.5
3150.71	24
3151.53	27
3152.35	22.5
3153.17	24
3153.99	22.5
3154.81	22
3155.63	20.5
3156.45	22
3157.27	24.5
3158.08	24.5
3158.9	23.5
3159.72	24.5
3160.54	27
3161.36	27
3162.18	22.5
3163	23
3163.82	22
3164.63	26
3165.45	24.5
3166.27	26.5
3167.09	22
3167.91	24.5
3168.72	21.5
3169.54	22.5
3170.36	25
3171.18	25.5
3171.99	25
3172.81	25.5
3173.63	21.5
3174.44	22.5
3175.26	23.5
3176.08	26.5
3176.89	26.5
3177.71	23
3178.53	25
3179.34	26
3180.16	25
3180.97	23
3181.79	23
3182.61	26
3183.42	24
3184.24	25.5
3185.05	24.5
3185.87	26
3186.68	23.5
3187.5	26
3188.31	25
3189.13	24.5
3189.94	23
3190.76	25.5
3191.57	23
3192.39	25.5
3193.2	24.5
3194.02	21
3194.83	23
3195.64	23.5
3196.46	22
3197.27	22.5
3198.08	25.5
3198.9	22.5
3199.71	27.5
3200.52	25
3201.34	25
3202.15	23
3202.96	27
3203.78	20
3204.59	20.5
3205.4	19.5
3206.21	25.5
3207.03	26
3207.84	28
3208.65	24.5
3209.46	25
3210.27	25
3211.09	25.5
3211.9	22
3212.71	23.5
3213.52	21.5
3214.33	26.5
3215.14	26
3215.95	25
3216.77	25.5
3217.58	23
3218.39	24.5
3219.2	25
3220.01	23.5
3220.82	22
3221.63	25.5
3222.44	27
3223.25	27
3224.06	25.5
3224.87	26
3225.68	20.5
3226.49	23.5
3227.3	25
3228.11	23
3228.92	25
3229.73	28
3230.53	26
3231.34	26.5
3232.15	27.5
3232.96	23.5
3233.77	28.5
3234.58	25
3235.39	27
3236.19	21.5
3237	25
3237.81	21.5
3238.62	25.5
3239.43	24
3240.23	26
3241.04	24
3241.85	22.5
3242.66	26
3243.46	22.5
3244.27	24.5
3245.08	24.5
3245.89	25.5
3246.69	25.5
3247.5	21
3248.31	24.5
3249.11	24
3249.92	27.5
3250.72	22
3251.53	25
3252.34	25
3253.14	22.5
3253.95	25
3254.75	25
3255.56	22
3256.36	26
3257.17	25
3257.98	25
3258.78	24
3259.59	25
3260.39	21
3261.19	25.5
3262	25
3262.8	21
3263.61	23.5
3264.41	20
3265.22	29
3266.02	27
3266.83	25
3267.63	29
3268.43	22.5
3269.24	25.5
3270.04	21
3270.84	23
3271.65	25.5
3272.45	21
3273.25	25.5
3274.06	23
3274.86	27.5
3275.66	24
3276.46	24
3277.27	24
3278.07	24
3278.87	23.5
3279.67	26
3280.48	23
3281.28	26
3282.08	23
3282.88	26
3283.68	24
3284.48	25
3285.29	22.5
3286.09	24.5
3286.89	25
3287.69	25
3288.49	25.5
3289.29	22.5
3290.09	24
3290.89	25.5
3291.69	27
3292.49	21.5
3293.29	23
3294.09	26.5
3294.89	25
3295.69	24.5
3296.49	27
3297.29	24.5
3298.09	23
3298.89	25.5
3299.69	23
3300.49	24.5
3301.29	22.5
3302.09	25.5
3302.89	25.5
3303.69	24.5
3304.49	23
3305.28	22.5
3306.08	22.5
3306.88	20.5
3307.68	20
3308.48	21
3309.28	24.5
3310.07	24
3310.87	24.5
3311.67	22
3312.47	25.5
3313.26	25
3314.06	26.5
3314.86	23.5
3315.66	22
3316.45	25
3317.25	21.5
3318.05	23
3318.84	23.5
3319.64	27.5
3320.44	25
3321.23	25
3322.03	24
3322.83	23.5
3323.62	23
3324.42	26
3325.21	27.5
3326.01	25
3326.81	23.5
3327.6	25
3328.4	25
3329.19	20
3329.99	24
3330.78	27
3331.58	22.5
3332.37	23
3333.17	23.5
3333.96	25
3334.76	22
3335.55	22
3336.34	22.5
3337.14	26.5
3337.93	21
3338.73	22.5
3339.52	26
3340.31	21.5
3341.11	27.5
3341.9	22.5
3342.69	23
3343.49	22.5
3344.28	29.5
3345.07	22
3345.87	22
3346.66	26.5
3347.45	24
3348.25	23
3349.04	23.5
3349.83	24
3350.62	21
3351.42	23
3352.21	22.5
3353	24
3353.79	26
3354.58	24
3355.37	26
3356.17	24
3356.96	23
3357.75	25
3358.54	26
3359.33	25.5
3360.12	22
3360.91	25
3361.7	28
3362.49	25.5
3363.29	26.5
3364.08	26.5
3364.87	20
3365.66	24
3366.45	25.5
3367.24	25.5
3368.03	26.5
3368.82	22.5
3369.61	23
3370.4	23.5
3371.19	27
3371.97	25.5
3372.76	28.5
3373.55	29.5
3374.34	26
3375.13	24.5
3375.92	25.5
3376.71	25.5
3377.5	25
3378.29	24.5
3379.07	26
3379.86	25.5
3380.65	29
3381.44	23.5
3382.23	24
3383.01	23.5
3383.8	24
3384.59	28
3385.38	24.5
3386.16	26
3386.95	25.5
3387.74	25.5
3388.53	23
3389.31	23.5
3390.1	26
3390.89	26
3391.67	27
3392.46	23
3393.25	26
3394.03	23.5
3394.82	28
3395.6	21
3396.39	23.5
3397.18	24.5
3397.96	24
3398.75	28
3399.53	26
3400.32	25
3401.1	23.5
3401.89	24
3402.67	22.5
3403.46	23.5
3404.24	25
3405.03	23.5
3405.81	25.5
3406.6	21.5
3407.38	23.5
3408.17	23
3408.95	25
3409.74	23
3410.52	21.5
3411.3	23.5
3412.09	27
3412.87	21.5
3413.65	21.5
3414.44	23
3415.22	25
3416	21
3416.79	23
3417.57	23
3418.35	24.5
3419.14	26.5
3419.92	22
3420.7	26
3421.48	22
3422.27	22.5
3423.05	24
3423.83	25
3424.61	24
3425.4	22
3426.18	25
3426.96	24.5
3427.74	23.5
3428.52	26
3429.3	25
3430.08	22.5
3430.87	26.5
3431.65	21
3432.43	25
3433.21	26.5
3433.99	24.5
3434.77	24
3435.55	21.5
3436.33	27.5
3437.11	21
3437.89	29
3438.67	27
3439.45	26
3440.23	24
3441.01	23.5
3441.79	24
3442.57	25
3443.35	24
3444.13	24
3444.91	24
3445.69	24.5
3446.47	26.5
3447.25	26.5
3448.03	23
3448.8	27.5
3449.58	23.5
3450.36	24
3451.14	24.5
3451.92	23.5
3452.7	23.5
3453.47	26.5
3454.25	23.5
3455.03	25.5
3455.81	23
3456.59	22.5
3457.36	23
3458.14	25
3458.92	25.5
3459.69	26.5
3460.47	23
3461.25	19
3462.03	25
3462.8	25.5
3463.58	25
3464.36	22.5
3465.13	24
3465.91	24
3466.69	23
3467.46	26.5
3468.24	27
3469.01	25
3469.79	27.5
3470.57	23
3471.34	21.5
3472.12	22.5
3472.89	26.5
3473.67	20.5
3474.44	23
3475.22	23
3475.99	23
3476.77	22
3477.54	26.5
3478.32	26.5
3479.09	27.5
3479.87	26.5
3480.64	25.5
3481.41	22
3482.19	26
3482.96	22.5
3483.74	28.5
3484.51	22.5
3485.28	22.5
3486.06	26
3486.83	27.5
3487.6	25
3488.38	27
3489.15	21.5
3489.92	25.5
3490.7	25
3491.47	28
3492.24	26
3493.01	24
3493.79	26
3494.56	28.5
3495.33	29
3496.1	21
3496.88	23
3497.65	27
3498.42	21.5
3499.19	24
3499.96	23
