#Acq. time (s)=	5
#Accumulations=	5
#Range (cm-¹)=	100...3500
#Windows=	4
#Autofocus=	Off
#AutoExposure=	Off
#Spike filter=	Multiple accum.
#Delay time (s)=	0
#Binning=	1
#Readout mode=	Signal
#DeNoise=	Off
#ICS correction=	Off
#Dark correction=	Off
#Inst. Process=	Off
#Instrument=	LabRAM HR Evol
#Detector=	Syncerity OE
#Objective=	x100_VIS
#Grating=	600 (500nm)
#ND Filter=	25%
#Laser=	633nm_Edge
#Hole=	100.021
#Range=	Visible
#Project=	verificaciones
#Sample=	at1
#Site=	lined
#Title=	bolusat1lined
#Remark=	
#Date=	13.01.2026 13:50
#Acquired=	13.01.2026 13:50:31
100.692	30.5
101.975	31.5
103.258	31.5
104.542	31.5
105.824	30
107.107	31.5
108.39	30
109.672	27
110.954	28
112.236	25
113.519	30.5
114.8	32.5
116.081	29.5
117.362	31.5
118.643	25.5
119.924	31
121.204	32
122.484	30
123.764	31.5
125.044	31.5
126.323	29
127.603	32
128.882	31.5
130.161	30
131.438	26
132.716	34
133.995	31.5
135.273	31
136.55	32
137.828	34
139.106	34.5
140.383	35.5
141.66	32
142.937	32
144.213	34
145.488	35.5
146.764	32
148.04	38.5
149.316	35
150.592	40.5
151.867	36.5
153.141	36
154.416	39
155.69	35
156.965	34.5
158.239	40.5
159.512	37
160.786	38.5
162.059	35.5
163.333	35
164.605	37
165.878	38.5
167.15	36.5
168.423	35.5
169.694	38
170.966	36
172.238	40.5
173.51	38
174.78	31.5
176.052	38
177.323	34
178.592	35
179.863	35
181.134	34
182.403	37.5
183.673	37
184.943	39
186.211	42.5
187.481	38.5
188.749	34
190.018	39
191.287	36.5
192.554	39.5
193.822	40.5
195.089	34
196.357	40
197.625	40
198.891	34.5
200.159	35.5
201.425	36
202.692	39
203.957	30
205.224	34.5
206.489	37
207.755	36
209.02	33.5
210.286	34.5
211.55	36
212.815	28.5
214.079	34
215.344	30
216.607	34
217.872	30.5
219.135	35
220.399	30.5
221.662	35.5
222.924	35.5
224.187	35
225.449	30
226.713	31
227.974	31.5
229.235	32
230.498	30.5
231.759	30.5
233.019	29.5
234.281	31.5
235.542	31
236.802	25
238.063	28.5
239.323	27.5
240.582	30
241.843	29.5
243.102	30.5
244.361	29
245.621	29.5
246.879	30
248.138	29
249.396	26
250.655	30
251.913	26
253.17	29
254.427	28.5
255.686	29.5
256.943	28.5
258.199	26
259.456	26
260.712	27.5
261.969	27.5
263.225	29
264.481	28
265.736	28
266.991	32.5
268.246	30
269.502	29.5
270.757	31
272.011	30
273.265	29
274.519	27
275.773	23
277.027	28
278.28	25.5
279.533	25.5
280.786	28
282.04	27
283.293	30.5
284.545	27
285.798	29
287.049	29
288.301	27
289.553	30.5
290.804	28
292.055	27
293.306	28.5
294.557	29.5
295.807	29
297.058	26.5
298.308	28.5
299.558	29
300.808	29
302.057	28
303.305	28.5
304.554	28
305.803	28
307.052	31
308.3	30
309.549	27.5
310.797	28.5
312.045	27
313.292	30.5
314.54	27
315.786	30
317.033	27
318.28	32.5
319.526	28.5
320.773	32
322.019	31.5
323.264	26.5
324.51	27
325.755	30
327.001	30
328.246	25
329.49	27.5
330.735	31
331.979	28.5
333.224	30.5
334.467	28.5
335.711	26.5
336.955	31
338.199	29
339.441	28.5
340.684	24.5
341.927	31
343.168	30
344.411	28.5
345.654	30.5
346.895	27.5
348.137	28
349.379	32
350.619	30
351.86	27.5
353.102	31.5
354.341	32.5
355.582	29
356.821	27
358.062	25
359.302	27.5
360.541	28
361.781	29
363.019	30
364.259	23.5
365.496	27.5
366.736	26
367.974	26
369.212	29
370.45	26
371.687	29
372.925	28
374.162	24
375.399	27.5
376.635	27.5
377.873	25
379.109	31
380.344	23.5
381.581	33.5
382.816	28
384.052	27
385.287	25
386.523	28.5
387.757	25.5
388.991	30.5
390.227	33
391.46	30
392.695	25.5
393.928	33
395.162	29.5
396.396	25
397.629	28
398.861	27
400.095	27.5
401.327	26
402.559	29
403.792	30
405.024	30
406.255	23
407.488	27
408.719	29.5
409.949	23.5
411.18	29
412.412	26.5
413.642	26
414.872	29
416.102	27.5
417.333	29
418.562	25
419.791	29
421.02	25.5
422.249	29.5
423.479	30
424.707	25.5
425.935	25
427.163	28.5
428.391	28
429.619	29.5
430.848	28.5
432.075	29.5
433.302	28.5
434.529	31
435.755	25.5
436.982	29
438.208	27
439.434	26
440.66	31.5
441.885	25
443.111	28
444.338	25
445.563	27
446.788	29
448.012	29.5
449.237	28.5
450.461	29.5
451.685	27.5
452.909	24.5
454.133	34
455.356	30
456.579	28
457.802	29.5
459.025	25
460.247	34
461.469	29
462.691	34
463.914	28.5
465.136	33
466.357	29.5
467.579	38.5
468.8	30
470.021	36
471.242	32.5
472.462	35.5
473.682	35.5
474.903	35
476.123	36
477.343	37
478.563	41
479.782	44
481	44
482.219	45
483.438	49
484.657	50.5
485.874	50.5
487.093	50
488.311	51
489.529	51
490.747	51
491.963	49
493.181	50.5
494.398	49
495.614	51
496.83	48.5
498.047	43
499.264	43
500.479	38
501.695	40
502.911	35.5
504.125	39.5
505.34	36.5
506.554	36
507.769	30.5
508.984	34.5
510.198	36.5
511.412	33.5
512.627	31
513.839	33
515.053	31
516.266	33
517.479	29
518.691	37.5
519.905	33.5
521.118	31.5
522.329	32
523.542	32
524.753	28
525.965	27.5
527.176	34.5
528.388	32
529.598	33
530.809	29
532.019	32
533.23	29.5
534.44	30.5
535.649	27.5
536.86	27.5
538.068	26
539.279	31
540.487	33.5
541.697	27
542.905	27
544.113	25
545.322	29
546.53	27.5
547.737	26.5
548.946	28.5
550.153	30
551.361	25.5
552.568	24
553.774	26
554.982	30
556.188	30
557.394	29.5
558.599	26.5
559.806	30.5
561.012	27.5
562.217	27
563.423	27.5
564.628	25
565.832	26.5
567.036	29
568.241	23.5
569.446	28
570.65	26.5
571.853	26
573.057	28.5
574.26	25
575.464	29.5
576.667	28.5
577.87	27
579.072	25
580.274	26
581.477	25
582.68	26
583.881	29
585.083	26.5
586.284	25
587.485	25
588.686	29.5
589.887	26.5
591.087	28.5
592.288	25
593.488	24.5
594.688	27
595.888	24
597.087	23
598.287	28.5
599.486	25
600.685	25
601.884	29.5
603.082	29
604.281	30
605.479	25.5
606.677	30.5
607.875	25
609.073	29
610.27	25
611.468	28.5
612.665	25.5
613.862	27
615.058	26
616.255	26.5
617.451	26.5
618.648	28.5
619.842	29
621.038	29
622.234	30.5
623.429	29.5
624.624	34
625.819	31.5
627.013	28
628.207	27
629.402	31
630.596	26
631.79	25.5
632.983	29
634.177	30
635.37	31
636.564	29
637.755	28
638.948	28
640.141	29.5
641.334	25
642.525	28
643.717	29
644.909	29
646.099	31.5
647.291	28.5
648.483	27.5
649.674	28.5
650.864	29
652.055	25
653.244	23
654.435	32.5
655.625	27
656.814	29
658.004	32
659.193	29.5
660.382	31
661.571	29.5
662.759	28.5
663.948	29
665.135	29.5
666.324	29
667.511	25
668.7	29
669.886	30.5
671.074	31.5
672.262	30.5
673.448	33.5
674.634	26.5
675.821	29
677.007	31
678.194	30.5
679.379	29
680.565	34
681.75	29.5
682.936	33
684.121	35.5
685.305	30.5
686.491	35.5
687.675	29
688.86	32
690.043	29.5
691.227	32
692.411	31
693.594	34
694.777	32
695.961	33.5
697.144	31
698.326	35
699.509	36.5
700.691	34.5
701.873	33.5
703.056	38
704.237	35.5
705.419	46.5
706.599	45.5
707.782	43.5
708.962	46
710.143	46
711.323	45
712.504	41
713.684	34
714.864	33.5
716.043	34
717.223	31.5
718.403	31.5
719.582	28
720.761	29
721.94	32
723.118	28.5
724.296	30
725.474	30
726.652	28.5
727.831	32
729.009	33
730.186	25.5
731.363	26.5
732.54	28
733.717	27
734.893	27.5
736.07	31
737.246	26.5
738.422	29.5
739.598	27
740.773	29
741.949	26
743.124	29.5
744.299	31
745.474	27.5
746.649	27
747.823	33
748.997	29
750.172	29.5
751.346	28
752.519	28
753.693	29
754.867	26.5
756.038	25
757.211	29.5
758.384	29
759.557	28
760.73	30
761.902	29
763.074	26.5
764.246	26.5
765.417	26.5
766.588	27
767.76	29
768.931	28
770.102	29.5
771.271	28
772.442	29
773.613	29.5
774.783	26
775.952	24
777.122	25
778.291	29.5
779.461	28
780.629	30.5
781.798	33
782.967	30.5
784.135	32.5
785.304	30
786.472	28
787.639	30.5
788.807	27.5
789.975	25.5
791.142	32
792.309	30
793.477	26
794.642	25.5
795.81	27
796.975	29.5
798.142	26
799.308	25.5
800.473	32
801.639	27.5
802.804	29.5
803.97	24
805.134	29.5
806.299	28.5
807.463	25
808.628	28.5
809.792	30
810.957	26.5
812.12	28.5
813.284	26
814.447	29
815.611	28
816.773	27.5
817.937	28
819.099	29.5
820.261	24.5
821.424	27
822.585	29
823.748	29
824.909	27.5
826.07	29.5
827.232	30
828.393	23
829.554	30.5
830.715	27
831.875	27
833.035	27
834.196	26.5
835.356	29
836.515	27.5
837.676	27.5
838.835	27.5
839.994	27.5
841.152	32.5
842.312	25.5
843.47	25.5
844.629	24
845.786	27
846.946	28
848.103	22.5
849.261	29.5
850.418	30
851.575	28
852.733	26
853.89	30
855.046	26
856.203	24.5
857.359	24.5
858.515	34
859.67	33
860.827	31.5
861.983	26
863.138	29
864.293	26.5
865.448	28.5
866.603	30
867.757	26
868.912	25
870.066	25
871.22	29.5
872.374	30
873.527	27.5
874.681	31
875.834	26.5
876.987	26.5
878.14	31
879.293	26
880.445	27.5
881.598	26.5
882.75	27
883.902	24.5
885.054	30.5
886.206	26
887.357	27
888.507	28
889.658	29
890.809	27
891.96	28.5
893.111	27.5
894.261	27
895.411	21
896.561	30.5
897.71	23
898.86	24
900.009	26
901.159	27.5
902.308	27
903.455	27
904.604	22
905.753	24
906.901	23
908.048	24.5
909.197	25
910.344	25.5
911.492	27.5
912.639	29
913.786	24.5
914.933	23.5
916.079	29
917.226	26.5
918.373	29.5
919.518	26
920.664	25
921.81	24
922.955	31.5
924.101	30.5
925.245	30.5
926.391	28.5
927.536	26
928.68	25
929.825	28
930.968	25.5
932.113	26
933.256	22
934.4	27
935.543	27
936.687	27.5
937.83	24
938.973	28.5
940.115	25
941.258	28
942.399	25.5
943.542	27.5
944.684	28
945.826	28.5
946.967	26.5
948.109	28
949.25	26.5
950.392	25
951.532	25.5
952.672	25.5
953.813	31
954.953	27
956.093	23.5
957.233	24
958.373	27
959.512	24
960.652	25
961.791	27
962.929	26.5
964.069	25.5
965.207	26.5
966.345	25
967.484	25.5
968.622	32
969.759	25
970.896	27.5
972.035	27.5
973.172	26
974.309	25
975.445	28.5
976.582	28
977.719	24.5
978.855	25.5
979.991	22
981.127	28
982.263	26.5
983.398	25
984.535	24.5
985.67	24
986.804	23.5
987.939	24.5
989.074	28
990.208	25.5
991.342	28
992.476	27.5
993.61	22
994.744	29
995.877	21
997.01	24
998.143	27.5
999.276	26.5
1000.41	23
1001.54	25.5
1002.67	25.5
1003.81	26
1004.94	23
1006.07	33
1007.2	26.5
1008.33	27.5
1009.47	24.5
1010.6	21
1011.73	27
1012.86	25
1013.99	27
1015.12	25
1016.25	28
1017.38	23.5
1018.51	28
1019.64	27.5
1020.77	26
1021.9	24
1023.03	26
1024.15	27.5
1025.28	21
1026.41	26.5
1027.54	26
1028.67	26.5
1029.8	22
1030.92	22.5
1032.05	22
1033.18	26.5
1034.31	32
1035.43	25.5
1036.56	26
1037.69	24
1038.81	23.5
1039.94	25.5
1041.07	28.5
1042.19	24
1043.32	25
1044.44	27.5
1045.57	26
1046.69	27.5
1047.82	25.5
1048.94	23.5
1050.07	28
1051.19	26.5
1052.32	25
1053.44	25
1054.57	27.5
1055.69	25.5
1056.81	27
1057.94	20
1059.06	21.5
1060.18	21
1061.31	27
1062.43	26.5
1063.55	26.5
1064.67	29
1065.8	24.5
1066.92	27
1068.04	26
1069.16	24
1070.28	29.5
1071.4	25.5
1072.52	30.5
1073.64	26
1074.76	28
1075.89	27
1077.01	26.5
1078.13	26
1079.25	24
1080.37	27
1081.49	25
1082.6	26
1083.72	25
1084.84	26
1085.96	22
1087.08	22.5
1088.2	21
1089.32	27
1090.43	26.5
1091.55	23
1092.67	24
1093.79	28
1094.91	25.5
1096.02	26
1097.14	28.5
1098.26	25.5
1099.37	26.5
1100.49	25
1101.61	29
1102.72	27
1103.84	25
1104.95	24.5
1106.07	27
1107.18	22.5
1108.3	21
1109.41	24
1110.53	26.5
1111.64	25
1112.76	25
1113.87	26.5
1114.99	23
1116.1	28
1117.21	26.5
1118.33	24.5
1119.44	28
1120.55	27
1121.67	28.5
1122.78	21
1123.89	24.5
1125	22.5
1126.12	22.5
1127.23	26.5
1128.34	22.5
1129.45	23.5
1130.56	23
1131.68	26.5
1132.79	29
1133.9	22
1135.01	25
1136.12	26
1137.23	26
1138.34	21.5
1139.45	22.5
1140.56	24.5
1141.67	23
1142.78	26
1143.89	25
1145	25
1146.11	23
1147.22	24.5
1148.32	23
1149.43	25
1150.54	25
1151.65	27.5
1152.76	22
1153.86	23.5
1154.97	22.5
1156.08	26.5
1157.19	26
1158.29	22
1159.4	20.5
1160.51	23
1161.61	22
1162.72	26
1163.83	26
1164.93	29
1166.04	23
1167.14	25.5
1168.25	24.5
1169.35	26
1170.46	25.5
1171.56	23.5
1172.67	27
1173.77	22
1174.88	21
1175.98	21
1177.08	23
1178.19	28
1179.29	23.5
1180.4	25
1181.5	26
1182.6	26
1183.71	27.5
1184.81	25
1185.91	27.5
1187.01	22.5
1188.12	23.5
1189.22	24.5
1190.32	27
1191.42	25
1192.52	25
1193.62	24
1194.72	23.5
1195.83	22.51
1196.93	22.5077
1198.03	23.0952
1199.13	23.5357
1200.23	21.5557
1201.33	24.1076
1202.43	23.7218
1203.53	23.8031
1204.63	25.392
1205.73	25.7705
1206.83	26.6951
1207.92	26.2682
1209.02	23.1054
1210.12	24.2733
1211.22	24.5807
1212.32	24.011
1213.42	25.6208
1214.51	22.0556
1215.61	25.3323
1216.71	27.7096
1217.81	21.4791
1218.9	25.2935
1220	23.8183
1221.1	24.6445
1222.19	26.2997
1223.29	27.2877
1224.39	21.8462
1225.48	25.9214
1226.58	28.2951
1227.68	23.207
1228.77	27.1753
1229.87	25.1748
1230.96	26.061
1232.06	25.3523
1233.15	22.372
1234.25	25.1306
1235.34	24.4805
1236.43	24.525
1237.53	25.2795
1238.62	23.0264
1239.72	25.4065
1240.81	24.4308
1241.9	21.6911
1243	25.3512
1244.09	25.1168
1245.18	21.2324
1246.27	26.2865
1247.37	25.566
1248.46	23.5347
1249.55	26.0722
1250.64	21.9031
1251.74	22.955
1252.83	24.7091
1253.92	26.9408
1255.01	25.3859
1256.1	25.7713
1257.19	25.2926
1258.28	24.9264
1259.38	23.3874
1260.46	22.2716
1261.56	24.3312
1262.65	26.8801
1263.74	27.9042
1264.82	26.4197
1265.91	23.9462
1267	24.5749
1268.09	25.7233
1269.18	26.2292
1270.27	28.2851
1271.36	26.2951
1272.45	22.6051
1273.54	25.3745
1274.63	25.5212
1275.71	24.1025
1276.8	24.5
1277.89	24.1856
1278.98	22.8019
1280.06	24.171
1281.15	25.8829
1282.24	22.4934
1283.32	20.9758
1284.41	23.8131
1285.5	24.9428
1286.58	25.5721
1287.67	23.3335
1288.76	22.2403
1289.84	22.9744
1290.93	23.861
1292.01	25.8117
1293.1	22.9038
1294.18	23.718
1295.27	22.4819
1296.35	22.7699
1297.44	23.902
1298.52	23.4478
1299.6	21.7247
1300.69	21.5919
1301.77	22.9999
1302.86	25.2693
1303.94	25.2294
1305.02	23.9383
1306.11	22.7999
1306.41	22.5
1307.5	23
1308.59	24.5
1309.68	25
1310.77	26.5
1311.85	25
1312.94	26.5
1314.03	22.5
1315.11	25
1316.2	24
1317.29	26
1318.37	25
1319.46	26
1320.55	27.5
1321.63	25
1322.72	22
1323.8	25.5
1324.89	23.5
1325.98	23
1327.06	26
1328.15	23.5
1329.23	25
1330.31	27.5
1331.4	23
1332.48	24
1333.57	24
1334.65	24
1335.74	23.5
1336.82	28
1337.9	25
1338.99	26
1340.07	26.5
1341.15	25
1342.24	27.5
1343.32	25
1344.4	26.5
1345.48	20
1346.56	24.5
1347.65	25
1348.73	29
1349.81	24
1350.89	24.5
1351.97	26
1353.05	25.5
1354.13	24
1355.21	24.5
1356.29	22.5
1357.37	20
1358.46	26.5
1359.54	26.5
1360.62	27.5
1361.69	24.5
1362.77	24.5
1363.85	22
1364.93	24.5
1366.01	25.5
1367.09	23.5
1368.17	24
1369.25	24
1370.33	23.5
1371.41	25.5
1372.48	22
1373.56	24.5
1374.64	24
1375.72	26.5
1376.79	23
1377.87	27
1378.95	27
1380.02	30
1381.1	24
1382.18	21
1383.25	24
1384.33	27.5
1385.4	25.5
1386.48	24
1387.56	25
1388.63	27
1389.71	27.5
1390.78	24
1391.86	26.5
1392.93	25
1394.01	24
1395.08	26.5
1396.15	25.5
1397.23	25
1398.3	25.5
1399.38	29.5
1400.45	31.5
1401.52	32
1402.6	29.5
1403.67	31
1404.74	29.5
1405.81	34
1406.89	32
1407.96	25.5
1409.03	30
1410.1	26
1411.17	28.5
1412.25	29.5
1413.32	30
1414.39	30
1415.46	30.5
1416.53	29.5
1417.6	31
1418.67	30.5
1419.74	29.5
1420.81	30
1421.88	27.5
1422.95	31
1424.02	27
1425.09	22
1426.16	26
1427.23	30.5
1428.3	30
1429.37	30
1430.44	22
1431.51	22
1432.58	24
1433.64	23.5
1434.71	24.5
1435.78	26
1436.85	24
1437.92	25.5
1438.98	21
1440.05	21.5
1441.12	27
1442.18	26.5
1443.25	24
1444.32	26
1445.38	29
1446.45	27.5
1447.52	23.5
1448.58	28
1449.65	27
1450.71	23
1451.78	22.5
1452.84	24.5
1453.91	28
1454.97	27
1456.04	25.5
1457.1	28
1458.17	28.5
1459.23	27.5
1460.3	27
1461.36	23.5
1462.42	26.5
1463.49	27
1464.55	21
1465.61	25
1466.68	24.5
1467.74	28.5
1468.8	24.5
1469.86	24.5
1470.93	28
1471.99	23
1473.05	26.5
1474.11	27.5
1475.17	26
1476.24	25.5
1477.3	26
1478.36	25.5
1479.42	27.5
1480.48	24
1481.54	24
1482.6	24
1483.66	23.5
1484.72	25
1485.78	24
1486.84	25
1487.9	28
1488.96	27
1490.02	27
1491.08	27
1492.14	27
1493.2	25
1494.26	26
1495.31	25.5
1496.37	26.5
1497.43	24
1498.49	26
1499.55	21.5
1500.6	22.5
1501.66	28.5
1502.72	26.5
1503.78	22
1504.83	26
1505.89	24
1506.95	28.5
1508	24.5
1509.06	27
1510.12	26
1511.17	23
1512.23	26
1513.28	22.5
1514.34	26.5
1515.39	28
1516.45	24
1517.5	22.5
1518.56	23.5
1519.61	23
1520.67	26
1521.72	26
1522.78	26.5
1523.83	22
1524.88	23.5
1525.94	23
1526.99	29
1528.05	25
1529.1	27.5
1530.15	26
1531.2	28
1532.26	23.5
1533.31	26
1534.36	25.5
1535.41	26.5
1536.47	26.5
1537.52	22
1538.57	26.5
1539.62	25.5
1540.67	22.5
1541.72	25
1542.77	27
1543.83	24
1544.88	26
1545.93	29
1546.98	24
1548.03	21.5
1549.08	28.5
1550.13	27
1551.18	23.5
1552.23	28.5
1553.28	27
1554.32	27.5
1555.37	25
1556.42	22.5
1557.47	28.5
1558.52	24.5
1559.57	22
1560.62	24.5
1561.67	25.5
1562.71	25.5
1563.76	24
1564.81	25.5
1565.86	26
1566.9	27
1567.95	27.5
1569	28.5
1570.04	24
1571.09	27
1572.14	24.5
1573.18	27.5
1574.23	24
1575.27	23.5
1576.32	25
1577.37	23
1578.41	24.5
1579.46	26
1580.5	30
1581.55	23.5
1582.59	24.5
1583.64	27.5
1584.68	27
1585.72	28
1586.77	22
1587.81	25
1588.86	19.5
1589.9	26
1590.94	27.5
1591.99	23
1593.03	23
1594.07	20.5
1595.12	27
1596.16	26
1597.2	22
1598.24	27.5
1599.29	28.5
1600.33	26
1601.37	25.5
1602.41	19.5
1603.45	27
1604.49	24.5
1605.53	28
1606.58	26
1607.62	24
1608.66	28.5
1609.7	26.5
1610.74	25
1611.78	23
1612.82	26.5
1613.86	23.5
1614.9	23
1615.94	24.5
1616.98	25.5
1618.02	26
1619.06	25.5
1620.09	22.5
1621.13	27
1622.17	27
1623.21	25
1624.25	25
1625.29	25.5
1626.32	26
1627.36	23
1628.4	25.5
1629.44	29
1630.47	24
1631.51	28
1632.55	23.5
1633.58	24.5
1634.62	26
1635.66	27
1636.69	21
1637.73	22.5
1638.77	25
1639.8	26
1640.84	24
1641.87	25.5
1642.91	27
1643.94	23
1644.98	25
1646.01	23
1647.05	26.5
1648.08	27
1649.12	26
1650.15	25
1651.18	26
1652.22	25
1653.25	25.5
1654.29	26.5
1655.32	22.5
1656.35	25
1657.39	26
1658.42	22
1659.45	22.5
1660.48	26
1661.52	24
1662.55	24
1663.58	27.5
1664.61	22
1665.64	26
1666.68	27.5
1667.71	24
1668.74	21
1669.77	25
1670.8	26
1671.83	27
1672.86	26
1673.89	25
1674.92	27
1675.95	26
1676.98	22.5
1678.01	24
1679.04	27.5
1680.07	23.5
1681.1	23.5
1682.13	27
1683.16	23.5
1684.19	26.5
1685.22	23.5
1686.25	26.5
1687.27	24
1688.3	24.5
1689.33	29
1690.36	24.5
1691.38	27.5
1692.41	22.5
1693.44	29.5
1694.47	27
1695.49	25.5
1696.52	29
1697.55	28
1698.57	23
1699.6	24
1700.63	26
1701.65	29
1702.68	24.5
1703.7	30.5
1704.73	26
1705.76	24
1706.78	26.5
1707.81	25.5
1708.83	25
1709.86	23
1710.88	23
1711.91	23.5
1712.93	31
1713.95	23.5
1714.98	26.5
1716	25.5
1717.03	23
1718.05	23
1719.07	25
1720.1	28
1721.12	22
1722.14	28
1723.16	25
1724.19	24
1725.21	25
1726.23	27
1727.25	30
1728.28	26
1729.3	25
1730.32	25
1731.34	26
1732.36	23
1733.38	26
1734.41	26
1735.43	26.5
1736.45	28
1737.47	25
1738.49	24.5
1739.51	24
1740.53	27
1741.55	22.5
1742.57	25
1743.59	23.5
1744.61	24
1745.63	24
1746.64	24.5
1747.66	26
1748.68	24
1749.7	28
1750.72	25
1751.74	21.5
1752.76	28
1753.77	24
1754.79	26.5
1755.81	27.5
1756.83	22
1757.84	26
1758.86	25
1759.88	26.5
1760.9	28
1761.91	23
1762.93	23.5
1763.95	23.5
1764.96	25.5
1765.98	24.5
1766.99	25.5
1768.01	20.5
1769.02	27
1770.04	26
1771.06	25
1772.07	28
1773.09	24.5
1774.1	27.5
1775.12	28.5
1776.13	22.5
1777.14	25
1778.16	27
1779.17	23.5
1780.19	27
1781.2	24
1782.21	24.5
1783.23	26
1784.24	26
1785.25	21
1786.27	25
1787.28	25
1788.29	25
1789.3	19
1790.32	29.5
1791.33	22.5
1792.34	24.5
1793.35	27
1794.36	26
1795.38	24.5
1796.39	25.5
1797.4	22.5
1798.41	23.5
1799.42	27.5
1800.43	25
1801.44	21.5
1802.45	21
1803.46	28
1804.47	25
1805.48	23.5
1806.49	26.5
1807.5	25.5
1808.51	24
1809.52	22.5
1810.53	24
1811.54	29.5
1812.55	24
1813.56	30
1814.57	27.5
1815.57	26
1816.58	24
1817.59	23.5
1818.6	22
1819.61	25.5
1820.61	29
1821.62	26
1822.63	23.5
1823.64	23
1824.64	25
1825.65	26
1826.66	24.5
1827.66	26.5
1828.67	25.5
1829.68	26
1830.68	22.5
1831.69	23.5
1832.69	26
1833.7	23.5
1834.7	20.5
1835.71	25
1836.71	26
1837.72	27.5
1838.72	23.5
1839.73	25
1840.73	19.5
1841.74	24
1842.74	24.5
1843.75	25
1844.75	25.5
1845.75	28
1846.76	21.5
1847.76	20.5
1848.76	27
1849.77	21
1850.77	25.5
1851.77	24
1852.78	23
1853.78	26
1854.78	27.5
1855.78	26
1856.78	26
1857.79	24
1858.79	31.5
1859.79	24
1860.79	25.5
1861.79	26.5
1862.79	25.5
1863.79	28
1864.79	29.5
1865.79	28.5
1866.8	23.5
1867.8	24.5
1868.8	26
1869.8	27
1870.8	30.5
1871.8	25.5
1872.8	24.5
1873.79	26.5
1874.79	26
1875.79	22.5
1876.79	22.5
1877.79	22.5
1878.79	23.5
1879.79	26
1880.79	25.5
1881.78	26.5
1882.78	23
1883.78	24.5
1884.78	24
1885.77	25.5
1886.77	25
1887.77	24
1888.77	29.5
1889.76	25
1890.76	22
1891.76	24.5
1892.75	25
1893.75	26.5
1894.75	25
1895.74	22.5
1896.74	27.5
1897.73	23.5
1898.73	25
1899.73	27
1900.72	23.5
1901.72	26.5
1902.71	18.5
1903.7	22.5
1904.7	23.5
1905.69	25
1906.69	26
1907.68	23.5
1908.68	22
1909.67	28.5
1910.66	23
1911.66	23.5
1912.65	25
1913.64	25.5
1914.64	23
1915.63	24
1916.62	22.5
1917.62	27
1918.61	24
1919.6	24
1920.59	25.5
1921.58	26
1922.58	25.5
1923.57	26
1924.56	25.5
1925.55	24
1926.54	26.5
1927.53	27.5
1928.52	25.5
1929.51	23.5
1930.51	21.5
1931.5	25.5
1932.49	22.5
1933.48	23
1934.47	23
1935.46	24.5
1936.45	25
1937.44	27
1938.42	20.5
1939.41	22.5
1940.4	24
1941.39	22.5
1942.38	21.5
1943.37	26
1944.36	21
1945.35	23.5
1946.33	24
1947.32	20
1948.31	25.25
1949.3	26.5
1950.29	22
1951.27	27.5
1952.26	26
1953.25	24
1954.23	22
1955.22	27
1956.21	20.5
1957.19	24
1958.18	30.5
1959.17	26
1960.15	22.5
1961.14	23
1962.13	25.5
1963.11	24.5
1964.1	22.5
1965.08	27
1966.07	24
1967.05	26.5
1968.04	23
1969.02	21
1970.01	27
1970.99	23
1971.97	23.5
1972.96	28
1973.94	24
1974.93	24.5
1975.91	26
1976.89	24
1977.88	25.5
1978.86	24
1979.84	27
1980.83	24.5
1981.81	24.5
1982.79	25
1983.77	23.5
1984.76	22.5
1985.74	22
1986.72	20
1987.7	20
1988.68	21
1989.67	21.5
1990.65	25
1991.63	24.5
1992.61	25.5
1993.59	21
1994.57	25
1995.55	24.5
1996.53	23
1997.51	26
1998.49	23.5
1999.47	20
2000.45	22
2001.43	24.5
2002.41	23.5
2003.39	23.5
2004.37	24.5
2005.35	25
2006.33	21.5
2007.31	25
2008.29	24
2009.26	23.5
2010.24	25
2011.22	25.5
2012.2	23.5
2013.18	24.5
2014.15	22
2015.13	26.5
2016.11	24.5
2017.09	21
2018.06	21.5
2019.04	22
2020.02	23
2021	24
2021.97	24
2022.95	23
2023.92	22.5
2024.9	24
2025.88	24
2026.85	25
2027.83	20
2028.8	25
2029.78	22.5
2030.75	24.5
2031.73	22
2032.7	24
2033.68	23.5
2034.65	23.5
2035.63	24.5
2036.6	25.5
2037.58	25
2038.55	25
2039.52	22.5
2040.5	24
2041.47	21
2042.45	25
2043.42	25.5
2044.39	26.5
2045.36	22.5
2046.34	27
2047.31	22.5
2048.28	24
2049.26	26
2050.23	20.5
2051.2	25.5
2052.17	23
2053.14	27
2054.12	25
2055.09	21
2056.06	22.5
2057.03	23
2058	22
2058.97	25.5
2059.94	23
2060.91	21
2061.88	22.5
2062.85	23.5
2063.82	22.5
2064.79	23.5
2065.76	26
2066.73	24
2067.7	19
2068.67	23
2069.64	25
2070.61	22
2071.58	19.5
2072.55	19
2073.52	24
2074.49	27
2075.45	21.5
2076.42	23.5
2077.39	21.5
2078.36	24.5
2079.33	20.5
2080.29	28
2081.26	24
2082.23	27
2083.2	23
2084.16	21
2085.13	18
2086.1	24
2087.06	22.5
2088.03	24.5
2089	22
2089.96	26
2090.93	25
2091.89	26.5
2092.86	24
2093.83	23.5
2094.79	23.5
2095.76	27
2096.72	21.5
2097.69	19
2098.65	25.5
2099.62	19
2100.58	25
2101.55	23.5
2102.51	22.5
2103.47	26
2104.44	23
2105.4	22.5
2106.36	22.5
2107.33	24
2108.29	21
2109.25	21.5
2110.22	21
2111.18	24.5
2112.14	19
2113.11	20
2114.07	26
2115.03	21.5
2115.99	24.5
2116.96	24.5
2117.92	21
2118.88	25
2119.84	25
2120.8	23
2121.76	21
2122.72	26
2123.68	26
2124.65	23.5
2125.61	18
2126.57	22
2127.53	23.5
2128.49	22
2129.45	21
2130.41	24.5
2131.37	23.5
2132.33	24
2133.29	21.5
2134.25	23.5
2135.21	22
2136.17	25.5
2137.12	22
2138.08	23.5
2139.04	23
2140	23
2140.96	23.5
2141.92	21.5
2142.88	21.0035
2143.83	23.4215
2144.79	23.0323
2145.75	19.7102
2146.71	20.1413
2147.66	24.4002
2148.62	22.0469
2149.58	20.6184
2150.53	21.9702
2151.49	25.9083
2152.45	25.3201
2153.4	27.989
2154.36	25.0615
2155.32	23.3104
2156.27	22.1902
2157.23	21.2219
2158.19	24.4099
2159.14	24.7866
2160.1	23.3379
2161.05	27.0173
2162.01	23.183
2162.96	22.2913
2163.92	23.4348
2164.87	25.5727
2165.83	23.7705
2166.78	24.4504
2167.73	21.2138
2168.69	23.1728
2169.64	25.3197
2170.6	24.1485
2171.55	23.144
2172.5	20.9204
2173.46	20.0663
2174.41	21.5652
2175.36	23.057
2176.32	19.8597
2177.27	21.7145
2178.22	22.6458
2179.18	21.9646
2180.13	21.9248
2181.08	23.0569
2182.03	20.1512
2182.98	23.5541
2183.94	22.672
2184.89	23.0956
2185.84	23.1294
2186.79	21.1217
2187.74	21.2465
2188.69	21.1201
2189.64	23.2879
2190.6	26.2419
2191.55	21.0222
2192.5	22.0234
2193.45	22.025
2194.4	21.9468
2195.35	20.0905
2196.3	21.3228
2197.25	21.3374
2198.2	22.4512
2199.15	22.5589
2200.1	21.5978
2201.04	23.0545
2201.99	19.6803
2202.94	21.3244
2203.89	22.5788
2204.84	22.8807
2205.79	21.8855
2206.74	21.3107
2207.69	23.8643
2208.63	24.3895
2209.58	23.3422
2210.53	23.9587
2211.48	22.5558
2212.43	22.7864
2213.37	22.5528
2214.32	22.1342
2215.27	23.632
2216.21	20.7426
2217.16	22.5099
2218.11	24.273
2219.05	24.0022
2220	24.0278
2220.95	19.6791
2221.89	20.8299
2222.84	22.4733
2223.78	22.1602
2224.73	23.7291
2225.68	22.4179
2226.62	20.0545
2227.57	22.4849
2228.51	23.4841
2229.46	23.3561
2230.4	21.7686
2231.35	21.5067
2232.29	24.3768
2233.24	22.1088
2234.18	25.0777
2235.12	23.7287
2236.07	23.5218
2237.01	23.1738
2237.95	22.5854
2238.9	20.5976
2239.84	20.0146
2240.06	20
2241.01	24.5
2241.96	21.5
2242.91	17.5
2243.86	22.5
2244.8	20
2245.75	22.5
2246.7	22.5
2247.65	23
2248.59	20.5
2249.54	25
2250.49	21
2251.43	26.5
2252.38	22
2253.33	26
2254.27	24.5
2255.22	25
2256.16	18.5
2257.11	23
2258.06	21.5
2259	25.5
2259.95	21
2260.89	23
2261.84	23.5
2262.78	25
2263.73	23
2264.67	25
2265.62	18
2266.56	27
2267.5	25
2268.45	25.5
2269.39	23
2270.34	19.5
2271.28	25
2272.22	22.5
2273.17	25.5
2274.11	21.5
2275.05	23.5
2276	19.5
2276.94	19.5
2277.88	21
2278.82	25
2279.77	16.5
2280.71	21
2281.65	25.5
2282.59	25
2283.53	23.5
2284.48	23.5
2285.42	21.5
2286.36	23
2287.3	17
2288.24	26
2289.18	19
2290.12	21.5
2291.06	22.5
2292	22.5
2292.94	22
2293.89	24
2294.83	19
2295.77	23
2296.71	20
2297.65	21.5
2298.58	23.5
2299.52	22.5
2300.46	22
2301.4	24
2302.34	22.5
2303.28	25
2304.22	20.5
2305.16	24
2306.1	25
2307.03	26.5
2307.97	20.5
2308.91	23
2309.85	24
2310.79	25
2311.72	23
2312.66	22
2313.6	21.5
2314.54	24
2315.47	21
2316.41	19.5
2317.35	22.5
2318.28	26
2319.22	23.5
2320.16	21.5
2321.09	27.5
2322.03	19
2322.96	24
2323.9	25.5
2324.84	21
2325.77	23.5
2326.71	19.5
2327.64	23
2328.58	22.5
2329.51	21.5
2330.45	23.5
2331.38	24
2332.32	25
2333.25	25
2334.18	25
2335.12	21
2336.05	22
2336.99	21.5
2337.92	25
2338.85	22.5
2339.79	24
2340.72	20
2341.65	23.5
2342.59	23
2343.52	22
2344.45	23.5
2345.39	21
2346.32	21
2347.25	22.5
2348.18	22
2349.11	22.5
2350.05	23
2350.98	25.5
2351.91	24.5
2352.84	25.5
2353.77	21.5
2354.7	22
2355.64	27.5
2356.57	23
2357.5	21
2358.43	27
2359.36	19.5
2360.29	22.5
2361.22	26.5
2362.15	24
2363.08	23.5
2364.01	25.5
2364.94	23.5
2365.87	22
2366.8	23
2367.73	23
2368.66	25
2369.58	21
2370.51	26.5
2371.44	23
2372.37	23
2373.3	23
2374.23	23
2375.16	22.5
2376.08	21
2377.01	24
2377.94	25.5
2378.87	22
2379.8	25
2380.72	25.5
2381.65	24
2382.58	22
2383.5	22.5
2384.43	25.5
2385.36	25
2386.28	21
2387.21	23.5
2388.14	23
2389.06	22.5
2389.99	22.5
2390.91	25.5
2391.84	23.5
2392.77	24.5
2393.69	25.5
2394.62	22.5
2395.54	21
2396.47	24
2397.39	25
2398.32	24.5
2399.24	25
2400.16	23
2401.09	25
2402.01	27.5
2402.94	23
2403.86	26
2404.78	26
2405.71	20
2406.63	22.5
2407.56	22
2408.48	23
2409.4	24
2410.32	23
2411.25	26
2412.17	19
2413.09	18.5
2414.02	25
2414.94	24
2415.86	25
2416.78	23.5
2417.7	24
2418.63	21
2419.55	24
2420.47	22
2421.39	25.5
2422.31	22.5
2423.23	26
2424.15	24
2425.07	22.5
2425.99	24
2426.92	22.5
2427.84	20.5
2428.76	26
2429.68	27.5
2430.59	23
2431.51	24
2432.43	23
2433.35	26
2434.27	24
2435.19	21.5
2436.11	22.5
2437.03	23.5
2437.95	24
2438.87	26.5
2439.79	24
2440.71	24.5
2441.62	26.5
2442.54	23.5
2443.46	21.5
2444.38	23
2445.3	23
2446.21	23
2447.13	20
2448.05	23
2448.97	22
2449.88	23.5
2450.8	24.5
2451.72	19
2452.63	26
2453.55	25
2454.47	26
2455.38	25
2456.3	21.5
2457.21	22.5
2458.13	24
2459.05	26
2459.96	24
2460.88	22.5
2461.79	22.5
2462.71	23
2463.62	21.5
2464.54	25.5
2465.45	21
2466.37	22
2467.28	22
2468.2	23
2469.11	25.5
2470.02	26.5
2470.94	23
2471.85	21.5
2472.77	24
2473.68	23.5
2474.59	22.5
2475.51	21
2476.42	25.5
2477.33	23.5
2478.25	17
2479.16	22
2480.07	23.5
2480.98	21.5
2481.9	24
2482.81	24.5
2483.72	24.5
2484.63	23
2485.55	25.5
2486.46	25
2487.37	20
2488.28	26
2489.19	24
2490.1	25
2491.01	26.5
2491.92	27.5
2492.83	23
2493.74	21.5
2494.66	25.5
2495.57	25
2496.48	20
2497.39	24.5
2498.3	22
2499.21	26.5
2500.12	24.5
2501.03	26.5
2501.93	26.5
2502.84	23
2503.75	23.5
2504.66	24
2505.57	26.5
2506.48	24.5
2507.39	23.5
2508.3	25
2509.21	22.5
2510.11	27
2511.02	26
2511.93	24
2512.84	25
2513.75	24
2514.65	24.5
2515.56	20.5
2516.47	20
2517.37	30
2518.28	17
2519.19	27
2520.09	22.5
2521	20.5
2521.91	23
2522.81	24
2523.72	23.5
2524.63	23
2525.53	24.5
2526.44	25
2527.34	23.5
2528.25	22
2529.16	27
2530.06	24.5
2530.97	21
2531.87	20
2532.78	26
2533.68	26.5
2534.58	21
2535.49	25
2536.39	19
2537.3	25.5
2538.2	23.5
2539.11	24
2540.01	26.5
2540.91	23.5
2541.82	20
2542.72	25.5
2543.62	27
2544.53	23
2545.43	22
2546.33	23.5
2547.23	25
2548.14	25.5
2549.04	23
2549.94	23
2550.84	27
2551.75	26
2552.65	24
2553.55	25.5
2554.45	25
2555.35	22
2556.26	26
2557.16	25
2558.06	27
2558.96	21.5
2559.86	26.5
2560.76	26
2561.66	25.5
2562.56	24
2563.46	21.5
2564.36	22.5
2565.26	25
2566.16	23
2567.06	27
2567.96	28
2568.86	27
2569.76	27
2570.66	29
2571.56	24
2572.46	22.5
2573.36	25
2574.26	28.5
2575.16	24
2576.05	24
2576.95	21
2577.85	23
2578.75	28.5
2579.65	24.5
2580.54	23
2581.44	25.5
2582.34	26.5
2583.24	23.5
2584.13	22.5
2585.03	22
2585.93	24.5
2586.83	24
2587.72	26.5
2588.62	23.5
2589.52	23.5
2590.41	22.5
2591.31	23
2592.2	26
2593.1	27
2594	25
2594.89	21
2595.79	23
2596.68	24.5
2597.58	24.5
2598.47	27
2599.37	24
2600.26	25
2601.16	28.5
2602.05	23
2602.95	26
2603.84	26.5
2604.74	24.5
2605.63	23
2606.52	30
2607.42	23.5
2608.31	28
2609.21	28
2610.1	24
2610.99	22.5
2611.89	25.5
2612.78	22
2613.67	22.5
2614.56	22
2615.46	24.5
2616.35	22
2617.24	21
2618.13	25
2619.03	24
2619.92	22
2620.81	24
2621.7	21
2622.59	25
2623.49	23.5
2624.38	22
2625.27	23.5
2626.16	17.5
2627.05	23.5
2627.94	22.5
2628.83	21
2629.72	22
2630.61	27.5
2631.5	27
2632.39	26
2633.28	24.5
2634.17	21.5
2635.06	22
2635.95	23.5
2636.84	25.5
2637.73	22
2638.62	20
2639.51	24
2640.4	25
2641.29	27.5
2642.18	26
2643.07	20
2643.96	27
2644.84	24.5
2645.73	27
2646.62	22
2647.51	26.5
2648.4	20.5
2649.28	24
2650.17	21
2651.06	24
2651.95	19
2652.83	27
2653.72	24.5
2654.61	25
2655.49	24
2656.38	24
2657.27	23
2658.16	27
2659.04	22
2659.93	25.5
2660.81	22.5
2661.7	27
2662.59	23.5
2663.47	22
2664.36	22
2665.24	26
2666.13	26
2667.01	25
2667.9	21
2668.78	25.5
2669.67	21.5
2670.55	26
2671.44	21
2672.32	21
2673.21	27.5
2674.09	24
2674.97	23.5
2675.86	26.5
2676.74	22
2677.62	22.5
2678.51	24.5
2679.39	22
2680.27	26
2681.16	25.5
2682.04	25.5
2682.92	26
2683.81	26
2684.69	25
2685.57	25.5
2686.45	24
2687.34	27.5
2688.22	27
2689.1	24.5
2689.98	23
2690.86	21.5
2691.75	24
2692.63	26
2693.51	22.5
2694.39	27
2695.27	26.5
2696.15	20.5
2697.03	21
2697.91	25.5
2698.79	26
2699.67	23.5
2700.55	25
2701.43	26.5
2702.31	26
2703.19	27
2704.07	23.5
2704.95	19
2705.83	24.5
2706.71	24.5
2707.59	23
2708.47	20.5
2709.35	26
2710.23	27.5
2711.11	26
2711.99	24
2712.86	21
2713.74	20.5
2714.62	27
2715.5	22.5
2716.38	23
2717.26	26
2718.13	24
2719.01	29
2719.89	24.5
2720.77	28.5
2721.64	23
2722.52	25
2723.4	25
2724.27	22
2725.15	24.5
2726.03	23.5
2726.9	23.5
2727.78	25.5
2728.66	27
2729.53	21
2730.41	23.5
2731.28	22
2732.16	26.5
2733.03	24
2733.91	23
2734.79	24.5
2735.66	22.5
2736.54	24
2737.41	20.5
2738.29	23.5
2739.16	24.5
2740.03	26
2740.91	21
2741.78	23.5
2742.66	21
2743.53	26.5
2744.41	26.5
2745.28	24
2746.15	25
2747.03	23
2747.9	20
2748.77	26
2749.65	25
2750.52	22.5
2751.39	24
2752.27	25
2753.14	24.5
2754.01	26.5
2754.88	23
2755.75	28.5
2756.63	24
2757.5	24
2758.37	19.5
2759.24	25
2760.11	24.5
2760.99	23.5
2761.86	25
2762.73	21.5
2763.6	23
2764.47	24.5
2765.34	28
2766.21	28
2767.08	26.5
2767.95	24
2768.82	25.5
2769.69	21
2770.56	26.5
2771.43	19
2772.3	25.5
2773.17	20
2774.04	29
2774.91	28
2775.78	22
2776.65	25
2777.52	22.5
2778.39	26.5
2779.26	24.5
2780.13	20.5
2780.99	23.5
2781.86	23.5
2782.73	28.5
2783.6	26.5
2784.47	25.5
2785.34	23
2786.2	22.5
2787.07	22
2787.94	26
2788.81	23.5
2789.67	24
2790.54	24.5
2791.41	24.5
2792.27	25.5
2793.14	21.5
2794.01	24.5
2794.87	26
2795.74	24
2796.61	23
2797.47	20.5
2798.34	27
2799.21	24.5
2800.07	27.5
2800.94	27.5
2801.8	26.5
2802.67	25
2803.53	29.5
2804.4	27
2805.26	25
2806.13	29.5
2806.99	28
2807.86	26
2808.72	22
2809.59	28
2810.45	28
2811.32	26.5
2812.18	26
2813.04	22.5
2813.91	25.5
2814.77	27.5
2815.64	25.5
2816.5	29
2817.36	27
2818.22	28
2819.09	32.5
2819.95	30
2820.81	24.5
2821.68	27.5
2822.54	25
2823.4	25.5
2824.26	23
2825.13	21
2825.99	24.5
2826.85	23
2827.71	30.5
2828.57	24.5
2829.44	26.5
2830.3	24
2831.16	22
2832.02	24
2832.88	23.5
2833.74	23
2834.6	28
2835.46	25
2836.32	28
2837.18	28.5
2838.04	24
2838.9	28.5
2839.76	24
2840.62	27.5
2841.48	26.5
2842.34	26
2843.2	25
2844.06	23
2844.92	25
2845.78	25
2846.64	26
2847.5	24.5
2848.36	25.5
2849.22	24
2850.08	26.5
2850.93	26.5
2851.79	24
2852.65	25.5
2853.51	23
2854.37	26.5
2855.22	29
2856.08	26
2856.94	26.5
2857.8	24.5
2858.65	26.5
2859.51	21
2860.37	21
2861.23	26
2862.08	25
2862.94	28.5
2863.79	26
2864.65	28.5
2865.51	23.5
2866.36	27
2867.22	25
2868.08	27
2868.93	26.5
2869.79	28
2870.64	25
2871.5	28.5
2872.35	25.5
2873.21	28.5
2874.06	26.5
2874.92	28.5
2875.77	29.5
2876.63	26.5
2877.48	31.5
2878.34	29
2879.19	29
2880.05	33
2880.9	30.5
2881.76	31
2882.61	31
2883.46	29.5
2884.32	31
2885.17	33
2886.02	35
2886.88	29.5
2887.73	34.5
2888.58	33
2889.44	37
2890.29	37
2891.14	36.5
2891.99	36.5
2892.85	39
2893.7	36
2894.55	41.5
2895.4	40
2896.25	42.5
2897.11	48
2897.96	51.5
2898.81	48
2899.66	47.5
2900.51	54.5
2901.36	57.5
2902.21	59.5
2903.07	60
2903.92	64.5
2904.77	58
2905.62	66.5
2906.47	59.5
2907.32	61
2908.17	60
2909.02	58
2909.87	56
2910.72	56.5
2911.57	57
2912.42	55
2913.27	46.5
2914.12	49
2914.97	43.5
2915.81	40
2916.66	40.5
2917.51	43
2918.36	36.5
2919.21	35
2920.06	34.5
2920.91	34.5
2921.75	34
2922.6	28.5
2923.45	33
2924.3	32
2925.15	28
2925.99	28.5
2926.84	29
2927.69	29
2928.54	27
2929.38	28
2930.23	29.5
2931.08	28
2931.92	27
2932.77	24
2933.62	25
2934.46	25.5
2935.31	29.5
2936.16	26.5
2937	31.5
2937.85	24.5
2938.69	30
2939.54	26
2940.38	28
2941.23	27.5
2942.08	25
2942.92	29.5
2943.77	28.5
2944.61	28.5
2945.46	27.5
2946.3	26.5
2947.15	29
2947.99	29.5
2948.83	31
2949.68	28.5
2950.52	29
2951.37	29.5
2952.21	30
2953.05	33.5
2953.9	31
2954.74	29.5
2955.58	33.5
2956.43	34
2957.27	34
2958.11	34
2958.96	32
2959.8	41.5
2960.64	38.5
2961.48	38.5
2962.33	36
2963.17	37.5
2964.01	41
2964.85	41
2965.69	41.5
2966.54	39.5
2967.38	35
2968.22	39.5
2969.06	36.5
2969.9	37.5
2970.74	38
2971.58	35.5024
2972.43	31.5251
2973.27	36.9029
2974.11	34.0438
2974.95	30.6191
2975.79	30.9618
2976.63	29.5316
2977.47	31.9846
2978.31	28.6053
2979.15	30.8617
2979.99	29.9042
2980.83	30.1374
2981.67	28.2473
2982.51	29.292
2983.35	26.8218
2984.19	27.2524
2985.03	27.65
2985.86	24.6969
2986.7	22.1434
2987.54	27.2627
2988.38	24.7944
2989.22	28.1539
2990.06	29.8956
2990.9	28.5384
2991.73	24.4293
2992.57	24.8519
2993.41	24.6779
2994.25	25.3395
2995.09	26.9782
2995.92	27.4156
2996.76	26.3118
2997.6	26.7607
2998.44	24.3427
2999.27	26.0607
3000.11	25.5388
3000.95	21.7154
3001.78	22.8885
3002.62	25.7219
3003.46	25.3636
3004.29	19.7223
3005.13	25.0791
3005.96	22.1223
3006.8	23.7988
3007.64	24.3123
3008.47	23.9973
3009.31	25.9498
3010.14	25.378
3010.98	24.2914
3011.81	24.1523
3012.65	23.4806
3013.48	22.929
3014.32	22.2458
3015.15	23.8812
3015.99	22.2325
3016.82	22.6638
3017.66	23.1201
3018.49	22.9515
3019.33	23.0257
3020.16	23.548
3020.99	22.2952
3021.83	24.5214
3022.66	24.2577
3023.5	21.9614
3024.33	22.2294
3025.16	20.7437
3026	20.5669
3026.83	20.6129
3027.66	24.5657
3028.49	24.543
3029.33	24.9042
3030.16	24.4728
3030.99	23.8104
3031.83	24.1514
3032.66	21.4906
3033.49	21.9956
3034.32	21.4358
3035.15	22.2237
3035.99	23.3617
3036.82	20.9773
3037.65	21.5336
3038.48	21.2618
3039.31	22.0292
3040.14	23.8838
3040.97	23.8319
3041.81	23.7023
3042.64	24.7162
3043.47	23.5731
3044.3	23.5929
3045.13	23.5819
3045.96	20.0917
3046.79	19.3966
3047.62	23.2637
3048.45	25.5052
3049.28	23.4255
3050.11	21.5769
3050.94	21.747
3051.77	21.7433
3052.6	20.6261
3053.43	23.0181
3054.26	23.131
3055.08	22.3078
3055.91	22.4123
3056.74	22.0366
3057.26	20.5
3058.09	22
3058.92	23
3059.76	23.5
3060.59	23.5
3061.42	17.5
3062.25	22.5
3063.09	21
3063.92	23
3064.75	23
3065.58	19
3066.42	21.5
3067.25	21.5
3068.08	25.5
3068.91	20
3069.74	23.5
3070.57	18.5
3071.41	23.5
3072.24	26
3073.07	24.5
3073.9	20
3074.73	27.5
3075.56	26
3076.39	21
3077.22	19.5
3078.05	25.5
3078.88	20.5
3079.71	22
3080.54	22.5
3081.37	24.5
3082.2	26.5
3083.03	25.5
3083.86	20
3084.69	24.5
3085.52	22
3086.35	19
3087.18	21.5
3088.01	20
3088.84	22.5
3089.67	20
3090.5	21.5
3091.32	19.5
3092.15	23.5
3092.98	27
3093.81	22
3094.64	25
3095.47	22
3096.29	24.5
3097.12	23.5
3097.95	22
3098.78	19.5
3099.6	22.5
3100.43	21
3101.26	20
3102.09	25.5
3102.91	22.5
3103.74	27
3104.57	24
3105.39	25.5
3106.22	22.5
3107.05	22.5
3107.87	23
3108.7	25
3109.52	22.5
3110.35	25
3111.18	23.5
3112	26
3112.83	23
3113.65	20.5
3114.48	22
3115.3	24.5
3116.13	22.5
3116.95	24
3117.78	25
3118.6	21.5
3119.43	24
3120.25	25
3121.08	22
3121.9	22.5
3122.72	24.5
3123.55	22
3124.37	23
3125.2	22
3126.02	21
3126.84	22.5
3127.67	27
3128.49	24
3129.31	25
3130.14	23
3130.96	19
3131.78	24
3132.61	24.5
3133.43	25
3134.25	22
3135.07	24
3135.89	24
3136.72	23.5
3137.54	23.5
3138.36	24
3139.18	23.5
3140	28.5
3140.83	20
3141.65	20.5
3142.47	23
3143.29	24
3144.11	25.5
3144.93	22
3145.75	24
3146.57	23
3147.4	24
3148.22	24.5
3149.04	24.5
3149.86	21
3150.68	20.5
3151.5	25
3152.32	26
3153.14	23.5
3153.96	19.5
3154.78	22
3155.59	19.5
3156.42	25.5
3157.23	26
3158.05	22
3158.87	20
3159.69	23
3160.51	23
3161.33	24
3162.15	20
3162.97	22.5
3163.78	25
3164.6	24
3165.42	26
3166.24	24
3167.06	25.5
3167.87	20.5
3168.69	26
3169.51	24
3170.33	28
3171.14	23
3171.96	22.5
3172.78	23.5
3173.6	24.5
3174.41	24.5
3175.23	22.5
3176.05	24.5
3176.86	21.5
3177.68	24.5
3178.5	21
3179.31	20.5
3180.13	27
3180.94	20.5
3181.76	24.5
3182.58	21.5
3183.39	19
3184.21	23
3185.02	23.5
3185.84	22
3186.65	28
3187.47	25.5
3188.28	21.5
3189.1	23
3189.91	23.5
3190.73	19.5
3191.54	19.5
3192.36	22.5
3193.17	20.5
3193.98	24.5
3194.8	24
3195.61	22
3196.43	22.5
3197.24	22.5
3198.05	22
3198.87	22.5
3199.68	23.5
3200.49	19
3201.31	22
3202.12	25
3202.93	23
3203.75	19
3204.56	26
3205.37	25.5
3206.18	25.5
3207	27.5
3207.81	24.5
3208.62	23.5
3209.43	27
3210.24	21.5
3211.06	24
3211.87	21
3212.68	27
3213.49	26
3214.3	26.5
3215.11	23.5
3215.92	27
3216.73	22
3217.55	24
3218.36	22
3219.17	27
3219.98	20.5
3220.79	24
3221.6	24
3222.41	22
3223.22	19
3224.03	24.5
3224.84	23
3225.65	21.5
3226.46	22.5
3227.27	22.5
3228.08	27.5
3228.89	22.5
3229.7	22.5
3230.5	22
3231.31	22.5
3232.12	24.5
3232.93	24
3233.74	24
3234.55	23
3235.36	22
3236.16	21.5
3236.97	22.5
3237.78	23
3238.59	20
3239.4	20
3240.2	26.5
3241.01	21
3241.82	24.5
3242.63	19.5
3243.43	19.5
3244.24	23
3245.05	22
3245.85	22
3246.66	20.5
3247.47	26.5
3248.27	23
3249.08	23
3249.89	22.5
3250.69	20
3251.5	24
3252.31	24.5
3253.11	25
3253.92	24.5
3254.72	23.5
3255.53	18.5
3256.33	22
3257.14	24.5
3257.94	25
3258.75	21.5
3259.55	21.5
3260.36	24.5
3261.16	24.5
3261.97	23
3262.77	26
3263.58	23
3264.38	23.5
3265.19	24
3265.99	21.5
3266.79	22
3267.6	24
3268.4	25.5
3269.21	20
3270.01	24.5
3270.81	19
3271.62	25.5
3272.42	23
3273.22	22
3274.03	23.5
3274.83	23.5
3275.63	20
3276.43	25.5
3277.24	24
3278.04	21.5
3278.84	29
3279.64	22.5
3280.45	25
3281.25	22.5
3282.05	23
3282.85	24
3283.65	24
3284.45	21
3285.26	21
3286.06	24
3286.86	29
3287.66	25.5
3288.46	24.5
3289.26	26.5
3290.06	24.5
3290.86	27
3291.66	22
3292.46	23
3293.26	22.5
3294.06	23
3294.86	25.5
3295.66	24
3296.46	24.5
3297.26	26.5
3298.06	23
3298.86	20
3299.66	25.5
3300.46	22
3301.26	25
3302.06	23.5
3302.86	19
3303.66	21.5
3304.46	23.5
3305.25	23
3306.05	19
3306.85	21
3307.65	25.5
3308.45	22
3309.25	25
3310.04	27
3310.84	26
3311.64	26.5
3312.44	21
3313.23	23
3314.03	24
3314.83	27.5
3315.63	22
3316.42	24
3317.22	23.5
3318.02	21
3318.81	22
3319.61	27
3320.41	26.5
3321.2	20
3322	24.5
3322.8	24.5
3323.59	24.5
3324.39	23.5
3325.18	22.5
3325.98	25
3326.78	25.5
3327.57	26.5
3328.37	25.5
3329.16	25.5
3329.96	24.5
3330.75	24.5
3331.55	25
3332.34	22.5
3333.14	27
3333.93	28
3334.73	24.5
3335.52	24
3336.31	22.5
3337.11	21.5
3337.9	26
3338.7	21
3339.49	25.5
3340.28	23
3341.08	23.5
3341.87	21.5
3342.66	26.5
3343.46	24.5
3344.25	23
3345.04	28.5
3345.84	25
3346.63	24
3347.42	24
3348.22	24.5
3349.01	25.5
3349.8	24
3350.59	22
3351.39	26
3352.18	22
3352.97	26
3353.76	24.5
3354.55	21
3355.35	21
3356.14	26.5
3356.93	21.5
3357.72	20
3358.51	24
3359.3	24
3360.09	22.5
3360.88	22
3361.67	23
3362.46	21
3363.26	24.5
3364.05	23.5
3364.84	24
3365.63	26
3366.42	23
3367.21	23.5
3368	22.5
3368.79	23.5
3369.58	25
3370.37	23.5
3371.15	21
3371.94	23.5
3372.73	23.5
3373.52	25
3374.31	25
3375.1	23.5
3375.89	22.5
3376.68	23
3377.47	26.5
3378.26	24
3379.04	23
3379.83	24
3380.62	24.5
3381.41	23.5
3382.2	26
3382.98	26
3383.77	20.5
3384.56	25
3385.35	25.5
3386.13	21.5
3386.92	21
3387.71	24
3388.5	22.5
3389.28	22.5
3390.07	29
3390.86	23
3391.64	23.5
3392.43	23.5
3393.22	23.5
3394	22.5
3394.79	20.5
3395.57	23
3396.36	24
3397.15	20
3397.93	23
3398.72	26.5
3399.5	23
3400.29	23.5
3401.07	25
3401.86	28.5
3402.65	23.5
3403.43	28.5
3404.21	21
3405	27
3405.78	23
3406.57	25.5
3407.35	27
3408.14	23
3408.92	22
3409.71	24.5
3410.49	23.5
3411.27	20
3412.06	22.5
3412.84	25
3413.62	22.5
3414.41	24.5
3415.19	20
3415.97	24.5
3416.76	23
3417.54	25.5
3418.32	24.5
3419.11	19.5
3419.89	26
3420.67	23
3421.46	22.5
3422.24	26
3423.02	24.5
3423.8	25.5
3424.58	22
3425.37	23.5
3426.15	24
3426.93	21.5
3427.71	24.5
3428.49	26.5
3429.27	24
3430.05	25.5
3430.84	22.5
3431.62	26.5
3432.4	19.5
3433.18	25.5
3433.96	24
3434.74	23
3435.52	25
3436.3	22.5
3437.08	23.5
3437.86	24
3438.64	17.5
3439.42	23
3440.2	21.5
3440.98	24.5
3441.76	19
3442.54	21
3443.32	23
3444.1	24.5
3444.88	25
3445.66	26.5
3446.44	20
3447.22	22.5
3448	24
3448.77	21.5
3449.55	27
3450.33	24
3451.11	20
3451.89	20.5
3452.67	23
3453.45	26
3454.22	22.5
3455	23.5
3455.78	32
3456.56	25
3457.33	23
3458.11	26
3458.89	21.5
3459.67	19
3460.44	20
3461.22	21
3462	23
3462.77	27
3463.55	26
3464.33	25
3465.1	23.5
3465.88	22
3466.66	23.5
3467.43	23.5
3468.21	27
3468.98	23.5
3469.76	23
3470.54	23.5
3471.31	23
3472.09	19.5
3472.86	22
3473.64	24
3474.41	18
3475.19	24
3475.96	26
3476.74	23.5
3477.51	25.5
3478.29	27.5
3479.06	24.5
3479.84	24
3480.61	25.5
3481.39	24.5
3482.16	26
3482.93	21.5
3483.71	21.5
3484.48	27
3485.25	23
3486.03	25
3486.8	24.5
3487.57	22.5
3488.35	23.5
3489.12	18
3489.89	24
3490.67	23.5
3491.44	27.5
3492.21	26.5
3492.99	24
3493.76	23
3494.53	24.5
3495.3	24
3496.08	22
3496.85	22
3497.62	24
3498.39	25.5
3499.16	22.5
3499.93	22
