#Acq. time (s)=	5
#Accumulations=	5
#Range (cm-¹)=	100...3500
#Windows=	4
#Autofocus=	Off
#AutoExposure=	Off
#Spike filter=	Multiple accum.
#Delay time (s)=	0
#Binning=	1
#Readout mode=	Signal
#DeNoise=	Off
#ICS correction=	Off
#Dark correction=	Off
#Inst. Process=	Off
#Instrument=	LabRAM HR Evol
#Detector=	Syncerity OE
#Objective=	x100_VIS
#Grating=	600 (500nm)
#ND Filter=	25%
#Laser=	633nm_Edge
#Hole=	100.021
#Range=	Visible
#Project=	verificaciones
#Sample=	at1
#Site=	plain
#Title=	bolusat1plain
#Remark=	
#Date=	13.01.2026 14:13
#Acquired=	13.01.2026 14:13:14
100.692	25.5
101.975	27
103.258	33
104.542	32
105.824	33
107.107	30.5
108.39	31
109.672	31
110.954	29.5
112.236	31
113.519	30
114.8	30
116.081	30.5
117.362	34
118.643	29
119.924	31
121.204	30
122.484	31.5
123.764	31.5
125.044	32.5
126.323	36
127.603	34.5
128.882	38
130.161	29
131.438	30.5
132.716	32.5
133.995	36
135.273	32
136.55	33.5
137.828	36
139.106	38
140.383	37
141.66	31.5
142.937	32
144.213	41
145.488	37.5
146.764	37
148.04	42.5
149.316	39
150.592	36
151.867	42
153.141	39.5
154.416	40
155.69	45.5
156.965	45.5
158.239	41.5
159.512	42
160.786	40.5
162.059	40.5
163.333	43
164.605	41
165.878	38.5
167.15	40.5
168.423	39
169.694	45
170.966	35.5
172.238	41
173.51	39.5
174.78	40
176.052	41
177.323	39
178.592	38
179.863	38.5
181.134	36
182.403	39
183.673	38
184.943	39
186.211	42
187.481	42
188.749	35.5
190.018	41
191.287	44
192.554	43.5
193.822	42.5
195.089	44
196.357	44
197.625	41.5
198.891	38.5
200.159	43.5
201.425	43
202.692	40
203.957	39
205.224	34
206.489	35.5
207.755	40.5
209.02	36
210.286	34.5
211.55	35
212.815	34
214.079	37
215.344	35
216.607	34
217.872	30.5
219.135	33.5
220.399	37.5
221.662	36.5
222.924	30
224.187	34
225.449	30.5
226.713	31
227.974	32
229.235	30
230.498	30
231.759	29.5
233.019	28.5
234.281	29.5
235.542	34
236.802	31.5
238.063	32
239.323	34
240.582	30
241.843	30
243.102	30
244.361	28
245.621	32
246.879	28
248.138	32
249.396	34
250.655	29
251.913	31.5
253.17	31
254.427	27.5
255.686	30.5
256.943	32.5
258.199	31
259.456	27
260.712	32
261.969	26.5
263.225	32.5
264.481	26.5
265.736	31.5
266.991	31.5
268.246	25
269.502	33.5
270.757	31.5
272.011	28
273.265	27
274.519	30
275.773	29
277.027	27.5
278.28	29
279.533	26
280.786	27
282.04	27
283.293	28.5
284.545	28.5
285.798	32
287.049	26
288.301	28
289.553	28
290.804	24
292.055	25.5
293.306	28
294.557	26.5
295.807	33
297.058	30
298.308	24
299.558	29.5
300.808	29.5
302.057	26.5
303.305	28
304.554	31.5
305.803	27
307.052	29.5
308.3	27
309.549	29.5
310.797	30.5
312.045	25
313.292	33
314.54	25
315.786	32.5
317.033	29
318.28	27
319.526	29
320.773	24
322.019	30
323.264	26.5
324.51	31
325.755	24.5
327.001	26.5
328.246	33.5
329.49	30.5
330.735	28
331.979	31
333.224	26
334.467	28.5
335.711	26
336.955	32
338.199	28.5
339.441	25.5
340.684	26
341.927	30.5
343.168	30.5
344.411	28
345.654	31.5
346.895	30
348.137	28
349.379	25
350.619	29.5
351.86	29
353.102	27
354.341	32
355.582	31
356.821	28.5
358.062	31
359.302	25
360.541	29
361.781	28
363.019	27
364.259	23.5
365.496	29
366.736	30
367.974	30.5
369.212	28
370.45	25.5
371.687	29.5
372.925	29
374.162	30
375.399	34
376.635	27
377.873	28.5
379.109	30
380.344	31.5
381.581	30
382.816	30.5
384.052	28.5
385.287	27.5
386.523	32
387.757	30
388.991	29
390.227	30
391.46	28
392.695	29
393.928	30
395.162	26
396.396	28
397.629	27
398.861	34
400.095	29
401.327	30.5
402.559	32
403.792	27.5
405.024	29.5
406.255	27
407.488	27.5
408.719	29.5
409.949	29
411.18	29.5
412.412	28.5
413.642	29.5
414.872	28
416.102	29
417.333	25
418.562	30
419.791	25.5
421.02	28
422.249	28.5
423.479	26.5
424.707	29
425.935	28
427.163	30
428.391	30.5
429.619	30.5
430.848	32.5
432.075	27
433.302	26
434.529	28.5
435.755	22.5
436.982	30
438.208	26
439.434	31
440.66	31
441.885	30.5
443.111	31
444.338	26
445.563	30.5
446.788	28
448.012	30.5
449.237	29.5
450.461	30
451.685	29
452.909	30
454.133	24
455.356	30.5
456.579	28
457.802	28
459.025	28.5
460.247	31
461.469	33
462.691	30
463.914	30.5
465.136	27.5
466.357	34.5
467.579	33.5
468.8	34
470.021	34.5
471.242	35
472.462	36
473.682	41
474.903	39
476.123	41
477.343	44.5
478.563	41
479.782	49.5
481	49
482.219	54
483.438	57
484.657	57.5
485.874	54.5
487.093	61.5
488.311	58.5
489.529	59.5
490.747	60.5
491.963	62
493.181	61
494.398	54.5
495.614	54.5
496.83	53
498.047	51
499.264	55.5
500.479	46
501.695	45
502.911	42
504.125	44
505.34	40
506.554	36
507.769	37.5
508.984	35.5
510.198	37.5
511.412	38
512.627	34
513.839	36
515.053	37
516.266	37
517.479	34
518.691	31
519.905	30
521.118	34
522.329	32.5
523.542	33.5
524.753	32.5
525.965	27.5
527.176	31
528.388	28
529.598	27.5
530.809	29.5
532.019	31.5
533.23	30.5
534.44	30.5
535.649	32.5
536.86	29
538.068	31
539.279	34
540.487	31
541.697	28.5
542.905	30
544.113	28
545.322	31.5
546.53	30.5
547.737	30
548.946	32
550.153	31
551.361	27
552.568	32
553.774	29
554.982	28
556.188	30.5
557.394	32
558.599	31
559.806	31
561.012	27.5
562.217	29
563.423	24
564.628	28.5
565.832	27.5
567.036	28
568.241	27
569.446	27.5
570.65	31.5
571.853	30.5
573.057	29
574.26	26
575.464	28.5
576.667	28.5
577.87	27.5
579.072	31
580.274	25
581.477	30.5
582.68	27.5
583.881	28
585.083	31
586.284	31
587.485	30.5
588.686	30.5
589.887	31
591.087	27
592.288	29
593.488	31
594.688	29
595.888	29
597.087	28
598.287	33
599.486	30.5
600.685	27.5
601.884	26
603.082	24
604.281	30.5
605.479	29.5
606.677	26
607.875	28
609.073	27
610.27	30
611.468	31
612.665	30
613.862	26.5
615.058	28
616.255	28
617.451	26.5
618.648	28
619.842	28
621.038	31.5
622.234	30
623.429	28
624.624	32.5
625.819	28
627.013	30
628.207	25.5
629.402	29
630.596	29.5
631.79	28.5
632.983	27
634.177	31
635.37	32
636.564	31.5
637.755	35
638.948	28.5
640.141	28
641.334	29
642.525	27
643.717	29
644.909	29.5
646.099	30
647.291	31
648.483	28
649.674	29
650.864	31.5
652.055	31.5
653.244	27
654.435	29.5
655.625	30
656.814	29
658.004	30
659.193	30.5
660.382	31.5
661.571	29.5
662.759	34
663.948	30
665.135	32.5
666.324	31
667.511	30
668.7	28.5
669.886	31
671.074	27.5
672.262	30.5
673.448	31
674.634	32
675.821	32.5
677.007	32.5
678.194	31
679.379	34
680.565	32
681.75	35
682.936	33
684.121	38
685.305	33
686.491	33
687.675	32
688.86	35.5
690.043	34
691.227	35
692.411	33.5
693.594	35.5
694.777	34.5
695.961	39
697.144	38.5
698.326	34
699.509	36
700.691	40
701.873	37.5
703.056	40
704.237	39
705.419	43
706.599	46
707.782	54.5
708.962	48
710.143	50
711.323	48
712.504	44
713.684	40.5
714.864	38
716.043	37
717.223	37
718.403	32
719.582	31.5
720.761	30.5
721.94	30.5
723.118	29
724.296	28.5
725.474	29
726.652	28
727.831	30.5
729.009	26.5
730.186	27.5
731.363	29
732.54	32.5
733.717	30.5
734.893	33
736.07	26.5
737.246	29.5
738.422	26.5
739.598	28.5
740.773	27.5
741.949	26
743.124	27
744.299	29.5
745.474	29
746.649	32
747.823	26
748.997	29
750.172	29.5
751.346	29
752.519	29
753.693	27
754.867	31
756.038	31
757.211	27
758.384	33
759.557	27
760.73	27
761.902	28
763.074	26.5
764.246	32
765.417	30.5
766.588	26.5
767.76	30
768.931	30.5
770.102	28.5
771.271	27
772.442	30
773.613	28.5
774.783	30.5
775.952	35
777.122	33.5
778.291	30
779.461	23
780.629	31
781.798	29.5
782.967	31
784.135	30
785.304	33
786.472	34
787.639	33.5
788.807	31.5
789.975	35.5
791.142	31
792.309	36.5
793.477	35.5
794.642	27.5
795.81	30.5
796.975	31
798.142	31
799.308	28.5
800.473	29.5
801.639	27
802.804	32.5
803.97	31
805.134	28
806.299	25
807.463	27
808.628	29.5
809.792	34
810.957	29
812.12	32.5
813.284	30
814.447	29.5
815.611	31
816.773	25.5
817.937	26.5
819.099	29
820.261	25.5
821.424	27
822.585	29
823.748	24
824.909	24.5
826.07	29.5
827.232	27.5
828.393	28
829.554	28
830.715	24
831.875	31
833.035	30
834.196	26
835.356	31
836.515	31.5
837.676	28
838.835	28
839.994	26.5
841.152	30.5
842.312	30
843.47	30.5
844.629	27.5
845.786	30.5
846.946	24
848.103	30.5
849.261	25.5
850.418	27
851.575	28.5
852.733	26
853.89	32
855.046	27
856.203	27
857.359	30.5
858.515	32.5
859.67	30
860.827	33.5
861.983	29
863.138	33.5
864.293	29
865.448	33
866.603	29.5
867.757	24
868.912	32
870.066	32
871.22	27.5
872.374	29.5
873.527	26.5
874.681	29.5
875.834	28.5
876.987	27
878.14	26.5
879.293	29
880.445	29.5
881.598	31
882.75	30.5
883.902	28.5
885.054	24
886.206	28
887.357	30
888.507	30
889.658	26
890.809	24
891.96	28.5
893.111	25.5
894.261	29
895.411	25
896.561	28
897.71	28
898.86	31
900.009	27
901.159	21.5
902.308	27
903.455	29.5
904.604	25.5
905.753	26
906.901	24
908.048	26.5
909.197	25
910.344	25.5
911.492	34.5
912.639	28.5
913.786	27
914.933	28
916.079	27
917.226	28
918.373	26
919.518	25.5
920.664	25
921.81	25
922.955	30.5
924.101	27.5
925.245	28
926.391	29.5
927.536	25
928.68	27
929.825	23
930.968	26
932.113	30
933.256	29
934.4	22
935.543	23.5
936.687	27.5
937.83	28
938.973	28.5
940.115	28.5
941.258	28.5
942.399	23
943.542	25.5
944.684	26.5
945.826	28
946.967	27.5
948.109	27.5
949.25	27.5
950.392	26
951.532	26
952.672	25.5
953.813	28.5
954.953	20.5
956.093	26
957.233	24.5
958.373	28.5
959.512	29
960.652	22.5
961.791	24.5
962.929	26
964.069	27
965.207	25.5
966.345	28
967.484	25
968.622	25
969.759	25
970.896	25
972.035	21
973.172	23.5
974.309	29
975.445	26
976.582	30
977.719	24
978.855	26.5
979.991	27
981.127	27.5
982.263	27.5
983.398	23
984.535	23
985.67	29.5
986.804	26.5
987.939	24.5
989.074	25.5
990.208	25
991.342	22
992.476	27
993.61	27.5
994.744	27
995.877	25
997.01	24.5
998.143	28
999.276	29.5
1000.41	20
1001.54	25.5
1002.67	26.5
1003.81	27
1004.94	25.5
1006.07	32
1007.2	28
1008.33	30
1009.47	25.5
1010.6	27.5
1011.73	26
1012.86	27.5
1013.99	23.5
1015.12	27
1016.25	24
1017.38	27.5
1018.51	24
1019.64	26.5
1020.77	26
1021.9	30
1023.03	27
1024.15	31.5
1025.28	27.5
1026.41	26
1027.54	25.5
1028.67	28.5
1029.8	27
1030.92	26.5
1032.05	24.5
1033.18	25
1034.31	31.5
1035.43	25.5
1036.56	25
1037.69	28
1038.81	23.5
1039.94	26
1041.07	26
1042.19	25
1043.32	25
1044.44	23.5
1045.57	23.5
1046.69	26
1047.82	24.5
1048.94	24.5
1050.07	25.5
1051.19	25
1052.32	30.5
1053.44	27
1054.57	23.5
1055.69	25.5
1056.81	27.5
1057.94	30
1059.06	26.5
1060.18	25.5
1061.31	30.5
1062.43	24.5
1063.55	27
1064.67	26
1065.8	24.5
1066.92	29
1068.04	26
1069.16	23.5
1070.28	26
1071.4	22
1072.52	24.5
1073.64	24.5
1074.76	26
1075.89	25
1077.01	27.5
1078.13	22
1079.25	22
1080.37	23.5
1081.49	28.5
1082.6	23
1083.72	28
1084.84	23
1085.96	25.5
1087.08	27
1088.2	26.5
1089.32	27
1090.43	29.5
1091.55	24.5
1092.67	25
1093.79	24
1094.91	27.5
1096.02	29.5
1097.14	25.5
1098.26	27.5
1099.37	24.5
1100.49	24.5
1101.61	27
1102.72	27.5
1103.84	24
1104.95	21
1106.07	25.5
1107.18	24.5
1108.3	24
1109.41	27.5
1110.53	24
1111.64	27
1112.76	25
1113.87	25.5
1114.99	24
1116.1	30
1117.21	24
1118.33	21
1119.44	22
1120.55	26.5
1121.67	23
1122.78	27
1123.89	26
1125	24
1126.12	25.5
1127.23	26.5
1128.34	24
1129.45	22
1130.56	23
1131.68	22.5
1132.79	26.5
1133.9	27
1135.01	25.5
1136.12	23
1137.23	30
1138.34	26
1139.45	24.5
1140.56	26
1141.67	23
1142.78	24
1143.89	27
1145	26.5
1146.11	20.5
1147.22	25
1148.32	22
1149.43	23
1150.54	25
1151.65	23
1152.76	28
1153.86	26
1154.97	27.5
1156.08	23.5
1157.19	26
1158.29	25.5
1159.4	22
1160.51	25
1161.61	24.5
1162.72	26
1163.83	26
1164.93	29.5
1166.04	23.5
1167.14	25.5
1168.25	25.5
1169.35	24
1170.46	24.5
1171.56	24
1172.67	23
1173.77	25.5
1174.88	22.5
1175.98	29
1177.08	25
1178.19	26
1179.29	25
1180.4	29.5
1181.5	24.5
1182.6	24
1183.71	24.5
1184.81	22
1185.91	31.5
1187.01	30.5
1188.12	24
1189.22	21.5
1190.32	20
1191.42	24
1192.52	25
1193.62	23
1194.72	22.5029
1195.83	25.4739
1196.93	25.0003
1198.03	24.0749
1199.13	23.4952
1200.23	27.8044
1201.33	21.5058
1202.43	25.2845
1203.53	23.0999
1204.63	25.0861
1205.73	23.9744
1206.83	24.5468
1207.92	25.3977
1209.02	25.9643
1210.12	24.3395
1211.22	27.2368
1212.32	26.3343
1213.42	24.136
1214.51	26.3598
1215.61	25.849
1216.71	21.4038
1217.81	23.0845
1218.9	23.6621
1220	25.907
1221.1	25.9053
1222.19	23.6121
1223.29	23.1862
1224.39	24.534
1225.48	23.0843
1226.58	26.3948
1227.68	24.5872
1228.77	22.9578
1229.87	24.2428
1230.96	24.3131
1232.06	22.9986
1233.15	22.2314
1234.25	24.7012
1235.34	23.241
1236.43	23.9631
1237.53	24.0597
1238.62	24.1068
1239.72	26.1905
1240.81	22.5342
1241.9	24.7871
1243	23.7107
1244.09	21.3392
1245.18	24.5143
1246.27	23.7053
1247.37	23.8053
1248.46	26.9102
1249.55	27.9358
1250.64	24.3189
1251.74	25.9889
1252.83	25.9688
1253.92	25.5118
1255.01	28.3174
1256.1	24.5941
1257.19	27.5406
1258.28	26.4433
1259.38	25.2112
1260.46	24.1853
1261.56	26.0087
1262.65	25.1879
1263.74	27.2265
1264.82	26.6557
1265.91	25.4093
1267	26.5354
1268.09	27.4305
1269.18	25.1851
1270.27	24.9683
1271.36	24.7251
1272.45	24
1273.54	23.5289
1274.63	25.8202
1275.71	23.5745
1276.8	25.076
1277.89	24.9993
1278.98	25.1932
1280.06	23.4044
1281.15	23.4201
1282.24	27.4757
1283.32	26.4227
1284.41	24.4915
1285.5	23.7652
1286.58	23.3819
1287.67	25.745
1288.76	26.7886
1289.84	24.8549
1290.93	27.3273
1292.01	26.6398
1293.1	28.0842
1294.18	24.869
1295.27	27.2707
1296.35	26.3837
1297.44	25.3633
1298.52	25.2239
1299.6	24.2046
1300.69	23.8131
1301.77	25.853
1302.86	23.4992
1303.94	25.0576
1305.02	24.1601
1306.11	26.0111
1306.41	27
1307.5	23.5
1308.59	23
1309.68	27.5
1310.77	24
1311.85	25.5
1312.94	23.5
1314.03	26.5
1315.11	24
1316.2	23
1317.29	23
1318.37	26
1319.46	22
1320.55	25
1321.63	22.5
1322.72	27
1323.8	24
1324.89	24.5
1325.98	24
1327.06	25
1328.15	25.5
1329.23	25
1330.31	25
1331.4	23.5
1332.48	24
1333.57	27.5
1334.65	26
1335.74	25
1336.82	24.5
1337.9	26.5
1338.99	28.5
1340.07	28.5
1341.15	25
1342.24	24
1343.32	28.5
1344.4	25
1345.48	21
1346.56	23.5
1347.65	22.5
1348.73	22.5
1349.81	25
1350.89	24.5
1351.97	25.5
1353.05	24.5
1354.13	24.5
1355.21	21
1356.29	23
1357.37	24.5
1358.46	25.5
1359.54	25
1360.62	25.5
1361.69	25.5
1362.77	26.5
1363.85	26
1364.93	26.5
1366.01	25
1367.09	28.5
1368.17	25
1369.25	25
1370.33	24.5
1371.41	26.5
1372.48	22
1373.56	23
1374.64	26
1375.72	28
1376.79	24
1377.87	29
1378.95	26.5
1380.02	27
1381.1	23.5
1382.18	28
1383.25	27.5
1384.33	23
1385.4	24
1386.48	33
1387.56	26
1388.63	24
1389.71	25
1390.78	26.5
1391.86	26
1392.93	28
1394.01	25
1395.08	26.5
1396.15	28
1397.23	28.5
1398.3	28
1399.38	32
1400.45	29
1401.52	31
1402.6	27.5
1403.67	29
1404.74	29
1405.81	28
1406.89	29.5
1407.96	31
1409.03	33
1410.1	33
1411.17	30
1412.25	32
1413.32	28.5
1414.39	37
1415.46	28
1416.53	32.5
1417.6	30.5
1418.67	28.5
1419.74	28
1420.81	29
1421.88	25.5
1422.95	28.5
1424.02	26
1425.09	27.5
1426.16	27
1427.23	27
1428.3	25.5
1429.37	27
1430.44	28
1431.51	24.5
1432.58	29.5
1433.64	25
1434.71	24.5
1435.78	26.5
1436.85	29
1437.92	25.5
1438.98	26
1440.05	25
1441.12	27.5
1442.18	27
1443.25	25.5
1444.32	24
1445.38	28
1446.45	26.5
1447.52	26
1448.58	27
1449.65	28
1450.71	27.5
1451.78	26.5
1452.84	28.5
1453.91	25
1454.97	24
1456.04	25
1457.1	24
1458.17	23
1459.23	27
1460.3	26.5
1461.36	25.5
1462.42	22
1463.49	26
1464.55	27.5
1465.61	25.5
1466.68	26
1467.74	26
1468.8	24.5
1469.86	25.5
1470.93	23.5
1471.99	25.5
1473.05	24
1474.11	22.5
1475.17	28
1476.24	25.5
1477.3	24.5
1478.36	24.5
1479.42	26
1480.48	23.5
1481.54	26
1482.6	27
1483.66	24
1484.72	27
1485.78	25.5
1486.84	26
1487.9	26
1488.96	28
1490.02	24
1491.08	29.5
1492.14	30
1493.2	27
1494.26	23
1495.31	27
1496.37	27.5
1497.43	27.5
1498.49	27.5
1499.55	23
1500.6	28.5
1501.66	22
1502.72	30
1503.78	27
1504.83	30
1505.89	22.5
1506.95	26
1508	24.5
1509.06	28
1510.12	26.5
1511.17	27.5
1512.23	22.5
1513.28	22
1514.34	23.5
1515.39	25.5
1516.45	25
1517.5	25.5
1518.56	22.5
1519.61	24
1520.67	25
1521.72	25.5
1522.78	25
1523.83	24
1524.88	28.5
1525.94	25.5
1526.99	25.5
1528.05	21
1529.1	27
1530.15	23.5
1531.2	28.5
1532.26	25
1533.31	29
1534.36	27
1535.41	22.5
1536.47	29
1537.52	23
1538.57	26.5
1539.62	27.5
1540.67	23
1541.72	24.5
1542.77	24.5
1543.83	26.5
1544.88	27
1545.93	25.5
1546.98	24
1548.03	23.5
1549.08	28
1550.13	26.5
1551.18	26
1552.23	24
1553.28	25.5
1554.32	23
1555.37	28
1556.42	26.5
1557.47	27
1558.52	26
1559.57	25
1560.62	26
1561.67	28
1562.71	26
1563.76	23.5
1564.81	30.5
1565.86	29
1566.9	28
1567.95	29
1569	28.5
1570.04	28.5
1571.09	25
1572.14	27
1573.18	27
1574.23	23
1575.27	27
1576.32	27.5
1577.37	22.5
1578.41	26
1579.46	26.5
1580.5	28.5
1581.55	25
1582.59	26
1583.64	22
1584.68	26.5
1585.72	26.5
1586.77	29
1587.81	27
1588.86	28
1589.9	26
1590.94	28.5
1591.99	24
1593.03	25.5
1594.07	30
1595.12	27
1596.16	28
1597.2	28.5
1598.24	27.5
1599.29	25.5
1600.33	26
1601.37	25.5
1602.41	26
1603.45	26
1604.49	24.5
1605.53	27
1606.58	27.5
1607.62	29
1608.66	29
1609.7	25
1610.74	24.5
1611.78	24
1612.82	26.5
1613.86	26.5
1614.9	25.5
1615.94	28
1616.98	28
1618.02	22.5
1619.06	25.5
1620.09	25
1621.13	24.5
1622.17	24.5
1623.21	26.5
1624.25	27
1625.29	25
1626.32	26
1627.36	28
1628.4	24
1629.44	30
1630.47	26.5
1631.51	26
1632.55	26
1633.58	23.5
1634.62	24
1635.66	26
1636.69	25.5
1637.73	24.5
1638.77	28
1639.8	27
1640.84	27.5
1641.87	24.5
1642.91	25
1643.94	27
1644.98	25.5
1646.01	27
1647.05	27
1648.08	25.5
1649.12	26
1650.15	24
1651.18	27
1652.22	26
1653.25	26.5
1654.29	26
1655.32	26
1656.35	27.5
1657.39	28.5
1658.42	32.5
1659.45	25.5
1660.48	26
1661.52	28
1662.55	30
1663.58	25.5
1664.61	25.5
1665.64	24
1666.68	25
1667.71	24
1668.74	26.5
1669.77	27.5
1670.8	28
1671.83	24
1672.86	22.5
1673.89	26.5
1674.92	25
1675.95	30
1676.98	25
1678.01	23
1679.04	25.5
1680.07	24
1681.1	27
1682.13	28
1683.16	25.5
1684.19	26.5
1685.22	28.5
1686.25	24
1687.27	28.5
1688.3	29.5
1689.33	30.5
1690.36	26
1691.38	24.5
1692.41	27
1693.44	23.5
1694.47	26
1695.49	25
1696.52	26
1697.55	23.5
1698.57	27.5
1699.6	28
1700.63	28.5
1701.65	25.5
1702.68	22
1703.7	20
1704.73	24
1705.76	26.5
1706.78	26
1707.81	26.5
1708.83	23
1709.86	28.5
1710.88	24
1711.91	21
1712.93	27
1713.95	24
1714.98	27.5
1716	27.5
1717.03	26
1718.05	27
1719.07	24.5
1720.1	24.5
1721.12	23
1722.14	27.5
1723.16	25
1724.19	27
1725.21	23
1726.23	28
1727.25	33.5
1728.28	26
1729.3	29
1730.32	28
1731.34	25
1732.36	28
1733.38	25.5
1734.41	27
1735.43	29
1736.45	27
1737.47	25.5
1738.49	25.5
1739.51	26
1740.53	22.5
1741.55	24
1742.57	28.5
1743.59	27.5
1744.61	24
1745.63	25.5
1746.64	25
1747.66	26
1748.68	26
1749.7	27
1750.72	26.5
1751.74	25
1752.76	23.5
1753.77	23.5
1754.79	28
1755.81	24
1756.83	26
1757.84	28.5
1758.86	25.5
1759.88	21
1760.9	23.5
1761.91	28
1762.93	28.5
1763.95	27.5
1764.96	22
1765.98	24
1766.99	26
1768.01	23
1769.02	26.5
1770.04	26
1771.06	27
1772.07	27
1773.09	26.5
1774.1	27
1775.12	24
1776.13	25
1777.14	28
1778.16	26
1779.17	24.5
1780.19	24
1781.2	25
1782.21	24
1783.23	24.5
1784.24	25
1785.25	27
1786.27	26.5
1787.28	25.5
1788.29	25
1789.3	26
1790.32	23.5
1791.33	23
1792.34	22
1793.35	27.5
1794.36	22
1795.38	22
1796.39	26
1797.4	24
1798.41	25
1799.42	24
1800.43	27.5
1801.44	27.5
1802.45	28.5
1803.46	29
1804.47	25.5
1805.48	23
1806.49	27
1807.5	24.5
1808.51	22.5
1809.52	24.5
1810.53	26.5
1811.54	26.5
1812.55	20
1813.56	23
1814.57	27.5
1815.57	27
1816.58	23
1817.59	27.5
1818.6	23.5
1819.61	24.5
1820.61	26.5
1821.62	25
1822.63	26
1823.64	24
1824.64	24
1825.65	20.5
1826.66	23
1827.66	23.5
1828.67	25
1829.68	26
1830.68	25.5
1831.69	25
1832.69	24
1833.7	28
1834.7	24
1835.71	24
1836.71	27
1837.72	24.5
1838.72	22.5
1839.73	26
1840.73	27.5
1841.74	23
1842.74	28
1843.75	25.5
1844.75	24.5
1845.75	25
1846.76	27
1847.76	27.5
1848.76	24.5
1849.77	23
1850.77	25.5
1851.77	29
1852.78	27
1853.78	24.5
1854.78	28.5
1855.78	20.5
1856.78	24
1857.79	28.5
1858.79	22
1859.79	30
1860.79	22.5
1861.79	26
1862.79	26.5
1863.79	26.5
1864.79	23.5
1865.79	22.5
1866.8	26
1867.8	23
1868.8	25.5
1869.8	27
1870.8	25
1871.8	26.5
1872.8	25.5
1873.79	25
1874.79	25
1875.79	25.5
1876.79	23
1877.79	21.5
1878.79	24.5
1879.79	26
1880.79	21.5
1881.78	25.5
1882.78	26.5
1883.78	26
1884.78	28
1885.77	25
1886.77	26
1887.77	28
1888.77	25
1889.76	26.5
1890.76	24.5
1891.76	24.5
1892.75	24
1893.75	26.5
1894.75	23.5
1895.74	22
1896.74	26
1897.73	25.5
1898.73	26
1899.73	26
1900.72	27
1901.72	26
1902.71	26
1903.7	28
1904.7	25.5
1905.69	24.5
1906.69	27
1907.68	26
1908.68	22.5
1909.67	27
1910.66	27
1911.66	24
1912.65	24.5
1913.64	23.5
1914.64	24.5
1915.63	22
1916.62	22
1917.62	24.5
1918.61	22.5
1919.6	24.5
1920.59	23
1921.58	26
1922.58	27
1923.57	23.5
1924.56	24
1925.55	27
1926.54	27
1927.53	25
1928.52	26.5
1929.51	27
1930.51	26.5
1931.5	24
1932.49	24.5
1933.48	18
1934.47	28
1935.46	29.5
1936.45	28
1937.44	27
1938.42	24.5
1939.41	26
1940.4	24
1941.39	24
1942.38	26
1943.37	22
1944.36	25
1945.35	25.5
1946.33	22.5
1947.32	28.5
1948.31	26
1949.3	23.5
1950.29	24.5
1951.27	21
1952.26	24
1953.25	24
1954.23	25
1955.22	26
1956.21	23
1957.19	26
1958.18	31.5
1959.17	23
1960.15	22
1961.14	24
1962.13	26.5
1963.11	21
1964.1	23.5
1965.08	23
1966.07	26.5
1967.05	26
1968.04	28
1969.02	19.5
1970.01	23.5
1970.99	23
1971.97	25
1972.96	24
1973.94	23
1974.93	24.5
1975.91	23.5
1976.89	24.5
1977.88	22
1978.86	26.5
1979.84	23.5
1980.83	27.5
1981.81	24
1982.79	25.5
1983.77	23.5
1984.76	25.5
1985.74	24.5
1986.72	24
1987.7	23
1988.68	27
1989.67	23
1990.65	26
1991.63	22
1992.61	21.5
1993.59	24.5
1994.57	24
1995.55	25
1996.53	26
1997.51	23
1998.49	23
1999.47	24.5
2000.45	24
2001.43	23
2002.41	27
2003.39	17.5
2004.37	25
2005.35	25
2006.33	21.5
2007.31	25.5
2008.29	23
2009.26	22
2010.24	23.5
2011.22	21
2012.2	25
2013.18	25.5
2014.15	21
2015.13	21
2016.11	22.5
2017.09	24.5
2018.06	25
2019.04	26
2020.02	26
2021	24
2021.97	22
2022.95	24.5
2023.92	24
2024.9	22
2025.88	22
2026.85	27
2027.83	23
2028.8	23
2029.78	28.5
2030.75	25
2031.73	24.5
2032.7	24.5
2033.68	27
2034.65	25
2035.63	19.5
2036.6	23
2037.58	27
2038.55	26
2039.52	25
2040.5	21.5
2041.47	24.5
2042.45	26
2043.42	25
2044.39	26.5
2045.36	23
2046.34	23.5
2047.31	24
2048.28	21.5
2049.26	25.5
2050.23	25
2051.2	25
2052.17	24.5
2053.14	22
2054.12	24
2055.09	27
2056.06	20.5
2057.03	24.5
2058	22.5
2058.97	24
2059.94	24
2060.91	23
2061.88	24
2062.85	24
2063.82	25
2064.79	23.5
2065.76	22.5
2066.73	26
2067.7	26.5
2068.67	23
2069.64	27.5
2070.61	24.5
2071.58	24
2072.55	24
2073.52	25.5
2074.49	25
2075.45	23.5
2076.42	26.5
2077.39	23.5
2078.36	23.5
2079.33	23.5
2080.29	25
2081.26	24.5
2082.23	22.5
2083.2	25
2084.16	22
2085.13	24
2086.1	28
2087.06	24
2088.03	21
2089	22
2089.96	20.5
2090.93	24.5
2091.89	22.5
2092.86	22
2093.83	21.5
2094.79	22
2095.76	25.5
2096.72	22
2097.69	19.5
2098.65	25
2099.62	20
2100.58	25
2101.55	21.5
2102.51	27
2103.47	23
2104.44	23
2105.4	21.5
2106.36	25
2107.33	23
2108.29	21
2109.25	23.5
2110.22	24
2111.18	21
2112.14	23.5
2113.11	21.5
2114.07	19
2115.03	23
2115.99	25
2116.96	23.5
2117.92	24
2118.88	24
2119.84	23.5
2120.8	24
2121.76	24
2122.72	23.5
2123.68	24.5
2124.65	21
2125.61	20
2126.57	20.5
2127.53	23.5
2128.49	21
2129.45	25
2130.41	24
2131.37	24
2132.33	21.5
2133.29	27
2134.25	21.5
2135.21	26.5
2136.17	23.5
2137.12	26.5
2138.08	23
2139.04	20.5
2140	20.5
2140.96	27.5
2141.92	23
2142.88	19.5031
2143.83	22.9538
2144.79	23.5276
2145.75	23.5049
2146.71	20.4723
2147.66	22.4302
2148.62	22.729
2149.58	25.9816
2150.53	23.8876
2151.49	24.9927
2152.45	24.1013
2153.4	20.3049
2154.36	21.2896
2155.32	19.4953
2156.27	18.7001
2157.23	24.2494
2158.19	24.9864
2159.14	23.9562
2160.1	24.6546
2161.05	23.1799
2162.01	22.6944
2162.96	23.4056
2163.92	21.5247
2164.87	23.3617
2165.83	22.9372
2166.78	22.4851
2167.73	22.8478
2168.69	23.4799
2169.64	22.9396
2170.6	24.691
2171.55	22.3678
2172.5	22.5889
2173.46	21.183
2174.41	22.0784
2175.36	22.8486
2176.32	23.0439
2177.27	21.4009
2178.22	22.3968
2179.18	23.0329
2180.13	20.5987
2181.08	22.971
2182.03	24.194
2182.98	20.4546
2183.94	21.9121
2184.89	22.9586
2185.84	20.3966
2186.79	22.7982
2187.74	24.1642
2188.69	20.1371
2189.64	21.45
2190.6	21.6028
2191.55	21.3017
2192.5	24.7028
2193.45	23.45
2194.4	23.7765
2195.35	21.7771
2196.3	22.1883
2197.25	21.9356
2198.2	22.4203
2199.15	24.7029
2200.1	20.3109
2201.04	23.3464
2201.99	20.7379
2202.94	22.5457
2203.89	21.47
2204.84	20.0166
2205.79	23.4729
2206.74	23.3456
2207.69	21.453
2208.63	21.6693
2209.58	21.2686
2210.53	22.8965
2211.48	20.8434
2212.43	21.6832
2213.37	20.7675
2214.32	23.2263
2215.27	21.2137
2216.21	22.7623
2217.16	20.6111
2218.11	23.5279
2219.05	23.6882
2220	22.2481
2220.95	24.1374
2221.89	22.3136
2222.84	20.7015
2223.78	22.426
2224.73	22.5801
2225.68	23.4232
2226.62	22.062
2227.57	23.7339
2228.51	25.0143
2229.46	25.2209
2230.4	26.1413
2231.35	23.0395
2232.29	24.2595
2233.24	22.6332
2234.18	20.6982
2235.12	21.9509
2236.07	22.5
2237.01	24.0255
2237.95	23.3048
2238.9	19.9388
2239.84	23.9603
2240.06	25.5
2241.01	22.5
2241.96	25
2242.91	24
2243.86	20.5
2244.8	26
2245.75	25
2246.7	23
2247.65	21
2248.59	22.5
2249.54	20
2250.49	25.5
2251.43	25
2252.38	22.5
2253.33	25
2254.27	20.5
2255.22	25
2256.16	28
2257.11	25
2258.06	22
2259	22
2259.95	22.5
2260.89	22
2261.84	24
2262.78	24
2263.73	24
2264.67	21
2265.62	22
2266.56	21
2267.5	22.5
2268.45	24
2269.39	24.5
2270.34	25
2271.28	26
2272.22	25
2273.17	23.5
2274.11	24
2275.05	23.5
2276	23.5
2276.94	23
2277.88	22
2278.82	19.5
2279.77	24
2280.71	23.5
2281.65	24
2282.59	25
2283.53	26
2284.48	22.5
2285.42	23
2286.36	23
2287.3	25
2288.24	20
2289.18	23
2290.12	25
2291.06	22
2292	28.5
2292.94	23
2293.89	20.5
2294.83	23
2295.77	21
2296.71	23
2297.65	21.5
2298.58	24
2299.52	24.5
2300.46	23
2301.4	19.5
2302.34	22.5
2303.28	23
2304.22	17.5
2305.16	23
2306.1	23
2307.03	22.5
2307.97	24
2308.91	24.5
2309.85	23.5
2310.79	25
2311.72	23.5
2312.66	24
2313.6	23
2314.54	24.5
2315.47	26
2316.41	24
2317.35	22.5
2318.28	22.5
2319.22	21
2320.16	24.5
2321.09	21.5
2322.03	21
2322.96	20.5
2323.9	23
2324.84	21
2325.77	21.5
2326.71	18.5
2327.64	27
2328.58	21
2329.51	22.5
2330.45	20
2331.38	22
2332.32	22.5
2333.25	24.5
2334.18	26
2335.12	21
2336.05	19
2336.99	24
2337.92	23.5
2338.85	27.5
2339.79	25.5
2340.72	25.5
2341.65	23.5
2342.59	22.5
2343.52	24
2344.45	25.5
2345.39	22
2346.32	23.5
2347.25	21
2348.18	28
2349.11	25.5
2350.05	22
2350.98	26
2351.91	23.5
2352.84	23.5
2353.77	22
2354.7	23
2355.64	21
2356.57	24
2357.5	23
2358.43	25
2359.36	19
2360.29	21.5
2361.22	25
2362.15	26.5
2363.08	24
2364.01	25
2364.94	22.5
2365.87	25.5
2366.8	21
2367.73	24
2368.66	27
2369.58	27
2370.51	25
2371.44	23
2372.37	23
2373.3	21.5
2374.23	23
2375.16	26
2376.08	21
2377.01	22
2377.94	26.5
2378.87	24
2379.8	26.5
2380.72	25
2381.65	23
2382.58	27
2383.5	26.5
2384.43	19.5
2385.36	25.5
2386.28	21
2387.21	21
2388.14	22.5
2389.06	23
2389.99	21
2390.91	27
2391.84	26.5
2392.77	26.5
2393.69	20
2394.62	26.5
2395.54	23
2396.47	24.5
2397.39	22
2398.32	22.5
2399.24	24.5
2400.16	26.5
2401.09	22
2402.01	21.5
2402.94	27
2403.86	28
2404.78	27
2405.71	24
2406.63	20.5
2407.56	20.5
2408.48	23.5
2409.4	21.5
2410.32	21
2411.25	26
2412.17	22
2413.09	23.5
2414.02	24.5
2414.94	27.5
2415.86	21
2416.78	21
2417.7	23
2418.63	27
2419.55	18.5
2420.47	25.5
2421.39	25
2422.31	23
2423.23	23
2424.15	21.5
2425.07	25.5
2425.99	20
2426.92	25
2427.84	22.5
2428.76	21
2429.68	24
2430.59	23
2431.51	25
2432.43	23.5
2433.35	24.5
2434.27	21.5
2435.19	24
2436.11	21
2437.03	25
2437.95	24
2438.87	25.5
2439.79	24.5
2440.71	24.5
2441.62	24
2442.54	23
2443.46	24
2444.38	23.5
2445.3	19.5
2446.21	27.5
2447.13	25.5
2448.05	18
2448.97	20.5
2449.88	24.5
2450.8	24
2451.72	22
2452.63	21.5
2453.55	22
2454.47	23
2455.38	26.5
2456.3	25
2457.21	24
2458.13	23
2459.05	25
2459.96	28
2460.88	23.5
2461.79	22
2462.71	26.5
2463.62	24.5
2464.54	23
2465.45	26
2466.37	26
2467.28	21
2468.2	26.5
2469.11	25
2470.02	28
2470.94	24.5
2471.85	25.5
2472.77	25.5
2473.68	26
2474.59	25
2475.51	20.5
2476.42	26.5
2477.33	22
2478.25	21
2479.16	27
2480.07	25.5
2480.98	25.5
2481.9	22
2482.81	22
2483.72	28.5
2484.63	21
2485.55	23
2486.46	25.5
2487.37	23.5
2488.28	25.5
2489.19	23
2490.1	23
2491.01	23
2491.92	26.5
2492.83	25
2493.74	27.5
2494.66	25
2495.57	21.5
2496.48	29
2497.39	24.5
2498.3	23
2499.21	22
2500.12	24.5
2501.03	27
2501.93	25
2502.84	27
2503.75	25.5
2504.66	26.5
2505.57	22
2506.48	25
2507.39	21.5
2508.3	20.5
2509.21	23.5
2510.11	23
2511.02	23.5
2511.93	25
2512.84	24.5
2513.75	23
2514.65	26.5
2515.56	25
2516.47	24
2517.37	23
2518.28	25
2519.19	26
2520.09	22
2521	27
2521.91	23.5
2522.81	27
2523.72	23
2524.63	25
2525.53	21
2526.44	21.5
2527.34	27.5
2528.25	25.5
2529.16	26
2530.06	26
2530.97	23
2531.87	23.5
2532.78	26
2533.68	24.5
2534.58	25
2535.49	25
2536.39	22.5
2537.3	25.5
2538.2	20
2539.11	24
2540.01	23.5
2540.91	20.5
2541.82	25
2542.72	22
2543.62	24
2544.53	27.5
2545.43	20.5
2546.33	21.5
2547.23	28
2548.14	21
2549.04	24.5
2549.94	20
2550.84	26.5
2551.75	24
2552.65	25
2553.55	26.5
2554.45	25
2555.35	21.5
2556.26	25.5
2557.16	19.5
2558.06	26
2558.96	27.5
2559.86	26
2560.76	21
2561.66	26.5
2562.56	23
2563.46	25.5
2564.36	24
2565.26	29
2566.16	25
2567.06	23
2567.96	25.5
2568.86	25
2569.76	26
2570.66	21
2571.56	22
2572.46	27
2573.36	20.5
2574.26	22.5
2575.16	23
2576.05	25.5
2576.95	25.5
2577.85	23.5
2578.75	24
2579.65	23
2580.54	22.5
2581.44	26
2582.34	22
2583.24	21.5
2584.13	24.5
2585.03	26
2585.93	24.5
2586.83	24.5
2587.72	23
2588.62	24
2589.52	21
2590.41	25
2591.31	22
2592.2	25.5
2593.1	23
2594	21.5
2594.89	24.5
2595.79	23
2596.68	23.5
2597.58	25.5
2598.47	26
2599.37	24.5
2600.26	22
2601.16	25
2602.05	25
2602.95	25
2603.84	21
2604.74	28
2605.63	28
2606.52	25
2607.42	24
2608.31	26.5
2609.21	25
2610.1	21
2610.99	21
2611.89	22
2612.78	25.5
2613.67	25.5
2614.56	22.5
2615.46	23
2616.35	22.5
2617.24	27.5
2618.13	25.5
2619.03	24
2619.92	25.5
2620.81	25
2621.7	22.5
2622.59	26
2623.49	21.5
2624.38	26
2625.27	19
2626.16	23
2627.05	22.5
2627.94	26.5
2628.83	27
2629.72	21.5
2630.61	22
2631.5	28
2632.39	24
2633.28	22
2634.17	23.5
2635.06	26
2635.95	24
2636.84	24
2637.73	27
2638.62	21.5
2639.51	26.5
2640.4	27
2641.29	27
2642.18	24.5
2643.07	24.5
2643.96	22
2644.84	25
2645.73	26
2646.62	26
2647.51	26
2648.4	23
2649.28	22
2650.17	25
2651.06	25.5
2651.95	22
2652.83	24.5
2653.72	27
2654.61	26
2655.49	20.5
2656.38	25.5
2657.27	25
2658.16	24
2659.04	23
2659.93	24.5
2660.81	23.5
2661.7	24.5
2662.59	21
2663.47	27.5
2664.36	25.5
2665.24	24
2666.13	25
2667.01	23
2667.9	28.5
2668.78	22
2669.67	23
2670.55	22
2671.44	26
2672.32	25
2673.21	24
2674.09	27
2674.97	26
2675.86	24
2676.74	26
2677.62	24
2678.51	26.5
2679.39	23
2680.27	25.5
2681.16	26
2682.04	27.5
2682.92	19
2683.81	23.5
2684.69	26
2685.57	22.5
2686.45	25
2687.34	22
2688.22	22.5
2689.1	22.5
2689.98	23
2690.86	23
2691.75	21
2692.63	22.5
2693.51	28.5
2694.39	21
2695.27	26
2696.15	24
2697.03	26
2697.91	22
2698.79	19
2699.67	25.5
2700.55	23.5
2701.43	23.5
2702.31	25.5
2703.19	23
2704.07	26.5
2704.95	24
2705.83	22.5
2706.71	22.5
2707.59	25
2708.47	23
2709.35	24.5
2710.23	28
2711.11	25
2711.99	24
2712.86	24.5
2713.74	23.5
2714.62	26
2715.5	26.5
2716.38	21.5
2717.26	25.5
2718.13	22.5
2719.01	26
2719.89	23.5
2720.77	23
2721.64	24
2722.52	27.5
2723.4	26.5
2724.27	28
2725.15	25
2726.03	24
2726.9	25.5
2727.78	29.5
2728.66	27.5
2729.53	24.5
2730.41	21
2731.28	23
2732.16	24
2733.03	27
2733.91	22
2734.79	23
2735.66	22
2736.54	22.5
2737.41	25.5
2738.29	22
2739.16	22
2740.03	22
2740.91	28
2741.78	23.5
2742.66	23
2743.53	22
2744.41	24
2745.28	19
2746.15	24
2747.03	23
2747.9	27
2748.77	26
2749.65	25
2750.52	23.5
2751.39	19.5
2752.27	23
2753.14	25
2754.01	26
2754.88	21
2755.75	23
2756.63	25.5
2757.5	20
2758.37	21
2759.24	24
2760.11	22
2760.99	25
2761.86	20.5
2762.73	21.5
2763.6	25
2764.47	20.5
2765.34	24.5
2766.21	28.5
2767.08	22.5
2767.95	23
2768.82	27
2769.69	24.5
2770.56	22
2771.43	22.5
2772.3	24.5
2773.17	24
2774.04	27
2774.91	23
2775.78	28
2776.65	23.5
2777.52	23.5
2778.39	26.5
2779.26	23
2780.13	25
2780.99	25.5
2781.86	25.5
2782.73	22.5
2783.6	24.5
2784.47	24
2785.34	28.5
2786.2	26.5
2787.07	21
2787.94	26
2788.81	27.5
2789.67	27
2790.54	26
2791.41	27
2792.27	25.5
2793.14	23.5
2794.01	23
2794.87	24
2795.74	27
2796.61	27
2797.47	23
2798.34	25
2799.21	27
2800.07	24
2800.94	27.75
2801.8	30.5
2802.67	20
2803.53	27
2804.4	29.5
2805.26	23
2806.13	26.5
2806.99	25
2807.86	27
2808.72	25.5
2809.59	27
2810.45	28
2811.32	28
2812.18	26.5
2813.04	25.5
2813.91	27.5
2814.77	24.5
2815.64	29
2816.5	23.5
2817.36	22
2818.22	27
2819.09	28.5
2819.95	28
2820.81	24
2821.68	24
2822.54	27
2823.4	23
2824.26	26
2825.13	26
2825.99	26.5
2826.85	25.5
2827.71	30
2828.57	27.5
2829.44	25
2830.3	27
2831.16	27
2832.02	26.5
2832.88	24.5
2833.74	27.5
2834.6	26
2835.46	25
2836.32	23.5
2837.18	24.5
2838.04	25
2838.9	22
2839.76	27
2840.62	21
2841.48	26
2842.34	28.5
2843.2	25
2844.06	24
2844.92	24.5
2845.78	23.5
2846.64	27
2847.5	23
2848.36	26.5
2849.22	28
2850.08	24.5
2850.93	26
2851.79	28
2852.65	22
2853.51	27
2854.37	24
2855.22	28
2856.08	26
2856.94	30.5
2857.8	27.5
2858.65	27.5
2859.51	26.5
2860.37	26
2861.23	25.5
2862.08	27
2862.94	27.5
2863.79	27
2864.65	27.5
2865.51	31.5
2866.36	28
2867.22	29
2868.08	30
2868.93	30.5
2869.79	24.5
2870.64	30.5
2871.5	25
2872.35	31
2873.21	29
2874.06	28
2874.92	26
2875.77	30.5
2876.63	31.5
2877.48	29.5
2878.34	32
2879.19	32.5
2880.05	27.5
2880.9	32.5
2881.76	29
2882.61	30.5
2883.46	30
2884.32	32
2885.17	32.5
2886.02	36.5
2886.88	33
2887.73	34.5
2888.58	35
2889.44	39
2890.29	42
2891.14	39
2891.99	39
2892.85	45
2893.7	41
2894.55	44.5
2895.4	47
2896.25	49
2897.11	51
2897.96	49.5
2898.81	52
2899.66	56
2900.51	62
2901.36	67
2902.21	66
2903.07	68
2903.92	66
2904.77	66
2905.62	70.5
2906.47	70
2907.32	70
2908.17	70
2909.02	65.5
2909.87	63
2910.72	66.5
2911.57	60.5
2912.42	50.5
2913.27	53
2914.12	52.5
2914.97	51
2915.81	45.5
2916.66	46.5
2917.51	40.5
2918.36	41
2919.21	37.5
2920.06	35.5
2920.91	35
2921.75	34
2922.6	36.5
2923.45	32.5
2924.3	32
2925.15	36
2925.99	30
2926.84	32
2927.69	28.5
2928.54	29
2929.38	31
2930.23	33
2931.08	30
2931.92	29.5
2932.77	28.5
2933.62	27
2934.46	25
2935.31	28
2936.16	27
2937	34
2937.85	28.5
2938.69	22
2939.54	26
2940.38	29
2941.23	29.5
2942.08	23.5
2942.92	28
2943.77	29.5
2944.61	27
2945.46	31
2946.3	25.5
2947.15	30
2947.99	26
2948.83	32
2949.68	25.5
2950.52	31.5
2951.37	29.5
2952.21	29
2953.05	32
2953.9	34
2954.74	34
2955.58	32
2956.43	34.5
2957.27	37.5
2958.11	39.5
2958.96	39
2959.8	40.5
2960.64	43.5
2961.48	36.5
2962.33	40
2963.17	41.5
2964.01	43
2964.85	43.5
2965.69	43
2966.54	44
2967.38	41
2968.22	41
2969.06	44.5
2969.9	44.5
2970.74	42
2971.58	38.5024
2972.43	37.9471
2973.27	39.456
2974.11	35.9591
2974.95	36.3927
2975.79	33.9517
2976.63	32.4464
2977.47	34.2164
2978.31	31.3808
2979.15	30.9893
2979.99	28.4413
2980.83	28.6862
2981.67	29.9539
2982.51	29.1543
2983.35	30.799
2984.19	29.2146
2985.03	28.7649
2985.86	26.6564
2986.7	26.1193
2987.54	28.8534
2988.38	24.4589
2989.22	25.2645
2990.06	24.9652
2990.9	27.4023
2991.73	22.4264
2992.57	25.6178
2993.41	24.4425
2994.25	27.8817
2995.09	24.4394
2995.92	25.568
2996.76	26.1089
2997.6	24.9898
2998.44	27.0375
2999.27	23.9919
3000.11	23.4226
3000.95	24.9705
3001.78	26.1363
3002.62	23.7699
3003.46	21.8784
3004.29	23.7141
3005.13	23.203
3005.96	22.9899
3006.8	22.0631
3007.64	24.1166
3008.47	24.4199
3009.31	24.8279
3010.14	23.3089
3010.98	23.6405
3011.81	22.4818
3012.65	25.6128
3013.48	21.4703
3014.32	24.5
3015.15	25.4043
3015.99	23.9943
3016.82	22.4703
3017.66	22.7503
3018.49	23.132
3019.33	22.4165
3020.16	23.4371
3020.99	21.8633
3021.83	20.9471
3022.66	19.5035
3023.5	21.8366
3024.33	20.764
3025.16	21.4095
3026	23.8219
3026.83	24.3633
3027.66	23.9922
3028.49	22.2248
3029.33	22.2339
3030.16	23.7116
3030.99	22.9265
3031.83	22.2517
3032.66	22.23
3033.49	24.0294
3034.32	24.4509
3035.15	23.943
3035.99	22.6756
3036.82	22.2735
3037.65	22.6707
3038.48	20.6498
3039.31	22.2814
3040.14	24.9091
3040.97	23.0666
3041.81	21.2405
3042.64	20.6507
3043.47	23.1443
3044.3	23.7566
3045.13	22.0146
3045.96	22.0776
3046.79	22.1856
3047.62	21.8378
3048.45	21.1489
3049.28	21.6964
3050.11	22.0413
3050.94	22.3049
3051.77	21.5615
3052.6	21.932
3053.43	24.0588
3054.26	23.8082
3055.08	21.5791
3055.91	21.4414
3056.74	22.0073
3057.26	22
3058.09	19.5
3058.92	22
3059.76	25
3060.59	23.5
3061.42	23
3062.25	24
3063.09	23
3063.92	21.5
3064.75	26
3065.58	22
3066.42	20.5
3067.25	20
3068.08	21.5
3068.91	18
3069.74	19.5
3070.57	21
3071.41	22.5
3072.24	22
3073.07	21.5
3073.9	23
3074.73	22
3075.56	22.5
3076.39	26
3077.22	25.5
3078.05	21
3078.88	24
3079.71	24.5
3080.54	20.5
3081.37	23
3082.2	26
3083.03	22.5
3083.86	23
3084.69	29
3085.52	24.5
3086.35	22
3087.18	22
3088.01	22
3088.84	25
3089.67	23
3090.5	23
3091.32	21.5
3092.15	26
3092.98	23.5
3093.81	25
3094.64	22
3095.47	25
3096.29	27
3097.12	24
3097.95	23
3098.78	23
3099.6	24
3100.43	21
3101.26	23.5
3102.09	24
3102.91	22.5
3103.74	22.5
3104.57	22.5
3105.39	21
3106.22	21
3107.05	23.5
3107.87	24
3108.7	24.5
3109.52	23
3110.35	22.5
3111.18	23.5
3112	25
3112.83	23.5
3113.65	21.5
3114.48	22
3115.3	24.5
3116.13	24
3116.95	25.5
3117.78	24.5
3118.6	23.5
3119.43	23.5
3120.25	23
3121.08	24
3121.9	23
3122.72	26
3123.55	25.5
3124.37	22
3125.2	20
3126.02	25
3126.84	23
3127.67	24
3128.49	21
3129.31	22.5
3130.14	24
3130.96	23.5
3131.78	23
3132.61	22.5
3133.43	26
3134.25	18.5
3135.07	23.5
3135.89	27
3136.72	23
3137.54	26.5
3138.36	25
3139.18	26.5
3140	28
3140.83	25
3141.65	22
3142.47	18.5
3143.29	24.5
3144.11	20.5
3144.93	21.5
3145.75	19.5
3146.57	22
3147.4	20.5
3148.22	25
3149.04	23
3149.86	24.5
3150.68	20.5
3151.5	27.5
3152.32	26
3153.14	21
3153.96	23
3154.78	23.5
3155.59	24.5
3156.42	23
3157.23	21.5
3158.05	23
3158.87	25
3159.69	26
3160.51	23
3161.33	22.5
3162.15	23
3162.97	22.5
3163.78	21
3164.6	26
3165.42	24
3166.24	24
3167.06	25
3167.87	20.5
3168.69	24
3169.51	23
3170.33	23
3171.14	27.5
3171.96	23
3172.78	22
3173.6	23
3174.41	23
3175.23	25.5
3176.05	23.5
3176.86	25
3177.68	28.5
3178.5	23
3179.31	25
3180.13	23
3180.94	24
3181.76	25
3182.58	21.5
3183.39	24.5
3184.21	23.5
3185.02	21.5
3185.84	22.5
3186.65	23
3187.47	23
3188.28	24
3189.1	26.5
3189.91	23.5
3190.73	22
3191.54	23.5
3192.36	26
3193.17	25
3193.98	20
3194.8	23.5
3195.61	23.5
3196.43	20.5
3197.24	25.5
3198.05	21
3198.87	23.5
3199.68	24.5
3200.49	23
3201.31	23.5
3202.12	24.5
3202.93	27.5
3203.75	24
3204.56	25
3205.37	24
3206.18	28.5
3207	22
3207.81	22
3208.62	23
3209.43	23
3210.24	24.5
3211.06	22.5
3211.87	21
3212.68	25
3213.49	23.5
3214.3	25.5
3215.11	21
3215.92	25.5
3216.73	26.5
3217.55	22.5
3218.36	25.5
3219.17	22.5
3219.98	22
3220.79	24
3221.6	24
3222.41	25.5
3223.22	21
3224.03	22
3224.84	22.5
3225.65	21.5
3226.46	22
3227.27	25.5
3228.08	27.5
3228.89	25
3229.7	25
3230.5	25
3231.31	25
3232.12	23
3232.93	24.5
3233.74	27
3234.55	24
3235.36	21.5
3236.16	21.5
3236.97	22
3237.78	26
3238.59	24
3239.4	23
3240.2	23
3241.01	23.5
3241.82	22
3242.63	23
3243.43	26
3244.24	23.5
3245.05	25.5
3245.85	24.5
3246.66	22.5
3247.47	20
3248.27	21
3249.08	23.5
3249.89	23
3250.69	24.5
3251.5	23.5
3252.31	22.5
3253.11	28
3253.92	25.5
3254.72	24
3255.53	25
3256.33	25.5
3257.14	21
3257.94	25.5
3258.75	27
3259.55	22.5
3260.36	26.5
3261.16	22.5
3261.97	23.5
3262.77	23
3263.58	21
3264.38	19
3265.19	23
3265.99	24
3266.79	23
3267.6	24.5
3268.4	24.5
3269.21	28
3270.01	26.5
3270.81	23
3271.62	22
3272.42	24
3273.22	20
3274.03	25.5
3274.83	25
3275.63	21
3276.43	22.5
3277.24	24.5
3278.04	19.5
3278.84	27.5
3279.64	23
3280.45	22.5
3281.25	24.5
3282.05	20
3282.85	20
3283.65	24
3284.45	24.5
3285.26	22
3286.06	24.5
3286.86	22.5
3287.66	25
3288.46	24.5
3289.26	23
3290.06	22
3290.86	23.5
3291.66	24
3292.46	23.5
3293.26	24
3294.06	25
3294.86	26
3295.66	26
3296.46	24.5
3297.26	26
3298.06	22
3298.86	24.5
3299.66	25
3300.46	24
3301.26	27.5
3302.06	22
3302.86	24
3303.66	22
3304.46	24
3305.25	23.5
3306.05	27.5
3306.85	25
3307.65	22
3308.45	22
3309.25	23
3310.04	21.5
3310.84	21
3311.64	24
3312.44	24.5
3313.23	23
3314.03	24.5
3314.83	26.5
3315.63	26
3316.42	22.5
3317.22	26.5
3318.02	25
3318.81	28.5
3319.61	24
3320.41	24
3321.2	23
3322	24
3322.8	23
3323.59	24.5
3324.39	24.5
3325.18	25
3325.98	26
3326.78	22.5
3327.57	23
3328.37	25
3329.16	22.5
3329.96	23.5
3330.75	23.5
3331.55	24.5
3332.34	22
3333.14	22.5
3333.93	27.5
3334.73	25
3335.52	22
3336.31	26
3337.11	25.5
3337.9	25
3338.7	25.5
3339.49	23.5
3340.28	23
3341.08	23.5
3341.87	28.5
3342.66	25.5
3343.46	23
3344.25	26.5
3345.04	22
3345.84	21.5
3346.63	24
3347.42	26
3348.22	23
3349.01	24
3349.8	24.5
3350.59	26
3351.39	21
3352.18	24.5
3352.97	26
3353.76	21
3354.55	24.5
3355.35	24
3356.14	18.5
3356.93	22
3357.72	20
3358.51	20
3359.3	22
3360.09	23
3360.88	23
3361.67	25
3362.46	23
3363.26	25
3364.05	20.5
3364.84	25
3365.63	24
3366.42	24
3367.21	23
3368	22.5
3368.79	25
3369.58	21.5
3370.37	24.5
3371.15	23
3371.94	25
3372.73	23.5
3373.52	25
3374.31	25.5
3375.1	22
3375.89	21.5
3376.68	24
3377.47	22.5
3378.26	23
3379.04	24.5
3379.83	23.5
3380.62	22
3381.41	26.5
3382.2	23
3382.98	23
3383.77	22.5
3384.56	26.5
3385.35	22
3386.13	23.5
3386.92	25.5
3387.71	25.5
3388.5	22
3389.28	25
3390.07	24
3390.86	25
3391.64	21
3392.43	24
3393.22	24
3394	22.5
3394.79	22
3395.57	25
3396.36	21
3397.15	26
3397.93	24.5
3398.72	24
3399.5	23
3400.29	21
3401.07	24.5
3401.86	24
3402.65	25
3403.43	21
3404.21	25.5
3405	26
3405.78	25.5
3406.57	25.5
3407.35	29
3408.14	27
3408.92	22.5
3409.71	23.5
3410.49	23
3411.27	25
3412.06	23
3412.84	24
3413.62	24.5
3414.41	23.5
3415.19	23.5
3415.97	25.5
3416.76	24
3417.54	23
3418.32	21.5
3419.11	23.5
3419.89	23.5
3420.67	22.5
3421.46	24.5
3422.24	22
3423.02	23.5
3423.8	26.5
3424.58	26
3425.37	21.5
3426.15	22
3426.93	23.5
3427.71	24.5
3428.49	24
3429.27	19
3430.05	22.5
3430.84	22.5
3431.62	27.5
3432.4	24.5
3433.18	23.5
3433.96	26
3434.74	26
3435.52	22
3436.3	25
3437.08	22
3437.86	25
3438.64	24
3439.42	20
3440.2	22
3440.98	23
3441.76	25
3442.54	22
3443.32	28
3444.1	18.5
3444.88	23
3445.66	29
3446.44	25
3447.22	25.5
3448	23.5
3448.77	23
3449.55	26
3450.33	20
3451.11	16
3451.89	23.5
3452.67	25
3453.45	23
3454.22	21.5
3455	21
3455.78	22
3456.56	22.5
3457.33	24
3458.11	23.5
3458.89	22.5
3459.67	23
3460.44	21.5
3461.22	24
3462	18
3462.77	23.5
3463.55	22
3464.33	21
3465.1	24
3465.88	25.5
3466.66	25.5
3467.43	24
3468.21	23
3468.98	25
3469.76	24
3470.54	21.5
3471.31	25.5
3472.09	22
3472.86	24
3473.64	23
3474.41	22
3475.19	23.5
3475.96	23
3476.74	23.5
3477.51	23.5
3478.29	25
3479.06	26.5
3479.84	21
3480.61	23.5
3481.39	23
3482.16	22
3482.93	21.5
3483.71	24.5
3484.48	23.5
3485.25	22
3486.03	22.5
3486.8	27
3487.57	21.5
3488.35	21
3489.12	23.5
3489.89	26.5
3490.67	22
3491.44	25
3492.21	22.5
3492.99	25
3493.76	24
3494.53	18
3495.3	26
3496.08	22.5
3496.85	26.5
3497.62	23.5
3498.39	24.5
3499.16	21
3499.93	22
