#Acq. time (s)=	5
#Accumulations=	5
#Range (cm-¹)=	100...3500
#Windows=	4
#Autofocus=	Off
#AutoExposure=	Off
#Spike filter=	Multiple accum.
#Delay time (s)=	0
#Binning=	1
#Readout mode=	Signal
#DeNoise=	Off
#ICS correction=	Off
#Dark correction=	Off
#Inst. Process=	Off
#Instrument=	LabRAM HR Evol
#Detector=	Syncerity OE
#Objective=	x100_VIS
#Grating=	600 (500nm)
#ND Filter=	25%
#Laser=	633nm_Edge
#Hole=	100.021
#Range=	Visible
#Project=	verificaciones
#Sample=	at1
#Site=	lined
#Title=	bolusat1lined
#Remark=	
#Date=	13.01.2026 13:39
#Acquired=	13.01.2026 13:39:37
100.692	26.5
101.975	35
103.258	32
104.542	31.5
105.824	28
107.107	31.5
108.39	32
109.672	31
110.954	30
112.236	29.5
113.519	30.5
114.8	33.5
116.081	29
117.362	34.5
118.643	34
119.924	31
121.204	30.5
122.484	30
123.764	31
125.044	26
126.323	32
127.603	30.5
128.882	34.5
130.161	33.5
131.438	33.5
132.716	36
133.995	34.5
135.273	31
136.55	39.5
137.828	33.5
139.106	38.5
140.383	36.5
141.66	34
142.937	41
144.213	34
145.488	36
146.764	37
148.04	38
149.316	36
150.592	33
151.867	39.5
153.141	43
154.416	35.5
155.69	39
156.965	39.5
158.239	41.5
159.512	35
160.786	43.5
162.059	39
163.333	40.5
164.605	34.5
165.878	43
167.15	40.5
168.423	44
169.694	40.5
170.966	38.5
172.238	36.5
173.51	41.5
174.78	39
176.052	42.5
177.323	40
178.592	40
179.863	41.5
181.134	38.5
182.403	36.5
183.673	43
184.943	38.5
186.211	42
187.481	43
188.749	40.5
190.018	40
191.287	41.5
192.554	42.5
193.822	38
195.089	38.5
196.357	38
197.625	36.5
198.891	39.5
200.159	41
201.425	38
202.692	37
203.957	33.5
205.224	40
206.489	37.5
207.755	36.5
209.02	39
210.286	36.5
211.55	36
212.815	35
214.079	34
215.344	36
216.607	32.5
217.872	36.5
219.135	41.5
220.399	36.5
221.662	34
222.924	34
224.187	37
225.449	37.5
226.713	33
227.974	31
229.235	32
230.498	33.5
231.759	36
233.019	35
234.281	34
235.542	30
236.802	32
238.063	32
239.323	32
240.582	30.5
241.843	32.5
243.102	33
244.361	30.5
245.621	28.5
246.879	33.5
248.138	33
249.396	34
250.655	30.5
251.913	27
253.17	31
254.427	32
255.686	31.5
256.943	31
258.199	33
259.456	34
260.712	27
261.969	34
263.225	30
264.481	33.5
265.736	31
266.991	33.5
268.246	31.5
269.502	34.5
270.757	31.5
272.011	29
273.265	30
274.519	29.5
275.773	32.5
277.027	27
278.28	28
279.533	31.5
280.786	32
282.04	32
283.293	30.5
284.545	29
285.798	31.5
287.049	27.5
288.301	29
289.553	25
290.804	31
292.055	29
293.306	30.5
294.557	28
295.807	28.5
297.058	31
298.308	31.5
299.558	32.5
300.808	32
302.057	31.5
303.305	30
304.554	28.5
305.803	27.5
307.052	29.5
308.3	32.5
309.549	31
310.797	34
312.045	29
313.292	29
314.54	28
315.786	27
317.033	30.5
318.28	30
319.526	29
320.773	30
322.019	26
323.264	31
324.51	33.5
325.755	32.5
327.001	28.5
328.246	31
329.49	31.5
330.735	32.5
331.979	31
333.224	32.5
334.467	30
335.711	31
336.955	29
338.199	30.5
339.441	29.5
340.684	29
341.927	27.5
343.168	27
344.411	33
345.654	32
346.895	33
348.137	27
349.379	33
350.619	30
351.86	34.5
353.102	32
354.341	32
355.582	29.5
356.821	34
358.062	26
359.302	34
360.541	27
361.781	32
363.019	33
364.259	29.5
365.496	25
366.736	28
367.974	33
369.212	35.5
370.45	31
371.687	30
372.925	30.5
374.162	31.5
375.399	33.5
376.635	28.5
377.873	30.5
379.109	30.5
380.344	32.5
381.581	28.5
382.816	32
384.052	29.5
385.287	30
386.523	31
387.757	27
388.991	31
390.227	31
391.46	33
392.695	32
393.928	26.5
395.162	32
396.396	28.5
397.629	31
398.861	27.5
400.095	30
401.327	29
402.559	29
403.792	29
405.024	29
406.255	26.5
407.488	29
408.719	30.5
409.949	31.5
411.18	32
412.412	32.5
413.642	32
414.872	28.5
416.102	29.5
417.333	27
418.562	30.5
419.791	26.5
421.02	30
422.249	31
423.479	28
424.707	32
425.935	32.5
427.163	25.5
428.391	31
429.619	29.5
430.848	28
432.075	33
433.302	30.5
434.529	31
435.755	34
436.982	28
438.208	33.5
439.434	33.5
440.66	31.5
441.885	25
443.111	33
444.338	30
445.563	31.5
446.788	30.5
448.012	34
449.237	30.5
450.461	31
451.685	28
452.909	29.5
454.133	33.5
455.356	31.5
456.579	35
457.802	33.5
459.025	30
460.247	32
461.469	32
462.691	34
463.914	32.5
465.136	36
466.357	35
467.579	34
468.8	38
470.021	35.5
471.242	37.5
472.462	35
473.682	40.5
474.903	38.5
476.123	39
477.343	36
478.563	47
479.782	49
481	49
482.219	46
483.438	52
484.657	58
485.874	58.5
487.093	55
488.311	59
489.529	60.5
490.747	61
491.963	57
493.181	53
494.398	52
495.614	55.5
496.83	51
498.047	48.5
499.264	43.5
500.479	43
501.695	40
502.911	44.5
504.125	47
505.34	40
506.554	39
507.769	38.5
508.984	35.5
510.198	37
511.412	39.5
512.627	37.5
513.839	37
515.053	33
516.266	35.5
517.479	37.5
518.691	33
519.905	32
521.118	31.5
522.329	34
523.542	34
524.753	37
525.965	37
527.176	32
528.388	31.5
529.598	34
530.809	33
532.019	27
533.23	32
534.44	31.5
535.649	31
536.86	34
538.068	31
539.279	32.5
540.487	29
541.697	34
542.905	34.5
544.113	31
545.322	26.5
546.53	31.5
547.737	32.5
548.946	27
550.153	30
551.361	29.5
552.568	30
553.774	31.5
554.982	28.5
556.188	32
557.394	31.5
558.599	31
559.806	32.5
561.012	31.5
562.217	32
563.423	31.5
564.628	30
565.832	30.5
567.036	32.5
568.241	27.5
569.446	33.5
570.65	30
571.853	31.5
573.057	29.5
574.26	27
575.464	31.5
576.667	27.5
577.87	34.5
579.072	29
580.274	30
581.477	30
582.68	28.5
583.881	31
585.083	31
586.284	27
587.485	34.5
588.686	31
589.887	31.5
591.087	30
592.288	29
593.488	29
594.688	32
595.888	23.5
597.087	32.5
598.287	28
599.486	32.5
600.685	30
601.884	31.5
603.082	29
604.281	27
605.479	29.5
606.677	29
607.875	31
609.073	30.5
610.27	33
611.468	27.5
612.665	35.5
613.862	29.5
615.058	30
616.255	31
617.451	29
618.648	31
619.842	27.5
621.038	30.5
622.234	28.5
623.429	34.5
624.624	27
625.819	31
627.013	32.5
628.207	30
629.402	29
630.596	29
631.79	30
632.983	28
634.177	30
635.37	28
636.564	30.5
637.755	30
638.948	27
640.141	29.5
641.334	30
642.525	25
643.717	35
644.909	31
646.099	34
647.291	29
648.483	30
649.674	31
650.864	31
652.055	31
653.244	32.5
654.435	29
655.625	27.5
656.814	32
658.004	30
659.193	32
660.382	29.5
661.571	29
662.759	33
663.948	25
665.135	32
666.324	28.5
667.511	33
668.7	31
669.886	29
671.074	29
672.262	31
673.448	28
674.634	26.5
675.821	36.5
677.007	33.5
678.194	32.5
679.379	34.5
680.565	35.5
681.75	36
682.936	32
684.121	32.5
685.305	37
686.491	36
687.675	34
688.86	38.5
690.043	34
691.227	34
692.411	33
693.594	37
694.777	36
695.961	35.5
697.144	39
698.326	31
699.509	34
700.691	33
701.873	40.5
703.056	37
704.237	46.5
705.419	49
706.599	44
707.782	47
708.962	50
710.143	51
711.323	43.5
712.504	39
713.684	44
714.864	37
716.043	34
717.223	38
718.403	35
719.582	35.5
720.761	37
721.94	31.5
723.118	29
724.296	28.5
725.474	30.5
726.652	29.5
727.831	28
729.009	33.5
730.186	27
731.363	30.5
732.54	28.5
733.717	28
734.893	32.5
736.07	33
737.246	28
738.422	28.5
739.598	29
740.773	29
741.949	31
743.124	35
744.299	28.5
745.474	30.5
746.649	27
747.823	35
748.997	34
750.172	30
751.346	31
752.519	34.5
753.693	34
754.867	30
756.038	36.5
757.211	29
758.384	30
759.557	31.5
760.73	29
761.902	25
763.074	33.5
764.246	29
765.417	31
766.588	31.5
767.76	28
768.931	28.5
770.102	28.5
771.271	25.5
772.442	30
773.613	29.5
774.783	33
775.952	32
777.122	35
778.291	28.5
779.461	33.5
780.629	33
781.798	30.5
782.967	32.5
784.135	31.5
785.304	34
786.472	36.5
787.639	32
788.807	28.5
789.975	33.5
791.142	32
792.309	34
793.477	34.5
794.642	31.5
795.81	35
796.975	34.5
798.142	34.5
799.308	36
800.473	31
801.639	34
802.804	29.5
803.97	32
805.134	31
806.299	27.5
807.463	32.5
808.628	28
809.792	34
810.957	28.5
812.12	31
813.284	29
814.447	28
815.611	31
816.773	28.5
817.937	28
819.099	28.5
820.261	29
821.424	24.5
822.585	32
823.748	25.5
824.909	29
826.07	28.5
827.232	29.5
828.393	30.5
829.554	27
830.715	29
831.875	30.5
833.035	31.5
834.196	31
835.356	29.5
836.515	26.5
837.676	28
838.835	23
839.994	30
841.152	29.5
842.312	29.5
843.47	28
844.629	31
845.786	25
846.946	28.5
848.103	31
849.261	28
850.418	30
851.575	31.5
852.733	30.5
853.89	27
855.046	32
856.203	29
857.359	28.5
858.515	30
859.67	28.5
860.827	29.5
861.983	26
863.138	33.5
864.293	35
865.448	30
866.603	28
867.757	25
868.912	32
870.066	30
871.22	28
872.374	31
873.527	31
874.681	29.5
875.834	33.5
876.987	30
878.14	28.5
879.293	29
880.445	27
881.598	33
882.75	31
883.902	30.5
885.054	27
886.206	29
887.357	28
888.507	29
889.658	30.5
890.809	28
891.96	29.5
893.111	31
894.261	27.5
895.411	31
896.561	31
897.71	29.5
898.86	32
900.009	29.5
901.159	32
902.308	27
903.455	28.5
904.604	28
905.753	27
906.901	31
908.048	28.5
909.197	31.5
910.344	28.5
911.492	28
912.639	24.5
913.786	31.5
914.933	29
916.079	27
917.226	30
918.373	28
919.518	30.5
920.664	27
921.81	23.5
922.955	28
924.101	29
925.245	29
926.391	26.5
927.536	27
928.68	27.5
929.825	28
930.968	28
932.113	31
933.256	30.5
934.4	28
935.543	26.5
936.687	31
937.83	31
938.973	29
940.115	29
941.258	27
942.399	30
943.542	31
944.684	33
945.826	29
946.967	31.5
948.109	28
949.25	29.5
950.392	29
951.532	28
952.672	29
953.813	30.5
954.953	30
956.093	28.5
957.233	27
958.373	32
959.512	28
960.652	31.5
961.791	28
962.929	28
964.069	26.5
965.207	27.5
966.345	22
967.484	29
968.622	30
969.759	26
970.896	26
972.035	26
973.172	30
974.309	28.5
975.445	27
976.582	26.5
977.719	26
978.855	26.5
979.991	27
981.127	29
982.263	31
983.398	29
984.535	29.5
985.67	25.5
986.804	30
987.939	26
989.074	30.5
990.208	32
991.342	27.5
992.476	27.5
993.61	28.5
994.744	31.5
995.877	26
997.01	31
998.143	27.5
999.276	26.5
1000.41	26
1001.54	26.5
1002.67	22.5
1003.81	27
1004.94	28
1006.07	29
1007.2	28.5
1008.33	27
1009.47	28.5
1010.6	30.5
1011.73	29
1012.86	27.5
1013.99	25.5
1015.12	28.5
1016.25	26
1017.38	28
1018.51	28.5
1019.64	29
1020.77	25
1021.9	28.5
1023.03	28.5
1024.15	28
1025.28	29.5
1026.41	28
1027.54	27
1028.67	27.5
1029.8	30.5
1030.92	32
1032.05	28
1033.18	24.5
1034.31	29
1035.43	27
1036.56	28.5
1037.69	25
1038.81	29.5
1039.94	29
1041.07	30.5
1042.19	28
1043.32	28.5
1044.44	28
1045.57	24
1046.69	28
1047.82	26.5
1048.94	27.5
1050.07	25.5
1051.19	24
1052.32	29
1053.44	27.5
1054.57	27
1055.69	24.5
1056.81	30
1057.94	26.5
1059.06	25.5
1060.18	27
1061.31	24.5
1062.43	27
1063.55	29
1064.67	27
1065.8	28
1066.92	26
1068.04	26
1069.16	27
1070.28	27.5
1071.4	29.5
1072.52	27.5
1073.64	25.5
1074.76	27
1075.89	30
1077.01	26.5
1078.13	27.5
1079.25	26.5
1080.37	26
1081.49	23
1082.6	27
1083.72	27.5
1084.84	29.5
1085.96	30.5
1087.08	25.5
1088.2	28
1089.32	29
1090.43	27
1091.55	26.5
1092.67	26.5
1093.79	28
1094.91	31.5
1096.02	28.5
1097.14	28.5
1098.26	22.5
1099.37	24.5
1100.49	28.5
1101.61	28.5
1102.72	30
1103.84	29
1104.95	24
1106.07	27
1107.18	27
1108.3	25.5
1109.41	25
1110.53	27.5
1111.64	26.5
1112.76	25
1113.87	23
1114.99	27.5
1116.1	30
1117.21	26
1118.33	29
1119.44	26.5
1120.55	23.5
1121.67	23.5
1122.78	31
1123.89	27.5
1125	28.5
1126.12	27.5
1127.23	26
1128.34	28
1129.45	29.5
1130.56	27.5
1131.68	31
1132.79	26.5
1133.9	25
1135.01	25.5
1136.12	29.5
1137.23	30.5
1138.34	28.5
1139.45	25.5
1140.56	25.5
1141.67	27
1142.78	28.5
1143.89	28
1145	30.5
1146.11	30
1147.22	27.5
1148.32	27.5
1149.43	23
1150.54	26
1151.65	30
1152.76	25
1153.86	26.5
1154.97	25
1156.08	25.5
1157.19	24.5
1158.29	28
1159.4	25.5
1160.51	24
1161.61	25.5
1162.72	27.5
1163.83	28.5
1164.93	31
1166.04	29
1167.14	29
1168.25	25.5
1169.35	31.5
1170.46	25
1171.56	28.5
1172.67	25
1173.77	30
1174.88	26
1175.98	27
1177.08	28
1178.19	24
1179.29	21.5
1180.4	30
1181.5	26.5
1182.6	25
1183.71	25.5
1184.81	26
1185.91	28.5
1187.01	26
1188.12	28.5
1189.22	25
1190.32	20
1191.42	23
1192.52	24
1193.62	22.5
1194.72	27.4895
1195.83	29.3961
1196.93	28.4732
1198.03	25.0713
1199.13	27.5128
1200.23	30.4148
1201.33	26.5854
1202.43	30.1454
1203.53	25.7258
1204.63	24.6833
1205.73	22.636
1206.83	25.7104
1207.92	24.2391
1209.02	25.0243
1210.12	27.1284
1211.22	24.4464
1212.32	23.7238
1213.42	26.5694
1214.51	27.5345
1215.61	28.1429
1216.71	24.8804
1217.81	27.5865
1218.9	27.5888
1220	24.6009
1221.1	26.5956
1222.19	24.383
1223.29	26.6967
1224.39	24.7896
1225.48	24.3076
1226.58	27.6192
1227.68	25.5872
1228.77	25.3159
1229.87	25.4057
1230.96	24.7696
1232.06	26.1005
1233.15	27.8084
1234.25	28.1066
1235.34	23.4364
1236.43	21.4224
1237.53	26.1946
1238.62	25.679
1239.72	28.2081
1240.81	28.5767
1241.9	25.4136
1243	26.0596
1244.09	24.6031
1245.18	25.5761
1246.27	24.019
1247.37	24.3311
1248.46	28.4847
1249.55	25.1087
1250.64	27.4234
1251.74	28.0035
1252.83	25.5589
1253.92	27.3243
1255.01	28.6487
1256.1	26.0759
1257.19	27.4912
1258.28	25.7902
1259.38	25.4843
1260.46	27.1083
1261.56	26.9195
1262.65	27.8121
1263.74	30.2199
1264.82	26.5131
1265.91	26.3326
1267	24.7483
1268.09	27.5739
1269.18	29.1781
1270.27	26.781
1271.36	26.3422
1272.45	26.6496
1273.54	24.8823
1274.63	26.5685
1275.71	27.4824
1276.8	24.9147
1277.89	25.7723
1278.98	25.4356
1280.06	28.0094
1281.15	25.5478
1282.24	26.8016
1283.32	25.7211
1284.41	28.0016
1285.5	24.3467
1286.58	21.6479
1287.67	25.0225
1288.76	24.9856
1289.84	23.9413
1290.93	26.1866
1292.01	26.5446
1293.1	29.3771
1294.18	26.0418
1295.27	27.1687
1296.35	26.5918
1297.44	25.2502
1298.52	25.6978
1299.6	23.2602
1300.69	25.9435
1301.77	24.2842
1302.86	24.2655
1303.94	23.8386
1305.02	26.4308
1306.11	24.2718
1306.41	23
1307.5	24.5
1308.59	26
1309.68	26
1310.77	29.5
1311.85	24.5
1312.94	25.5
1314.03	22
1315.11	25
1316.2	24.5
1317.29	28
1318.37	22.5
1319.46	24
1320.55	26
1321.63	25
1322.72	26.5
1323.8	21.5
1324.89	29.5
1325.98	26.5
1327.06	23.5
1328.15	27
1329.23	26
1330.31	26.5
1331.4	28
1332.48	25
1333.57	24.5
1334.65	24
1335.74	26.5
1336.82	27.5
1337.9	26
1338.99	25
1340.07	24
1341.15	20.5
1342.24	23.5
1343.32	26.5
1344.4	28.5
1345.48	20
1346.56	28
1347.65	27
1348.73	24.5
1349.81	27
1350.89	25
1351.97	26
1353.05	27
1354.13	26.5
1355.21	29
1356.29	26.5
1357.37	25
1358.46	29.5
1359.54	22.5
1360.62	29.5
1361.69	26
1362.77	28
1363.85	27
1364.93	29
1366.01	24.5
1367.09	26.5
1368.17	22
1369.25	25
1370.33	29
1371.41	27
1372.48	21
1373.56	24.5
1374.64	24.5
1375.72	28
1376.79	27.5
1377.87	28
1378.95	29.5
1380.02	24.5
1381.1	27
1382.18	28
1383.25	28
1384.33	30
1385.4	26
1386.48	31
1387.56	27.5
1388.63	28.5
1389.71	29
1390.78	30.5
1391.86	29.5
1392.93	23.5
1394.01	26.5
1395.08	26
1396.15	29.5
1397.23	26
1398.3	32
1399.38	33
1400.45	31
1401.52	31
1402.6	31.5
1403.67	32.5
1404.74	29
1405.81	28
1406.89	33
1407.96	28
1409.03	31
1410.1	31.5
1411.17	32.5
1412.25	31
1413.32	29
1414.39	32.5
1415.46	30.5
1416.53	28.5
1417.6	26.5
1418.67	29
1419.74	30.5
1420.81	28.5
1421.88	27
1422.95	25
1424.02	30.5
1425.09	28
1426.16	30
1427.23	26
1428.3	29
1429.37	25
1430.44	26.5
1431.51	27
1432.58	23.5
1433.64	27
1434.71	24.5
1435.78	29.5
1436.85	28.5
1437.92	26
1438.98	30.5
1440.05	28
1441.12	23
1442.18	27.5
1443.25	27
1444.32	30
1445.38	27
1446.45	26.5
1447.52	28
1448.58	28.5
1449.65	28
1450.71	25
1451.78	27
1452.84	24.5
1453.91	30
1454.97	27.5
1456.04	28.5
1457.1	26
1458.17	29
1459.23	25.5
1460.3	27
1461.36	23.5
1462.42	27
1463.49	23
1464.55	32
1465.61	26
1466.68	24
1467.74	26.5
1468.8	27
1469.86	24
1470.93	24.5
1471.99	30.5
1473.05	27.5
1474.11	26.5
1475.17	27.5
1476.24	27
1477.3	28.5
1478.36	25
1479.42	28.5
1480.48	29
1481.54	30
1482.6	32
1483.66	25.5
1484.72	28
1485.78	25.5
1486.84	27.5
1487.9	23.5
1488.96	28
1490.02	30
1491.08	26.5
1492.14	28
1493.2	30
1494.26	26.5
1495.31	26
1496.37	29.5
1497.43	26
1498.49	25.5
1499.55	27.5
1500.6	27
1501.66	29
1502.72	28.5
1503.78	26
1504.83	26.5
1505.89	26
1506.95	25
1508	27.5
1509.06	26.5
1510.12	27
1511.17	25.5
1512.23	25
1513.28	30.5
1514.34	27
1515.39	28.5
1516.45	29
1517.5	27
1518.56	27.5
1519.61	25.5
1520.67	27
1521.72	30
1522.78	26
1523.83	28.5
1524.88	26.5
1525.94	30
1526.99	26.5
1528.05	26.5
1529.1	21.5
1530.15	28.5
1531.2	28
1532.26	31
1533.31	28.5
1534.36	24
1535.41	24.5
1536.47	25
1537.52	27.5
1538.57	28
1539.62	27.5
1540.67	23
1541.72	28.5
1542.77	27.5
1543.83	23
1544.88	25.5
1545.93	24.5
1546.98	28.5
1548.03	26
1549.08	26.5
1550.13	30
1551.18	25.5
1552.23	23
1553.28	24
1554.32	26.5
1555.37	28.5
1556.42	28.5
1557.47	26.5
1558.52	29
1559.57	24.5
1560.62	26
1561.67	28.5
1562.71	26.5
1563.76	26.5
1564.81	24.5
1565.86	30.5
1566.9	30.5
1567.95	30
1569	26.5
1570.04	25.5
1571.09	26
1572.14	26
1573.18	29.5
1574.23	26.5
1575.27	25
1576.32	29.5
1577.37	26
1578.41	21.5
1579.46	27
1580.5	28.5
1581.55	24.5
1582.59	26.5
1583.64	30.5
1584.68	30.5
1585.72	27
1586.77	27
1587.81	24
1588.86	26
1589.9	22
1590.94	28
1591.99	25
1593.03	26.5
1594.07	29.5
1595.12	23
1596.16	26
1597.2	26
1598.24	27.5
1599.29	26.5
1600.33	27.5
1601.37	24
1602.41	22.5
1603.45	27
1604.49	24
1605.53	26
1606.58	25
1607.62	25
1608.66	26
1609.7	24.5
1610.74	25.5
1611.78	25.5
1612.82	24
1613.86	23
1614.9	28
1615.94	22
1616.98	30.5
1618.02	28
1619.06	24
1620.09	24
1621.13	24.5
1622.17	24.5
1623.21	26
1624.25	25.5
1625.29	28
1626.32	26
1627.36	25
1628.4	23.5
1629.44	28.5
1630.47	23.5
1631.51	28
1632.55	27.5
1633.58	25
1634.62	21
1635.66	25.5
1636.69	25.5
1637.73	29
1638.77	28
1639.8	26.5
1640.84	26
1641.87	25.5
1642.91	23.5
1643.94	28.5
1644.98	30
1646.01	23
1647.05	31
1648.08	26
1649.12	26.5
1650.15	24.5
1651.18	29
1652.22	26.5
1653.25	26.5
1654.29	24
1655.32	25.5
1656.35	23
1657.39	27
1658.42	23.5
1659.45	27.5
1660.48	24
1661.52	25
1662.55	27.5
1663.58	25.5
1664.61	22.5
1665.64	26.5
1666.68	27
1667.71	21
1668.74	31.5
1669.77	26.5
1670.8	23.5
1671.83	26
1672.86	26
1673.89	24
1674.92	26.5
1675.95	26.5
1676.98	25.5
1678.01	28
1679.04	27
1680.07	26.5
1681.1	28
1682.13	27
1683.16	30
1684.19	26.5
1685.22	24
1686.25	27.5
1687.27	27
1688.3	29.5
1689.33	27
1690.36	23
1691.38	28
1692.41	26
1693.44	27.5
1694.47	26
1695.49	23
1696.52	24
1697.55	23
1698.57	25.5
1699.6	25.5
1700.63	28.5
1701.65	29
1702.68	26
1703.7	26
1704.73	25
1705.76	27.5
1706.78	29.5
1707.81	24.5
1708.83	27.5
1709.86	24.5
1710.88	24.5
1711.91	26.5
1712.93	26.5
1713.95	25
1714.98	28.5
1716	23
1717.03	30.5
1718.05	25.5
1719.07	30
1720.1	26.5
1721.12	31.5
1722.14	25
1723.16	28
1724.19	25.5
1725.21	26
1726.23	23
1727.25	27
1728.28	25
1729.3	26
1730.32	26.5
1731.34	21
1732.36	25
1733.38	26
1734.41	26
1735.43	25
1736.45	27.5
1737.47	23.5
1738.49	26.5
1739.51	27.5
1740.53	31.5
1741.55	21
1742.57	26.5
1743.59	22
1744.61	24
1745.63	27.5
1746.64	25
1747.66	27
1748.68	22
1749.7	25.5
1750.72	25.5
1751.74	25.5
1752.76	26.5
1753.77	28
1754.79	28
1755.81	27
1756.83	29.5
1757.84	28.5
1758.86	25
1759.88	26
1760.9	22
1761.91	24.5
1762.93	26.5
1763.95	30
1764.96	26
1765.98	18.5
1766.99	23.5
1768.01	26
1769.02	30
1770.04	26.5
1771.06	26.5
1772.07	26
1773.09	27
1774.1	27
1775.12	23
1776.13	27.5
1777.14	26.5
1778.16	27
1779.17	27.5
1780.19	24.5
1781.2	26
1782.21	23.5
1783.23	28
1784.24	29
1785.25	26.5
1786.27	24
1787.28	24.5
1788.29	25.5
1789.3	25.5
1790.32	25
1791.33	32
1792.34	23.5
1793.35	26.5
1794.36	26.5
1795.38	26
1796.39	29
1797.4	21
1798.41	26
1799.42	26
1800.43	28.5
1801.44	28.5
1802.45	26
1803.46	26
1804.47	23
1805.48	20
1806.49	26
1807.5	28.5
1808.51	23
1809.52	29
1810.53	25
1811.54	27
1812.55	24
1813.56	29.5
1814.57	28.5
1815.57	24.5
1816.58	27.5
1817.59	28.5
1818.6	25
1819.61	23
1820.61	25.5
1821.62	24
1822.63	25
1823.64	31.5
1824.64	26.5
1825.65	26
1826.66	24
1827.66	24
1828.67	24
1829.68	32
1830.68	28.5
1831.69	24
1832.69	23.5
1833.7	29
1834.7	27.5
1835.71	28
1836.71	27.5
1837.72	22
1838.72	25.5
1839.73	24
1840.73	28
1841.74	23
1842.74	25
1843.75	26.5
1844.75	26
1845.75	27.5
1846.76	22.5
1847.76	22
1848.76	25
1849.77	26
1850.77	28.5
1851.77	27
1852.78	26
1853.78	23.5
1854.78	30
1855.78	26.5
1856.78	24
1857.79	23
1858.79	28
1859.79	30
1860.79	27
1861.79	25.5
1862.79	22
1863.79	21.5
1864.79	30
1865.79	22.5
1866.8	29
1867.8	25
1868.8	24
1869.8	26
1870.8	26.5
1871.8	24
1872.8	25
1873.79	25
1874.79	25.5
1875.79	27.5
1876.79	25.5
1877.79	24.5
1878.79	23
1879.79	24
1880.79	23.5
1881.78	25.5
1882.78	28
1883.78	26.5
1884.78	27.5
1885.77	24.5
1886.77	26
1887.77	27.5
1888.77	29
1889.76	27
1890.76	27
1891.76	26
1892.75	25
1893.75	23
1894.75	27.5
1895.74	22.5
1896.74	20.5
1897.73	22
1898.73	24
1899.73	24
1900.72	27
1901.72	27
1902.71	26.5
1903.7	22.5
1904.7	26
1905.69	26
1906.69	27
1907.68	27
1908.68	30
1909.67	27
1910.66	24.5
1911.66	22
1912.65	23
1913.64	26.5
1914.64	26.5
1915.63	27.5
1916.62	28
1917.62	24
1918.61	24.5
1919.6	25
1920.59	22.5
1921.58	22.5
1922.58	24.5
1923.57	27.5
1924.56	26
1925.55	26
1926.54	26
1927.53	20.5
1928.52	24
1929.51	25
1930.51	23
1931.5	26.5
1932.49	23.5
1933.48	25
1934.47	28
1935.46	23
1936.45	26
1937.44	25
1938.42	26.5
1939.41	30
1940.4	24.5
1941.39	26.5
1942.38	28
1943.37	28
1944.36	24
1945.35	23
1946.33	25.5
1947.32	29
1948.31	26.25
1949.3	22.5
1950.29	23
1951.27	28
1952.26	24
1953.25	22.5
1954.23	26.5
1955.22	26.5
1956.21	25.5
1957.19	27
1958.18	22.5
1959.17	26
1960.15	22
1961.14	29.5
1962.13	25
1963.11	23
1964.1	21.5
1965.08	23
1966.07	27.5
1967.05	26.5
1968.04	23.5
1969.02	26.5
1970.01	24.5
1970.99	28.5
1971.97	23
1972.96	23
1973.94	23.5
1974.93	24
1975.91	27.5
1976.89	23
1977.88	26.5
1978.86	25
1979.84	28.5
1980.83	27
1981.81	30
1982.79	27
1983.77	20
1984.76	23
1985.74	26
1986.72	25
1987.7	24
1988.68	23.5
1989.67	25.5
1990.65	22
1991.63	22.5
1992.61	29
1993.59	27.5
1994.57	23.5
1995.55	24
1996.53	21.5
1997.51	25.5
1998.49	26.5
1999.47	28.5
2000.45	24
2001.43	27
2002.41	24.5
2003.39	24.5
2004.37	29
2005.35	22
2006.33	27
2007.31	23
2008.29	23
2009.26	22
2010.24	25
2011.22	23.5
2012.2	23
2013.18	27
2014.15	24
2015.13	26.5
2016.11	25.5
2017.09	28.5
2018.06	26
2019.04	25.5
2020.02	26.5
2021	22.5
2021.97	21
2022.95	24.5
2023.92	24
2024.9	29
2025.88	24.5
2026.85	25.5
2027.83	24
2028.8	25
2029.78	25
2030.75	20.5
2031.73	19
2032.7	26.5
2033.68	28.5
2034.65	26
2035.63	21
2036.6	26
2037.58	22
2038.55	25
2039.52	21.5
2040.5	25
2041.47	25
2042.45	25.5
2043.42	22.5
2044.39	22
2045.36	23
2046.34	22.5
2047.31	26.5
2048.28	23
2049.26	24
2050.23	25
2051.2	25
2052.17	23
2053.14	22
2054.12	25
2055.09	25
2056.06	21
2057.03	25
2058	26
2058.97	28
2059.94	22
2060.91	25.5
2061.88	27.5
2062.85	26.5
2063.82	25
2064.79	25
2065.76	27
2066.73	24.5
2067.7	27
2068.67	25.5
2069.64	26.5
2070.61	23.5
2071.58	22.5
2072.55	25
2073.52	22.5
2074.49	26.5
2075.45	19
2076.42	23.5
2077.39	28.5
2078.36	20
2079.33	23.5
2080.29	22.5
2081.26	21.5
2082.23	25
2083.2	27.5
2084.16	25.5
2085.13	20
2086.1	22
2087.06	24
2088.03	22
2089	23.5
2089.96	25.5
2090.93	25.5
2091.89	25
2092.86	26
2093.83	22.5
2094.79	24
2095.76	21
2096.72	24.5
2097.69	24.5
2098.65	26.5
2099.62	23
2100.58	20.5
2101.55	22
2102.51	24
2103.47	21.5
2104.44	27
2105.4	23.5
2106.36	20.5
2107.33	23
2108.29	26
2109.25	24.5
2110.22	24.5
2111.18	22
2112.14	21.5
2113.11	27.5
2114.07	22
2115.03	23
2115.99	26
2116.96	25
2117.92	29.5
2118.88	23
2119.84	24
2120.8	21
2121.76	24
2122.72	21.5
2123.68	23.5
2124.65	24
2125.61	25.5
2126.57	24.5
2127.53	24.5
2128.49	23
2129.45	25
2130.41	23.5
2131.37	27
2132.33	23
2133.29	21
2134.25	27
2135.21	27
2136.17	20
2137.12	24.5
2138.08	22
2139.04	21
2140	23.5
2140.96	24.5
2141.92	20.5
2142.88	25.4848
2143.83	23.957
2144.79	24.5121
2145.75	24.0202
2146.71	23.0625
2147.66	24.0976
2148.62	22.5243
2149.58	19.8094
2150.53	22.6022
2151.49	22.2466
2152.45	23.2062
2153.4	25.4675
2154.36	21.1764
2155.32	19.7279
2156.27	22.9565
2157.23	19.193
2158.19	25.1301
2159.14	22.0512
2160.1	25.0882
2161.05	23.9726
2162.01	22.5024
2162.96	24.8331
2163.92	25.9956
2164.87	25.0242
2165.83	21.8371
2166.78	21.3714
2167.73	22.7716
2168.69	22.3395
2169.64	25.3083
2170.6	23.0425
2171.55	22.8396
2172.5	26.3428
2173.46	25.0183
2174.41	25.831
2175.36	24.9951
2176.32	23.4225
2177.27	24.1154
2178.22	23.9539
2179.18	23.0708
2180.13	23.629
2181.08	22.904
2182.03	22.9828
2182.98	24.1456
2183.94	24.1553
2184.89	21.5525
2185.84	25.4802
2186.79	24.3718
2187.74	23.1827
2188.69	22.4223
2189.64	22.0188
2190.6	22.2859
2191.55	25.2352
2192.5	24.7549
2193.45	25.0046
2194.4	23.5958
2195.35	24.1332
2196.3	25.4607
2197.25	22.6123
2198.2	23.7722
2199.15	19.7556
2200.1	23.7624
2201.04	23.0827
2201.99	24.3039
2202.94	25.2232
2203.89	23.8605
2204.84	17.5537
2205.79	22.2805
2206.74	26.0332
2207.69	22.5341
2208.63	23.27
2209.58	25.2013
2210.53	22.3341
2211.48	21.1117
2212.43	21.5304
2213.37	22.5213
2214.32	21.1342
2215.27	21.8088
2216.21	22.8067
2217.16	23.8387
2218.11	21.1545
2219.05	20.6565
2220	21.6424
2220.95	21.3042
2221.89	26.7921
2222.84	22.5607
2223.78	21.4533
2224.73	23.4335
2225.68	23.5653
2226.62	22.4993
2227.57	24.0786
2228.51	24.0152
2229.46	21.9228
2230.4	20.2667
2231.35	22.0725
2232.29	24.5961
2233.24	25.6336
2234.18	22.7637
2235.12	21.7597
2236.07	23.0818
2237.01	21.6483
2237.95	20.3529
2238.9	19.6938
2239.84	23.6877
2240.06	25
2241.01	22
2241.96	25
2242.91	23.5
2243.86	21.5
2244.8	22.5
2245.75	25
2246.7	23
2247.65	25
2248.59	24
2249.54	22.5
2250.49	24.5
2251.43	24
2252.38	23
2253.33	24
2254.27	21
2255.22	23.5
2256.16	27
2257.11	24
2258.06	23
2259	24.5
2259.95	26
2260.89	25
2261.84	25
2262.78	23.5
2263.73	19.5
2264.67	26
2265.62	21.5
2266.56	24.5
2267.5	23.5
2268.45	27
2269.39	24.5
2270.34	26.5
2271.28	20
2272.22	23
2273.17	25
2274.11	25
2275.05	24
2276	22.5
2276.94	25
2277.88	22.5
2278.82	23
2279.77	22.5
2280.71	24.5
2281.65	27
2282.59	21
2283.53	25
2284.48	23
2285.42	25.5
2286.36	25
2287.3	23
2288.24	23.5
2289.18	26.5
2290.12	24.5
2291.06	27
2292	27
2292.94	23
2293.89	22
2294.83	23.5
2295.77	26
2296.71	21
2297.65	23
2298.58	26.5
2299.52	22.5
2300.46	24
2301.4	21
2302.34	23
2303.28	20
2304.22	21.5
2305.16	24
2306.1	23.5
2307.03	21.5
2307.97	22
2308.91	28.5
2309.85	22
2310.79	20
2311.72	20
2312.66	24.5
2313.6	23.5
2314.54	23.5
2315.47	24
2316.41	24
2317.35	23
2318.28	20
2319.22	22
2320.16	27.5
2321.09	25.5
2322.03	26
2322.96	24.5
2323.9	23.5
2324.84	24
2325.77	24.5
2326.71	22
2327.64	25
2328.58	25
2329.51	25
2330.45	24.5
2331.38	25
2332.32	21
2333.25	25
2334.18	28
2335.12	24.5
2336.05	22.5
2336.99	25
2337.92	25
2338.85	23
2339.79	24.5
2340.72	22
2341.65	25
2342.59	22.5
2343.52	24.5
2344.45	26.5
2345.39	24
2346.32	21
2347.25	26.5
2348.18	23
2349.11	23
2350.05	23
2350.98	28
2351.91	25.5
2352.84	22.5
2353.77	28
2354.7	25
2355.64	24.5
2356.57	21.5
2357.5	24
2358.43	20
2359.36	19
2360.29	27
2361.22	25
2362.15	22
2363.08	21
2364.01	27.5
2364.94	25.5
2365.87	20
2366.8	28.5
2367.73	26
2368.66	24
2369.58	25
2370.51	28.5
2371.44	21.5
2372.37	23.5
2373.3	25.5
2374.23	24
2375.16	24.5
2376.08	21.5
2377.01	26
2377.94	25
2378.87	25
2379.8	19
2380.72	26.5
2381.65	27
2382.58	22.5
2383.5	22.5
2384.43	25.5
2385.36	23
2386.28	24
2387.21	22.5
2388.14	25
2389.06	26.5
2389.99	25
2390.91	21.5
2391.84	21
2392.77	24.5
2393.69	21
2394.62	22
2395.54	28
2396.47	21.5
2397.39	27.5
2398.32	22.5
2399.24	21
2400.16	26.5
2401.09	22
2402.01	26
2402.94	23
2403.86	25.5
2404.78	25.5
2405.71	23.5
2406.63	25.5
2407.56	24
2408.48	21
2409.4	27.5
2410.32	24.5
2411.25	26
2412.17	25.5
2413.09	21
2414.02	24.5
2414.94	23
2415.86	23
2416.78	29
2417.7	24
2418.63	22
2419.55	24
2420.47	28.5
2421.39	20
2422.31	20.5
2423.23	24
2424.15	24
2425.07	24
2425.99	25
2426.92	24
2427.84	28.5
2428.76	24.5
2429.68	22.5
2430.59	26
2431.51	22.5
2432.43	25.5
2433.35	20
2434.27	21
2435.19	23.5
2436.11	30
2437.03	25
2437.95	21.5
2438.87	29
2439.79	25
2440.71	25
2441.62	20.5
2442.54	19.5
2443.46	23
2444.38	23
2445.3	24
2446.21	23
2447.13	22.5
2448.05	26.5
2448.97	28.5
2449.88	24.5
2450.8	22.5
2451.72	25.5
2452.63	22.5
2453.55	25
2454.47	22
2455.38	24.5
2456.3	25.5
2457.21	24.5
2458.13	26
2459.05	24.5
2459.96	27
2460.88	22
2461.79	23.5
2462.71	27
2463.62	22.5
2464.54	25
2465.45	22.5
2466.37	29
2467.28	26
2468.2	24.5
2469.11	24.5
2470.02	23
2470.94	21
2471.85	22
2472.77	22.5
2473.68	26
2474.59	20.5
2475.51	23
2476.42	21.5
2477.33	20.5
2478.25	23.5
2479.16	27.5
2480.07	23.5
2480.98	23.5
2481.9	26
2482.81	26
2483.72	22
2484.63	19
2485.55	27
2486.46	24
2487.37	23.5
2488.28	22
2489.19	23.5
2490.1	22
2491.01	23
2491.92	27
2492.83	26
2493.74	24.5
2494.66	23
2495.57	27.5
2496.48	27
2497.39	24.5
2498.3	25.5
2499.21	23.5
2500.12	26.5
2501.03	25
2501.93	27
2502.84	22.5
2503.75	26.5
2504.66	20
2505.57	23
2506.48	25
2507.39	27.5
2508.3	20
2509.21	26.5
2510.11	26.5
2511.02	24.5
2511.93	23
2512.84	27
2513.75	26.5
2514.65	22
2515.56	25
2516.47	25
2517.37	21
2518.28	24
2519.19	26
2520.09	24
2521	25
2521.91	25.5
2522.81	25.5
2523.72	26.5
2524.63	26
2525.53	22.5
2526.44	25
2527.34	27
2528.25	25
2529.16	26
2530.06	24
2530.97	27
2531.87	23
2532.78	26.5
2533.68	19.5
2534.58	29
2535.49	24
2536.39	25.5
2537.3	27.5
2538.2	24.5
2539.11	23
2540.01	23.5
2540.91	22.5
2541.82	28.5
2542.72	23.5
2543.62	24.5
2544.53	27.5
2545.43	25
2546.33	27
2547.23	25.5
2548.14	21
2549.04	23.5
2549.94	26.5
2550.84	21.5
2551.75	24.5
2552.65	26.5
2553.55	25
2554.45	27
2555.35	23.5
2556.26	23.5
2557.16	19
2558.06	25
2558.96	24
2559.86	24.5
2560.76	27
2561.66	24
2562.56	26.5
2563.46	22
2564.36	27.5
2565.26	26.5
2566.16	23.5
2567.06	23.5
2567.96	24
2568.86	25.5
2569.76	27.5
2570.66	23
2571.56	25.5
2572.46	23
2573.36	24
2574.26	25
2575.16	26.5
2576.05	25.5
2576.95	27
2577.85	25.5
2578.75	29.5
2579.65	21
2580.54	27
2581.44	19.5
2582.34	21
2583.24	25.5
2584.13	24
2585.03	27.5
2585.93	23
2586.83	25.5
2587.72	22
2588.62	26.5
2589.52	22
2590.41	24
2591.31	26
2592.2	22
2593.1	23.5
2594	26
2594.89	26
2595.79	25.5
2596.68	19
2597.58	29
2598.47	28
2599.37	22.5
2600.26	26
2601.16	28
2602.05	22
2602.95	26
2603.84	26
2604.74	26
2605.63	29.5
2606.52	25.5
2607.42	24.5
2608.31	27
2609.21	25
2610.1	25
2610.99	25.5
2611.89	26
2612.78	23.5
2613.67	27
2614.56	22.5
2615.46	25
2616.35	22.5
2617.24	22.5
2618.13	25
2619.03	24
2619.92	26
2620.81	26.5
2621.7	22
2622.59	22
2623.49	30
2624.38	22.5
2625.27	25.5
2626.16	24
2627.05	26
2627.94	21.5
2628.83	30.5
2629.72	23
2630.61	21
2631.5	27
2632.39	24.5
2633.28	22
2634.17	24
2635.06	27
2635.95	21
2636.84	26
2637.73	26
2638.62	21.5
2639.51	22.5
2640.4	25
2641.29	24
2642.18	23.5
2643.07	27
2643.96	26
2644.84	24.5
2645.73	25
2646.62	27.5
2647.51	25.5
2648.4	24.5
2649.28	20
2650.17	28.5
2651.06	23.5
2651.95	21
2652.83	27
2653.72	25.5
2654.61	26
2655.49	26.5
2656.38	22.5
2657.27	23.5
2658.16	29.5
2659.04	22.5
2659.93	27
2660.81	25.5
2661.7	29.5
2662.59	24
2663.47	23.5
2664.36	23
2665.24	24.5
2666.13	22
2667.01	23.5
2667.9	21
2668.78	27.5
2669.67	27
2670.55	26.5
2671.44	25
2672.32	26.5
2673.21	25.5
2674.09	19
2674.97	20.5
2675.86	27
2676.74	25
2677.62	22
2678.51	22.5
2679.39	23
2680.27	24.5
2681.16	23
2682.04	25
2682.92	23
2683.81	27
2684.69	23.5
2685.57	23
2686.45	26
2687.34	24.5
2688.22	24
2689.1	21
2689.98	28
2690.86	22.5
2691.75	21
2692.63	27
2693.51	26.5
2694.39	24
2695.27	24.5
2696.15	23
2697.03	23.5
2697.91	24
2698.79	25
2699.67	25.5
2700.55	22
2701.43	20
2702.31	25
2703.19	26
2704.07	21.5
2704.95	27
2705.83	26.5
2706.71	31.5
2707.59	23
2708.47	26.5
2709.35	28.5
2710.23	23
2711.11	22.5
2711.99	24
2712.86	28
2713.74	24.5
2714.62	24
2715.5	25.5
2716.38	25.5
2717.26	25.5
2718.13	24
2719.01	28.5
2719.89	29.5
2720.77	26.5
2721.64	25.5
2722.52	24.5
2723.4	24
2724.27	26.5
2725.15	23.5
2726.03	22
2726.9	26.5
2727.78	24
2728.66	28.5
2729.53	23
2730.41	23.5
2731.28	26.5
2732.16	23.5
2733.03	22
2733.91	23
2734.79	22
2735.66	21
2736.54	21
2737.41	24
2738.29	23
2739.16	28
2740.03	23
2740.91	27
2741.78	26.5
2742.66	27.5
2743.53	25
2744.41	23.5
2745.28	23
2746.15	24
2747.03	25
2747.9	25.5
2748.77	22
2749.65	21
2750.52	22.5
2751.39	21.5
2752.27	26.5
2753.14	24.5
2754.01	26
2754.88	20
2755.75	25
2756.63	22
2757.5	23.5
2758.37	24
2759.24	25
2760.11	20
2760.99	28
2761.86	23
2762.73	26
2763.6	25.5
2764.47	28
2765.34	29.5
2766.21	22
2767.08	24
2767.95	25.5
2768.82	24.5
2769.69	27
2770.56	27
2771.43	22.5
2772.3	26
2773.17	23.5
2774.04	23.5
2774.91	24
2775.78	24
2776.65	26.5
2777.52	22.5
2778.39	26.5
2779.26	27
2780.13	21.5
2780.99	23.5
2781.86	27.5
2782.73	26
2783.6	22
2784.47	25.5
2785.34	24.5
2786.2	26
2787.07	29.5
2787.94	20.5
2788.81	26.5
2789.67	18
2790.54	25
2791.41	27
2792.27	27.5
2793.14	22.5
2794.01	28
2794.87	29.5
2795.74	24.5
2796.61	20.5
2797.47	24.5
2798.34	27.5
2799.21	28
2800.07	23
2800.94	24
2801.8	24
2802.67	23
2803.53	22
2804.4	23.5
2805.26	26
2806.13	23
2806.99	29
2807.86	22
2808.72	22
2809.59	28.5
2810.45	23
2811.32	26.5
2812.18	31.5
2813.04	27
2813.91	24.5
2814.77	25
2815.64	22.5
2816.5	23
2817.36	27
2818.22	31
2819.09	27.5
2819.95	26
2820.81	25
2821.68	26.5
2822.54	28
2823.4	25
2824.26	22.5
2825.13	25
2825.99	23.5
2826.85	25.5
2827.71	28.5
2828.57	24.5
2829.44	30
2830.3	26
2831.16	28.5
2832.02	21
2832.88	25.5
2833.74	25
2834.6	24
2835.46	29.5
2836.32	26
2837.18	25
2838.04	22.5
2838.9	25.5
2839.76	26
2840.62	27
2841.48	30
2842.34	26
2843.2	26.5
2844.06	24.5
2844.92	27
2845.78	24
2846.64	24.5
2847.5	23.5
2848.36	24.5
2849.22	24.5
2850.08	24
2850.93	26.5
2851.79	26.5
2852.65	26
2853.51	30
2854.37	30
2855.22	23.5
2856.08	23
2856.94	28.5
2857.8	25.5
2858.65	24.5
2859.51	28
2860.37	26
2861.23	29
2862.08	28
2862.94	30
2863.79	26
2864.65	24.5
2865.51	26
2866.36	29
2867.22	26.5
2868.08	23.5
2868.93	30.5
2869.79	28.5
2870.64	28.5
2871.5	31
2872.35	27.5
2873.21	28.5
2874.06	28
2874.92	27
2875.77	30
2876.63	28.5
2877.48	35
2878.34	29.5
2879.19	28.5
2880.05	33.5
2880.9	33
2881.76	30
2882.61	28.5
2883.46	28
2884.32	32.5
2885.17	37.5
2886.02	30.5
2886.88	29
2887.73	29.5
2888.58	37
2889.44	37.5
2890.29	36
2891.14	37
2891.99	42
2892.85	38
2893.7	37
2894.55	40.5
2895.4	42.5
2896.25	48
2897.11	53
2897.96	50
2898.81	52
2899.66	52
2900.51	58
2901.36	59
2902.21	58
2903.07	57
2903.92	62
2904.77	69
2905.62	61
2906.47	66
2907.32	69
2908.17	65
2909.02	68.5
2909.87	57
2910.72	59
2911.57	56
2912.42	53.5
2913.27	47
2914.12	45.5
2914.97	45
2915.81	45.5
2916.66	43.5
2917.51	40
2918.36	35.5
2919.21	33.5
2920.06	37.5
2920.91	35
2921.75	32
2922.6	34
2923.45	34
2924.3	32
2925.15	34
2925.99	29
2926.84	29.5
2927.69	32.5
2928.54	32
2929.38	29.5
2930.23	30
2931.08	27.5
2931.92	30
2932.77	32
2933.62	26
2934.46	31
2935.31	22.5
2936.16	30
2937	30
2937.85	32
2938.69	31
2939.54	28.5
2940.38	32
2941.23	29
2942.08	31.5
2942.92	25.5
2943.77	26
2944.61	25
2945.46	27
2946.3	26.5
2947.15	28.5
2947.99	30.5
2948.83	30.5
2949.68	25
2950.52	31
2951.37	31.5
2952.21	34.5
2953.05	28
2953.9	31.5
2954.74	30
2955.58	32
2956.43	33
2957.27	35
2958.11	38
2958.96	35
2959.8	35
2960.64	35
2961.48	36
2962.33	43
2963.17	44
2964.01	43
2964.85	44
2965.69	40
2966.54	41.5
2967.38	41
2968.22	39
2969.06	33.5
2969.9	39
2970.74	39
2971.58	39.4879
2972.43	36.4803
2973.27	36.9515
2974.11	33.5199
2974.95	32.6053
2975.79	33.0969
2976.63	32.4806
2977.47	29.7223
2978.31	34.9221
2979.15	29.6876
2979.99	28.9923
2980.83	27.8119
2981.67	26.316
2982.51	31.0417
2983.35	28.9527
2984.19	27.4296
2985.03	26.7719
2985.86	28.2489
2986.7	24.1462
2987.54	26.2922
2988.38	25.6168
2989.22	26.4487
2990.06	24.3559
2990.9	26.4023
2991.73	24.7621
2992.57	26.5152
2993.41	25.4553
2994.25	24.4497
2995.09	27.6634
2995.92	25.5518
2996.76	25.2868
2997.6	23.698
2998.44	26.1583
2999.27	27.2427
3000.11	19.7962
3000.95	23.6531
3001.78	21.4922
3002.62	21.598
3003.46	24.1927
3004.29	25.2631
3005.13	25.3304
3005.96	23.6657
3006.8	22.7076
3007.64	25.1941
3008.47	22.8817
3009.31	24.0271
3010.14	21.4434
3010.98	25.0543
3011.81	22.0428
3012.65	23.0751
3013.48	23.1529
3014.32	23.0806
3015.15	25.8233
3015.99	24.4477
3016.82	22.9831
3017.66	24.2142
3018.49	24.1027
3019.33	23.1495
3020.16	24.5233
3020.99	22.6801
3021.83	23.5446
3022.66	23.8802
3023.5	22.5898
3024.33	22.0162
3025.16	22.8609
3026	21.3497
3026.83	22.4873
3027.66	22.9741
3028.49	23.9785
3029.33	23.3374
3030.16	23.9398
3030.99	23.0359
3031.83	21.6481
3032.66	21.4639
3033.49	24.8314
3034.32	24.0575
3035.15	23.0286
3035.99	22.3244
3036.82	23.3863
3037.65	24.9484
3038.48	24.1584
3039.31	23.519
3040.14	23.1119
3040.97	22.3867
3041.81	22.3204
3042.64	23.6594
3043.47	24.048
3044.3	23.2455
3045.13	24.3115
3045.96	23.1965
3046.79	22.0488
3047.62	22.8525
3048.45	22.9851
3049.28	23.2872
3050.11	23.5064
3050.94	24.4994
3051.77	23.7674
3052.6	22.7185
3053.43	22.668
3054.26	22.5521
3055.08	19.5713
3055.91	18.4212
3056.74	19.9448
3057.26	19
3058.09	25.5
3058.92	22
3059.76	22
3060.59	20.5
3061.42	18.5
3062.25	25
3063.09	23.5
3063.92	25.5
3064.75	18.5
3065.58	22
3066.42	18.5
3067.25	25
3068.08	22
3068.91	22
3069.74	23.5
3070.57	27
3071.41	22.5
3072.24	25
3073.07	28
3073.9	23
3074.73	22
3075.56	24
3076.39	22.5
3077.22	25.5
3078.05	23.5
3078.88	24.5
3079.71	27
3080.54	25.5
3081.37	26
3082.2	26.5
3083.03	22
3083.86	25.5
3084.69	21
3085.52	22.5
3086.35	24
3087.18	23
3088.01	24
3088.84	24
3089.67	25.5
3090.5	24.5
3091.32	22.5
3092.15	24.5
3092.98	23.5
3093.81	24.5
3094.64	24
3095.47	24.5
3096.29	20
3097.12	23.5
3097.95	23
3098.78	23.5
3099.6	21.5
3100.43	25
3101.26	23
3102.09	23.5
3102.91	24
3103.74	22.5
3104.57	23
3105.39	25
3106.22	25
3107.05	20
3107.87	22.5
3108.7	25
3109.52	18
3110.35	24.5
3111.18	23
3112	25.5
3112.83	24.5
3113.65	25.5
3114.48	22
3115.3	25
3116.13	23
3116.95	22
3117.78	22.5
3118.6	25
3119.43	24
3120.25	21
3121.08	25
3121.9	24
3122.72	23.5
3123.55	24
3124.37	22.5
3125.2	22
3126.02	27
3126.84	26
3127.67	26
3128.49	25
3129.31	25
3130.14	25
3130.96	25.5
3131.78	21
3132.61	23.5
3133.43	24
3134.25	26.5
3135.07	24
3135.89	19
3136.72	22.5
3137.54	24
3138.36	26
3139.18	21.5
3140	31
3140.83	22
3141.65	23
3142.47	22
3143.29	25
3144.11	24
3144.93	22.5
3145.75	23
3146.57	21
3147.4	22
3148.22	23
3149.04	25
3149.86	21
3150.68	23
3151.5	25
3152.32	25.5
3153.14	21.5
3153.96	22.5
3154.78	25.5
3155.59	25
3156.42	25.5
3157.23	25.5
3158.05	22
3158.87	26.5
3159.69	22
3160.51	20
3161.33	23
3162.15	20.5
3162.97	23.5
3163.78	22.5
3164.6	21
3165.42	21.5
3166.24	21.5
3167.06	23
3167.87	24
3168.69	22
3169.51	25
3170.33	24.5
3171.14	26
3171.96	27.5
3172.78	22
3173.6	23
3174.41	27
3175.23	23
3176.05	21.5
3176.86	21.5
3177.68	25
3178.5	23.5
3179.31	22
3180.13	24.5
3180.94	17
3181.76	21
3182.58	24
3183.39	24
3184.21	22
3185.02	30
3185.84	25
3186.65	25
3187.47	21.5
3188.28	26
3189.1	23.5
3189.91	24.5
3190.73	24.5
3191.54	22.5
3192.36	26.5
3193.17	23
3193.98	24
3194.8	24.5
3195.61	24
3196.43	25
3197.24	24.5
3198.05	26
3198.87	23.5
3199.68	22
3200.49	20
3201.31	25
3202.12	26.5
3202.93	25.5
3203.75	25
3204.56	24
3205.37	26
3206.18	24.5
3207	24
3207.81	25
3208.62	22.5
3209.43	21.5
3210.24	24.5
3211.06	26
3211.87	24
3212.68	26
3213.49	21
3214.3	25.5
3215.11	26
3215.92	23
3216.73	22
3217.55	24.5
3218.36	22.5
3219.17	25
3219.98	23
3220.79	22.5
3221.6	27
3222.41	24.5
3223.22	24
3224.03	24
3224.84	25
3225.65	23
3226.46	23
3227.27	25
3228.08	26
3228.89	29
3229.7	23.5
3230.5	23.5
3231.31	22.5
3232.12	24.5
3232.93	25
3233.74	27.5
3234.55	27
3235.36	25.5
3236.16	25
3236.97	23.5
3237.78	18
3238.59	31
3239.4	22
3240.2	24.5
3241.01	20
3241.82	25
3242.63	20
3243.43	24
3244.24	22.5
3245.05	27
3245.85	26.5
3246.66	24.5
3247.47	22
3248.27	23.5
3249.08	25
3249.89	22.5
3250.69	21
3251.5	27.5
3252.31	23.5
3253.11	26
3253.92	24
3254.72	22
3255.53	20.5
3256.33	25
3257.14	25
3257.94	26
3258.75	18
3259.55	24.5
3260.36	27
3261.16	26.5
3261.97	24
3262.77	24.5
3263.58	23
3264.38	26
3265.19	25.5
3265.99	22.5
3266.79	19.5
3267.6	24.5
3268.4	24
3269.21	22.5
3270.01	25
3270.81	25
3271.62	23.5
3272.42	23.5
3273.22	23.5
3274.03	20
3274.83	24.5
3275.63	23.5
3276.43	22.5
3277.24	23
3278.04	24.5
3278.84	24
3279.64	24
3280.45	22
3281.25	22
3282.05	22
3282.85	24.5
3283.65	26
3284.45	19
3285.26	27
3286.06	25
3286.86	26
3287.66	21
3288.46	25
3289.26	24
3290.06	23
3290.86	23
3291.66	23
3292.46	22.5
3293.26	18
3294.06	19
3294.86	26
3295.66	23
3296.46	23
3297.26	23
3298.06	26
3298.86	20.5
3299.66	21.5
3300.46	23.5
3301.26	24
3302.06	23.5
3302.86	25
3303.66	26
3304.46	24
3305.25	24
3306.05	22.5
3306.85	23.5
3307.65	24
3308.45	24.5
3309.25	26
3310.04	27
3310.84	23.5
3311.64	22
3312.44	24
3313.23	26.5
3314.03	26
3314.83	24
3315.63	25.5
3316.42	20.5
3317.22	22.5
3318.02	23.5
3318.81	27
3319.61	25.5
3320.41	21
3321.2	27.5
3322	23
3322.8	27.5
3323.59	23
3324.39	25
3325.18	23
3325.98	27
3326.78	21
3327.57	24
3328.37	23
3329.16	22.5
3329.96	25
3330.75	23
3331.55	25.5
3332.34	25
3333.14	27
3333.93	27.5
3334.73	20.5
3335.52	21.5
3336.31	22
3337.11	22.5
3337.9	22
3338.7	24.5
3339.49	24
3340.28	22.5
3341.08	25
3341.87	28
3342.66	19.5
3343.46	24
3344.25	21
3345.04	24.5
3345.84	21.5
3346.63	22
3347.42	25
3348.22	23
3349.01	23.5
3349.8	25.5
3350.59	26.5
3351.39	25
3352.18	25.5
3352.97	24.5
3353.76	24
3354.55	25.5
3355.35	23
3356.14	23
3356.93	24
3357.72	22
3358.51	23
3359.3	20
3360.09	27.5
3360.88	25.5
3361.67	23
3362.46	24
3363.26	25
3364.05	22
3364.84	20.5
3365.63	21.5
3366.42	26
3367.21	21
3368	24
3368.79	24
3369.58	21.5
3370.37	28
3371.15	24.5
3371.94	24
3372.73	24.5
3373.52	24
3374.31	23
3375.1	26.5
3375.89	21
3376.68	24
3377.47	26.5
3378.26	25
3379.04	26
3379.83	25
3380.62	25.5
3381.41	25
3382.2	23
3382.98	22.5
3383.77	22.5
3384.56	26.5
3385.35	24.5
3386.13	19
3386.92	20.5
3387.71	22
3388.5	23.5
3389.28	19
3390.07	22.5
3390.86	23.5
3391.64	22.5
3392.43	23.5
3393.22	25.5
3394	24
3394.79	25
3395.57	26.5
3396.36	25
3397.15	22.5
3397.93	23
3398.72	27.5
3399.5	23
3400.29	26.5
3401.07	26
3401.86	27
3402.65	25
3403.43	27.5
3404.21	26
3405	23
3405.78	23
3406.57	22
3407.35	25
3408.14	26.5
3408.92	24
3409.71	22
3410.49	19.5
3411.27	21
3412.06	26.5
3412.84	18.5
3413.62	24.5
3414.41	23
3415.19	22
3415.97	23
3416.76	24
3417.54	22
3418.32	26
3419.11	24.5
3419.89	28
3420.67	23
3421.46	25.5
3422.24	26
3423.02	20.5
3423.8	25.5
3424.58	26
3425.37	26
3426.15	21
3426.93	25
3427.71	19
3428.49	23
3429.27	24
3430.05	24.5
3430.84	23
3431.62	24.5
3432.4	21.5
3433.18	22
3433.96	19
3434.74	27
3435.52	26.5
3436.3	24
3437.08	29
3437.86	24.5
3438.64	26
3439.42	22
3440.2	24
3440.98	24.5
3441.76	20
3442.54	26
3443.32	22
3444.1	20.5
3444.88	24
3445.66	26
3446.44	27.5
3447.22	19
3448	24.5
3448.77	24.5
3449.55	29
3450.33	24.5
3451.11	24
3451.89	21
3452.67	28
3453.45	19
3454.22	20.5
3455	24
3455.78	23
3456.56	28
3457.33	22.5
3458.11	24.5
3458.89	20
3459.67	22.5
3460.44	26
3461.22	24.5
3462	25
3462.77	24.5
3463.55	24
3464.33	25
3465.1	27
3465.88	20.5
3466.66	25
3467.43	22.5
3468.21	22
3468.98	24
3469.76	23.5
3470.54	26.5
3471.31	24.5
3472.09	27.5
3472.86	24
3473.64	24
3474.41	18
3475.19	20.5
3475.96	26.5
3476.74	23
3477.51	22.5
3478.29	25
3479.06	27.5
3479.84	26.5
3480.61	23
3481.39	24.5
3482.16	25
3482.93	26
3483.71	20.5
3484.48	25
3485.25	22.5
3486.03	19
3486.8	26
3487.57	26
3488.35	26.5
3489.12	25
3489.89	26
3490.67	20
3491.44	24.5
3492.21	25
3492.99	24
3493.76	24
3494.53	21.5
3495.3	23
3496.08	26.5
3496.85	23
3497.62	28
3498.39	24
3499.16	21.5
3499.93	23
