#Acq. time (s)=	5
#Accumulations=	5
#Range (cm-¹)=	100...3500
#Windows=	4
#Autofocus=	Off
#AutoExposure=	Off
#Spike filter=	Multiple accum.
#Delay time (s)=	0
#Binning=	1
#Readout mode=	Signal
#DeNoise=	Off
#ICS correction=	Off
#Dark correction=	Off
#Inst. Process=	Off
#Instrument=	LabRAM HR Evol
#Detector=	Syncerity OE
#Objective=	x100_VIS
#Grating=	600 (500nm)
#ND Filter=	25%
#Laser=	633nm_Edge
#Hole=	100.021
#Range=	Visible
#Project=	verificaciones
#Sample=	at1
#Site=	lined
#Title=	bolusat1lined
#Remark=	
#Date=	13.01.2026 13:48
#Acquired=	13.01.2026 13:48:13
100.692	23
101.975	30
103.258	34
104.542	32
105.824	30
107.107	27
108.39	29.5
109.672	32
110.954	29
112.236	26.5
113.519	29.5
114.8	30
116.081	31
117.362	31.5
118.643	29
119.924	28.5
121.204	32.5
122.484	30
123.764	30.5
125.044	26
126.323	29
127.603	34
128.882	29.5
130.161	33.5
131.438	30.5
132.716	28
133.995	33.5
135.273	29.5
136.55	33.5
137.828	31.5
139.106	37
140.383	34
141.66	34.5
142.937	35
144.213	34.5
145.488	34
146.764	39
148.04	35.5
149.316	34
150.592	33.5
151.867	35
153.141	35
154.416	37
155.69	38
156.965	36
158.239	37
159.512	40.5
160.786	36.5
162.059	40
163.333	32
164.605	38.5
165.878	38.5
167.15	35
168.423	36.5
169.694	38
170.966	38.5
172.238	36
173.51	41
174.78	38
176.052	34
177.323	37
178.592	36
179.863	39
181.134	37
182.403	41
183.673	39
184.943	41
186.211	41.5
187.481	37
188.749	41.5
190.018	38
191.287	36
192.554	41
193.822	38.5
195.089	40
196.357	36.5
197.625	39.5
198.891	36
200.159	34
201.425	40
202.692	33.5
203.957	35.5
205.224	30
206.489	42
207.755	37
209.02	35.5
210.286	33
211.55	31.5
212.815	36
214.079	31
215.344	30
216.607	36
217.872	31
219.135	31.5
220.399	29.5
221.662	32
222.924	27.5
224.187	30
225.449	35
226.713	32.5
227.974	32
229.235	29
230.498	33
231.759	32
233.019	30.5
234.281	33
235.542	29.5
236.802	30
238.063	30.5
239.323	30
240.582	31.5
241.843	31
243.102	31.5
244.361	33
245.621	29
246.879	33
248.138	27.5
249.396	28
250.655	32
251.913	28
253.17	27.5
254.427	27.5
255.686	30.5
256.943	31.5
258.199	28.5
259.456	31.5
260.712	33
261.969	28.5
263.225	29
264.481	24.5
265.736	29
266.991	31
268.246	30.5
269.502	28
270.757	30.5
272.011	26
273.265	28
274.519	29
275.773	26
277.027	24
278.28	25
279.533	31.5
280.786	26.5
282.04	28
283.293	28
284.545	25.5
285.798	33
287.049	28
288.301	30
289.553	29
290.804	28
292.055	29
293.306	30
294.557	26
295.807	34
297.058	25.5
298.308	29
299.558	29.5
300.808	29
302.057	31.5
303.305	29
304.554	26
305.803	27.5
307.052	31.5
308.3	25.5
309.549	34
310.797	30
312.045	30.5
313.292	23
314.54	28
315.786	25.5
317.033	27.5
318.28	23
319.526	29
320.773	28
322.019	33.5
323.264	30.5
324.51	28
325.755	26
327.001	31.5
328.246	26.5
329.49	31
330.735	32.5
331.979	28.5
333.224	27
334.467	33
335.711	29
336.955	25
338.199	33
339.441	27.5
340.684	26.5
341.927	28.5
343.168	28.5
344.411	30
345.654	29
346.895	26
348.137	26
349.379	32
350.619	25
351.86	28.5
353.102	29
354.341	30
355.582	29
356.821	23.5
358.062	31
359.302	30
360.541	27
361.781	27.5
363.019	29
364.259	25
365.496	28
366.736	33
367.974	27.5
369.212	30
370.45	26
371.687	31
372.925	29
374.162	28
375.399	30.5
376.635	26
377.873	32.5
379.109	27.5
380.344	30
381.581	29.5
382.816	27.5
384.052	30.5
385.287	23.5
386.523	28.5
387.757	26.5
388.991	30
390.227	27
391.46	32.5
392.695	27
393.928	27
395.162	31
396.396	27
397.629	31
398.861	27
400.095	29
401.327	30.5
402.559	32
403.792	25.5
405.024	26.5
406.255	31
407.488	26
408.719	30
409.949	29.5
411.18	29.5
412.412	27
413.642	28.5
414.872	27.5
416.102	29
417.333	30
418.562	28
419.791	23
421.02	29
422.249	27
423.479	29
424.707	30.5
425.935	28.5
427.163	27
428.391	24
429.619	24.5
430.848	24
432.075	29
433.302	28
434.529	33.5
435.755	26.5
436.982	26.5
438.208	27.5
439.434	28
440.66	27.5
441.885	26.5
443.111	30.5
444.338	26
445.563	27
446.788	30
448.012	29
449.237	28
450.461	25.5
451.685	27
452.909	29
454.133	34.5
455.356	26.5
456.579	28
457.802	29.5
459.025	31.5
460.247	31
461.469	27.5
462.691	32.5
463.914	32
465.136	29.5
466.357	29.5
467.579	32.5
468.8	29
470.021	32
471.242	33
472.462	34.5
473.682	34
474.903	37
476.123	37.5
477.343	39
478.563	39
479.782	46
481	50.5
482.219	47.5
483.438	51.5
484.657	51
485.874	52
487.093	49.5
488.311	54.5
489.529	53.5
490.747	49
491.963	47
493.181	51.5
494.398	52
495.614	48
496.83	47
498.047	41
499.264	42
500.479	40.5
501.695	42
502.911	39.5
504.125	39
505.34	39.5
506.554	40.5
507.769	36
508.984	34.5
510.198	33
511.412	31.5
512.627	34
513.839	35.5
515.053	34.5
516.266	30
517.479	35
518.691	35
519.905	36.5
521.118	34.5
522.329	35
523.542	26.5
524.753	33
525.965	30.5
527.176	29.5
528.388	28.5
529.598	32.5
530.809	30.5
532.019	33
533.23	31.5
534.44	32.5
535.649	29.5
536.86	29
538.068	30
539.279	30
540.487	26
541.697	27
542.905	32
544.113	28
545.322	28
546.53	30.5
547.737	27
548.946	29
550.153	30
551.361	27.5
552.568	27
553.774	31
554.982	28.5
556.188	27
557.394	30.5
558.599	29
559.806	28.5
561.012	31.5
562.217	28
563.423	27
564.628	29.5
565.832	26.5
567.036	28.5
568.241	27
569.446	27.5
570.65	27
571.853	25
573.057	29.5
574.26	24
575.464	29
576.667	29
577.87	28
579.072	29.5
580.274	29.5
581.477	27.5
582.68	29
583.881	25
585.083	27
586.284	29
587.485	26.5
588.686	28
589.887	33.5
591.087	31.5
592.288	28.5
593.488	32.5
594.688	28.5
595.888	24
597.087	31.5
598.287	26.5
599.486	26
600.685	31
601.884	28
603.082	31
604.281	33
605.479	31.5
606.677	29
607.875	27
609.073	27.5
610.27	29
611.468	27.5
612.665	29
613.862	27
615.058	26
616.255	29.5
617.451	30.5
618.648	28.5
619.842	32
621.038	27.5
622.234	27.5
623.429	31.5
624.624	29.5
625.819	27
627.013	26
628.207	28
629.402	28
630.596	31
631.79	24
632.983	31.5
634.177	30
635.37	28
636.564	27
637.755	26
638.948	25
640.141	26
641.334	27
642.525	27
643.717	30
644.909	31.5
646.099	30
647.291	30.5
648.483	29
649.674	28.5
650.864	30
652.055	27.5
653.244	26
654.435	31
655.625	32
656.814	31
658.004	31
659.193	29
660.382	30
661.571	31
662.759	29
663.948	27.5
665.135	33
666.324	31
667.511	29
668.7	30.5
669.886	26.5
671.074	26
672.262	26.5
673.448	30
674.634	30
675.821	32
677.007	30.5
678.194	37
679.379	33
680.565	32.5
681.75	34
682.936	31.5
684.121	34
685.305	36.5
686.491	33
687.675	31.5
688.86	34
690.043	31
691.227	35
692.411	33
693.594	31.5
694.777	34
695.961	28.5
697.144	37
698.326	35
699.509	35.5
700.691	34.5
701.873	34
703.056	36
704.237	38
705.419	43
706.599	43.5
707.782	48.5
708.962	47.5
710.143	46.5
711.323	47.5
712.504	37
713.684	37.5
714.864	33
716.043	36.5
717.223	33
718.403	32
719.582	34.5
720.761	32
721.94	29
723.118	23.5
724.296	30
725.474	31
726.652	27
727.831	28
729.009	29
730.186	28.5
731.363	25
732.54	27.5
733.717	28.5
734.893	28
736.07	29
737.246	28
738.422	26
739.598	24.5
740.773	27
741.949	26.5
743.124	28
744.299	28
745.474	30
746.649	32
747.823	29
748.997	27.5
750.172	27
751.346	30
752.519	28.5
753.693	26
754.867	31.5
756.038	25.5
757.211	28.5
758.384	26.5
759.557	25
760.73	28.5
761.902	27
763.074	25.5
764.246	29
765.417	29
766.588	28.5
767.76	26.5
768.931	27.5
770.102	30.5
771.271	29
772.442	31.5
773.613	27.5
774.783	30
775.952	27
777.122	32
778.291	28
779.461	29
780.629	32
781.798	22
782.967	31.5
784.135	27
785.304	29
786.472	34
787.639	34.5
788.807	32.5
789.975	31.5
791.142	28.5
792.309	34.5
793.477	28.5
794.642	31
795.81	29.5
796.975	30
798.142	26.5
799.308	27.5
800.473	25
801.639	31.5
802.804	29
803.97	28.5
805.134	29.5
806.299	31.5
807.463	22
808.628	29.5
809.792	29.5
810.957	30
812.12	28.5
813.284	28
814.447	26.5
815.611	32.5
816.773	27
817.937	29.5
819.099	31
820.261	27.5
821.424	26
822.585	26
823.748	28
824.909	31.5
826.07	28.5
827.232	27
828.393	23.5
829.554	27
830.715	29.5
831.875	24
833.035	27
834.196	29
835.356	26
836.515	23
837.676	31
838.835	31
839.994	26.5
841.152	26.5
842.312	28
843.47	26.5
844.629	31.5
845.786	29
846.946	29
848.103	29
849.261	30.5
850.418	31
851.575	28
852.733	30
853.89	27
855.046	29.5
856.203	24
857.359	26
858.515	30.5
859.67	25
860.827	27
861.983	28
863.138	31
864.293	28
865.448	28.5
866.603	26.5
867.757	27.5
868.912	24.5
870.066	24
871.22	28.5
872.374	26
873.527	28.5
874.681	29
875.834	28
876.987	30.5
878.14	25.5
879.293	27
880.445	30.5
881.598	29
882.75	26
883.902	24
885.054	27.5
886.206	26
887.357	30
888.507	29
889.658	25.5
890.809	26
891.96	31
893.111	27.5
894.261	27.5
895.411	27
896.561	27
897.71	27.5
898.86	24.5
900.009	26
901.159	26.5
902.308	28.5
903.455	26.5
904.604	26
905.753	31
906.901	26.5
908.048	26.5
909.197	23.5
910.344	31
911.492	29
912.639	25
913.786	26.5
914.933	27
916.079	24
917.226	28.5
918.373	29
919.518	28
920.664	24
921.81	27
922.955	22.5
924.101	27.5
925.245	26.5
926.391	27.5
927.536	25
928.68	29
929.825	27.5
930.968	23
932.113	24.5
933.256	27.5
934.4	28.5
935.543	24
936.687	27
937.83	25.5
938.973	24.5
940.115	31
941.258	29
942.399	30.5
943.542	29
944.684	24
945.826	28.5
946.967	29.5
948.109	24
949.25	26
950.392	25
951.532	25.5
952.672	25.5
953.813	28.5
954.953	27
956.093	25.5
957.233	23.5
958.373	30.5
959.512	24
960.652	25
961.791	25.5
962.929	25
964.069	31
965.207	29
966.345	23
967.484	23.5
968.622	29.5
969.759	24.5
970.896	26.5
972.035	28
973.172	26
974.309	27
975.445	31.5
976.582	23.5
977.719	28
978.855	25
979.991	25.5
981.127	24
982.263	30.5
983.398	27
984.535	24.5
985.67	26
986.804	23
987.939	23
989.074	25.5
990.208	28.5
991.342	25
992.476	25
993.61	23
994.744	27.5
995.877	24
997.01	24
998.143	24
999.276	26
1000.41	26.5
1001.54	21.5
1002.67	25
1003.81	22
1004.94	24.5
1006.07	28
1007.2	27
1008.33	31
1009.47	27
1010.6	29.5
1011.73	26
1012.86	27.5
1013.99	29
1015.12	26.5
1016.25	27.5
1017.38	25.5
1018.51	23.5
1019.64	29
1020.77	28.5
1021.9	23
1023.03	26.5
1024.15	26
1025.28	23.5
1026.41	28
1027.54	22.5
1028.67	26
1029.8	23.5
1030.92	27
1032.05	27
1033.18	28
1034.31	27.5
1035.43	27.5
1036.56	27
1037.69	23.5
1038.81	27
1039.94	27
1041.07	27
1042.19	28.5
1043.32	23
1044.44	28
1045.57	26
1046.69	27.5
1047.82	24.5
1048.94	26
1050.07	24.5
1051.19	25.5
1052.32	25
1053.44	26
1054.57	23
1055.69	24.5
1056.81	25.5
1057.94	26
1059.06	23.5
1060.18	26
1061.31	21.5
1062.43	25.5
1063.55	28
1064.67	23.5
1065.8	29.5
1066.92	26.5
1068.04	24
1069.16	26
1070.28	27
1071.4	22
1072.52	25.5
1073.64	29
1074.76	26.5
1075.89	26
1077.01	33.5
1078.13	25
1079.25	26
1080.37	24
1081.49	26.5
1082.6	21
1083.72	26.5
1084.84	25
1085.96	26
1087.08	24.5
1088.2	24
1089.32	28.5
1090.43	27.5
1091.55	25.5
1092.67	23
1093.79	25.5
1094.91	28
1096.02	24
1097.14	25
1098.26	26
1099.37	24
1100.49	23.5
1101.61	27
1102.72	25
1103.84	27.5
1104.95	24.5
1106.07	27
1107.18	29
1108.3	24.5
1109.41	24.5
1110.53	28.5
1111.64	25
1112.76	23
1113.87	23.5
1114.99	25
1116.1	26
1117.21	24.5
1118.33	27.5
1119.44	26
1120.55	27
1121.67	26.5
1122.78	26.5
1123.89	23
1125	27.5
1126.12	27.5
1127.23	21.5
1128.34	25.5
1129.45	24
1130.56	24
1131.68	22
1132.79	21.5
1133.9	27.5
1135.01	25.5
1136.12	22.5
1137.23	29
1138.34	23.5
1139.45	23
1140.56	25.5
1141.67	25
1142.78	23.5
1143.89	20.5
1145	25
1146.11	28.5
1147.22	26
1148.32	26
1149.43	24
1150.54	24
1151.65	25.5
1152.76	24.5
1153.86	23
1154.97	24
1156.08	23.5
1157.19	26
1158.29	20
1159.4	26
1160.51	25
1161.61	25.5
1162.72	24.5
1163.83	25
1164.93	20.5
1166.04	28
1167.14	25.5
1168.25	28
1169.35	20
1170.46	26.5
1171.56	20.5
1172.67	27
1173.77	26
1174.88	22.5
1175.98	24
1177.08	27
1178.19	25
1179.29	26.5
1180.4	24
1181.5	23
1182.6	21
1183.71	26
1184.81	24.5
1185.91	27.5
1187.01	26
1188.12	28
1189.22	22
1190.32	30
1191.42	24
1192.52	27
1193.62	21.5
1194.72	24.4749
1195.83	22.9186
1196.93	28.9517
1198.03	26.5444
1199.13	23.0384
1200.23	26.9508
1201.33	28.5137
1202.43	25.5371
1203.53	22.4971
1204.63	25.1215
1205.73	23.0254
1206.83	25.3702
1207.92	22.6689
1209.02	25.9701
1210.12	24.0807
1211.22	25.8495
1212.32	23.6961
1213.42	24.2678
1214.51	22.3477
1215.61	24.7508
1216.71	23.3629
1217.81	25.3708
1218.9	23.0274
1220	26.2916
1221.1	23.3575
1222.19	23.5982
1223.29	22.9831
1224.39	25.0089
1225.48	26.3053
1226.58	26.6756
1227.68	23.1162
1228.77	21.0603
1229.87	24.3303
1230.96	20.6718
1232.06	22.8041
1233.15	24.6361
1234.25	23.6456
1235.34	23.6891
1236.43	27.5787
1237.53	24.2694
1238.62	25.5502
1239.72	23.7984
1240.81	25.6405
1241.9	24.8124
1243	23.568
1244.09	25.5121
1245.18	23.8477
1246.27	22.019
1247.37	22.7937
1248.46	25.6505
1249.55	24.0381
1250.64	24.4617
1251.74	22.3283
1252.83	23.509
1253.92	23.7818
1255.01	23.5273
1256.1	28.5405
1257.19	24.8382
1258.28	25.3641
1259.38	25.7286
1260.46	25.1853
1261.56	27.2102
1262.65	28.1194
1263.74	27.643
1264.82	24.1115
1265.91	25.5247
1267	25.5179
1268.09	26.1501
1269.18	24.8194
1270.27	26.7713
1271.36	22.7772
1272.45	24.5764
1273.54	25.482
1274.63	23.8635
1275.71	22.453
1276.8	26.9715
1277.89	23.9268
1278.98	24.218
1280.06	24.118
1281.15	23.805
1282.24	24.6508
1283.32	23.6288
1284.41	27.1693
1285.5	26.4438
1286.58	25.6585
1287.67	26.0752
1288.76	26.4905
1289.84	25.5485
1290.93	27.0857
1292.01	25.196
1293.1	25.6234
1294.18	24.2795
1295.27	22.4168
1296.35	24.5172
1297.44	25.3762
1298.52	22.1777
1299.6	23.1653
1300.69	23.9466
1301.77	22.653
1302.86	24.9668
1303.94	25.6086
1305.02	25.0708
1306.11	24.6475
1306.41	24.5
1307.5	26.5
1308.59	25
1309.68	25
1310.77	26
1311.85	24
1312.94	24
1314.03	20
1315.11	22
1316.2	27
1317.29	23
1318.37	24
1319.46	25
1320.55	26
1321.63	24.5
1322.72	27.5
1323.8	20.5
1324.89	24
1325.98	25
1327.06	24.5
1328.15	22.5
1329.23	24.5
1330.31	27
1331.4	26.5
1332.48	22
1333.57	23.5
1334.65	24
1335.74	25
1336.82	26
1337.9	26.5
1338.99	26.5
1340.07	28
1341.15	25.5
1342.24	29
1343.32	23.5
1344.4	23
1345.48	24.5
1346.56	23
1347.65	23
1348.73	22
1349.81	25
1350.89	23
1351.97	20
1353.05	25
1354.13	24
1355.21	25
1356.29	27
1357.37	21.5
1358.46	24
1359.54	22
1360.62	24
1361.69	20
1362.77	20.5
1363.85	24
1364.93	26
1366.01	22.5
1367.09	25.5
1368.17	24
1369.25	26
1370.33	25
1371.41	22
1372.48	24.5
1373.56	22.5
1374.64	24.5
1375.72	26
1376.79	27
1377.87	26.5
1378.95	22.5
1380.02	25
1381.1	27
1382.18	26
1383.25	21.5
1384.33	24
1385.4	26.5
1386.48	23
1387.56	27.5
1388.63	24
1389.71	25.5
1390.78	25
1391.86	22.5
1392.93	28
1394.01	29
1395.08	25
1396.15	28
1397.23	27
1398.3	28.5
1399.38	28.5
1400.45	30.5
1401.52	26
1402.6	33.5
1403.67	29
1404.74	36
1405.81	31
1406.89	29
1407.96	28.5
1409.03	32
1410.1	29.5
1411.17	30
1412.25	29
1413.32	30
1414.39	33.5
1415.46	27.5
1416.53	24
1417.6	25
1418.67	30
1419.74	30.5
1420.81	30
1421.88	27.5
1422.95	30
1424.02	29.5
1425.09	24
1426.16	30.5
1427.23	22
1428.3	23.5
1429.37	25
1430.44	28
1431.51	27
1432.58	28
1433.64	26
1434.71	26
1435.78	27
1436.85	28
1437.92	27
1438.98	26
1440.05	24.5
1441.12	27
1442.18	29.5
1443.25	23.5
1444.32	24.5
1445.38	26
1446.45	28.5
1447.52	26.5
1448.58	24
1449.65	22.5
1450.71	21
1451.78	27
1452.84	26
1453.91	26.5
1454.97	25.5
1456.04	27
1457.1	26
1458.17	27.5
1459.23	26
1460.3	26
1461.36	24
1462.42	26.5
1463.49	29.5
1464.55	22.5
1465.61	25.5
1466.68	23.5
1467.74	25
1468.8	25.5
1469.86	29.5
1470.93	25.5
1471.99	25.5
1473.05	30
1474.11	29.5
1475.17	22
1476.24	26
1477.3	27
1478.36	27
1479.42	23.5
1480.48	24
1481.54	24
1482.6	23
1483.66	26
1484.72	24
1485.78	25.5
1486.84	28
1487.9	23
1488.96	29.5
1490.02	26.5
1491.08	25
1492.14	28
1493.2	25
1494.26	21.5
1495.31	26.5
1496.37	24
1497.43	27
1498.49	24.5
1499.55	24
1500.6	25
1501.66	21.5
1502.72	24.5
1503.78	25.5
1504.83	25
1505.89	25.5
1506.95	27
1508	26
1509.06	26
1510.12	29.5
1511.17	27
1512.23	25.5
1513.28	22.5
1514.34	27.5
1515.39	27
1516.45	22.5
1517.5	22.5
1518.56	26.5
1519.61	22.5
1520.67	30
1521.72	25.5
1522.78	27.5
1523.83	26
1524.88	26.5
1525.94	24.5
1526.99	26.5
1528.05	26.5
1529.1	24
1530.15	24.5
1531.2	23
1532.26	28
1533.31	23
1534.36	24.5
1535.41	29.5
1536.47	27
1537.52	26.5
1538.57	28
1539.62	23.5
1540.67	24.5
1541.72	25.5
1542.77	25
1543.83	24
1544.88	26
1545.93	24
1546.98	26.5
1548.03	24
1549.08	27
1550.13	24
1551.18	21
1552.23	24.5
1553.28	22.5
1554.32	27.5
1555.37	25.5
1556.42	25.5
1557.47	29
1558.52	24.5
1559.57	28.5
1560.62	25.5
1561.67	29.5
1562.71	25
1563.76	26
1564.81	28
1565.86	21
1566.9	26
1567.95	26
1569	24
1570.04	27.5
1571.09	25.5
1572.14	25
1573.18	26.5
1574.23	25
1575.27	21
1576.32	27
1577.37	28
1578.41	27.5
1579.46	23
1580.5	29.5
1581.55	25
1582.59	28
1583.64	23
1584.68	29.5
1585.72	27.5
1586.77	28
1587.81	24.5
1588.86	26
1589.9	25.5
1590.94	24.5
1591.99	27
1593.03	26.5
1594.07	23.5
1595.12	28.5
1596.16	23
1597.2	28
1598.24	24
1599.29	28.5
1600.33	23
1601.37	27.5
1602.41	26
1603.45	22
1604.49	24.5
1605.53	30.5
1606.58	26.5
1607.62	24.5
1608.66	25.5
1609.7	23.5
1610.74	24.5
1611.78	29.5
1612.82	26
1613.86	27.5
1614.9	25.5
1615.94	27.5
1616.98	24
1618.02	26.5
1619.06	28
1620.09	25.5
1621.13	26.5
1622.17	27.5
1623.21	26.5
1624.25	28.5
1625.29	26
1626.32	23
1627.36	25.5
1628.4	26.5
1629.44	25
1630.47	27.5
1631.51	24
1632.55	23.5
1633.58	26
1634.62	25.5
1635.66	25
1636.69	25
1637.73	24
1638.77	22
1639.8	23.5
1640.84	27
1641.87	26.5
1642.91	26
1643.94	28
1644.98	25
1646.01	23.5
1647.05	25
1648.08	25
1649.12	26
1650.15	25
1651.18	25.5
1652.22	26.5
1653.25	25
1654.29	27.5
1655.32	22.5
1656.35	23
1657.39	29
1658.42	24
1659.45	24
1660.48	24
1661.52	22
1662.55	27
1663.58	28.5
1664.61	24.5
1665.64	24.5
1666.68	24.5
1667.71	23.5
1668.74	23
1669.77	29.5
1670.8	24
1671.83	24
1672.86	25
1673.89	23
1674.92	26
1675.95	27
1676.98	24
1678.01	26.5
1679.04	25.5
1680.07	24.5
1681.1	24.5
1682.13	23.5
1683.16	31.5
1684.19	24.5
1685.22	28.5
1686.25	27
1687.27	25
1688.3	25
1689.33	26
1690.36	28.5
1691.38	22.5
1692.41	26
1693.44	24.5
1694.47	24.5
1695.49	29.5
1696.52	25
1697.55	23
1698.57	25
1699.6	21
1700.63	26.5
1701.65	27
1702.68	21
1703.7	25
1704.73	19
1705.76	22
1706.78	27
1707.81	27
1708.83	26.5
1709.86	23.5
1710.88	26.5
1711.91	26
1712.93	22
1713.95	26.5
1714.98	24
1716	22
1717.03	24
1718.05	27
1719.07	28.5
1720.1	21.5
1721.12	26.5
1722.14	25.5
1723.16	27
1724.19	30
1725.21	30.5
1726.23	21
1727.25	23.5
1728.28	24
1729.3	22
1730.32	28.5
1731.34	23.5
1732.36	28
1733.38	28
1734.41	25.5
1735.43	26.5
1736.45	30
1737.47	26
1738.49	29.5
1739.51	26
1740.53	25
1741.55	22.5
1742.57	25.5
1743.59	26
1744.61	23
1745.63	25.5
1746.64	30
1747.66	22.5
1748.68	22.5
1749.7	26
1750.72	26.5
1751.74	27
1752.76	25.5
1753.77	23.5
1754.79	27
1755.81	27
1756.83	26
1757.84	24.5
1758.86	23
1759.88	26.5
1760.9	25
1761.91	27
1762.93	25
1763.95	24
1764.96	25.5
1765.98	24
1766.99	27.5
1768.01	26
1769.02	28
1770.04	27
1771.06	24
1772.07	23.5
1773.09	23
1774.1	26
1775.12	25.5
1776.13	27
1777.14	25
1778.16	25.5
1779.17	25
1780.19	28
1781.2	26
1782.21	27.5
1783.23	23.5
1784.24	26.5
1785.25	27
1786.27	22.5
1787.28	21
1788.29	26
1789.3	24
1790.32	24
1791.33	23.5
1792.34	25.5
1793.35	26
1794.36	21
1795.38	24.5
1796.39	23.5
1797.4	24.5
1798.41	24.5
1799.42	26
1800.43	22.5
1801.44	27
1802.45	21.5
1803.46	21.5
1804.47	29
1805.48	24
1806.49	26
1807.5	28
1808.51	25.5
1809.52	26.5
1810.53	29
1811.54	28
1812.55	26
1813.56	29
1814.57	28
1815.57	24.5
1816.58	28
1817.59	23.5
1818.6	23.5
1819.61	26.5
1820.61	28.5
1821.62	29.5
1822.63	25.5
1823.64	22
1824.64	25
1825.65	24
1826.66	25
1827.66	21.5
1828.67	19.5
1829.68	25.5
1830.68	20
1831.69	22
1832.69	25.5
1833.7	28
1834.7	25
1835.71	24.5
1836.71	27
1837.72	23.5
1838.72	27.5
1839.73	27
1840.73	26
1841.74	23.5
1842.74	24
1843.75	26
1844.75	22.5
1845.75	28
1846.76	24
1847.76	22.5
1848.76	21.5
1849.77	23
1850.77	24.5
1851.77	26.5
1852.78	29.5
1853.78	28
1854.78	25
1855.78	25
1856.78	28
1857.79	23.5
1858.79	25.5
1859.79	23
1860.79	22.5
1861.79	25.5
1862.79	24
1863.79	25
1864.79	25.5
1865.79	24
1866.8	27.5
1867.8	24.5
1868.8	26.5
1869.8	26
1870.8	24.5
1871.8	25
1872.8	24.5
1873.79	24.5
1874.79	25.5
1875.79	21.5
1876.79	21.5
1877.79	24.5
1878.79	29
1879.79	22.5
1880.79	24.5
1881.78	25
1882.78	24
1883.78	24.5
1884.78	27
1885.77	26
1886.77	23
1887.77	26
1888.77	24
1889.76	20
1890.76	21
1891.76	25
1892.75	26.5
1893.75	25
1894.75	26
1895.74	24
1896.74	25.5
1897.73	26.5
1898.73	21
1899.73	25.5
1900.72	22.5
1901.72	29.5
1902.71	28
1903.7	27.5
1904.7	22.5
1905.69	23.5
1906.69	27.5
1907.68	26
1908.68	25
1909.67	23.5
1910.66	23
1911.66	22.5
1912.65	27.5
1913.64	24
1914.64	25.5
1915.63	23
1916.62	27
1917.62	27.5
1918.61	24
1919.6	23
1920.59	24
1921.58	29
1922.58	23
1923.57	20
1924.56	23
1925.55	26.5
1926.54	27
1927.53	23.5
1928.52	27.5
1929.51	26
1930.51	26
1931.5	24
1932.49	25
1933.48	26
1934.47	26.5
1935.46	22.5
1936.45	27.5
1937.44	26
1938.42	26
1939.41	25.5
1940.4	25.5
1941.39	21.5
1942.38	26
1943.37	23
1944.36	24.5
1945.35	26
1946.33	22.5
1947.32	26.5
1948.31	25.75
1949.3	22
1950.29	29
1951.27	23.5
1952.26	27
1953.25	26
1954.23	19
1955.22	22
1956.21	26
1957.19	24.5
1958.18	27.5
1959.17	22.5
1960.15	22
1961.14	28
1962.13	25.5
1963.11	22
1964.1	23
1965.08	25.5
1966.07	24
1967.05	26.5
1968.04	27.5
1969.02	27
1970.01	26
1970.99	24
1971.97	23
1972.96	25.5
1973.94	22
1974.93	25
1975.91	23
1976.89	22
1977.88	22.5
1978.86	26
1979.84	23
1980.83	27
1981.81	25.5
1982.79	29
1983.77	22
1984.76	26
1985.74	26
1986.72	23.5
1987.7	19.5
1988.68	24.5
1989.67	26.5
1990.65	22
1991.63	22.5
1992.61	27.5
1993.59	21
1994.57	28
1995.55	20
1996.53	24.5
1997.51	26
1998.49	23
1999.47	24
2000.45	27
2001.43	22.5
2002.41	24.5
2003.39	23.5
2004.37	24
2005.35	23
2006.33	19.5
2007.31	22.5
2008.29	23.5
2009.26	24.5
2010.24	28.5
2011.22	22
2012.2	25
2013.18	28
2014.15	24
2015.13	24
2016.11	24
2017.09	24
2018.06	23
2019.04	24
2020.02	26.5
2021	20
2021.97	26.5
2022.95	24.5
2023.92	25.5
2024.9	25
2025.88	26.5
2026.85	23.5
2027.83	20
2028.8	25.5
2029.78	25
2030.75	24.5
2031.73	24
2032.7	25
2033.68	18
2034.65	24.5
2035.63	24.5
2036.6	25.5
2037.58	25
2038.55	28.5
2039.52	25.5
2040.5	24.5
2041.47	20
2042.45	26
2043.42	21.5
2044.39	24.5
2045.36	23
2046.34	27
2047.31	27.5
2048.28	25
2049.26	23
2050.23	26.5
2051.2	23
2052.17	25
2053.14	25.5
2054.12	26
2055.09	26
2056.06	26
2057.03	22.5
2058	24
2058.97	22
2059.94	23.5
2060.91	24.5
2061.88	23
2062.85	24.5
2063.82	22.5
2064.79	22.5
2065.76	27
2066.73	25.5
2067.7	22.5
2068.67	18.5
2069.64	24
2070.61	22
2071.58	24.5
2072.55	25
2073.52	24
2074.49	25
2075.45	24
2076.42	21.5
2077.39	20
2078.36	22
2079.33	25
2080.29	23
2081.26	24
2082.23	26
2083.2	23
2084.16	24
2085.13	25
2086.1	24
2087.06	19
2088.03	25
2089	22.5
2089.96	22
2090.93	27.5
2091.89	24.5
2092.86	25
2093.83	24.5
2094.79	24.5
2095.76	23.5
2096.72	20
2097.69	25
2098.65	21
2099.62	22.5
2100.58	24.5
2101.55	21
2102.51	23.5
2103.47	24.5
2104.44	24
2105.4	22.5
2106.36	22.5
2107.33	25.5
2108.29	25
2109.25	27.5
2110.22	25
2111.18	25
2112.14	24.5
2113.11	25.5
2114.07	23
2115.03	25
2115.99	28.5
2116.96	26
2117.92	25
2118.88	23
2119.84	28.5
2120.8	21.5
2121.76	25
2122.72	26
2123.68	24
2124.65	24
2125.61	23.5
2126.57	21
2127.53	25
2128.49	24
2129.45	26
2130.41	24
2131.37	26
2132.33	25
2133.29	25
2134.25	25.5
2135.21	25.5
2136.17	25.5
2137.12	22
2138.08	22.5
2139.04	21
2140	26
2140.96	23
2141.92	21.5
2142.88	20.9941
2143.83	24.9186
2144.79	24.4535
2145.75	23.4551
2146.71	24.9215
2147.66	22.8793
2148.62	20.0162
2149.58	21.491
2150.53	23.8356
2151.49	20.5556
2152.45	23.473
2153.4	22.9828
2154.36	23.9014
2155.32	23.7884
2156.27	19.8541
2157.23	23.9723
2158.19	23.6248
2159.14	24.1098
2160.1	24.4671
2161.05	21.5541
2162.01	23.8195
2162.96	22.4075
2163.92	25.0271
2164.87	21.8107
2165.83	23.4259
2166.78	23.4006
2167.73	23
2168.69	22.2469
2169.64	22.9825
2170.6	24.7058
2171.55	23.1281
2172.5	24.6359
2173.46	24.3635
2174.41	22.0075
2175.36	21.7605
2176.32	20.4601
2177.27	24.0044
2178.22	21.7835
2179.18	20.4547
2180.13	22.9718
2181.08	23.4439
2182.03	20.7002
2182.98	22.7071
2183.94	22.4171
2184.89	24.2685
2185.84	23.1945
2186.79	21.6948
2187.74	20.3606
2188.69	23.1784
2189.64	24.7885
2190.6	23.6176
2191.55	17.5296
2192.5	22.2367
2193.45	22.2607
2194.4	22.392
2195.35	21.4817
2196.3	23.0977
2197.25	24.2785
2198.2	26.5754
2199.15	22.6704
2200.1	22.2202
2201.04	22.8197
2201.99	21.918
2202.94	21.4784
2203.89	21.4345
2204.84	23.2397
2205.79	22.7555
2206.74	20.9489
2207.69	25.2615
2208.63	21.7223
2209.58	20.4701
2210.53	22.3601
2211.48	22.2039
2212.43	24.3247
2213.37	23.1073
2214.32	21.0477
2215.27	23.8366
2216.21	22.3762
2217.16	22.24
2218.11	23.0491
2219.05	22.7657
2220	21.6322
2220.95	22.2977
2221.89	22.2712
2222.84	17.4684
2223.78	24.5866
2224.73	22.9093
2225.68	22.4901
2226.62	22.4219
2227.57	21.0454
2228.51	21.5902
2229.46	21.8883
2230.4	25.4019
2231.35	24.9343
2232.29	23.4718
2233.24	25.0949
2234.18	21.6124
2235.12	24.6692
2236.07	24.543
2237.01	25.0295
2237.95	23.597
2238.9	19.5597
2239.84	24.9716
2240.06	27
2241.01	22
2241.96	25
2242.91	23.5
2243.86	22
2244.8	24
2245.75	23.5
2246.7	23
2247.65	25.5
2248.59	23
2249.54	24
2250.49	23.5
2251.43	24.5
2252.38	20
2253.33	21.5
2254.27	21
2255.22	25
2256.16	21
2257.11	23.5
2258.06	22
2259	21.5
2259.95	23.5
2260.89	25
2261.84	23.5
2262.78	18
2263.73	22
2264.67	27
2265.62	26
2266.56	25
2267.5	25.5
2268.45	26
2269.39	21.5
2270.34	23
2271.28	24.5
2272.22	19
2273.17	21.5
2274.11	22
2275.05	25.5
2276	23
2276.94	24.5
2277.88	26
2278.82	21.5
2279.77	20
2280.71	22.5
2281.65	21
2282.59	18.5
2283.53	22
2284.48	24
2285.42	23
2286.36	23.5
2287.3	23
2288.24	24.5
2289.18	23
2290.12	21
2291.06	26.5
2292	24
2292.94	21.5
2293.89	19
2294.83	24
2295.77	23
2296.71	20.5
2297.65	21.5
2298.58	20
2299.52	24
2300.46	24
2301.4	25
2302.34	21.5
2303.28	20.5
2304.22	23.5
2305.16	21.5
2306.1	21
2307.03	20
2307.97	19
2308.91	25.5
2309.85	24
2310.79	21.5
2311.72	23.5
2312.66	19.5
2313.6	22.5
2314.54	24
2315.47	22.5
2316.41	25
2317.35	22.5
2318.28	24
2319.22	22.5
2320.16	24.5
2321.09	21
2322.03	22.5
2322.96	23
2323.9	23
2324.84	25
2325.77	24.5
2326.71	24.5
2327.64	23
2328.58	25.5
2329.51	21
2330.45	24
2331.38	25
2332.32	21
2333.25	23
2334.18	26.5
2335.12	22.5
2336.05	27.5
2336.99	20.5
2337.92	26
2338.85	28.5
2339.79	23.5
2340.72	23
2341.65	21
2342.59	27
2343.52	23.5
2344.45	25.5
2345.39	22.5
2346.32	22.5
2347.25	24
2348.18	23.5
2349.11	26.5
2350.05	24.5
2350.98	25
2351.91	24
2352.84	19.5
2353.77	25
2354.7	26
2355.64	21
2356.57	26
2357.5	21
2358.43	28
2359.36	22.5
2360.29	23.5
2361.22	21.5
2362.15	24
2363.08	21.5
2364.01	24
2364.94	24.5
2365.87	27
2366.8	22.5
2367.73	22.5
2368.66	24.5
2369.58	22.5
2370.51	27
2371.44	24
2372.37	23.5
2373.3	22
2374.23	24
2375.16	24.5
2376.08	22
2377.01	22.5
2377.94	28
2378.87	24.5
2379.8	24
2380.72	28
2381.65	23
2382.58	23.5
2383.5	26.5
2384.43	18.5
2385.36	22.5
2386.28	25
2387.21	22
2388.14	20
2389.06	20.5
2389.99	29
2390.91	20.5
2391.84	26
2392.77	22
2393.69	20.5
2394.62	22.5
2395.54	25.5
2396.47	25.5
2397.39	23.5
2398.32	26
2399.24	24
2400.16	24
2401.09	22.5
2402.01	24
2402.94	22.5
2403.86	26.5
2404.78	24
2405.71	25
2406.63	22
2407.56	22
2408.48	26
2409.4	22
2410.32	22
2411.25	26.5
2412.17	23.5
2413.09	22
2414.02	18
2414.94	23.5
2415.86	23.5
2416.78	21.5
2417.7	25
2418.63	23.5
2419.55	22
2420.47	24.5
2421.39	20.5
2422.31	23
2423.23	26
2424.15	22
2425.07	25.5
2425.99	23
2426.92	26
2427.84	23
2428.76	22.5
2429.68	27
2430.59	22
2431.51	24.5
2432.43	24.5
2433.35	22
2434.27	23
2435.19	23
2436.11	27
2437.03	24.5
2437.95	27
2438.87	22.5
2439.79	20.5
2440.71	25.5
2441.62	25.5
2442.54	24
2443.46	23.5
2444.38	22
2445.3	26
2446.21	24
2447.13	23
2448.05	25.5
2448.97	24
2449.88	25
2450.8	26
2451.72	23
2452.63	21.5
2453.55	21
2454.47	23.5
2455.38	26
2456.3	24
2457.21	22
2458.13	23
2459.05	25
2459.96	25
2460.88	26.5
2461.79	21
2462.71	28
2463.62	23
2464.54	24.5
2465.45	23
2466.37	20.5
2467.28	26
2468.2	26
2469.11	22.5
2470.02	22.5
2470.94	24
2471.85	17.5
2472.77	27
2473.68	21
2474.59	23
2475.51	22.5
2476.42	27
2477.33	27
2478.25	26
2479.16	26
2480.07	23
2480.98	26.5
2481.9	27.5
2482.81	23
2483.72	23.5
2484.63	22
2485.55	28
2486.46	26.5
2487.37	24
2488.28	23
2489.19	20.5
2490.1	23
2491.01	26
2491.92	25.5
2492.83	25
2493.74	26.5
2494.66	28.5
2495.57	24.5
2496.48	23
2497.39	23.5
2498.3	25.5
2499.21	25
2500.12	25
2501.03	27.5
2501.93	23
2502.84	23
2503.75	24
2504.66	26
2505.57	25.5
2506.48	24
2507.39	25.5
2508.3	25
2509.21	30.5
2510.11	24.5
2511.02	21
2511.93	27
2512.84	25
2513.75	27
2514.65	22
2515.56	21
2516.47	24
2517.37	22.5
2518.28	24
2519.19	27.5
2520.09	24.5
2521	25.5
2521.91	23
2522.81	22.5
2523.72	26.5
2524.63	24.5
2525.53	25
2526.44	24
2527.34	24.5
2528.25	23
2529.16	25
2530.06	26
2530.97	27
2531.87	25
2532.78	24
2533.68	26
2534.58	25
2535.49	26.5
2536.39	22.5
2537.3	22.5
2538.2	27
2539.11	29
2540.01	24.5
2540.91	23.5
2541.82	29.5
2542.72	24
2543.62	24
2544.53	26
2545.43	25
2546.33	24
2547.23	26.5
2548.14	22
2549.04	25
2549.94	25.5
2550.84	22.5
2551.75	26
2552.65	26
2553.55	22
2554.45	28
2555.35	21.5
2556.26	24
2557.16	23.5
2558.06	23.5
2558.96	27
2559.86	23.5
2560.76	20
2561.66	24.5
2562.56	26
2563.46	20
2564.36	24.5
2565.26	26
2566.16	19.5
2567.06	27.5
2567.96	22.5
2568.86	25
2569.76	26
2570.66	25
2571.56	25
2572.46	22
2573.36	28.5
2574.26	23
2575.16	24
2576.05	22
2576.95	26.5
2577.85	20
2578.75	19
2579.65	24
2580.54	30.5
2581.44	19.5
2582.34	22
2583.24	24
2584.13	26.5
2585.03	27.5
2585.93	22
2586.83	22.5
2587.72	27.5
2588.62	23.5
2589.52	23.5
2590.41	26.5
2591.31	25
2592.2	22
2593.1	29
2594	27.5
2594.89	20.5
2595.79	23.5
2596.68	25.5
2597.58	22.5
2598.47	21
2599.37	24
2600.26	22.5
2601.16	24.5
2602.05	26.5
2602.95	20
2603.84	25
2604.74	24
2605.63	23.5
2606.52	22
2607.42	22.5
2608.31	25.5
2609.21	27
2610.1	23
2610.99	28
2611.89	26
2612.78	24
2613.67	24
2614.56	22.5
2615.46	24
2616.35	24
2617.24	24.5
2618.13	24
2619.03	27
2619.92	24
2620.81	22.5
2621.7	26.5
2622.59	25
2623.49	24
2624.38	20.5
2625.27	24.5
2626.16	27
2627.05	24.5
2627.94	24
2628.83	29
2629.72	27.5
2630.61	25
2631.5	24
2632.39	25.5
2633.28	23.5
2634.17	26.5
2635.06	23.5
2635.95	19
2636.84	23
2637.73	25.5
2638.62	25.5
2639.51	23.5
2640.4	27
2641.29	25
2642.18	22.5
2643.07	27
2643.96	28
2644.84	23
2645.73	25.5
2646.62	26
2647.51	23.5
2648.4	20.5
2649.28	24
2650.17	28.5
2651.06	26.5
2651.95	21
2652.83	25
2653.72	22
2654.61	26
2655.49	25.5
2656.38	22
2657.27	25.5
2658.16	25
2659.04	23
2659.93	25
2660.81	21.5
2661.7	28
2662.59	22
2663.47	27
2664.36	25
2665.24	22
2666.13	24.5
2667.01	26.5
2667.9	25
2668.78	21
2669.67	24.5
2670.55	28
2671.44	23.5
2672.32	23.5
2673.21	21.5
2674.09	25
2674.97	25.5
2675.86	22.5
2676.74	24
2677.62	23.5
2678.51	23
2679.39	24.5
2680.27	22
2681.16	29
2682.04	24.5
2682.92	25
2683.81	26.5
2684.69	24
2685.57	25.5
2686.45	17
2687.34	25.5
2688.22	24.5
2689.1	21.5
2689.98	23
2690.86	23.5
2691.75	24.5
2692.63	24.5
2693.51	22
2694.39	21
2695.27	24
2696.15	23.5
2697.03	25
2697.91	23
2698.79	22
2699.67	20.5
2700.55	25.5
2701.43	24
2702.31	25.5
2703.19	27
2704.07	20
2704.95	26
2705.83	27.5
2706.71	24.5
2707.59	22.5
2708.47	27
2709.35	24
2710.23	25
2711.11	28.5
2711.99	21.5
2712.86	24.5
2713.74	23.5
2714.62	22.5
2715.5	24
2716.38	24
2717.26	21
2718.13	25.5
2719.01	26
2719.89	26.5
2720.77	26
2721.64	25.5
2722.52	24
2723.4	26
2724.27	23.5
2725.15	21
2726.03	20.5
2726.9	26
2727.78	30
2728.66	25
2729.53	23
2730.41	26
2731.28	26
2732.16	22
2733.03	27
2733.91	20.5
2734.79	25.5
2735.66	22
2736.54	25
2737.41	21
2738.29	24
2739.16	22.5
2740.03	22
2740.91	24.5
2741.78	23
2742.66	26.5
2743.53	26
2744.41	23.5
2745.28	24.5
2746.15	22.5
2747.03	23.5
2747.9	24
2748.77	25
2749.65	22
2750.52	23
2751.39	23
2752.27	24.5
2753.14	22.5
2754.01	23.5
2754.88	25.5
2755.75	24.5
2756.63	24.5
2757.5	22
2758.37	23
2759.24	28
2760.11	24
2760.99	24
2761.86	22
2762.73	22
2763.6	25.5
2764.47	28
2765.34	28
2766.21	29
2767.08	25.5
2767.95	22
2768.82	21.5
2769.69	23
2770.56	24.5
2771.43	24
2772.3	23
2773.17	24.5
2774.04	27.5
2774.91	25
2775.78	25.5
2776.65	23.5
2777.52	25
2778.39	25.5
2779.26	25
2780.13	23
2780.99	23.5
2781.86	28
2782.73	23
2783.6	23.5
2784.47	25.5
2785.34	24
2786.2	24.5
2787.07	20.5
2787.94	24
2788.81	23
2789.67	23.5
2790.54	25
2791.41	28
2792.27	24.5
2793.14	25
2794.01	27
2794.87	24.5
2795.74	24.5
2796.61	22.5
2797.47	27.5
2798.34	24
2799.21	22
2800.07	24.5
2800.94	23
2801.8	21.5
2802.67	26
2803.53	25
2804.4	26
2805.26	23
2806.13	23.5
2806.99	24.5
2807.86	27.5
2808.72	24
2809.59	29.5
2810.45	27.5
2811.32	21.5
2812.18	26
2813.04	22.5
2813.91	29
2814.77	26.5
2815.64	23
2816.5	26.5
2817.36	30
2818.22	28
2819.09	28
2819.95	26.5
2820.81	22.5
2821.68	26
2822.54	25
2823.4	23
2824.26	29.5
2825.13	25
2825.99	25.5
2826.85	25
2827.71	28
2828.57	23
2829.44	30
2830.3	24
2831.16	23.5
2832.02	28
2832.88	25.5
2833.74	25.5
2834.6	29
2835.46	24
2836.32	24.5
2837.18	27
2838.04	23.5
2838.9	24.5
2839.76	24
2840.62	26
2841.48	25
2842.34	24
2843.2	28
2844.06	26
2844.92	22
2845.78	24.5
2846.64	21.5
2847.5	22
2848.36	27
2849.22	23
2850.08	22
2850.93	24
2851.79	22.5
2852.65	26
2853.51	26
2854.37	26
2855.22	23
2856.08	25
2856.94	27
2857.8	25
2858.65	24
2859.51	26
2860.37	24.5
2861.23	27
2862.08	23
2862.94	23
2863.79	26
2864.65	26.5
2865.51	27.5
2866.36	27.5
2867.22	26
2868.08	27.5
2868.93	28
2869.79	27
2870.64	26.5
2871.5	28
2872.35	31
2873.21	30.5
2874.06	29.5
2874.92	27.5
2875.77	31
2876.63	30.5
2877.48	27
2878.34	29.5
2879.19	36.5
2880.05	30
2880.9	29.5
2881.76	30
2882.61	31.5
2883.46	26
2884.32	31.5
2885.17	28.5
2886.02	30
2886.88	34
2887.73	31
2888.58	32.5
2889.44	36
2890.29	30.5
2891.14	36
2891.99	36
2892.85	39.5
2893.7	38.5
2894.55	40.5
2895.4	43
2896.25	48
2897.11	45.5
2897.96	46
2898.81	48
2899.66	56
2900.51	56
2901.36	55
2902.21	51.5
2903.07	60
2903.92	63.5
2904.77	64.5
2905.62	63
2906.47	58
2907.32	62.5
2908.17	58.5
2909.02	61.5
2909.87	56.5
2910.72	52
2911.57	52.5
2912.42	47
2913.27	47
2914.12	50
2914.97	45.5
2915.81	41
2916.66	37.5
2917.51	44
2918.36	38
2919.21	36.5
2920.06	30.5
2920.91	37
2921.75	29.5
2922.6	32.5
2923.45	27.5
2924.3	33
2925.15	28
2925.99	32.5
2926.84	31.5
2927.69	30
2928.54	28.5
2929.38	27
2930.23	26
2931.08	25.5
2931.92	27.5
2932.77	27
2933.62	29.5
2934.46	28
2935.31	30.5
2936.16	29.5
2937	26.5
2937.85	29
2938.69	27
2939.54	27
2940.38	27.5
2941.23	26.5
2942.08	28
2942.92	25.5
2943.77	25.5
2944.61	26.5
2945.46	30.5
2946.3	30
2947.15	30
2947.99	25.5
2948.83	29.5
2949.68	28.5
2950.52	29
2951.37	25.5
2952.21	28.5
2953.05	29
2953.9	27.5
2954.74	33
2955.58	33
2956.43	34
2957.27	36.5
2958.11	37.5
2958.96	33
2959.8	33.5
2960.64	34
2961.48	39.5
2962.33	37
2963.17	36.5
2964.01	39.5
2964.85	42.5
2965.69	38.5
2966.54	36
2967.38	44
2968.22	34
2969.06	33
2969.9	35
2970.74	38.5
2971.58	35.4951
2972.43	37.8816
2973.27	33.0269
2974.11	34.5778
2974.95	36.2635
2975.79	29.9059
2976.63	33.6497
2977.47	27.9713
2978.31	26.0871
2979.15	30.7941
2979.99	28.1019
2980.83	31.1721
2981.67	26.532
2982.51	27.1994
2983.35	25.852
2984.19	27.9227
2985.03	24
2985.86	25.8031
2986.7	25.0402
2987.54	28.4053
2988.38	23.9022
2989.22	26.0687
2990.06	23.1375
2990.9	26.2232
2991.73	23.5
2992.57	23.1238
2993.41	22.2464
2994.25	21.5222
2995.09	23.5081
2995.92	26.8135
2996.76	26.3069
2997.6	26.2711
2998.44	25.0457
2999.27	23.9126
3000.11	26.3624
3000.95	19.8061
3001.78	21.5274
3002.62	23.0156
3003.46	24.0709
3004.29	25.4136
3005.13	25.162
3005.96	23.1831
3006.8	24.347
3007.64	22.696
3008.47	21.7961
3009.31	21.5366
3010.14	21.8647
3010.98	23.2416
3011.81	21.3488
3012.65	20.8109
3013.48	25.3969
3014.32	21.8472
3015.15	23.4015
3015.99	21.9031
3016.82	24.1663
3017.66	21.773
3018.49	23.3183
3019.33	21.7015
3020.16	24.1051
3020.99	23.2592
3021.83	23.0842
3022.66	24.1583
3023.5	22.0451
3024.33	21.233
3025.16	22.7516
3026	22.6503
3026.83	23.2391
3027.66	22.0092
3028.49	23.8087
3029.33	23.62
3030.16	24.4631
3030.99	23.2773
3031.83	21.8031
3032.66	24.0297
3033.49	25.1374
3034.32	25.1037
3035.15	22.234
3035.99	21.3072
3036.82	21.9563
3037.65	20.6784
3038.48	21.1234
3039.31	22.6132
3040.14	23.199
3040.97	22.5106
3041.81	23.1168
3042.64	25.7269
3043.47	21.9838
3044.3	20.6671
3045.13	21.5704
3045.96	22.5515
3046.79	22.2708
3047.62	22.1573
3048.45	24.5441
3049.28	23.6368
3050.11	23.0836
3050.94	23.2882
3051.77	20.2358
3052.6	20.1626
3053.43	22.4858
3054.26	24.1711
3055.08	23.3262
3055.91	23.2154
3056.74	24.285
3057.26	24
3058.09	24.5
3058.92	24.5
3059.76	22.5
3060.59	24.5
3061.42	23
3062.25	25.5
3063.09	21
3063.92	23
3064.75	26
3065.58	23.5
3066.42	21
3067.25	27
3068.08	21.5
3068.91	25.5
3069.74	21.5
3070.57	23.5
3071.41	26.5
3072.24	22
3073.07	23
3073.9	23
3074.73	20
3075.56	21.5
3076.39	23
3077.22	25.5
3078.05	22
3078.88	23
3079.71	26
3080.54	20.5
3081.37	22
3082.2	24.5
3083.03	23
3083.86	21.5
3084.69	22
3085.52	23
3086.35	23
3087.18	23
3088.01	20
3088.84	24.5
3089.67	23
3090.5	21
3091.32	25
3092.15	22
3092.98	21
3093.81	25.5
3094.64	23
3095.47	25.5
3096.29	25.5
3097.12	22
3097.95	24.5
3098.78	21.5
3099.6	26
3100.43	21
3101.26	21
3102.09	23.5
3102.91	24
3103.74	26.5
3104.57	26.5
3105.39	25
3106.22	22.5
3107.05	21.5
3107.87	22.5
3108.7	24.5
3109.52	22.5
3110.35	20.5
3111.18	25
3112	18
3112.83	24.5
3113.65	23.5
3114.48	23
3115.3	22.5
3116.13	23
3116.95	22
3117.78	23.5
3118.6	22
3119.43	23.5
3120.25	22.5
3121.08	23.5
3121.9	24.5
3122.72	24.5
3123.55	21
3124.37	23
3125.2	23.5
3126.02	22.5
3126.84	24
3127.67	22
3128.49	26
3129.31	22
3130.14	22
3130.96	23.5
3131.78	22
3132.61	23.5
3133.43	21.5
3134.25	20.5
3135.07	24
3135.89	18.5
3136.72	22
3137.54	25
3138.36	26
3139.18	23.5
3140	23.5
3140.83	22
3141.65	24
3142.47	25.5
3143.29	22
3144.11	20
3144.93	24
3145.75	25.5
3146.57	24
3147.4	22
3148.22	22.5
3149.04	22.5
3149.86	23
3150.68	19.5
3151.5	24
3152.32	18
3153.14	23.5
3153.96	21.5
3154.78	26
3155.59	24
3156.42	24.5
3157.23	24.5
3158.05	24.5
3158.87	21.5
3159.69	23
3160.51	28
3161.33	24
3162.15	21
3162.97	24.5
3163.78	21.5
3164.6	22.5
3165.42	22.5
3166.24	25
3167.06	24
3167.87	23
3168.69	24
3169.51	28.5
3170.33	25
3171.14	22.5
3171.96	23
3172.78	21.5
3173.6	25.5
3174.41	22
3175.23	25
3176.05	22
3176.86	23
3177.68	23.5
3178.5	22
3179.31	23.5
3180.13	20.5
3180.94	22
3181.76	26.5
3182.58	21
3183.39	22
3184.21	22
3185.02	26
3185.84	19.5
3186.65	24
3187.47	24.5
3188.28	23.5
3189.1	22
3189.91	17
3190.73	24.5
3191.54	22.5
3192.36	21
3193.17	24
3193.98	23
3194.8	25
3195.61	21
3196.43	26
3197.24	25.5
3198.05	21
3198.87	19.5
3199.68	21.5
3200.49	22.5
3201.31	27
3202.12	24.5
3202.93	24
3203.75	22
3204.56	21
3205.37	23
3206.18	23
3207	26.5
3207.81	21.5
3208.62	21.5
3209.43	18.5
3210.24	20
3211.06	22
3211.87	25
3212.68	23
3213.49	25.5
3214.3	23
3215.11	24.5
3215.92	21.5
3216.73	23
3217.55	23.5
3218.36	18
3219.17	24
3219.98	26
3220.79	26
3221.6	23.5
3222.41	24
3223.22	22
3224.03	21.5
3224.84	23.5
3225.65	22
3226.46	24.5
3227.27	22.5
3228.08	21.5
3228.89	21.5
3229.7	27.5
3230.5	28.5
3231.31	25.5
3232.12	20.5
3232.93	26.5
3233.74	28
3234.55	22
3235.36	20.5
3236.16	22.5
3236.97	21
3237.78	23
3238.59	21
3239.4	21
3240.2	21
3241.01	24.5
3241.82	23
3242.63	23.5
3243.43	18
3244.24	21.5
3245.05	23
3245.85	24
3246.66	28.5
3247.47	22
3248.27	22.5
3249.08	16.5
3249.89	27
3250.69	25
3251.5	22.5
3252.31	27.5
3253.11	26
3253.92	24.5
3254.72	25
3255.53	22
3256.33	21
3257.14	25
3257.94	26
3258.75	25
3259.55	25.5
3260.36	20
3261.16	24
3261.97	21.5
3262.77	25
3263.58	22
3264.38	23.5
3265.19	25
3265.99	27
3266.79	21
3267.6	24.5
3268.4	24
3269.21	19.5
3270.01	22
3270.81	22
3271.62	19.5
3272.42	24
3273.22	24
3274.03	21
3274.83	21.5
3275.63	20
3276.43	25
3277.24	21
3278.04	23
3278.84	26.5
3279.64	22
3280.45	21
3281.25	24.5
3282.05	21
3282.85	23
3283.65	29
3284.45	29
3285.26	23.5
3286.06	25
3286.86	23
3287.66	25
3288.46	19.5
3289.26	21.5
3290.06	22
3290.86	21.5
3291.66	25.5
3292.46	24.5
3293.26	22.5
3294.06	23
3294.86	17.5
3295.66	23
3296.46	24
3297.26	24
3298.06	22
3298.86	26
3299.66	24.5
3300.46	26.5
3301.26	22.5
3302.06	23.5
3302.86	24
3303.66	24.5
3304.46	22
3305.25	22
3306.05	27.5
3306.85	25
3307.65	20.5
3308.45	26
3309.25	25.5
3310.04	24
3310.84	27
3311.64	22
3312.44	24.5
3313.23	23.5
3314.03	24.5
3314.83	23
3315.63	27.5
3316.42	22
3317.22	25
3318.02	25.5
3318.81	22
3319.61	26
3320.41	23.5
3321.2	22.5
3322	22
3322.8	22
3323.59	21.5
3324.39	23
3325.18	27
3325.98	24.5
3326.78	22.5
3327.57	23
3328.37	21.5
3329.16	22.5
3329.96	26
3330.75	25.5
3331.55	22.5
3332.34	21.5
3333.14	25.5
3333.93	26
3334.73	23.5
3335.52	21
3336.31	22.5
3337.11	24
3337.9	21
3338.7	20
3339.49	23.5
3340.28	20
3341.08	27.5
3341.87	23
3342.66	18
3343.46	24
3344.25	23
3345.04	22
3345.84	20
3346.63	21.5
3347.42	25
3348.22	28
3349.01	26
3349.8	25.5
3350.59	24
3351.39	25
3352.18	21.5
3352.97	25
3353.76	26.5
3354.55	21
3355.35	28
3356.14	25
3356.93	23.5
3357.72	23.5
3358.51	25
3359.3	25.5
3360.09	23
3360.88	23
3361.67	22
3362.46	23.5
3363.26	25.5
3364.05	21.5
3364.84	17
3365.63	24
3366.42	22
3367.21	23
3368	27
3368.79	23
3369.58	23.5
3370.37	25.5
3371.15	24
3371.94	25
3372.73	23.5
3373.52	25
3374.31	25
3375.1	22.5
3375.89	26.5
3376.68	25.5
3377.47	23.5
3378.26	24
3379.04	27
3379.83	22
3380.62	25
3381.41	24
3382.2	26
3382.98	22.5
3383.77	20
3384.56	25
3385.35	25.5
3386.13	23
3386.92	22.5
3387.71	18.5
3388.5	26
3389.28	18.5
3390.07	20
3390.86	25.5
3391.64	23
3392.43	24
3393.22	20
3394	23.5
3394.79	27
3395.57	24
3396.36	22.5
3397.15	22.5
3397.93	21.5
3398.72	25.5
3399.5	24.5
3400.29	24.5
3401.07	22
3401.86	23
3402.65	24
3403.43	23.5
3404.21	24.5
3405	21
3405.78	23
3406.57	24
3407.35	20.5
3408.14	25
3408.92	25.5
3409.71	23
3410.49	22
3411.27	26
3412.06	21.5
3412.84	24
3413.62	22
3414.41	27
3415.19	24
3415.97	26
3416.76	26
3417.54	23.5
3418.32	23
3419.11	23
3419.89	27
3420.67	17
3421.46	20
3422.24	21.5
3423.02	23.5
3423.8	26.5
3424.58	24.5
3425.37	19
3426.15	22.5
3426.93	24
3427.71	21
3428.49	26
3429.27	22.5
3430.05	23
3430.84	23
3431.62	25.5
3432.4	23
3433.18	25
3433.96	23.5
3434.74	24
3435.52	23.5
3436.3	25
3437.08	25
3437.86	27
3438.64	20
3439.42	20.5
3440.2	24
3440.98	28.5
3441.76	27
3442.54	21
3443.32	25
3444.1	21
3444.88	23.5
3445.66	26
3446.44	24.5
3447.22	21.5
3448	26
3448.77	24.5
3449.55	23
3450.33	24.5
3451.11	26
3451.89	22
3452.67	23.5
3453.45	26
3454.22	23.5
3455	22.5
3455.78	22
3456.56	22.5
3457.33	25.5
3458.11	23
3458.89	24
3459.67	24
3460.44	20
3461.22	22.5
3462	22.5
3462.77	23
3463.55	24
3464.33	27
3465.1	26.5
3465.88	23.5
3466.66	23
3467.43	30
3468.21	24
3468.98	24
3469.76	21.5
3470.54	25
3471.31	21
3472.09	26.5
3472.86	19.5
3473.64	22
3474.41	23
3475.19	25
3475.96	20
3476.74	21.5
3477.51	23
3478.29	23
3479.06	26.5
3479.84	27
3480.61	21
3481.39	23
3482.16	23
3482.93	25.5
3483.71	22.5
3484.48	26
3485.25	25
3486.03	25.5
3486.8	27
3487.57	22
3488.35	24.5
3489.12	26
3489.89	22
3490.67	26.5
3491.44	25
3492.21	25
3492.99	23.5
3493.76	24.5
3494.53	25
3495.3	26
3496.08	23.5
3496.85	27.5
3497.62	24
3498.39	26
3499.16	23
3499.93	22
