#Acq. time (s)=	5
#Accumulations=	5
#Range (cm-¹)=	100...3500
#Windows=	4
#Autofocus=	Off
#AutoExposure=	Off
#Spike filter=	Multiple accum.
#Delay time (s)=	0
#Binning=	1
#Readout mode=	Signal
#DeNoise=	Off
#ICS correction=	Off
#Dark correction=	Off
#Inst. Process=	Off
#Instrument=	LabRAM HR Evol
#Detector=	Syncerity OE
#Objective=	x100_VIS
#Grating=	600 (500nm)
#ND Filter=	25%
#Laser=	633nm_Edge
#Hole=	100.021
#Range=	Visible
#Project=	verificaciones
#Sample=	at1
#Site=	plain
#Title=	bolusat1plain
#Remark=	com
#Date=	16.01.2026 15:57
#Acquired=	16.01.2026 15:57:07
100.564	25
101.847	31
103.131	36.5
104.414	30.5
105.697	32
106.979	28
108.262	28.5
109.544	32
110.826	31
112.109	26
113.391	35.5
114.672	28
115.954	31.5
117.235	36
118.515	29.5
119.796	33.5
121.076	28.5
122.357	31
123.637	35
124.916	30.5
126.196	33.5
127.475	26.5
128.754	32
130.033	33.5
131.31	35.5
132.589	35.5
133.867	41
135.145	31
136.423	36.5
137.701	36
138.978	35.5
140.256	30.5
141.533	35
142.809	37.5
144.086	43
145.361	40
146.637	42
147.913	37
149.189	40.5
150.464	41
151.74	40.5
153.014	42.5
154.288	41
155.563	40
156.838	43
158.112	44.5
159.385	38
160.659	40
161.932	40
163.206	44
164.479	39.5
165.751	38.5
167.024	44.5
168.296	42
169.567	37
170.84	41.5
172.112	40
173.383	38
174.654	40.5
175.925	38
177.196	34.5
178.466	41.5
179.737	41
181.007	41.5
182.276	41
183.546	40
184.816	45
186.085	45.5
187.354	43
188.624	40.5
189.891	39.5
191.16	38.5
192.427	47
193.696	39
194.964	39
196.231	40.5
197.499	41
198.765	35.5
200.033	41.5
201.298	38.5
202.566	41.5
203.831	38
205.098	38
206.363	39
207.629	43.5
208.894	33
210.159	34
211.424	35
212.689	33.5
213.953	33.5
215.218	31
216.481	35
217.746	32.5
219.009	35.5
220.273	36
221.536	35
222.798	32.5
224.062	36.5
225.323	33
226.587	33.5
227.848	36.5
229.109	31
230.372	30
231.633	27
232.894	32
234.156	32.5
235.416	29.5
236.678	36
237.937	34
239.197	33
240.457	30.5
241.717	31
242.976	32.5
244.235	31.5
245.495	32.5
246.754	31
248.012	30
249.27	28.5
250.529	28
251.787	31.5
253.045	29.5
254.302	27
255.56	34
256.817	29
258.074	31
259.33	29
260.586	31.5
261.844	27
263.1	32.5
264.355	29
265.611	31
266.866	36.5
268.121	30
269.377	27.5
270.632	29
271.886	31
273.14	28.5
274.394	29
275.648	26.5
276.902	34.5
278.155	26
279.408	32
280.663	27.5
281.915	27
283.168	30
284.42	27.5
285.673	29.5
286.925	26.5
288.176	32
289.428	31.5
290.679	31.5
291.93	31
293.181	29.5
294.432	30
295.683	32.5
296.933	27.5
298.183	29.5
299.433	31
300.683	27
301.932	28.5
303.182	29.5
304.429	29
305.678	32.5
306.927	28.5
308.176	30
309.424	30
310.672	31
311.92	26
313.168	33
314.415	26.5
315.661	29
316.908	30.5
318.155	29
319.402	24
320.648	33
321.895	26.5
323.139	29
324.385	33
325.631	30
326.877	28
328.122	29.5
329.366	32
330.611	28
331.855	27.5
333.1	28.5
334.343	29
335.587	30.5
336.831	33
338.074	24.5
339.317	28
340.56	27
341.803	28
343.044	31
344.287	31.5
345.53	28.5
346.771	30
348.013	30.5
349.255	27
350.495	30.5
351.736	29
352.978	28.5
354.217	28
355.458	30
356.699	31.5
357.938	28.5
359.178	28
360.417	23.5
361.657	33
362.895	27.5
364.135	27.5
365.374	31.5
366.612	25
367.851	28.5
369.088	30.5
370.327	26.5
371.564	29
372.802	27
374.038	28.5
375.276	32
376.512	28
377.749	30
378.985	26.5
380.222	32
381.457	27.5
382.692	30.5
383.929	27.5
385.164	27.5
386.4	31
387.634	31.5
388.869	28
390.103	29
391.337	29.5
392.572	30.5
393.805	29.5
395.038	29.5
396.273	28
397.506	29
398.74	26.5
399.972	29
401.204	29
402.437	26.5
403.669	33
404.901	27
406.132	32
407.365	31
408.596	26
409.826	30
411.058	26.5
412.289	31
413.519	23.5
414.749	29
415.98	27
417.21	25
418.439	28.5
419.668	30.5
420.897	26
422.128	28
423.356	31
424.585	29
425.813	30
427.041	28
428.269	25
429.498	21
430.725	31
431.952	30.5
433.179	29.5
434.406	29.5
435.633	30.5
436.859	28
438.085	28
439.312	31.5
440.537	28
441.764	28
442.99	29.5
444.215	32
445.44	27.5
446.665	31
447.89	30.5
449.114	28
450.339	29.5
451.563	31.5
452.787	33
454.01	29
455.234	27.5
456.457	30.5
457.68	30.5
458.903	29.5
460.126	31
461.348	27.5
462.569	33.5
463.792	34
465.013	30.5
466.235	34.5
467.457	32
468.678	34
469.899	37
471.12	31.5
472.341	37
473.56	39.5
474.781	42.5
476.001	40
477.221	36.5
478.441	46.5
479.66	51
480.878	53
482.098	53.5
483.317	57
484.535	59
485.754	60
486.971	59.5
488.189	55.5
489.407	65
490.625	63
491.842	62.5
493.059	58
494.276	60
495.493	52
496.709	53
497.926	47
499.142	43.5
500.357	48
501.573	43
502.789	44.5
504.003	42
505.219	40
506.434	41.5
507.648	38.5
508.863	39.5
510.078	38
511.291	34.5
512.505	35.5
513.718	35
514.932	35.5
516.145	34.5
517.358	38
518.572	33
519.783	32
520.997	33.5
522.208	33.5
523.421	31
524.632	34
525.844	30.5
527.055	26.5
528.266	32.5
529.477	31
530.688	34
531.898	33.5
533.109	28.5
534.319	29.5
535.53	31
536.739	30
537.948	31
539.158	31
540.366	28
541.576	31
542.784	30.5
543.994	30
545.201	28.5
546.409	25.5
547.618	28.5
548.825	31
550.032	24.5
551.24	31
552.447	27
553.654	30
554.861	30
556.067	25.5
557.273	29
558.48	28
559.686	28
560.891	33.5
562.096	31
563.302	28.5
564.507	28
565.712	30.5
566.916	25
568.122	32
569.326	28
570.529	31
571.733	27.5
572.936	28
574.141	26.5
575.344	27
576.547	30
577.75	31
578.952	31
580.154	29
581.358	31.5
582.56	31.5
583.761	26
584.963	30.5
586.164	29
587.365	28
588.566	26.5
589.767	28
590.967	28
592.168	24.5
593.369	27
594.569	28
595.769	25
596.969	24.5
598.168	30
599.367	28
600.566	29.5
601.765	32.5
602.964	27.5
604.162	33.5
605.361	30
606.559	29
607.757	30
608.953	27.5
610.151	31.5
611.348	30
612.545	28.5
613.742	29.5
614.939	30.5
616.135	27.5
617.332	26.5
618.528	30.5
619.724	29
620.918	31
622.114	29
623.309	26.5
624.505	32
625.7	31
626.895	27.5
628.088	31.5
629.282	33
630.477	28.5
631.671	27
632.865	31
634.057	28.5
635.251	29.5
636.444	29
637.637	27
638.829	26
640.022	31.5
641.214	30
642.407	27
643.598	29
644.79	29
645.982	27.5
647.172	31
648.364	30.5
649.555	30
650.745	28
651.936	27
653.126	28
654.315	26
655.506	28.5
656.696	34
657.885	31
659.074	31
660.263	31
661.452	27
662.64	30
663.829	32.5
665.018	28.5
666.205	30
667.394	31.5
668.581	28.5
669.769	27
670.955	29
672.143	30
673.329	29.5
674.517	31.5
675.703	34
676.89	37
678.075	33
679.262	35
680.447	33.5
681.632	35.5
682.818	36
684.002	34
685.188	37
686.372	36
687.556	35.5
688.741	35
689.925	35
691.11	33.5
692.293	27.5
693.476	38.5
694.66	39.5
695.843	35.5
697.025	38.5
698.209	33
699.391	35
700.573	39
701.756	41
702.938	40.5
704.119	46.5
705.3	46
706.483	47
707.664	55
708.844	51
710.025	52
711.206	51
712.386	43
713.566	38.5
714.746	41
715.925	35
717.106	35.5
718.285	32
719.464	31.5
720.643	30.5
721.822	30.5
723	31
724.178	30.5
725.358	29
726.536	25
727.713	33
728.891	29
730.068	26
731.245	31
732.422	29
733.599	24
734.775	28
735.952	24.5
737.128	31.5
738.304	29.5
739.48	24.5
740.656	29
741.831	29
743.006	24
744.181	29
745.356	32.5
746.531	28.5
747.706	28.5
748.88	29.5
750.054	30
751.228	32.5
752.402	26.5
753.576	30
754.749	27
755.922	30
757.095	26.5
758.267	30
759.44	27.5
760.612	29.5
761.785	30
762.957	25.5
764.129	28
765.301	29
766.471	29
767.642	25.5
768.814	27
769.985	27
771.156	26
772.325	29.5
773.495	31
774.666	31.5
775.836	28
777.005	31
778.174	27
779.344	27
780.513	25
781.681	34
782.85	30.5
784.019	35
785.187	30
786.355	31.5
787.523	34
788.69	28.5
789.858	28.5
791.026	28
792.192	34.5
793.36	30.5
794.526	32.5
795.693	33.5
796.86	31
798.025	29
799.191	29.5
800.356	30
801.523	30.5
802.689	28
803.853	33
805.019	30.5
806.183	29.5
807.348	30
808.512	25.5
809.677	30
810.84	25.5
812.005	30.5
813.167	27.5
814.332	28
815.494	29
816.657	28.5
817.82	27
818.982	26.5
820.146	27.5
821.307	29
822.47	26
823.632	25.5
824.793	25
825.955	31.5
827.116	26
828.277	22
829.439	28
830.599	30
831.759	26.5
832.92	30
834.08	32
835.24	30.5
836.4	28
837.56	25.5
838.719	28.5
839.877	28
841.037	26
842.196	23.5
843.354	28
844.512	26.5
845.672	26
846.83	25
847.987	30
849.145	30
850.302	26
851.46	25.5
852.617	30.5
853.774	29.5
854.93	29
856.087	30
857.243	29
858.4	29.5
859.556	26
860.712	29.5
861.867	27.5
863.022	32.5
864.177	27
865.332	29
866.487	27.5
867.642	29
868.796	27.5
869.95	25.5
871.104	26.5
872.258	33.5
873.412	26
874.565	30.5
875.718	31
876.872	26
878.024	27.5
879.177	29
880.33	29.5
881.482	25
882.635	26.5
883.787	25
884.938	26.5
886.09	32
887.242	31
888.393	27
889.544	29
890.695	28
891.845	26
892.995	24.5
894.146	27
895.296	24.5
896.446	26
897.596	29.5
898.744	27
899.894	26
901.043	21
902.193	27.5
903.342	28
904.489	21
905.638	30
906.786	25
907.935	27
909.081	23
910.229	24.5
911.377	24.5
912.525	28
913.671	25
914.818	23
915.965	26
917.111	22.5
918.258	27
919.404	26.5
920.549	24.5
921.695	27
922.84	29.5
923.986	28
925.132	29
926.276	27.5
927.421	26.5
928.565	22
929.71	28.5
930.855	25
931.998	25.5
933.142	26.5
934.285	31.5
935.429	27.5
936.572	28
937.716	28
938.858	24.5
940.001	23.5
941.143	28.5
942.286	22.5
943.428	30
944.57	25
945.712	26.5
946.854	26.5
947.995	27
949.135	25
950.277	26
951.418	25
952.559	25
953.699	25
954.839	26
955.98	26.5
957.119	24
958.258	29
959.399	24
960.538	30
961.676	26
962.816	25.5
963.955	24
965.093	28
966.232	26
967.37	29
968.508	25.5
969.645	26.5
970.784	27.25
971.921	26.5
973.058	27
974.195	25.5
975.333	27.5
976.469	26
977.605	28.5
978.741	28.5
979.877	26
981.013	26
982.15	24
983.285	24
984.421	26.5
985.556	24
986.691	27.5
987.825	26.5
988.96	28.5
990.094	26.5
991.228	27.5
992.364	22.5
993.497	27.5
994.631	28.5
995.765	24
996.898	24.5
998.031	26
999.164	29.5
1000.3	22
1001.43	25.5
1002.56	32
1003.69	27
1004.83	26
1005.96	30
1007.09	29.5
1008.22	25.5
1009.35	28
1010.48	24
1011.61	21
1012.74	26.5
1013.88	30
1015.01	27
1016.14	28
1017.27	23
1018.4	27.5
1019.53	27.5
1020.65	25
1021.78	26
1022.91	28.5
1024.04	27.5
1025.17	24.5
1026.3	25.5
1027.43	26.5
1028.56	28
1029.68	27.5
1030.81	29
1031.94	24
1033.07	28.5
1034.19	29
1035.32	24.5
1036.45	27
1037.58	27.5
1038.7	26
1039.83	26.5
1040.95	29.5
1042.08	26
1043.21	28
1044.33	26.5
1045.46	29
1046.58	25
1047.71	26
1048.83	33
1049.96	23
1051.08	25
1052.21	24.5
1053.33	28.5
1054.45	26
1055.58	25.5
1056.7	21.5
1057.82	24
1058.95	27
1060.07	29
1061.19	28.5
1062.32	25
1063.44	24.5
1064.56	26
1065.68	26
1066.81	25.5
1067.93	28.5
1069.05	23.5
1070.17	29.5
1071.29	27.5
1072.41	27
1073.53	24
1074.65	25.5
1075.77	27
1076.89	23
1078.01	23
1079.13	28
1080.25	29.5
1081.37	26
1082.49	27.5
1083.61	23
1084.73	25
1085.85	26.5
1086.97	23
1088.09	23.5
1089.2	24
1090.32	26.5
1091.44	26
1092.56	21
1093.68	26.5
1094.79	24
1095.91	25.5
1097.03	26.5
1098.14	21
1099.26	30.5
1100.38	25
1101.49	25
1102.61	26.5
1103.73	27.5
1104.84	21
1105.96	23
1107.07	26
1108.19	28
1109.3	25
1110.42	24.5
1111.53	21
1112.65	26.5
1113.76	27
1114.88	26
1115.99	23.5
1117.1	24
1118.22	25
1119.33	24
1120.44	27
1121.56	24.5
1122.67	25.5
1123.78	28
1124.89	30
1126.01	25
1127.12	32.5
1128.23	24
1129.34	24
1130.45	21
1131.56	27.5
1132.67	26.5
1133.79	25.5
1134.9	21
1136.01	26.5
1137.12	23
1138.23	25.5
1139.34	29
1140.45	22
1141.56	26.5
1142.67	24.5
1143.78	26
1144.89	22
1145.99	26
1147.1	26
1148.21	23
1149.32	25.5
1150.43	23
1151.54	25
1152.65	22
1153.75	26
1154.86	23
1155.97	23
1157.08	29
1158.18	25
1159.29	27.5
1160.4	24
1161.5	24.5
1162.61	25.5
1163.72	25
1164.82	26
1165.93	24.5
1167.03	29
1168.14	24
1169.24	20
1170.35	23.5
1171.45	23
1172.56	22.5
1173.66	24
1174.77	25.5
1175.87	25.5
1176.98	25.5
1178.08	26.5
1179.18	24.5
1180.29	25.5
1181.39	23.5
1182.49	28
1183.6	24.5
1184.7	24
1185.8	24.5
1186.9	26
1188	27.5
1189.11	23
1190.21	26
1191.31	23
1192.41	26
1193.51	27
1194.61	23.0011
1195.72	22.4417
1196.82	24.4626
1197.92	22.7196
1199.02	24.8349
1200.12	23.9749
1201.22	24.6889
1202.32	24.8579
1203.42	26.715
1204.52	27.6509
1205.62	24.2507
1206.71	24.6241
1207.81	23.6882
1208.91	24.38
1210.01	25.9296
1211.11	25.0579
1212.21	26.4266
1213.31	22.4397
1214.4	26.2185
1215.5	24.296
1216.6	22.3112
1217.7	22.1995
1218.79	25.7931
1219.89	25.5375
1220.99	24.6223
1222.08	26.3788
1223.18	22.1655
1224.28	25.0654
1225.37	20.5539
1226.47	26.9224
1227.56	23.8499
1228.66	22.9559
1229.76	23.6236
1230.85	25.4741
1231.95	24.0362
1233.04	24.962
1234.14	25.1081
1235.23	23.6327
1236.32	26.2748
1237.42	23.7795
1238.51	25.5323
1239.61	24.172
1240.7	22.8549
1241.79	27.6683
1242.89	27.1359
1243.98	24.557
1245.07	24.8451
1246.17	23.8512
1247.26	20.9531
1248.35	22.7036
1249.44	25.2765
1250.53	23.6923
1251.63	24.9081
1252.72	23.8766
1253.81	24.7892
1254.9	23.4168
1255.99	24.7606
1257.08	27.2839
1258.17	28.4442
1259.27	27.9656
1260.36	28.0994
1261.45	24.0925
1262.54	25.2656
1263.63	27.8933
1264.72	26.5013
1265.81	24.6756
1266.89	24.7673
1267.98	26.2866
1269.07	27.2665
1270.16	26.3307
1271.25	26.6578
1272.34	24.6091
1273.43	22.3329
1274.52	22.0457
1275.6	24.6739
1276.69	27.3197
1277.78	25.6927
1278.87	24.7219
1279.95	27.2168
1281.04	25.1878
1282.13	25.4281
1283.22	26.6071
1284.3	25.2371
1285.39	22.8152
1286.48	26.1263
1287.56	26.4258
1288.65	27.779
1289.73	26.8455
1290.82	25.1567
1291.9	23.6067
1292.99	26.0714
1294.07	24.5796
1295.16	22.3218
1296.24	22.6083
1297.33	24.5857
1298.41	24.6059
1299.5	22.9783
1300.58	24.5227
1301.66	22.9835
1302.75	23.9572
1303.83	25.4272
1304.91	23.9491
1306	24.8989
1306.4	26
1307.48	29.5
1308.57	29
1309.66	26
1310.75	23
1311.84	23
1312.92	27
1314.01	21
1315.1	23.5
1316.18	17
1317.27	27
1318.36	22.5
1319.44	24.5
1320.53	29
1321.62	24
1322.7	22.5
1323.79	25
1324.87	18.5
1325.96	26
1327.04	28.5
1328.13	25.5
1329.21	21.5
1330.3	24.5
1331.38	26
1332.47	28
1333.55	27.5
1334.64	29
1335.72	25
1336.8	27
1337.89	23.5
1338.97	29.5
1340.05	23
1341.14	26.5
1342.22	24.5
1343.3	24.5
1344.38	25
1345.47	26.5
1346.55	22.5
1347.63	24
1348.71	29
1349.79	26.5
1350.87	26
1351.96	23
1353.04	23.5
1354.12	26
1355.2	26.5
1356.28	20
1357.36	22
1358.44	27.5
1359.52	25
1360.6	23.5
1361.68	26
1362.76	25
1363.84	27
1364.92	26.5
1366	26.5
1367.07	26
1368.15	20.5
1369.23	26.5
1370.31	24.5
1371.39	27
1372.47	24
1373.54	22.5
1374.62	23.5
1375.7	28.5
1376.78	22.5
1377.85	21
1378.93	25
1380.01	27
1381.08	25
1382.16	24.5
1383.24	27
1384.31	24
1385.39	22
1386.46	27
1387.54	28.5
1388.61	26.5
1389.69	28.5
1390.76	24
1391.84	26.5
1392.91	22
1393.99	26.5
1395.06	25.5
1396.14	26.5
1397.21	28.5
1398.29	28.5
1399.36	28.5
1400.43	31
1401.51	29.5
1402.58	29
1403.65	32
1404.72	32.5
1405.8	29
1406.87	28.5
1407.94	27.5
1409.02	31.5
1410.09	30
1411.16	27.5
1412.23	30.5
1413.3	36.5
1414.37	33.5
1415.44	30
1416.51	28
1417.59	31
1418.66	32.5
1419.73	27.5
1420.8	23.5
1421.87	27
1422.94	26
1424.01	30.5
1425.08	29.5
1426.15	25
1427.22	29
1428.28	25
1429.35	26
1430.42	24
1431.49	22
1432.56	26.5
1433.63	29
1434.7	26
1435.76	27.5
1436.83	24.5
1437.9	29
1438.97	28
1440.03	25.5
1441.1	29.5
1442.17	27
1443.23	24
1444.3	29
1445.37	27
1446.43	25
1447.5	30.5
1448.57	26
1449.63	24.5
1450.7	22
1451.76	24
1452.83	30.5
1453.89	27
1454.96	28.5
1456.02	27.5
1457.09	30.5
1458.15	22
1459.22	24.5
1460.28	27.5
1461.34	26.5
1462.41	23.5
1463.47	29
1464.53	27
1465.6	28
1466.66	23.5
1467.72	24
1468.78	26
1469.85	25.5
1470.91	26
1471.97	21.5
1473.03	27
1474.1	25
1475.16	23
1476.22	24
1477.28	26
1478.34	27.5
1479.4	28
1480.46	26
1481.52	22.5
1482.58	27.5
1483.65	26.5
1484.71	28
1485.77	27
1486.82	26.5
1487.89	28
1488.94	20.5
1490	29
1491.06	25
1492.12	26
1493.18	25
1494.24	25
1495.3	30.5
1496.36	23.5
1497.41	25.5
1498.47	27.5
1499.53	27
1500.59	24
1501.65	25.5
1502.7	25.5
1503.76	28
1504.82	25
1505.87	25.5
1506.93	27
1507.99	26
1509.04	26.5
1510.1	24
1511.16	22.5
1512.21	26.5
1513.27	27
1514.32	28
1515.38	30
1516.43	27.5
1517.49	27.5
1518.54	23
1519.6	26
1520.65	22.5
1521.71	23.5
1522.76	25.5
1523.81	21
1524.87	24.5
1525.92	23
1526.98	30
1528.03	25.5
1529.08	25
1530.14	27
1531.19	28
1532.24	26.5
1533.29	26
1534.35	25.5
1535.4	32
1536.45	27
1537.5	24
1538.55	23.5
1539.61	26.5
1540.66	24
1541.71	26.5
1542.76	23
1543.81	26.5
1544.86	24
1545.91	27.5
1546.96	24
1548.01	26
1549.06	27
1550.11	23
1551.16	24.5
1552.21	27.5
1553.26	29
1554.31	27.5
1555.36	26
1556.41	24.5
1557.46	24.5
1558.5	30
1559.55	29
1560.6	28
1561.65	31.5
1562.7	26.5
1563.74	27
1564.79	26.5
1565.84	27.5
1566.89	22
1567.93	27.5
1568.98	26
1570.03	29
1571.07	29
1572.12	22.5
1573.17	24.5
1574.21	27.5
1575.26	23.5
1576.3	24.5
1577.35	21
1578.4	24.5
1579.44	28
1580.49	28
1581.53	29.5
1582.58	24
1583.62	25
1584.66	24
1585.71	24.5
1586.75	24
1587.8	27
1588.84	25.5
1589.88	27
1590.93	26.5
1591.97	23.5
1593.01	27
1594.06	18
1595.1	29.5
1596.14	30
1597.18	27
1598.23	27
1599.27	27
1600.31	25.5
1601.35	22.5
1602.39	24
1603.44	23.5
1604.48	23.5
1605.52	27
1606.56	22
1607.6	25.5
1608.64	24.5
1609.68	24
1610.72	24
1611.76	24.5
1612.8	23.5
1613.84	24.5
1614.88	27
1615.92	25.5
1616.96	26
1618	30
1619.04	27.5
1620.08	26.5
1621.12	28.5
1622.16	26.5
1623.19	25.5
1624.23	23.5
1625.27	20
1626.31	24.5
1627.35	24.5
1628.38	25.5
1629.42	26
1630.46	26
1631.49	28
1632.53	24
1633.57	25
1634.6	28
1635.64	26.5
1636.68	27.5
1637.71	28.5
1638.75	20
1639.79	24
1640.82	27.5
1641.86	25.5
1642.89	25
1643.93	27.5
1644.96	28.5
1646	26.5
1647.03	26
1648.07	24.5
1649.1	25
1650.13	27
1651.17	24.5
1652.2	22.5
1653.24	26
1654.27	24
1655.3	22.5
1656.34	25.5
1657.37	27
1658.4	28
1659.43	25
1660.47	25.5
1661.5	28
1662.53	23.5
1663.56	25.5
1664.6	25
1665.63	25
1666.66	29
1667.69	29.5
1668.72	25
1669.75	24.5
1670.78	24
1671.81	25.5
1672.85	25
1673.88	24
1674.91	25
1675.94	29
1676.97	25.5
1678	25.5
1679.03	25
1680.06	23.5
1681.09	26
1682.11	25.5
1683.14	23.5
1684.17	27.5
1685.2	26
1686.23	25.5
1687.26	27.5
1688.29	26
1689.31	28
1690.34	22
1691.37	22.5
1692.4	27.5
1693.42	26.5
1694.45	24.5
1695.48	24
1696.51	28.5
1697.53	23.5
1698.56	26.5
1699.59	24.5
1700.61	25
1701.64	25.5
1702.66	25
1703.69	26
1704.72	28
1705.74	24
1706.77	24
1707.79	23
1708.82	25
1709.84	27
1710.87	27
1711.89	23
1712.91	24
1713.94	24.5
1714.96	24
1715.99	23
1717.01	26
1718.03	27
1719.06	28
1720.08	26.5
1721.1	29
1722.13	24
1723.15	27
1724.17	26.5
1725.19	26
1726.22	24
1727.24	26
1728.26	29.5
1729.28	24
1730.3	29.5
1731.33	25.5
1732.35	28.5
1733.37	24
1734.39	25
1735.41	23.5
1736.43	27
1737.45	25
1738.47	23
1739.49	25
1740.51	23.5
1741.53	24.5
1742.55	27
1743.57	27
1744.59	30
1745.61	22.5
1746.63	25.5
1747.65	25.5
1748.67	23.5
1749.69	26.5
1750.7	24.5
1751.72	23
1752.74	27
1753.76	24.5
1754.78	28.5
1755.79	22.5
1756.81	23.5
1757.83	29
1758.85	25
1759.86	24
1760.88	27
1761.9	22.5
1762.91	25.5
1763.93	28
1764.95	27.5
1765.96	25
1766.98	25
1767.99	26
1769.01	26.5
1770.02	25
1771.04	21.5
1772.06	27.5
1773.07	25
1774.09	28
1775.1	27
1776.11	28.5
1777.13	25.5
1778.14	28
1779.16	26.5
1780.17	27
1781.18	24
1782.2	27.5
1783.21	23.5
1784.22	26.5
1785.24	25.5
1786.25	23
1787.26	24.5
1788.28	25.5
1789.29	27
1790.3	27.5
1791.31	27.5
1792.33	24.5
1793.34	23
1794.35	26
1795.36	28
1796.37	23.5
1797.38	22
1798.39	29
1799.4	24.5
1800.42	24.5
1801.43	28.5
1802.44	25.5
1803.45	24
1804.46	27
1805.47	24
1806.48	23
1807.49	24
1808.5	26
1809.51	26
1810.51	26.5
1811.52	25.5
1812.53	29
1813.54	26
1814.55	24
1815.56	23.5
1816.57	25.5
1817.57	25
1818.58	28
1819.59	24.5
1820.6	21.5
1821.61	24
1822.61	22
1823.62	25.5
1824.63	25
1825.63	26.5
1826.64	26.5
1827.65	25
1828.65	27.5
1829.66	25.5
1830.67	23
1831.67	30
1832.68	23
1833.68	27
1834.69	26
1835.69	24.5
1836.7	25
1837.7	24
1838.71	25
1839.71	26
1840.72	27
1841.72	23
1842.73	26
1843.73	20.5
1844.73	28
1845.74	26.5
1846.74	25
1847.74	26
1848.75	28
1849.75	24
1850.75	25
1851.76	27.5
1852.76	26
1853.76	25
1854.76	25.5
1855.77	25
1856.77	24.5
1857.77	27
1858.77	18
1859.77	22
1860.77	23.5
1861.78	22.5
1862.78	24.5
1863.78	27
1864.78	24.5
1865.78	26.5
1866.78	26
1867.78	24
1868.78	23.5
1869.78	24.5
1870.78	22.5
1871.78	26.5
1872.78	26.5
1873.78	22
1874.78	25.5
1875.78	28
1876.78	22
1877.78	26
1878.77	22.5
1879.77	24
1880.77	27.5
1881.77	22
1882.77	24
1883.77	24
1884.76	24.5
1885.76	27
1886.76	26.5
1887.75	24
1888.75	25
1889.75	24.5
1890.75	27
1891.74	28.5
1892.74	23.5
1893.73	28.5
1894.73	29
1895.73	24.5
1896.72	24.5
1897.72	26
1898.71	31.5
1899.71	27
1900.7	26.5
1901.7	25
1902.69	23
1903.69	24
1904.68	24.5
1905.68	21.5
1906.67	26.5
1907.67	25.5
1908.66	25
1909.65	24.5
1910.65	24
1911.64	25
1912.63	23
1913.63	24
1914.62	25.5
1915.61	27.5
1916.61	21
1917.6	22.5
1918.59	24
1919.58	24.5
1920.58	24.5
1921.57	28
1922.56	26
1923.55	25
1924.54	26
1925.54	23.5
1926.53	26.5
1927.52	23.5
1928.51	24
1929.5	26.5
1930.49	24.5
1931.48	27
1932.47	21
1933.46	24
1934.45	27
1935.44	26.5
1936.43	23
1937.42	24.5
1938.41	26
1939.4	25
1940.39	25
1941.38	22
1942.37	22.5
1943.35	25
1944.34	26
1945.33	23
1946.32	25.5
1947.31	23.5
1948.3	23.75
1949.28	22
1950.27	24
1951.26	24.5
1952.25	23
1953.23	28
1954.22	25
1955.21	25
1956.19	23
1957.18	25.5
1958.17	29
1959.15	26
1960.14	21
1961.12	27
1962.11	26
1963.1	28
1964.08	27.5
1965.07	22
1966.05	27
1967.04	26.5
1968.02	24
1969.01	27.5
1969.99	26
1970.98	26.5
1971.96	22
1972.94	22.5
1973.93	23.5
1974.91	25
1975.9	23.5
1976.88	24.5
1977.86	26
1978.85	25.5
1979.83	26
1980.81	25
1981.79	24
1982.78	23
1983.76	22
1984.74	26.5
1985.72	23
1986.71	23
1987.69	22.5
1988.67	25
1989.65	25.5
1990.63	24
1991.61	22.5
1992.59	27
1993.57	23.5
1994.56	26
1995.54	27
1996.52	26.5
1997.5	23
1998.48	26
1999.46	19
2000.44	22
2001.42	24
2002.4	21
2003.38	24
2004.36	24
2005.33	21.5
2006.31	22.5
2007.29	28
2008.27	24
2009.25	22
2010.23	24.5
2011.21	27
2012.18	24
2013.16	23
2014.14	24
2015.12	22
2016.09	24.5
2017.07	20.5
2018.05	30
2019.03	25
2020	21.5
2020.98	23
2021.96	25
2022.93	24.5
2023.91	25
2024.89	22
2025.86	26
2026.84	24
2027.81	25
2028.79	28
2029.76	24.5
2030.74	24.5
2031.71	23.5
2032.69	24
2033.66	25
2034.64	25
2035.61	23
2036.59	24
2037.56	27.5
2038.54	19.5
2039.51	27
2040.48	23
2041.46	25.5
2042.43	22
2043.4	24.5
2044.38	26
2045.35	26
2046.32	23
2047.29	20.5
2048.27	21.5
2049.24	24.5
2050.21	23
2051.18	25
2052.16	25.5
2053.13	22.5
2054.1	25.5
2055.07	23.5
2056.04	27
2057.01	24.5
2057.98	25
2058.96	23.5
2059.93	27
2060.9	25
2061.87	22
2062.84	25.5
2063.81	22
2064.78	23
2065.75	24
2066.72	20
2067.69	24
2068.66	20
2069.63	21
2070.6	25
2071.56	24
2072.53	23.5
2073.5	23
2074.47	23
2075.44	20.5
2076.41	21
2077.38	23
2078.34	22.5
2079.31	25.5
2080.28	24
2081.25	23
2082.21	24
2083.18	26
2084.15	24
2085.11	26.5
2086.08	23
2087.05	20
2088.01	23
2088.98	23.5
2089.95	22
2090.91	24
2091.88	24
2092.84	24.5
2093.81	20.5
2094.78	23
2095.74	23.5
2096.71	21.5
2097.67	22
2098.64	19.5
2099.6	23.5
2100.57	25
2101.53	24.5
2102.49	23.5
2103.46	25
2104.42	20
2105.39	22
2106.35	22
2107.31	23
2108.28	25.5
2109.24	21
2110.2	23.5
2111.17	27
2112.13	18.5
2113.09	26.5
2114.05	23.5
2115.02	20.5
2115.98	26.5
2116.94	23
2117.9	24.5
2118.86	24
2119.83	23.5
2120.79	28
2121.75	25
2122.71	25
2123.67	19.5
2124.63	24.5
2125.59	25.5
2126.55	22.5
2127.51	25
2128.47	23.5
2129.43	22.5
2130.39	22
2131.35	26
2132.31	24.5
2133.27	23.5
2134.23	21.5
2135.19	27
2136.15	21.5
2137.11	24.5
2138.07	26
2139.03	25
2139.99	24
2140.94	25
2141.9	24
2142.86	22.5228
2143.82	19.0026
2144.78	24.4832
2145.73	22.5044
2146.69	23.4184
2147.65	26.8572
2148.61	21.61
2149.56	24.324
2150.52	23.8829
2151.48	23.4611
2152.43	25.3038
2153.39	25.2027
2154.35	21.7881
2155.3	24.056
2156.26	24.0946
2157.21	23.3778
2158.17	24.8205
2159.13	23.7711
2160.08	22.4809
2161.04	21.3555
2161.99	21.3534
2162.95	26.1732
2163.9	25.7048
2164.86	24.4635
2165.81	24.4583
2166.77	19.0218
2167.72	23.1602
2168.67	22.4566
2169.63	23.9948
2170.58	25.9874
2171.54	21.5411
2172.49	21.9571
2173.44	19.865
2174.4	25.767
2175.35	19.475
2176.3	21.3278
2177.26	22.6421
2178.21	23.7231
2179.16	20.3826
2180.11	24.7394
2181.07	24.2678
2182.02	22.8093
2182.97	22.4104
2183.92	22.1693
2184.87	23.4044
2185.82	21.9999
2186.78	22.8505
2187.73	24.1942
2188.68	22.6673
2189.63	25.1654
2190.58	23.8946
2191.53	22.1702
2192.48	24.1715
2193.43	22.7677
2194.38	21.9828
2195.33	20.9135
2196.28	23.609
2197.23	22.6439
2198.18	24.9208
2199.13	21.0084
2200.08	21.7286
2201.03	20.5582
2201.98	20.5548
2202.93	24.6717
2203.88	24.3025
2204.83	23.4624
2205.77	22.0071
2206.72	21.3708
2207.67	22.09
2208.62	20.0148
2209.57	21.7627
2210.52	22.6949
2211.46	22.6481
2212.41	23.216
2213.36	21.7863
2214.31	22.8346
2215.25	24.5207
2216.2	22.3958
2217.15	21.7003
2218.09	18.9222
2219.04	23.4352
2219.99	23.0203
2220.93	22.9696
2221.88	22.158
2222.82	22.7728
2223.77	22.1813
2224.72	23.3622
2225.66	21.844
2226.61	22.4322
2227.55	23.0057
2228.5	20.3701
2229.44	21.8047
2230.39	22.9117
2231.33	24.3186
2232.28	24.5456
2233.22	24.3908
2234.16	22.7402
2235.11	22.1068
2236.05	24.6754
2237	25.6471
2237.94	25.4029
2238.88	22.1006
2239.83	21.5256
2240.13	22
2241.08	19
2242.03	23
2242.98	25.5
2243.92	21
2244.87	23.5
2245.82	23
2246.76	23
2247.71	22
2248.66	25
2249.61	25
2250.55	22
2251.5	23.5
2252.45	26.5
2253.39	21.5
2254.34	23
2255.28	22
2256.23	22.5
2257.18	23.5
2258.12	25
2259.07	22
2260.01	23.5
2260.96	18.5
2261.9	24
2262.85	26.5
2263.79	22.5
2264.74	20.5
2265.68	21.5
2266.63	24.5
2267.57	24.5
2268.51	23
2269.46	22
2270.4	26
2271.35	24
2272.29	25
2273.23	24.5
2274.18	22.5
2275.12	21.5
2276.06	24
2277	21
2277.95	23.5
2278.89	22
2279.83	24.5
2280.78	20
2281.72	27
2282.66	26
2283.6	23.5
2284.54	24
2285.48	24
2286.43	22.5
2287.37	22.5
2288.31	23
2289.25	23
2290.19	27.5
2291.13	23
2292.07	26.5
2293.01	25
2293.95	23
2294.89	23
2295.83	26
2296.77	23.5
2297.71	23
2298.65	22
2299.59	22
2300.53	26
2301.47	24.5
2302.41	24.5
2303.35	22
2304.29	22
2305.22	23.5
2306.16	29
2307.1	22.5
2308.04	16.5
2308.98	27.5
2309.91	24.5
2310.85	27
2311.79	22.5
2312.73	24.5
2313.66	23.5
2314.6	25.5
2315.54	21
2316.48	21
2317.41	22.5
2318.35	27
2319.29	22.5
2320.22	23.5
2321.16	27
2322.09	26
2323.03	25
2323.97	26.5
2324.9	24
2325.84	24
2326.77	21.5
2327.71	25
2328.64	26
2329.58	25.5
2330.51	24.5
2331.45	19.5
2332.38	26
2333.32	22
2334.25	29
2335.18	17.5
2336.12	26
2337.05	21
2337.99	29
2338.92	25.5
2339.85	24.5
2340.79	26.5
2341.72	27
2342.65	22
2343.59	23
2344.52	23.5
2345.45	23.5
2346.38	21
2347.32	23.5
2348.25	23.5
2349.18	23.5
2350.11	23.5
2351.04	23
2351.98	20.5
2352.91	24.5
2353.84	27
2354.77	26
2355.7	24
2356.63	26.5
2357.56	24
2358.49	21
2359.42	24.5
2360.35	25
2361.28	22.5
2362.21	26
2363.14	25.5
2364.07	24.5
2365	21.5
2365.93	23
2366.86	23
2367.79	23
2368.72	24.5
2369.65	29
2370.58	23.5
2371.51	22.5
2372.44	27.5
2373.36	20
2374.29	24.5
2375.22	24.5
2376.15	25
2377.08	22
2378	24
2378.93	21.5
2379.86	24
2380.79	22.5
2381.71	23.5
2382.64	24
2383.57	22
2384.49	26.5
2385.42	25.5
2386.35	23
2387.27	25.5
2388.2	26
2389.13	21.5
2390.05	22
2390.98	24
2391.9	23
2392.83	20
2393.76	21.5
2394.68	24.5
2395.61	25.5
2396.53	22.5
2397.46	23
2398.38	25
2399.3	27
2400.23	27.5
2401.15	25.5
2402.08	21
2403	24
2403.93	26
2404.85	23
2405.77	26.5
2406.7	25.5
2407.62	24
2408.54	21.5
2409.47	26
2410.39	24
2411.31	22.5
2412.24	26
2413.16	24
2414.08	27.5
2415	24
2415.92	26.5
2416.85	26
2417.77	23.5
2418.69	26
2419.61	24
2420.53	24
2421.45	23
2422.38	29.5
2423.3	23
2424.22	26
2425.14	27.5
2426.06	26.5
2426.98	21.5
2427.9	23
2428.82	27
2429.74	23.5
2430.66	23
2431.58	25.5
2432.5	26
2433.42	23
2434.34	25
2435.26	20.5
2436.18	24
2437.1	25
2438.01	28.5
2438.93	26
2439.85	26
2440.77	26.5
2441.69	26
2442.61	25.5
2443.52	26.5
2444.44	25
2445.36	23.5
2446.28	20
2447.2	26
2448.11	24
2449.03	22.5
2449.95	28
2450.86	27.5
2451.78	25
2452.7	22
2453.61	25.5
2454.53	24
2455.45	21.5
2456.36	26.5
2457.28	24.5
2458.2	21
2459.11	24
2460.03	25
2460.94	26.5
2461.86	23
2462.77	24
2463.69	22.5
2464.6	25
2465.52	26
2466.43	21
2467.35	23
2468.26	26
2469.18	22
2470.09	23
2471	25
2471.92	25
2472.83	25
2473.74	22
2474.66	23.5
2475.57	23
2476.48	29
2477.4	21.5
2478.31	23
2479.22	26
2480.14	27.5
2481.05	25.5
2481.96	27
2482.87	23.5
2483.79	25
2484.7	26.5
2485.61	25
2486.52	24.5
2487.43	28.5
2488.34	20
2489.25	26.5
2490.17	23.5
2491.08	23.5
2491.99	27
2492.9	21.5
2493.81	29
2494.72	26
2495.63	25.5
2496.54	23.5
2497.45	26
2498.36	24.5
2499.27	23.5
2500.18	26
2501.09	28
2502	30
2502.91	25.5
2503.82	24
2504.73	24.5
2505.63	27
2506.54	25.5
2507.45	22
2508.36	26
2509.27	25
2510.18	25.5
2511.09	26
2511.99	25
2512.9	27
2513.81	25.5
2514.72	25
2515.62	23
2516.53	26
2517.44	23
2518.34	27.5
2519.25	24
2520.16	21
2521.06	27.5
2521.97	26
2522.88	25
2523.78	24
2524.69	23
2525.6	25.5
2526.5	21.5
2527.41	26
2528.31	24
2529.22	25.5
2530.12	24.5
2531.03	27
2531.93	22.5
2532.84	26
2533.74	23
2534.65	25
2535.55	24.5
2536.46	22.5
2537.36	28.5
2538.27	28.5
2539.17	24
2540.07	24
2540.98	25
2541.88	26.5
2542.78	25
2543.69	24
2544.59	24
2545.49	29
2546.4	26.5
2547.3	25
2548.2	24.5
2549.1	25.5
2550.01	26
2550.91	24
2551.81	27
2552.71	25.5
2553.61	23
2554.52	24
2555.42	25.5
2556.32	26
2557.22	26
2558.12	27.5
2559.02	25
2559.92	22
2560.82	24
2561.72	24.5
2562.62	30
2563.53	27.5
2564.43	24.5
2565.33	26.5
2566.23	27
2567.13	25
2568.03	24.5
2568.92	22
2569.82	26
2570.72	25
2571.62	25
2572.52	24
2573.42	25
2574.32	26
2575.22	23
2576.12	24.5
2577.02	27.5
2577.91	22.5
2578.81	24.5
2579.71	26
2580.61	21.5
2581.5	25
2582.4	25
2583.3	22.5
2584.2	24.5
2585.09	26
2585.99	22
2586.89	23
2587.78	24.5
2588.68	23
2589.58	23
2590.47	24
2591.37	22
2592.27	28.5
2593.16	22
2594.06	26.5
2594.95	22
2595.85	25.5
2596.75	24.5
2597.64	25
2598.54	24.5
2599.43	19.5
2600.33	23.5
2601.22	23.5
2602.12	26
2603.01	24.5
2603.9	29
2604.8	29
2605.69	29
2606.59	25
2607.48	25.5
2608.37	26
2609.27	20
2610.16	28
2611.05	29.5
2611.95	26.5
2612.84	23.5
2613.73	24
2614.63	26
2615.52	21
2616.41	22.5
2617.3	21
2618.2	29
2619.09	25.5
2619.98	25
2620.87	25.5
2621.76	25.5
2622.66	25
2623.55	30.5
2624.44	24
2625.33	20
2626.22	23
2627.11	26.5
2628	26.5
2628.9	25.5
2629.79	23
2630.68	25.5
2631.57	26.5
2632.46	26.5
2633.35	25.5
2634.24	25
2635.13	24.5
2636.02	30.5
2636.91	27.5
2637.8	28.5
2638.68	26.5
2639.57	23
2640.46	22.5
2641.35	27
2642.24	24
2643.13	26
2644.02	26.5
2644.91	24.5
2645.79	27.5
2646.68	23
2647.57	24
2648.46	26
2649.35	25.5
2650.23	27.5
2651.12	24
2652.01	25
2652.9	26
2653.78	24.5
2654.67	23.5
2655.56	26
2656.44	19
2657.33	23
2658.22	24
2659.1	23
2659.99	26
2660.88	26
2661.76	29
2662.65	25
2663.53	22
2664.42	27
2665.3	26
2666.19	24
2667.07	27
2667.96	24
2668.84	23
2669.73	23
2670.61	24
2671.5	21.5
2672.38	28
2673.27	25
2674.15	25
2675.04	25
2675.92	25
2676.8	22.5
2677.69	28.5
2678.57	21
2679.45	25.5
2680.34	28.5
2681.22	26
2682.1	25
2682.99	30.5
2683.87	25.5
2684.75	24
2685.63	27.5
2686.52	24
2687.4	24.5
2688.28	25.5
2689.16	22.5
2690.04	25.5
2690.93	23.5
2691.81	24
2692.69	23
2693.57	25.5
2694.45	21.5
2695.33	26.5
2696.21	21.5
2697.09	27
2697.97	20
2698.85	26
2699.74	26
2700.62	23.5
2701.5	27
2702.38	22.5
2703.26	26.5
2704.14	24
2705.02	27
2705.89	28.5
2706.77	24.5
2707.65	23.5
2708.53	24
2709.41	24.5
2710.29	23
2711.17	28
2712.05	19.5
2712.93	24
2713.8	22
2714.68	27
2715.56	25
2716.44	26
2717.32	25.5
2718.19	25.5
2719.07	29
2719.95	24.5
2720.83	27.5
2721.7	24.5
2722.58	21
2723.46	18.5
2724.33	26.5
2725.21	22
2726.09	23
2726.97	23
2727.84	23.5
2728.72	27
2729.59	25
2730.47	24
2731.35	22
2732.22	23.5
2733.1	24.5
2733.97	25.5
2734.85	25.5
2735.72	25
2736.6	25
2737.47	21
2738.35	27
2739.22	29
2740.1	28
2740.97	24
2741.84	26
2742.72	25.5
2743.59	21.5
2744.47	27
2745.34	26.5
2746.21	29
2747.09	24
2747.96	27
2748.83	27
2749.71	21
2750.58	25.5
2751.45	24.5
2752.33	26
2753.2	27
2754.07	26
2754.94	23.5
2755.82	23
2756.69	24
2757.56	30
2758.43	22
2759.3	26
2760.18	20
2761.05	26.5
2761.92	22
2762.79	26.5
2763.66	23
2764.53	26
2765.4	26.5
2766.27	25
2767.14	27
2768.01	27
2768.88	24.5
2769.75	23
2770.62	24
2771.49	19.5
2772.36	27
2773.23	23
2774.1	28
2774.97	25
2775.84	23
2776.71	25
2777.58	28
2778.45	23
2779.32	26
2780.19	25
2781.06	24.5
2781.92	27.5
2782.79	25.5
2783.66	24.5
2784.53	17.5
2785.4	25.5
2786.26	24.5
2787.13	24
2788	25.5
2788.87	27
2789.73	25.5
2790.6	24.5
2791.47	28.5
2792.34	25
2793.2	25
2794.07	23.5
2794.94	24.5
2795.8	23.5
2796.67	24
2797.53	25
2798.4	24
2799.27	28
2800.13	27
2801	25.75
2801.86	24.5
2802.73	26
2803.59	27
2804.46	28
2805.32	24
2806.19	24.5
2807.05	28
2807.92	28.5
2808.78	23.5
2809.65	33.5
2810.51	27
2811.38	29
2812.24	24
2813.1	26.5
2813.97	23
2814.83	25
2815.7	26
2816.56	24
2817.42	27.5
2818.29	25.5
2819.15	28
2820.01	25
2820.87	22.5
2821.74	24
2822.6	23
2823.46	25
2824.32	27
2825.19	31
2826.05	29
2826.91	25
2827.77	28
2828.63	25.5
2829.5	31
2830.36	27
2831.22	25.5
2832.08	25
2832.94	26
2833.8	26
2834.66	25
2835.52	25.5
2836.38	27
2837.24	26
2838.1	24
2838.96	23.5
2839.82	29
2840.68	30.5
2841.54	23.5
2842.4	24
2843.26	23
2844.12	24.5
2844.98	27.5
2845.84	28.5
2846.7	28.5
2847.56	26
2848.42	26.5
2849.28	24
2850.14	25
2850.99	25
2851.85	32
2852.71	25.5
2853.57	26
2854.43	27.5
2855.28	26.5
2856.14	30
2857	23
2857.86	24.5
2858.71	29
2859.57	26.5
2860.43	24
2861.28	27
2862.14	28
2863	27
2863.86	24.5
2864.71	30
2865.57	27.5
2866.42	29
2867.28	27.5
2868.14	26
2868.99	28.5
2869.85	26.5
2870.7	25
2871.56	33.5
2872.41	31
2873.27	30.5
2874.13	27
2874.98	30
2875.83	27.5
2876.69	31.5
2877.54	34.5
2878.4	33.5
2879.25	26
2880.11	34
2880.96	30
2881.81	30.5
2882.67	36
2883.52	34.5
2884.38	35
2885.23	36.5
2886.08	36.5
2886.94	36.5
2887.79	36.5
2888.64	42
2889.5	38
2890.35	39
2891.2	40.5
2892.05	37
2892.91	38
2893.76	42.5
2894.61	45
2895.46	47.5
2896.31	48
2897.17	50.5
2898.02	52
2898.87	54.5
2899.72	58
2900.57	63
2901.42	64
2902.27	67
2903.12	67
2903.98	70.5
2904.83	72
2905.68	64
2906.53	67
2907.38	72.5
2908.23	66
2909.08	65.5
2909.93	64
2910.78	61
2911.63	62
2912.48	58.5
2913.33	54
2914.18	50
2915.02	47
2915.87	50
2916.72	43
2917.57	41
2918.42	42
2919.27	44
2920.12	37.5
2920.97	38.5
2921.81	37.5
2922.66	33.5
2923.51	39.5
2924.36	34.5
2925.21	33.5
2926.05	31.5
2926.9	29
2927.75	28.5
2928.59	33
2929.44	30
2930.29	29.5
2931.14	25
2931.98	32
2932.83	28
2933.68	32
2934.52	26
2935.37	30.5
2936.21	28.5
2937.06	28
2937.91	27
2938.75	25
2939.6	27
2940.44	29.5
2941.29	31.5
2942.14	28
2942.98	29
2943.82	29
2944.67	32
2945.51	32.5
2946.36	30
2947.2	23.5
2948.05	32
2948.89	30
2949.74	28.5
2950.58	30
2951.43	29
2952.27	34.5
2953.11	29.5
2953.96	34.5
2954.8	34
2955.64	35.5
2956.49	37.5
2957.33	40
2958.17	36.5
2959.02	33
2959.86	40
2960.7	42.5
2961.54	42.5
2962.39	38.5
2963.23	44
2964.07	43.5
2964.91	46
2965.75	42
2966.6	46.5
2967.44	47
2968.28	39
2969.12	41
2969.96	42.5
2970.8	44
2971.64	44.9636
2972.48	36.4797
2973.33	36.452
2974.17	36.0455
2975.01	33.5719
2975.85	37.5416
2976.69	35.5106
2977.53	33.6953
2978.37	28.3552
2979.21	33.2809
2980.05	30.7678
2980.89	27.7632
2981.73	30.3847
2982.57	28.8895
2983.41	29.548
2984.25	28.3205
2985.08	28.0412
2985.92	27.1064
2986.76	27.1678
2987.6	26.699
2988.44	29.3461
2989.28	25.2792
2990.12	24.2982
2990.96	26.8756
2991.79	27.0214
2992.63	27.3618
2993.47	24.3112
2994.31	26.9284
2995.14	23.6663
2995.98	29.1841
2996.82	25.1615
2997.66	24.5098
2998.49	24.834
2999.33	25.9588
3000.17	24.4074
3001	23.5406
3001.84	26.2259
3002.68	22.6463
3003.51	24.6353
3004.35	25.6056
3005.19	24.6726
3006.02	24.7402
3006.86	26.7011
3007.7	24.8123
3008.53	22.9296
3009.37	24.3132
3010.2	25.7952
3011.04	23.2244
3011.87	23.5572
3012.71	21.5269
3013.54	24.6395
3014.38	23.404
3015.21	23.1497
3016.05	21.7289
3016.88	23.2044
3017.72	23.16
3018.55	25.1612
3019.39	23.0098
3020.22	21.046
3021.05	23.0777
3021.89	24.4804
3022.72	23.4208
3023.55	25.4286
3024.39	22.6741
3025.22	23.2952
3026.05	22.818
3026.89	23.1973
3027.72	22.9039
3028.55	23.3345
3029.39	22.9213
3030.22	25.0439
3031.05	24.7728
3031.88	24.4997
3032.72	20.4478
3033.55	23.6229
3034.38	23.8438
3035.21	24.114
3036.04	23.584
3036.88	23.2967
3037.71	22.1894
3038.54	22.8908
3039.37	21.8423
3040.2	20.8657
3041.03	22.9573
3041.86	25.0147
3042.69	24.8044
3043.52	22.6074
3044.36	20.8206
3045.19	22.3795
3046.02	23.1515
3046.85	23.6393
3047.68	24.9115
3048.51	24.8331
3049.34	24.6495
3050.17	23.1808
3051	24.1225
3051.83	23.0631
3052.66	23.1827
3053.48	23.6434
3054.31	25.0254
3055.14	24.7153
3055.97	23.1586
3056.8	23.7787
3057.29	23.5
3058.12	24
3058.95	24.5
3059.79	26
3060.62	22
3061.45	22.5
3062.29	22
3063.12	21
3063.95	25
3064.78	24
3065.62	25.5
3066.45	20.5
3067.28	24
3068.11	23
3068.94	21.5
3069.77	23
3070.61	20
3071.44	27
3072.27	24
3073.1	19.5
3073.93	18.5
3074.76	24
3075.59	24.5
3076.42	21.5
3077.25	21.5
3078.08	28
3078.92	24
3079.74	28
3080.57	25.5
3081.41	25
3082.24	26
3083.06	25
3083.89	20.5
3084.72	25
3085.55	24.5
3086.38	23.5
3087.21	21
3088.04	23
3088.87	21
3089.7	21.5
3090.53	25
3091.36	18
3092.18	22
3093.01	27
3093.84	23.5
3094.67	22.5
3095.5	21
3096.32	22.5
3097.15	23
3097.98	22.5
3098.81	24
3099.64	22.5
3100.46	24.5
3101.29	26
3102.12	25
3102.94	22
3103.77	26
3104.6	27
3105.42	27
3106.25	22.5
3107.08	19
3107.9	19.5
3108.73	25
3109.56	19
3110.38	22
3111.21	24
3112.03	25
3112.86	22
3113.68	20.5
3114.51	24
3115.33	24.5
3116.16	23.5
3116.98	24
3117.81	23
3118.63	23
3119.46	26
3120.28	24
3121.11	23.5
3121.93	20
3122.76	26
3123.58	21.5
3124.4	23
3125.23	22.5
3126.05	24.5
3126.87	23
3127.7	21
3128.52	22.5
3129.34	24
3130.17	20.5
3130.99	28
3131.81	26.5
3132.64	22.5
3133.46	21
3134.28	24.5
3135.1	25
3135.93	23
3136.75	22
3137.57	23
3138.39	22
3139.21	26
3140.04	26
3140.86	26.5
3141.68	24
3142.5	28
3143.32	21.5
3144.14	20.5
3144.96	21
3145.78	20
3146.61	28
3147.43	22
3148.25	23
3149.07	25.5
3149.89	26.5
3150.71	22.5
3151.53	23
3152.35	23.5
3153.17	22.5
3153.99	25
3154.81	25
3155.63	25
3156.45	22.5
3157.27	24
3158.08	23.5
3158.9	24.5
3159.72	23.5
3160.54	22.5
3161.36	26.5
3162.18	26
3163	23.5
3163.82	23
3164.63	30
3165.45	26
3166.27	26
3167.09	23
3167.91	24
3168.72	25
3169.54	21
3170.36	23.5
3171.18	24.5
3171.99	23
3172.81	19.5
3173.63	23
3174.44	24
3175.26	24
3176.08	23.5
3176.89	24
3177.71	21
3178.53	24.5
3179.34	23
3180.16	21
3180.97	20
3181.79	25
3182.61	25
3183.42	26.5
3184.24	27
3185.05	23
3185.87	23
3186.68	26.5
3187.5	22.5
3188.31	22
3189.13	23.5
3189.94	23
3190.76	25.5
3191.57	20.5
3192.39	24
3193.2	28
3194.02	23.5
3194.83	24.5
3195.64	28.5
3196.46	24.5
3197.27	24.5
3198.08	25
3198.9	19.5
3199.71	24
3200.52	23
3201.34	21.5
3202.15	22
3202.96	27
3203.78	23.5
3204.59	21.5
3205.4	23.5
3206.21	24
3207.03	25
3207.84	22
3208.65	20.5
3209.46	25
3210.27	29
3211.09	21
3211.9	25.5
3212.71	22.5
3213.52	24.5
3214.33	25.5
3215.14	24.5
3215.95	23
3216.77	27.5
3217.58	26
3218.39	21
3219.2	23.5
3220.01	23
3220.82	23.5
3221.63	23
3222.44	24.5
3223.25	22.5
3224.06	24.5
3224.87	24
3225.68	23.5
3226.49	24.5
3227.3	25
3228.11	18
3228.92	22
3229.73	26
3230.53	26.5
3231.34	27
3232.15	25
3232.96	24.5
3233.77	25.5
3234.58	26
3235.39	23.5
3236.19	21
3237	23
3237.81	21.5
3238.62	27.5
3239.43	25
3240.23	26.5
3241.04	24
3241.85	20.5
3242.66	20.5
3243.46	25
3244.27	24.5
3245.08	22.5
3245.89	24.5
3246.69	22
3247.5	17
3248.31	26
3249.11	26
3249.92	25.5
3250.72	23.5
3251.53	25.5
3252.34	23.5
3253.14	23
3253.95	26.5
3254.75	26.5
3255.56	24
3256.36	25
3257.17	25
3257.98	23.5
3258.78	21
3259.59	21
3260.39	22
3261.19	24.5
3262	25
3262.8	25
3263.61	23.5
3264.41	26.5
3265.22	24
3266.02	24
3266.83	23.5
3267.63	25
3268.43	25
3269.24	23
3270.04	24
3270.84	23
3271.65	25.5
3272.45	25
3273.25	24
3274.06	21
3274.86	23
3275.66	22
3276.46	26.5
3277.27	21
3278.07	26
3278.87	25.5
3279.67	22.5
3280.48	23
3281.28	26.5
3282.08	26
3282.88	25.5
3283.68	23
3284.48	25
3285.29	21.5
3286.09	25.5
3286.89	23
3287.69	23.5
3288.49	26
3289.29	25.5
3290.09	23.5
3290.89	27.5
3291.69	24.5
3292.49	23
3293.29	21.5
3294.09	25
3294.89	27
3295.69	24
3296.49	27
3297.29	24.5
3298.09	21
3298.89	24
3299.69	21.5
3300.49	25
3301.29	24.5
3302.09	22.5
3302.89	25
3303.69	25.5
3304.49	21.5
3305.28	26
3306.08	26.5
3306.88	27
3307.68	21
3308.48	22.5
3309.28	21
3310.07	24
3310.87	23.5
3311.67	18
3312.47	27
3313.26	26
3314.06	26
3314.86	19.5
3315.66	22
3316.45	21.5
3317.25	22
3318.05	24.5
3318.84	24
3319.64	24
3320.44	25
3321.23	24.5
3322.03	21.5
3322.83	26
3323.62	24
3324.42	25
3325.21	24
3326.01	20.5
3326.81	23.5
3327.6	24
3328.4	22.5
3329.19	25
3329.99	23
3330.78	28
3331.58	22.5
3332.37	21
3333.17	25
3333.96	26
3334.76	23.5
3335.55	23.5
3336.34	22
3337.14	23
3337.93	26
3338.73	25.5
3339.52	25.5
3340.31	24
3341.11	25
3341.9	24.5
3342.69	23
3343.49	22
3344.28	23
3345.07	25.5
3345.87	22.5
3346.66	24
3347.45	26.5
3348.25	26
3349.04	28.5
3349.83	26.5
3350.62	24.5
3351.42	24
3352.21	28
3353	24.5
3353.79	29
3354.58	22
3355.37	25
3356.17	20.5
3356.96	24.5
3357.75	25.5
3358.54	22
3359.33	22
3360.12	28.5
3360.91	24
3361.7	23
3362.49	26
3363.29	23
3364.08	24.5
3364.87	23
3365.66	22.5
3366.45	27
3367.24	22.5
3368.03	24.5
3368.82	22
3369.61	21.5
3370.4	26
3371.19	24
3371.97	26
3372.76	24
3373.55	27
3374.34	24
3375.13	25.5
3375.92	27.5
3376.71	24
3377.5	22
3378.29	25.5
3379.07	23.5
3379.86	26.5
3380.65	24.5
3381.44	26.5
3382.23	21
3383.01	25
3383.8	24
3384.59	30
3385.38	27
3386.16	22.5
3386.95	25.5
3387.74	23
3388.53	24.5
3389.31	25.5
3390.1	21
3390.89	24.5
3391.67	27
3392.46	24.5
3393.25	22.5
3394.03	26
3394.82	24.5
3395.6	21
3396.39	26
3397.18	23.5
3397.96	25
3398.75	23.5
3399.53	24.5
3400.32	25.5
3401.1	24
3401.89	22
3402.67	24
3403.46	21
3404.24	24
3405.03	24
3405.81	27.5
3406.6	25
3407.38	25
3408.17	19.5
3408.95	25.5
3409.74	22.5
3410.52	27.5
3411.3	23
3412.09	23.5
3412.87	23
3413.65	28.5
3414.44	18.5
3415.22	24
3416	22
3416.79	24.5
3417.57	19.5
3418.35	26.5
3419.14	19.5
3419.92	24.5
3420.7	20.5
3421.48	27
3422.27	23
3423.05	23.5
3423.83	22.5
3424.61	24
3425.4	26
3426.18	25
3426.96	22
3427.74	26.5
3428.52	26
3429.3	26.5
3430.08	25.5
3430.87	23
3431.65	21.5
3432.43	24
3433.21	23
3433.99	24
3434.77	25
3435.55	22.5
3436.33	27.5
3437.11	24.5
3437.89	27
3438.67	24
3439.45	25
3440.23	22
3441.01	26
3441.79	21
3442.57	22
3443.35	24.5
3444.13	23
3444.91	25
3445.69	29
3446.47	26.5
3447.25	22
3448.03	22
3448.8	19
3449.58	29
3450.36	24.5
3451.14	26
3451.92	20
3452.7	20
3453.47	23.5
3454.25	22
3455.03	22.5
3455.81	27
3456.59	23.5
3457.36	26
3458.14	24.5
3458.92	24.5
3459.69	22.5
3460.47	23
3461.25	23
3462.03	28.5
3462.8	22.5
3463.58	25
3464.36	25
3465.13	26
3465.91	20
3466.69	27
3467.46	25
3468.24	23
3469.01	22.5
3469.79	26
3470.57	23.5
3471.34	25.5
3472.12	22.5
3472.89	26
3473.67	27.5
3474.44	27
3475.22	23
3475.99	25
3476.77	22.5
3477.54	26.5
3478.32	27.5
3479.09	26
3479.87	24
3480.64	27
3481.41	26.5
3482.19	20.5
3482.96	25
3483.74	24.5
3484.51	25
3485.28	24.5
3486.06	25
3486.83	24
3487.6	25.5
3488.38	25.5
3489.15	21.5
3489.92	26.5
3490.7	23.5
3491.47	25
3492.24	24
3493.01	24.5
3493.79	24
3494.56	21.5
3495.33	23.5
3496.1	24
3496.88	24
3497.65	26
3498.42	23.5
3499.19	23.5
3499.96	26.5
