#Acq. time (s)=	5
#Accumulations=	5
#Range (cm-¹)=	100...3500
#Windows=	4
#Autofocus=	Off
#AutoExposure=	Off
#Spike filter=	Multiple accum.
#Delay time (s)=	0
#Binning=	1
#Readout mode=	Signal
#DeNoise=	Off
#ICS correction=	Off
#Dark correction=	Off
#Inst. Process=	Off
#Instrument=	LabRAM HR Evol
#Detector=	Syncerity OE
#Objective=	x100_VIS
#Grating=	600 (500nm)
#ND Filter=	25%
#Laser=	633nm_Edge
#Hole=	100.021
#Range=	Visible
#Project=	verificaciones
#Sample=	at1
#Site=	lined
#Title=	bolusat1lined
#Remark=	
#Date=	13.01.2026 13:44
#Acquired=	13.01.2026 13:44:33
100.692	27
101.975	32
103.258	36
104.542	31.5
105.824	31
107.107	34.5
108.39	31.5
109.672	31
110.954	27.5
112.236	28.5
113.519	31
114.8	29.5
116.081	28
117.362	35
118.643	27
119.924	27
121.204	31
122.484	28.5
123.764	30
125.044	30.5
126.323	32.5
127.603	33
128.882	30.5
130.161	30.5
131.438	29.5
132.716	35.5
133.995	30
135.273	34
136.55	35
137.828	36.5
139.106	33
140.383	31
141.66	32
142.937	38
144.213	35
145.488	37.5
146.764	33
148.04	34.5
149.316	36
150.592	33.5
151.867	36
153.141	35.5
154.416	38.5
155.69	32.5
156.965	36.5
158.239	39.5
159.512	39.5
160.786	38
162.059	36
163.333	39
164.605	37
165.878	35.5
167.15	36.5
168.423	38
169.694	38
170.966	37
172.238	41
173.51	35
174.78	34.5
176.052	38
177.323	40.5
178.592	32.5
179.863	36.5
181.134	42.5
182.403	39
183.673	37
184.943	41
186.211	44
187.481	37.5
188.749	38
190.018	38
191.287	41.5
192.554	36
193.822	35.5
195.089	35.5
196.357	40.5
197.625	36
198.891	42.5
200.159	39.5
201.425	35.5
202.692	31.5
203.957	33
205.224	35
206.489	36.5
207.755	33.5
209.02	37
210.286	30
211.55	29.5
212.815	30.5
214.079	34
215.344	30
216.607	31.5
217.872	34
219.135	30.5
220.399	34
221.662	32
222.924	34
224.187	30.5
225.449	29.5
226.713	30.5
227.974	31
229.235	32
230.498	33.5
231.759	27
233.019	29.5
234.281	31
235.542	32
236.802	31
238.063	28.5
239.323	28.5
240.582	28
241.843	32.5
243.102	28.5
244.361	31.5
245.621	30
246.879	29
248.138	27.5
249.396	32.5
250.655	25
251.913	29.5
253.17	27.5
254.427	35
255.686	30
256.943	29.5
258.199	33
259.456	31
260.712	28
261.969	31
263.225	32.5
264.481	33.5
265.736	29
266.991	36.5
268.246	24
269.502	30
270.757	29.5
272.011	26
273.265	31
274.519	30
275.773	28
277.027	28.5
278.28	25
279.533	29.5
280.786	29
282.04	28
283.293	27.5
284.545	28
285.798	28
287.049	28
288.301	31
289.553	27
290.804	30.5
292.055	29.5
293.306	28.5
294.557	24
295.807	28.5
297.058	29
298.308	27.5
299.558	26.5
300.808	27
302.057	28.5
303.305	29.5
304.554	28.5
305.803	28
307.052	32.5
308.3	29
309.549	29.5
310.797	30.5
312.045	28.5
313.292	30
314.54	26.5
315.786	27
317.033	29.5
318.28	26
319.526	27.5
320.773	23.5
322.019	29.5
323.264	29
324.51	29
325.755	27
327.001	28.5
328.246	28
329.49	27
330.735	27
331.979	28.5
333.224	27
334.467	30
335.711	31
336.955	31
338.199	30.5
339.441	30
340.684	27.5
341.927	30
343.168	28
344.411	32
345.654	24
346.895	30.5
348.137	26.5
349.379	28
350.619	30
351.86	28.5
353.102	30.5
354.341	32.5
355.582	26
356.821	27.5
358.062	30
359.302	28.5
360.541	29.5
361.781	28
363.019	30.5
364.259	24
365.496	30.5
366.736	27.5
367.974	25
369.212	24
370.45	26
371.687	27.5
372.925	27
374.162	21.5
375.399	28
376.635	30.5
377.873	26
379.109	29
380.344	27.5
381.581	30
382.816	27
384.052	28.5
385.287	30
386.523	30.5
387.757	29.5
388.991	30
390.227	28.5
391.46	29.5
392.695	28.5
393.928	31.5
395.162	28
396.396	31.5
397.629	28
398.861	27
400.095	27.5
401.327	25
402.559	25
403.792	27.5
405.024	29.5
406.255	30
407.488	27
408.719	28
409.949	27.5
411.18	27.5
412.412	25.5
413.642	27.5
414.872	29
416.102	24
417.333	26.5
418.562	29
419.791	28
421.02	29.5
422.249	28.5
423.479	27
424.707	30.5
425.935	28
427.163	25.5
428.391	26
429.619	25.5
430.848	31.5
432.075	26.5
433.302	24.5
434.529	32.5
435.755	29.5
436.982	29.5
438.208	27.5
439.434	22.5
440.66	25.5
441.885	29.5
443.111	31
444.338	27.5
445.563	25
446.788	29
448.012	24.5
449.237	28.5
450.461	30.5
451.685	26
452.909	29.5
454.133	28.5
455.356	26.5
456.579	30.5
457.802	33
459.025	25.5
460.247	27
461.469	28.5
462.691	25.5
463.914	35
465.136	30.5
466.357	29.5
467.579	31.5
468.8	34
470.021	31.5
471.242	34.5
472.462	35
473.682	36
474.903	36
476.123	39
477.343	42
478.563	36.5
479.782	42.5
481	45
482.219	48
483.438	50
484.657	56.5
485.874	51
487.093	56
488.311	55.5
489.529	61.5
490.747	53.5
491.963	52.5
493.181	46.5
494.398	47.5
495.614	45
496.83	49
498.047	49
499.264	42.5
500.479	41.5
501.695	40
502.911	41
504.125	34.5
505.34	33
506.554	36.5
507.769	35
508.984	30.5
510.198	37
511.412	36
512.627	35
513.839	33
515.053	32
516.266	32
517.479	25
518.691	33.5
519.905	31.5
521.118	34.5
522.329	33
523.542	32
524.753	33
525.965	30.5
527.176	28
528.388	31
529.598	29
530.809	31
532.019	34
533.23	29.5
534.44	30.5
535.649	26
536.86	26
538.068	34.5
539.279	34
540.487	31
541.697	27.5
542.905	30.5
544.113	28.5
545.322	27.5
546.53	31
547.737	28
548.946	29
550.153	27
551.361	26
552.568	28
553.774	30
554.982	29
556.188	26
557.394	29
558.599	25.5
559.806	25
561.012	26.5
562.217	30
563.423	30.5
564.628	29
565.832	28
567.036	22
568.241	28
569.446	28
570.65	26.5
571.853	27
573.057	31
574.26	29.5
575.464	34
576.667	31
577.87	25
579.072	29
580.274	28.5
581.477	26.5
582.68	28
583.881	28
585.083	30
586.284	29.5
587.485	28
588.686	26
589.887	29
591.087	31
592.288	28
593.488	29
594.688	29
595.888	30
597.087	22.5
598.287	27
599.486	29.5
600.685	25.5
601.884	28
603.082	23.5
604.281	29.5
605.479	28
606.677	29
607.875	25
609.073	30.5
610.27	30
611.468	26.5
612.665	32
613.862	27.5
615.058	31.5
616.255	25
617.451	31.5
618.648	27.5
619.842	30.5
621.038	29.5
622.234	28
623.429	31
624.624	28
625.819	29.5
627.013	31
628.207	28.5
629.402	28
630.596	30.5
631.79	27
632.983	29
634.177	28
635.37	31
636.564	28.5
637.755	27
638.948	30.5
640.141	28.5
641.334	25.5
642.525	30.5
643.717	27
644.909	34
646.099	29.5
647.291	30
648.483	27
649.674	25
650.864	27
652.055	31.5
653.244	31
654.435	32.5
655.625	26
656.814	27.5
658.004	30
659.193	29.5
660.382	31.5
661.571	26.5
662.759	31.5
663.948	24.5
665.135	28.5
666.324	28.5
667.511	31
668.7	30.5
669.886	33
671.074	30.5
672.262	31
673.448	30
674.634	29
675.821	29
677.007	24
678.194	32
679.379	29.5
680.565	34.5
681.75	34.5
682.936	33.5
684.121	33.5
685.305	35
686.491	39
687.675	34
688.86	31.5
690.043	33
691.227	30
692.411	32
693.594	33
694.777	34
695.961	36.5
697.144	36
698.326	36.5
699.509	31
700.691	35
701.873	38
703.056	38.5
704.237	39.5
705.419	41
706.599	43
707.782	43
708.962	45
710.143	45.5
711.323	47
712.504	41.5
713.684	37
714.864	36.5
716.043	28.5
717.223	32
718.403	29
719.582	26.5
720.761	26.5
721.94	27
723.118	29
724.296	28.5
725.474	32.5
726.652	27
727.831	26
729.009	32
730.186	27.5
731.363	26.5
732.54	28.5
733.717	30
734.893	29
736.07	25.5
737.246	31.5
738.422	27.5
739.598	25.5
740.773	27.5
741.949	27.5
743.124	30
744.299	28.5
745.474	28
746.649	25.5
747.823	36
748.997	30
750.172	26.5
751.346	30.5
752.519	25
753.693	30
754.867	29.5
756.038	24.5
757.211	28.5
758.384	26.5
759.557	29.5
760.73	25
761.902	27
763.074	24
764.246	28
765.417	31.5
766.588	28
767.76	29.5
768.931	32.5
770.102	28
771.271	30.5
772.442	33
773.613	29.5
774.783	30
775.952	28
777.122	32.5
778.291	25
779.461	30.5
780.629	29.5
781.798	31.5
782.967	31
784.135	31.5
785.304	27.5
786.472	32
787.639	36
788.807	33
789.975	31
791.142	34
792.309	36
793.477	26
794.642	27
795.81	27
796.975	25
798.142	29
799.308	29
800.473	25.5
801.639	28
802.804	26
803.97	27
805.134	31
806.299	27.5
807.463	28
808.628	30
809.792	26
810.957	25
812.12	31.5
813.284	33
814.447	26.5
815.611	27.5
816.773	29
817.937	30
819.099	25.5
820.261	24
821.424	29
822.585	27
823.748	26
824.909	29
826.07	27
827.232	28.5
828.393	26
829.554	27.5
830.715	21
831.875	29.5
833.035	25.5
834.196	29.5
835.356	30
836.515	26
837.676	30
838.835	29
839.994	31
841.152	29
842.312	27
843.47	27
844.629	29
845.786	24
846.946	27.5
848.103	28
849.261	28.5
850.418	29
851.575	29.5
852.733	33
853.89	29.5
855.046	28.5
856.203	29
857.359	31.5
858.515	29.5
859.67	30
860.827	31.5
861.983	28
863.138	29
864.293	28
865.448	29
866.603	24.5
867.757	28
868.912	26
870.066	26.5
871.22	27
872.374	24
873.527	27.5
874.681	29.5
875.834	28
876.987	30
878.14	27.5
879.293	30.5
880.445	27
881.598	25.5
882.75	26.5
883.902	26
885.054	30
886.206	26
887.357	29
888.507	26.5
889.658	25
890.809	27
891.96	27
893.111	28
894.261	28
895.411	28
896.561	29
897.71	25.5
898.86	30
900.009	26.5
901.159	29.5
902.308	28.5
903.455	29
904.604	27
905.753	27
906.901	27.5
908.048	26
909.197	22.5
910.344	22
911.492	30
912.639	28.5
913.786	27
914.933	20.5
916.079	29
917.226	25
918.373	27
919.518	24.5
920.664	26.5
921.81	24
922.955	27.5
924.101	28.5
925.245	27
926.391	30.5
927.536	21
928.68	25
929.825	25
930.968	27.5
932.113	26.5
933.256	29
934.4	24.5
935.543	26
936.687	28
937.83	25.5
938.973	28
940.115	26.5
941.258	26.5
942.399	26
943.542	27
944.684	25.5
945.826	26.5
946.967	27.5
948.109	29.5
949.25	22
950.392	27.5
951.532	28.5
952.672	26
953.813	29
954.953	27.5
956.093	26
957.233	25
958.373	27
959.512	27
960.652	25.5
961.791	26.5
962.929	32
964.069	25
965.207	24.5
966.345	25.5
967.484	25.5
968.622	24.5
969.759	26.5
970.896	26
972.035	25.5
973.172	26.5
974.309	30.5
975.445	24
976.582	26
977.719	25
978.855	23
979.991	28.5
981.127	27
982.263	30
983.398	23.5
984.535	29
985.67	25
986.804	22
987.939	25.5
989.074	29.5
990.208	33
991.342	26.5
992.476	28.5
993.61	25
994.744	26
995.877	28.5
997.01	26
998.143	24
999.276	24.5
1000.41	27
1001.54	27.5
1002.67	25.5
1003.81	25.5
1004.94	26.5
1006.07	29
1007.2	26
1008.33	27.5
1009.47	24
1010.6	24.5
1011.73	25.5
1012.86	24
1013.99	26.5
1015.12	27
1016.25	24.5
1017.38	26
1018.51	25
1019.64	23.5
1020.77	25
1021.9	23
1023.03	22
1024.15	30
1025.28	25
1026.41	25.5
1027.54	25.5
1028.67	26.5
1029.8	23
1030.92	22
1032.05	23
1033.18	29.5
1034.31	24
1035.43	24.5
1036.56	26
1037.69	26
1038.81	22
1039.94	24
1041.07	29.5
1042.19	20.5
1043.32	22.5
1044.44	21.5
1045.57	25
1046.69	24.5
1047.82	29
1048.94	25
1050.07	24.5
1051.19	25
1052.32	24.5
1053.44	27.5
1054.57	25.5
1055.69	25.5
1056.81	25
1057.94	27.5
1059.06	28
1060.18	25.5
1061.31	25
1062.43	27.5
1063.55	25.5
1064.67	25.5
1065.8	22.5
1066.92	24.5
1068.04	23.5
1069.16	27
1070.28	27
1071.4	26
1072.52	27.5
1073.64	25
1074.76	28.5
1075.89	23
1077.01	24
1078.13	27
1079.25	25
1080.37	25.5
1081.49	23
1082.6	25.5
1083.72	24
1084.84	27
1085.96	26.5
1087.08	24
1088.2	24
1089.32	24.5
1090.43	25
1091.55	24.5
1092.67	26.5
1093.79	25
1094.91	23
1096.02	22
1097.14	24
1098.26	26.5
1099.37	24
1100.49	22
1101.61	25
1102.72	25
1103.84	23.5
1104.95	24
1106.07	28.5
1107.18	26
1108.3	29.5
1109.41	23.5
1110.53	27
1111.64	22.5
1112.76	21
1113.87	24.5
1114.99	28.5
1116.1	26
1117.21	24
1118.33	26
1119.44	26
1120.55	26.5
1121.67	24
1122.78	23
1123.89	27
1125	26
1126.12	24.5
1127.23	26.5
1128.34	24
1129.45	29
1130.56	28
1131.68	26
1132.79	24.5
1133.9	23
1135.01	22.5
1136.12	25.5
1137.23	26
1138.34	25
1139.45	26
1140.56	26.5
1141.67	25
1142.78	24.5
1143.89	20
1145	24
1146.11	24.5
1147.22	26.5
1148.32	22
1149.43	23
1150.54	24
1151.65	23
1152.76	22.5
1153.86	24
1154.97	25.5
1156.08	26
1157.19	26
1158.29	22
1159.4	23.5
1160.51	26
1161.61	27.5
1162.72	26.5
1163.83	27.5
1164.93	25
1166.04	29
1167.14	25
1168.25	27.5
1169.35	23.5
1170.46	23.5
1171.56	22
1172.67	26.5
1173.77	24.5
1174.88	23.5
1175.98	24
1177.08	27
1178.19	23
1179.29	23.5
1180.4	29
1181.5	28
1182.6	25.5
1183.71	26
1184.81	27
1185.91	27.5
1187.01	26.5
1188.12	25
1189.22	21.5
1190.32	26.5
1191.42	23.5
1192.52	22
1193.62	25.5
1194.72	22.0068
1195.83	26.4056
1196.93	25.5673
1198.03	24.5032
1199.13	28.4579
1200.23	22.4871
1201.33	25.0257
1202.43	26.7823
1203.53	22.7763
1204.63	24.9629
1205.73	23.8485
1206.83	24.0272
1207.92	24.182
1209.02	26.349
1210.12	24.9193
1211.22	24.753
1212.32	20.4391
1213.42	26.0413
1214.51	23.0023
1215.61	26.384
1216.71	26.3175
1217.81	24.7575
1218.9	24.3072
1220	26.0556
1221.1	23.4287
1222.19	24.1053
1223.29	23.5315
1224.39	24.0226
1225.48	25.6784
1226.58	26.9463
1227.68	23.3484
1228.77	25.7352
1229.87	25.0534
1230.96	24.7329
1232.06	23.4528
1233.15	24.4741
1234.25	24.2838
1235.34	22.5332
1236.43	26.5536
1237.53	23.974
1238.62	23.0038
1239.72	23.0317
1240.81	22.9597
1241.9	25.5288
1243	26.9153
1244.09	25.2928
1245.18	26.0655
1246.27	21.9294
1247.37	23.7044
1248.46	24.9898
1249.55	23.8542
1250.64	22.4694
1251.74	22.0187
1252.83	25.9182
1253.92	24.2882
1255.01	26.2148
1256.1	24.4607
1257.19	26.7829
1258.28	26.8641
1259.38	27.171
1260.46	26.1959
1261.56	22.7181
1262.65	23.4534
1263.74	24.1852
1264.82	24.905
1265.91	26.0831
1267	26.5156
1268.09	24.6287
1269.18	24.462
1270.27	27.9323
1271.36	25.1195
1272.45	24.9521
1273.54	26.5364
1274.63	24.7415
1275.71	21.6469
1276.8	23.9449
1277.89	24.329
1278.98	23.8364
1280.06	24.5049
1281.15	26.9746
1282.24	26.9169
1283.32	26.3738
1284.41	25.0358
1285.5	22.8224
1286.58	22.6796
1287.67	26.4148
1288.76	25.4064
1289.84	24.111
1290.93	23.6689
1292.01	22.7169
1293.1	25.9984
1294.18	25.5784
1295.27	24.6574
1296.35	25.2626
1297.44	24.4849
1298.52	25.9479
1299.6	25.0904
1300.69	21.9852
1301.77	26.0311
1302.86	19.7591
1303.94	22.6922
1305.02	23.6183
1306.11	22.6451
1306.41	22.5
1307.5	26.5
1308.59	26
1309.68	17
1310.77	28
1311.85	23.5
1312.94	29
1314.03	26
1315.11	25
1316.2	23.5
1317.29	23.5
1318.37	23
1319.46	22.5
1320.55	23.5
1321.63	26
1322.72	25.5
1323.8	26.5
1324.89	23
1325.98	22
1327.06	26.5
1328.15	22.5
1329.23	26
1330.31	26
1331.4	21
1332.48	22
1333.57	23
1334.65	24.5
1335.74	25
1336.82	25.5
1337.9	22.5
1338.99	30.5
1340.07	21
1341.15	24
1342.24	26
1343.32	23
1344.4	23.5
1345.48	20.5
1346.56	25.5
1347.65	26
1348.73	20
1349.81	24.5
1350.89	27.5
1351.97	23
1353.05	23
1354.13	23.5
1355.21	24.5
1356.29	24
1357.37	21.5
1358.46	26
1359.54	24.5
1360.62	23.5
1361.69	26.5
1362.77	26.5
1363.85	25.5
1364.93	24.5
1366.01	22
1367.09	30.5
1368.17	24
1369.25	27
1370.33	23
1371.41	25
1372.48	26.5
1373.56	27.5
1374.64	25
1375.72	25
1376.79	25
1377.87	24
1378.95	31
1380.02	26
1381.1	22
1382.18	24
1383.25	24
1384.33	26.5
1385.4	29
1386.48	26
1387.56	28.5
1388.63	25.5
1389.71	29.5
1390.78	26
1391.86	29
1392.93	25
1394.01	22
1395.08	25
1396.15	25
1397.23	23.5
1398.3	25
1399.38	29
1400.45	30.5
1401.52	27
1402.6	30
1403.67	27
1404.74	29
1405.81	28
1406.89	32
1407.96	27.5
1409.03	32
1410.1	28.5
1411.17	32
1412.25	28.5
1413.32	29
1414.39	33
1415.46	24
1416.53	33
1417.6	27
1418.67	23.5
1419.74	28.5
1420.81	25
1421.88	28.5
1422.95	26
1424.02	26
1425.09	21
1426.16	27
1427.23	30.5
1428.3	28
1429.37	29.5
1430.44	27
1431.51	23
1432.58	25
1433.64	24.5
1434.71	23
1435.78	29
1436.85	26
1437.92	29.5
1438.98	26
1440.05	27
1441.12	27
1442.18	23.5
1443.25	24
1444.32	23
1445.38	25.5
1446.45	25
1447.52	29
1448.58	24
1449.65	26
1450.71	28.5
1451.78	25
1452.84	24.5
1453.91	23
1454.97	29
1456.04	21
1457.1	25
1458.17	25.5
1459.23	25.5
1460.3	20.5
1461.36	27
1462.42	23
1463.49	24.5
1464.55	25.5
1465.61	24
1466.68	26.5
1467.74	25
1468.8	27
1469.86	27.5
1470.93	25
1471.99	26
1473.05	27
1474.11	26
1475.17	27
1476.24	27.5
1477.3	22
1478.36	22
1479.42	27.5
1480.48	27.5
1481.54	23.5
1482.6	25.5
1483.66	24
1484.72	23
1485.78	28
1486.84	28.5
1487.9	26
1488.96	23.5
1490.02	25
1491.08	23.5
1492.14	27.5
1493.2	22.5
1494.26	26
1495.31	27.5
1496.37	29.5
1497.43	23
1498.49	26
1499.55	22
1500.6	28
1501.66	26.5
1502.72	25.5
1503.78	24.5
1504.83	26
1505.89	25
1506.95	24
1508	24.5
1509.06	26
1510.12	27
1511.17	26.5
1512.23	26
1513.28	23.5
1514.34	24
1515.39	27.5
1516.45	27
1517.5	24
1518.56	23.5
1519.61	26.5
1520.67	21.5
1521.72	22.5
1522.78	25.5
1523.83	28
1524.88	29
1525.94	26
1526.99	27
1528.05	26
1529.1	25
1530.15	26
1531.2	23
1532.26	25
1533.31	27
1534.36	25.5
1535.41	26
1536.47	27
1537.52	31
1538.57	25
1539.62	25.5
1540.67	26
1541.72	26.5
1542.77	26
1543.83	24
1544.88	24
1545.93	27
1546.98	26
1548.03	24
1549.08	26.5
1550.13	25.5
1551.18	26
1552.23	27
1553.28	26.5
1554.32	25.5
1555.37	27
1556.42	25
1557.47	27
1558.52	23
1559.57	28
1560.62	25
1561.67	30
1562.71	23
1563.76	27.5
1564.81	23
1565.86	24.5
1566.9	27
1567.95	23
1569	25.5
1570.04	26
1571.09	26.5
1572.14	24.5
1573.18	23
1574.23	29
1575.27	24.5
1576.32	24
1577.37	30.5
1578.41	28.5
1579.46	24.5
1580.5	28
1581.55	27.5
1582.59	28
1583.64	24.5
1584.68	24.5
1585.72	23
1586.77	28.5
1587.81	26
1588.86	24.5
1589.9	24
1590.94	26
1591.99	20
1593.03	28
1594.07	24
1595.12	24
1596.16	20
1597.2	22
1598.24	27
1599.29	24
1600.33	24.5
1601.37	30.5
1602.41	26
1603.45	26
1604.49	27
1605.53	26.5
1606.58	28.5
1607.62	24
1608.66	25.5
1609.7	26.5
1610.74	27
1611.78	24
1612.82	26
1613.86	25.5
1614.9	28
1615.94	28
1616.98	24.5
1618.02	26.5
1619.06	27.5
1620.09	22.5
1621.13	25
1622.17	27
1623.21	26.5
1624.25	22.5
1625.29	29
1626.32	24
1627.36	24
1628.4	24.5
1629.44	27.5
1630.47	22
1631.51	26
1632.55	27.5
1633.58	27.5
1634.62	24
1635.66	25
1636.69	25
1637.73	25.5
1638.77	24.5
1639.8	26
1640.84	26
1641.87	29
1642.91	27
1643.94	20
1644.98	24.5
1646.01	25
1647.05	25.5
1648.08	29
1649.12	30
1650.15	27.5
1651.18	26.5
1652.22	29
1653.25	27
1654.29	25
1655.32	29
1656.35	25
1657.39	24.5
1658.42	25.5
1659.45	25
1660.48	22
1661.52	25
1662.55	26.5
1663.58	29.5
1664.61	25.5
1665.64	27.5
1666.68	24.5
1667.71	26
1668.74	25.5
1669.77	26.5
1670.8	23.5
1671.83	26
1672.86	26
1673.89	29.5
1674.92	24.5
1675.95	29.5
1676.98	27
1678.01	28
1679.04	25.5
1680.07	20.5
1681.1	23.5
1682.13	26
1683.16	22
1684.19	26
1685.22	21
1686.25	24.5
1687.27	30.5
1688.3	20.5
1689.33	25
1690.36	25.5
1691.38	25
1692.41	34
1693.44	26
1694.47	27.5
1695.49	28
1696.52	23.5
1697.55	24
1698.57	23.5
1699.6	23
1700.63	23.5
1701.65	24
1702.68	24
1703.7	26
1704.73	25.5
1705.76	23.5
1706.78	26.5
1707.81	27.5
1708.83	26.5
1709.86	25
1710.88	25.5
1711.91	31.5
1712.93	21
1713.95	23
1714.98	24.5
1716	25
1717.03	23
1718.05	25.5
1719.07	23
1720.1	28
1721.12	26
1722.14	23.5
1723.16	27
1724.19	25.5
1725.21	26
1726.23	23
1727.25	24.5
1728.28	25.5
1729.3	30.5
1730.32	28
1731.34	27
1732.36	26
1733.38	25.5
1734.41	25.5
1735.43	24
1736.45	24
1737.47	24
1738.49	27
1739.51	24.5
1740.53	23.5
1741.55	28.5
1742.57	26
1743.59	24
1744.61	26
1745.63	23
1746.64	25
1747.66	29
1748.68	27
1749.7	26
1750.72	23.5
1751.74	21
1752.76	27
1753.77	22
1754.79	26
1755.81	25.5
1756.83	23.5
1757.84	22.5
1758.86	23.5
1759.88	23
1760.9	26
1761.91	28.5
1762.93	23
1763.95	27
1764.96	28
1765.98	25
1766.99	24.5
1768.01	27
1769.02	24.5
1770.04	24
1771.06	24
1772.07	26
1773.09	25
1774.1	24.5
1775.12	24
1776.13	24
1777.14	26
1778.16	26
1779.17	25
1780.19	28
1781.2	22
1782.21	26.5
1783.23	25
1784.24	28.5
1785.25	23
1786.27	26.5
1787.28	24.5
1788.29	25
1789.3	24.5
1790.32	27.5
1791.33	26.5
1792.34	25
1793.35	27.5
1794.36	24.5
1795.38	25
1796.39	27.5
1797.4	19.5
1798.41	28
1799.42	26.5
1800.43	25
1801.44	25
1802.45	23
1803.46	25
1804.47	26
1805.48	21.5
1806.49	24.5
1807.5	26
1808.51	25
1809.52	23.5
1810.53	24
1811.54	23
1812.55	22.5
1813.56	26.5
1814.57	24
1815.57	27
1816.58	24
1817.59	24.5
1818.6	22
1819.61	26
1820.61	24
1821.62	26.5
1822.63	21.5
1823.64	27
1824.64	27.5
1825.65	25.5
1826.66	25.5
1827.66	23
1828.67	28
1829.68	24.5
1830.68	25
1831.69	18
1832.69	24
1833.7	26
1834.7	28
1835.71	24
1836.71	26.5
1837.72	23
1838.72	27
1839.73	24.5
1840.73	26.5
1841.74	25.5
1842.74	25.5
1843.75	26.5
1844.75	24
1845.75	23
1846.76	29
1847.76	24.5
1848.76	25
1849.77	21.5
1850.77	26.5
1851.77	25
1852.78	23.5
1853.78	23
1854.78	26
1855.78	27
1856.78	22.5
1857.79	29
1858.79	24
1859.79	25.5
1860.79	25
1861.79	26
1862.79	24
1863.79	25.5
1864.79	24.5
1865.79	26
1866.8	23.5
1867.8	25.5
1868.8	25
1869.8	28
1870.8	27.5
1871.8	23.5
1872.8	23
1873.79	25
1874.79	26
1875.79	23
1876.79	25
1877.79	25
1878.79	28
1879.79	22.5
1880.79	23
1881.78	27.5
1882.78	23.5
1883.78	28
1884.78	23
1885.77	25
1886.77	23
1887.77	28
1888.77	23.5
1889.76	25
1890.76	21.5
1891.76	23
1892.75	24
1893.75	26.5
1894.75	29.5
1895.74	24.5
1896.74	27
1897.73	25.5
1898.73	26.5
1899.73	25.5
1900.72	23
1901.72	25.5
1902.71	25.5
1903.7	23.5
1904.7	25
1905.69	29
1906.69	26
1907.68	28.5
1908.68	24
1909.67	24
1910.66	24.5
1911.66	21.5
1912.65	25.5
1913.64	24.5
1914.64	22.5
1915.63	26
1916.62	27
1917.62	26.5
1918.61	28.5
1919.6	25
1920.59	26
1921.58	30.5
1922.58	25.5
1923.57	26.5
1924.56	26.5
1925.55	23.5
1926.54	24
1927.53	24
1928.52	26
1929.51	24
1930.51	28
1931.5	26
1932.49	22
1933.48	24.5
1934.47	24.5
1935.46	25.5
1936.45	25
1937.44	24
1938.42	26.5
1939.41	23
1940.4	24
1941.39	22
1942.38	27.5
1943.37	26
1944.36	23.5
1945.35	25.5
1946.33	24
1947.32	24
1948.31	24.25
1949.3	24.5
1950.29	24.5
1951.27	26.5
1952.26	26.5
1953.25	27.5
1954.23	21
1955.22	27.5
1956.21	25.5
1957.19	24
1958.18	28.5
1959.17	23
1960.15	26.5
1961.14	27
1962.13	26.5
1963.11	22
1964.1	25
1965.08	26
1966.07	25.5
1967.05	28
1968.04	20
1969.02	23
1970.01	20
1970.99	24
1971.97	25
1972.96	26.5
1973.94	23
1974.93	24
1975.91	22.5
1976.89	24.5
1977.88	22
1978.86	26
1979.84	23
1980.83	27
1981.81	22.5
1982.79	22
1983.77	26.5
1984.76	23
1985.74	27
1986.72	27
1987.7	29
1988.68	24
1989.67	24
1990.65	22
1991.63	25.5
1992.61	24.5
1993.59	21.5
1994.57	27.5
1995.55	27
1996.53	26.5
1997.51	25
1998.49	26
1999.47	24.5
2000.45	22.5
2001.43	23.5
2002.41	20
2003.39	22.5
2004.37	26.5
2005.35	22
2006.33	23.5
2007.31	27
2008.29	25.5
2009.26	24
2010.24	22.5
2011.22	23
2012.2	22
2013.18	24.5
2014.15	22.5
2015.13	24.5
2016.11	24
2017.09	25
2018.06	22
2019.04	24.5
2020.02	25
2021	25
2021.97	24.5
2022.95	21.5
2023.92	18.5
2024.9	24.5
2025.88	26
2026.85	25.5
2027.83	26
2028.8	24
2029.78	25.5
2030.75	24
2031.73	23.5
2032.7	24.5
2033.68	20.5
2034.65	23.5
2035.63	23.5
2036.6	26
2037.58	29
2038.55	26.5
2039.52	23
2040.5	27.5
2041.47	23
2042.45	23.5
2043.42	25
2044.39	21.5
2045.36	22
2046.34	22.5
2047.31	25.5
2048.28	24
2049.26	25
2050.23	23.5
2051.2	25.5
2052.17	22
2053.14	19.5
2054.12	23
2055.09	21.5
2056.06	19
2057.03	24.5
2058	24.5
2058.97	24.5
2059.94	23.5
2060.91	24
2061.88	23
2062.85	21.5
2063.82	20
2064.79	25.5
2065.76	25
2066.73	24
2067.7	27.5
2068.67	24
2069.64	24.5
2070.61	26.5
2071.58	23
2072.55	24.5
2073.52	24.5
2074.49	27
2075.45	23
2076.42	25.5
2077.39	21
2078.36	25
2079.33	23.5
2080.29	22
2081.26	23
2082.23	21
2083.2	21
2084.16	25.5
2085.13	20
2086.1	25
2087.06	23.5
2088.03	23
2089	24
2089.96	25.5
2090.93	29.5
2091.89	23.5
2092.86	24
2093.83	26.5
2094.79	20
2095.76	25
2096.72	25
2097.69	22
2098.65	22
2099.62	29
2100.58	29
2101.55	23
2102.51	22
2103.47	22
2104.44	23.5
2105.4	25.5
2106.36	26
2107.33	24.5
2108.29	24
2109.25	20
2110.22	23.5
2111.18	24.5
2112.14	23.5
2113.11	25
2114.07	24.5
2115.03	24.5
2115.99	22.5
2116.96	22.5
2117.92	26
2118.88	21
2119.84	22.5
2120.8	23.5
2121.76	21.5
2122.72	26
2123.68	26
2124.65	24
2125.61	22
2126.57	25
2127.53	28
2128.49	24
2129.45	24
2130.41	24
2131.37	26
2132.33	23
2133.29	23.5
2134.25	26.5
2135.21	24.5
2136.17	23
2137.12	24
2138.08	24
2139.04	25
2140	21.5
2140.96	23
2141.92	24.5
2142.88	20.5014
2143.83	24.3799
2144.79	18.5917
2145.75	21.0864
2146.71	20.1952
2147.66	20.6196
2148.62	22.9531
2149.58	21.9997
2150.53	22.2721
2151.49	23.3283
2152.45	21.8591
2153.4	25.8859
2154.36	21.8236
2155.32	24.8366
2156.27	22.8158
2157.23	23.7307
2158.19	24.5807
2159.14	20.5175
2160.1	24.6934
2161.05	24.4639
2162.01	23.0625
2162.96	23.668
2163.92	23.5248
2164.87	25.3423
2165.83	20.7932
2166.78	22.9751
2167.73	22.6522
2168.69	24.8117
2169.64	24.9677
2170.6	25.3386
2171.55	19.819
2172.5	25.1359
2173.46	22.4877
2174.41	25.5693
2175.36	19.4527
2176.32	21.6304
2177.27	22.7389
2178.22	22.8016
2179.18	20.9976
2180.13	23.0125
2181.08	21
2182.03	22.5247
2182.98	23.3915
2183.94	21.3635
2184.89	20.89
2185.84	23.0913
2186.79	23.476
2187.74	23.0453
2188.69	22.5291
2189.64	22.0188
2190.6	23.7561
2191.55	21.4926
2192.5	23.2601
2193.45	24.0112
2194.4	21.072
2195.35	23.535
2196.3	23.4476
2197.25	20.4457
2198.2	22.3378
2199.15	21.8597
2200.1	20.4632
2201.04	19.7511
2201.99	22.6295
2202.94	25.1031
2203.89	22.2888
2204.84	23.356
2205.79	23.5159
2206.74	23.4135
2207.69	22.9164
2208.63	23.5121
2209.58	22.7314
2210.53	21.4247
2211.48	24.9248
2212.43	24.4768
2213.37	24.043
2214.32	22.1087
2215.27	21.9117
2216.21	24.8513
2217.16	21.2564
2218.11	22.1632
2219.05	19.7044
2220	22.4875
2220.95	22.2484
2221.89	24.885
2222.84	24.5267
2223.78	22.8289
2224.73	26.8197
2225.68	23.4428
2226.62	24.5082
2227.57	20.5263
2228.51	22.15
2229.46	22.2704
2230.4	23.7725
2231.35	22.4343
2232.29	20.2323
2233.24	22.1921
2234.18	23.4304
2235.12	20.5525
2236.07	20.9095
2237.01	22.0804
2237.95	24.4151
2238.9	24.9854
2239.84	23.0842
2240.06	22.5
2241.01	19
2241.96	25
2242.91	24.5
2243.86	19
2244.8	22.5
2245.75	19
2246.7	21
2247.65	20
2248.59	18.5
2249.54	24
2250.49	22
2251.43	25.5
2252.38	20.5
2253.33	25
2254.27	23.5
2255.22	22.5
2256.16	21.5
2257.11	22
2258.06	24
2259	23.5
2259.95	24.5
2260.89	24
2261.84	20
2262.78	20
2263.73	22
2264.67	23
2265.62	22
2266.56	20
2267.5	25
2268.45	23.5
2269.39	24
2270.34	22
2271.28	21.5
2272.22	22.5
2273.17	23
2274.11	22
2275.05	26.5
2276	22
2276.94	20
2277.88	25.5
2278.82	21.5
2279.77	23
2280.71	24
2281.65	21.5
2282.59	24
2283.53	18
2284.48	20.5
2285.42	24.5
2286.36	20
2287.3	23.5
2288.24	23
2289.18	18.5
2290.12	26
2291.06	24
2292	27
2292.94	22.5
2293.89	23
2294.83	24.5
2295.77	20
2296.71	22
2297.65	24
2298.58	26
2299.52	25.5
2300.46	25
2301.4	24
2302.34	26
2303.28	22
2304.22	25
2305.16	20.5
2306.1	20
2307.03	17.5
2307.97	25
2308.91	24
2309.85	23
2310.79	23
2311.72	23
2312.66	20.5
2313.6	24
2314.54	23.5
2315.47	24.5
2316.41	23.5
2317.35	20
2318.28	24
2319.22	21.5
2320.16	25.5
2321.09	24
2322.03	25
2322.96	23.5
2323.9	23
2324.84	22
2325.77	21
2326.71	24.5
2327.64	25.5
2328.58	25.5
2329.51	25
2330.45	27.5
2331.38	25
2332.32	20
2333.25	25
2334.18	26
2335.12	20
2336.05	25
2336.99	24
2337.92	23.5
2338.85	24
2339.79	22
2340.72	23
2341.65	21.5
2342.59	24.5
2343.52	24
2344.45	25.5
2345.39	22.5
2346.32	26.5
2347.25	23.5
2348.18	23.5
2349.11	19
2350.05	20
2350.98	23
2351.91	17
2352.84	24
2353.77	24.5
2354.7	23.5
2355.64	26.5
2356.57	24
2357.5	26
2358.43	25
2359.36	23
2360.29	22.5
2361.22	22
2362.15	24.5
2363.08	23
2364.01	24.5
2364.94	24.5
2365.87	20.5
2366.8	27
2367.73	23.5
2368.66	23
2369.58	24
2370.51	22
2371.44	24
2372.37	24
2373.3	20
2374.23	23.5
2375.16	21
2376.08	24
2377.01	24
2377.94	19
2378.87	23.5
2379.8	22
2380.72	25
2381.65	24
2382.58	24.5
2383.5	24
2384.43	24.5
2385.36	20.5
2386.28	22
2387.21	24.5
2388.14	21.5
2389.06	23
2389.99	24.5
2390.91	23
2391.84	27.5
2392.77	26.5
2393.69	23
2394.62	24
2395.54	18
2396.47	22.5
2397.39	21
2398.32	25.5
2399.24	23
2400.16	23.5
2401.09	22.5
2402.01	27.5
2402.94	23.5
2403.86	22.5
2404.78	25.5
2405.71	25.5
2406.63	23
2407.56	22.5
2408.48	22.5
2409.4	25.5
2410.32	23
2411.25	23.5
2412.17	22.5
2413.09	22.5
2414.02	20
2414.94	21
2415.86	25
2416.78	23
2417.7	25.5
2418.63	23
2419.55	23
2420.47	22.5
2421.39	25.5
2422.31	23
2423.23	26
2424.15	25
2425.07	25.5
2425.99	19.5
2426.92	25.5
2427.84	23
2428.76	26
2429.68	26
2430.59	23
2431.51	23.5
2432.43	24
2433.35	24
2434.27	26
2435.19	24
2436.11	25
2437.03	22.5
2437.95	29
2438.87	23
2439.79	25
2440.71	19
2441.62	22
2442.54	26
2443.46	24
2444.38	23
2445.3	22
2446.21	21
2447.13	18
2448.05	21.5
2448.97	27.5
2449.88	23.5
2450.8	19
2451.72	23
2452.63	24
2453.55	24.5
2454.47	23.5
2455.38	24
2456.3	21
2457.21	24.5
2458.13	23.5
2459.05	25.5
2459.96	25.5
2460.88	27
2461.79	22.5
2462.71	20
2463.62	24.5
2464.54	22
2465.45	23
2466.37	22.5
2467.28	24.5
2468.2	28
2469.11	23
2470.02	23
2470.94	25
2471.85	22
2472.77	25
2473.68	26
2474.59	24
2475.51	27
2476.42	22
2477.33	25
2478.25	22
2479.16	21.5
2480.07	26.5
2480.98	25
2481.9	24.5
2482.81	20.5
2483.72	26
2484.63	27
2485.55	24
2486.46	24.5
2487.37	25
2488.28	25
2489.19	24
2490.1	23
2491.01	20.5
2491.92	24.5
2492.83	22
2493.74	25
2494.66	24.5
2495.57	27
2496.48	22.5
2497.39	21.5
2498.3	21.5
2499.21	24
2500.12	22
2501.03	25
2501.93	22
2502.84	28
2503.75	21.5
2504.66	22
2505.57	27.5
2506.48	24.5
2507.39	25.5
2508.3	25
2509.21	23
2510.11	25
2511.02	23.5
2511.93	24
2512.84	25
2513.75	29
2514.65	22
2515.56	22
2516.47	22
2517.37	25
2518.28	23
2519.19	23
2520.09	23
2521	25
2521.91	22
2522.81	24
2523.72	24
2524.63	26
2525.53	24.5
2526.44	24
2527.34	23
2528.25	27.5
2529.16	21.5
2530.06	29.5
2530.97	26
2531.87	22
2532.78	29
2533.68	26
2534.58	23.5
2535.49	22
2536.39	26
2537.3	27
2538.2	22.5
2539.11	30
2540.01	20
2540.91	25.5
2541.82	25
2542.72	21
2543.62	25.5
2544.53	25.5
2545.43	22
2546.33	23
2547.23	26.5
2548.14	20.5
2549.04	23
2549.94	24
2550.84	25.5
2551.75	23.5
2552.65	23
2553.55	23
2554.45	25.5
2555.35	25.5
2556.26	25
2557.16	22.5
2558.06	26
2558.96	25
2559.86	23.5
2560.76	24.5
2561.66	23.5
2562.56	27.5
2563.46	23
2564.36	28
2565.26	25
2566.16	16.5
2567.06	22.5
2567.96	26
2568.86	24.5
2569.76	21
2570.66	24.5
2571.56	22.5
2572.46	21
2573.36	22.5
2574.26	25.5
2575.16	27.5
2576.05	20
2576.95	26
2577.85	20.5
2578.75	23
2579.65	20.5
2580.54	21
2581.44	28
2582.34	23
2583.24	24
2584.13	20.5
2585.03	24.5
2585.93	26.5
2586.83	26
2587.72	26.5
2588.62	20
2589.52	23
2590.41	23
2591.31	20.5
2592.2	23
2593.1	25
2594	24.5
2594.89	24
2595.79	23.5
2596.68	22.5
2597.58	21
2598.47	26.5
2599.37	27
2600.26	23
2601.16	24
2602.05	24.5
2602.95	22
2603.84	23
2604.74	21
2605.63	26.5
2606.52	23
2607.42	23.5
2608.31	23
2609.21	25.5
2610.1	24.5
2610.99	26
2611.89	27
2612.78	20.5
2613.67	25
2614.56	23
2615.46	23.5
2616.35	24.5
2617.24	23.5
2618.13	25
2619.03	25
2619.92	21.5
2620.81	22
2621.7	26.5
2622.59	25
2623.49	25.5
2624.38	24
2625.27	26
2626.16	30.5
2627.05	26
2627.94	25.5
2628.83	22.5
2629.72	23.5
2630.61	24
2631.5	25.5
2632.39	24.5
2633.28	23.5
2634.17	25.5
2635.06	21
2635.95	23.5
2636.84	28
2637.73	23.5
2638.62	24
2639.51	21.5
2640.4	23.5
2641.29	25.5
2642.18	20
2643.07	26
2643.96	23
2644.84	25
2645.73	28.5
2646.62	26
2647.51	22.5
2648.4	24
2649.28	26
2650.17	23
2651.06	23.5
2651.95	27.5
2652.83	25
2653.72	23.5
2654.61	25
2655.49	26
2656.38	24
2657.27	25.5
2658.16	27
2659.04	19
2659.93	27
2660.81	23
2661.7	24.5
2662.59	22.5
2663.47	31.5
2664.36	25
2665.24	27.5
2666.13	24
2667.01	22
2667.9	26
2668.78	21.5
2669.67	21
2670.55	19.5
2671.44	23.5
2672.32	25
2673.21	27
2674.09	26
2674.97	26
2675.86	26
2676.74	23
2677.62	25.5
2678.51	25
2679.39	25
2680.27	24
2681.16	27
2682.04	28
2682.92	23.5
2683.81	24.5
2684.69	25
2685.57	29.5
2686.45	25.5
2687.34	25.5
2688.22	24.5
2689.1	28
2689.98	21
2690.86	25.5
2691.75	25
2692.63	22.5
2693.51	21.5
2694.39	23
2695.27	24
2696.15	18.5
2697.03	25.5
2697.91	23.5
2698.79	24
2699.67	25
2700.55	25
2701.43	23.5
2702.31	27
2703.19	23
2704.07	27
2704.95	20
2705.83	25
2706.71	28
2707.59	27
2708.47	22
2709.35	26
2710.23	21
2711.11	21.5
2711.99	23.5
2712.86	27
2713.74	24.5
2714.62	20
2715.5	29.5
2716.38	26
2717.26	22.5
2718.13	25
2719.01	27
2719.89	23.5
2720.77	23
2721.64	23.5
2722.52	23.5
2723.4	19
2724.27	24.5
2725.15	21
2726.03	25.5
2726.9	27
2727.78	26
2728.66	23.5
2729.53	24.5
2730.41	17.5
2731.28	25
2732.16	26
2733.03	26.5
2733.91	20
2734.79	24.5
2735.66	22.5
2736.54	27
2737.41	23
2738.29	25
2739.16	21
2740.03	22.5
2740.91	20.5
2741.78	24
2742.66	24
2743.53	28.5
2744.41	22
2745.28	26
2746.15	26
2747.03	23.5
2747.9	22
2748.77	24.5
2749.65	22
2750.52	26
2751.39	22.5
2752.27	25
2753.14	26.5
2754.01	22
2754.88	24.5
2755.75	21
2756.63	27.5
2757.5	27
2758.37	24.5
2759.24	25
2760.11	22
2760.99	24.5
2761.86	24
2762.73	25
2763.6	22
2764.47	24.5
2765.34	24.5
2766.21	26
2767.08	25
2767.95	22.5
2768.82	27
2769.69	25.5
2770.56	25.5
2771.43	24.5
2772.3	24
2773.17	24.5
2774.04	21
2774.91	23
2775.78	27
2776.65	21.5
2777.52	27.5
2778.39	22
2779.26	26.5
2780.13	22.5
2780.99	26
2781.86	26
2782.73	24
2783.6	27
2784.47	24.5
2785.34	27
2786.2	27.5
2787.07	23.5
2787.94	21.5
2788.81	27
2789.67	28.5
2790.54	24
2791.41	27.5
2792.27	23
2793.14	27
2794.01	29
2794.87	30
2795.74	25.5
2796.61	25
2797.47	23
2798.34	27.5
2799.21	25
2800.07	24.5
2800.94	25
2801.8	25.5
2802.67	24
2803.53	24
2804.4	26.5
2805.26	25
2806.13	24
2806.99	29.5
2807.86	26.5
2808.72	25.5
2809.59	30
2810.45	24
2811.32	26
2812.18	27
2813.04	27.5
2813.91	23
2814.77	24
2815.64	26
2816.5	28
2817.36	25
2818.22	23.5
2819.09	26.5
2819.95	26
2820.81	27
2821.68	24
2822.54	26
2823.4	24.5
2824.26	26
2825.13	27.5
2825.99	27.5
2826.85	27
2827.71	27
2828.57	22
2829.44	29
2830.3	24.5
2831.16	28
2832.02	23
2832.88	24.5
2833.74	24.5
2834.6	25.5
2835.46	24
2836.32	23.5
2837.18	26
2838.04	27
2838.9	25.5
2839.76	21
2840.62	27.5
2841.48	29
2842.34	22
2843.2	30
2844.06	24
2844.92	25
2845.78	25
2846.64	25
2847.5	22.5
2848.36	28
2849.22	21
2850.08	26.5
2850.93	26.5
2851.79	25.5
2852.65	29
2853.51	25.5
2854.37	25
2855.22	25.5
2856.08	24
2856.94	28
2857.8	25
2858.65	21.5
2859.51	24.5
2860.37	27
2861.23	24
2862.08	25
2862.94	25.5
2863.79	25
2864.65	25.5
2865.51	27
2866.36	24.5
2867.22	25
2868.08	27
2868.93	22
2869.79	29
2870.64	26
2871.5	26.5
2872.35	29
2873.21	29.5
2874.06	24.5
2874.92	24.5
2875.77	29.5
2876.63	31.5
2877.48	28.5
2878.34	30.5
2879.19	30.5
2880.05	30
2880.9	29
2881.76	30
2882.61	34.5
2883.46	29.5
2884.32	31.5
2885.17	29.5
2886.02	32.5
2886.88	35.5
2887.73	33
2888.58	31.5
2889.44	36
2890.29	37.5
2891.14	34.5
2891.99	40
2892.85	36
2893.7	44.5
2894.55	42
2895.4	37.5
2896.25	45
2897.11	53.5
2897.96	48
2898.81	54
2899.66	53.5
2900.51	56.5
2901.36	60
2902.21	63
2903.07	57
2903.92	63.5
2904.77	63
2905.62	57.5
2906.47	61
2907.32	62
2908.17	60
2909.02	67.5
2909.87	63.5
2910.72	57.5
2911.57	53
2912.42	49
2913.27	48
2914.12	45
2914.97	42
2915.81	43
2916.66	40
2917.51	36.5
2918.36	36.5
2919.21	37
2920.06	33
2920.91	34.5
2921.75	34.5
2922.6	32.5
2923.45	29.5
2924.3	27
2925.15	32
2925.99	29.5
2926.84	24
2927.69	29
2928.54	29
2929.38	28
2930.23	27
2931.08	28
2931.92	27.5
2932.77	27
2933.62	28.5
2934.46	31.5
2935.31	27.5
2936.16	28.5
2937	27.5
2937.85	27
2938.69	24.5
2939.54	29.5
2940.38	25
2941.23	30.5
2942.08	28.5
2942.92	26.5
2943.77	26
2944.61	26
2945.46	26.5
2946.3	30
2947.15	27
2947.99	27.5
2948.83	30
2949.68	27.5
2950.52	28.5
2951.37	31.5
2952.21	32
2953.05	28
2953.9	29
2954.74	31
2955.58	28
2956.43	37
2957.27	31.5
2958.11	35
2958.96	34
2959.8	35
2960.64	42
2961.48	41.5
2962.33	37
2963.17	35
2964.01	36
2964.85	42
2965.69	39.5
2966.54	39.5
2967.38	38
2968.22	33
2969.06	36
2969.9	39.5
2970.74	34
2971.58	33.4903
2972.43	32.5057
2973.27	31.5252
2974.11	32.0014
2974.95	29.1708
2975.79	34.4682
2976.63	32.8929
2977.47	32.1954
2978.31	32.6975
2979.15	28.8424
2979.99	27.2699
2980.83	30.325
2981.67	23.9648
2982.51	29.7198
2983.35	26.3419
2984.19	26.3519
2985.03	25.1358
2985.86	27.2451
2986.7	23.7989
2987.54	23.784
2988.38	25.0715
2989.22	25.545
2990.06	25.8301
2990.9	26.8425
2991.73	26.408
2992.57	26.932
2993.41	25.3184
2994.25	24.2119
2995.09	23.7953
2995.92	25.3568
2996.76	23.2576
2997.6	26.5121
2998.44	24.3586
2999.27	21.9167
3000.11	21.7439
3000.95	23.1656
3001.78	26.0288
3002.62	24.7699
3003.46	22.4691
3004.29	24.2064
3005.13	22.4132
3005.96	23.4753
3006.8	22.9386
3007.64	25.7499
3008.47	24.3766
3009.31	23.0854
3010.14	20.5301
3010.98	21.9896
3011.81	23.3018
3012.65	21.7283
3013.48	22.3373
3014.32	23.7458
3015.15	21.5185
3015.99	21.9553
3016.82	22.4356
3017.66	22.2533
3018.49	24.6264
3019.33	22.5451
3020.16	22.2336
3020.99	20.4939
3021.83	23.4917
3022.66	23.2277
3023.5	22.9047
3024.33	22.885
3025.16	24.1193
3026	24.434
3026.83	22.5411
3027.66	22.5908
3028.49	23.1723
3029.33	23.0836
3030.16	23.1611
3030.99	23.6207
3031.83	23.6958
3032.66	22.3999
3033.49	25.3776
3034.32	25.717
3035.15	23.8048
3035.99	21.2635
3036.82	21.6173
3037.65	21.8354
3038.48	21.1525
3039.31	20.4986
3040.14	22.5828
3040.97	22.9945
3041.81	21.2122
3042.64	22.3293
3043.47	22.6281
3044.3	20.2369
3045.13	21.3381
3045.96	24.515
3046.79	24.5154
3047.62	23.143
3048.45	21.051
3049.28	20.1902
3050.11	19.6612
3050.94	23.152
3051.77	25.5839
3052.6	24.4758
3053.43	23.8397
3054.26	25.091
3055.08	23.6242
3055.91	22.1276
3056.74	25.1347
3057.26	27
3058.09	20
3058.92	21.5
3059.76	23
3060.59	22
3061.42	27.5
3062.25	22
3063.09	23.5
3063.92	23
3064.75	18.5
3065.58	24
3066.42	21.5
3067.25	20
3068.08	23
3068.91	21.5
3069.74	26.5
3070.57	22
3071.41	22
3072.24	23.5
3073.07	22.5
3073.9	22
3074.73	17.5
3075.56	24
3076.39	22.5
3077.22	24
3078.05	22
3078.88	23
3079.71	23.5
3080.54	26
3081.37	22
3082.2	23
3083.03	26
3083.86	27.5
3084.69	26.5
3085.52	23
3086.35	22
3087.18	23.5
3088.01	24
3088.84	18
3089.67	20
3090.5	20.5
3091.32	19.5
3092.15	25.5
3092.98	20
3093.81	27
3094.64	22
3095.47	23
3096.29	24.5
3097.12	21.5
3097.95	21
3098.78	20
3099.6	22.5
3100.43	22
3101.26	22.5
3102.09	24
3102.91	27
3103.74	21
3104.57	20
3105.39	23
3106.22	25
3107.05	23
3107.87	18.5
3108.7	22.5
3109.52	24
3110.35	24
3111.18	24.5
3112	22.5
3112.83	22.5
3113.65	24
3114.48	21
3115.3	22.5
3116.13	22.5
3116.95	23
3117.78	20
3118.6	24
3119.43	21.5
3120.25	26
3121.08	20.5
3121.9	24
3122.72	22.5
3123.55	25
3124.37	23.5
3125.2	22.5
3126.02	22.5
3126.84	21
3127.67	25.5
3128.49	22.5
3129.31	21.5
3130.14	21
3130.96	25.5
3131.78	23
3132.61	24
3133.43	23
3134.25	22
3135.07	23
3135.89	23
3136.72	21
3137.54	22.5
3138.36	27
3139.18	24
3140	24.5
3140.83	18
3141.65	20.5
3142.47	18.5
3143.29	24.5
3144.11	23.5
3144.93	23
3145.75	23.5
3146.57	21.5
3147.4	17.5
3148.22	25
3149.04	21.5
3149.86	26.5
3150.68	22
3151.5	26
3152.32	20.5
3153.14	22
3153.96	23
3154.78	24
3155.59	22
3156.42	22
3157.23	24.5
3158.05	20
3158.87	22
3159.69	23.5
3160.51	21.5
3161.33	21
3162.15	23.5
3162.97	24
3163.78	27
3164.6	23
3165.42	19.5
3166.24	25
3167.06	23
3167.87	24.5
3168.69	19
3169.51	24
3170.33	24
3171.14	22.5
3171.96	25
3172.78	25
3173.6	25
3174.41	23
3175.23	20
3176.05	23
3176.86	24
3177.68	24
3178.5	23
3179.31	21.5
3180.13	25.5
3180.94	25.5
3181.76	21
3182.58	24
3183.39	23.5
3184.21	26
3185.02	25.5
3185.84	24
3186.65	25
3187.47	23.5
3188.28	22
3189.1	25.5
3189.91	23
3190.73	23
3191.54	25
3192.36	24.5
3193.17	20.5
3193.98	22
3194.8	23
3195.61	24
3196.43	20.5
3197.24	24
3198.05	21.5
3198.87	22
3199.68	20
3200.49	21
3201.31	23
3202.12	23.5
3202.93	24
3203.75	23.5
3204.56	21
3205.37	22
3206.18	21.5
3207	19.5
3207.81	23
3208.62	24
3209.43	25
3210.24	27.5
3211.06	22.5
3211.87	24.5
3212.68	29
3213.49	17
3214.3	22
3215.11	21.5
3215.92	22.5
3216.73	23
3217.55	25
3218.36	20
3219.17	23.5
3219.98	21.5
3220.79	22
3221.6	24.5
3222.41	26
3223.22	20
3224.03	22.5
3224.84	24
3225.65	26.5
3226.46	25
3227.27	22.5
3228.08	22
3228.89	23
3229.7	24
3230.5	25
3231.31	25.5
3232.12	20.5
3232.93	21
3233.74	23.5
3234.55	25
3235.36	24.5
3236.16	23.5
3236.97	25
3237.78	21
3238.59	26
3239.4	22
3240.2	24
3241.01	23
3241.82	24
3242.63	24.5
3243.43	24.5
3244.24	21
3245.05	24
3245.85	25
3246.66	22.5
3247.47	23
3248.27	22
3249.08	23
3249.89	22.5
3250.69	25.5
3251.5	23
3252.31	24
3253.11	28.5
3253.92	19.5
3254.72	22
3255.53	25.5
3256.33	21
3257.14	23.5
3257.94	26
3258.75	20
3259.55	20
3260.36	24
3261.16	23
3261.97	20.5
3262.77	23
3263.58	21.5
3264.38	26
3265.19	20
3265.99	24.5
3266.79	20
3267.6	25
3268.4	22
3269.21	23
3270.01	23
3270.81	25.5
3271.62	23.5
3272.42	24
3273.22	25.5
3274.03	23
3274.83	24.5
3275.63	22
3276.43	24
3277.24	21
3278.04	24.5
3278.84	26
3279.64	24.5
3280.45	22
3281.25	20.5
3282.05	27.5
3282.85	20.5
3283.65	24
3284.45	21
3285.26	22.5
3286.06	23.5
3286.86	23
3287.66	24
3288.46	26.5
3289.26	24.5
3290.06	23.5
3290.86	21.5
3291.66	24.5
3292.46	15.5
3293.26	22
3294.06	24
3294.86	21.5
3295.66	22
3296.46	26.5
3297.26	28.5
3298.06	22
3298.86	25
3299.66	24
3300.46	22.5
3301.26	25
3302.06	21
3302.86	27
3303.66	22
3304.46	26
3305.25	23.5
3306.05	23.5
3306.85	22
3307.65	25
3308.45	27
3309.25	22
3310.04	22.5
3310.84	24
3311.64	22
3312.44	25
3313.23	22
3314.03	23.5
3314.83	22
3315.63	23.5
3316.42	23.5
3317.22	26
3318.02	24
3318.81	23.5
3319.61	25.5
3320.41	20
3321.2	24
3322	23
3322.8	23
3323.59	23
3324.39	22.5
3325.18	23.5
3325.98	24.5
3326.78	24.5
3327.57	24
3328.37	21
3329.16	25.5
3329.96	23
3330.75	26
3331.55	25
3332.34	20
3333.14	23
3333.93	22
3334.73	23.5
3335.52	23
3336.31	23
3337.11	24
3337.9	27
3338.7	24
3339.49	26
3340.28	22
3341.08	26.5
3341.87	21.5
3342.66	26
3343.46	22.5
3344.25	23
3345.04	23
3345.84	26
3346.63	21.5
3347.42	26
3348.22	22
3349.01	25
3349.8	26
3350.59	26.5
3351.39	24
3352.18	22
3352.97	23.5
3353.76	24
3354.55	22.5
3355.35	26.5
3356.14	21
3356.93	22.5
3357.72	23.5
3358.51	22
3359.3	26.5
3360.09	21
3360.88	22
3361.67	24
3362.46	26.5
3363.26	24.5
3364.05	20
3364.84	23
3365.63	23
3366.42	21.5
3367.21	24
3368	21
3368.79	21
3369.58	25
3370.37	23.5
3371.15	28
3371.94	25
3372.73	22.5
3373.52	25
3374.31	25.5
3375.1	20.5
3375.89	24.5
3376.68	26.5
3377.47	24
3378.26	24.5
3379.04	24
3379.83	20
3380.62	25.5
3381.41	23.5
3382.2	22
3382.98	22
3383.77	21.5
3384.56	28.5
3385.35	24.5
3386.13	23
3386.92	23
3387.71	22.5
3388.5	24.5
3389.28	28
3390.07	25
3390.86	22
3391.64	25
3392.43	20.5
3393.22	24.5
3394	19.5
3394.79	21.5
3395.57	24
3396.36	22
3397.15	28.5
3397.93	18.5
3398.72	22
3399.5	23.5
3400.29	28
3401.07	22.5
3401.86	25
3402.65	23.5
3403.43	26
3404.21	27
3405	20.5
3405.78	18.5
3406.57	22
3407.35	24.5
3408.14	24
3408.92	23
3409.71	23.5
3410.49	24.5
3411.27	25
3412.06	25.5
3412.84	26.5
3413.62	23.5
3414.41	22.5
3415.19	20
3415.97	29
3416.76	24.5
3417.54	22
3418.32	23
3419.11	26
3419.89	24
3420.67	23
3421.46	25
3422.24	24
3423.02	21
3423.8	22.5
3424.58	23.5
3425.37	23
3426.15	25
3426.93	20.5
3427.71	23
3428.49	25
3429.27	24
3430.05	26
3430.84	27.5
3431.62	27.5
3432.4	23.5
3433.18	21.5
3433.96	23.5
3434.74	23.5
3435.52	26.5
3436.3	20
3437.08	23
3437.86	24.5
3438.64	28
3439.42	23
3440.2	25.5
3440.98	24.5
3441.76	25.5
3442.54	17
3443.32	20.5
3444.1	23
3444.88	24.5
3445.66	23
3446.44	21.5
3447.22	23.5
3448	24
3448.77	23.5
3449.55	25.5
3450.33	23
3451.11	23
3451.89	25.5
3452.67	22.5
3453.45	22
3454.22	22.5
3455	22
3455.78	24
3456.56	19
3457.33	23.5
3458.11	20.5
3458.89	20.5
3459.67	24.5
3460.44	22.5
3461.22	25.5
3462	21
3462.77	21.5
3463.55	23
3464.33	21
3465.1	24
3465.88	26
3466.66	23
3467.43	26
3468.21	22
3468.98	28.5
3469.76	23.5
3470.54	27.5
3471.31	20.5
3472.09	27
3472.86	22.5
3473.64	26
3474.41	24.5
3475.19	27
3475.96	22.5
3476.74	24
3477.51	22
3478.29	23
3479.06	23
3479.84	28.5
3480.61	23
3481.39	22
3482.16	23
3482.93	23.5
3483.71	24.5
3484.48	22
3485.25	22.5
3486.03	26.5
3486.8	20
3487.57	23
3488.35	22
3489.12	24
3489.89	24.5
3490.67	23.5
3491.44	20.5
3492.21	20
3492.99	24
3493.76	22.5
3494.53	27
3495.3	23.5
3496.08	27
3496.85	21.5
3497.62	21
3498.39	20
3499.16	25
3499.93	22
