#Acq. time (s)=	5
#Accumulations=	5
#Range (cm-¹)=	100...3500
#Windows=	4
#Autofocus=	Off
#AutoExposure=	Off
#Spike filter=	Multiple accum.
#Delay time (s)=	0
#Binning=	1
#Readout mode=	Signal
#DeNoise=	Off
#ICS correction=	Off
#Dark correction=	Off
#Inst. Process=	Off
#Instrument=	LabRAM HR Evol
#Detector=	Syncerity OE
#Objective=	x100_VIS
#Grating=	600 (500nm)
#ND Filter=	25%
#Laser=	633nm_Edge
#Hole=	100.021
#Range=	Visible
#Project=	verificaciones
#Sample=	at1
#Site=	plain
#Title=	bolusat1plain
#Remark=	com
#Date=	16.01.2026 16:27
#Acquired=	16.01.2026 16:27:29
100.564	29
101.847	31.5
103.131	27
104.414	31.5
105.697	29.5
106.979	27.5
108.262	28.5
109.544	30
110.826	28.5
112.109	30
113.391	33
114.672	34
115.954	31
117.235	27
118.515	31
119.796	32
121.076	27.5
122.357	32
123.637	30
124.916	29
126.196	26
127.475	33
128.754	33
130.033	35
131.31	34.5
132.589	34.5
133.867	35
135.145	31
136.423	36
137.701	39
138.978	39.5
140.256	33.5
141.533	37
142.809	35
144.086	38
145.361	43
146.637	39
147.913	43
149.189	40
150.464	45.5
151.74	37.5
153.014	41
154.288	33.5
155.563	46.5
156.838	42.5
158.112	41.5
159.385	45
160.659	40.5
161.932	39
163.206	43
164.479	42.5
165.751	43.5
167.024	41
168.296	38
169.567	36
170.84	38
172.112	43
173.383	39.5
174.654	41
175.925	42
177.196	36
178.466	47
179.737	39
181.007	36
182.276	39
183.546	40
184.816	40
186.085	41
187.354	43.5
188.624	44.5
189.891	39
191.16	42
192.427	40.5
193.696	40
194.964	42.5
196.231	40.5
197.499	46.5
198.765	40.5
200.033	39
201.298	39
202.566	39.5
203.831	38.5
205.098	36
206.363	32.5
207.629	35
208.894	34
210.159	37.5
211.424	32
212.689	34.5
213.953	39
215.218	33
216.481	38.5
217.746	33.5
219.009	39
220.273	35
221.536	32
222.798	35.5
224.062	30
225.323	28.5
226.587	32.5
227.848	30.5
229.109	37
230.372	31
231.633	32
232.894	29
234.156	31
235.416	29.5
236.678	29
237.937	30.5
239.197	33.5
240.457	28.5
241.717	32.5
242.976	32
244.235	31
245.495	27
246.754	34
248.012	25.5
249.27	30
250.529	26
251.787	25.5
253.045	28
254.302	32
255.56	28.5
256.817	28.5
258.074	29
259.33	25
260.586	28.5
261.844	27
263.1	25.5
264.355	30.5
265.611	25
266.866	32.5
268.121	23
269.377	22.5
270.632	33.5
271.886	28
273.14	34.5
274.394	28
275.648	28
276.902	28.5
278.155	30.5
279.408	27.5
280.663	28
281.915	29
283.168	28
284.42	28.5
285.673	29
286.925	28
288.176	28.5
289.428	28.5
290.679	30.5
291.93	28
293.181	26
294.432	29
295.683	28
296.933	26
298.183	28.5
299.433	24
300.683	26
301.932	28.5
303.182	29.5
304.429	28
305.678	25
306.927	31
308.176	27
309.424	28.5
310.672	26
311.92	27
313.168	29.5
314.415	32
315.661	32
316.908	27.5
318.155	27.5
319.402	28.5
320.648	29
321.895	26
323.139	30
324.385	26
325.631	25
326.877	26
328.122	25.5
329.366	27
330.611	31
331.855	29
333.1	30.5
334.343	24
335.587	28
336.831	28.5
338.074	27.5
339.317	31.5
340.56	25
341.803	27.5
343.044	29
344.287	26
345.53	26
346.771	32.5
348.013	27
349.255	29
350.495	30
351.736	30
352.978	24.5
354.217	33.5
355.458	29.5
356.699	25
357.938	33
359.178	27
360.417	24.5
361.657	24
362.895	29
364.135	26.5
365.374	30
366.612	31.5
367.851	30
369.088	25
370.327	28.5
371.564	29
372.802	29
374.038	25.5
375.276	31
376.512	26.5
377.749	28
378.985	32
380.222	28
381.457	26.5
382.692	25
383.929	26
385.164	26.5
386.4	29
387.634	28
388.869	31
390.103	23
391.337	27
392.572	27.5
393.805	31
395.038	24
396.273	28
397.506	25
398.74	26
399.972	25
401.204	27.5
402.437	27.5
403.669	27
404.901	32
406.132	27
407.365	29
408.596	23
409.826	26
411.058	30
412.289	27
413.519	24.5
414.749	24
415.98	30
417.21	24.5
418.439	29
419.668	21.5
420.897	27
422.128	26.5
423.356	25.5
424.585	25
425.813	25.5
427.041	24
428.269	28
429.498	28
430.725	27
431.952	28.5
433.179	24
434.406	27
435.633	23.5
436.859	27
438.085	28
439.312	30.5
440.537	27
441.764	31.5
442.99	30
444.215	28.5
445.44	28
446.665	30
447.89	27.5
449.114	29.5
450.339	28.5
451.563	27
452.787	28
454.01	29
455.234	24
456.457	29
457.68	25.5
458.903	31
460.126	26.5
461.348	31
462.569	33
463.792	28.5
465.013	28.5
466.235	32
467.457	33
468.678	34
469.899	36.5
471.12	38.5
472.341	30.5
473.56	32
474.781	37.5
476.001	37.5
477.221	39.5
478.441	43.5
479.66	48
480.878	47
482.098	54
483.317	52
484.535	56.5
485.754	63
486.971	62
488.189	62
489.407	60.5
490.625	62.5
491.842	57
493.059	54
494.276	58.5
495.493	59
496.709	52.5
497.926	50.5
499.142	46
500.357	46.5
501.573	45
502.789	42
504.003	42
505.219	39.5
506.434	36.5
507.648	42.5
508.863	37.5
510.078	38
511.291	34.5
512.505	37.5
513.718	33
514.932	37.5
516.145	31
517.358	34
518.572	29.5
519.783	34.5
520.997	32
522.208	32
523.421	29.5
524.632	31
525.844	27
527.055	31
528.266	32
529.477	30.5
530.688	32
531.898	27
533.109	21.5
534.319	29
535.53	28
536.739	27
537.948	30.5
539.158	30
540.366	26
541.576	30
542.784	26.5
543.994	29.5
545.201	23
546.409	29.5
547.618	27.5
548.825	25
550.032	29
551.24	31.5
552.447	25
553.654	29.5
554.861	25
556.067	28.5
557.273	28
558.48	28
559.686	34.5
560.891	29
562.096	29
563.302	31.5
564.507	31
565.712	24.5
566.916	28.5
568.122	29.5
569.326	27
570.529	26
571.733	28
572.936	27.5
574.141	29
575.344	28.5
576.547	29
577.75	29.5
578.952	28
580.154	24
581.358	28.5
582.56	24
583.761	22
584.963	27.5
586.164	30.5
587.365	27.5
588.566	29
589.767	29
590.967	28.5
592.168	31
593.369	27
594.569	28
595.769	25.5
596.969	26.5
598.168	26.5
599.367	28.5
600.566	23
601.765	27
602.964	27
604.162	25
605.361	26
606.559	31.5
607.757	27.5
608.953	26
610.151	32.5
611.348	31
612.545	27.5
613.742	32.5
614.939	28.5
616.135	26
617.332	24.5
618.528	28
619.724	31
620.918	27
622.114	29
623.309	28.5
624.505	28
625.7	29
626.895	25
628.088	29
629.282	30.5
630.477	29
631.671	26
632.865	27.5
634.057	25
635.251	27.5
636.444	29
637.637	26.5
638.829	27
640.022	28.5
641.214	26.5
642.407	29
643.598	28.5
644.79	26
645.982	30.5
647.172	29
648.364	28.5
649.555	24
650.745	28.5
651.936	30
653.126	24.5
654.315	28.5
655.506	29
656.696	33
657.885	31.5
659.074	28.5
660.263	24
661.452	29.5
662.64	29
663.829	31
665.018	31
666.205	29
667.394	28
668.581	28
669.769	29.5
670.955	32
672.143	28.5
673.329	32.5
674.517	26.5
675.703	32.5
676.89	27.5
678.075	33.5
679.262	34
680.447	30
681.632	35
682.818	34.5
684.002	36.5
685.188	31
686.372	38
687.556	37.5
688.741	32.5
689.925	33.5
691.11	30.5
692.293	37
693.476	34.5
694.66	34
695.843	35.5
697.025	38.5
698.209	34.5
699.391	29
700.573	39.5
701.756	42.5
702.938	39.5
704.119	41
705.3	48
706.483	48
707.664	49
708.844	53
710.025	45.5
711.206	48.5
712.386	45
713.566	41
714.746	41
715.925	32.5
717.106	29
718.285	34
719.464	33.5
720.643	28
721.822	29
723	30
724.178	27
725.358	27
726.536	26.5
727.713	24
728.891	27.5
730.068	32
731.245	27.5
732.422	29.5
733.599	26.5
734.775	30
735.952	26
737.128	27.5
738.304	28.5
739.48	28.5
740.656	28
741.831	26.5
743.006	26.5
744.181	27
745.356	25.5
746.531	25
747.706	26.5
748.88	25
750.054	28
751.228	27
752.402	29
753.576	26
754.749	27.5
755.922	27
757.095	26
758.267	28.5
759.44	25.5
760.612	25
761.785	27
762.957	26
764.129	31.5
765.301	26.5
766.471	23.5
767.642	26
768.814	29
769.985	26.5
771.156	26
772.325	29
773.495	28
774.666	28
775.836	27
777.005	28.5
778.174	25
779.344	33
780.513	27
781.681	32.5
782.85	25.5
784.019	28.5
785.187	32
786.355	33
787.523	29
788.69	30
789.858	33.5
791.026	29
792.192	29
793.36	30
794.526	28
795.693	25
796.86	27
798.025	27
799.191	29
800.356	29
801.523	30
802.689	30
803.853	25.5
805.019	28.5
806.183	28.5
807.348	29
808.512	27
809.677	29
810.84	32
812.005	30
813.167	31
814.332	26.5
815.494	29
816.657	27.5
817.82	26
818.982	26
820.146	28
821.307	28
822.47	27
823.632	27
824.793	31
825.955	27.5
827.116	23
828.277	28.5
829.439	26.5
830.599	30
831.759	27
832.92	21.5
834.08	29
835.24	27
836.4	24
837.56	25
838.719	24.5
839.877	27
841.037	25
842.196	25
843.354	27.5
844.512	26.5
845.672	25.5
846.83	25
847.987	25
849.145	28
850.302	27
851.46	28.5
852.617	25
853.774	26.5
854.93	27.5
856.087	27
857.243	25.5
858.4	28
859.556	30
860.712	27.5
861.867	29
863.022	30.5
864.177	29
865.332	27.5
866.487	25
867.642	31
868.796	30
869.95	31
871.104	25
872.258	24.5
873.412	27
874.565	31
875.718	27.5
876.872	26.5
878.024	26
879.177	23
880.33	29
881.482	30.5
882.635	25
883.787	25
884.938	24
886.09	24
887.242	25
888.393	25.5
889.544	29.5
890.695	25.5
891.845	26
892.995	27.5
894.146	28
895.296	31
896.446	25
897.596	25
898.744	25
899.894	28
901.043	26.5
902.193	28
903.342	27.5
904.489	27
905.638	22
906.786	22
907.935	24
909.081	27.5
910.229	23.5
911.377	24
912.525	27
913.671	23.5
914.818	25
915.965	24
917.111	22.5
918.258	26
919.404	25
920.549	26
921.695	22
922.84	25
923.986	30
925.132	28.5
926.276	26.5
927.421	27.5
928.565	26.5
929.71	30
930.855	26.5
931.998	27.5
933.142	26
934.285	23
935.429	26
936.572	27
937.716	25.5
938.858	25.5
940.001	24
941.143	25.5
942.286	25
943.428	24
944.57	25
945.712	25.5
946.854	21
947.995	28
949.135	22
950.277	26
951.418	25
952.559	22.5
953.699	23.5
954.839	25.5
955.98	25
957.119	27.5
958.258	21.5
959.399	25
960.538	28
961.676	25
962.816	27.5
963.955	28.5
965.093	24
966.232	25
967.37	23
968.508	27
969.645	27
970.784	26.75
971.921	25
973.058	22
974.195	27.5
975.333	24
976.469	24.5
977.605	25
978.741	26
979.877	23
981.013	25
982.15	29
983.285	28
984.421	25
985.556	24
986.691	23
987.825	23
988.96	26.5
990.094	24.5
991.228	26.5
992.364	25
993.497	26
994.631	27.5
995.765	24
996.898	27.5
998.031	24
999.164	25.5
1000.3	27
1001.43	23.5
1002.56	25
1003.69	25
1004.83	22
1005.96	28
1007.09	25
1008.22	27
1009.35	25.5
1010.48	22.5
1011.61	26.5
1012.74	25
1013.88	25
1015.01	26.5
1016.14	27.5
1017.27	26.5
1018.4	24
1019.53	20.5
1020.65	24
1021.78	25.5
1022.91	23.5
1024.04	21
1025.17	20
1026.3	24
1027.43	21.5
1028.56	23.5
1029.68	25
1030.81	24.5
1031.94	24
1033.07	23
1034.19	23
1035.32	25.5
1036.45	24.5
1037.58	28.5
1038.7	23
1039.83	28
1040.95	26
1042.08	25
1043.21	23
1044.33	27.5
1045.46	24
1046.58	22
1047.71	21.5
1048.83	26
1049.96	23.5
1051.08	24
1052.21	26.5
1053.33	25
1054.45	28
1055.58	24.5
1056.7	26.5
1057.82	26.5
1058.95	28
1060.07	23
1061.19	26
1062.32	24.5
1063.44	27.5
1064.56	24.5
1065.68	25
1066.81	25
1067.93	26.5
1069.05	24
1070.17	22
1071.29	20.5
1072.41	27
1073.53	26.5
1074.65	25
1075.77	27
1076.89	27
1078.01	23
1079.13	23
1080.25	26
1081.37	24
1082.49	23.5
1083.61	24.5
1084.73	28
1085.85	22.5
1086.97	25
1088.09	26
1089.2	25
1090.32	21
1091.44	24.5
1092.56	27
1093.68	23.5
1094.79	24
1095.91	25
1097.03	21
1098.14	23
1099.26	22.5
1100.38	23
1101.49	26.5
1102.61	25
1103.73	22.5
1104.84	27.5
1105.96	23
1107.07	23.5
1108.19	25.5
1109.3	21
1110.42	25.5
1111.53	22.5
1112.65	24
1113.76	26.5
1114.88	24
1115.99	24.5
1117.1	25.5
1118.22	21
1119.33	25
1120.44	22.5
1121.56	22
1122.67	25.5
1123.78	24.5
1124.89	23.5
1126.01	24
1127.12	26.5
1128.23	28.5
1129.34	26
1130.45	25
1131.56	25.5
1132.67	22.5
1133.79	26
1134.9	27.5
1136.01	25
1137.12	23
1138.23	27.5
1139.34	28
1140.45	25
1141.56	24
1142.67	24
1143.78	23
1144.89	23
1145.99	28
1147.1	25
1148.21	21
1149.32	26
1150.43	25
1151.54	24.5
1152.65	24
1153.75	24
1154.86	26.5
1155.97	21.5
1157.08	23
1158.18	24
1159.29	26
1160.4	26.5
1161.5	27
1162.61	25.5
1163.72	26.5
1164.82	23.5
1165.93	20
1167.03	27
1168.14	25
1169.24	27
1170.35	22.5
1171.45	27
1172.56	27
1173.66	24.5
1174.77	21
1175.87	25
1176.98	24.5
1178.08	22.5
1179.18	24.5
1180.29	26.5
1181.39	26.5
1182.49	25
1183.6	21
1184.7	21
1185.8	23
1186.9	24
1188	23.5
1189.11	24
1190.21	24.5
1191.31	24.5
1192.41	24.5
1193.51	21
1194.61	23.9927
1195.72	25.4663
1196.82	27.0214
1197.92	25.5353
1199.02	21.5655
1200.12	22.9859
1201.22	20.9972
1202.32	22.2114
1203.42	24.9023
1204.52	23.3577
1205.62	21.9448
1206.71	25.4461
1207.81	22.8223
1208.91	25.0545
1210.01	25.6391
1211.11	21.2127
1212.21	21.0297
1213.31	22.8234
1214.4	24.9812
1215.5	22.9659
1216.6	22.4083
1217.7	25.8864
1218.79	25.962
1219.89	21.6111
1220.99	25.1105
1222.08	26.3833
1223.18	23.853
1224.28	22.7993
1225.37	23.4442
1226.47	26.4236
1227.56	27.2731
1228.66	25.3733
1229.76	24.6497
1230.85	24.2918
1231.95	24.221
1233.04	24.453
1234.14	24.2507
1235.23	20.3351
1236.32	25.5682
1237.42	24.0443
1238.51	21.0507
1239.61	22.7333
1240.7	22.2044
1241.79	23.9895
1242.89	23.6458
1243.98	23.828
1245.07	25.6795
1246.17	21.6801
1247.26	24.9282
1248.35	23.5755
1249.44	22.3418
1250.53	21.8751
1251.63	23.7551
1252.72	24.026
1253.81	24.6326
1254.9	23.3497
1255.99	26.8058
1257.08	26.1756
1258.17	22.8568
1259.27	24.7988
1260.36	24.9278
1261.45	24.4445
1262.54	26.3206
1263.63	24.6286
1264.72	25.615
1265.81	27.2654
1266.89	28.1825
1267.98	26.0691
1269.07	26.1351
1270.16	23.0572
1271.25	23.4161
1272.34	25.6497
1273.43	22.5732
1274.52	24.3555
1275.6	23.422
1276.69	22.2459
1277.78	24.3432
1278.87	23.1914
1279.95	24.5947
1281.04	22.275
1282.13	23.5982
1283.22	22.9356
1284.3	21.4183
1285.39	23.228
1286.48	24.3246
1287.56	23.424
1288.65	20.7611
1289.73	21.6545
1290.82	25.158
1291.9	22.9169
1292.99	20.2927
1294.07	21.6727
1295.16	23.8918
1296.24	23.7382
1297.33	23.7676
1298.41	22.7594
1299.5	20.9468
1300.58	22.8431
1301.66	22.706
1302.75	25.8806
1303.83	25.4142
1304.91	21.22
1306	23.6159
1306.4	26
1307.48	23
1308.57	21.5
1309.66	23
1310.75	24.5
1311.84	26
1312.92	25
1314.01	21.5
1315.1	24.5
1316.18	23
1317.27	22
1318.36	26
1319.44	19
1320.53	24.5
1321.62	25
1322.7	20.5
1323.79	25
1324.87	24
1325.96	25
1327.04	25
1328.13	23
1329.21	22.5
1330.3	24.5
1331.38	26
1332.47	21.5
1333.55	23
1334.64	25
1335.72	26
1336.8	29
1337.89	22.5
1338.97	23.5
1340.05	25.5
1341.14	24.5
1342.22	25.5
1343.3	25
1344.38	24.5
1345.47	17
1346.55	25
1347.63	22
1348.71	23
1349.79	22.5
1350.87	25.5
1351.96	23
1353.04	22.5
1354.12	27.5
1355.2	23
1356.28	23.5
1357.36	25
1358.44	21
1359.52	25.5
1360.6	24.5
1361.68	21
1362.76	24.5
1363.84	20
1364.92	25
1366	21.5
1367.07	23
1368.15	27.5
1369.23	24.5
1370.31	23
1371.39	21.5
1372.47	25
1373.54	24.5
1374.62	19
1375.7	24.5
1376.78	23
1377.85	22
1378.93	26.5
1380.01	26
1381.08	26
1382.16	24
1383.24	26.5
1384.31	23
1385.39	22.5
1386.46	28.5
1387.54	27.5
1388.61	26
1389.69	26
1390.76	28.5
1391.84	24
1392.91	25
1393.99	25
1395.06	25.5
1396.14	24
1397.21	24
1398.29	29
1399.36	31.5
1400.43	26
1401.51	26.5
1402.58	28.5
1403.65	28
1404.72	29.5
1405.8	31
1406.87	29
1407.94	33
1409.02	34.5
1410.09	30
1411.16	26
1412.23	28
1413.3	31
1414.37	32.5
1415.44	30.5
1416.51	27
1417.59	28.5
1418.66	33.5
1419.73	29
1420.8	31.5
1421.87	29
1422.94	30
1424.01	23
1425.08	28
1426.15	29
1427.22	24
1428.28	25
1429.35	24
1430.42	25
1431.49	31
1432.56	27
1433.63	24.5
1434.7	27.5
1435.76	28.5
1436.83	21
1437.9	25.5
1438.97	26.5
1440.03	25.5
1441.1	21
1442.17	25
1443.23	23
1444.3	25.5
1445.37	25
1446.43	27.5
1447.5	25.5
1448.57	27.5
1449.63	24.5
1450.7	27
1451.76	26.5
1452.83	23
1453.89	28.5
1454.96	30
1456.02	23.5
1457.09	25.5
1458.15	24
1459.22	26
1460.28	23
1461.34	24
1462.41	25
1463.47	25.5
1464.53	26.5
1465.6	28
1466.66	25
1467.72	23.5
1468.78	25
1469.85	26
1470.91	22.5
1471.97	22
1473.03	28.5
1474.1	25
1475.16	24.5
1476.22	21.5
1477.28	23.5
1478.34	28
1479.4	25.5
1480.46	27.5
1481.52	24
1482.58	21.5
1483.65	24
1484.71	24
1485.77	27.5
1486.82	25
1487.89	25.5
1488.94	25.5
1490	25
1491.06	24.5
1492.12	25
1493.18	25
1494.24	23.5
1495.3	23
1496.36	27.5
1497.41	25
1498.47	25
1499.53	24.5
1500.59	24
1501.65	25
1502.7	21
1503.76	23
1504.82	24.5
1505.87	21.5
1506.93	23
1507.99	25
1509.04	25
1510.1	23
1511.16	26
1512.21	21
1513.27	25.5
1514.32	26
1515.38	25
1516.43	24.5
1517.49	26.5
1518.54	24
1519.6	24.5
1520.65	27
1521.71	21
1522.76	26.5
1523.81	26
1524.87	23.5
1525.92	20.5
1526.98	26
1528.03	24
1529.08	25.5
1530.14	27.5
1531.19	31
1532.24	26.5
1533.29	24
1534.35	25
1535.4	25.5
1536.45	25
1537.5	25
1538.55	26.5
1539.61	23
1540.66	24
1541.71	24
1542.76	25.5
1543.81	24.5
1544.86	24
1545.91	24.5
1546.96	26
1548.01	23.5
1549.06	27
1550.11	24
1551.16	27
1552.21	25
1553.26	25
1554.31	22.5
1555.36	24.5
1556.41	24
1557.46	24
1558.5	26
1559.55	24
1560.6	22
1561.65	27.5
1562.7	22
1563.74	26.5
1564.79	24.5
1565.84	26.5
1566.89	24
1567.93	24
1568.98	25
1570.03	23
1571.07	24.5
1572.12	23
1573.17	21.5
1574.21	23.5
1575.26	24.5
1576.3	25
1577.35	25
1578.4	18
1579.44	27.5
1580.49	25
1581.53	23
1582.58	21
1583.62	24
1584.66	24.5
1585.71	26
1586.75	25
1587.8	25.5
1588.84	22.5
1589.88	23.5
1590.93	25.5
1591.97	26.5
1593.01	29.5
1594.06	21
1595.1	23
1596.14	25
1597.18	26
1598.23	25.5
1599.27	24
1600.31	24.5
1601.35	22.5
1602.39	23.5
1603.44	27.5
1604.48	23
1605.52	23
1606.56	29
1607.6	23
1608.64	25.5
1609.68	24.5
1610.72	24
1611.76	25
1612.8	23.5
1613.84	26
1614.88	27.5
1615.92	27
1616.96	19.5
1618	25
1619.04	27.5
1620.08	27
1621.12	23
1622.16	25
1623.19	23.5
1624.23	23
1625.27	26.5
1626.31	27.5
1627.35	22
1628.38	25
1629.42	23.5
1630.46	25
1631.49	27
1632.53	24
1633.57	25
1634.6	30.5
1635.64	20
1636.68	26
1637.71	26
1638.75	29
1639.79	25
1640.82	28
1641.86	27
1642.89	23.5
1643.93	19.5
1644.96	27.5
1646	23.5
1647.03	23.5
1648.07	23.5
1649.1	27
1650.13	26.5
1651.17	22
1652.2	27
1653.24	26.5
1654.27	22
1655.3	25
1656.34	24.5
1657.37	21
1658.4	24
1659.43	22
1660.47	21.5
1661.5	22.5
1662.53	26
1663.56	25.5
1664.6	21.5
1665.63	24
1666.66	25
1667.69	23
1668.72	29
1669.75	22
1670.78	25.5
1671.81	26
1672.85	21.5
1673.88	26
1674.91	23
1675.94	24.5
1676.97	24
1678	23
1679.03	24
1680.06	24.5
1681.09	22.5
1682.11	21
1683.14	24
1684.17	24
1685.2	22.5
1686.23	25
1687.26	25.5
1688.29	26.5
1689.31	25
1690.34	22
1691.37	27.5
1692.4	26.5
1693.42	24.5
1694.45	21
1695.48	24
1696.51	26.5
1697.53	21
1698.56	26.5
1699.59	24
1700.61	23.5
1701.64	23
1702.66	28
1703.69	20.5
1704.72	27
1705.74	29
1706.77	23.5
1707.79	29.5
1708.82	21
1709.84	24.5
1710.87	22
1711.89	24
1712.91	25.5
1713.94	25.5
1714.96	26.5
1715.99	23
1717.01	26
1718.03	22
1719.06	26.5
1720.08	23
1721.1	22
1722.13	24.5
1723.15	27
1724.17	24
1725.19	26
1726.22	26
1727.24	28
1728.26	29
1729.28	25
1730.3	26
1731.33	22.5
1732.35	26
1733.37	26.5
1734.39	26
1735.41	29
1736.43	24
1737.45	26.5
1738.47	22
1739.49	27.5
1740.51	20
1741.53	21
1742.55	25
1743.57	24.5
1744.59	25.5
1745.61	22
1746.63	24.5
1747.65	21.5
1748.67	24.5
1749.69	23.5
1750.7	22.5
1751.72	22
1752.74	22.5
1753.76	28
1754.78	25
1755.79	26
1756.81	24
1757.83	25
1758.85	24.5
1759.86	23.5
1760.88	23.5
1761.9	25
1762.91	25
1763.93	22.5
1764.95	26
1765.96	23.5
1766.98	23.5
1767.99	27.5
1769.01	20.5
1770.02	23.5
1771.04	24.5
1772.06	27.5
1773.07	25
1774.09	25
1775.1	22.5
1776.11	26
1777.13	21.5
1778.14	26
1779.16	25.5
1780.17	23
1781.18	24
1782.2	27
1783.21	26
1784.22	24.5
1785.24	24.5
1786.25	24
1787.26	28
1788.28	26
1789.29	23
1790.3	23.5
1791.31	24.5
1792.33	25
1793.34	28
1794.35	25.5
1795.36	26
1796.37	25
1797.38	21.5
1798.39	23
1799.4	25
1800.42	19
1801.43	23
1802.44	25
1803.45	27.5
1804.46	29
1805.47	22
1806.48	23
1807.49	26
1808.5	21
1809.51	23
1810.51	24
1811.52	25
1812.53	20
1813.54	27
1814.55	25
1815.56	25
1816.57	20.5
1817.57	26
1818.58	24.5
1819.59	26
1820.6	23
1821.61	28
1822.61	22
1823.62	26
1824.63	26
1825.63	27
1826.64	21
1827.65	25.5
1828.65	21.5
1829.66	24
1830.67	23
1831.67	23.5
1832.68	26
1833.68	28.5
1834.69	23
1835.69	24
1836.7	23
1837.7	27
1838.71	24
1839.71	27
1840.72	24.5
1841.72	26
1842.73	24.5
1843.73	27.5
1844.73	26.5
1845.74	23
1846.74	25
1847.74	22.5
1848.75	25
1849.75	28.5
1850.75	27.5
1851.76	22
1852.76	24
1853.76	24
1854.76	24.5
1855.77	23.5
1856.77	26.5
1857.77	22
1858.77	25
1859.77	25.5
1860.77	25.5
1861.78	23.5
1862.78	23.5
1863.78	24.5
1864.78	25.5
1865.78	27
1866.78	26
1867.78	20.5
1868.78	24.5
1869.78	23.5
1870.78	26
1871.78	23
1872.78	21.5
1873.78	27
1874.78	22
1875.78	23
1876.78	23
1877.78	24
1878.77	26
1879.77	24
1880.77	25.5
1881.77	22
1882.77	23
1883.77	27
1884.76	23
1885.76	26
1886.76	22.5
1887.75	22.5
1888.75	28.5
1889.75	22
1890.75	25
1891.74	27
1892.74	21
1893.73	18
1894.73	22
1895.73	26
1896.72	25
1897.72	22
1898.71	26
1899.71	26
1900.7	22
1901.7	25.5
1902.69	23
1903.69	25
1904.68	22
1905.68	21.5
1906.67	26.5
1907.67	25
1908.66	23
1909.65	26.5
1910.65	29
1911.64	24
1912.63	28.5
1913.63	21
1914.62	25.5
1915.61	22
1916.61	25.5
1917.6	24.5
1918.59	26
1919.58	22.5
1920.58	24.5
1921.57	23.5
1922.56	25
1923.55	28.5
1924.54	27.5
1925.54	27.5
1926.53	25
1927.52	24
1928.51	26
1929.5	27
1930.49	23
1931.48	25
1932.47	24.5
1933.46	25
1934.45	25
1935.44	25.5
1936.43	23
1937.42	21.5
1938.41	20.5
1939.4	24
1940.39	22
1941.38	24
1942.37	24
1943.35	23
1944.34	24
1945.33	25.5
1946.32	25
1947.31	23
1948.3	24.75
1949.28	25
1950.27	22.5
1951.26	22
1952.25	23
1953.23	24
1954.22	22
1955.21	21
1956.19	22
1957.18	25.5
1958.17	25
1959.15	24.5
1960.14	25.5
1961.12	25
1962.11	23
1963.1	16
1964.08	24
1965.07	22
1966.05	23
1967.04	23
1968.02	18
1969.01	27.5
1969.99	23
1970.98	26
1971.96	24.5
1972.94	24.5
1973.93	23
1974.91	25
1975.9	22.5
1976.88	20
1977.86	24
1978.85	26
1979.83	23
1980.81	26.5
1981.79	21.5
1982.78	25
1983.76	23
1984.74	23
1985.72	24.5
1986.71	26
1987.69	21
1988.67	25
1989.65	28.5
1990.63	25
1991.61	26
1992.59	23
1993.57	22.5
1994.56	26
1995.54	22
1996.52	20.5
1997.5	24
1998.48	25
1999.46	24
2000.44	25.5
2001.42	26.5
2002.4	23.5
2003.38	23
2004.36	21
2005.33	21
2006.31	24.5
2007.29	22.5
2008.27	25
2009.25	23
2010.23	28.5
2011.21	23.5
2012.18	29.5
2013.16	25.5
2014.14	25.5
2015.12	20
2016.09	20
2017.07	24
2018.05	23
2019.03	22.5
2020	22
2020.98	24
2021.96	22
2022.93	23
2023.91	20.5
2024.89	23
2025.86	22
2026.84	22.5
2027.81	22
2028.79	26
2029.76	28
2030.74	24
2031.71	25
2032.69	24
2033.66	25.5
2034.64	24
2035.61	22.5
2036.59	23.5
2037.56	20.5
2038.54	23
2039.51	22
2040.48	20
2041.46	21
2042.43	25
2043.4	24
2044.38	23
2045.35	24
2046.32	25
2047.29	22
2048.27	23.5
2049.24	23.5
2050.21	25
2051.18	24
2052.16	26
2053.13	21
2054.1	21.5
2055.07	25
2056.04	23.5
2057.01	24
2057.98	25
2058.96	21
2059.93	20.5
2060.9	23
2061.87	20
2062.84	19
2063.81	25
2064.78	23
2065.75	22
2066.72	21
2067.69	25.5
2068.66	21
2069.63	23
2070.6	22
2071.56	21.5
2072.53	23.5
2073.5	21
2074.47	26
2075.44	23.5
2076.41	23
2077.38	21
2078.34	23
2079.31	21.5
2080.28	20.5
2081.25	23
2082.21	21.5
2083.18	24
2084.15	21
2085.11	22
2086.08	21.5
2087.05	19.5
2088.01	25.5
2088.98	25
2089.95	24
2090.91	25
2091.88	22
2092.84	23.5
2093.81	16.5
2094.78	25
2095.74	26
2096.71	22
2097.67	24
2098.64	22
2099.6	27
2100.57	26
2101.53	22
2102.49	24
2103.46	25
2104.42	24
2105.39	21.5
2106.35	19.5
2107.31	25.5
2108.28	22
2109.24	23
2110.2	22
2111.17	23.5
2112.13	22.5
2113.09	21.5
2114.05	21
2115.02	23.5
2115.98	25
2116.94	25
2117.9	21.5
2118.86	23.5
2119.83	23.5
2120.79	24.5
2121.75	22
2122.71	25
2123.67	23
2124.63	24
2125.59	19.5
2126.55	23.5
2127.51	22
2128.47	19.5
2129.43	19
2130.39	22.5
2131.35	21.5
2132.31	20.5
2133.27	21
2134.23	21.5
2135.19	22.5
2136.15	24
2137.11	23
2138.07	21
2139.03	22.5
2139.99	24.5
2140.94	26
2141.9	28
2142.86	21.0034
2143.82	23.4238
2144.78	22.0456
2145.73	22.3478
2146.69	22.0297
2147.65	23.514
2148.61	23.0721
2149.56	22.3542
2150.52	22.9602
2151.48	22.7305
2152.43	25.0286
2153.39	20.3106
2154.35	20.9667
2155.3	23.5465
2156.26	21.0781
2157.21	21.1505
2158.17	19.8811
2159.13	23.51
2160.08	23.7001
2161.04	19.2555
2161.99	19.8981
2162.95	23.4981
2163.9	25.9875
2164.86	23.2669
2165.81	25.3497
2166.77	21.0928
2167.72	22.509
2168.67	23
2169.63	23
2170.58	24.0236
2171.54	21.4372
2172.49	22.7079
2173.44	23.6273
2174.4	21.5479
2175.35	20.8351
2176.3	22.6471
2177.26	21.0382
2178.21	21.4052
2179.16	22.147
2180.11	21.956
2181.07	22.6075
2182.02	19.7062
2182.97	22.8077
2183.92	23.3412
2184.87	22.4521
2185.82	20.2906
2186.78	22.6317
2187.73	22.206
2188.68	21.9709
2189.63	21.7514
2190.58	21.1689
2191.53	24.0284
2192.48	22.0097
2193.43	22.0118
2194.38	22.6992
2195.33	24.021
2196.28	22.5682
2197.23	19.561
2198.18	21.284
2199.13	22.6544
2200.08	21.7668
2201.03	22.8948
2201.98	20.0729
2202.93	21.5581
2203.88	20.5655
2204.83	21.4047
2205.77	21.7642
2206.72	22.9524
2207.67	22.0504
2208.62	21.6244
2209.57	24.1049
2210.52	22.3463
2211.46	21.6737
2212.41	22.388
2213.36	20.356
2214.31	21.4361
2215.25	20.5831
2216.2	24.7016
2217.15	22.4181
2218.09	19.7791
2219.04	21.1553
2219.99	22.0623
2220.93	24.1531
2221.88	20.744
2222.82	23.385
2223.77	24.7975
2224.72	23.7375
2225.66	20.8789
2226.61	22.0002
2227.55	22.6966
2228.5	22.682
2229.44	21.3517
2230.39	21.2039
2231.33	23.6373
2232.28	24.2975
2233.22	22.9721
2234.16	23.2699
2235.11	21.2567
2236.05	22.9065
2237	23.0092
2237.94	23.7493
2238.88	22.1189
2239.83	19.989
2240.13	19.5
2241.08	24
2242.03	23.5
2242.98	22
2243.92	24
2244.87	18
2245.82	17.5
2246.76	22.5
2247.71	23.5
2248.66	24
2249.61	23.5
2250.55	22.5
2251.5	21.5
2252.45	23
2253.39	21
2254.34	23
2255.28	21.5
2256.23	28.5
2257.18	23
2258.12	27
2259.07	23
2260.01	20
2260.96	25
2261.9	21.5
2262.85	20
2263.79	23
2264.74	20.5
2265.68	21.5
2266.63	25.5
2267.57	23
2268.51	26.5
2269.46	19.5
2270.4	23
2271.35	23.5
2272.29	22
2273.23	23.5
2274.18	23
2275.12	23
2276.06	24.5
2277	23
2277.95	23.5
2278.89	23.5
2279.83	21
2280.78	24.5
2281.72	21.5
2282.66	20.5
2283.6	24
2284.54	24
2285.48	24.5
2286.43	25.5
2287.37	22
2288.31	25
2289.25	24.5
2290.19	23.5
2291.13	25
2292.07	22
2293.01	21
2293.95	23
2294.89	28.5
2295.83	24
2296.77	21
2297.71	24.5
2298.65	21
2299.59	26
2300.53	26
2301.47	22
2302.41	25.5
2303.35	20
2304.29	22.5
2305.22	22
2306.16	23.5
2307.1	23
2308.04	23
2308.98	26.5
2309.91	18
2310.85	24.5
2311.79	20
2312.73	22
2313.66	22
2314.6	24.5
2315.54	27
2316.48	20
2317.41	22.5
2318.35	23
2319.29	25
2320.22	24.5
2321.16	23.5
2322.09	25.5
2323.03	24.5
2323.97	23.5
2324.9	23.5
2325.84	20
2326.77	19
2327.71	23
2328.64	20
2329.58	22
2330.51	21
2331.45	23.5
2332.38	21
2333.32	22.5
2334.25	27
2335.18	23.5
2336.12	22.5
2337.05	25.5
2337.99	23
2338.92	21
2339.85	24
2340.79	21
2341.72	22
2342.65	22.5
2343.59	26.5
2344.52	22.5
2345.45	24
2346.38	25.5
2347.32	24.5
2348.25	21
2349.18	22.5
2350.11	22.5
2351.04	23
2351.98	24
2352.91	25
2353.84	20
2354.77	24
2355.7	22
2356.63	22
2357.56	23.5
2358.49	19.5
2359.42	23
2360.35	24
2361.28	24
2362.21	24
2363.14	23.5
2364.07	24.5
2365	22
2365.93	23.5
2366.86	22
2367.79	24
2368.72	20.5
2369.65	23.5
2370.58	21.5
2371.51	28
2372.44	24
2373.36	23.5
2374.29	24
2375.22	23
2376.15	25.5
2377.08	19
2378	20
2378.93	21
2379.86	22.5
2380.79	22
2381.71	22.5
2382.64	18
2383.57	23
2384.49	24
2385.42	23
2386.35	25.5
2387.27	22.5
2388.2	21
2389.13	22.5
2390.05	26
2390.98	23.5
2391.9	22.5
2392.83	21.5
2393.76	24
2394.68	25.5
2395.61	26
2396.53	24.5
2397.46	23.5
2398.38	22.5
2399.3	21.5
2400.23	21.5
2401.15	25
2402.08	25
2403	22
2403.93	24.5
2404.85	22
2405.77	25
2406.7	20.5
2407.62	22.5
2408.54	24
2409.47	23
2410.39	18
2411.31	23
2412.24	23
2413.16	25.5
2414.08	20.5
2415	26.5
2415.92	20
2416.85	19.5
2417.77	19.5
2418.69	23
2419.61	22
2420.53	23.5
2421.45	22.5
2422.38	24
2423.3	28.5
2424.22	19.5
2425.14	23
2426.06	19
2426.98	22
2427.9	25
2428.82	21
2429.74	22
2430.66	19.5
2431.58	22
2432.5	26
2433.42	25
2434.34	24
2435.26	19
2436.18	22
2437.1	26
2438.01	21.5
2438.93	23.5
2439.85	23
2440.77	27.5
2441.69	24.5
2442.61	24.5
2443.52	23.5
2444.44	20
2445.36	22.5
2446.28	21
2447.2	22.5
2448.11	22
2449.03	24
2449.95	22
2450.86	25
2451.78	25.5
2452.7	25
2453.61	23.5
2454.53	26.5
2455.45	21
2456.36	26.5
2457.28	19.5
2458.2	23
2459.11	24
2460.03	25
2460.94	20.5
2461.86	22.5
2462.77	24.5
2463.69	22.5
2464.6	25.5
2465.52	24
2466.43	23
2467.35	23
2468.26	23
2469.18	23.5
2470.09	23.5
2471	22
2471.92	26
2472.83	21
2473.74	20.5
2474.66	22
2475.57	26
2476.48	28
2477.4	25
2478.31	21.5
2479.22	22.5
2480.14	23
2481.05	21
2481.96	23
2482.87	22
2483.79	24.5
2484.7	25.5
2485.61	22.5
2486.52	24
2487.43	21.5
2488.34	24.5
2489.25	24
2490.17	28
2491.08	23.5
2491.99	26
2492.9	25
2493.81	25
2494.72	24
2495.63	24.5
2496.54	23
2497.45	28
2498.36	29
2499.27	28
2500.18	24.5
2501.09	26
2502	26
2502.91	26.5
2503.82	24
2504.73	26
2505.63	21.5
2506.54	26.5
2507.45	24
2508.36	23
2509.27	23.5
2510.18	25
2511.09	24.5
2511.99	20
2512.9	24.5
2513.81	25.5
2514.72	24
2515.62	21
2516.53	24.5
2517.44	27
2518.34	27
2519.25	24
2520.16	20
2521.06	23
2521.97	23
2522.88	24.5
2523.78	27
2524.69	22
2525.6	25.5
2526.5	24
2527.41	24.5
2528.31	25.5
2529.22	24.5
2530.12	25.5
2531.03	24.5
2531.93	25
2532.84	23
2533.74	22
2534.65	27.5
2535.55	28
2536.46	24
2537.36	29
2538.27	20.5
2539.17	22.5
2540.07	22
2540.98	26
2541.88	24
2542.78	29.5
2543.69	22
2544.59	26
2545.49	21
2546.4	21
2547.3	22
2548.2	23
2549.1	24.5
2550.01	22
2550.91	27.5
2551.81	25.5
2552.71	27
2553.61	21
2554.52	24
2555.42	18.5
2556.32	23
2557.22	23
2558.12	26
2559.02	22
2559.92	23.5
2560.82	20
2561.72	24.5
2562.62	28.5
2563.53	27
2564.43	26.5
2565.33	22
2566.23	25
2567.13	22.5
2568.03	23
2568.92	23
2569.82	24
2570.72	23
2571.62	23
2572.52	23.5
2573.42	26.5
2574.32	23
2575.22	24
2576.12	24
2577.02	27
2577.91	24
2578.81	23
2579.71	25
2580.61	26
2581.5	25
2582.4	25
2583.3	20.5
2584.2	24
2585.09	22.5
2585.99	25.5
2586.89	25.5
2587.78	27
2588.68	23
2589.58	25
2590.47	23.5
2591.37	24
2592.27	22
2593.16	23.5
2594.06	21.5
2594.95	24
2595.85	22.5
2596.75	25.5
2597.64	25
2598.54	24.5
2599.43	21.5
2600.33	23.5
2601.22	23
2602.12	24
2603.01	26
2603.9	23
2604.8	25
2605.69	25.5
2606.59	23.5
2607.48	23.5
2608.37	26.5
2609.27	27
2610.16	23.5
2611.05	23
2611.95	24.5
2612.84	22
2613.73	24
2614.63	21
2615.52	22
2616.41	23
2617.3	25.5
2618.2	25
2619.09	22.5
2619.98	23
2620.87	25
2621.76	23
2622.66	25.5
2623.55	23.5
2624.44	22
2625.33	22.5
2626.22	27.5
2627.11	24
2628	22.5
2628.9	22
2629.79	24.5
2630.68	24.5
2631.57	26.5
2632.46	26
2633.35	26.5
2634.24	23
2635.13	25
2636.02	24.5
2636.91	23.5
2637.8	21
2638.68	23.5
2639.57	23
2640.46	22.5
2641.35	24.5
2642.24	25.5
2643.13	25
2644.02	21
2644.91	28
2645.79	24.5
2646.68	21
2647.57	23
2648.46	24.5
2649.35	24
2650.23	24.5
2651.12	20.5
2652.01	24.5
2652.9	24
2653.78	27
2654.67	25
2655.56	23
2656.44	26
2657.33	26
2658.22	21.5
2659.1	24
2659.99	19.5
2660.88	27
2661.76	21.5
2662.65	26.5
2663.53	22.5
2664.42	23
2665.3	25
2666.19	26
2667.07	26
2667.96	26
2668.84	21.5
2669.73	27
2670.61	24.5
2671.5	25
2672.38	25.5
2673.27	24
2674.15	22.5
2675.04	27.5
2675.92	22.5
2676.8	24.5
2677.69	22.5
2678.57	22
2679.45	24.5
2680.34	24
2681.22	22
2682.1	27
2682.99	28
2683.87	22
2684.75	23
2685.63	27.5
2686.52	22
2687.4	22
2688.28	24.5
2689.16	22
2690.04	25
2690.93	23.5
2691.81	27
2692.69	25
2693.57	25
2694.45	27
2695.33	27
2696.21	21
2697.09	25
2697.97	27
2698.85	26
2699.74	23
2700.62	25.5
2701.5	23
2702.38	24
2703.26	24
2704.14	24
2705.02	25
2705.89	24
2706.77	23.5
2707.65	21
2708.53	26
2709.41	24
2710.29	20.5
2711.17	25.5
2712.05	25.5
2712.93	23
2713.8	22
2714.68	26
2715.56	19.5
2716.44	22.5
2717.32	19.5
2718.19	23
2719.07	26.5
2719.95	24.5
2720.83	28
2721.7	20
2722.58	24
2723.46	22.5
2724.33	21.5
2725.21	22.5
2726.09	25
2726.97	28
2727.84	21.5
2728.72	23
2729.59	25.5
2730.47	20.5
2731.35	23.5
2732.22	23
2733.1	27.5
2733.97	21.5
2734.85	21.5
2735.72	23.5
2736.6	26.5
2737.47	23
2738.35	23.5
2739.22	25.5
2740.1	24
2740.97	25
2741.84	23.5
2742.72	20.5
2743.59	23.5
2744.47	23.5
2745.34	20
2746.21	22.5
2747.09	22.5
2747.96	25
2748.83	25.5
2749.71	24
2750.58	26.5
2751.45	25.5
2752.33	27
2753.2	25.5
2754.07	20.5
2754.94	26
2755.82	23.5
2756.69	22
2757.56	24.5
2758.43	22
2759.3	25
2760.18	27.5
2761.05	23.5
2761.92	25.5
2762.79	27
2763.66	24
2764.53	22
2765.4	25
2766.27	23
2767.14	23
2768.01	22.5
2768.88	25
2769.75	22.5
2770.62	26
2771.49	24
2772.36	28
2773.23	24
2774.1	24.5
2774.97	23
2775.84	24
2776.71	19.5
2777.58	23
2778.45	26
2779.32	18
2780.19	22.5
2781.06	27
2781.92	22
2782.79	24.5
2783.66	24
2784.53	23
2785.4	26.5
2786.26	22
2787.13	26
2788	24.5
2788.87	23
2789.73	27.5
2790.6	28
2791.47	28.5
2792.34	21.5
2793.2	25
2794.07	28
2794.94	22.5
2795.8	27
2796.67	25
2797.53	27
2798.4	28.5
2799.27	25
2800.13	28.5
2801	25.75
2801.86	21.5
2802.73	25
2803.59	25.5
2804.46	28
2805.32	26.5
2806.19	28
2807.05	23
2807.92	22
2808.78	23.5
2809.65	29.5
2810.51	24
2811.38	26
2812.24	23
2813.1	27.5
2813.97	25
2814.83	25
2815.7	26.5
2816.56	24.5
2817.42	26
2818.29	28.5
2819.15	27
2820.01	26.5
2820.87	27.5
2821.74	24
2822.6	21
2823.46	26
2824.32	27
2825.19	24
2826.05	27
2826.91	27
2827.77	24
2828.63	22.5
2829.5	26
2830.36	23.5
2831.22	24
2832.08	24
2832.94	25
2833.8	27.5
2834.66	24.5
2835.52	24
2836.38	27
2837.24	24
2838.1	23
2838.96	21
2839.82	26
2840.68	26.5
2841.54	28
2842.4	25
2843.26	24
2844.12	24.5
2844.98	27
2845.84	26.5
2846.7	27
2847.56	26.5
2848.42	23
2849.28	24
2850.14	27.5
2850.99	26.5
2851.85	24.5
2852.71	25.5
2853.57	23.5
2854.43	25
2855.28	23
2856.14	25
2857	24
2857.86	25
2858.71	29.5
2859.57	28.5
2860.43	26
2861.28	24.5
2862.14	26.5
2863	25.5
2863.86	25.5
2864.71	25.5
2865.57	26
2866.42	28
2867.28	30
2868.14	23
2868.99	26.5
2869.85	29
2870.7	28
2871.56	30
2872.41	25
2873.27	32.5
2874.13	29.5
2874.98	27
2875.83	26
2876.69	32.5
2877.54	30.5
2878.4	30
2879.25	30.5
2880.11	33
2880.96	32
2881.81	32
2882.67	33.5
2883.52	31
2884.38	34
2885.23	33
2886.08	29.5
2886.94	37.5
2887.79	35
2888.64	39
2889.5	36.5
2890.35	38
2891.2	36
2892.05	43
2892.91	42.5
2893.76	43
2894.61	43
2895.46	45.5
2896.31	52
2897.17	56.5
2898.02	53
2898.87	55.5
2899.72	53.5
2900.57	61.5
2901.42	65.5
2902.27	59.5
2903.12	63.5
2903.98	67.5
2904.83	66.5
2905.68	67.5
2906.53	69.5
2907.38	71
2908.23	67
2909.08	62
2909.93	60
2910.78	58
2911.63	61.5
2912.48	55
2913.33	54
2914.18	54
2915.02	52
2915.87	46
2916.72	42
2917.57	42.5
2918.42	37
2919.27	38.5
2920.12	37
2920.97	33
2921.81	33
2922.66	30.5
2923.51	29.5
2924.36	35
2925.21	34.5
2926.05	34.5
2926.9	31
2927.75	34.5
2928.59	28
2929.44	28.5
2930.29	31
2931.14	28.5
2931.98	28
2932.83	27.5
2933.68	27.5
2934.52	27
2935.37	31
2936.21	25
2937.06	25
2937.91	25
2938.75	23.5
2939.6	26
2940.44	26
2941.29	28.5
2942.14	26
2942.98	29.5
2943.82	27
2944.67	29
2945.51	26.5
2946.36	26
2947.2	28
2948.05	32.5
2948.89	29.5
2949.74	28
2950.58	26.5
2951.43	32.5
2952.27	28
2953.11	27
2953.96	28
2954.8	31.5
2955.64	32
2956.49	36
2957.33	31.5
2958.17	33.5
2959.02	38.5
2959.86	39
2960.7	40
2961.54	41
2962.39	46
2963.23	37.5
2964.07	42
2964.91	45
2965.75	39
2966.6	46
2967.44	45
2968.28	44
2969.12	41
2969.96	42
2970.8	40.5
2971.64	43.466
2972.48	37.9782
2973.33	33.5497
2974.17	34.0831
2975.01	33.4048
2975.85	35.5829
2976.69	33.5919
2977.53	36.2831
2978.37	33.123
2979.21	33.0811
2980.05	28.5974
2980.89	30.782
2981.73	33.3932
2982.57	30.3621
2983.41	30.4218
2984.25	27.8604
2985.08	26.3009
2985.92	27.3829
2986.76	26.922
2987.6	28.2031
2988.44	23.8814
2989.28	28.3707
2990.12	25.0631
2990.96	22.7265
2991.79	27.0077
2992.63	27.7766
2993.47	24.6194
2994.31	25.5319
2995.14	24.2912
2995.98	25.1589
2996.82	23.3273
2997.66	23.3673
2998.49	26.5788
2999.33	22
3000.17	24.9838
3001	22.4596
3001.84	23.5967
3002.68	23.2875
3003.51	23.608
3004.35	22.2727
3005.19	24.1398
3006.02	21.1676
3006.86	23.9761
3007.7	21.0441
3008.53	26.2987
3009.37	21.9248
3010.2	22.1524
3011.04	24.5513
3011.87	24.1954
3012.71	22.1543
3013.54	22.8919
3014.38	22.8659
3015.21	21.5445
3016.05	22.2631
3016.88	23.3677
3017.72	22.3176
3018.55	23.0825
3019.39	21.8639
3020.22	21.4516
3021.05	21.5474
3021.89	24.0486
3022.72	23.6329
3023.55	21.7403
3024.39	19.3935
3025.22	23.0443
3026.05	23.1832
3026.89	22.706
3027.72	21.85
3028.55	20.0702
3029.39	20.4423
3030.22	23.1054
3031.05	23.5786
3031.88	23.8515
3032.72	21.749
3033.55	25.024
3034.38	23.6037
3035.21	20.988
3036.04	19.8619
3036.88	21.3453
3037.71	21.893
3038.54	21.8835
3039.37	21.2444
3040.2	22.2271
3041.03	21.7742
3041.86	24.1295
3042.69	24.112
3043.52	21.4472
3044.36	20.6505
3045.19	21.9081
3046.02	21.7469
3046.85	21.1648
3047.68	21.6987
3048.51	20.9727
3049.34	20.7256
3050.17	21.1165
3051	21.0514
3051.83	23.6446
3052.66	23.1383
3053.48	23.1765
3054.31	23.4133
3055.14	21.1003
3055.97	22.9002
3056.8	23.0841
3057.29	22.5
3058.12	24.5
3058.95	23
3059.79	22
3060.62	19
3061.45	21.5
3062.29	22.5
3063.12	26
3063.95	24.5
3064.78	24
3065.62	20
3066.45	28
3067.28	23
3068.11	23
3068.94	19.5
3069.77	22.5
3070.61	19
3071.44	23.5
3072.27	21.5
3073.1	25.5
3073.93	21.5
3074.76	26
3075.59	24.5
3076.42	24
3077.25	24.5
3078.08	21
3078.92	21
3079.74	22.5
3080.57	24
3081.41	24.5
3082.24	25.5
3083.06	20
3083.89	23
3084.72	24
3085.55	23
3086.38	24
3087.21	23.5
3088.04	25
3088.87	20.5
3089.7	23
3090.53	20.5
3091.36	21
3092.18	23
3093.01	24.5
3093.84	25
3094.67	28
3095.5	24.5
3096.32	20
3097.15	23.5
3097.98	19
3098.81	21
3099.64	24.5
3100.46	22
3101.29	25
3102.12	25.5
3102.94	21.5
3103.77	23
3104.6	20
3105.42	22.5
3106.25	22
3107.08	21.5
3107.9	23
3108.73	22
3109.56	18
3110.38	25
3111.21	25
3112.03	25
3112.86	23
3113.68	28
3114.51	25
3115.33	22.5
3116.16	24
3116.98	26.5
3117.81	22
3118.63	24
3119.46	26
3120.28	24.5
3121.11	22.5
3121.93	25.5
3122.76	23
3123.58	25
3124.4	27
3125.23	22
3126.05	20
3126.87	20.5
3127.7	26.5
3128.52	20
3129.34	23.5
3130.17	22
3130.99	20.5
3131.81	23.5
3132.64	26.5
3133.46	20
3134.28	21
3135.1	19
3135.93	20
3136.75	23.5
3137.57	20
3138.39	19
3139.21	27.5
3140.04	25.5
3140.86	23
3141.68	23
3142.5	23
3143.32	24
3144.14	24
3144.96	24.5
3145.78	25
3146.61	21
3147.43	20.5
3148.25	22
3149.07	24.5
3149.89	21
3150.71	26.5
3151.53	25.5
3152.35	21
3153.17	22
3153.99	27.5
3154.81	23
3155.63	28
3156.45	23
3157.27	23
3158.08	25
3158.9	20.5
3159.72	19.5
3160.54	26
3161.36	23.5
3162.18	22.5
3163	24.5
3163.82	27
3164.63	15.5
3165.45	21
3166.27	22
3167.09	21.5
3167.91	26.5
3168.72	24.5
3169.54	26
3170.36	22.5
3171.18	23
3171.99	21
3172.81	22
3173.63	23
3174.44	21
3175.26	23
3176.08	27.5
3176.89	21.5
3177.71	24
3178.53	21.5
3179.34	21.5
3180.16	24.5
3180.97	23.5
3181.79	18.5
3182.61	20
3183.42	24.5
3184.24	26.5
3185.05	24
3185.87	22.5
3186.68	23
3187.5	26.5
3188.31	20.5
3189.13	24.5
3189.94	22.5
3190.76	23
3191.57	23
3192.39	19.5
3193.2	25
3194.02	22.5
3194.83	23
3195.64	21
3196.46	24.5
3197.27	21.5
3198.08	23
3198.9	25
3199.71	22
3200.52	24
3201.34	23
3202.15	21.5
3202.96	24.5
3203.78	23
3204.59	19
3205.4	23
3206.21	23
3207.03	21
3207.84	22
3208.65	24.5
3209.46	22.5
3210.27	24
3211.09	24
3211.9	24
3212.71	26.5
3213.52	25
3214.33	21.5
3215.14	22.5
3215.95	21
3216.77	24
3217.58	25
3218.39	25
3219.2	24
3220.01	27
3220.82	22
3221.63	24.5
3222.44	23
3223.25	22
3224.06	23
3224.87	21.5
3225.68	23
3226.49	19
3227.3	21.5
3228.11	29.5
3228.92	19
3229.73	24.5
3230.53	26
3231.34	26
3232.15	24
3232.96	23.5
3233.77	24
3234.58	23
3235.39	21.5
3236.19	23.5
3237	21
3237.81	19.5
3238.62	22.5
3239.43	24
3240.23	26
3241.04	25
3241.85	21
3242.66	26
3243.46	23.5
3244.27	27
3245.08	26.5
3245.89	23
3246.69	22
3247.5	22
3248.31	24.5
3249.11	22
3249.92	23
3250.72	25.5
3251.53	21
3252.34	19
3253.14	24.5
3253.95	24
3254.75	24
3255.56	23
3256.36	23
3257.17	20
3257.98	28.5
3258.78	24.5
3259.59	25
3260.39	20.5
3261.19	23.5
3262	21.5
3262.8	27
3263.61	22.5
3264.41	25
3265.22	26.5
3266.02	22
3266.83	24.5
3267.63	21.5
3268.43	21
3269.24	25.5
3270.04	25.5
3270.84	24
3271.65	25
3272.45	25
3273.25	21
3274.06	20
3274.86	23
3275.66	24.5
3276.46	20.5
3277.27	21
3278.07	24
3278.87	23.5
3279.67	25
3280.48	21.5
3281.28	19
3282.08	23.5
3282.88	22
3283.68	23.5
3284.48	23
3285.29	24
3286.09	22.5
3286.89	22.5
3287.69	24
3288.49	24.5
3289.29	21.5
3290.09	23
3290.89	23.5
3291.69	20.5
3292.49	24.5
3293.29	23.5
3294.09	21.5
3294.89	25.5
3295.69	23
3296.49	24
3297.29	22
3298.09	25.5
3298.89	22
3299.69	24.5
3300.49	23
3301.29	24.5
3302.09	23.5
3302.89	23
3303.69	23
3304.49	23
3305.28	25
3306.08	23.5
3306.88	26
3307.68	24
3308.48	22.5
3309.28	24.5
3310.07	25
3310.87	21
3311.67	23.5
3312.47	22.5
3313.26	24
3314.06	22
3314.86	24
3315.66	25
3316.45	25.5
3317.25	24.5
3318.05	24
3318.84	24.5
3319.64	21.5
3320.44	21.5
3321.23	21.5
3322.03	23.5
3322.83	24
3323.62	23
3324.42	25.5
3325.21	23.5
3326.01	20
3326.81	26
3327.6	22
3328.4	23
3329.19	25
3329.99	24
3330.78	19
3331.58	24
3332.37	23
3333.17	26.5
3333.96	28
3334.76	20.5
3335.55	26.5
3336.34	21
3337.14	24
3337.93	21
3338.73	24
3339.52	21.5
3340.31	24
3341.11	24
3341.9	22.5
3342.69	21.5
3343.49	25
3344.28	22
3345.07	18
3345.87	21.5
3346.66	24.5
3347.45	22.5
3348.25	23.5
3349.04	21
3349.83	23
3350.62	22
3351.42	20.5
3352.21	22.5
3353	20.5
3353.79	25.5
3354.58	26.5
3355.37	25
3356.17	19
3356.96	27
3357.75	21.5
3358.54	25
3359.33	23
3360.12	19.5
3360.91	23.5
3361.7	20.5
3362.49	24
3363.29	23
3364.08	24
3364.87	27.5
3365.66	24.5
3366.45	25.5
3367.24	23
3368.03	23.5
3368.82	22.5
3369.61	19.5
3370.4	20.5
3371.19	25
3371.97	24
3372.76	26
3373.55	20
3374.34	21
3375.13	24
3375.92	20.5
3376.71	22.5
3377.5	25.5
3378.29	22.5
3379.07	25
3379.86	26.5
3380.65	26
3381.44	20
3382.23	23.5
3383.01	24.5
3383.8	20
3384.59	25
3385.38	21
3386.16	24
3386.95	22
3387.74	21
3388.53	23
3389.31	23
3390.1	25
3390.89	23
3391.67	21.5
3392.46	21.5
3393.25	25.5
3394.03	25
3394.82	23
3395.6	26.5
3396.39	25.5
3397.18	25
3397.96	23.5
3398.75	25.5
3399.53	21
3400.32	22.5
3401.1	20
3401.89	25
3402.67	24.5
3403.46	26
3404.24	23.5
3405.03	21
3405.81	23.5
3406.6	23
3407.38	25.5
3408.17	25.5
3408.95	22.5
3409.74	25.5
3410.52	22
3411.3	20.5
3412.09	20
3412.87	25.5
3413.65	24
3414.44	22.5
3415.22	20
3416	22
3416.79	25.5
3417.57	23
3418.35	28.5
3419.14	25
3419.92	26
3420.7	22.5
3421.48	28.5
3422.27	27.5
3423.05	22
3423.83	23.5
3424.61	23.5
3425.4	22
3426.18	21.5
3426.96	20.5
3427.74	21
3428.52	25
3429.3	25
3430.08	24.5
3430.87	22.5
3431.65	25
3432.43	22
3433.21	23
3433.99	23.5
3434.77	21.5
3435.55	24
3436.33	21
3437.11	22
3437.89	23
3438.67	26
3439.45	24
3440.23	20
3441.01	23.5
3441.79	20.5
3442.57	24.5
3443.35	19
3444.13	21
3444.91	24.5
3445.69	25
3446.47	26.5
3447.25	24.5
3448.03	23.5
3448.8	24
3449.58	23.5
3450.36	19.5
3451.14	21.5
3451.92	23.5
3452.7	19.5
3453.47	24
3454.25	21.5
3455.03	25.5
3455.81	20
3456.59	23.5
3457.36	22
3458.14	25.5
3458.92	24.5
3459.69	23
3460.47	23
3461.25	24
3462.03	22.5
3462.8	25
3463.58	23
3464.36	26
3465.13	24
3465.91	26
3466.69	26.5
3467.46	24
3468.24	23
3469.01	23
3469.79	22
3470.57	21.5
3471.34	26.5
3472.12	23
3472.89	22.5
3473.67	23
3474.44	22
3475.22	22.5
3475.99	26
3476.77	24
3477.54	26
3478.32	20
3479.09	24.5
3479.87	24.5
3480.64	25
3481.41	24
3482.19	24
3482.96	24
3483.74	24
3484.51	21
3485.28	27.5
3486.06	24
3486.83	25.5
3487.6	23
3488.38	24
3489.15	24
3489.92	22.5
3490.7	26
3491.47	21
3492.24	25
3493.01	21
3493.79	23
3494.56	25.5
3495.33	23
3496.1	23
3496.88	26
3497.65	23.5
3498.42	22.5
3499.19	23
3499.96	23.5
