#Acq. time (s)=	5
#Accumulations=	5
#Range (cm-¹)=	100...3500
#Windows=	4
#Autofocus=	Off
#AutoExposure=	Off
#Spike filter=	Multiple accum.
#Delay time (s)=	0
#Binning=	1
#Readout mode=	Signal
#DeNoise=	Off
#ICS correction=	Off
#Dark correction=	Off
#Inst. Process=	Off
#Instrument=	LabRAM HR Evol
#Detector=	Syncerity OE
#Objective=	x100_VIS
#Grating=	600 (500nm)
#ND Filter=	25%
#Laser=	633nm_Edge
#Hole=	100.021
#Range=	Visible
#Project=	verificaciones
#Sample=	at1
#Site=	plain
#Title=	bolusat1plain
#Remark=	
#Date=	13.01.2026 14:18
#Acquired=	13.01.2026 14:18:01
100.692	23
101.975	31
103.258	35
104.542	33.5
105.824	32.5
107.107	34
108.39	33
109.672	29
110.954	32
112.236	29.5
113.519	31.5
114.8	29
116.081	33
117.362	33
118.643	28
119.924	31
121.204	34
122.484	32.5
123.764	31
125.044	25
126.323	35.5
127.603	30
128.882	33.5
130.161	31.5
131.438	32.5
132.716	36.5
133.995	39
135.273	34
136.55	40
137.828	39.5
139.106	40
140.383	35.5
141.66	40.5
142.937	34.5
144.213	37
145.488	34
146.764	38.5
148.04	42
149.316	43.5
150.592	41.5
151.867	38.5
153.141	40
154.416	40
155.69	45
156.965	37
158.239	43.5
159.512	45
160.786	41
162.059	42.5
163.333	41
164.605	39.5
165.878	42.5
167.15	44.5
168.423	40
169.694	38
170.966	36.5
172.238	41.5
173.51	42
174.78	41.5
176.052	44
177.323	40.5
178.592	39
179.863	41.5
181.134	43.5
182.403	45
183.673	40.5
184.943	37
186.211	46.5
187.481	43.5
188.749	46
190.018	45
191.287	40.5
192.554	43
193.822	41.5
195.089	40.5
196.357	38
197.625	38.5
198.891	43
200.159	40
201.425	39
202.692	38
203.957	40
205.224	36
206.489	40.5
207.755	39.5
209.02	34.5
210.286	38
211.55	37
212.815	32
214.079	35
215.344	33
216.607	34.5
217.872	35
219.135	34
220.399	33.5
221.662	35.5
222.924	34
224.187	39
225.449	31
226.713	31.5
227.974	28
229.235	33.5
230.498	30
231.759	33.5
233.019	32
234.281	30
235.542	33.5
236.802	31
238.063	33
239.323	31.5
240.582	32.5
241.843	33.5
243.102	27.5
244.361	27.5
245.621	25
246.879	31.5
248.138	32
249.396	30
250.655	30
251.913	27.5
253.17	26.5
254.427	28.5
255.686	27.5
256.943	31.5
258.199	30.5
259.456	28.5
260.712	30.5
261.969	29
263.225	29.5
264.481	28
265.736	30.5
266.991	32
268.246	32.5
269.502	29
270.757	31
272.011	31
273.265	31
274.519	25
275.773	24
277.027	31
278.28	24.5
279.533	31
280.786	32
282.04	28
283.293	27
284.545	25
285.798	28
287.049	32.5
288.301	29
289.553	32.5
290.804	32
292.055	30
293.306	27
294.557	29.5
295.807	28.5
297.058	27.5
298.308	29
299.558	25.5
300.808	27.5
302.057	28
303.305	31.5
304.554	34.5
305.803	28
307.052	25
308.3	28
309.549	28.5
310.797	30.5
312.045	30
313.292	25
314.54	29
315.786	26
317.033	30
318.28	31.5
319.526	30
320.773	24.5
322.019	32.5
323.264	31.5
324.51	27.5
325.755	28.5
327.001	28.5
328.246	31
329.49	27
330.735	29
331.979	26
333.224	25
334.467	28.5
335.711	24
336.955	32.5
338.199	29
339.441	27.5
340.684	26
341.927	32
343.168	27
344.411	27
345.654	28
346.895	31
348.137	31
349.379	28.5
350.619	27.5
351.86	29
353.102	28.5
354.341	30
355.582	30
356.821	32
358.062	25
359.302	31
360.541	22
361.781	28
363.019	29
364.259	30.5
365.496	29.5
366.736	30.5
367.974	31
369.212	32
370.45	31
371.687	25
372.925	27
374.162	29.5
375.399	28
376.635	29.5
377.873	25
379.109	27
380.344	31
381.581	29.5
382.816	29
384.052	26.5
385.287	27
386.523	27
387.757	30
388.991	32
390.227	27
391.46	34
392.695	27.5
393.928	30.5
395.162	27
396.396	29
397.629	30.5
398.861	30.5
400.095	28.5
401.327	28.5
402.559	31.5
403.792	32
405.024	26
406.255	29
407.488	28
408.719	30
409.949	29
411.18	33
412.412	29
413.642	31.5
414.872	33
416.102	27
417.333	25.5
418.562	28
419.791	32.5
421.02	28.5
422.249	27.5
423.479	27
424.707	28
425.935	29.5
427.163	30
428.391	29.5
429.619	29.5
430.848	28
432.075	30
433.302	26
434.529	30.5
435.755	28
436.982	28
438.208	28
439.434	27
440.66	31.5
441.885	28.5
443.111	27
444.338	33
445.563	25
446.788	29.5
448.012	35
449.237	29
450.461	29.5
451.685	30
452.909	29.5
454.133	31.5
455.356	30
456.579	32
457.802	28.5
459.025	29
460.247	31.5
461.469	32.5
462.691	32
463.914	34.5
465.136	31
466.357	28
467.579	33
468.8	33.5
470.021	35
471.242	32.5
472.462	39
473.682	38
474.903	37.5
476.123	37
477.343	44.5
478.563	47
479.782	47.5
481	47
482.219	49
483.438	54.5
484.657	60
485.874	61.5
487.093	63.5
488.311	60.5
489.529	63
490.747	57
491.963	68
493.181	59
494.398	58
495.614	52.5
496.83	55.5
498.047	51
499.264	46
500.479	46.5
501.695	42.5
502.911	42
504.125	41
505.34	38
506.554	41
507.769	35.5
508.984	40
510.198	40.5
511.412	37.5
512.627	35.5
513.839	33.5
515.053	31.5
516.266	34
517.479	31
518.691	33
519.905	31.5
521.118	31.5
522.329	34
523.542	32.5
524.753	39
525.965	32
527.176	31
528.388	29
529.598	33.5
530.809	28
532.019	36
533.23	33.5
534.44	29.5
535.649	33
536.86	31
538.068	24.5
539.279	29.5
540.487	28.5
541.697	31
542.905	35.5
544.113	31
545.322	31.5
546.53	28.5
547.737	32
548.946	31.5
550.153	27.5
551.361	26.5
552.568	29.5
553.774	32
554.982	29.5
556.188	33.5
557.394	32
558.599	26
559.806	33
561.012	27
562.217	30
563.423	30
564.628	32.5
565.832	31
567.036	26.5
568.241	31.5
569.446	32.5
570.65	31
571.853	33
573.057	30
574.26	29.5
575.464	32.5
576.667	29.5
577.87	30.5
579.072	25.5
580.274	27.5
581.477	32.5
582.68	26
583.881	31
585.083	26.5
586.284	27.5
587.485	30.5
588.686	32.5
589.887	29.5
591.087	23
592.288	28
593.488	25
594.688	26
595.888	29
597.087	31.5
598.287	27
599.486	29
600.685	29.5
601.884	31
603.082	27.5
604.281	31.5
605.479	29.5
606.677	28
607.875	30
609.073	29.5
610.27	27
611.468	29.5
612.665	27.5
613.862	29.5
615.058	25.5
616.255	28.5
617.451	28
618.648	26.5
619.842	28
621.038	33
622.234	28
623.429	33
624.624	29
625.819	30
627.013	28.5
628.207	30
629.402	29.5
630.596	31
631.79	31.5
632.983	33
634.177	27.5
635.37	31.5
636.564	25
637.755	26.5
638.948	30
640.141	29.5
641.334	33
642.525	30.5
643.717	31
644.909	31
646.099	28.5
647.291	30.5
648.483	28.5
649.674	28
650.864	31.5
652.055	26
653.244	29.5
654.435	29
655.625	33
656.814	29
658.004	30
659.193	29
660.382	29.5
661.571	28.5
662.759	27.5
663.948	27
665.135	30
666.324	29
667.511	31
668.7	34
669.886	36
671.074	35
672.262	33
673.448	30.5
674.634	33
675.821	35.5
677.007	36
678.194	31
679.379	33.5
680.565	35.5
681.75	35
682.936	33
684.121	31
685.305	39.5
686.491	34
687.675	42
688.86	37.5
690.043	35
691.227	35.5
692.411	38
693.594	34.5
694.777	35
695.961	37
697.144	35.5
698.326	37
699.509	37.5
700.691	37.5
701.873	44
703.056	43
704.237	45
705.419	45.5
706.599	52
707.782	50.5
708.962	56
710.143	46
711.323	49
712.504	49.5
713.684	42
714.864	42
716.043	38
717.223	33.5
718.403	35.5
719.582	32.5
720.761	30.5
721.94	32
723.118	30
724.296	29.5
725.474	30
726.652	30.5
727.831	26.5
729.009	28
730.186	28
731.363	29
732.54	27.5
733.717	23
734.893	25.5
736.07	31
737.246	25.5
738.422	30.5
739.598	25.5
740.773	26.5
741.949	32.5
743.124	30
744.299	33
745.474	30
746.649	29
747.823	30
748.997	26.5
750.172	31.5
751.346	30.5
752.519	30
753.693	23
754.867	29.5
756.038	29.5
757.211	26
758.384	29.5
759.557	28.5
760.73	31.5
761.902	29
763.074	29.5
764.246	27.5
765.417	32.5
766.588	27
767.76	28
768.931	29
770.102	26
771.271	28
772.442	27
773.613	25.5
774.783	31.5
775.952	23.5
777.122	31.5
778.291	29
779.461	29.5
780.629	27.5
781.798	30.5
782.967	29.5
784.135	28
785.304	33.5
786.472	28
787.639	30.5
788.807	29.5
789.975	29.5
791.142	35.5
792.309	33
793.477	33.5
794.642	32
795.81	29.5
796.975	32.5
798.142	25.5
799.308	27
800.473	28.5
801.639	33.5
802.804	30
803.97	33
805.134	28.5
806.299	26
807.463	30
808.628	28
809.792	28.5
810.957	27.5
812.12	33
813.284	33
814.447	25
815.611	31
816.773	26
817.937	28.5
819.099	26
820.261	27
821.424	30.5
822.585	29
823.748	24.5
824.909	29
826.07	24.5
827.232	28.5
828.393	30.5
829.554	30.5
830.715	27.5
831.875	27
833.035	31.5
834.196	27
835.356	27
836.515	28
837.676	25.5
838.835	27
839.994	24
841.152	26.5
842.312	31.5
843.47	27.5
844.629	26
845.786	27.5
846.946	29
848.103	31
849.261	28
850.418	28
851.575	30.5
852.733	26
853.89	31
855.046	33.5
856.203	30
857.359	29
858.515	29
859.67	27
860.827	25.5
861.983	30
863.138	33
864.293	28.5
865.448	33
866.603	33.5
867.757	29
868.912	29.5
870.066	28.5
871.22	25.5
872.374	31.5
873.527	28.5
874.681	32
875.834	25.5
876.987	30
878.14	30.5
879.293	28.5
880.445	27.5
881.598	29
882.75	27
883.902	28.5
885.054	26.5
886.206	30.5
887.357	28
888.507	28.5
889.658	28.5
890.809	30
891.96	26.5
893.111	27
894.261	20
895.411	27.5
896.561	27.5
897.71	24.5
898.86	26.5
900.009	28
901.159	29
902.308	27
903.455	27
904.604	26
905.753	30
906.901	28
908.048	28.5
909.197	23.5
910.344	27.5
911.492	28
912.639	22.5
913.786	23.5
914.933	32
916.079	24.5
917.226	24
918.373	31.5
919.518	26.5
920.664	31
921.81	28.5
922.955	21
924.101	27
925.245	29
926.391	29
927.536	27
928.68	26
929.825	26
930.968	22
932.113	29
933.256	24.5
934.4	28
935.543	28
936.687	30
937.83	29.5
938.973	28.5
940.115	30
941.258	26.5
942.399	26
943.542	26.5
944.684	27.5
945.826	27
946.967	25
948.109	29.5
949.25	30
950.392	27
951.532	28
952.672	23.5
953.813	26
954.953	28
956.093	28.5
957.233	30.5
958.373	29.5
959.512	31
960.652	29
961.791	27
962.929	28
964.069	28.5
965.207	27
966.345	24
967.484	23
968.622	28.5
969.759	25.5
970.896	28
972.035	30
973.172	26.5
974.309	26
975.445	27.5
976.582	27.5
977.719	27
978.855	27
979.991	28
981.127	28.5
982.263	30
983.398	28
984.535	23.5
985.67	28.5
986.804	28.5
987.939	29
989.074	26.5
990.208	31
991.342	27
992.476	25.5
993.61	25
994.744	29.5
995.877	29
997.01	28
998.143	24.5
999.276	26
1000.41	25
1001.54	23.5
1002.67	29.5
1003.81	22.5
1004.94	28.5
1006.07	27.5
1007.2	25
1008.33	22
1009.47	29
1010.6	23.5
1011.73	27
1012.86	26
1013.99	27.5
1015.12	26
1016.25	22
1017.38	27
1018.51	21
1019.64	29
1020.77	25
1021.9	26
1023.03	28.5
1024.15	25
1025.28	24
1026.41	28.5
1027.54	24
1028.67	29.5
1029.8	29
1030.92	24
1032.05	21
1033.18	26
1034.31	22
1035.43	23.5
1036.56	26
1037.69	25
1038.81	30
1039.94	24
1041.07	26
1042.19	25.5
1043.32	30
1044.44	27
1045.57	27.5
1046.69	27
1047.82	25.5
1048.94	28
1050.07	29
1051.19	25.5
1052.32	21
1053.44	27
1054.57	29
1055.69	28
1056.81	24.5
1057.94	24
1059.06	27.5
1060.18	26.5
1061.31	27.5
1062.43	24
1063.55	28
1064.67	27
1065.8	25
1066.92	24.5
1068.04	26.5
1069.16	26
1070.28	24
1071.4	23.5
1072.52	26
1073.64	26.5
1074.76	24
1075.89	25
1077.01	26
1078.13	23.5
1079.25	24.5
1080.37	26
1081.49	24
1082.6	27.5
1083.72	25
1084.84	29
1085.96	24.5
1087.08	24.5
1088.2	23.5
1089.32	23.5
1090.43	26.5
1091.55	24.5
1092.67	23
1093.79	29
1094.91	28
1096.02	23.5
1097.14	26
1098.26	27
1099.37	24
1100.49	25
1101.61	26
1102.72	29.5
1103.84	26.5
1104.95	23
1106.07	27
1107.18	23.5
1108.3	27.5
1109.41	28
1110.53	26
1111.64	27
1112.76	25
1113.87	29
1114.99	30
1116.1	27.5
1117.21	27.5
1118.33	28.5
1119.44	24
1120.55	24
1121.67	24
1122.78	25
1123.89	26.5
1125	26.5
1126.12	26.5
1127.23	29
1128.34	26.5
1129.45	24.5
1130.56	23.5
1131.68	23.5
1132.79	21
1133.9	23
1135.01	24.5
1136.12	22
1137.23	22
1138.34	22
1139.45	25.5
1140.56	24.5
1141.67	27.5
1142.78	24
1143.89	28
1145	22
1146.11	26
1147.22	27.5
1148.32	24.5
1149.43	25.5
1150.54	27.5
1151.65	27
1152.76	25.5
1153.86	27.5
1154.97	27
1156.08	26.5
1157.19	28
1158.29	25.5
1159.4	24
1160.51	25.5
1161.61	22
1162.72	28.5
1163.83	28
1164.93	27.5
1166.04	24.5
1167.14	25
1168.25	25
1169.35	31
1170.46	27.5
1171.56	26
1172.67	31.5
1173.77	28
1174.88	25.5
1175.98	25.5
1177.08	26
1178.19	26.5
1179.29	28
1180.4	23
1181.5	26
1182.6	26
1183.71	25.5
1184.81	26
1185.91	23.5
1187.01	26
1188.12	24.5
1189.22	21
1190.32	24.5
1191.42	27
1192.52	25
1193.62	26
1194.72	25.5096
1195.83	28.4578
1196.93	24.0485
1198.03	22.1258
1199.13	25.943
1200.23	23.1386
1201.33	26.9602
1202.43	26.1325
1203.53	26.0463
1204.63	27.2233
1205.73	25.8386
1206.83	29.7743
1207.92	24.4583
1209.02	25.9287
1210.12	26.1573
1211.22	22.0214
1212.32	25.1106
1213.42	19.7759
1214.51	23.2717
1215.61	26.6912
1216.71	26.8034
1217.81	25.2107
1218.9	28.1741
1220	26.9403
1221.1	24.5353
1222.19	25.2359
1223.29	26.6026
1224.39	25.3891
1225.48	24.9038
1226.58	26.2244
1227.68	24.1147
1228.77	23.8785
1229.87	23.7038
1230.96	23.6718
1232.06	24.4913
1233.15	23.6967
1234.25	27.1366
1235.34	24.4364
1236.43	23.0011
1237.53	26.852
1238.62	23.9072
1239.72	24.6872
1240.81	22.426
1241.9	25.7784
1243	24.7764
1244.09	25.2193
1245.18	25.9239
1246.27	25.6581
1247.37	24.6903
1248.46	27.3408
1249.55	24.7863
1250.64	24.2577
1251.74	25.982
1252.83	27.2015
1253.92	25.3283
1255.01	26.5892
1256.1	26.838
1257.19	27.0717
1258.28	23.7394
1259.38	25.972
1260.46	25.8229
1261.56	29.6073
1262.65	27.0388
1263.74	27.3083
1264.82	26.5655
1265.91	27.0315
1267	25.5532
1268.09	23.9682
1269.18	26.2399
1270.27	28.7412
1271.36	25.5469
1272.45	24.6436
1273.54	21.7437
1274.63	23.4659
1275.71	24.7262
1276.8	26.4067
1277.89	25.2421
1278.98	24.4951
1280.06	24.2755
1281.15	24.1418
1282.24	26.6526
1283.32	24.2263
1284.41	25.7315
1285.5	23.3758
1286.58	22.0425
1287.67	25.4277
1288.76	26.9343
1289.84	24.8026
1290.93	26.7986
1292.01	24.6751
1293.1	25.9358
1294.18	24.1703
1295.27	25.0952
1296.35	24.053
1297.44	23.8478
1298.52	26.312
1299.6	24.5823
1300.69	27.4629
1301.77	26.1532
1302.86	25
1303.94	25.4035
1305.02	23.711
1306.11	23.3646
1306.41	23.5
1307.5	26.5
1308.59	24
1309.68	21
1310.77	23
1311.85	24.5
1312.94	25.5
1314.03	25.5
1315.11	26
1316.2	26
1317.29	24
1318.37	25
1319.46	25.5
1320.55	20.5
1321.63	26.5
1322.72	25.5
1323.8	21.5
1324.89	21
1325.98	27
1327.06	21
1328.15	26
1329.23	24.5
1330.31	26.5
1331.4	23
1332.48	25
1333.57	22
1334.65	25
1335.74	24
1336.82	25
1337.9	25.5
1338.99	26.5
1340.07	22.5
1341.15	25
1342.24	28.5
1343.32	29
1344.4	30
1345.48	20
1346.56	25.5
1347.65	25.5
1348.73	24
1349.81	23.5
1350.89	22
1351.97	28
1353.05	26
1354.13	22
1355.21	25.5
1356.29	24.5
1357.37	23.5
1358.46	23
1359.54	22.5
1360.62	24.5
1361.69	24.5
1362.77	27.5
1363.85	22.5
1364.93	24
1366.01	28
1367.09	25
1368.17	24.5
1369.25	23.5
1370.33	28.5
1371.41	25.5
1372.48	24.5
1373.56	27.5
1374.64	27
1375.72	28
1376.79	27
1377.87	28
1378.95	26.5
1380.02	29.5
1381.1	23.5
1382.18	28.5
1383.25	22
1384.33	27
1385.4	29
1386.48	29
1387.56	31
1388.63	26
1389.71	27
1390.78	25
1391.86	24
1392.93	28
1394.01	30.5
1395.08	24
1396.15	25
1397.23	19.5
1398.3	25
1399.38	30.5
1400.45	32.5
1401.52	33
1402.6	28
1403.67	32
1404.74	31
1405.81	29
1406.89	28
1407.96	35
1409.03	33.5
1410.1	31
1411.17	30.5
1412.25	33.5
1413.32	31.5
1414.39	36
1415.46	33.5
1416.53	31
1417.6	31
1418.67	29.5
1419.74	28.5
1420.81	32
1421.88	29.5
1422.95	27.5
1424.02	27
1425.09	28
1426.16	28
1427.23	26
1428.3	26.5
1429.37	27.5
1430.44	24.5
1431.51	30.5
1432.58	24
1433.64	27
1434.71	27
1435.78	27.5
1436.85	28.5
1437.92	25.5
1438.98	26.5
1440.05	29
1441.12	26.5
1442.18	27.5
1443.25	25
1444.32	30
1445.38	25
1446.45	27
1447.52	29.5
1448.58	25.5
1449.65	29
1450.71	24
1451.78	27
1452.84	26
1453.91	28.5
1454.97	29
1456.04	21
1457.1	25.5
1458.17	29
1459.23	25.5
1460.3	24
1461.36	26
1462.42	31
1463.49	25
1464.55	28
1465.61	27.5
1466.68	25.5
1467.74	25.5
1468.8	25
1469.86	27
1470.93	26
1471.99	29
1473.05	26.5
1474.11	23
1475.17	24
1476.24	28
1477.3	24.5
1478.36	29.5
1479.42	28.5
1480.48	29
1481.54	26.5
1482.6	29
1483.66	31
1484.72	26
1485.78	26
1486.84	26
1487.9	27
1488.96	25.5
1490.02	23
1491.08	22
1492.14	26
1493.2	29
1494.26	30
1495.31	31.5
1496.37	27.5
1497.43	26.5
1498.49	22.5
1499.55	21
1500.6	24.5
1501.66	24.5
1502.72	24
1503.78	25
1504.83	26.5
1505.89	26
1506.95	25.5
1508	24
1509.06	25
1510.12	24
1511.17	26
1512.23	27
1513.28	25.5
1514.34	29.5
1515.39	22.5
1516.45	26.5
1517.5	25
1518.56	24
1519.61	27
1520.67	27
1521.72	25.5
1522.78	26
1523.83	24
1524.88	23.5
1525.94	22
1526.99	23
1528.05	28.5
1529.1	24.5
1530.15	24
1531.2	26.5
1532.26	27.5
1533.31	24.5
1534.36	26
1535.41	26.5
1536.47	23.5
1537.52	27
1538.57	23
1539.62	26
1540.67	24
1541.72	27.5
1542.77	22
1543.83	27
1544.88	24
1545.93	27
1546.98	28.5
1548.03	29
1549.08	27
1550.13	19.5
1551.18	26
1552.23	27
1553.28	27.5
1554.32	25
1555.37	24.5
1556.42	27
1557.47	26.5
1558.52	25
1559.57	28.5
1560.62	23.5
1561.67	24.5
1562.71	26
1563.76	23
1564.81	25.5
1565.86	25.5
1566.9	25
1567.95	26.5
1569	25
1570.04	26
1571.09	26
1572.14	25
1573.18	26
1574.23	25
1575.27	27.5
1576.32	26
1577.37	28
1578.41	27.5
1579.46	27
1580.5	28
1581.55	25.5
1582.59	26.5
1583.64	26.5
1584.68	21
1585.72	22
1586.77	26.5
1587.81	23.5
1588.86	23.5
1589.9	21
1590.94	30.5
1591.99	25.5
1593.03	27
1594.07	25
1595.12	28.5
1596.16	23.5
1597.2	24.5
1598.24	24
1599.29	29
1600.33	23
1601.37	26.5
1602.41	26
1603.45	29
1604.49	26
1605.53	29.5
1606.58	26
1607.62	25.5
1608.66	25.5
1609.7	24
1610.74	25.5
1611.78	30
1612.82	24.5
1613.86	28.5
1614.9	29
1615.94	27.5
1616.98	23
1618.02	24.5
1619.06	24
1620.09	26
1621.13	29.5
1622.17	28.5
1623.21	25
1624.25	23.5
1625.29	29
1626.32	24.5
1627.36	27
1628.4	23
1629.44	23
1630.47	23.5
1631.51	23
1632.55	27
1633.58	28
1634.62	26
1635.66	22.5
1636.69	26.5
1637.73	28.5
1638.77	23.5
1639.8	25
1640.84	27.5
1641.87	21.5
1642.91	23
1643.94	25
1644.98	23
1646.01	26
1647.05	25.5
1648.08	27
1649.12	26.5
1650.15	23
1651.18	24
1652.22	25.5
1653.25	27
1654.29	25.5
1655.32	26
1656.35	26.5
1657.39	22.5
1658.42	24.5
1659.45	21.5
1660.48	21
1661.52	24.5
1662.55	23
1663.58	28.5
1664.61	24
1665.64	25.5
1666.68	28.5
1667.71	25.5
1668.74	27.5
1669.77	25
1670.8	27.5
1671.83	24
1672.86	27
1673.89	24.5
1674.92	25.5
1675.95	27.5
1676.98	23
1678.01	22
1679.04	25
1680.07	23
1681.1	26
1682.13	29
1683.16	29.5
1684.19	26.5
1685.22	29.5
1686.25	26.5
1687.27	25
1688.3	28
1689.33	25
1690.36	28
1691.38	25
1692.41	27
1693.44	23
1694.47	26
1695.49	27.5
1696.52	26
1697.55	26
1698.57	23
1699.6	25
1700.63	25
1701.65	25
1702.68	20
1703.7	26.5
1704.73	22.5
1705.76	21.5
1706.78	22
1707.81	26.5
1708.83	24.5
1709.86	24
1710.88	27.5
1711.91	27.5
1712.93	20.5
1713.95	23
1714.98	23
1716	27
1717.03	27.5
1718.05	28.5
1719.07	25
1720.1	23.5
1721.12	27
1722.14	25.5
1723.16	22
1724.19	26
1725.21	28
1726.23	28
1727.25	25
1728.28	25
1729.3	28
1730.32	23.5
1731.34	22
1732.36	27.5
1733.38	25
1734.41	23
1735.43	21
1736.45	29
1737.47	27
1738.49	29
1739.51	29
1740.53	31
1741.55	23.5
1742.57	25
1743.59	28
1744.61	28
1745.63	25.5
1746.64	24
1747.66	27
1748.68	28.5
1749.7	24
1750.72	24.5
1751.74	23.5
1752.76	25
1753.77	25.5
1754.79	24
1755.81	26.5
1756.83	28
1757.84	25.5
1758.86	27
1759.88	26
1760.9	29
1761.91	28.5
1762.93	25
1763.95	21
1764.96	27
1765.98	27.5
1766.99	24.5
1768.01	24
1769.02	25
1770.04	26.5
1771.06	23
1772.07	29
1773.09	26
1774.1	24
1775.12	25.5
1776.13	24.5
1777.14	27
1778.16	26
1779.17	23
1780.19	26
1781.2	24
1782.21	23
1783.23	23
1784.24	25.5
1785.25	25.5
1786.27	27
1787.28	23
1788.29	26.5
1789.3	23.5
1790.32	28
1791.33	25
1792.34	24
1793.35	27
1794.36	28.5
1795.38	21
1796.39	27.5
1797.4	24
1798.41	27.5
1799.42	27
1800.43	25
1801.44	24
1802.45	24
1803.46	23
1804.47	23
1805.48	25.5
1806.49	27
1807.5	24
1808.51	26.5
1809.52	24.5
1810.53	22
1811.54	25.5
1812.55	26.5
1813.56	25
1814.57	24
1815.57	27.5
1816.58	24.5
1817.59	25.5
1818.6	25
1819.61	26
1820.61	28
1821.62	25.5
1822.63	24.5
1823.64	26
1824.64	26
1825.65	23
1826.66	25.5
1827.66	23
1828.67	23
1829.68	24
1830.68	20.5
1831.69	24
1832.69	25.5
1833.7	25
1834.7	22
1835.71	22.5
1836.71	24
1837.72	24.5
1838.72	27
1839.73	22.5
1840.73	24
1841.74	22
1842.74	27
1843.75	24.5
1844.75	24
1845.75	22.5
1846.76	22
1847.76	24.5
1848.76	21
1849.77	24
1850.77	24.5
1851.77	21.5
1852.78	23.5
1853.78	24
1854.78	24.5
1855.78	26
1856.78	26.5
1857.79	23
1858.79	21
1859.79	24
1860.79	20.5
1861.79	26
1862.79	25
1863.79	24.5
1864.79	27.5
1865.79	26.5
1866.8	26
1867.8	25
1868.8	25
1869.8	25.5
1870.8	28.5
1871.8	23
1872.8	24
1873.79	25
1874.79	27
1875.79	29
1876.79	21.5
1877.79	26
1878.79	27
1879.79	26.5
1880.79	24
1881.78	26
1882.78	22
1883.78	27
1884.78	24
1885.77	26
1886.77	27.5
1887.77	23
1888.77	26
1889.76	26.5
1890.76	25
1891.76	25.5
1892.75	24.5
1893.75	23
1894.75	26.5
1895.74	28
1896.74	22
1897.73	23.5
1898.73	29
1899.73	24
1900.72	23.5
1901.72	25.5
1902.71	24
1903.7	21
1904.7	26.5
1905.69	23.5
1906.69	25.5
1907.68	27.5
1908.68	29.5
1909.67	25
1910.66	25
1911.66	24
1912.65	26.5
1913.64	25
1914.64	23
1915.63	24
1916.62	22
1917.62	26
1918.61	28.5
1919.6	24
1920.59	25
1921.58	26
1922.58	23
1923.57	25
1924.56	26.5
1925.55	22
1926.54	24.5
1927.53	25
1928.52	27
1929.51	25
1930.51	27.5
1931.5	21.5
1932.49	24
1933.48	22
1934.47	23
1935.46	25
1936.45	27
1937.44	28
1938.42	23.5
1939.41	22
1940.4	23
1941.39	24
1942.38	25
1943.37	25.5
1944.36	25
1945.35	24.5
1946.33	25.5
1947.32	20
1948.31	23.75
1949.3	26
1950.29	23.5
1951.27	23.5
1952.26	26
1953.25	26.5
1954.23	23.5
1955.22	24
1956.21	26
1957.19	20
1958.18	32.5
1959.17	25.5
1960.15	26.5
1961.14	24
1962.13	24
1963.11	25.5
1964.1	27.5
1965.08	25
1966.07	24
1967.05	24
1968.04	26
1969.02	25.5
1970.01	25.5
1970.99	26
1971.97	26
1972.96	27
1973.94	23.5
1974.93	29.5
1975.91	28
1976.89	20
1977.88	26
1978.86	23.5
1979.84	24
1980.83	27
1981.81	23
1982.79	24
1983.77	25
1984.76	24.5
1985.74	23
1986.72	22
1987.7	26.5
1988.68	25.5
1989.67	24.5
1990.65	22.5
1991.63	27.5
1992.61	26
1993.59	22.5
1994.57	25
1995.55	22
1996.53	24.5
1997.51	26
1998.49	19.5
1999.47	21.5
2000.45	23
2001.43	25.5
2002.41	19.5
2003.39	21.5
2004.37	28.5
2005.35	26
2006.33	27
2007.31	25
2008.29	23
2009.26	23
2010.24	24
2011.22	20.5
2012.2	25
2013.18	24.5
2014.15	24
2015.13	19.5
2016.11	27.5
2017.09	20
2018.06	25
2019.04	22
2020.02	24.5
2021	21
2021.97	23
2022.95	25
2023.92	26.5
2024.9	25
2025.88	25.5
2026.85	21
2027.83	24
2028.8	21
2029.78	27
2030.75	24
2031.73	23
2032.7	25.5
2033.68	28
2034.65	27.5
2035.63	24.5
2036.6	24
2037.58	21.5
2038.55	26
2039.52	22.5
2040.5	23.5
2041.47	26
2042.45	24.5
2043.42	21
2044.39	26.5
2045.36	23
2046.34	24.5
2047.31	24
2048.28	23
2049.26	31
2050.23	18
2051.2	25
2052.17	25.5
2053.14	24
2054.12	28.5
2055.09	23
2056.06	25.5
2057.03	25.5
2058	25
2058.97	24
2059.94	20.5
2060.91	24.5
2061.88	24.5
2062.85	21.5
2063.82	26
2064.79	27
2065.76	24.5
2066.73	24
2067.7	22.5
2068.67	25
2069.64	23
2070.61	20.5
2071.58	27.5
2072.55	19
2073.52	23
2074.49	28
2075.45	26.5
2076.42	22.5
2077.39	25.5
2078.36	24
2079.33	23
2080.29	26
2081.26	22.5
2082.23	21
2083.2	25.5
2084.16	23
2085.13	23
2086.1	25
2087.06	24
2088.03	24
2089	25
2089.96	20
2090.93	25.5
2091.89	27
2092.86	27.5
2093.83	22
2094.79	26
2095.76	21.5
2096.72	21.5
2097.69	21.5
2098.65	22
2099.62	24.5
2100.58	26.5
2101.55	27
2102.51	23
2103.47	24
2104.44	24
2105.4	22.5
2106.36	23
2107.33	24.5
2108.29	26.5
2109.25	24
2110.22	24
2111.18	22
2112.14	21
2113.11	24
2114.07	27
2115.03	20
2115.99	24
2116.96	24
2117.92	23.5
2118.88	22.5
2119.84	25
2120.8	25.5
2121.76	23
2122.72	18.5
2123.68	24.5
2124.65	27.5
2125.61	23
2126.57	25
2127.53	24.5
2128.49	21.5
2129.45	20
2130.41	25
2131.37	21
2132.33	26.5
2133.29	21
2134.25	21
2135.21	22.5
2136.17	25
2137.12	22
2138.08	22
2139.04	23
2140	26.5
2140.96	23
2141.92	20.5
2142.88	21.0066
2143.83	24.922
2144.79	24.4512
2145.75	20.7612
2146.71	24.9507
2147.66	20.951
2148.62	23.1246
2149.58	23.8544
2150.53	22.4283
2151.49	22.7472
2152.45	21.8772
2153.4	21.3693
2154.36	20.2427
2155.32	21.7251
2156.27	23.4051
2157.23	21.7149
2158.19	24.0077
2159.14	25.4321
2160.1	21.2227
2161.05	21.8423
2162.01	24.764
2162.96	24.4315
2163.92	20.7161
2164.87	22.1893
2165.83	20.719
2166.78	20.2224
2167.73	22.4547
2168.69	21.4005
2169.64	24.69
2170.6	25.5177
2171.55	23.9718
2172.5	24.7334
2173.46	22.3314
2174.41	23.7457
2175.36	22.5217
2176.32	20.7612
2177.27	23.6154
2178.22	23.6995
2179.18	22.3786
2180.13	23.326
2181.08	25.0507
2182.03	23.3477
2182.98	21.6489
2183.94	24.4442
2184.89	23.9348
2185.84	21.9354
2186.79	20.6837
2187.74	24.5657
2188.69	22.4326
2189.64	22.0181
2190.6	23.9651
2191.55	22.9852
2192.5	21.276
2193.45	22.0388
2194.4	22.5291
2195.35	22.535
2196.3	22.4528
2197.25	23.4404
2198.2	25.0562
2199.15	21.6146
2200.1	23.6643
2201.04	22.7511
2201.99	21.9917
2202.94	23.8539
2203.89	21.5781
2204.84	23.6469
2205.79	23.6143
2206.74	24.2758
2207.69	25.6257
2208.63	21.053
2209.58	23.8623
2210.53	23.7508
2211.48	21.3713
2212.43	21.2864
2213.37	23.8801
2214.32	24.5354
2215.27	23.1477
2216.21	23.7079
2217.16	24.2782
2218.11	23.9744
2219.05	23.9221
2220	20.7649
2220.95	22.5338
2221.89	22.3043
2222.84	23.0049
2223.78	24.0765
2224.73	23.9311
2225.68	22.7659
2226.62	22.8517
2227.57	21.9728
2228.51	23.4991
2229.46	23.0471
2230.4	20.6471
2231.35	22.9942
2232.29	21.6862
2233.24	22.8207
2234.18	22.7225
2235.12	22.3665
2236.07	24.4195
2237.01	22.2751
2237.95	24.5132
2238.9	25.8645
2239.84	21.7905
2240.06	20.5
2241.01	23.5
2241.96	24
2242.91	24
2243.86	24
2244.8	23
2245.75	24.5
2246.7	22.5
2247.65	23
2248.59	21
2249.54	24
2250.49	20.5
2251.43	25.5
2252.38	24
2253.33	22.5
2254.27	24
2255.22	23.5
2256.16	21
2257.11	20
2258.06	22
2259	24
2259.95	21
2260.89	22
2261.84	25.5
2262.78	24
2263.73	23
2264.67	22.5
2265.62	24
2266.56	24
2267.5	28.5
2268.45	26.5
2269.39	22
2270.34	23.5
2271.28	25.5
2272.22	21.5
2273.17	21.5
2274.11	23
2275.05	19.5
2276	24
2276.94	23.5
2277.88	24
2278.82	21.5
2279.77	20
2280.71	23
2281.65	22
2282.59	24
2283.53	22
2284.48	25
2285.42	25
2286.36	24
2287.3	26.5
2288.24	26
2289.18	23
2290.12	23
2291.06	24
2292	22.5
2292.94	25
2293.89	23
2294.83	23.5
2295.77	25
2296.71	23
2297.65	25
2298.58	24
2299.52	23.5
2300.46	24
2301.4	21
2302.34	24
2303.28	22
2304.22	25.5
2305.16	19
2306.1	23.5
2307.03	23.5
2307.97	20
2308.91	23
2309.85	25
2310.79	21.5
2311.72	25.5
2312.66	21
2313.6	24.5
2314.54	23
2315.47	22.5
2316.41	20.5
2317.35	21
2318.28	18.5
2319.22	27
2320.16	20
2321.09	26.5
2322.03	25
2322.96	23.5
2323.9	21
2324.84	24.5
2325.77	25.5
2326.71	26
2327.64	21
2328.58	25.5
2329.51	22
2330.45	22.5
2331.38	23.5
2332.32	23.5
2333.25	21
2334.18	28
2335.12	23.5
2336.05	22.5
2336.99	27.5
2337.92	24
2338.85	24
2339.79	23.5
2340.72	22
2341.65	26
2342.59	22
2343.52	24
2344.45	27
2345.39	23
2346.32	27
2347.25	25
2348.18	24.5
2349.11	26.5
2350.05	23.5
2350.98	23
2351.91	22
2352.84	23
2353.77	22
2354.7	21
2355.64	26.5
2356.57	24
2357.5	21
2358.43	21
2359.36	22
2360.29	22
2361.22	25.5
2362.15	25.5
2363.08	24.5
2364.01	24
2364.94	23.5
2365.87	22.5
2366.8	23
2367.73	22.5
2368.66	22.5
2369.58	25
2370.51	23.5
2371.44	22
2372.37	23.5
2373.3	25.5
2374.23	24.5
2375.16	20.5
2376.08	27.5
2377.01	25.5
2377.94	22.5
2378.87	27.5
2379.8	23
2380.72	22.5
2381.65	22
2382.58	22.5
2383.5	22.5
2384.43	24.5
2385.36	24
2386.28	26.5
2387.21	23
2388.14	22
2389.06	25.5
2389.99	24
2390.91	22
2391.84	25
2392.77	26
2393.69	22.5
2394.62	24
2395.54	25.5
2396.47	26
2397.39	24
2398.32	22
2399.24	28.5
2400.16	24
2401.09	19
2402.01	26.5
2402.94	23.5
2403.86	25.5
2404.78	22
2405.71	20
2406.63	21.5
2407.56	24
2408.48	22
2409.4	22
2410.32	21.5
2411.25	24.5
2412.17	23
2413.09	24
2414.02	25
2414.94	22
2415.86	24
2416.78	25.5
2417.7	24.5
2418.63	24.5
2419.55	19
2420.47	21
2421.39	20
2422.31	29
2423.23	22
2424.15	25
2425.07	23
2425.99	23
2426.92	21.5
2427.84	24
2428.76	21.5
2429.68	20
2430.59	22
2431.51	26
2432.43	27
2433.35	24
2434.27	26.5
2435.19	24
2436.11	23
2437.03	24
2437.95	22.5
2438.87	24
2439.79	24
2440.71	23
2441.62	22.5
2442.54	23.5
2443.46	23
2444.38	24
2445.3	25
2446.21	25
2447.13	21.5
2448.05	21.5
2448.97	24
2449.88	24
2450.8	23
2451.72	21
2452.63	26
2453.55	23
2454.47	26.5
2455.38	25
2456.3	21.5
2457.21	23.5
2458.13	24.5
2459.05	25
2459.96	23
2460.88	23
2461.79	24.5
2462.71	26.5
2463.62	24.5
2464.54	27.5
2465.45	25
2466.37	24.5
2467.28	25
2468.2	26.5
2469.11	24.5
2470.02	26
2470.94	26
2471.85	21
2472.77	24.5
2473.68	20
2474.59	25.5
2475.51	20.5
2476.42	20
2477.33	26.5
2478.25	23
2479.16	24
2480.07	24
2480.98	26
2481.9	22
2482.81	26.5
2483.72	20.5
2484.63	25
2485.55	22
2486.46	22
2487.37	22
2488.28	29.5
2489.19	22
2490.1	24
2491.01	22
2491.92	28.5
2492.83	22.5
2493.74	24
2494.66	23
2495.57	23.5
2496.48	25
2497.39	26.5
2498.3	25
2499.21	25
2500.12	26.5
2501.03	25
2501.93	23.5
2502.84	26
2503.75	27.5
2504.66	23
2505.57	23
2506.48	25.5
2507.39	24
2508.3	26
2509.21	27
2510.11	22
2511.02	25.5
2511.93	23.5
2512.84	27
2513.75	23
2514.65	25.5
2515.56	24
2516.47	26.5
2517.37	22
2518.28	21.5
2519.19	25.5
2520.09	21
2521	24
2521.91	26
2522.81	21
2523.72	21.5
2524.63	24
2525.53	26.5
2526.44	22.5
2527.34	22.5
2528.25	27
2529.16	18
2530.06	24.5
2530.97	24
2531.87	22
2532.78	21
2533.68	23
2534.58	24.5
2535.49	21
2536.39	21
2537.3	26.5
2538.2	23
2539.11	25
2540.01	21
2540.91	21.5
2541.82	25
2542.72	27.5
2543.62	20
2544.53	24
2545.43	26.5
2546.33	25
2547.23	26
2548.14	23.5
2549.04	23
2549.94	23
2550.84	23.5
2551.75	24
2552.65	27.5
2553.55	25
2554.45	28
2555.35	22.5
2556.26	23.5
2557.16	24
2558.06	24.5
2558.96	22.5
2559.86	28.5
2560.76	23
2561.66	25
2562.56	27.5
2563.46	25.5
2564.36	23.5
2565.26	30
2566.16	22
2567.06	24
2567.96	23
2568.86	25
2569.76	28.5
2570.66	26.5
2571.56	20
2572.46	25.5
2573.36	23
2574.26	20
2575.16	24
2576.05	23.5
2576.95	22
2577.85	24
2578.75	21
2579.65	25
2580.54	25.5
2581.44	24
2582.34	25.5
2583.24	26
2584.13	24
2585.03	23
2585.93	28
2586.83	23
2587.72	24.5
2588.62	23
2589.52	24.5
2590.41	26
2591.31	26
2592.2	23.5
2593.1	25
2594	25
2594.89	25
2595.79	22
2596.68	24.5
2597.58	25.5
2598.47	24.5
2599.37	20.5
2600.26	25.5
2601.16	21.5
2602.05	22
2602.95	23
2603.84	21
2604.74	27.5
2605.63	29
2606.52	25
2607.42	23.5
2608.31	23
2609.21	25.5
2610.1	28
2610.99	28
2611.89	27
2612.78	24.5
2613.67	27.5
2614.56	23.5
2615.46	24
2616.35	28
2617.24	29
2618.13	25
2619.03	22
2619.92	23
2620.81	25
2621.7	27.5
2622.59	27
2623.49	23.5
2624.38	25
2625.27	24
2626.16	26.5
2627.05	23.5
2627.94	24
2628.83	24.5
2629.72	23.5
2630.61	22.5
2631.5	26.5
2632.39	21
2633.28	25.5
2634.17	28.5
2635.06	21
2635.95	27.5
2636.84	21.5
2637.73	21
2638.62	25
2639.51	22
2640.4	26.5
2641.29	24.5
2642.18	22
2643.07	22.5
2643.96	24.5
2644.84	23
2645.73	23
2646.62	28.5
2647.51	24.5
2648.4	27.5
2649.28	25
2650.17	24.5
2651.06	26
2651.95	25.5
2652.83	23.5
2653.72	26
2654.61	23
2655.49	27.5
2656.38	22
2657.27	23.5
2658.16	23
2659.04	23.5
2659.93	27
2660.81	25
2661.7	23.5
2662.59	25.5
2663.47	26
2664.36	25
2665.24	25
2666.13	24.5
2667.01	29
2667.9	23
2668.78	30
2669.67	23
2670.55	22
2671.44	27
2672.32	23.5
2673.21	25.5
2674.09	23.5
2674.97	21
2675.86	27.5
2676.74	23.5
2677.62	26
2678.51	27
2679.39	25.5
2680.27	23
2681.16	25
2682.04	23.5
2682.92	24.5
2683.81	27.5
2684.69	24.5
2685.57	26
2686.45	24
2687.34	22
2688.22	22
2689.1	24
2689.98	25.5
2690.86	25.5
2691.75	27.5
2692.63	28.5
2693.51	20
2694.39	24.5
2695.27	25.5
2696.15	21.5
2697.03	24.5
2697.91	24
2698.79	24
2699.67	26
2700.55	26
2701.43	23.5
2702.31	23
2703.19	26
2704.07	19.5
2704.95	27
2705.83	23
2706.71	22.5
2707.59	23.5
2708.47	23
2709.35	24.5
2710.23	27
2711.11	21.5
2711.99	24
2712.86	22
2713.74	22
2714.62	27
2715.5	23
2716.38	18
2717.26	20.5
2718.13	25.5
2719.01	25.5
2719.89	26
2720.77	26.5
2721.64	26.5
2722.52	21.5
2723.4	25.5
2724.27	22
2725.15	26.5
2726.03	24.5
2726.9	23
2727.78	23.5
2728.66	25
2729.53	20.5
2730.41	25.5
2731.28	27
2732.16	22.5
2733.03	24
2733.91	25
2734.79	26.5
2735.66	20.5
2736.54	23.5
2737.41	24.5
2738.29	24
2739.16	24
2740.03	28.5
2740.91	26
2741.78	23.5
2742.66	22.5
2743.53	26
2744.41	24
2745.28	23
2746.15	25
2747.03	25.5
2747.9	28
2748.77	22
2749.65	26
2750.52	25
2751.39	21.5
2752.27	25.5
2753.14	19.5
2754.01	27
2754.88	24.5
2755.75	26.5
2756.63	22
2757.5	23
2758.37	24
2759.24	26.5
2760.11	24.5
2760.99	23.5
2761.86	26
2762.73	23
2763.6	25.5
2764.47	25.5
2765.34	26
2766.21	23
2767.08	21
2767.95	20.5
2768.82	24.5
2769.69	26
2770.56	26
2771.43	25
2772.3	26
2773.17	27
2774.04	26.5
2774.91	24
2775.78	23.5
2776.65	23
2777.52	26
2778.39	23
2779.26	24.5
2780.13	21.5
2780.99	29
2781.86	27
2782.73	25.5
2783.6	27
2784.47	24.5
2785.34	25
2786.2	26
2787.07	23
2787.94	25.5
2788.81	21.5
2789.67	27
2790.54	25.5
2791.41	28.5
2792.27	26
2793.14	25
2794.01	28
2794.87	27.5
2795.74	28
2796.61	26
2797.47	25
2798.34	24.5
2799.21	25.5
2800.07	23
2800.94	25.5
2801.8	26
2802.67	25.5
2803.53	24.5
2804.4	28
2805.26	26.5
2806.13	24
2806.99	27
2807.86	26
2808.72	24
2809.59	26
2810.45	24
2811.32	29
2812.18	23
2813.04	26.5
2813.91	26.5
2814.77	24
2815.64	27.5
2816.5	27
2817.36	26.5
2818.22	25
2819.09	22.5
2819.95	26
2820.81	27.5
2821.68	25.5
2822.54	28.5
2823.4	22.5
2824.26	26.5
2825.13	24.5
2825.99	26
2826.85	28
2827.71	28.5
2828.57	26
2829.44	25
2830.3	28
2831.16	20
2832.02	27.5
2832.88	27.5
2833.74	25
2834.6	23.5
2835.46	25
2836.32	26
2837.18	26.5
2838.04	25
2838.9	27
2839.76	23
2840.62	26.5
2841.48	26.5
2842.34	25.5
2843.2	28.5
2844.06	29.5
2844.92	25
2845.78	23
2846.64	28.5
2847.5	27
2848.36	22.5
2849.22	26.5
2850.08	26
2850.93	24.5
2851.79	25.5
2852.65	26
2853.51	22.5
2854.37	21
2855.22	22
2856.08	26
2856.94	28
2857.8	25
2858.65	29
2859.51	21.5
2860.37	25
2861.23	25.5
2862.08	24.5
2862.94	25
2863.79	25.5
2864.65	25.5
2865.51	27
2866.36	25.5
2867.22	28.5
2868.08	24
2868.93	24
2869.79	26
2870.64	30
2871.5	29.5
2872.35	25
2873.21	27.5
2874.06	25.5
2874.92	30
2875.77	30
2876.63	29
2877.48	29.5
2878.34	29
2879.19	28.5
2880.05	37
2880.9	32.5
2881.76	32
2882.61	29.5
2883.46	29
2884.32	34
2885.17	31.5
2886.02	31
2886.88	30
2887.73	34
2888.58	33.5
2889.44	40
2890.29	38.5
2891.14	39.5
2891.99	38.5
2892.85	39
2893.7	44
2894.55	39.5
2895.4	47.5
2896.25	50.5
2897.11	50.5
2897.96	51
2898.81	56
2899.66	56
2900.51	60.5
2901.36	60
2902.21	61
2903.07	69
2903.92	65
2904.77	67.5
2905.62	70
2906.47	67
2907.32	66.5
2908.17	75.5
2909.02	66
2909.87	69.5
2910.72	68
2911.57	63
2912.42	60
2913.27	51
2914.12	47.5
2914.97	49
2915.81	42
2916.66	42.5
2917.51	41
2918.36	37
2919.21	37.5
2920.06	42.5
2920.91	38.5
2921.75	35.5
2922.6	30.5
2923.45	35
2924.3	34.5
2925.15	35
2925.99	36
2926.84	28
2927.69	32
2928.54	23.5
2929.38	32
2930.23	26.5
2931.08	29.5
2931.92	22.5
2932.77	27
2933.62	27.5
2934.46	28.5
2935.31	32
2936.16	28
2937	29
2937.85	22
2938.69	29.5
2939.54	28.5
2940.38	27.5
2941.23	27.5
2942.08	26
2942.92	27
2943.77	31.5
2944.61	30
2945.46	30
2946.3	26.5
2947.15	25
2947.99	27
2948.83	30.5
2949.68	27
2950.52	29
2951.37	34
2952.21	34.5
2953.05	31.5
2953.9	33.5
2954.74	35
2955.58	36
2956.43	35
2957.27	36
2958.11	34.5
2958.96	35.5
2959.8	40
2960.64	39
2961.48	39
2962.33	44.5
2963.17	45
2964.01	43.5
2964.85	40
2965.69	46.5
2966.54	43
2967.38	39
2968.22	36
2969.06	42.5
2969.9	43
2970.74	41.5
2971.58	38.5024
2972.43	39.8775
2973.27	35.9681
2974.11	36.5424
2974.95	35.4701
2975.79	34.8767
2976.63	34.1752
2977.47	34.791
2978.31	30.555
2979.15	28.6491
2979.99	31.3023
2980.83	29.4512
2981.67	26.3114
2982.51	27.8395
2983.35	27.171
2984.19	26.9691
2985.03	28.5871
2985.86	26.5811
2986.7	26.9102
2987.54	27.3107
2988.38	26.8791
2989.22	26.1413
2990.06	28.839
2990.9	22.478
2991.73	24.7621
2992.57	22.8714
2993.41	25.2811
2994.25	23.1557
2995.09	25.4353
2995.92	23.8542
2996.76	26.7754
2997.6	25.6989
2998.44	26.0375
2999.27	27.2581
3000.11	25.6606
3000.95	23.983
3001.78	26.0969
3002.62	23.5379
3003.46	22.4747
3004.29	23.6165
3005.13	25.7306
3005.96	27.1478
3006.8	25.5626
3007.64	22.4764
3008.47	20.8641
3009.31	23.5487
3010.14	23.8602
3010.98	22.1588
3011.81	21.8698
3012.65	22.2003
3013.48	22.7743
3014.32	24.7417
3015.15	22.7627
3015.99	23.9746
3016.82	20.1232
3017.66	21.071
3018.49	22.4051
3019.33	23.6743
3020.16	24.523
3020.99	20.8447
3021.83	21.8039
3022.66	24.2002
3023.5	24.2392
3024.33	21.6821
3025.16	21.4879
3026	24.1399
3026.83	22.9598
3027.66	22.8513
3028.49	22.2607
3029.33	22.4179
3030.16	22.1044
3030.99	20.8502
3031.83	22.5408
3032.66	20.1229
3033.49	21.218
3034.32	20.5273
3035.15	21.6952
3035.99	24.5878
3036.82	22.7282
3037.65	21.9246
3038.48	22.0433
3039.31	21.7652
3040.14	22.3177
3040.97	21.208
3041.81	21.1428
3042.64	21.895
3043.47	22.7837
3044.3	22.302
3045.13	23.7493
3045.96	23.4223
3046.79	23.9573
3047.62	24.0534
3048.45	22.224
3049.28	20.7829
3050.11	22.1333
3050.94	21.4141
3051.77	21.1038
3052.6	20.5485
3053.43	22.0114
3054.26	23.1141
3055.08	23.8336
3055.91	25.544
3056.74	24.4205
3057.26	23.5
3058.09	26.5
3058.92	22
3059.76	25
3060.59	24.5
3061.42	21
3062.25	22.5
3063.09	23
3063.92	23.5
3064.75	24
3065.58	23.5
3066.42	21.5
3067.25	19.5
3068.08	22.5
3068.91	25
3069.74	21
3070.57	23
3071.41	23
3072.24	17
3073.07	26
3073.9	26.5
3074.73	23
3075.56	22
3076.39	23.5
3077.22	23.5
3078.05	22
3078.88	23.5
3079.71	25.5
3080.54	26
3081.37	24
3082.2	21.5
3083.03	26
3083.86	25.5
3084.69	24
3085.52	22.5
3086.35	21
3087.18	19
3088.01	22.5
3088.84	23
3089.67	21
3090.5	23
3091.32	24
3092.15	23.5
3092.98	25
3093.81	23.5
3094.64	22
3095.47	23.5
3096.29	25
3097.12	21
3097.95	23.5
3098.78	23.5
3099.6	22.5
3100.43	23
3101.26	23.5
3102.09	23
3102.91	20
3103.74	18.5
3104.57	21.5
3105.39	23.5
3106.22	22
3107.05	28.5
3107.87	22.5
3108.7	19
3109.52	22.5
3110.35	22
3111.18	23
3112	26
3112.83	23.5
3113.65	24
3114.48	25.5
3115.3	25
3116.13	20
3116.95	24.5
3117.78	23
3118.6	20.5
3119.43	26
3120.25	24.5
3121.08	24
3121.9	22.5
3122.72	22
3123.55	21.5
3124.37	23.5
3125.2	18
3126.02	24
3126.84	23.5
3127.67	21.5
3128.49	22.5
3129.31	24.5
3130.14	23
3130.96	23
3131.78	22.5
3132.61	24
3133.43	27
3134.25	21
3135.07	22.5
3135.89	21
3136.72	26
3137.54	20
3138.36	25
3139.18	22
3140	28.5
3140.83	26
3141.65	25
3142.47	21
3143.29	26.5
3144.11	21
3144.93	23
3145.75	26.5
3146.57	22
3147.4	21.5
3148.22	24
3149.04	25
3149.86	20
3150.68	21
3151.5	24
3152.32	19
3153.14	24.5
3153.96	24
3154.78	25.5
3155.59	24.5
3156.42	18
3157.23	19
3158.05	24
3158.87	21
3159.69	23
3160.51	22
3161.33	24.5
3162.15	23.5
3162.97	23.5
3163.78	22
3164.6	24
3165.42	24
3166.24	21.5
3167.06	23
3167.87	22
3168.69	22
3169.51	22
3170.33	26
3171.14	16
3171.96	22.5
3172.78	24
3173.6	23
3174.41	25
3175.23	24
3176.05	24.5
3176.86	25
3177.68	20.5
3178.5	25
3179.31	22
3180.13	24.5
3180.94	24
3181.76	24.5
3182.58	20.5
3183.39	23.5
3184.21	21.5
3185.02	24.5
3185.84	22.5
3186.65	20
3187.47	23.5
3188.28	23
3189.1	18
3189.91	21.5
3190.73	22.5
3191.54	23
3192.36	21
3193.17	26.5
3193.98	22.5
3194.8	26
3195.61	25
3196.43	26
3197.24	23.5
3198.05	22
3198.87	25.5
3199.68	25.5
3200.49	24
3201.31	20
3202.12	28
3202.93	26.5
3203.75	22.5
3204.56	24
3205.37	23.5
3206.18	23.5
3207	19.5
3207.81	23
3208.62	24.5
3209.43	23
3210.24	20.5
3211.06	26
3211.87	24.5
3212.68	23.5
3213.49	21.5
3214.3	23
3215.11	20
3215.92	25
3216.73	26.5
3217.55	22.5
3218.36	23
3219.17	21
3219.98	21
3220.79	26.5
3221.6	22.5
3222.41	26
3223.22	20.5
3224.03	21.5
3224.84	23
3225.65	22
3226.46	22
3227.27	30
3228.08	20
3228.89	22
3229.7	19.5
3230.5	23.5
3231.31	23.5
3232.12	22
3232.93	21.5
3233.74	23.5
3234.55	23.5
3235.36	24.5
3236.16	23
3236.97	22
3237.78	27
3238.59	20
3239.4	24
3240.2	23
3241.01	27
3241.82	27
3242.63	20
3243.43	23.5
3244.24	23
3245.05	19
3245.85	24
3246.66	21.5
3247.47	22
3248.27	22.5
3249.08	23.5
3249.89	24
3250.69	25
3251.5	20.5
3252.31	24
3253.11	23.5
3253.92	25.5
3254.72	24
3255.53	20.5
3256.33	24.5
3257.14	24.5
3257.94	26.5
3258.75	23.5
3259.55	21.5
3260.36	22.5
3261.16	25
3261.97	21
3262.77	21
3263.58	21
3264.38	21
3265.19	24.5
3265.99	22
3266.79	23
3267.6	23
3268.4	23
3269.21	21.5
3270.01	21.5
3270.81	24.5
3271.62	24
3272.42	20.5
3273.22	21
3274.03	25
3274.83	22.5
3275.63	24
3276.43	21.5
3277.24	21.5
3278.04	23.5
3278.84	27
3279.64	24
3280.45	26
3281.25	22
3282.05	25
3282.85	23
3283.65	26.5
3284.45	20
3285.26	23
3286.06	23.5
3286.86	25
3287.66	21.5
3288.46	26
3289.26	23
3290.06	19
3290.86	25
3291.66	25.5
3292.46	23.5
3293.26	21.5
3294.06	24.5
3294.86	20
3295.66	24.5
3296.46	24
3297.26	23.5
3298.06	26.5
3298.86	23.5
3299.66	18
3300.46	25
3301.26	25
3302.06	20
3302.86	24
3303.66	25
3304.46	23.5
3305.25	24
3306.05	23
3306.85	22
3307.65	20.5
3308.45	22.5
3309.25	22
3310.04	24
3310.84	23
3311.64	25
3312.44	21.5
3313.23	22
3314.03	28
3314.83	22.5
3315.63	26
3316.42	25
3317.22	28.5
3318.02	24
3318.81	24
3319.61	21
3320.41	21
3321.2	24
3322	24.5
3322.8	21
3323.59	22
3324.39	23
3325.18	23
3325.98	22.5
3326.78	23
3327.57	25.5
3328.37	26
3329.16	24
3329.96	25
3330.75	25.5
3331.55	24
3332.34	24
3333.14	21.5
3333.93	24.5
3334.73	23.5
3335.52	23
3336.31	23.5
3337.11	26
3337.9	21.5
3338.7	25
3339.49	21
3340.28	23
3341.08	23
3341.87	22.5
3342.66	26.5
3343.46	22.5
3344.25	22.5
3345.04	24.5
3345.84	28.5
3346.63	23.5
3347.42	24.5
3348.22	25
3349.01	27
3349.8	22
3350.59	23.5
3351.39	23.5
3352.18	20.5
3352.97	25
3353.76	23.5
3354.55	23.5
3355.35	22.5
3356.14	23
3356.93	24.5
3357.72	28
3358.51	18
3359.3	27
3360.09	22.5
3360.88	22.5
3361.67	21
3362.46	22
3363.26	26
3364.05	25.5
3364.84	22.5
3365.63	26.5
3366.42	23.5
3367.21	21.5
3368	28
3368.79	22.5
3369.58	23.5
3370.37	23.5
3371.15	21.5
3371.94	22.5
3372.73	25.5
3373.52	25
3374.31	24.5
3375.1	24.5
3375.89	26
3376.68	21
3377.47	24
3378.26	26.5
3379.04	21.5
3379.83	23
3380.62	23.5
3381.41	19.5
3382.2	25
3382.98	25.5
3383.77	24
3384.56	23.5
3385.35	23
3386.13	23
3386.92	25
3387.71	22.5
3388.5	21.5
3389.28	23.5
3390.07	21
3390.86	22
3391.64	24.5
3392.43	20
3393.22	24
3394	21.5
3394.79	26.5
3395.57	26.5
3396.36	22.5
3397.15	25
3397.93	19
3398.72	23
3399.5	19
3400.29	17
3401.07	24
3401.86	24.5
3402.65	24
3403.43	22
3404.21	24
3405	25
3405.78	24.5
3406.57	24.5
3407.35	23
3408.14	20.5
3408.92	19.5
3409.71	22.5
3410.49	24.5
3411.27	19
3412.06	27.5
3412.84	22.5
3413.62	22
3414.41	16
3415.19	25
3415.97	26
3416.76	24
3417.54	22
3418.32	22
3419.11	22
3419.89	21.5
3420.67	23
3421.46	26
3422.24	25
3423.02	23.5
3423.8	24
3424.58	27.5
3425.37	26
3426.15	22
3426.93	21
3427.71	22
3428.49	20
3429.27	26
3430.05	23.5
3430.84	26
3431.62	26.5
3432.4	27
3433.18	24.5
3433.96	21.5
3434.74	24.5
3435.52	22.5
3436.3	24
3437.08	24.5
3437.86	21.5
3438.64	23.5
3439.42	25.5
3440.2	26
3440.98	22.5
3441.76	22
3442.54	24
3443.32	20
3444.1	24
3444.88	28.5
3445.66	24.5
3446.44	23
3447.22	22
3448	21
3448.77	23
3449.55	26
3450.33	23
3451.11	23.5
3451.89	26
3452.67	22.5
3453.45	26.5
3454.22	25
3455	23.5
3455.78	22
3456.56	23.5
3457.33	24.5
3458.11	21.5
3458.89	25
3459.67	26
3460.44	21
3461.22	22
3462	24.5
3462.77	22.5
3463.55	22
3464.33	27
3465.1	22
3465.88	22.5
3466.66	20.5
3467.43	26
3468.21	26
3468.98	23.5
3469.76	18
3470.54	22.5
3471.31	26
3472.09	23.5
3472.86	23
3473.64	20
3474.41	25.5
3475.19	26
3475.96	21
3476.74	25
3477.51	22
3478.29	24
3479.06	26.5
3479.84	23
3480.61	22.5
3481.39	21.5
3482.16	22
3482.93	26
3483.71	26.5
3484.48	22.5
3485.25	24.5
3486.03	24
3486.8	25
3487.57	25.5
3488.35	22.5
3489.12	22.5
3489.89	26
3490.67	23.5
3491.44	24
3492.21	25.5
3492.99	23.5
3493.76	22.5
3494.53	25.5
3495.3	24
3496.08	22.5
3496.85	22.5
3497.62	24
3498.39	25
3499.16	23.5
3499.93	25
