#Acq. time (s)=	5
#Accumulations=	5
#Range (cm-¹)=	100...3500
#Windows=	4
#Autofocus=	Off
#AutoExposure=	Off
#Spike filter=	Multiple accum.
#Delay time (s)=	0
#Binning=	1
#Readout mode=	Signal
#DeNoise=	Off
#ICS correction=	Off
#Dark correction=	Off
#Inst. Process=	Off
#Instrument=	LabRAM HR Evol
#Detector=	Syncerity OE
#Objective=	x100_VIS
#Grating=	600 (500nm)
#ND Filter=	25%
#Laser=	633nm_Edge
#Hole=	100.021
#Range=	Visible
#Project=	verificaciones
#Sample=	at1
#Site=	lined
#Title=	bolusat1lined
#Remark=	
#Date=	13.01.2026 13:42
#Acquired=	13.01.2026 13:42:06
100.692	30
101.975	34
103.258	33
104.542	31.5
105.824	36.5
107.107	32
108.39	31
109.672	30.5
110.954	30
112.236	31.5
113.519	30
114.8	36
116.081	29
117.362	31
118.643	34.5
119.924	34
121.204	31
122.484	31
123.764	38.5
125.044	29
126.323	33
127.603	33
128.882	32.5
130.161	29.5
131.438	33
132.716	38
133.995	36.5
135.273	38.5
136.55	33.5
137.828	35
139.106	32
140.383	37
141.66	37
142.937	36
144.213	37.5
145.488	36
146.764	37.5
148.04	39
149.316	38
150.592	39
151.867	35.5
153.141	36.5
154.416	38
155.69	36
156.965	42
158.239	37
159.512	45
160.786	39.5
162.059	38
163.333	36
164.605	43
165.878	34.5
167.15	39.5
168.423	45
169.694	40
170.966	37
172.238	40.5
173.51	39
174.78	42
176.052	33
177.323	37.5
178.592	40
179.863	39.5
181.134	40
182.403	40
183.673	41
184.943	41.5
186.211	38.5
187.481	40.5
188.749	35.5
190.018	41
191.287	41
192.554	41
193.822	38.5
195.089	42.5
196.357	33.5
197.625	40
198.891	39.5
200.159	38.5
201.425	34.5
202.692	33.5
203.957	40.5
205.224	39.5
206.489	31
207.755	34
209.02	37.5
210.286	35
211.55	31
212.815	33.5
214.079	37.5
215.344	33
216.607	32
217.872	36
219.135	35.5
220.399	34.5
221.662	35.5
222.924	34.5
224.187	40
225.449	34
226.713	38
227.974	34
229.235	32
230.498	28.5
231.759	32.5
233.019	35.5
234.281	28
235.542	31
236.802	29.5
238.063	36.5
239.323	31
240.582	31
241.843	27.5
243.102	26
244.361	30.5
245.621	33.5
246.879	30
248.138	29.5
249.396	31.5
250.655	28.5
251.913	31
253.17	31
254.427	26
255.686	31
256.943	28
258.199	26.5
259.456	31.5
260.712	29.5
261.969	32
263.225	29.5
264.481	33
265.736	29
266.991	32
268.246	31
269.502	31
270.757	31
272.011	30.5
273.265	27
274.519	31
275.773	30
277.027	27
278.28	30
279.533	31
280.786	32.5
282.04	26
283.293	28.5
284.545	31
285.798	29.5
287.049	31
288.301	27
289.553	32.5
290.804	30
292.055	34
293.306	30.5
294.557	28.5
295.807	32.5
297.058	32
298.308	28
299.558	28
300.808	29
302.057	26
303.305	31
304.554	30
305.803	31
307.052	29
308.3	31
309.549	32
310.797	31
312.045	31
313.292	26.5
314.54	25.5
315.786	29.5
317.033	27
318.28	30.5
319.526	33
320.773	32
322.019	25
323.264	32
324.51	25
325.755	30.5
327.001	28
328.246	31.5
329.49	28
330.735	33
331.979	31
333.224	33
334.467	29.5
335.711	28
336.955	29.5
338.199	26.5
339.441	29.5
340.684	32.5
341.927	30
343.168	30
344.411	28.5
345.654	29
346.895	26.5
348.137	29.5
349.379	28.5
350.619	28.5
351.86	29.5
353.102	31.5
354.341	31
355.582	32
356.821	28.5
358.062	29.5
359.302	33.5
360.541	31
361.781	32
363.019	27.5
364.259	31
365.496	29
366.736	31
367.974	27
369.212	32
370.45	27
371.687	33.5
372.925	26
374.162	35
375.399	33
376.635	28
377.873	29
379.109	27.5
380.344	31
381.581	29
382.816	28.5
384.052	27
385.287	32
386.523	29.5
387.757	27
388.991	28
390.227	26.5
391.46	28.5
392.695	27.5
393.928	33.5
395.162	26.5
396.396	29.5
397.629	31.5
398.861	28
400.095	27
401.327	31.5
402.559	29
403.792	29
405.024	29
406.255	29.5
407.488	30.5
408.719	30.5
409.949	27
411.18	30.5
412.412	25.5
413.642	32
414.872	29
416.102	31.5
417.333	34
418.562	30
419.791	29
421.02	27.5
422.249	28.5
423.479	30
424.707	27.5
425.935	25
427.163	29
428.391	34
429.619	32
430.848	30.5
432.075	27.5
433.302	32
434.529	30.5
435.755	29
436.982	32.5
438.208	26
439.434	28
440.66	31.5
441.885	32
443.111	27.5
444.338	32.5
445.563	30
446.788	29.5
448.012	33.5
449.237	31.5
450.461	28.5
451.685	30
452.909	31
454.133	31
455.356	29.5
456.579	33
457.802	33.5
459.025	31
460.247	34.5
461.469	29
462.691	32.5
463.914	32.5
465.136	31
466.357	33.5
467.579	34.5
468.8	35.5
470.021	36.5
471.242	33
472.462	36.5
473.682	33.5
474.903	40
476.123	39.5
477.343	39
478.563	37.5
479.782	42
481	46
482.219	45
483.438	49
484.657	55
485.874	54.5
487.093	54
488.311	61
489.529	61.5
490.747	56.5
491.963	53
493.181	51.5
494.398	48
495.614	48
496.83	46.5
498.047	43.5
499.264	42
500.479	45.5
501.695	40.5
502.911	42.5
504.125	43
505.34	42
506.554	38
507.769	38
508.984	36.5
510.198	33
511.412	32.5
512.627	32
513.839	31
515.053	35
516.266	35
517.479	33.5
518.691	31
519.905	32
521.118	36
522.329	36
523.542	32
524.753	36
525.965	31.5
527.176	37
528.388	35
529.598	33
530.809	31
532.019	31
533.23	34
534.44	30.5
535.649	31.5
536.86	30.5
538.068	33
539.279	29
540.487	33.5
541.697	32.5
542.905	34
544.113	29
545.322	34
546.53	28.5
547.737	33.5
548.946	25.5
550.153	28.5
551.361	28.5
552.568	28.5
553.774	31
554.982	30.5
556.188	32.5
557.394	32
558.599	31.5
559.806	30.5
561.012	28.5
562.217	27
563.423	27
564.628	29
565.832	31.5
567.036	32.5
568.241	33.5
569.446	28.5
570.65	30
571.853	26
573.057	27
574.26	32
575.464	32.5
576.667	32.5
577.87	29
579.072	31.5
580.274	28
581.477	27.5
582.68	30
583.881	30.5
585.083	26
586.284	30
587.485	27.5
588.686	31
589.887	29
591.087	30
592.288	29.5
593.488	30.5
594.688	27.5
595.888	32
597.087	29.5
598.287	28.5
599.486	31.5
600.685	30.5
601.884	31
603.082	30
604.281	28.5
605.479	27
606.677	31.5
607.875	26
609.073	30
610.27	26.5
611.468	28.5
612.665	26
613.862	29.5
615.058	29
616.255	27.5
617.451	29.5
618.648	27.5
619.842	31.5
621.038	28
622.234	32.5
623.429	32
624.624	27
625.819	32.5
627.013	27.5
628.207	32.5
629.402	31.5
630.596	28.5
631.79	24.5
632.983	33
634.177	35
635.37	33
636.564	32
637.755	29.5
638.948	31.5
640.141	32
641.334	33.5
642.525	29.5
643.717	29.5
644.909	25.5
646.099	30
647.291	33
648.483	28
649.674	27
650.864	29
652.055	29
653.244	30
654.435	30
655.625	27.5
656.814	26
658.004	30
659.193	32
660.382	29.5
661.571	30
662.759	30.5
663.948	29
665.135	32
666.324	35
667.511	32.5
668.7	29.5
669.886	36
671.074	29.5
672.262	30.5
673.448	34.5
674.634	30.5
675.821	31
677.007	35.5
678.194	33
679.379	30
680.565	33
681.75	37
682.936	38
684.121	34.5
685.305	32
686.491	36.5
687.675	38
688.86	30.5
690.043	34
691.227	39.5
692.411	37
693.594	35
694.777	36
695.961	34
697.144	32
698.326	38
699.509	36
700.691	37.5
701.873	41
703.056	39.5
704.237	44
705.419	44.5
706.599	47
707.782	49
708.962	53
710.143	46
711.323	46.5
712.504	40.5
713.684	44.5
714.864	34
716.043	34.5
717.223	34.5
718.403	34.5
719.582	35
720.761	32.5
721.94	32.5
723.118	33
724.296	30.5
725.474	25
726.652	29
727.831	33.5
729.009	28
730.186	27
731.363	30.5
732.54	30.5
733.717	31
734.893	31
736.07	26
737.246	29
738.422	34.5
739.598	29.5
740.773	33.5
741.949	30.5
743.124	33.5
744.299	27.5
745.474	31
746.649	32
747.823	31
748.997	30
750.172	30
751.346	25
752.519	27.5
753.693	32.5
754.867	31
756.038	28.5
757.211	29
758.384	29
759.557	25
760.73	28.5
761.902	27
763.074	25
764.246	35
765.417	33
766.588	28
767.76	30
768.931	30.5
770.102	31.5
771.271	30.5
772.442	29
773.613	30.5
774.783	31
775.952	29.5
777.122	29.5
778.291	32
779.461	29.5
780.629	31.5
781.798	32.5
782.967	29
784.135	34.5
785.304	31.5
786.472	35
787.639	30.5
788.807	33.5
789.975	33
791.142	32
792.309	30
793.477	32
794.642	27
795.81	36.5
796.975	27
798.142	27
799.308	35
800.473	31
801.639	28.5
802.804	26
803.97	28.5
805.134	27.5
806.299	33
807.463	31.5
808.628	30
809.792	31
810.957	28.5
812.12	32
813.284	29
814.447	30.5
815.611	31.5
816.773	32
817.937	30
819.099	30
820.261	31
821.424	28
822.585	31.5
823.748	32
824.909	31
826.07	32
827.232	27.5
828.393	27
829.554	31.5
830.715	27.5
831.875	30.5
833.035	27
834.196	31.5
835.356	26.5
836.515	32
837.676	30.5
838.835	29.5
839.994	30
841.152	27
842.312	27.5
843.47	30
844.629	30.5
845.786	28
846.946	29.5
848.103	35
849.261	25.5
850.418	26.5
851.575	31
852.733	33.5
853.89	32.5
855.046	29.5
856.203	31
857.359	28
858.515	34
859.67	36.5
860.827	33
861.983	30
863.138	32
864.293	29
865.448	30
866.603	27
867.757	30.5
868.912	31
870.066	32
871.22	32
872.374	29
873.527	23.5
874.681	32
875.834	29.5
876.987	27
878.14	31
879.293	27
880.445	27.5
881.598	32
882.75	29
883.902	27.5
885.054	27
886.206	29.5
887.357	31
888.507	30
889.658	24
890.809	26
891.96	29
893.111	28.5
894.261	29.5
895.411	28
896.561	25.5
897.71	31.5
898.86	24
900.009	31
901.159	33
902.308	26.5
903.455	25.5
904.604	30.5
905.753	28
906.901	26.5
908.048	27.5
909.197	30
910.344	27
911.492	29
912.639	29
913.786	29.5
914.933	33
916.079	30
917.226	27.5
918.373	30.5
919.518	28
920.664	26
921.81	24
922.955	26
924.101	26.5
925.245	29
926.391	23
927.536	29.5
928.68	27.5
929.825	29
930.968	29.5
932.113	29.5
933.256	26
934.4	29
935.543	27.5
936.687	26
937.83	30
938.973	25
940.115	26.5
941.258	27.5
942.399	26.5
943.542	27
944.684	29
945.826	32
946.967	25
948.109	29.5
949.25	24
950.392	31.5
951.532	24
952.672	28.5
953.813	26
954.953	28
956.093	26.5
957.233	28
958.373	31.5
959.512	25
960.652	26.5
961.791	30
962.929	28
964.069	33
965.207	27.5
966.345	33.5
967.484	30
968.622	29
969.759	29.5
970.896	29.25
972.035	28.5
973.172	30
974.309	32.5
975.445	26.5
976.582	25
977.719	27
978.855	25
979.991	27.5
981.127	29.5
982.263	29
983.398	30
984.535	30.5
985.67	31
986.804	28.5
987.939	27.5
989.074	28
990.208	27.5
991.342	20
992.476	29
993.61	29
994.744	28
995.877	28
997.01	27
998.143	29
999.276	25.5
1000.41	26
1001.54	27
1002.67	27
1003.81	24
1004.94	29.5
1006.07	28
1007.2	25
1008.33	30
1009.47	26
1010.6	25
1011.73	25
1012.86	25
1013.99	24
1015.12	26
1016.25	24.5
1017.38	26
1018.51	27
1019.64	23.5
1020.77	28.5
1021.9	25.5
1023.03	26
1024.15	25.5
1025.28	31
1026.41	28
1027.54	27.5
1028.67	24
1029.8	27.5
1030.92	28.5
1032.05	25
1033.18	25.5
1034.31	28.5
1035.43	30.5
1036.56	28.5
1037.69	28
1038.81	27
1039.94	27.5
1041.07	25
1042.19	29.5
1043.32	28.5
1044.44	25
1045.57	23
1046.69	30
1047.82	26
1048.94	28.5
1050.07	26.5
1051.19	29
1052.32	27.5
1053.44	28
1054.57	24
1055.69	27.5
1056.81	24.5
1057.94	31.5
1059.06	27.5
1060.18	25.5
1061.31	31
1062.43	27
1063.55	27
1064.67	26.5
1065.8	28.5
1066.92	25
1068.04	26
1069.16	29.5
1070.28	26.5
1071.4	26
1072.52	28
1073.64	24
1074.76	23.5
1075.89	26
1077.01	25
1078.13	28
1079.25	25
1080.37	29
1081.49	25.5
1082.6	26
1083.72	26
1084.84	27
1085.96	26
1087.08	25
1088.2	28.5
1089.32	24
1090.43	28
1091.55	25.5
1092.67	26
1093.79	26
1094.91	23.5
1096.02	27
1097.14	27.5
1098.26	26.5
1099.37	22.5
1100.49	24.5
1101.61	24
1102.72	27.5
1103.84	22.5
1104.95	29.5
1106.07	30.5
1107.18	30.5
1108.3	29.5
1109.41	26.5
1110.53	28
1111.64	27
1112.76	26
1113.87	26.5
1114.99	28.5
1116.1	29.5
1117.21	28.5
1118.33	27.5
1119.44	27.5
1120.55	24
1121.67	25
1122.78	22.5
1123.89	26.5
1125	31
1126.12	23
1127.23	28.5
1128.34	25.5
1129.45	30
1130.56	27.5
1131.68	26.5
1132.79	27
1133.9	27
1135.01	24
1136.12	26.5
1137.23	25.5
1138.34	23
1139.45	27
1140.56	27.5
1141.67	28
1142.78	26
1143.89	24.5
1145	25.5
1146.11	29
1147.22	27
1148.32	28
1149.43	27
1150.54	26.5
1151.65	26.5
1152.76	25
1153.86	24
1154.97	27
1156.08	21
1157.19	29
1158.29	24.5
1159.4	29
1160.51	30
1161.61	25
1162.72	22.5
1163.83	29.5
1164.93	25.5
1166.04	24.5
1167.14	21.5
1168.25	26.5
1169.35	28
1170.46	27
1171.56	25
1172.67	26
1173.77	25
1174.88	24.5
1175.98	23.5
1177.08	22.5
1178.19	25.5
1179.29	24.5
1180.4	27
1181.5	28.5
1182.6	30.5
1183.71	25
1184.81	27.5
1185.91	29
1187.01	24
1188.12	25.5
1189.22	25.5
1190.32	23.5
1191.42	27
1192.52	25
1193.62	25.5
1194.72	24.0033
1195.83	24.5007
1196.93	28.9804
1198.03	25.068
1199.13	22.1929
1200.23	27.8067
1201.33	24.5655
1202.43	26.7583
1203.53	23.131
1204.63	23.1451
1205.73	22.9575
1206.83	26.5625
1207.92	22.7164
1209.02	26.3078
1210.12	26.2215
1211.22	23.2633
1212.32	26.2266
1213.42	23.4661
1214.51	22.0461
1215.61	26.0035
1216.71	25.4029
1217.81	24.5468
1218.9	25.8105
1220	24.0132
1221.1	25.0719
1222.19	24.5703
1223.29	25.2116
1224.39	27.1651
1225.48	23.5337
1226.58	28.222
1227.68	25.0644
1228.77	25.3381
1229.87	25.6091
1230.96	23.6718
1232.06	23.5285
1233.15	25.3122
1234.25	24.991
1235.34	27.739
1236.43	24.8572
1237.53	24.0177
1238.62	23.1502
1239.72	25.1942
1240.81	26.6486
1241.9	25.5812
1243	24.5793
1244.09	25.7794
1245.18	23.4804
1246.27	26.1592
1247.37	23.4937
1248.46	21.0388
1249.55	24.6334
1250.64	23.5842
1251.74	27.6274
1252.83	27.4806
1253.92	25.2482
1255.01	27.5343
1256.1	25.1408
1257.19	26.2749
1258.28	22.6771
1259.38	26.1797
1260.46	26.6283
1261.56	26.7761
1262.65	28.1364
1263.74	24.8744
1264.82	28.6837
1265.91	25.3876
1267	26.173
1268.09	26.0052
1269.18	29.5286
1270.27	26.865
1271.36	22.2824
1272.45	24.9493
1273.54	25.4082
1274.63	27.0787
1275.71	23.8294
1276.8	24.0791
1277.89	24.4431
1278.98	24.5693
1280.06	23.6482
1281.15	25.5833
1282.24	23.4321
1283.32	24.3007
1284.41	22.5801
1285.5	21.6589
1286.58	22.5388
1287.67	26.0127
1288.76	24.8019
1289.84	22.0332
1290.93	26.3298
1292.01	24.3601
1293.1	25.0471
1294.18	24.768
1295.27	25.5345
1296.35	25.3994
1297.44	26.5564
1298.52	25.4951
1299.6	24.5865
1300.69	24.2819
1301.77	24.4623
1302.86	23.4724
1303.94	25.2148
1305.02	21.3895
1306.11	24.1672
1306.41	26
1307.5	26
1308.59	25.5
1309.68	21
1310.77	22
1311.85	23.5
1312.94	23.5
1314.03	23
1315.11	23
1316.2	21
1317.29	25
1318.37	25.5
1319.46	21
1320.55	24
1321.63	24
1322.72	19.5
1323.8	25.5
1324.89	23
1325.98	29.5
1327.06	23
1328.15	24
1329.23	23.5
1330.31	24.5
1331.4	24
1332.48	24.5
1333.57	21.5
1334.65	22
1335.74	25.5
1336.82	27.5
1337.9	24
1338.99	27.5
1340.07	28
1341.15	25
1342.24	23.5
1343.32	25.5
1344.4	23
1345.48	27
1346.56	23
1347.65	22
1348.73	24
1349.81	25
1350.89	27
1351.97	24.5
1353.05	21.5
1354.13	24
1355.21	28
1356.29	21
1357.37	22
1358.46	23
1359.54	24
1360.62	26.5
1361.69	26
1362.77	26
1363.85	24
1364.93	26
1366.01	28
1367.09	25.5
1368.17	24.5
1369.25	25
1370.33	23
1371.41	28
1372.48	24.5
1373.56	26.5
1374.64	23
1375.72	25
1376.79	27.5
1377.87	22.5
1378.95	26.5
1380.02	26
1381.1	26
1382.18	28
1383.25	25
1384.33	23.5
1385.4	27.5
1386.48	25
1387.56	26.5
1388.63	26
1389.71	27
1390.78	26
1391.86	25.5
1392.93	29
1394.01	29.5
1395.08	29.5
1396.15	26
1397.23	26
1398.3	25.5
1399.38	29
1400.45	31
1401.52	28.5
1402.6	24.5
1403.67	28.5
1404.74	27.5
1405.81	32.5
1406.89	27.5
1407.96	28
1409.03	31
1410.1	27.5
1411.17	27.5
1412.25	27
1413.32	28
1414.39	29.5
1415.46	29
1416.53	28
1417.6	29
1418.67	26.5
1419.74	26.5
1420.81	27.5
1421.88	26
1422.95	29
1424.02	20.5
1425.09	29
1426.16	26
1427.23	28
1428.3	25.5
1429.37	27
1430.44	26
1431.51	25
1432.58	27
1433.64	26.5
1434.71	22
1435.78	26.5
1436.85	30
1437.92	21
1438.98	27.5
1440.05	29
1441.12	25.5
1442.18	24.5
1443.25	28
1444.32	28
1445.38	26
1446.45	30.5
1447.52	26
1448.58	27.5
1449.65	27
1450.71	24
1451.78	24.5
1452.84	25.5
1453.91	26
1454.97	25.5
1456.04	24
1457.1	23.5
1458.17	23
1459.23	24.5
1460.3	26
1461.36	31
1462.42	28
1463.49	27
1464.55	25
1465.61	25.5
1466.68	26.5
1467.74	28.5
1468.8	26
1469.86	23
1470.93	25
1471.99	25.5
1473.05	28.5
1474.11	24
1475.17	24.5
1476.24	24
1477.3	27
1478.36	29.5
1479.42	24.5
1480.48	23
1481.54	25.5
1482.6	25
1483.66	26
1484.72	24.5
1485.78	29
1486.84	26
1487.9	21
1488.96	25
1490.02	25.5
1491.08	25
1492.14	24
1493.2	21
1494.26	23
1495.31	22
1496.37	28.5
1497.43	26.5
1498.49	25
1499.55	23
1500.6	24
1501.66	27.5
1502.72	27.5
1503.78	29
1504.83	22.5
1505.89	25
1506.95	24
1508	26
1509.06	22
1510.12	23
1511.17	27.5
1512.23	25
1513.28	25.5
1514.34	22
1515.39	26.5
1516.45	26.5
1517.5	27
1518.56	26
1519.61	25
1520.67	23.5
1521.72	27
1522.78	30
1523.83	24.5
1524.88	24
1525.94	24
1526.99	22
1528.05	26.5
1529.1	25
1530.15	28.5
1531.2	27
1532.26	25
1533.31	27.5
1534.36	26
1535.41	26
1536.47	30.5
1537.52	27
1538.57	24
1539.62	25
1540.67	25
1541.72	23.5
1542.77	24
1543.83	26
1544.88	23
1545.93	22
1546.98	27
1548.03	27
1549.08	25
1550.13	25
1551.18	22.5
1552.23	21
1553.28	25.5
1554.32	25
1555.37	31
1556.42	22
1557.47	26.5
1558.52	26.5
1559.57	28.5
1560.62	23
1561.67	24.5
1562.71	26.5
1563.76	22
1564.81	27
1565.86	29
1566.9	29.5
1567.95	26
1569	25.5
1570.04	25.5
1571.09	25
1572.14	25.5
1573.18	24
1574.23	28.5
1575.27	27
1576.32	24
1577.37	27
1578.41	25
1579.46	28
1580.5	25
1581.55	27.5
1582.59	24
1583.64	26
1584.68	27
1585.72	25
1586.77	25
1587.81	27.5
1588.86	26
1589.9	29
1590.94	24
1591.99	25.5
1593.03	26
1594.07	25
1595.12	28.5
1596.16	28
1597.2	25
1598.24	28
1599.29	27
1600.33	26.5
1601.37	25.5
1602.41	22
1603.45	25.5
1604.49	28
1605.53	29
1606.58	24
1607.62	26
1608.66	27
1609.7	24
1610.74	22
1611.78	24
1612.82	26.5
1613.86	27
1614.9	29.5
1615.94	22
1616.98	26.5
1618.02	22
1619.06	26.5
1620.09	27.5
1621.13	21
1622.17	28.5
1623.21	26.5
1624.25	25
1625.29	26.5
1626.32	27
1627.36	27.5
1628.4	26
1629.44	24
1630.47	28
1631.51	24
1632.55	27
1633.58	21
1634.62	26.5
1635.66	29.5
1636.69	25
1637.73	23.5
1638.77	28
1639.8	24
1640.84	27
1641.87	28
1642.91	26
1643.94	27.5
1644.98	24.5
1646.01	26.5
1647.05	27.5
1648.08	24
1649.12	25.5
1650.15	27.5
1651.18	26
1652.22	29
1653.25	27
1654.29	28
1655.32	29.5
1656.35	26.5
1657.39	26.5
1658.42	27
1659.45	27
1660.48	22.5
1661.52	25.5
1662.55	23
1663.58	26.5
1664.61	25
1665.64	24
1666.68	23
1667.71	24
1668.74	28
1669.77	24
1670.8	24
1671.83	26
1672.86	21.5
1673.89	22.5
1674.92	22
1675.95	30.5
1676.98	23.5
1678.01	28
1679.04	24.5
1680.07	25
1681.1	25
1682.13	24
1683.16	27
1684.19	28.5
1685.22	26
1686.25	26.5
1687.27	24.5
1688.3	22
1689.33	28.5
1690.36	28.5
1691.38	25.5
1692.41	24
1693.44	24
1694.47	25.5
1695.49	24
1696.52	24
1697.55	29
1698.57	27
1699.6	24
1700.63	25.5
1701.65	28
1702.68	23
1703.7	23.5
1704.73	23.5
1705.76	25.5
1706.78	23.5
1707.81	27
1708.83	26.5
1709.86	27.5
1710.88	26
1711.91	26.5
1712.93	26
1713.95	19
1714.98	26
1716	25.5
1717.03	26
1718.05	24
1719.07	25
1720.1	24
1721.12	24.5
1722.14	25.5
1723.16	27.5
1724.19	22
1725.21	26
1726.23	25.5
1727.25	28.5
1728.28	24.5
1729.3	23.5
1730.32	26
1731.34	25
1732.36	26.5
1733.38	28
1734.41	27.5
1735.43	23
1736.45	25
1737.47	26
1738.49	28
1739.51	26
1740.53	27
1741.55	27
1742.57	24.5
1743.59	25
1744.61	25
1745.63	20
1746.64	22.5
1747.66	27
1748.68	28
1749.7	24
1750.72	29
1751.74	27
1752.76	23
1753.77	29
1754.79	30
1755.81	28
1756.83	26
1757.84	27.5
1758.86	26
1759.88	25
1760.9	26
1761.91	25.5
1762.93	23
1763.95	28.5
1764.96	30.5
1765.98	27.5
1766.99	25
1768.01	23
1769.02	27
1770.04	26.5
1771.06	26
1772.07	27
1773.09	20.5
1774.1	25.5
1775.12	28
1776.13	30
1777.14	23
1778.16	24.5
1779.17	26.5
1780.19	27
1781.2	27
1782.21	23
1783.23	25.5
1784.24	29.5
1785.25	26
1786.27	26
1787.28	25
1788.29	23.5
1789.3	29
1790.32	24
1791.33	25
1792.34	27
1793.35	26.5
1794.36	24
1795.38	28.5
1796.39	27.5
1797.4	26
1798.41	23.5
1799.42	23
1800.43	28
1801.44	23.5
1802.45	22
1803.46	27
1804.47	24
1805.48	25
1806.49	27.5
1807.5	26.5
1808.51	23
1809.52	24
1810.53	26
1811.54	19
1812.55	26
1813.56	26
1814.57	26.5
1815.57	27
1816.58	25
1817.59	28.5
1818.6	25
1819.61	27
1820.61	22.5
1821.62	27.5
1822.63	24
1823.64	23.5
1824.64	26
1825.65	22.5
1826.66	26
1827.66	27
1828.67	25
1829.68	22
1830.68	24
1831.69	30
1832.69	28
1833.7	26
1834.7	29.5
1835.71	27.5
1836.71	24
1837.72	23.5
1838.72	25.5
1839.73	26.5
1840.73	26
1841.74	23.5
1842.74	26
1843.75	25.5
1844.75	29
1845.75	26
1846.76	24
1847.76	24.5
1848.76	25.5
1849.77	22
1850.77	23.5
1851.77	23
1852.78	24.5
1853.78	24
1854.78	30.5
1855.78	19.5
1856.78	23.5
1857.79	24.5
1858.79	23
1859.79	22.5
1860.79	21.5
1861.79	27
1862.79	24.5
1863.79	25
1864.79	22
1865.79	28
1866.8	27.5
1867.8	25.5
1868.8	22.5
1869.8	25
1870.8	24
1871.8	24
1872.8	23
1873.79	28.5
1874.79	22
1875.79	23.5
1876.79	23.5
1877.79	24
1878.79	25.5
1879.79	24
1880.79	20
1881.78	28
1882.78	27
1883.78	26.5
1884.78	23.5
1885.77	24.5
1886.77	22.5
1887.77	23.5
1888.77	28
1889.76	22.5
1890.76	22
1891.76	21
1892.75	26.5
1893.75	20.5
1894.75	24.5
1895.74	27.5
1896.74	23
1897.73	23
1898.73	26
1899.73	22
1900.72	24.5
1901.72	27
1902.71	25
1903.7	27
1904.7	28
1905.69	26.5
1906.69	26
1907.68	27.5
1908.68	26
1909.67	23
1910.66	24.5
1911.66	25.5
1912.65	24.5
1913.64	25.5
1914.64	24
1915.63	22.5
1916.62	24
1917.62	26
1918.61	24.5
1919.6	24
1920.59	22.5
1921.58	25
1922.58	25
1923.57	25
1924.56	22
1925.55	24.5
1926.54	27.5
1927.53	24.5
1928.52	25
1929.51	24.5
1930.51	27
1931.5	26
1932.49	23.5
1933.48	24.5
1934.47	22
1935.46	29.5
1936.45	24
1937.44	24
1938.42	25
1939.41	25
1940.4	25
1941.39	24.5
1942.38	24
1943.37	25
1944.36	27
1945.35	24
1946.33	24
1947.32	26
1948.31	25.75
1949.3	25.5
1950.29	27.5
1951.27	23.5
1952.26	26
1953.25	25
1954.23	25
1955.22	20.5
1956.21	25.5
1957.19	25
1958.18	28
1959.17	28
1960.15	25.5
1961.14	28
1962.13	26
1963.11	26
1964.1	26
1965.08	25.5
1966.07	23.5
1967.05	26.5
1968.04	22
1969.02	31.5
1970.01	25
1970.99	25
1971.97	20
1972.96	22.5
1973.94	25
1974.93	24.5
1975.91	24.5
1976.89	24.5
1977.88	24
1978.86	21
1979.84	23.5
1980.83	24
1981.81	24
1982.79	25
1983.77	26
1984.76	25
1985.74	23
1986.72	25.5
1987.7	22.5
1988.68	24
1989.67	22
1990.65	23
1991.63	25
1992.61	25.5
1993.59	24.5
1994.57	23.5
1995.55	27.5
1996.53	24.5
1997.51	22
1998.49	24.5
1999.47	22
2000.45	23
2001.43	25
2002.41	26
2003.39	24.5
2004.37	25
2005.35	25
2006.33	22.5
2007.31	21
2008.29	25.5
2009.26	25
2010.24	24
2011.22	25
2012.2	26.5
2013.18	26
2014.15	20
2015.13	25.5
2016.11	22
2017.09	21
2018.06	26
2019.04	25.5
2020.02	26
2021	25.5
2021.97	25
2022.95	23
2023.92	23.5
2024.9	23
2025.88	19.5
2026.85	23.5
2027.83	26
2028.8	27
2029.78	26.5
2030.75	17
2031.73	22
2032.7	23.5
2033.68	23
2034.65	25
2035.63	29
2036.6	25
2037.58	22
2038.55	22.5
2039.52	23
2040.5	25
2041.47	22
2042.45	25
2043.42	26
2044.39	21
2045.36	20.5
2046.34	25.5
2047.31	24
2048.28	23.5
2049.26	23.5
2050.23	23.5
2051.2	24
2052.17	25
2053.14	24
2054.12	22
2055.09	22
2056.06	25
2057.03	25.5
2058	23.5
2058.97	22
2059.94	20.5
2060.91	25
2061.88	23.5
2062.85	22
2063.82	23.5
2064.79	24.5
2065.76	23.5
2066.73	23
2067.7	24
2068.67	24
2069.64	22.5
2070.61	25
2071.58	22.5
2072.55	18.5
2073.52	25.5
2074.49	23.5
2075.45	26
2076.42	25
2077.39	24.5
2078.36	24.5
2079.33	23
2080.29	25.5
2081.26	21
2082.23	23
2083.2	22.5
2084.16	23
2085.13	21.5
2086.1	24
2087.06	27
2088.03	24
2089	20
2089.96	25
2090.93	25.5
2091.89	25
2092.86	20.5
2093.83	24.5
2094.79	20.5
2095.76	23
2096.72	21.5
2097.69	24
2098.65	26
2099.62	23.5
2100.58	23.5
2101.55	20.5
2102.51	21.5
2103.47	23.5
2104.44	21
2105.4	24
2106.36	22.5
2107.33	22
2108.29	23.5
2109.25	26.5
2110.22	23.5
2111.18	24
2112.14	23
2113.11	23.5
2114.07	21
2115.03	25.5
2115.99	25.5
2116.96	23.5
2117.92	22
2118.88	23.5
2119.84	24
2120.8	26
2121.76	27.5
2122.72	21.5
2123.68	24
2124.65	24.5
2125.61	22
2126.57	23
2127.53	23.5
2128.49	22
2129.45	26.5
2130.41	24
2131.37	19
2132.33	24.5
2133.29	22.5
2134.25	25
2135.21	24
2136.17	22
2137.12	21
2138.08	25
2139.04	22
2140	23
2140.96	22.5
2141.92	22
2142.88	22.9841
2143.83	21.9707
2144.79	19.5594
2145.75	22.9749
2146.71	24.5163
2147.66	21.4291
2148.62	22.9668
2149.58	22.3729
2150.53	23.1136
2151.49	23.535
2152.45	22.9549
2153.4	25.8602
2154.36	24.9587
2155.32	22.2691
2156.27	24.6959
2157.23	21.5979
2158.19	22.967
2159.14	24.0582
2160.1	19.0564
2161.05	25.2247
2162.01	22.3379
2162.96	24.4782
2163.92	22.1475
2164.87	22.0146
2165.83	23.1143
2166.78	24.7673
2167.73	23.6123
2168.69	22.3866
2169.64	23.3039
2170.6	24.4396
2171.55	22.0041
2172.5	22.9126
2173.46	23.8245
2174.41	24.4666
2175.36	21.778
2176.32	22.6344
2177.27	24.4706
2178.22	21.4429
2179.18	24.4923
2180.13	20.2372
2181.08	20.7758
2182.03	23.0334
2182.98	25.1319
2183.94	24.942
2184.89	22.4458
2185.84	24.019
2186.79	21.4515
2187.74	22.8197
2188.69	21.9812
2189.64	24.3361
2190.6	23.6248
2191.55	21.5148
2192.5	20.0344
2193.45	22.7597
2194.4	23.4674
2195.35	21.8044
2196.3	22.1811
2197.25	22.9499
2198.2	24.6504
2199.15	20.7375
2200.1	22.2728
2201.04	22.7915
2201.99	24.4743
2202.94	21.9463
2203.89	22.1081
2204.84	23.7533
2205.79	22.5584
2206.74	23.2749
2207.69	24.106
2208.63	23.8589
2209.58	23.208
2210.53	23.0259
2211.48	20.6395
2212.43	20.8664
2213.37	23.0419
2214.32	21.0014
2215.27	21.5884
2216.21	21.7274
2217.16	25.2337
2218.11	23.0158
2219.05	22.9067
2220	22.462
2220.95	23.3924
2221.89	23.4164
2222.84	23.0121
2223.78	23.037
2224.73	24.0689
2225.68	22.4278
2226.62	22.7895
2227.57	21.0595
2228.51	22.4991
2229.46	23.2532
2230.4	21.3099
2231.35	23.5331
2232.29	22.9305
2233.24	24.7843
2234.18	24.1602
2235.12	22.3432
2236.07	21.337
2237.01	19.6104
2237.95	22.4156
2238.9	24.2362
2239.84	25.6238
2240.06	26
2241.01	22.5
2241.96	25.5
2242.91	21.5
2243.86	23.5
2244.8	23.5
2245.75	24
2246.7	19.5
2247.65	22.5
2248.59	21.5
2249.54	25
2250.49	21.5
2251.43	25.5
2252.38	24
2253.33	21
2254.27	20.5
2255.22	18
2256.16	26
2257.11	24
2258.06	23.5
2259	23
2259.95	24.5
2260.89	22.5
2261.84	20.5
2262.78	22
2263.73	21
2264.67	26
2265.62	26
2266.56	20.5
2267.5	24
2268.45	25.5
2269.39	21
2270.34	24.5
2271.28	23.5
2272.22	23.5
2273.17	22
2274.11	21.5
2275.05	22.5
2276	19.5
2276.94	20.5
2277.88	25
2278.82	26.5
2279.77	27.5
2280.71	21
2281.65	23
2282.59	22
2283.53	18
2284.48	22
2285.42	25
2286.36	20.5
2287.3	25
2288.24	22.5
2289.18	25.5
2290.12	22
2291.06	24
2292	23.5
2292.94	24.5
2293.89	25
2294.83	20.5
2295.77	26
2296.71	25
2297.65	25.5
2298.58	24.5
2299.52	22
2300.46	23
2301.4	23.5
2302.34	23
2303.28	23.5
2304.22	21
2305.16	22.5
2306.1	24
2307.03	25.5
2307.97	25.5
2308.91	18
2309.85	26
2310.79	24.5
2311.72	24.5
2312.66	23
2313.6	24.5
2314.54	20
2315.47	23.5
2316.41	24.5
2317.35	22
2318.28	26
2319.22	22
2320.16	23.5
2321.09	21.5
2322.03	20
2322.96	19.5
2323.9	23.5
2324.84	20
2325.77	21.5
2326.71	23
2327.64	22
2328.58	21
2329.51	23.5
2330.45	22
2331.38	25.5
2332.32	21
2333.25	24
2334.18	30
2335.12	22.5
2336.05	27.5
2336.99	26
2337.92	19.5
2338.85	25
2339.79	22
2340.72	23.5
2341.65	25
2342.59	22
2343.52	24
2344.45	25
2345.39	26
2346.32	28
2347.25	25
2348.18	23
2349.11	26
2350.05	26.5
2350.98	20
2351.91	20.5
2352.84	24
2353.77	28
2354.7	27
2355.64	23
2356.57	24
2357.5	25.5
2358.43	26
2359.36	22
2360.29	27
2361.22	20
2362.15	21.5
2363.08	22
2364.01	24.5
2364.94	21
2365.87	26
2366.8	23
2367.73	26
2368.66	25.5
2369.58	24
2370.51	23
2371.44	24.5
2372.37	20.5
2373.3	24
2374.23	25
2375.16	27.5
2376.08	23.5
2377.01	26
2377.94	24.5
2378.87	24.5
2379.8	22
2380.72	23
2381.65	26
2382.58	25
2383.5	22
2384.43	25.5
2385.36	23.5
2386.28	22.5
2387.21	21
2388.14	25.5
2389.06	22.5
2389.99	22.5
2390.91	25
2391.84	22.5
2392.77	24
2393.69	20.5
2394.62	25
2395.54	24
2396.47	22.5
2397.39	21
2398.32	24
2399.24	23.5
2400.16	25.5
2401.09	23.5
2402.01	22
2402.94	27.5
2403.86	22
2404.78	27.5
2405.71	26
2406.63	21
2407.56	23.5
2408.48	28.5
2409.4	25.5
2410.32	19
2411.25	18
2412.17	25.5
2413.09	24
2414.02	21
2414.94	20.5
2415.86	24
2416.78	25.5
2417.7	22.5
2418.63	24
2419.55	22
2420.47	22.5
2421.39	26
2422.31	24
2423.23	20
2424.15	27
2425.07	25
2425.99	22
2426.92	26.5
2427.84	24
2428.76	22
2429.68	21
2430.59	23
2431.51	24.5
2432.43	23.5
2433.35	19.5
2434.27	24
2435.19	19
2436.11	25
2437.03	29
2437.95	24
2438.87	22.5
2439.79	24
2440.71	25
2441.62	25
2442.54	18
2443.46	24.5
2444.38	23
2445.3	23
2446.21	23.5
2447.13	29
2448.05	23.5
2448.97	26
2449.88	24
2450.8	23
2451.72	23
2452.63	21
2453.55	23.5
2454.47	23
2455.38	22.5
2456.3	26.5
2457.21	20.5
2458.13	24
2459.05	24
2459.96	26
2460.88	22
2461.79	27
2462.71	24.5
2463.62	21
2464.54	23
2465.45	23
2466.37	24.5
2467.28	26
2468.2	25
2469.11	23
2470.02	27
2470.94	22.5
2471.85	23.5
2472.77	26
2473.68	24
2474.59	30
2475.51	23
2476.42	23
2477.33	25.5
2478.25	24
2479.16	24.5
2480.07	23.5
2480.98	25
2481.9	27.5
2482.81	18
2483.72	22
2484.63	26
2485.55	23
2486.46	27.5
2487.37	25.5
2488.28	24
2489.19	19
2490.1	25
2491.01	24
2491.92	27
2492.83	26
2493.74	21.5
2494.66	24
2495.57	25
2496.48	25
2497.39	27
2498.3	26
2499.21	26
2500.12	24.5
2501.03	24
2501.93	27
2502.84	28
2503.75	21
2504.66	21.5
2505.57	19.5
2506.48	25
2507.39	24
2508.3	23
2509.21	29.5
2510.11	22
2511.02	24
2511.93	24
2512.84	23
2513.75	28
2514.65	24
2515.56	27
2516.47	26
2517.37	23.5
2518.28	24.5
2519.19	22
2520.09	22.5
2521	19
2521.91	23.5
2522.81	27
2523.72	21.5
2524.63	29.5
2525.53	23
2526.44	25
2527.34	24.5
2528.25	25
2529.16	24.5
2530.06	23
2530.97	22
2531.87	23
2532.78	27
2533.68	20.5
2534.58	23.5
2535.49	26
2536.39	23.5
2537.3	26.5
2538.2	25
2539.11	23.5
2540.01	20
2540.91	21
2541.82	22.5
2542.72	23
2543.62	23
2544.53	25.5
2545.43	23
2546.33	25
2547.23	20.5
2548.14	23.5
2549.04	20.5
2549.94	19
2550.84	28
2551.75	23
2552.65	21.5
2553.55	27
2554.45	25
2555.35	20.5
2556.26	24
2557.16	24
2558.06	23
2558.96	23.5
2559.86	25
2560.76	25.5
2561.66	23
2562.56	25
2563.46	21
2564.36	24
2565.26	25
2566.16	25
2567.06	21
2567.96	26.5
2568.86	23.5
2569.76	24.5
2570.66	24
2571.56	27
2572.46	23.5
2573.36	24
2574.26	21
2575.16	26
2576.05	21.5
2576.95	27
2577.85	23.5
2578.75	25.5
2579.65	26
2580.54	28.5
2581.44	24
2582.34	20.5
2583.24	26
2584.13	24
2585.03	22
2585.93	25
2586.83	23
2587.72	28
2588.62	24.5
2589.52	24
2590.41	21.5
2591.31	22
2592.2	23
2593.1	22.5
2594	27.5
2594.89	20
2595.79	24.5
2596.68	24
2597.58	21.5
2598.47	22
2599.37	23
2600.26	18
2601.16	27
2602.05	23
2602.95	23.5
2603.84	23
2604.74	26
2605.63	26.5
2606.52	26.5
2607.42	22
2608.31	25
2609.21	24
2610.1	25.5
2610.99	19
2611.89	27
2612.78	22
2613.67	26
2614.56	25
2615.46	22
2616.35	20.5
2617.24	23.5
2618.13	24.5
2619.03	21
2619.92	24
2620.81	25
2621.7	29
2622.59	25
2623.49	22
2624.38	27.5
2625.27	25.5
2626.16	22
2627.05	25
2627.94	23
2628.83	25.5
2629.72	24.5
2630.61	21.5
2631.5	22
2632.39	24
2633.28	23
2634.17	28.5
2635.06	27.5
2635.95	26.5
2636.84	23.5
2637.73	23
2638.62	22
2639.51	21
2640.4	24.5
2641.29	23.5
2642.18	23
2643.07	27
2643.96	27
2644.84	25
2645.73	22.5
2646.62	24
2647.51	23
2648.4	24.5
2649.28	27
2650.17	23
2651.06	21
2651.95	22
2652.83	25.5
2653.72	27
2654.61	24
2655.49	29
2656.38	26
2657.27	26
2658.16	24
2659.04	25
2659.93	23
2660.81	27.5
2661.7	23
2662.59	24
2663.47	28.5
2664.36	24.5
2665.24	26.5
2666.13	25
2667.01	21
2667.9	27.5
2668.78	26.5
2669.67	24
2670.55	23
2671.44	22.5
2672.32	22
2673.21	26
2674.09	27.5
2674.97	23
2675.86	26.5
2676.74	24
2677.62	26
2678.51	24
2679.39	23
2680.27	26
2681.16	25
2682.04	25
2682.92	23
2683.81	23
2684.69	24.5
2685.57	21.5
2686.45	24
2687.34	23
2688.22	24
2689.1	27
2689.98	29
2690.86	21
2691.75	25.5
2692.63	21.5
2693.51	27
2694.39	24
2695.27	22.5
2696.15	23.5
2697.03	22.5
2697.91	23.5
2698.79	27.5
2699.67	25.5
2700.55	24.5
2701.43	24
2702.31	23.5
2703.19	27.5
2704.07	25.5
2704.95	23
2705.83	27.5
2706.71	26.5
2707.59	22
2708.47	25.5
2709.35	26
2710.23	23
2711.11	25
2711.99	25.5
2712.86	25
2713.74	24.5
2714.62	27.5
2715.5	27
2716.38	27
2717.26	23.5
2718.13	25
2719.01	25
2719.89	23.5
2720.77	23
2721.64	19.5
2722.52	25
2723.4	26.5
2724.27	21
2725.15	27.5
2726.03	21
2726.9	24.5
2727.78	24
2728.66	26
2729.53	22
2730.41	22.5
2731.28	23
2732.16	23.5
2733.03	26.5
2733.91	25.5
2734.79	23
2735.66	27.5
2736.54	25.5
2737.41	24.5
2738.29	21
2739.16	26
2740.03	20.5
2740.91	22.5
2741.78	28
2742.66	26.5
2743.53	22
2744.41	22
2745.28	21
2746.15	26
2747.03	23.5
2747.9	25
2748.77	18
2749.65	24
2750.52	21
2751.39	25.5
2752.27	23.5
2753.14	23
2754.01	27
2754.88	22
2755.75	25.5
2756.63	20
2757.5	22
2758.37	23
2759.24	21.5
2760.11	25.5
2760.99	23.5
2761.86	22
2762.73	24
2763.6	26
2764.47	26
2765.34	28.5
2766.21	25
2767.08	28.5
2767.95	24
2768.82	25
2769.69	24
2770.56	22
2771.43	24.5
2772.3	24
2773.17	23
2774.04	24
2774.91	26.5
2775.78	23.5
2776.65	27
2777.52	28.5
2778.39	23.5
2779.26	25.5
2780.13	24.5
2780.99	23.5
2781.86	24
2782.73	22
2783.6	25.5
2784.47	26.5
2785.34	28
2786.2	25
2787.07	25
2787.94	27
2788.81	24.5
2789.67	23
2790.54	30
2791.41	28
2792.27	21
2793.14	24.5
2794.01	27.5
2794.87	24.5
2795.74	25.5
2796.61	25
2797.47	25.5
2798.34	24
2799.21	27
2800.07	26.5
2800.94	25.25
2801.8	22.5
2802.67	23
2803.53	28
2804.4	24
2805.26	26
2806.13	24.5
2806.99	27.5
2807.86	22.5
2808.72	27.5
2809.59	26
2810.45	25
2811.32	25.5
2812.18	23
2813.04	25.5
2813.91	23
2814.77	26.5
2815.64	26
2816.5	24
2817.36	24
2818.22	24.5
2819.09	30.5
2819.95	25.5
2820.81	25.5
2821.68	27
2822.54	26
2823.4	24
2824.26	27.5
2825.13	24
2825.99	24
2826.85	23
2827.71	22.5
2828.57	27
2829.44	30.5
2830.3	23.5
2831.16	23
2832.02	23
2832.88	27
2833.74	24
2834.6	22.5
2835.46	25.5
2836.32	22
2837.18	25
2838.04	25
2838.9	23.5
2839.76	22
2840.62	26.5
2841.48	26
2842.34	27
2843.2	28
2844.06	25
2844.92	21.5
2845.78	27.5
2846.64	28
2847.5	22
2848.36	20.5
2849.22	24.5
2850.08	24
2850.93	27.5
2851.79	24.5
2852.65	26
2853.51	25.5
2854.37	26
2855.22	26.5
2856.08	31
2856.94	24
2857.8	29
2858.65	22.5
2859.51	21.5
2860.37	22
2861.23	24.5
2862.08	25.5
2862.94	28
2863.79	26
2864.65	27
2865.51	28
2866.36	27.5
2867.22	26.5
2868.08	26
2868.93	30
2869.79	26
2870.64	24.5
2871.5	26
2872.35	23
2873.21	25
2874.06	28
2874.92	31.5
2875.77	29
2876.63	31
2877.48	27.5
2878.34	31.5
2879.19	29
2880.05	30
2880.9	31.5
2881.76	30.5
2882.61	29.5
2883.46	31
2884.32	28
2885.17	31.5
2886.02	33
2886.88	33
2887.73	36
2888.58	35
2889.44	38
2890.29	37.5
2891.14	36.5
2891.99	37.5
2892.85	41
2893.7	38.5
2894.55	42.5
2895.4	44.5
2896.25	46.5
2897.11	42.5
2897.96	47
2898.81	53
2899.66	54.5
2900.51	52.5
2901.36	57.5
2902.21	59.5
2903.07	57
2903.92	63
2904.77	58.5
2905.62	64.5
2906.47	68
2907.32	63.5
2908.17	60.5
2909.02	62
2909.87	57.5
2910.72	60.5
2911.57	58
2912.42	54.5
2913.27	49.5
2914.12	43.5
2914.97	44
2915.81	47
2916.66	39
2917.51	40.5
2918.36	41
2919.21	35.5
2920.06	33
2920.91	36
2921.75	33
2922.6	36
2923.45	35
2924.3	27
2925.15	32
2925.99	31.5
2926.84	31
2927.69	26.5
2928.54	27.5
2929.38	32.5
2930.23	29
2931.08	29.5
2931.92	30
2932.77	29
2933.62	29.5
2934.46	29
2935.31	29.5
2936.16	33.5
2937	28.5
2937.85	28.5
2938.69	27.5
2939.54	26.5
2940.38	23.5
2941.23	25
2942.08	28
2942.92	28
2943.77	28.5
2944.61	24.5
2945.46	31
2946.3	25.5
2947.15	29.5
2947.99	29
2948.83	31.5
2949.68	28
2950.52	28.5
2951.37	31.5
2952.21	30
2953.05	24
2953.9	32
2954.74	30.5
2955.58	32
2956.43	30
2957.27	36.5
2958.11	36.5
2958.96	34.5
2959.8	33.5
2960.64	35
2961.48	38.5
2962.33	38
2963.17	42.5
2964.01	44
2964.85	45
2965.69	37
2966.54	38.5
2967.38	42.5
2968.22	38
2969.06	42
2969.9	35.5
2970.74	32
2971.58	36.4976
2972.43	37.3905
2973.27	37.8272
2974.11	34.5055
2974.95	31.9721
2975.79	31.425
2976.63	31.9022
2977.47	31.3946
2978.31	29.3945
2979.15	30.1472
2979.99	31.2142
2980.83	26.5789
2981.67	25.8247
2982.51	28.6182
2983.35	30.8493
2984.19	26.5246
2985.03	26.5433
2985.86	26.4518
2986.7	23.2587
2987.54	24.8881
2988.38	23.3158
2989.22	26.4782
2990.06	26.9685
2990.9	25.5003
2991.73	27.2362
2992.57	25.534
2993.41	24.4854
2994.25	24.2097
2995.09	26.386
2995.92	29.1225
2996.76	23.1345
2997.6	27.2823
2998.44	25.2297
2999.27	24.7225
3000.11	22.6259
3000.95	24.8957
3001.78	24.2519
3002.62	21.9141
3003.46	23.5553
3004.29	23.1879
3005.13	24.1449
3005.96	21.7691
3006.8	22.6356
3007.64	24.2501
3008.47	24.8695
3009.31	22.3523
3010.14	23.3273
3010.98	23.6275
3011.81	24.5653
3012.65	24.6808
3013.48	23.2257
3014.32	23.4194
3015.15	25.049
3015.99	22.9283
3016.82	24.8477
3017.66	22.6165
3018.49	22.8532
3019.33	24.6888
3020.16	21.8391
3020.99	23.2096
3021.83	21.1965
3022.66	20.535
3023.5	23.0974
3024.33	21.5382
3025.16	21.1242
3026	22.5461
3026.83	21.5848
3027.66	22.0247
3028.49	22.3349
3029.33	23.3298
3030.16	22.6743
3030.99	21.078
3031.83	22.77
3032.66	22.2245
3033.49	22.4706
3034.32	22.8896
3035.15	23.5
3035.99	21.9225
3036.82	21.0485
3037.65	22.1646
3038.48	22.6723
3039.31	22.9884
3040.14	23.7967
3040.97	24.284
3041.81	24.6655
3042.64	23.9246
3043.47	24.476
3044.3	23.0677
3045.13	22.8993
3045.96	23.5917
3046.79	22.0914
3047.62	22.6895
3048.45	23.9639
3049.28	21.6321
3050.11	21.724
3050.94	25.4278
3051.77	23.6952
3052.6	21.3567
3053.43	21.7883
3054.26	21.8399
3055.08	22.6277
3055.91	20.8068
3056.74	20.357
3057.26	22.5
3058.09	22
3058.92	27.5
3059.76	19
3060.59	20
3061.42	24
3062.25	23
3063.09	25.5
3063.92	23
3064.75	24
3065.58	25
3066.42	24
3067.25	22
3068.08	23
3068.91	23.5
3069.74	23.5
3070.57	21.5
3071.41	19
3072.24	20
3073.07	22
3073.9	19
3074.73	25
3075.56	21.5
3076.39	22
3077.22	19
3078.05	24
3078.88	25
3079.71	26
3080.54	23
3081.37	29
3082.2	25
3083.03	20.5
3083.86	23.5
3084.69	26.5
3085.52	21.5
3086.35	25
3087.18	21
3088.01	20.5
3088.84	21.5
3089.67	24
3090.5	25.5
3091.32	27.5
3092.15	19
3092.98	23.5
3093.81	22.5
3094.64	21
3095.47	23
3096.29	23
3097.12	26.5
3097.95	25
3098.78	19.5
3099.6	25.5
3100.43	23.5
3101.26	20.5
3102.09	24.5
3102.91	25
3103.74	26.5
3104.57	22.5
3105.39	22
3106.22	22
3107.05	22.5
3107.87	27.5
3108.7	25.5
3109.52	21.5
3110.35	26
3111.18	23
3112	23
3112.83	21.5
3113.65	25
3114.48	23
3115.3	24
3116.13	23.5
3116.95	23.5
3117.78	24.5
3118.6	23
3119.43	20.5
3120.25	22.5
3121.08	21
3121.9	24
3122.72	23.5
3123.55	24
3124.37	23
3125.2	19.5
3126.02	23
3126.84	23
3127.67	21
3128.49	24
3129.31	23.5
3130.14	23
3130.96	22.5
3131.78	24
3132.61	22.5
3133.43	21.5
3134.25	24
3135.07	23
3135.89	24.5
3136.72	21.5
3137.54	24.5
3138.36	24
3139.18	23.5
3140	25.5
3140.83	23
3141.65	22
3142.47	23.5
3143.29	24
3144.11	23
3144.93	27.5
3145.75	22
3146.57	23
3147.4	24
3148.22	21
3149.04	24.5
3149.86	22
3150.68	23.5
3151.5	21.5
3152.32	22
3153.14	23.5
3153.96	23
3154.78	21.5
3155.59	26
3156.42	23.5
3157.23	24
3158.05	22
3158.87	21
3159.69	24
3160.51	22
3161.33	23.5
3162.15	22.5
3162.97	26.5
3163.78	23.5
3164.6	27
3165.42	21
3166.24	28
3167.06	21
3167.87	23
3168.69	21
3169.51	23.5
3170.33	26.5
3171.14	21
3171.96	21.5
3172.78	23
3173.6	23
3174.41	23
3175.23	22
3176.05	25
3176.86	22
3177.68	26
3178.5	27
3179.31	22.5
3180.13	22
3180.94	27
3181.76	28
3182.58	23
3183.39	25
3184.21	25
3185.02	25.5
3185.84	24
3186.65	21
3187.47	23
3188.28	25
3189.1	21
3189.91	21
3190.73	23
3191.54	25.5
3192.36	23.5
3193.17	22.5
3193.98	20
3194.8	22.5
3195.61	23
3196.43	22
3197.24	22.5
3198.05	27.5
3198.87	25
3199.68	26.5
3200.49	20.5
3201.31	21
3202.12	20.5
3202.93	22
3203.75	22.5
3204.56	24.5
3205.37	21
3206.18	24.5
3207	21.5
3207.81	24
3208.62	24
3209.43	23
3210.24	20
3211.06	23.5
3211.87	21
3212.68	26.5
3213.49	24
3214.3	24
3215.11	22
3215.92	27.5
3216.73	22
3217.55	22
3218.36	23
3219.17	22.5
3219.98	26
3220.79	24.5
3221.6	25.5
3222.41	21
3223.22	24.5
3224.03	21.5
3224.84	22
3225.65	23
3226.46	26
3227.27	22.5
3228.08	25.5
3228.89	22.5
3229.7	28
3230.5	24
3231.31	25.5
3232.12	23.5
3232.93	24
3233.74	25
3234.55	23.5
3235.36	24
3236.16	24.5
3236.97	25
3237.78	23.5
3238.59	23.5
3239.4	23
3240.2	23
3241.01	24.5
3241.82	23
3242.63	21
3243.43	27.5
3244.24	22.5
3245.05	23
3245.85	25.5
3246.66	25
3247.47	24.5
3248.27	20.5
3249.08	22.5
3249.89	23
3250.69	22.5
3251.5	22
3252.31	26
3253.11	25.5
3253.92	24.5
3254.72	24.5
3255.53	22.5
3256.33	23
3257.14	22.5
3257.94	22
3258.75	20.5
3259.55	21
3260.36	24.5
3261.16	23
3261.97	26
3262.77	22
3263.58	23
3264.38	19
3265.19	27
3265.99	26
3266.79	26.5
3267.6	27
3268.4	23.5
3269.21	18.5
3270.01	21.5
3270.81	25.5
3271.62	22
3272.42	23
3273.22	22.5
3274.03	19.5
3274.83	27.5
3275.63	26.5
3276.43	20.5
3277.24	27
3278.04	23.5
3278.84	26
3279.64	26
3280.45	22
3281.25	26
3282.05	23.5
3282.85	22.5
3283.65	24
3284.45	22.5
3285.26	22.5
3286.06	19.5
3286.86	23
3287.66	18
3288.46	28
3289.26	22
3290.06	24
3290.86	22.5
3291.66	21.5
3292.46	22
3293.26	25
3294.06	25
3294.86	25.5
3295.66	25
3296.46	26
3297.26	24.5
3298.06	21
3298.86	20.5
3299.66	26
3300.46	23
3301.26	23
3302.06	23.5
3302.86	23
3303.66	20.5
3304.46	24.5
3305.25	23.5
3306.05	24.5
3306.85	24.5
3307.65	24
3308.45	19.5
3309.25	23.5
3310.04	20.5
3310.84	26
3311.64	26
3312.44	26
3313.23	23.5
3314.03	26
3314.83	20
3315.63	21.5
3316.42	23
3317.22	23.5
3318.02	26.5
3318.81	23.5
3319.61	25.5
3320.41	23.5
3321.2	25.5
3322	23
3322.8	23.5
3323.59	21
3324.39	26
3325.18	22.5
3325.98	26
3326.78	26.5
3327.57	25
3328.37	22.5
3329.16	24
3329.96	20
3330.75	21.5
3331.55	23.5
3332.34	21
3333.14	25
3333.93	20.5
3334.73	24
3335.52	23
3336.31	26
3337.11	23
3337.9	23
3338.7	24.5
3339.49	23.5
3340.28	26
3341.08	22
3341.87	23
3342.66	24
3343.46	24
3344.25	19.5
3345.04	27.5
3345.84	25
3346.63	23
3347.42	22.5
3348.22	24
3349.01	25
3349.8	24
3350.59	24.5
3351.39	24.5
3352.18	26.5
3352.97	24.5
3353.76	25
3354.55	24
3355.35	21
3356.14	25
3356.93	27
3357.72	23
3358.51	20
3359.3	24
3360.09	21
3360.88	22.5
3361.67	24
3362.46	25
3363.26	23
3364.05	22.5
3364.84	26.5
3365.63	24.5
3366.42	27
3367.21	24.5
3368	23.5
3368.79	24
3369.58	24
3370.37	22.5
3371.15	23.5
3371.94	20
3372.73	25
3373.52	25
3374.31	26
3375.1	24
3375.89	25
3376.68	22
3377.47	27
3378.26	25
3379.04	23.5
3379.83	22.5
3380.62	25
3381.41	31
3382.2	26
3382.98	23.5
3383.77	24
3384.56	21.5
3385.35	23
3386.13	25.5
3386.92	20
3387.71	25.5
3388.5	22
3389.28	24
3390.07	20
3390.86	22
3391.64	19
3392.43	23.5
3393.22	24
3394	22
3394.79	25
3395.57	22.5
3396.36	22
3397.15	24.5
3397.93	28
3398.72	19
3399.5	23
3400.29	24
3401.07	21
3401.86	25.5
3402.65	25
3403.43	24
3404.21	24
3405	24
3405.78	24
3406.57	21
3407.35	25
3408.14	26
3408.92	21.5
3409.71	22
3410.49	24.5
3411.27	22
3412.06	24.5
3412.84	23.5
3413.62	26
3414.41	24
3415.19	21.5
3415.97	25.5
3416.76	22
3417.54	26
3418.32	24.5
3419.11	25.5
3419.89	24
3420.67	21
3421.46	25.5
3422.24	23.5
3423.02	20
3423.8	25.5
3424.58	24
3425.37	23
3426.15	25
3426.93	21
3427.71	23
3428.49	24.5
3429.27	25
3430.05	22.5
3430.84	22
3431.62	23.5
3432.4	24.5
3433.18	29
3433.96	22.5
3434.74	24.5
3435.52	22.5
3436.3	23
3437.08	22.5
3437.86	23
3438.64	26
3439.42	26
3440.2	26
3440.98	21.5
3441.76	24
3442.54	23
3443.32	24.5
3444.1	20.5
3444.88	24
3445.66	24
3446.44	23
3447.22	21.5
3448	24.5
3448.77	25
3449.55	26
3450.33	24
3451.11	25
3451.89	24.5
3452.67	24
3453.45	23
3454.22	17
3455	23.5
3455.78	19
3456.56	23
3457.33	25
3458.11	21.5
3458.89	25
3459.67	25.5
3460.44	25.5
3461.22	23
3462	25
3462.77	25.5
3463.55	24
3464.33	26
3465.1	22
3465.88	21
3466.66	20
3467.43	20.5
3468.21	24.5
3468.98	23
3469.76	24.5
3470.54	25.5
3471.31	21
3472.09	26
3472.86	18.5
3473.64	20
3474.41	23
3475.19	23
3475.96	22
3476.74	23.5
3477.51	22.5
3478.29	25
3479.06	27.5
3479.84	25
3480.61	18
3481.39	23.5
3482.16	22.5
3482.93	24.5
3483.71	25
3484.48	23
3485.25	25
3486.03	26
3486.8	22
3487.57	23.5
3488.35	23
3489.12	25
3489.89	25.5
3490.67	21
3491.44	26.5
3492.21	26.5
3492.99	20
3493.76	21.5
3494.53	19
3495.3	26
3496.08	26
3496.85	24
3497.62	24
3498.39	22.5
3499.16	22.5
3499.93	21
