#Acq. time (s)=	5
#Accumulations=	5
#Range (cm-¹)=	100...3500
#Windows=	4
#Autofocus=	Off
#AutoExposure=	Off
#Spike filter=	Multiple accum.
#Delay time (s)=	0
#Binning=	1
#Readout mode=	Signal
#DeNoise=	Off
#ICS correction=	Off
#Dark correction=	Off
#Inst. Process=	Off
#Instrument=	LabRAM HR Evol
#Detector=	Syncerity OE
#Objective=	x100_VIS
#Grating=	600 (500nm)
#ND Filter=	25%
#Laser=	633nm_Edge
#Hole=	100.021
#Range=	Visible
#Project=	verificaciones
#Sample=	at1
#Site=	lined
#Title=	bolusat1lined
#Remark=	
#Date=	13.01.2026 13:55
#Acquired=	13.01.2026 13:55:37
100.692	23
101.975	26
103.258	33.5
104.542	31
105.824	28
107.107	29.5
108.39	32
109.672	26.5
110.954	28.5
112.236	27
113.519	30
114.8	29
116.081	29.5
117.362	30
118.643	25
119.924	30
121.204	26
122.484	27.5
123.764	32.5
125.044	31.5
126.323	33
127.603	30.5
128.882	26
130.161	33
131.438	32
132.716	29
133.995	35
135.273	30
136.55	30
137.828	32
139.106	29.5
140.383	35
141.66	33
142.937	34.5
144.213	33.5
145.488	32.5
146.764	38.5
148.04	34.5
149.316	34
150.592	29.5
151.867	33
153.141	39.5
154.416	38.5
155.69	41.5
156.965	45
158.239	34
159.512	38.5
160.786	37
162.059	38
163.333	36.5
164.605	35.5
165.878	31.5
167.15	36
168.423	35.5
169.694	43.5
170.966	37
172.238	33
173.51	36
174.78	37.5
176.052	36
177.323	31.5
178.592	38
179.863	40
181.134	33
182.403	39
183.673	37.5
184.943	37.5
186.211	36.5
187.481	41
188.749	38.5
190.018	42
191.287	36.5
192.554	42
193.822	38.5
195.089	31
196.357	36
197.625	36
198.891	34.5
200.159	36.5
201.425	36
202.692	35.5
203.957	30
205.224	30.5
206.489	32
207.755	37.5
209.02	33
210.286	33.5
211.55	31.5
212.815	32.5
214.079	29
215.344	28
216.607	32.5
217.872	31
219.135	29
220.399	30
221.662	32.5
222.924	29.5
224.187	33.5
225.449	32
226.713	30.5
227.974	29
229.235	28
230.498	30.5
231.759	30
233.019	24
234.281	28
235.542	27.5
236.802	31.5
238.063	29
239.323	30
240.582	30
241.843	29
243.102	31.5
244.361	28.5
245.621	28.5
246.879	29
248.138	30
249.396	28.5
250.655	26
251.913	27
253.17	26.5
254.427	28.5
255.686	29
256.943	26.5
258.199	27.5
259.456	27.5
260.712	27.5
261.969	30
263.225	31
264.481	29
265.736	30
266.991	32.5
268.246	27
269.502	24.5
270.757	35.5
272.011	29.5
273.265	25
274.519	28
275.773	29.5
277.027	30
278.28	25
279.533	23
280.786	25.5
282.04	24.5
283.293	25
284.545	28
285.798	30.5
287.049	33
288.301	25.5
289.553	31
290.804	27.5
292.055	29.5
293.306	30.5
294.557	30
295.807	26.5
297.058	26.5
298.308	27
299.558	27.5
300.808	30.5
302.057	25
303.305	30
304.554	26.5
305.803	30
307.052	28.5
308.3	22.5
309.549	33
310.797	25.5
312.045	32
313.292	26
314.54	28
315.786	28.5
317.033	27.5
318.28	24
319.526	26
320.773	25.5
322.019	27
323.264	31.5
324.51	30
325.755	26.5
327.001	28.5
328.246	30
329.49	28
330.735	27.5
331.979	25.5
333.224	22
334.467	29.5
335.711	29
336.955	29
338.199	29
339.441	27.5
340.684	30
341.927	27
343.168	31.5
344.411	25
345.654	26
346.895	24.5
348.137	30
349.379	26.5
350.619	29.5
351.86	22.5
353.102	28
354.341	28.5
355.582	30.5
356.821	29.5
358.062	26.5
359.302	33.5
360.541	30
361.781	29.5
363.019	26.5
364.259	27.5
365.496	29
366.736	30.5
367.974	26
369.212	28
370.45	32
371.687	29
372.925	25.5
374.162	27.5
375.399	27
376.635	29.5
377.873	24
379.109	27.5
380.344	29
381.581	25.5
382.816	28.5
384.052	31.5
385.287	29
386.523	28.5
387.757	25.5
388.991	28.5
390.227	27.5
391.46	26
392.695	29
393.928	27.5
395.162	28.5
396.396	28.5
397.629	28.5
398.861	25.5
400.095	30
401.327	29
402.559	25.5
403.792	27
405.024	26
406.255	27.5
407.488	28.5
408.719	27.5
409.949	27.5
411.18	25
412.412	27
413.642	23.5
414.872	28
416.102	26
417.333	29
418.562	31
419.791	28
421.02	29.5
422.249	28
423.479	27.5
424.707	24.5
425.935	25.5
427.163	27
428.391	25.5
429.619	26.5
430.848	32.5
432.075	24
433.302	29
434.529	28
435.755	28
436.982	26
438.208	29.5
439.434	27
440.66	25.5
441.885	28.5
443.111	27
444.338	29
445.563	28.5
446.788	30
448.012	22
449.237	24.5
450.461	26.5
451.685	29.5
452.909	32
454.133	28
455.356	28.5
456.579	32.5
457.802	26.5
459.025	30.5
460.247	29
461.469	29.5
462.691	31
463.914	25
465.136	29.5
466.357	28.5
467.579	28.5
468.8	36
470.021	32
471.242	30
472.462	29
473.682	30.5
474.903	32
476.123	37.5
477.343	40
478.563	39
479.782	41
481	45
482.219	44.5
483.438	46
484.657	50.5
485.874	59
487.093	50.5
488.311	51.5
489.529	55.5
490.747	53
491.963	45.5
493.181	46
494.398	49
495.614	49
496.83	48.5
498.047	47.5
499.264	43
500.479	43
501.695	38.5
502.911	40.5
504.125	36.5
505.34	38
506.554	39
507.769	34
508.984	32.5
510.198	37.5
511.412	35
512.627	35
513.839	31
515.053	30
516.266	32.5
517.479	32
518.691	29.5
519.905	35.5
521.118	30.5
522.329	31.5
523.542	26.5
524.753	31.5
525.965	26
527.176	30
528.388	27.5
529.598	29
530.809	28
532.019	31
533.23	31.5
534.44	30.5
535.649	26
536.86	26
538.068	28.5
539.279	29.5
540.487	30
541.697	26
542.905	28
544.113	28
545.322	30.5
546.53	29
547.737	28.5
548.946	28.5
550.153	29.5
551.361	30
552.568	29
553.774	28
554.982	30
556.188	28.5
557.394	28
558.599	27
559.806	28.5
561.012	27
562.217	28
563.423	28.5
564.628	25
565.832	25
567.036	25.5
568.241	31
569.446	27.5
570.65	27.5
571.853	27.5
573.057	27
574.26	28.5
575.464	29
576.667	24
577.87	30
579.072	28
580.274	26.5
581.477	30.5
582.68	31.5
583.881	26
585.083	24.5
586.284	29
587.485	32
588.686	32.5
589.887	27.5
591.087	27
592.288	30.5
593.488	29.5
594.688	28.5
595.888	28
597.087	26.5
598.287	28.5
599.486	30.5
600.685	32
601.884	27.5
603.082	29.5
604.281	28
605.479	30
606.677	28
607.875	29.5
609.073	32
610.27	27
611.468	29.5
612.665	27
613.862	27
615.058	27
616.255	29
617.451	27
618.648	29
619.842	28
621.038	28.5
622.234	26
623.429	27.5
624.624	26
625.819	28
627.013	29.5
628.207	29
629.402	29.5
630.596	25
631.79	27.5
632.983	26
634.177	29.5
635.37	27
636.564	25
637.755	26.5
638.948	31
640.141	27
641.334	31.5
642.525	27.5
643.717	28.5
644.909	29.5
646.099	27
647.291	28
648.483	27
649.674	30.5
650.864	28.5
652.055	25
653.244	23.5
654.435	30
655.625	27
656.814	32.5
658.004	28
659.193	26.5
660.382	24
661.571	30
662.759	26
663.948	30
665.135	28.5
666.324	31.5
667.511	30.5
668.7	32.5
669.886	31
671.074	30
672.262	26
673.448	27
674.634	28
675.821	27.5
677.007	34.5
678.194	29
679.379	34
680.565	30
681.75	26
682.936	34
684.121	37
685.305	31
686.491	37
687.675	32.5
688.86	30
690.043	31.5
691.227	31.5
692.411	28.5
693.594	33
694.777	33
695.961	34
697.144	30.5
698.326	34.5
699.509	32.5
700.691	38.5
701.873	34
703.056	40.5
704.237	41.5
705.419	41
706.599	46
707.782	41.5
708.962	46
710.143	44
711.323	46
712.504	42
713.684	38.5
714.864	36
716.043	34
717.223	33
718.403	28
719.582	31.5
720.761	26
721.94	27.5
723.118	31
724.296	30
725.474	26
726.652	26
727.831	24.5
729.009	27
730.186	28
731.363	29
732.54	24
733.717	28.5
734.893	29.5
736.07	29
737.246	28
738.422	26
739.598	26.5
740.773	26.5
741.949	27.5
743.124	28
744.299	25
745.474	32.5
746.649	30
747.823	27.5
748.997	26
750.172	26.5
751.346	30
752.519	27
753.693	31.5
754.867	32.5
756.038	26
757.211	26.5
758.384	26
759.557	27
760.73	28
761.902	27.5
763.074	29
764.246	28
765.417	25.5
766.588	31
767.76	28
768.931	26
770.102	27.5
771.271	27.5
772.442	26
773.613	25
774.783	26.5
775.952	27.5
777.122	25
778.291	33
779.461	30
780.629	30
781.798	28.5
782.967	31
784.135	29
785.304	29.5
786.472	32
787.639	31
788.807	28
789.975	30.5
791.142	27
792.309	29
793.477	27
794.642	32
795.81	29.5
796.975	24
798.142	29
799.308	25
800.473	28.5
801.639	26
802.804	31
803.97	33.5
805.134	27
806.299	25.5
807.463	28.5
808.628	29
809.792	28.5
810.957	28
812.12	27.5
813.284	30
814.447	27
815.611	25
816.773	26
817.937	27
819.099	25.5
820.261	25.5
821.424	27
822.585	26
823.748	27
824.909	25.5
826.07	29.5
827.232	27
828.393	31
829.554	24.5
830.715	26.5
831.875	26.5
833.035	28
834.196	25
835.356	26.5
836.515	24
837.676	30.5
838.835	29.5
839.994	30.5
841.152	27
842.312	29
843.47	29
844.629	26
845.786	29.5
846.946	28
848.103	26.5
849.261	26
850.418	29
851.575	29.5
852.733	28
853.89	30
855.046	24.5
856.203	24
857.359	28
858.515	26
859.67	31.5
860.827	26.5
861.983	27.5
863.138	30.5
864.293	27
865.448	25.5
866.603	28.5
867.757	23
868.912	28
870.066	28.5
871.22	27
872.374	27.5
873.527	27.5
874.681	30
875.834	26.5
876.987	29
878.14	23
879.293	25
880.445	27.5
881.598	24.5
882.75	24
883.902	27
885.054	27
886.206	25.5
887.357	27.5
888.507	26
889.658	25
890.809	28.5
891.96	27.5
893.111	24.5
894.261	24.5
895.411	24
896.561	28
897.71	27.5
898.86	24
900.009	30
901.159	27.5
902.308	30
903.455	29
904.604	29
905.753	25.5
906.901	28
908.048	26
909.197	26.5
910.344	25
911.492	27
912.639	29
913.786	23.5
914.933	26.5
916.079	24.5
917.226	26
918.373	25.5
919.518	24
920.664	24
921.81	26
922.955	28
924.101	29
925.245	25
926.391	28
927.536	26
928.68	29
929.825	26
930.968	24.5
932.113	27.5
933.256	25.5
934.4	24
935.543	25.5
936.687	27
937.83	24.5
938.973	28
940.115	25.5
941.258	25
942.399	27.5
943.542	26
944.684	26.5
945.826	27
946.967	28
948.109	27.5
949.25	26
950.392	28
951.532	26
952.672	31
953.813	28
954.953	28.5
956.093	27.5
957.233	26.5
958.373	26.5
959.512	27
960.652	22.5
961.791	25.5
962.929	22
964.069	24.5
965.207	23.5
966.345	25
967.484	22
968.622	26
969.759	25.5
970.896	26.25
972.035	27
973.172	26
974.309	22
975.445	29
976.582	24
977.719	28
978.855	28.5
979.991	28
981.127	28
982.263	29.5
983.398	26.5
984.535	24.5
985.67	23
986.804	24.5
987.939	26.5
989.074	26.5
990.208	26.5
991.342	29.5
992.476	30
993.61	23.5
994.744	29
995.877	25
997.01	24
998.143	26
999.276	26.5
1000.41	27
1001.54	28
1002.67	24
1003.81	26.5
1004.94	22.5
1006.07	29.5
1007.2	28.5
1008.33	30.5
1009.47	23
1010.6	23
1011.73	25.5
1012.86	28
1013.99	29
1015.12	26.5
1016.25	25
1017.38	26
1018.51	27.5
1019.64	28
1020.77	28.5
1021.9	23.5
1023.03	28.5
1024.15	25.5
1025.28	27
1026.41	27
1027.54	25.5
1028.67	24.5
1029.8	19
1030.92	27.5
1032.05	24
1033.18	27
1034.31	25.5
1035.43	25.5
1036.56	31
1037.69	25.5
1038.81	30.5
1039.94	20.5
1041.07	27
1042.19	28.5
1043.32	27.5
1044.44	26
1045.57	28
1046.69	28
1047.82	27
1048.94	25
1050.07	24
1051.19	28
1052.32	23
1053.44	27.5
1054.57	25.5
1055.69	25.5
1056.81	27.5
1057.94	23
1059.06	27.5
1060.18	23.5
1061.31	25.5
1062.43	25.5
1063.55	26.5
1064.67	24.5
1065.8	23
1066.92	26
1068.04	23.5
1069.16	25.5
1070.28	27
1071.4	19
1072.52	27
1073.64	26
1074.76	25
1075.89	23.5
1077.01	29
1078.13	24.5
1079.25	25.5
1080.37	21
1081.49	24
1082.6	26.5
1083.72	22.5
1084.84	25
1085.96	24
1087.08	26
1088.2	26
1089.32	23.5
1090.43	25
1091.55	26.5
1092.67	27
1093.79	31.5
1094.91	22.5
1096.02	26
1097.14	26
1098.26	27
1099.37	22
1100.49	27.5
1101.61	26.5
1102.72	26.5
1103.84	26
1104.95	26.5
1106.07	28
1107.18	24.5
1108.3	25
1109.41	27.5
1110.53	22.5
1111.64	24.5
1112.76	24
1113.87	24.5
1114.99	26.5
1116.1	26.5
1117.21	23
1118.33	25
1119.44	22
1120.55	23.5
1121.67	25
1122.78	27
1123.89	22
1125	27
1126.12	22.5
1127.23	26.5
1128.34	25
1129.45	22
1130.56	30
1131.68	21
1132.79	23.5
1133.9	26
1135.01	26
1136.12	27
1137.23	27.5
1138.34	25
1139.45	25
1140.56	22
1141.67	27
1142.78	24.5
1143.89	23
1145	25.5
1146.11	30
1147.22	25
1148.32	24.5
1149.43	29.5
1150.54	25
1151.65	23.5
1152.76	26.5
1153.86	23
1154.97	25
1156.08	26.5
1157.19	28.5
1158.29	27
1159.4	24.5
1160.51	25
1161.61	25
1162.72	24
1163.83	27
1164.93	28
1166.04	23
1167.14	26
1168.25	26.5
1169.35	31
1170.46	25.5
1171.56	25.5
1172.67	23.5
1173.77	21
1174.88	25
1175.98	24
1177.08	29
1178.19	28
1179.29	21.5
1180.4	23
1181.5	27
1182.6	24.5
1183.71	25.5
1184.81	24
1185.91	24.5
1187.01	23.5
1188.12	25
1189.22	25
1190.32	26
1191.42	27
1192.52	19
1193.62	26
1194.72	24.0087
1195.83	20.0728
1196.93	20.1238
1198.03	21.1631
1199.13	25.0703
1200.23	24.018
1201.33	25.2709
1202.43	22.5728
1203.53	24.3813
1204.63	27.3701
1205.73	20.6529
1206.83	22.0181
1207.92	22.1499
1209.02	25.0042
1210.12	24.0817
1211.22	25.3606
1212.32	23.2873
1213.42	22.1586
1214.51	22.5115
1215.61	23.0348
1216.71	21.7083
1217.81	21.6799
1218.9	25.6895
1220	23.8661
1221.1	23.2972
1222.19	23.313
1223.29	25.063
1224.39	21.6246
1225.48	25.057
1226.58	24.2759
1227.68	24
1228.77	25.7556
1229.87	25.3036
1230.96	24.6501
1232.06	25.7421
1233.15	23.3786
1234.25	24.3409
1235.34	23.0665
1236.43	25.7964
1237.53	24.4768
1238.62	23.0258
1239.72	21.0251
1240.81	24.1002
1241.9	24.9904
1243	25.0854
1244.09	27.0727
1245.18	23.3767
1246.27	22.4557
1247.37	27.101
1248.46	24.2209
1249.55	23.1839
1250.64	24.0306
1251.74	24.0021
1252.83	26.0076
1253.92	26.4254
1255.01	24.6162
1256.1	24.4393
1257.19	25.259
1258.28	24.5617
1259.38	21.8874
1260.46	25.5608
1261.56	26.4775
1262.65	26.5257
1263.74	26.3975
1264.82	28.9852
1265.91	22.8989
1267	25.6673
1268.09	26.8743
1269.18	25.6769
1270.27	25.9984
1271.36	25.1285
1272.45	22.7959
1273.54	22.7706
1274.63	24.8627
1275.71	22.705
1276.8	22.8307
1277.89	22.4718
1278.98	23.3515
1280.06	24.0109
1281.15	25.1151
1282.24	25.4169
1283.32	22.8062
1284.41	23.3225
1285.5	25.9874
1286.58	21.3278
1287.67	24.1009
1288.76	22.1756
1289.84	24.6451
1290.93	26.2608
1292.01	24.3111
1293.1	25.0471
1294.18	24.2098
1295.27	23.4925
1296.35	24.5545
1297.44	24.2808
1298.52	21.0108
1299.6	23.4487
1300.69	24.6484
1301.77	28.3625
1302.86	24.808
1303.94	21.6044
1305.02	22.4982
1306.11	24.4342
1306.41	25
1307.5	25
1308.59	23.5
1309.68	27
1310.77	24
1311.85	23.5
1312.94	24
1314.03	23
1315.11	26
1316.2	20.5
1317.29	23.5
1318.37	22.5
1319.46	26
1320.55	24.5
1321.63	24.5
1322.72	22
1323.8	27
1324.89	26
1325.98	24
1327.06	23.5
1328.15	25.5
1329.23	24.5
1330.31	22.5
1331.4	25.5
1332.48	25.5
1333.57	24.5
1334.65	27
1335.74	26
1336.82	23.5
1337.9	24
1338.99	26.5
1340.07	23
1341.15	26.5
1342.24	26
1343.32	26
1344.4	22.5
1345.48	25
1346.56	24.5
1347.65	25
1348.73	24
1349.81	23.5
1350.89	26
1351.97	27
1353.05	22.5
1354.13	22
1355.21	23.5
1356.29	26.5
1357.37	23.5
1358.46	23.5
1359.54	25
1360.62	25.5
1361.69	22
1362.77	23
1363.85	24
1364.93	23.5
1366.01	24.5
1367.09	23
1368.17	24
1369.25	26.5
1370.33	24
1371.41	22.5
1372.48	22
1373.56	23
1374.64	21
1375.72	25.5
1376.79	25
1377.87	26
1378.95	25
1380.02	23.5
1381.1	25
1382.18	22
1383.25	26.5
1384.33	25.5
1385.4	24
1386.48	24
1387.56	27.5
1388.63	28.5
1389.71	25
1390.78	24
1391.86	28
1392.93	26
1394.01	29.5
1395.08	29.5
1396.15	24
1397.23	28
1398.3	23.5
1399.38	29
1400.45	29
1401.52	28.5
1402.6	30
1403.67	24
1404.74	27
1405.81	31.5
1406.89	27.5
1407.96	29
1409.03	29.5
1410.1	27
1411.17	24.5
1412.25	31.5
1413.32	28.5
1414.39	33.5
1415.46	29.5
1416.53	26
1417.6	26
1418.67	23
1419.74	29.5
1420.81	27
1421.88	23.5
1422.95	28
1424.02	25
1425.09	31
1426.16	25.5
1427.23	27.5
1428.3	28
1429.37	26.5
1430.44	24
1431.51	24
1432.58	30.5
1433.64	26
1434.71	28.5
1435.78	27
1436.85	23
1437.92	26
1438.98	26.5
1440.05	26.5
1441.12	28.5
1442.18	25
1443.25	25
1444.32	28.5
1445.38	23.5
1446.45	28
1447.52	24.5
1448.58	26
1449.65	24
1450.71	25.5
1451.78	26.5
1452.84	22.5
1453.91	25.5
1454.97	23.5
1456.04	29.5
1457.1	25.5
1458.17	23.5
1459.23	25.5
1460.3	21
1461.36	23.5
1462.42	26
1463.49	28
1464.55	26.5
1465.61	24
1466.68	24.5
1467.74	20
1468.8	26.5
1469.86	20
1470.93	25
1471.99	27
1473.05	23
1474.11	27
1475.17	24
1476.24	24.5
1477.3	23
1478.36	26
1479.42	24.5
1480.48	24.5
1481.54	28
1482.6	25.5
1483.66	27
1484.72	26.5
1485.78	23
1486.84	24.5
1487.9	27.5
1488.96	30
1490.02	21.5
1491.08	25
1492.14	27.5
1493.2	20.5
1494.26	27
1495.31	27.5
1496.37	29.5
1497.43	26
1498.49	27.5
1499.55	22.5
1500.6	25
1501.66	23
1502.72	24.5
1503.78	22
1504.83	23.5
1505.89	25.5
1506.95	24
1508	25
1509.06	24.5
1510.12	27.5
1511.17	27.5
1512.23	24
1513.28	24.5
1514.34	28
1515.39	26
1516.45	27
1517.5	26
1518.56	26.5
1519.61	26
1520.67	25
1521.72	20
1522.78	28
1523.83	26.5
1524.88	25.5
1525.94	22
1526.99	26
1528.05	29
1529.1	24
1530.15	26.5
1531.2	29
1532.26	28
1533.31	25.5
1534.36	27.5
1535.41	25.5
1536.47	19.5
1537.52	28
1538.57	22
1539.62	22.5
1540.67	19
1541.72	24.5
1542.77	29.5
1543.83	23
1544.88	28.5
1545.93	26
1546.98	27.5
1548.03	25.5
1549.08	26.5
1550.13	23
1551.18	25
1552.23	23
1553.28	26
1554.32	25
1555.37	25.5
1556.42	23.5
1557.47	29
1558.52	23.5
1559.57	25
1560.62	25.5
1561.67	27
1562.71	23.5
1563.76	26
1564.81	21
1565.86	25
1566.9	27
1567.95	21
1569	28
1570.04	28
1571.09	24
1572.14	24.5
1573.18	24.5
1574.23	25
1575.27	24.5
1576.32	26
1577.37	27
1578.41	25.5
1579.46	26
1580.5	25
1581.55	26
1582.59	25
1583.64	28
1584.68	22
1585.72	24
1586.77	27
1587.81	23.5
1588.86	28.5
1589.9	22.5
1590.94	24
1591.99	25
1593.03	25
1594.07	28
1595.12	26.5
1596.16	24.5
1597.2	25.5
1598.24	24.5
1599.29	23.5
1600.33	25.5
1601.37	25
1602.41	26.5
1603.45	28
1604.49	20
1605.53	24.5
1606.58	21.5
1607.62	23.5
1608.66	28
1609.7	23
1610.74	26.5
1611.78	27
1612.82	28
1613.86	26
1614.9	22.5
1615.94	23
1616.98	25
1618.02	25
1619.06	24.5
1620.09	25.5
1621.13	25
1622.17	24.5
1623.21	25.5
1624.25	24
1625.29	23
1626.32	24.5
1627.36	20.5
1628.4	26
1629.44	24
1630.47	25.5
1631.51	23.5
1632.55	24
1633.58	24.5
1634.62	24
1635.66	30
1636.69	26
1637.73	28
1638.77	24
1639.8	26
1640.84	21
1641.87	26
1642.91	26
1643.94	23
1644.98	23
1646.01	24.5
1647.05	30.5
1648.08	27
1649.12	26
1650.15	25.5
1651.18	29
1652.22	27
1653.25	23
1654.29	22
1655.32	25
1656.35	26.5
1657.39	25
1658.42	27
1659.45	24
1660.48	26
1661.52	24
1662.55	27.5
1663.58	23.5
1664.61	25
1665.64	24.5
1666.68	25.5
1667.71	20.5
1668.74	26
1669.77	22
1670.8	27
1671.83	26
1672.86	24.5
1673.89	26
1674.92	20.5
1675.95	27.5
1676.98	24
1678.01	25
1679.04	25
1680.07	28.5
1681.1	27
1682.13	24.5
1683.16	24.5
1684.19	24
1685.22	27.5
1686.25	26
1687.27	24.5
1688.3	27
1689.33	24
1690.36	25
1691.38	26
1692.41	23.5
1693.44	25
1694.47	27
1695.49	28
1696.52	23.5
1697.55	22
1698.57	22
1699.6	27.5
1700.63	25.5
1701.65	27
1702.68	23
1703.7	25.5
1704.73	25
1705.76	26
1706.78	27
1707.81	24
1708.83	27
1709.86	25
1710.88	22
1711.91	25.5
1712.93	25
1713.95	26
1714.98	21
1716	25.5
1717.03	25
1718.05	23
1719.07	25.5
1720.1	20.5
1721.12	23.5
1722.14	27
1723.16	23
1724.19	29.5
1725.21	30.5
1726.23	24.5
1727.25	24
1728.28	22.5
1729.3	28
1730.32	26.5
1731.34	26.5
1732.36	27
1733.38	20
1734.41	25.5
1735.43	22.5
1736.45	24.5
1737.47	26.5
1738.49	23
1739.51	25
1740.53	23
1741.55	24
1742.57	23.5
1743.59	23
1744.61	22.5
1745.63	26
1746.64	24.5
1747.66	26.5
1748.68	24
1749.7	27
1750.72	25
1751.74	23
1752.76	25
1753.77	22
1754.79	29.5
1755.81	22.5
1756.83	26.5
1757.84	25
1758.86	26.5
1759.88	24
1760.9	21
1761.91	29
1762.93	25
1763.95	27
1764.96	23.5
1765.98	28
1766.99	20.5
1768.01	23.5
1769.02	24
1770.04	25
1771.06	24.5
1772.07	21.5
1773.09	25
1774.1	23.5
1775.12	20.5
1776.13	27.5
1777.14	26
1778.16	24
1779.17	25
1780.19	28
1781.2	24.5
1782.21	26
1783.23	25
1784.24	24
1785.25	23.5
1786.27	24.5
1787.28	25
1788.29	27.5
1789.3	26
1790.32	20.5
1791.33	24
1792.34	25.5
1793.35	28
1794.36	24.5
1795.38	28
1796.39	20.5
1797.4	26.5
1798.41	24
1799.42	27
1800.43	24
1801.44	21.5
1802.45	23
1803.46	24
1804.47	24
1805.48	25
1806.49	23.5
1807.5	25
1808.51	24.5
1809.52	23.5
1810.53	25.5
1811.54	24.5
1812.55	24.5
1813.56	26.5
1814.57	23
1815.57	23.5
1816.58	22
1817.59	25.5
1818.6	24
1819.61	22
1820.61	21
1821.62	26
1822.63	23.5
1823.64	25
1824.64	26.5
1825.65	22.5
1826.66	24
1827.66	27
1828.67	26.5
1829.68	25
1830.68	23.5
1831.69	26
1832.69	28
1833.7	24
1834.7	24.5
1835.71	22
1836.71	27
1837.72	23
1838.72	26
1839.73	24
1840.73	29
1841.74	24
1842.74	20.5
1843.75	24.5
1844.75	25
1845.75	23.5
1846.76	26.5
1847.76	24
1848.76	23.5
1849.77	24.5
1850.77	26.5
1851.77	26
1852.78	22
1853.78	22
1854.78	31
1855.78	25
1856.78	26.5
1857.79	24.5
1858.79	24
1859.79	24
1860.79	25
1861.79	25.5
1862.79	22.5
1863.79	28
1864.79	29
1865.79	23.5
1866.8	26
1867.8	24.5
1868.8	25.5
1869.8	21
1870.8	26.5
1871.8	26.5
1872.8	23.5
1873.79	23
1874.79	26.5
1875.79	26
1876.79	23
1877.79	20
1878.79	22.5
1879.79	25.5
1880.79	25
1881.78	22.5
1882.78	22.5
1883.78	31.5
1884.78	22
1885.77	26
1886.77	24
1887.77	26
1888.77	24
1889.76	24.5
1890.76	21.5
1891.76	20.5
1892.75	24
1893.75	23.5
1894.75	28
1895.74	25.5
1896.74	25.5
1897.73	21.5
1898.73	25
1899.73	26.5
1900.72	24.5
1901.72	25
1902.71	22
1903.7	23.5
1904.7	22.5
1905.69	24.5
1906.69	25.5
1907.68	27.5
1908.68	26
1909.67	25.5
1910.66	26
1911.66	23
1912.65	25
1913.64	22.5
1914.64	25.5
1915.63	23.5
1916.62	22.5
1917.62	24.5
1918.61	23.5
1919.6	25.5
1920.59	23
1921.58	28
1922.58	23.5
1923.57	22
1924.56	24
1925.55	24.5
1926.54	24.5
1927.53	23
1928.52	25
1929.51	22.5
1930.51	26
1931.5	23
1932.49	25
1933.48	25.5
1934.47	27
1935.46	24.5
1936.45	24.5
1937.44	26
1938.42	24.5
1939.41	24.5
1940.4	27
1941.39	24.5
1942.38	25
1943.37	24
1944.36	28.5
1945.35	23.5
1946.33	25
1947.32	25
1948.31	26
1949.3	25
1950.29	22.5
1951.27	21
1952.26	25
1953.25	27
1954.23	24
1955.22	26.5
1956.21	22
1957.19	27.5
1958.18	27
1959.17	23
1960.15	24.5
1961.14	23
1962.13	22.5
1963.11	25
1964.1	22.5
1965.08	25
1966.07	25.5
1967.05	23.5
1968.04	23.5
1969.02	28
1970.01	26.5
1970.99	20
1971.97	24
1972.96	25.5
1973.94	26
1974.93	22
1975.91	22
1976.89	25
1977.88	21.5
1978.86	25
1979.84	20
1980.83	27.5
1981.81	24
1982.79	25
1983.77	25.5
1984.76	24
1985.74	28.5
1986.72	23.5
1987.7	22
1988.68	23
1989.67	22.5
1990.65	18
1991.63	25
1992.61	27
1993.59	23.5
1994.57	23.5
1995.55	19
1996.53	24
1997.51	25
1998.49	21
1999.47	23
2000.45	21
2001.43	24
2002.41	24
2003.39	25
2004.37	22
2005.35	22.5
2006.33	27
2007.31	22
2008.29	25
2009.26	22.5
2010.24	23
2011.22	26
2012.2	21
2013.18	22.5
2014.15	25.5
2015.13	24.5
2016.11	24
2017.09	20
2018.06	24
2019.04	20
2020.02	23.5
2021	26.5
2021.97	24
2022.95	25
2023.92	25
2024.9	23.5
2025.88	19
2026.85	22.5
2027.83	21
2028.8	23.5
2029.78	23
2030.75	22.5
2031.73	27.5
2032.7	21.5
2033.68	25
2034.65	21.5
2035.63	22.5
2036.6	25
2037.58	23
2038.55	24
2039.52	19
2040.5	25
2041.47	23
2042.45	21.5
2043.42	28
2044.39	27
2045.36	24
2046.34	24
2047.31	24.5
2048.28	24
2049.26	21
2050.23	25.5
2051.2	25.5
2052.17	25
2053.14	22.5
2054.12	24.5
2055.09	25
2056.06	23
2057.03	22.5
2058	26
2058.97	21.5
2059.94	23
2060.91	22
2061.88	22
2062.85	22
2063.82	23.5
2064.79	22
2065.76	24
2066.73	24.5
2067.7	25.5
2068.67	23
2069.64	22.5
2070.61	20
2071.58	25.5
2072.55	20
2073.52	21
2074.49	23
2075.45	23
2076.42	22.5
2077.39	26.5
2078.36	22
2079.33	23.5
2080.29	23.5
2081.26	25
2082.23	22
2083.2	26.5
2084.16	26
2085.13	24
2086.1	22
2087.06	23
2088.03	27
2089	27
2089.96	27
2090.93	24.5
2091.89	25
2092.86	21.5
2093.83	22
2094.79	20
2095.76	25
2096.72	21.5
2097.69	23
2098.65	24
2099.62	27
2100.58	26
2101.55	21
2102.51	23
2103.47	24
2104.44	24
2105.4	25.5
2106.36	23
2107.33	23
2108.29	24
2109.25	26
2110.22	23
2111.18	23.5
2112.14	24.5
2113.11	20
2114.07	23
2115.03	25.5
2115.99	23
2116.96	26
2117.92	23.5
2118.88	23.5
2119.84	25
2120.8	22.5
2121.76	19
2122.72	22.5
2123.68	25
2124.65	19
2125.61	20.5
2126.57	18.5
2127.53	23.5
2128.49	23
2129.45	23.5
2130.41	24.5
2131.37	21
2132.33	23
2133.29	25.5
2134.25	23
2135.21	23.5
2136.17	24.5
2137.12	24
2138.08	21
2139.04	22.5
2140	21
2140.96	19.5
2141.92	23.5
2142.88	25.9709
2143.83	24.8872
2144.79	22.0176
2145.75	19.5896
2146.71	22.9782
2147.66	23.8782
2148.62	25.6222
2149.58	20.5271
2150.53	23.6585
2151.49	23.8394
2152.45	23.8532
2153.4	22.3307
2154.36	21.102
2155.32	23.9124
2156.27	24.4239
2157.23	20.694
2158.19	20.5306
2159.14	22.5078
2160.1	24.1057
2161.05	23.1214
2162.01	24.0693
2162.96	23.3997
2163.92	23.1645
2164.87	24.5899
2165.83	23.5402
2166.78	23.7229
2167.73	21.8133
2168.69	20.9468
2169.64	23.5447
2170.6	22.9272
2171.55	23.1798
2172.5	24.032
2173.46	23.4817
2174.41	21.4804
2175.36	24.4983
2176.32	24.5549
2177.27	21.279
2178.22	23.6196
2179.18	21.3384
2180.13	23.6708
2181.08	20.8142
2182.03	22.5419
2182.98	22.8949
2183.94	21.2546
2184.89	25.2856
2185.84	22.0913
2186.79	24.3959
2187.74	23.9656
2188.69	22.957
2189.64	19.3348
2190.6	22.2775
2191.55	24.1983
2192.5	23.1799
2193.45	19.0257
2194.4	25.232
2195.35	23.3375
2196.3	22.6785
2197.25	22.7778
2198.2	22.5872
2199.15	23.2105
2200.1	24.8305
2201.04	22.5898
2201.99	21.836
2202.94	23.1308
2203.89	23.3194
2204.84	23.2227
2205.79	22.2085
2206.74	23.7234
2207.69	23.6847
2208.63	23.5404
2209.58	22.5
2210.53	22.3471
2211.48	22.7403
2212.43	23.1487
2213.37	24.3725
2214.32	23.2646
2215.27	25.849
2216.21	22.2968
2217.16	24.2963
2218.11	22.565
2219.05	23.2487
2220	20.9949
2220.95	22.8397
2221.89	23.6452
2222.84	23.8204
2223.78	22.4988
2224.73	22.4806
2225.68	23.8831
2226.62	24
2227.57	23.111
2228.51	23.8323
2229.46	22.959
2230.4	22.7961
2231.35	25.7175
2232.29	19.4262
2233.24	22.6562
2234.18	23.5639
2235.12	23.3932
2236.07	23.3689
2237.01	21.2032
2237.95	22.7811
2238.9	22.3775
2239.84	22.7484
2240.06	23
2241.01	22.5
2241.96	25
2242.91	25
2243.86	19
2244.8	24
2245.75	25
2246.7	21
2247.65	20.5
2248.59	21.5
2249.54	28.5
2250.49	23
2251.43	21
2252.38	18.5
2253.33	22
2254.27	20.5
2255.22	21.5
2256.16	26.5
2257.11	26.5
2258.06	23
2259	21.5
2259.95	26.5
2260.89	24.5
2261.84	24.5
2262.78	20.5
2263.73	23
2264.67	23
2265.62	24.5
2266.56	24.5
2267.5	22
2268.45	25
2269.39	22
2270.34	23
2271.28	24
2272.22	21
2273.17	25
2274.11	22.5
2275.05	26
2276	23
2276.94	26.5
2277.88	22.5
2278.82	21
2279.77	24.5
2280.71	22
2281.65	21.5
2282.59	20.5
2283.53	27
2284.48	23
2285.42	24.5
2286.36	19
2287.3	25.5
2288.24	23.5
2289.18	22
2290.12	23
2291.06	24
2292	24
2292.94	25
2293.89	25.5
2294.83	22.5
2295.77	23
2296.71	23
2297.65	23
2298.58	23.5
2299.52	24.5
2300.46	22.5
2301.4	19.5
2302.34	23
2303.28	21
2304.22	18
2305.16	22.5
2306.1	23
2307.03	22.5
2307.97	24
2308.91	24
2309.85	22.5
2310.79	25
2311.72	22.5
2312.66	23
2313.6	23
2314.54	23.5
2315.47	24.5
2316.41	23
2317.35	23
2318.28	24.5
2319.22	21
2320.16	27
2321.09	26.5
2322.03	24
2322.96	22
2323.9	24.5
2324.84	23
2325.77	25
2326.71	22
2327.64	23.5
2328.58	21.5
2329.51	22.5
2330.45	24
2331.38	23
2332.32	24.5
2333.25	25.5
2334.18	26
2335.12	24
2336.05	23.5
2336.99	19
2337.92	23
2338.85	24.5
2339.79	24
2340.72	20
2341.65	23
2342.59	22
2343.52	23
2344.45	25
2345.39	25
2346.32	25.5
2347.25	26
2348.18	25
2349.11	24.5
2350.05	22
2350.98	23.5
2351.91	24
2352.84	25.5
2353.77	24
2354.7	24
2355.64	21.5
2356.57	26
2357.5	25
2358.43	26
2359.36	27
2360.29	23.5
2361.22	24
2362.15	26.5
2363.08	25
2364.01	25.5
2364.94	24
2365.87	25
2366.8	27
2367.73	22.5
2368.66	24.5
2369.58	24
2370.51	21
2371.44	27
2372.37	26
2373.3	20
2374.23	21
2375.16	24
2376.08	26
2377.01	22.5
2377.94	23.5
2378.87	25
2379.8	21
2380.72	24
2381.65	24
2382.58	24.5
2383.5	25.5
2384.43	24
2385.36	27.5
2386.28	19.5
2387.21	23.5
2388.14	25
2389.06	21
2389.99	23
2390.91	23
2391.84	24.5
2392.77	25
2393.69	24
2394.62	25
2395.54	22.5
2396.47	24
2397.39	23
2398.32	24.5
2399.24	25.5
2400.16	24.5
2401.09	24
2402.01	18
2402.94	25.5
2403.86	24.5
2404.78	24.5
2405.71	23.5
2406.63	26
2407.56	20.5
2408.48	24
2409.4	22
2410.32	22.5
2411.25	24
2412.17	24
2413.09	25
2414.02	26.5
2414.94	23.5
2415.86	21.5
2416.78	24
2417.7	22.5
2418.63	25
2419.55	23
2420.47	23.5
2421.39	21
2422.31	27.5
2423.23	25
2424.15	23
2425.07	21.5
2425.99	23.5
2426.92	24.5
2427.84	22.5
2428.76	26.5
2429.68	22.5
2430.59	22.5
2431.51	27
2432.43	25.5
2433.35	22
2434.27	24.5
2435.19	22
2436.11	27.5
2437.03	24.5
2437.95	21.5
2438.87	22
2439.79	21.5
2440.71	27
2441.62	26
2442.54	25.5
2443.46	26
2444.38	23
2445.3	24
2446.21	26.5
2447.13	25
2448.05	25
2448.97	22
2449.88	24
2450.8	20.5
2451.72	25
2452.63	25
2453.55	24.5
2454.47	25.5
2455.38	23
2456.3	22.5
2457.21	24
2458.13	20
2459.05	26
2459.96	23
2460.88	23.5
2461.79	25.5
2462.71	24
2463.62	26
2464.54	24
2465.45	22
2466.37	25.5
2467.28	19
2468.2	23.5
2469.11	21.5
2470.02	24.5
2470.94	24.5
2471.85	22.5
2472.77	23.5
2473.68	24
2474.59	26.5
2475.51	24
2476.42	21
2477.33	21
2478.25	24.5
2479.16	23
2480.07	21
2480.98	22
2481.9	24
2482.81	23.5
2483.72	22.5
2484.63	23.5
2485.55	22.5
2486.46	22
2487.37	23.5
2488.28	26
2489.19	27
2490.1	25
2491.01	22
2491.92	24.5
2492.83	27
2493.74	26.5
2494.66	25
2495.57	24
2496.48	23
2497.39	21
2498.3	19
2499.21	23.5
2500.12	20.5
2501.03	26.5
2501.93	27
2502.84	24.5
2503.75	25
2504.66	23
2505.57	26.5
2506.48	24.5
2507.39	24.5
2508.3	21.5
2509.21	23.5
2510.11	22.5
2511.02	27
2511.93	22
2512.84	25
2513.75	24
2514.65	25
2515.56	24.5
2516.47	25.5
2517.37	24.5
2518.28	24
2519.19	22
2520.09	24.5
2521	23
2521.91	22
2522.81	20
2523.72	24
2524.63	25
2525.53	28
2526.44	23
2527.34	20.5
2528.25	27
2529.16	22
2530.06	25
2530.97	24.5
2531.87	25.5
2532.78	24.5
2533.68	23
2534.58	24
2535.49	26
2536.39	23.5
2537.3	27.5
2538.2	21
2539.11	22.5
2540.01	25.5
2540.91	21.5
2541.82	25.5
2542.72	23
2543.62	24
2544.53	20.5
2545.43	26
2546.33	25.5
2547.23	23
2548.14	25
2549.04	20
2549.94	25.5
2550.84	25.5
2551.75	21
2552.65	23
2553.55	26
2554.45	23
2555.35	25
2556.26	26.5
2557.16	25
2558.06	23
2558.96	24.5
2559.86	29.5
2560.76	24.5
2561.66	22.5
2562.56	24
2563.46	22
2564.36	25
2565.26	23
2566.16	23
2567.06	25
2567.96	19.5
2568.86	23
2569.76	23
2570.66	28
2571.56	25
2572.46	25.5
2573.36	23
2574.26	21
2575.16	27
2576.05	22
2576.95	23
2577.85	23
2578.75	22.5
2579.65	24
2580.54	25
2581.44	25.5
2582.34	27
2583.24	25.5
2584.13	22.5
2585.03	22.5
2585.93	24
2586.83	23
2587.72	24.5
2588.62	21
2589.52	23.5
2590.41	23.5
2591.31	26
2592.2	25.5
2593.1	23.5
2594	21
2594.89	24
2595.79	22.5
2596.68	26
2597.58	26
2598.47	24
2599.37	24.5
2600.26	22.5
2601.16	26
2602.05	27
2602.95	24
2603.84	22.5
2604.74	23.5
2605.63	23.5
2606.52	28.5
2607.42	22
2608.31	23.5
2609.21	22
2610.1	22.5
2610.99	20.5
2611.89	25
2612.78	26
2613.67	22
2614.56	25.5
2615.46	22
2616.35	24.5
2617.24	24
2618.13	22.5
2619.03	24.5
2619.92	20.5
2620.81	24.5
2621.7	20.5
2622.59	24.5
2623.49	26.5
2624.38	26
2625.27	23.5
2626.16	28
2627.05	21.5
2627.94	22
2628.83	21
2629.72	26
2630.61	25.5
2631.5	24.5
2632.39	24.5
2633.28	22
2634.17	25
2635.06	23
2635.95	26
2636.84	24.5
2637.73	23.5
2638.62	27
2639.51	23
2640.4	21
2641.29	24.5
2642.18	21
2643.07	22.5
2643.96	21
2644.84	22.5
2645.73	23
2646.62	25.5
2647.51	27.5
2648.4	23
2649.28	24.5
2650.17	22.5
2651.06	23
2651.95	27
2652.83	21
2653.72	23.5
2654.61	25
2655.49	22
2656.38	27
2657.27	22
2658.16	22
2659.04	24.5
2659.93	24
2660.81	24.5
2661.7	24
2662.59	27.5
2663.47	22.5
2664.36	26
2665.24	27
2666.13	23
2667.01	22
2667.9	25.5
2668.78	24.5
2669.67	24
2670.55	27.5
2671.44	22.5
2672.32	23.5
2673.21	23
2674.09	22
2674.97	24
2675.86	21
2676.74	25
2677.62	23
2678.51	25
2679.39	26
2680.27	23
2681.16	22
2682.04	24.5
2682.92	25.5
2683.81	27
2684.69	23.5
2685.57	26
2686.45	19.5
2687.34	25
2688.22	23
2689.1	24
2689.98	27.5
2690.86	22.5
2691.75	22.5
2692.63	26.5
2693.51	25.5
2694.39	23.5
2695.27	27
2696.15	26.5
2697.03	25
2697.91	25.5
2698.79	25.5
2699.67	26
2700.55	22.5
2701.43	24
2702.31	27
2703.19	25.5
2704.07	20
2704.95	24
2705.83	25.5
2706.71	25
2707.59	21.5
2708.47	22.5
2709.35	25
2710.23	24.5
2711.11	22.5
2711.99	23
2712.86	30
2713.74	23.5
2714.62	22
2715.5	24
2716.38	21
2717.26	26.5
2718.13	29.5
2719.01	27.5
2719.89	24
2720.77	22
2721.64	25.5
2722.52	21.5
2723.4	25
2724.27	25.5
2725.15	20.5
2726.03	20
2726.9	23
2727.78	23.5
2728.66	27
2729.53	25.5
2730.41	24
2731.28	27
2732.16	26.5
2733.03	26.5
2733.91	23.5
2734.79	23
2735.66	24
2736.54	27
2737.41	23
2738.29	26
2739.16	22.5
2740.03	25
2740.91	25.5
2741.78	19
2742.66	24.5
2743.53	24
2744.41	24.5
2745.28	23
2746.15	24.5
2747.03	22.5
2747.9	20
2748.77	21
2749.65	21
2750.52	23
2751.39	25.5
2752.27	24.5
2753.14	26
2754.01	21.5
2754.88	25
2755.75	25
2756.63	25
2757.5	22
2758.37	24
2759.24	22
2760.11	22
2760.99	24
2761.86	25.5
2762.73	23
2763.6	25
2764.47	26.5
2765.34	27.5
2766.21	26
2767.08	23.5
2767.95	25
2768.82	23.5
2769.69	27
2770.56	26
2771.43	23
2772.3	25.5
2773.17	25
2774.04	27
2774.91	25
2775.78	24.5
2776.65	21
2777.52	25
2778.39	23
2779.26	23
2780.13	25.5
2780.99	21
2781.86	25
2782.73	28
2783.6	23
2784.47	25.5
2785.34	24
2786.2	21
2787.07	27
2787.94	27
2788.81	28
2789.67	28
2790.54	26.5
2791.41	24.5
2792.27	22
2793.14	25
2794.01	24
2794.87	26.5
2795.74	25
2796.61	26
2797.47	25.5
2798.34	27
2799.21	23
2800.07	21.5
2800.94	24.5
2801.8	26
2802.67	27.5
2803.53	26.5
2804.4	24.5
2805.26	24.5
2806.13	28
2806.99	23.5
2807.86	24
2808.72	25
2809.59	28
2810.45	31
2811.32	23.5
2812.18	23.5
2813.04	30
2813.91	23.5
2814.77	23
2815.64	23.5
2816.5	23
2817.36	26.5
2818.22	20
2819.09	24
2819.95	22
2820.81	24.5
2821.68	19
2822.54	26
2823.4	23
2824.26	24.5
2825.13	23.5
2825.99	25
2826.85	26
2827.71	26
2828.57	24
2829.44	29
2830.3	24.5
2831.16	29
2832.02	26
2832.88	25
2833.74	27
2834.6	19
2835.46	24.5
2836.32	24
2837.18	23
2838.04	24
2838.9	22.5
2839.76	21.5
2840.62	26
2841.48	26
2842.34	23
2843.2	23.5
2844.06	26
2844.92	24
2845.78	22.5
2846.64	23
2847.5	26.5
2848.36	25
2849.22	29
2850.08	26
2850.93	23.5
2851.79	24.5
2852.65	23.5
2853.51	21
2854.37	24.5
2855.22	26.5
2856.08	24.5
2856.94	23
2857.8	29.5
2858.65	28.5
2859.51	27
2860.37	25.5
2861.23	28
2862.08	29
2862.94	24.5
2863.79	26
2864.65	24.5
2865.51	29
2866.36	30.5
2867.22	22
2868.08	25.5
2868.93	24
2869.79	31.5
2870.64	29
2871.5	29
2872.35	28
2873.21	26
2874.06	30
2874.92	28
2875.77	23.5
2876.63	27.5
2877.48	28
2878.34	28
2879.19	27
2880.05	32.5
2880.9	31
2881.76	33
2882.61	29
2883.46	33
2884.32	31
2885.17	32
2886.02	33.5
2886.88	27
2887.73	34
2888.58	28.5
2889.44	33.5
2890.29	34
2891.14	35.5
2891.99	36
2892.85	37
2893.7	36
2894.55	44.5
2895.4	43
2896.25	46.5
2897.11	44
2897.96	47.5
2898.81	43.5
2899.66	47.5
2900.51	52
2901.36	55.5
2902.21	57
2903.07	53
2903.92	59
2904.77	60
2905.62	59
2906.47	57
2907.32	59.5
2908.17	61
2909.02	60
2909.87	57.5
2910.72	53
2911.57	47
2912.42	48
2913.27	51
2914.12	39.5
2914.97	43.5
2915.81	44.5
2916.66	35.5
2917.51	40.5
2918.36	34
2919.21	34
2920.06	36.5
2920.91	35.5
2921.75	31
2922.6	36.5
2923.45	30.5
2924.3	29
2925.15	26.5
2925.99	30.5
2926.84	26.5
2927.69	26
2928.54	30.5
2929.38	27.5
2930.23	27.5
2931.08	27.5
2931.92	25
2932.77	26
2933.62	21
2934.46	26
2935.31	32.5
2936.16	29
2937	28
2937.85	29
2938.69	29
2939.54	29.5
2940.38	25.5
2941.23	25
2942.08	28
2942.92	26
2943.77	30
2944.61	25
2945.46	26.5
2946.3	29.5
2947.15	24
2947.99	27
2948.83	28
2949.68	25
2950.52	32.5
2951.37	28
2952.21	31
2953.05	31
2953.9	30
2954.74	34
2955.58	31
2956.43	35
2957.27	32
2958.11	36.5
2958.96	38
2959.8	36
2960.64	37
2961.48	36.5
2962.33	40.5
2963.17	39
2964.01	41.5
2964.85	43
2965.69	39.5
2966.54	36.5
2967.38	39
2968.22	40.5
2969.06	35.5
2969.9	38
2970.74	34.5
2971.58	34.0073
2972.43	30.9644
2973.27	35.4633
2974.11	33.9703
2974.95	28.5178
2975.79	30.2966
2976.63	32.9586
2977.47	28.2742
2978.31	30.3351
2979.15	25.2874
2979.99	30.6942
2980.83	31.0116
2981.67	25.0668
2982.51	27.2147
2983.35	24.5732
2984.19	24.9383
2985.03	29.255
2985.86	27.0212
2986.7	24.5281
2987.54	25.1254
2988.38	25.9786
2989.22	25.9188
2990.06	25.9271
2990.9	25.6686
2991.73	24.7613
2992.57	24.5977
2993.41	26.9372
2994.25	24.1757
2995.09	21.7759
2995.92	27.3135
2996.76	26.3405
2997.6	25.2251
2998.44	25.1922
2999.27	25.2111
3000.11	23.5388
3000.95	22.9564
3001.78	24.3019
3002.62	25.332
3003.46	20.8382
3004.29	24.1614
3005.13	23.0552
3005.96	23.2879
3006.8	22.5316
3007.64	24.2804
3008.47	21.9621
3009.31	23.3008
3010.14	23.9721
3010.98	23.0667
3011.81	22.2965
3012.65	22.6734
3013.48	23.5188
3014.32	22.6736
3015.15	21.2354
3015.99	20.2133
3016.82	23.7421
3017.66	23.8996
3018.49	22.5971
3019.33	23.1951
3020.16	21.2928
3020.99	22.7934
3021.83	23.2723
3022.66	20.5217
3023.5	21.6706
3024.33	23.1755
3025.16	22.7038
3026	23.0024
3026.83	21.8961
3027.66	22.7697
3028.49	24.6555
3029.33	24.316
3030.16	23.5301
3030.99	21.3463
3031.83	20.0922
3032.66	20.5164
3033.49	22.8595
3034.32	21.8447
3035.15	22.7003
3035.99	21.3798
3036.82	24.2265
3037.65	22.9802
3038.48	23.0792
3039.31	21.9654
3040.14	19.7961
3040.97	22.323
3041.81	27.0474
3042.64	25.6715
3043.47	21.5536
3044.3	22.9025
3045.13	25.0685
3045.96	24
3046.79	23.0888
3047.62	21.6614
3048.45	22.0292
3049.28	21.8732
3050.11	20.7138
3050.94	23.8401
3051.77	22.4775
3052.6	21.7281
3053.43	22.7123
3054.26	22.2912
3055.08	20.9452
3055.91	21.5
3056.74	20.9254
3057.26	20
3058.09	22.5
3058.92	27.5
3059.76	21.5
3060.59	23.5
3061.42	20.5
3062.25	22
3063.09	25
3063.92	21.5
3064.75	24
3065.58	26
3066.42	17
3067.25	22
3068.08	25
3068.91	25
3069.74	23
3070.57	22.5
3071.41	24
3072.24	23
3073.07	22
3073.9	18.5
3074.73	22.5
3075.56	23
3076.39	21.5
3077.22	22
3078.05	25.5
3078.88	22
3079.71	22.5
3080.54	25
3081.37	22.5
3082.2	22
3083.03	21.5
3083.86	26
3084.69	24
3085.52	24.5
3086.35	24.5
3087.18	26
3088.01	25
3088.84	23.5
3089.67	22.5
3090.5	21
3091.32	25.5
3092.15	23
3092.98	21
3093.81	25.5
3094.64	22.5
3095.47	24
3096.29	24
3097.12	23.5
3097.95	22.5
3098.78	23
3099.6	21.5
3100.43	18.5
3101.26	23
3102.09	23.5
3102.91	26
3103.74	24
3104.57	22
3105.39	23
3106.22	24
3107.05	23
3107.87	18
3108.7	23
3109.52	24.5
3110.35	23.5
3111.18	22
3112	24.5
3112.83	23
3113.65	22.5
3114.48	26
3115.3	22
3116.13	20
3116.95	26
3117.78	24
3118.6	27
3119.43	24.5
3120.25	21.5
3121.08	28
3121.9	24
3122.72	19
3123.55	20.5
3124.37	24
3125.2	22.5
3126.02	26.5
3126.84	22.5
3127.67	25.5
3128.49	20
3129.31	25.5
3130.14	22
3130.96	23
3131.78	19.5
3132.61	23.5
3133.43	21.5
3134.25	23.5
3135.07	23
3135.89	22.5
3136.72	20
3137.54	29.5
3138.36	24.5
3139.18	20
3140	27
3140.83	26
3141.65	24.5
3142.47	23
3143.29	21.5
3144.11	23.5
3144.93	22
3145.75	19.5
3146.57	19
3147.4	24
3148.22	26
3149.04	23
3149.86	19.5
3150.68	22.5
3151.5	23
3152.32	25
3153.14	24
3153.96	20
3154.78	22.5
3155.59	23.5
3156.42	22
3157.23	22
3158.05	19.5
3158.87	24
3159.69	21
3160.51	24
3161.33	22.5
3162.15	23.5
3162.97	23.5
3163.78	21.5
3164.6	23.5
3165.42	22
3166.24	24
3167.06	22.5
3167.87	23
3168.69	24.5
3169.51	24
3170.33	23.5
3171.14	28
3171.96	20.5
3172.78	23.5
3173.6	21.5
3174.41	21.5
3175.23	23
3176.05	23
3176.86	24
3177.68	24.5
3178.5	23.5
3179.31	24
3180.13	24.5
3180.94	22
3181.76	25.5
3182.58	22
3183.39	20.5
3184.21	22
3185.02	25.5
3185.84	19
3186.65	22.5
3187.47	24
3188.28	21
3189.1	24.5
3189.91	22
3190.73	24
3191.54	23.5
3192.36	21
3193.17	21
3193.98	25
3194.8	22.5
3195.61	22.5
3196.43	22
3197.24	23
3198.05	24.5
3198.87	22.5
3199.68	21.5
3200.49	24
3201.31	21
3202.12	25
3202.93	24
3203.75	24
3204.56	22
3205.37	24.5
3206.18	25
3207	24.5
3207.81	23.5
3208.62	22
3209.43	23.5
3210.24	24.5
3211.06	23.5
3211.87	25.5
3212.68	22
3213.49	22
3214.3	25.5
3215.11	26.5
3215.92	24
3216.73	23.5
3217.55	20.5
3218.36	20.5
3219.17	19
3219.98	23.5
3220.79	25.5
3221.6	20
3222.41	21.5
3223.22	19
3224.03	24
3224.84	21
3225.65	24
3226.46	22.5
3227.27	22
3228.08	22
3228.89	25
3229.7	28
3230.5	25.5
3231.31	26
3232.12	24
3232.93	22
3233.74	29.5
3234.55	23.5
3235.36	24
3236.16	25.5
3236.97	21.5
3237.78	20.5
3238.59	21
3239.4	20
3240.2	25
3241.01	21.5
3241.82	21
3242.63	22.5
3243.43	25.5
3244.24	23.5
3245.05	24.5
3245.85	20.5
3246.66	23.5
3247.47	20
3248.27	21
3249.08	21
3249.89	24.5
3250.69	22
3251.5	22.5
3252.31	26
3253.11	28
3253.92	22.5
3254.72	23.5
3255.53	24
3256.33	22.5
3257.14	26
3257.94	26.5
3258.75	25.5
3259.55	23.5
3260.36	26
3261.16	21
3261.97	23
3262.77	24
3263.58	24
3264.38	23
3265.19	24.5
3265.99	24.5
3266.79	21.5
3267.6	24
3268.4	28
3269.21	22
3270.01	24.5
3270.81	23
3271.62	21
3272.42	26
3273.22	23
3274.03	25
3274.83	23
3275.63	24.5
3276.43	28
3277.24	25.5
3278.04	21
3278.84	23
3279.64	23.5
3280.45	21
3281.25	23.5
3282.05	25.5
3282.85	22
3283.65	22.5
3284.45	25
3285.26	22
3286.06	20.5
3286.86	22.5
3287.66	26
3288.46	24
3289.26	25.5
3290.06	20
3290.86	26
3291.66	23
3292.46	22
3293.26	22
3294.06	25.5
3294.86	21
3295.66	23
3296.46	20.5
3297.26	20.5
3298.06	22
3298.86	21
3299.66	23.5
3300.46	23
3301.26	26
3302.06	20
3302.86	25
3303.66	20
3304.46	25.5
3305.25	21
3306.05	27.5
3306.85	24.5
3307.65	24.5
3308.45	24
3309.25	23
3310.04	22
3310.84	25.5
3311.64	24.5
3312.44	24
3313.23	25
3314.03	23.5
3314.83	25
3315.63	26.5
3316.42	25
3317.22	29.5
3318.02	21
3318.81	25
3319.61	21
3320.41	25.5
3321.2	21
3322	25
3322.8	24
3323.59	24
3324.39	24
3325.18	25
3325.98	20
3326.78	23
3327.57	23.5
3328.37	24.5
3329.16	22
3329.96	22
3330.75	22.5
3331.55	24
3332.34	26
3333.14	22
3333.93	21
3334.73	21.5
3335.52	22
3336.31	22
3337.11	23
3337.9	25.5
3338.7	24.5
3339.49	20.5
3340.28	22
3341.08	25
3341.87	25
3342.66	22
3343.46	25
3344.25	23.5
3345.04	26
3345.84	24.5
3346.63	22.5
3347.42	27.5
3348.22	27
3349.01	29
3349.8	24
3350.59	23.5
3351.39	23
3352.18	26.5
3352.97	21
3353.76	21.5
3354.55	26
3355.35	24
3356.14	24
3356.93	20.5
3357.72	23
3358.51	21
3359.3	25
3360.09	22
3360.88	25.5
3361.67	24
3362.46	22.5
3363.26	23
3364.05	24.5
3364.84	22
3365.63	25
3366.42	24.5
3367.21	24
3368	22.5
3368.79	23.5
3369.58	21.5
3370.37	20.5
3371.15	24
3371.94	26
3372.73	22
3373.52	24
3374.31	24
3375.1	23
3375.89	24
3376.68	22.5
3377.47	23
3378.26	20
3379.04	27
3379.83	24.5
3380.62	23.5
3381.41	25
3382.2	25
3382.98	22.5
3383.77	26
3384.56	29.5
3385.35	23.5
3386.13	25
3386.92	24
3387.71	23.5
3388.5	19.5
3389.28	20.5
3390.07	25.5
3390.86	24.5
3391.64	26
3392.43	22
3393.22	21
3394	25.5
3394.79	23.5
3395.57	22
3396.36	24
3397.15	24
3397.93	24.5
3398.72	19.5
3399.5	22
3400.29	23
3401.07	21
3401.86	29
3402.65	21.5
3403.43	25
3404.21	21.5
3405	24.5
3405.78	23.5
3406.57	21.5
3407.35	25
3408.14	22
3408.92	23.5
3409.71	23
3410.49	21.5
3411.27	27
3412.06	19
3412.84	25
3413.62	22.5
3414.41	21
3415.19	23.5
3415.97	25
3416.76	25.5
3417.54	24
3418.32	23
3419.11	25
3419.89	18.5
3420.67	23.5
3421.46	23
3422.24	23.5
3423.02	19
3423.8	24.5
3424.58	25.5
3425.37	24
3426.15	28
3426.93	22
3427.71	24.5
3428.49	20.5
3429.27	24
3430.05	21.5
3430.84	21
3431.62	27.5
3432.4	25.5
3433.18	22.5
3433.96	26
3434.74	25
3435.52	24
3436.3	22
3437.08	24
3437.86	22
3438.64	23
3439.42	25
3440.2	23.5
3440.98	22
3441.76	23
3442.54	21.5
3443.32	22
3444.1	21
3444.88	21.5
3445.66	24.5
3446.44	23.5
3447.22	26.5
3448	22.5
3448.77	25
3449.55	24.5
3450.33	20
3451.11	23.5
3451.89	22.5
3452.67	24
3453.45	25
3454.22	20.5
3455	24
3455.78	21
3456.56	23
3457.33	18
3458.11	21
3458.89	24
3459.67	23.5
3460.44	27
3461.22	22
3462	24.5
3462.77	24
3463.55	22
3464.33	23.5
3465.1	25
3465.88	24.5
3466.66	21
3467.43	25
3468.21	23.5
3468.98	20.5
3469.76	24
3470.54	23.5
3471.31	26.5
3472.09	24.5
3472.86	26.5
3473.64	25.5
3474.41	21.5
3475.19	24
3475.96	20.5
3476.74	23
3477.51	24.5
3478.29	26
3479.06	22
3479.84	22
3480.61	21
3481.39	26
3482.16	21.5
3482.93	24.5
3483.71	24
3484.48	28.5
3485.25	23
3486.03	23.5
3486.8	24
3487.57	25
3488.35	24
3489.12	22
3489.89	26
3490.67	23
3491.44	25
3492.21	21
3492.99	26
3493.76	22
3494.53	22.5
3495.3	23
3496.08	23.5
3496.85	23.5
3497.62	19
3498.39	21.5
3499.16	24.5
3499.93	25.5
