#Acq. time (s)=	5
#Accumulations=	5
#Range (cm-¹)=	100...3500
#Windows=	4
#Autofocus=	Off
#AutoExposure=	Off
#Spike filter=	Multiple accum.
#Delay time (s)=	0
#Binning=	1
#Readout mode=	Signal
#DeNoise=	Off
#ICS correction=	Off
#Dark correction=	Off
#Inst. Process=	Off
#Instrument=	LabRAM HR Evol
#Detector=	Syncerity OE
#Objective=	x100_VIS
#Grating=	600 (500nm)
#ND Filter=	25%
#Laser=	633nm_Edge
#Hole=	100.021
#Range=	Visible
#Project=	verificaciones
#Sample=	at1
#Site=	plain
#Title=	bolusat1plain
#Remark=	com
#Date=	16.01.2026 16:22
#Acquired=	16.01.2026 16:22:07
100.564	27
101.847	32.5
103.131	34
104.414	32
105.697	29.5
106.979	28.5
108.262	28.5
109.544	28
110.826	30.5
112.109	29.5
113.391	29
114.672	30.5
115.954	29
117.235	29.5
118.515	32
119.796	31
121.076	33
122.357	35.5
123.637	31
124.916	33
126.196	31.5
127.475	32.5
128.754	31.5
130.033	35.5
131.31	34.5
132.589	37
133.867	37.5
135.145	36.5
136.423	37
137.701	36
138.978	37
140.256	35
141.533	37.5
142.809	37.5
144.086	41.5
145.361	39.5
146.637	42
147.913	37.5
149.189	41
150.464	39.5
151.74	41
153.014	40
154.288	43.5
155.563	42
156.838	45
158.112	41.5
159.385	46
160.659	41.5
161.932	39.5
163.206	41.5
164.479	39.5
165.751	42.5
167.024	37.5
168.296	42.5
169.567	40.5
170.84	39
172.112	41.5
173.383	37.5
174.654	36.5
175.925	40.5
177.196	37
178.466	34
179.737	39
181.007	37
182.276	41
183.546	44.5
184.816	43
186.085	41.5
187.354	41
188.624	45.5
189.891	43.5
191.16	41
192.427	40
193.696	40
194.964	40.5
196.231	40
197.499	41.5
198.765	33.5
200.033	37.5
201.298	38.5
202.566	36.5
203.831	40
205.098	38.5
206.363	41.5
207.629	37
208.894	33.5
210.159	37.5
211.424	37
212.689	36
213.953	36.5
215.218	34
216.481	37
217.746	33
219.009	35.5
220.273	33.5
221.536	33.5
222.798	34
224.062	33
225.323	33
226.587	32
227.848	28
229.109	31
230.372	29
231.633	33.5
232.894	29.5
234.156	27.5
235.416	30
236.678	29.5
237.937	26
239.197	28.5
240.457	29
241.717	34
242.976	31
244.235	29.5
245.495	28.5
246.754	30
248.012	32
249.27	30.5
250.529	31
251.787	28
253.045	26
254.302	31
255.56	27
256.817	27.5
258.074	30.5
259.33	26.5
260.586	31.5
261.844	30
263.1	30
264.355	34
265.611	28
266.866	32
268.121	29.5
269.377	29
270.632	30
271.886	28
273.14	27.5
274.394	26
275.648	28.5
276.902	27
278.155	22.5
279.408	31
280.663	32
281.915	25
283.168	28.5
284.42	28
285.673	27
286.925	26
288.176	27.5
289.428	30
290.679	27.5
291.93	28.5
293.181	29
294.432	26.5
295.683	25.5
296.933	29.5
298.183	30.5
299.433	30
300.683	25.5
301.932	31
303.182	29
304.429	28.5
305.678	28
306.927	27
308.176	22
309.424	25
310.672	29
311.92	27
313.168	29
314.415	29.5
315.661	31.5
316.908	28
318.155	32
319.402	27
320.648	24
321.895	28.5
323.139	29.5
324.385	31
325.631	27
326.877	27
328.122	31.5
329.366	27
330.611	25
331.855	28
333.1	32
334.343	32.5
335.587	24
336.831	28
338.074	25.5
339.317	27.5
340.56	28
341.803	27
343.044	28.5
344.287	30
345.53	27.5
346.771	30
348.013	30
349.255	30
350.495	26.5
351.736	27
352.978	26
354.217	30.5
355.458	33
356.699	23
357.938	29
359.178	30
360.417	26
361.657	28
362.895	27
364.135	30.5
365.374	24
366.612	31
367.851	29
369.088	30
370.327	28
371.564	33
372.802	26
374.038	27.5
375.276	26
376.512	26
377.749	28
378.985	28
380.222	25.5
381.457	31.5
382.692	27
383.929	25.5
385.164	23
386.4	31
387.634	26
388.869	24.5
390.103	24.5
391.337	29
392.572	27
393.805	29.5
395.038	29
396.273	27.5
397.506	26.5
398.74	25.5
399.972	27.5
401.204	24
402.437	28
403.669	31
404.901	28
406.132	26.5
407.365	27
408.596	28.5
409.826	25.5
411.058	24.5
412.289	28
413.519	30.5
414.749	29
415.98	29
417.21	30
418.439	32.5
419.668	28
420.897	28
422.128	27
423.356	27
424.585	26.5
425.813	30
427.041	29
428.269	27
429.498	28.5
430.725	32
431.952	28
433.179	31.5
434.406	28
435.633	26
436.859	24.5
438.085	28.5
439.312	26
440.537	30
441.764	27.5
442.99	30
444.215	33
445.44	30
446.665	29.5
447.89	33.5
449.114	31
450.339	27.5
451.563	30
452.787	25.5
454.01	30.5
455.234	25.5
456.457	30
457.68	28.5
458.903	27
460.126	32
461.348	32.5
462.569	28.5
463.792	29
465.013	29
466.235	31
467.457	33
468.678	34
469.899	32
471.12	33.5
472.341	32
473.56	38.5
474.781	37.5
476.001	38
477.221	38.5
478.441	41.5
479.66	49
480.878	43.5
482.098	50
483.317	54
484.535	57
485.754	58
486.971	59.5
488.189	56
489.407	63.5
490.625	64
491.842	65.5
493.059	57
494.276	58.5
495.493	48.5
496.709	50
497.926	45
499.142	58.5
500.357	42.5
501.573	44
502.789	37.5
504.003	40.5
505.219	39.5
506.434	37
507.648	38
508.863	36
510.078	40
511.291	35
512.505	36.5
513.718	32.5
514.932	32
516.145	31.5
517.358	28
518.572	33.5
519.783	31
520.997	30
522.208	31
523.421	31.5
524.632	29
525.844	31.5
527.055	29.5
528.266	34
529.477	29
530.688	32.5
531.898	33.5
533.109	31.5
534.319	30
535.53	32
536.739	31.5
537.948	28
539.158	31
540.366	27.5
541.576	25.5
542.784	27
543.994	27.5
545.201	29
546.409	22.5
547.618	27
548.825	31.5
550.032	28.5
551.24	25
552.447	25.5
553.654	30
554.861	24
556.067	29
557.273	28.5
558.48	24
559.686	28
560.891	27.5
562.096	29
563.302	28.5
564.507	29
565.712	30.5
566.916	24
568.122	27.5
569.326	27
570.529	28
571.733	29.5
572.936	26.5
574.141	25
575.344	28.5
576.547	28.5
577.75	26.5
578.952	29.5
580.154	26.5
581.358	24
582.56	26
583.761	28
584.963	27
586.164	30.5
587.365	24
588.566	26.5
589.767	28
590.967	28
592.168	26.5
593.369	24.5
594.569	28
595.769	27
596.969	29.5
598.168	32
599.367	23.5
600.566	27
601.765	26
602.964	28.5
604.162	26
605.361	29
606.559	32.5
607.757	26
608.953	26
610.151	28
611.348	29
612.545	29
613.742	27
614.939	27.5
616.135	29
617.332	35
618.528	29.5
619.724	28
620.918	24.5
622.114	30
623.309	29
624.505	26.5
625.7	26
626.895	28
628.088	27
629.282	27
630.477	24.5
631.671	28.5
632.865	28.5
634.057	29
635.251	26.5
636.444	28
637.637	26
638.829	28.5
640.022	30
641.214	27
642.407	29
643.598	29
644.79	25
645.982	25
647.172	29
648.364	27.5
649.555	27
650.745	22
651.936	31.5
653.126	27
654.315	30
655.506	30.5
656.696	28.5
657.885	26.5
659.074	25
660.263	28.5
661.452	30.5
662.64	29
663.829	30
665.018	22.5
666.205	33.5
667.394	26.5
668.581	35
669.769	31
670.955	29.5
672.143	29.5
673.329	30
674.517	28.5
675.703	31.5
676.89	32
678.075	29.5
679.262	33
680.447	30.5
681.632	33
682.818	31
684.002	34
685.188	39
686.372	35.5
687.556	36
688.741	36
689.925	30
691.11	34.5
692.293	31
693.476	38
694.66	36.5
695.843	31
697.025	34.5
698.209	30.5
699.391	32
700.573	36
701.756	39.5
702.938	42
704.119	43.5
705.3	42.5
706.483	45
707.664	50.5
708.844	52.5
710.025	50
711.206	48
712.386	43
713.566	40
714.746	38
715.925	35
717.106	34
718.285	29.5
719.464	30
720.643	30.5
721.822	31
723	29
724.178	24
725.358	29.5
726.536	31
727.713	31.5
728.891	28.5
730.068	27
731.245	28.5
732.422	27.5
733.599	26
734.775	31.5
735.952	26
737.128	26
738.304	29
739.48	28
740.656	29
741.831	25
743.006	26.5
744.181	29
745.356	25
746.531	27
747.706	28
748.88	27.5
750.054	25.5
751.228	26
752.402	28.5
753.576	27
754.749	32
755.922	23
757.095	24
758.267	26
759.44	28.5
760.612	26.5
761.785	30.5
762.957	30.5
764.129	28.5
765.301	29.5
766.471	29
767.642	28
768.814	29.5
769.985	28.5
771.156	27.5
772.325	26
773.495	27
774.666	26
775.836	26
777.005	28.5
778.174	25.5
779.344	28
780.513	28
781.681	29.5
782.85	30.5
784.019	28
785.187	28
786.355	29.5
787.523	32
788.69	32.5
789.858	28.5
791.026	28
792.192	28.5
793.36	26.5
794.526	29.5
795.693	30
796.86	25
798.025	28
799.191	29
800.356	28.5
801.523	31.5
802.689	31.5
803.853	23
805.019	31.5
806.183	27.5
807.348	26
808.512	25
809.677	30.5
810.84	29.5
812.005	28
813.167	34.5
814.332	26.5
815.494	28.5
816.657	27
817.82	26
818.982	25
820.146	29
821.307	28
822.47	27.5
823.632	25.5
824.793	28
825.955	25.5
827.116	28.5
828.277	26.5
829.439	28.5
830.599	28
831.759	28.5
832.92	25
834.08	27
835.24	29.5
836.4	25
837.56	28
838.719	25
839.877	26
841.037	26.5
842.196	26.5
843.354	25
844.512	24
845.672	28
846.83	28.5
847.987	29
849.145	30
850.302	29.5
851.46	27
852.617	26.5
853.774	28
854.93	25
856.087	27.5
857.243	29
858.4	31.5
859.556	32.5
860.712	30.5
861.867	27.5
863.022	28.5
864.177	31.5
865.332	24.5
866.487	28.5
867.642	28.5
868.796	25
869.95	32
871.104	29.5
872.258	27
873.412	27
874.565	26.5
875.718	29.5
876.872	30.5
878.024	23
879.177	27.5
880.33	24
881.482	30
882.635	28
883.787	28.5
884.938	26
886.09	29
887.242	27
888.393	25
889.544	24.5
890.695	25
891.845	27
892.995	24.5
894.146	24.5
895.296	27
896.446	25.5
897.596	27
898.744	27.5
899.894	24
901.043	24.5
902.193	26.5
903.342	27
904.489	24.5
905.638	26
906.786	25.5
907.935	25.5
909.081	24
910.229	24
911.377	27.5
912.525	25.5
913.671	27.5
914.818	29
915.965	28
917.111	23.5
918.258	25
919.404	24
920.549	28
921.695	25
922.84	18.5
923.986	26.5
925.132	26
926.276	25
927.421	25
928.565	25.5
929.71	28.5
930.855	24
931.998	22
933.142	28
934.285	25.5
935.429	28.5
936.572	26
937.716	23
938.858	26
940.001	26.5
941.143	28.5
942.286	26.5
943.428	27
944.57	26
945.712	26
946.854	26
947.995	26
949.135	24
950.277	27
951.418	22.5
952.559	23.5
953.699	24.5
954.839	27.5
955.98	27
957.119	23
958.258	28
959.399	23
960.538	30
961.676	31.5
962.816	25.5
963.955	26
965.093	26.5
966.232	29
967.37	24
968.508	24
969.645	21
970.784	26
971.921	30
973.058	24
974.195	27.5
975.333	24.5
976.469	25.5
977.605	27.5
978.741	25
979.877	23.5
981.013	26
982.15	27
983.285	27
984.421	26.5
985.556	26
986.691	29.5
987.825	24.5
988.96	27.5
990.094	26.5
991.228	24.5
992.364	24.5
993.497	27
994.631	24.5
995.765	28.5
996.898	26.5
998.031	29
999.164	22.5
1000.3	28.5
1001.43	25
1002.56	27.5
1003.69	25
1004.83	24
1005.96	23
1007.09	24
1008.22	28.5
1009.35	27
1010.48	25.5
1011.61	22.5
1012.74	27.5
1013.88	24
1015.01	25.5
1016.14	24
1017.27	24.5
1018.4	28
1019.53	24.5
1020.65	25
1021.78	27
1022.91	21.5
1024.04	27.5
1025.17	25
1026.3	24.5
1027.43	22.5
1028.56	23
1029.68	26
1030.81	22.5
1031.94	26.5
1033.07	20.5
1034.19	25
1035.32	24
1036.45	23.5
1037.58	24.5
1038.7	27.5
1039.83	20.5
1040.95	24
1042.08	27
1043.21	24
1044.33	25.5
1045.46	26.5
1046.58	28
1047.71	25.5
1048.83	20
1049.96	25
1051.08	25
1052.21	25.5
1053.33	27.5
1054.45	26.5
1055.58	28.5
1056.7	29
1057.82	27
1058.95	25.5
1060.07	28
1061.19	22.5
1062.32	25
1063.44	22
1064.56	25
1065.68	28.5
1066.81	26.5
1067.93	28
1069.05	23.5
1070.17	23
1071.29	28.5
1072.41	22.5
1073.53	22
1074.65	30
1075.77	24
1076.89	24
1078.01	26.5
1079.13	22
1080.25	23
1081.37	24.5
1082.49	23.5
1083.61	26
1084.73	23
1085.85	25.5
1086.97	26.5
1088.09	25
1089.2	25
1090.32	25.5
1091.44	25
1092.56	21
1093.68	27
1094.79	26
1095.91	25.5
1097.03	20.5
1098.14	20
1099.26	23.5
1100.38	23
1101.49	22.5
1102.61	28
1103.73	27
1104.84	26
1105.96	26.5
1107.07	26
1108.19	26
1109.3	25
1110.42	28.5
1111.53	24
1112.65	23
1113.76	20.5
1114.88	25
1115.99	23
1117.1	21.5
1118.22	24.5
1119.33	22.5
1120.44	26
1121.56	26
1122.67	21
1123.78	24.5
1124.89	25.5
1126.01	26
1127.12	25
1128.23	25
1129.34	26
1130.45	26.5
1131.56	23.5
1132.67	25
1133.79	23.5
1134.9	24
1136.01	27
1137.12	27
1138.23	27
1139.34	27
1140.45	29
1141.56	26
1142.67	25
1143.78	24
1144.89	26.5
1145.99	25.5
1147.1	27.5
1148.21	19
1149.32	24
1150.43	21
1151.54	25
1152.65	21
1153.75	24
1154.86	24.5
1155.97	22.5
1157.08	26
1158.18	26
1159.29	23
1160.4	23
1161.5	22
1162.61	19.5
1163.72	25.5
1164.82	26
1165.93	26.5
1167.03	24
1168.14	24.5
1169.24	25
1170.35	24.5
1171.45	25
1172.56	26
1173.66	22.5
1174.77	20.5
1175.87	24.5
1176.98	21
1178.08	21
1179.18	24.5
1180.29	24
1181.39	25.5
1182.49	22.5
1183.6	23
1184.7	25.5
1185.8	26
1186.9	25.5
1188	23.5
1189.11	19
1190.21	27
1191.31	24.5
1192.41	23.5
1193.51	21
1194.61	28.9659
1195.72	25.409
1196.82	26.9481
1197.92	25.0771
1199.02	23.0995
1200.12	23.9761
1201.22	25.8674
1202.32	20.2114
1203.42	24.305
1204.52	23.0303
1205.62	22.4233
1206.71	27.1694
1207.81	21.5029
1208.91	25.2269
1210.01	24.2844
1211.11	24.6194
1212.21	22.4369
1213.31	26.8766
1214.4	24.2158
1215.5	25.0956
1216.6	23.9947
1217.7	22.0914
1218.79	30.127
1219.89	25.5101
1220.99	20.5394
1222.08	23.129
1223.18	24.0115
1224.28	24.9654
1225.37	22.5869
1226.47	27.1325
1227.56	24.5021
1228.66	24.9411
1229.76	23.0987
1230.85	23.2885
1231.95	22.0307
1233.04	22.3187
1234.14	23.6787
1235.23	23.5547
1236.32	24.146
1237.42	24.7861
1238.51	25.3449
1239.61	23.0575
1240.7	20.2782
1241.79	24.5567
1242.89	22.9802
1243.98	22.5772
1245.07	25.2877
1246.17	21.6111
1247.26	21.8519
1248.35	23.7539
1249.44	24.172
1250.53	24.0386
1251.63	24.9696
1252.72	23.9998
1253.81	25.0977
1254.9	22.945
1255.99	25.438
1257.08	22.2022
1258.17	25.3422
1259.27	25.2875
1260.36	26.7997
1261.45	25.3481
1262.54	28.3385
1263.63	25.6963
1264.72	24.8019
1265.81	24.8364
1266.89	26.897
1267.98	23.8223
1269.07	24.64
1270.16	23.7386
1271.25	22.8384
1272.34	21.8945
1273.43	23.7088
1274.52	23.2317
1275.6	22.774
1276.69	25.8783
1277.78	24.5542
1278.87	23.7195
1279.95	25.2662
1281.04	23.5301
1282.13	25.1355
1283.22	24.2069
1284.3	25.3778
1285.39	24.8263
1286.48	22.7414
1287.56	24.9086
1288.65	25.9601
1289.73	24.571
1290.82	23.6208
1291.9	24.1724
1292.99	24.0739
1294.07	25.4178
1295.16	25.2199
1296.24	25.101
1297.33	25.7937
1298.41	23.4824
1299.5	23.9585
1300.58	22.6825
1301.66	21.8563
1302.75	22.9064
1303.83	24.7808
1304.91	22.9982
1306	22.1386
1306.4	22.5
1307.48	19.5
1308.57	26
1309.66	24
1310.75	21
1311.84	24
1312.92	22.5
1314.01	25.5
1315.1	22
1316.18	23
1317.27	25.5
1318.36	22.5
1319.44	23.5
1320.53	24
1321.62	22
1322.7	26
1323.79	22
1324.87	23.5
1325.96	27
1327.04	24
1328.13	27
1329.21	22
1330.3	26
1331.38	24
1332.47	21.5
1333.55	23
1334.64	22.5
1335.72	26
1336.8	27
1337.89	25
1338.97	26.5
1340.05	21
1341.14	25
1342.22	24
1343.3	27
1344.38	25.5
1345.47	23.5
1346.55	25.5
1347.63	24
1348.71	27
1349.79	20
1350.87	26.5
1351.96	26
1353.04	24
1354.12	24
1355.2	23
1356.28	22
1357.36	25.5
1358.44	26
1359.52	21.5
1360.6	25.5
1361.68	24.5
1362.76	23
1363.84	27
1364.92	24
1366	22.5
1367.07	26.5
1368.15	23
1369.23	24
1370.31	23
1371.39	29.5
1372.47	25
1373.54	25
1374.62	24
1375.7	25
1376.78	25
1377.85	26
1378.93	21
1380.01	24
1381.08	26
1382.16	27
1383.24	26
1384.31	26
1385.39	22.5
1386.46	26
1387.54	26
1388.61	27
1389.69	28.5
1390.76	22
1391.84	24
1392.91	23
1393.99	21
1395.06	25.5
1396.14	23.5
1397.21	24.5
1398.29	27
1399.36	29
1400.43	29.5
1401.51	29
1402.58	32
1403.65	29
1404.72	31
1405.8	30.5
1406.87	26
1407.94	34
1409.02	30
1410.09	32.5
1411.16	33.5
1412.23	32.5
1413.3	28.5
1414.37	34
1415.44	29
1416.51	29.5
1417.59	21.5
1418.66	30
1419.73	30
1420.8	28
1421.87	27.5
1422.94	26
1424.01	26
1425.08	29
1426.15	26.5
1427.22	31.5
1428.28	22
1429.35	28
1430.42	24
1431.49	25
1432.56	26
1433.63	30.5
1434.7	21
1435.76	23.5
1436.83	26
1437.9	25
1438.97	19
1440.03	26
1441.1	28.5
1442.17	25.5
1443.23	23
1444.3	24
1445.37	28.5
1446.43	24.5
1447.5	24
1448.57	27
1449.63	26
1450.7	25.5
1451.76	26
1452.83	23
1453.89	23.5
1454.96	22
1456.02	24
1457.09	26
1458.15	25.5
1459.22	27.5
1460.28	23
1461.34	27
1462.41	23
1463.47	29
1464.53	28
1465.6	27
1466.66	25.5
1467.72	26
1468.78	24
1469.85	26
1470.91	26.5
1471.97	23
1473.03	24.5
1474.1	31
1475.16	23
1476.22	27
1477.28	29
1478.34	23.5
1479.4	23.5
1480.46	25
1481.52	23.5
1482.58	24
1483.65	27
1484.71	24.5
1485.77	21
1486.82	22.5
1487.89	24.5
1488.94	23.5
1490	25
1491.06	22
1492.12	27
1493.18	27.5
1494.24	23
1495.3	21.5
1496.36	27
1497.41	22
1498.47	24.5
1499.53	28
1500.59	24
1501.65	27
1502.7	26.5
1503.76	25.5
1504.82	23
1505.87	26
1506.93	25
1507.99	27
1509.04	23.5
1510.1	26.5
1511.16	24.5
1512.21	22.5
1513.27	25.5
1514.32	28
1515.38	28
1516.43	22
1517.49	24.5
1518.54	24
1519.6	22
1520.65	27
1521.71	27
1522.76	28
1523.81	23
1524.87	24.5
1525.92	27
1526.98	21
1528.03	24
1529.08	25.5
1530.14	26
1531.19	26.5
1532.24	26
1533.29	27.5
1534.35	23
1535.4	24
1536.45	24
1537.5	27.5
1538.55	22
1539.61	23
1540.66	28
1541.71	28.5
1542.76	26
1543.81	23
1544.86	25
1545.91	24
1546.96	27.5
1548.01	24
1549.06	26
1550.11	24
1551.16	29.5
1552.21	25.5
1553.26	26.5
1554.31	26
1555.36	28
1556.41	25.5
1557.46	23
1558.5	26
1559.55	24.5
1560.6	26
1561.65	29
1562.7	27
1563.74	22.5
1564.79	25
1565.84	23
1566.89	23
1567.93	28.5
1568.98	24.5
1570.03	23
1571.07	27.5
1572.12	27
1573.17	23
1574.21	21
1575.26	23
1576.3	25.5
1577.35	23.5
1578.4	23.5
1579.44	23
1580.49	24.5
1581.53	25.5
1582.58	26
1583.62	26
1584.66	26.5
1585.71	24.5
1586.75	23
1587.8	22
1588.84	22.5
1589.88	24
1590.93	27
1591.97	23
1593.01	24
1594.06	22
1595.1	23.5
1596.14	24
1597.18	23.5
1598.23	24
1599.27	25
1600.31	24
1601.35	27
1602.39	19.5
1603.44	24
1604.48	23
1605.52	26.5
1606.56	24
1607.6	24.5
1608.64	24
1609.68	27
1610.72	27
1611.76	22
1612.8	22
1613.84	24
1614.88	27.5
1615.92	25
1616.96	26
1618	25.5
1619.04	25.5
1620.08	23
1621.12	22
1622.16	21.5
1623.19	25.5
1624.23	22.5
1625.27	22
1626.31	26.5
1627.35	25.5
1628.38	22.5
1629.42	27.5
1630.46	27.5
1631.49	25
1632.53	26
1633.57	24.5
1634.6	26.5
1635.64	24
1636.68	20
1637.71	24
1638.75	25.5
1639.79	25.5
1640.82	25
1641.86	27
1642.89	26.5
1643.93	24.5
1644.96	26
1646	22.5
1647.03	25
1648.07	25
1649.1	27
1650.13	28
1651.17	27
1652.2	24.5
1653.24	27.5
1654.27	23
1655.3	25.5
1656.34	26
1657.37	18
1658.4	24
1659.43	25
1660.47	25
1661.5	25.5
1662.53	22.5
1663.56	27
1664.6	24
1665.63	22.5
1666.66	24
1667.69	24
1668.72	27.5
1669.75	26
1670.78	24
1671.81	23.5
1672.85	23
1673.88	24
1674.91	24
1675.94	25
1676.97	26.5
1678	26.5
1679.03	27
1680.06	23.5
1681.09	23
1682.11	27.5
1683.14	24.5
1684.17	24.5
1685.2	23.5
1686.23	24.5
1687.26	20.5
1688.29	23.5
1689.31	24
1690.34	27
1691.37	26
1692.4	26.5
1693.42	25
1694.45	26.5
1695.48	24.5
1696.51	23
1697.53	25.5
1698.56	22.5
1699.59	25
1700.61	22
1701.64	17
1702.66	26.5
1703.69	23
1704.72	24.5
1705.74	24.5
1706.77	26.5
1707.79	22
1708.82	27.5
1709.84	25.5
1710.87	28.5
1711.89	26.5
1712.91	23
1713.94	25
1714.96	24.5
1715.99	24
1717.01	25.5
1718.03	26
1719.06	21.5
1720.08	20
1721.1	23.5
1722.13	26.5
1723.15	24.5
1724.17	20
1725.19	27
1726.22	23.5
1727.24	25.5
1728.26	25
1729.28	23
1730.3	28
1731.33	23.5
1732.35	26
1733.37	25
1734.39	25
1735.41	21.5
1736.43	21
1737.45	21
1738.47	24.5
1739.49	27
1740.51	27
1741.53	20
1742.55	26
1743.57	24
1744.59	25
1745.61	24.5
1746.63	22
1747.65	22
1748.67	27.5
1749.69	24.5
1750.7	27
1751.72	25.5
1752.74	27
1753.76	22.5
1754.78	26
1755.79	28.5
1756.81	24
1757.83	23
1758.85	26
1759.86	28.5
1760.88	28.5
1761.9	23.5
1762.91	22.5
1763.93	25.5
1764.95	22
1765.96	29
1766.98	23.5
1767.99	25
1769.01	22.5
1770.02	24
1771.04	23.5
1772.06	23
1773.07	28
1774.09	25.5
1775.1	25
1776.11	25
1777.13	24
1778.14	27.5
1779.16	31.5
1780.17	25.5
1781.18	23
1782.2	21
1783.21	24.5
1784.22	21
1785.24	23.5
1786.25	27
1787.26	26
1788.28	23.5
1789.29	25
1790.3	26
1791.31	23
1792.33	23.5
1793.34	25.5
1794.35	24.5
1795.36	25
1796.37	25.5
1797.38	22.5
1798.39	24
1799.4	25
1800.42	21
1801.43	23
1802.44	24.5
1803.45	28
1804.46	27.5
1805.47	22.5
1806.48	27
1807.49	18
1808.5	27
1809.51	23
1810.51	26.5
1811.52	26.5
1812.53	20.5
1813.54	28.5
1814.55	27.5
1815.56	22.5
1816.57	25.5
1817.57	26
1818.58	25
1819.59	21.5
1820.6	26
1821.61	24.5
1822.61	24
1823.62	23
1824.63	23
1825.63	23
1826.64	20
1827.65	19
1828.65	25.5
1829.66	24.5
1830.67	22
1831.67	27
1832.68	24.5
1833.68	24.5
1834.69	24
1835.69	26
1836.7	28
1837.7	21.5
1838.71	23
1839.71	24.5
1840.72	24.5
1841.72	25
1842.73	22
1843.73	25
1844.73	25.5
1845.74	23
1846.74	20
1847.74	22.5
1848.75	24
1849.75	25
1850.75	25.5
1851.76	22.5
1852.76	23
1853.76	27
1854.76	28
1855.77	26
1856.77	24.5
1857.77	24
1858.77	22
1859.77	24.5
1860.77	25.5
1861.78	23.5
1862.78	24.5
1863.78	24
1864.78	22.5
1865.78	21
1866.78	23.5
1867.78	25
1868.78	27
1869.78	26.5
1870.78	28.5
1871.78	22.5
1872.78	21.5
1873.78	25.5
1874.78	22
1875.78	20
1876.78	23
1877.78	22
1878.77	27
1879.77	24
1880.77	23
1881.77	22.5
1882.77	22
1883.77	23
1884.76	21
1885.76	24.5
1886.76	25.5
1887.75	21
1888.75	26
1889.75	23.5
1890.75	25
1891.74	23.5
1892.74	23
1893.73	17.5
1894.73	25
1895.73	26.5
1896.72	25
1897.72	22
1898.71	26
1899.71	24.5
1900.7	22.5
1901.7	24
1902.69	25
1903.69	23
1904.68	26.5
1905.68	22
1906.67	28.5
1907.67	24
1908.66	23
1909.65	23
1910.65	20.5
1911.64	26.5
1912.63	21
1913.63	25
1914.62	21.5
1915.61	22.5
1916.61	26
1917.6	25
1918.59	26.5
1919.58	25
1920.58	25.5
1921.57	24.5
1922.56	23.5
1923.55	22
1924.54	23
1925.54	19.5
1926.53	24.5
1927.52	22.5
1928.51	27
1929.5	25.5
1930.49	21
1931.48	25.5
1932.47	25
1933.46	21.5
1934.45	24.5
1935.44	25.5
1936.43	21.5
1937.42	25.5
1938.41	20.5
1939.4	22
1940.39	20
1941.38	26
1942.37	23
1943.35	24
1944.34	23
1945.33	24.5
1946.32	20.5
1947.31	23
1948.3	24
1949.28	22
1950.27	25.5
1951.26	25.5
1952.25	26.5
1953.23	25
1954.22	24.5
1955.21	24
1956.19	25
1957.18	23
1958.17	26
1959.15	21.5
1960.14	24.5
1961.12	22.5
1962.11	24
1963.1	24
1964.08	24
1965.07	24.5
1966.05	23
1967.04	22.5
1968.02	27
1969.01	28
1969.99	22
1970.98	23
1971.96	24.5
1972.94	22.5
1973.93	24
1974.91	20.5
1975.9	23.5
1976.88	23
1977.86	22.5
1978.85	24
1979.83	23
1980.81	24
1981.79	23.5
1982.78	24.5
1983.76	23.5
1984.74	23
1985.72	24.5
1986.71	26
1987.69	23
1988.67	26
1989.65	23
1990.63	19
1991.61	26.5
1992.59	24.5
1993.57	25.5
1994.56	24
1995.54	22
1996.52	20
1997.5	21
1998.48	19
1999.46	23.5
2000.44	21
2001.42	27
2002.4	28.5
2003.38	24.5
2004.36	19
2005.33	23
2006.31	26.5
2007.29	26.5
2008.27	22.5
2009.25	24
2010.23	22.5
2011.21	20.5
2012.18	21
2013.16	21
2014.14	22.5
2015.12	24.5
2016.09	24
2017.07	24.5
2018.05	19
2019.03	23
2020	25.5
2020.98	24
2021.96	21.5
2022.93	23
2023.91	22
2024.89	23.5
2025.86	21
2026.84	24
2027.81	22.5
2028.79	22
2029.76	25
2030.74	24
2031.71	23.5
2032.69	26
2033.66	21
2034.64	25
2035.61	24
2036.59	26
2037.56	26
2038.54	23
2039.51	21
2040.48	22.5
2041.46	21.5
2042.43	28.5
2043.4	21
2044.38	24.5
2045.35	21
2046.32	21
2047.29	23.5
2048.27	22.5
2049.24	22
2050.21	24.5
2051.18	24.5
2052.16	22
2053.13	23
2054.1	24
2055.07	26
2056.04	24.5
2057.01	22
2057.98	26
2058.96	23
2059.93	22
2060.9	24
2061.87	25.5
2062.84	22.5
2063.81	23
2064.78	22
2065.75	21
2066.72	23.5
2067.69	26
2068.66	21
2069.63	25.5
2070.6	21
2071.56	24.5
2072.53	24
2073.5	25.5
2074.47	26
2075.44	21.5
2076.41	23
2077.38	24.5
2078.34	26.5
2079.31	26
2080.28	23
2081.25	23
2082.21	22
2083.18	21
2084.15	22
2085.11	19
2086.08	23
2087.05	21
2088.01	22
2088.98	25
2089.95	23.5
2090.91	22
2091.88	21.5
2092.84	21.5
2093.81	23.5
2094.78	20.5
2095.74	22
2096.71	25.5
2097.67	23.5
2098.64	19
2099.6	22
2100.57	26.5
2101.53	24
2102.49	24
2103.46	23.5
2104.42	22
2105.39	27.5
2106.35	20
2107.31	25
2108.28	24
2109.24	19
2110.2	26.5
2111.17	22.5
2112.13	20
2113.09	24
2114.05	21.5
2115.02	21.5
2115.98	25.5
2116.94	23
2117.9	23.5
2118.86	24
2119.83	29
2120.79	23
2121.75	22
2122.71	22
2123.67	24.5
2124.63	23
2125.59	23.5
2126.55	24
2127.51	22
2128.47	21.5
2129.43	20.5
2130.39	20.5
2131.35	26.5
2132.31	26
2133.27	26.5
2134.23	22
2135.19	25.5
2136.15	21.5
2137.11	22
2138.07	23
2139.03	24
2139.99	25
2140.94	27
2141.9	21
2142.86	26.4743
2143.82	24.4388
2144.78	22.9752
2145.73	23.5044
2146.69	23.4503
2147.65	22.0974
2148.61	23.4522
2149.56	22.8908
2150.52	22.8961
2151.48	22.0347
2152.43	21.6789
2153.39	21.166
2154.35	23.7051
2155.3	23.7735
2156.26	23.9631
2157.21	23.7085
2158.17	22.8426
2159.13	20.2291
2160.08	22.43
2161.04	25.3523
2161.99	21.8034
2162.95	21.8294
2163.9	23.4845
2164.86	24.6287
2165.81	23.3958
2166.77	23.2757
2167.72	21.9371
2168.67	21.8854
2169.63	21.3218
2170.58	24.7684
2171.54	23.0411
2172.49	23.4021
2173.44	22.8217
2174.4	21.7727
2175.35	20.3375
2176.3	18.564
2177.26	24.6385
2178.21	24.2641
2179.16	19.9203
2180.11	21.8228
2181.07	22.7117
2182.02	20.5895
2182.97	19.572
2183.92	20.2818
2184.87	22.9061
2185.82	25.1518
2186.78	22.5694
2187.73	19.3656
2188.68	21.4026
2189.63	23.7569
2190.58	22.2798
2191.53	20.8209
2192.48	21.6875
2193.43	21.2365
2194.38	20.4909
2195.33	21.479
2196.28	21.8482
2197.23	21.6569
2198.18	22.6895
2199.13	22.6479
2200.08	21.8575
2201.03	23.6283
2201.98	22.169
2202.93	20.8444
2203.88	22.4721
2204.83	21.7001
2205.77	22.7132
2206.72	22.8469
2207.67	22.2106
2208.62	22.1388
2209.57	23.1057
2210.52	22.5418
2211.46	24.1506
2212.41	23.988
2213.36	18.9572
2214.31	22.407
2215.25	23.6802
2216.2	25.6887
2217.15	19.8297
2218.09	21.1192
2219.04	23.201
2219.99	22.1465
2220.93	21.4696
2221.88	21.0996
2222.82	21.8189
2223.77	22.3627
2224.72	20.6378
2225.66	21.7928
2226.61	20.8252
2227.55	23.2111
2228.5	24.2653
2229.44	22.9131
2230.39	21.7413
2231.33	23.0031
2232.28	24.4511
2233.22	21.2621
2234.16	19.9592
2235.11	22.5237
2236.05	22.3875
2237	25.3933
2237.94	21.8418
2238.88	22.2327
2239.83	22.4696
2240.13	22
2241.08	21
2242.03	21.5
2242.98	23
2243.92	23
2244.87	22.5
2245.82	22.5
2246.76	22
2247.71	25
2248.66	22.5
2249.61	22.5
2250.55	24
2251.5	22.5
2252.45	21
2253.39	24.5
2254.34	23
2255.28	24.5
2256.23	21
2257.18	23
2258.12	24
2259.07	19
2260.01	23.5
2260.96	23
2261.9	21
2262.85	26.5
2263.79	25.5
2264.74	24.5
2265.68	23
2266.63	19.5
2267.57	20
2268.51	25
2269.46	21
2270.4	16.5
2271.35	22.5
2272.29	21
2273.23	22.5
2274.18	24
2275.12	21.5
2276.06	22.5
2277	21.5
2277.95	24
2278.89	22
2279.83	25
2280.78	20
2281.72	25.5
2282.66	23
2283.6	20
2284.54	23
2285.48	23
2286.43	24
2287.37	26.5
2288.31	26.5
2289.25	22
2290.19	23.5
2291.13	20
2292.07	28.5
2293.01	23
2293.95	24.5
2294.89	21
2295.83	24
2296.77	18.5
2297.71	23.5
2298.65	18.5
2299.59	23.5
2300.53	24
2301.47	25
2302.41	23
2303.35	25
2304.29	22
2305.22	23
2306.16	20.5
2307.1	23
2308.04	19
2308.98	22
2309.91	23
2310.85	22.5
2311.79	22.5
2312.73	22
2313.66	20.5
2314.6	24
2315.54	24
2316.48	21
2317.41	22.5
2318.35	20
2319.29	22
2320.22	23
2321.16	29
2322.09	21.5
2323.03	21
2323.97	22
2324.9	22
2325.84	21.5
2326.77	21
2327.71	23.5
2328.64	25
2329.58	23
2330.51	20
2331.45	22
2332.38	24
2333.32	21
2334.25	26
2335.18	20.5
2336.12	22
2337.05	22
2337.99	22
2338.92	21
2339.85	22
2340.79	23
2341.72	20.5
2342.65	22.5
2343.59	23.5
2344.52	20
2345.45	22
2346.38	25
2347.32	23
2348.25	23
2349.18	23
2350.11	28.5
2351.04	22.5
2351.98	26.5
2352.91	23.5
2353.84	22
2354.77	19
2355.7	23
2356.63	19.5
2357.56	26
2358.49	23.5
2359.42	26
2360.35	22.5
2361.28	22
2362.21	21.5
2363.14	20.5
2364.07	27
2365	24
2365.93	21
2366.86	27.5
2367.79	20
2368.72	20.5
2369.65	17
2370.58	24.5
2371.51	22
2372.44	19
2373.36	25
2374.29	23.5
2375.22	24.5
2376.15	26.5
2377.08	19.5
2378	25.5
2378.93	20.5
2379.86	21
2380.79	23
2381.71	25.5
2382.64	24
2383.57	22
2384.49	26
2385.42	26.5
2386.35	24
2387.27	26
2388.2	21.5
2389.13	23.5
2390.05	23
2390.98	25
2391.9	26.5
2392.83	23.5
2393.76	24.5
2394.68	23.5
2395.61	25.5
2396.53	26
2397.46	24
2398.38	20
2399.3	25
2400.23	20
2401.15	24.5
2402.08	23.5
2403	21
2403.93	23
2404.85	27
2405.77	22.5
2406.7	21.5
2407.62	25.5
2408.54	26.5
2409.47	22
2410.39	20
2411.31	24.5
2412.24	22.5
2413.16	24
2414.08	23
2415	22
2415.92	22
2416.85	23.5
2417.77	22
2418.69	25
2419.61	24
2420.53	23
2421.45	23.5
2422.38	25.5
2423.3	23
2424.22	27.5
2425.14	24.5
2426.06	26
2426.98	25.5
2427.9	21
2428.82	19
2429.74	22
2430.66	21
2431.58	26.5
2432.5	24.5
2433.42	27.5
2434.34	23.5
2435.26	27
2436.18	25.5
2437.1	25
2438.01	24
2438.93	24.5
2439.85	22.5
2440.77	25
2441.69	23
2442.61	23
2443.52	28
2444.44	23
2445.36	24
2446.28	24
2447.2	23.5
2448.11	24.5
2449.03	23.5
2449.95	25.5
2450.86	23.5
2451.78	25
2452.7	22
2453.61	24
2454.53	25
2455.45	26.5
2456.36	27.5
2457.28	18
2458.2	21
2459.11	22
2460.03	18
2460.94	19
2461.86	21
2462.77	25.5
2463.69	23
2464.6	23
2465.52	23.5
2466.43	23
2467.35	21
2468.26	24.5
2469.18	25
2470.09	22.5
2471	24.5
2471.92	24.5
2472.83	25
2473.74	25.5
2474.66	21
2475.57	21.5
2476.48	21
2477.4	22.5
2478.31	20
2479.22	24.5
2480.14	18
2481.05	21.5
2481.96	20.5
2482.87	27
2483.79	23.5
2484.7	22.5
2485.61	21
2486.52	24
2487.43	21
2488.34	26.5
2489.25	19
2490.17	24
2491.08	22
2491.99	22.5
2492.9	23
2493.81	24
2494.72	23.5
2495.63	29
2496.54	26.5
2497.45	27
2498.36	23
2499.27	25
2500.18	24.5
2501.09	24.5
2502	20
2502.91	22.5
2503.82	27
2504.73	25
2505.63	25.5
2506.54	22.5
2507.45	22
2508.36	22.5
2509.27	24.5
2510.18	27
2511.09	21
2511.99	24
2512.9	24.5
2513.81	25
2514.72	23
2515.62	22.5
2516.53	20.5
2517.44	27
2518.34	23
2519.25	22
2520.16	24.5
2521.06	19
2521.97	22
2522.88	22.5
2523.78	22
2524.69	21.5
2525.6	26
2526.5	24.5
2527.41	23.5
2528.31	22
2529.22	25.5
2530.12	23
2531.03	24
2531.93	22.5
2532.84	23
2533.74	23
2534.65	26.5
2535.55	24
2536.46	26.5
2537.36	24.5
2538.27	22
2539.17	24.5
2540.07	23.5
2540.98	24
2541.88	24
2542.78	24.5
2543.69	26
2544.59	22
2545.49	25
2546.4	21
2547.3	20.5
2548.2	26
2549.1	25
2550.01	21
2550.91	23
2551.81	24.5
2552.71	21
2553.61	23.5
2554.52	27
2555.42	20.5
2556.32	20
2557.22	23
2558.12	22
2559.02	23
2559.92	24.5
2560.82	25
2561.72	25.5
2562.62	27
2563.53	24.5
2564.43	24
2565.33	25.5
2566.23	23
2567.13	23.5
2568.03	25
2568.92	24.5
2569.82	23.5
2570.72	25.5
2571.62	26
2572.52	24.5
2573.42	24
2574.32	22
2575.22	24
2576.12	25.5
2577.02	24
2577.91	23
2578.81	24.5
2579.71	22.5
2580.61	21.5
2581.5	25
2582.4	22
2583.3	23
2584.2	22
2585.09	25.5
2585.99	24
2586.89	23.5
2587.78	22
2588.68	25
2589.58	24
2590.47	25
2591.37	26.5
2592.27	22.5
2593.16	26
2594.06	22
2594.95	20
2595.85	24
2596.75	19.5
2597.64	26
2598.54	26.5
2599.43	23.5
2600.33	26.5
2601.22	20.5
2602.12	22.5
2603.01	22.5
2603.9	28
2604.8	24
2605.69	26
2606.59	26.5
2607.48	24
2608.37	23.5
2609.27	21
2610.16	27
2611.05	22.5
2611.95	24
2612.84	26
2613.73	24
2614.63	23
2615.52	24
2616.41	17
2617.3	23
2618.2	23
2619.09	23
2619.98	26.5
2620.87	27
2621.76	25
2622.66	25
2623.55	25
2624.44	28
2625.33	24
2626.22	24
2627.11	23
2628	25
2628.9	26.5
2629.79	28
2630.68	25.5
2631.57	28
2632.46	25
2633.35	23
2634.24	26
2635.13	24
2636.02	24
2636.91	25
2637.8	26
2638.68	25.5
2639.57	21
2640.46	23
2641.35	24.5
2642.24	23.5
2643.13	23.5
2644.02	24
2644.91	24
2645.79	27
2646.68	20.5
2647.57	22
2648.46	26.5
2649.35	22.5
2650.23	25
2651.12	23.5
2652.01	26.5
2652.9	27
2653.78	23
2654.67	24.5
2655.56	23
2656.44	26
2657.33	24
2658.22	24
2659.1	21.5
2659.99	22.5
2660.88	23
2661.76	28
2662.65	23
2663.53	23
2664.42	23
2665.3	24
2666.19	25.5
2667.07	27
2667.96	23
2668.84	22
2669.73	24
2670.61	24.5
2671.5	22
2672.38	26
2673.27	27
2674.15	23
2675.04	22.5
2675.92	23
2676.8	24.5
2677.69	27.5
2678.57	23.5
2679.45	22
2680.34	24
2681.22	25
2682.1	25.5
2682.99	25.5
2683.87	25.5
2684.75	24
2685.63	24.5
2686.52	26
2687.4	21.5
2688.28	22.5
2689.16	22
2690.04	22
2690.93	26
2691.81	24.5
2692.69	23.5
2693.57	25
2694.45	22.5
2695.33	23
2696.21	22
2697.09	23.5
2697.97	22.5
2698.85	23.5
2699.74	25
2700.62	25.5
2701.5	23.5
2702.38	23
2703.26	27.5
2704.14	22
2705.02	25.5
2705.89	27.5
2706.77	21
2707.65	22
2708.53	22
2709.41	22
2710.29	26.5
2711.17	29
2712.05	25
2712.93	25.5
2713.8	19
2714.68	22
2715.56	23
2716.44	24.5
2717.32	23
2718.19	25
2719.07	25
2719.95	25
2720.83	23
2721.7	24
2722.58	25.5
2723.46	24
2724.33	23
2725.21	26
2726.09	23.5
2726.97	23
2727.84	28
2728.72	22
2729.59	24
2730.47	20
2731.35	22.5
2732.22	28.5
2733.1	24.5
2733.97	24.5
2734.85	22.5
2735.72	21
2736.6	23.5
2737.47	22.5
2738.35	23
2739.22	24
2740.1	24
2740.97	29
2741.84	23
2742.72	24
2743.59	23
2744.47	25
2745.34	25.5
2746.21	25
2747.09	27
2747.96	20
2748.83	24
2749.71	24.5
2750.58	22
2751.45	20.5
2752.33	24
2753.2	22
2754.07	25.5
2754.94	26
2755.82	24
2756.69	26.5
2757.56	21
2758.43	21.5
2759.3	24
2760.18	25
2761.05	25.5
2761.92	22
2762.79	23
2763.66	25.5
2764.53	25.5
2765.4	26.5
2766.27	26
2767.14	20
2768.01	25
2768.88	22
2769.75	23.5
2770.62	24.5
2771.49	26
2772.36	23.5
2773.23	24.5
2774.1	23.5
2774.97	25.5
2775.84	22.5
2776.71	23
2777.58	23
2778.45	20
2779.32	23
2780.19	26
2781.06	22.5
2781.92	24
2782.79	26
2783.66	26
2784.53	25
2785.4	25.5
2786.26	27.5
2787.13	22.5
2788	24.5
2788.87	22
2789.73	25
2790.6	23
2791.47	26
2792.34	24
2793.2	22.5
2794.07	26.5
2794.94	26.5
2795.8	26
2796.67	23
2797.53	25.5
2798.4	22
2799.27	27.5
2800.13	23
2801	26.75
2801.86	27.5
2802.73	23.5
2803.59	29
2804.46	28.5
2805.32	22.5
2806.19	24.5
2807.05	24.5
2807.92	23
2808.78	23
2809.65	29
2810.51	22
2811.38	28.5
2812.24	22.5
2813.1	25
2813.97	30
2814.83	25.5
2815.7	26.5
2816.56	24
2817.42	27
2818.29	25
2819.15	28.5
2820.01	27.5
2820.87	23.5
2821.74	24
2822.6	28.5
2823.46	22.5
2824.32	26
2825.19	26.5
2826.05	23.5
2826.91	25
2827.77	28
2828.63	26
2829.5	26.5
2830.36	24.5
2831.22	26.5
2832.08	25.5
2832.94	23
2833.8	23
2834.66	26.5
2835.52	22
2836.38	25
2837.24	26
2838.1	23
2838.96	30
2839.82	25.5
2840.68	22.5
2841.54	26
2842.4	25
2843.26	24
2844.12	25
2844.98	26
2845.84	24
2846.7	23.5
2847.56	29
2848.42	28
2849.28	26
2850.14	24
2850.99	24.5
2851.85	25.5
2852.71	29
2853.57	29
2854.43	23
2855.28	28
2856.14	23
2857	25.5
2857.86	26.5
2858.71	26
2859.57	26.5
2860.43	25.5
2861.28	24.5
2862.14	27
2863	25
2863.86	30
2864.71	27
2865.57	26
2866.42	26
2867.28	28
2868.14	26
2868.99	27
2869.85	29.5
2870.7	28
2871.56	28
2872.41	27
2873.27	26
2874.13	32
2874.98	29.5
2875.83	27
2876.69	27.5
2877.54	29.5
2878.4	32
2879.25	32.5
2880.11	31.5
2880.96	32.5
2881.81	31.5
2882.67	30
2883.52	33.5
2884.38	34.5
2885.23	29.5
2886.08	31
2886.94	34
2887.79	36
2888.64	36.5
2889.5	34.5
2890.35	34
2891.2	43
2892.05	39.5
2892.91	40.5
2893.76	44.5
2894.61	43
2895.46	46.5
2896.31	48
2897.17	48.5
2898.02	52
2898.87	54
2899.72	59.5
2900.57	60
2901.42	61
2902.27	64.5
2903.12	61
2903.98	69.5
2904.83	71
2905.68	68
2906.53	67.5
2907.38	69
2908.23	66.5
2909.08	61
2909.93	69
2910.78	60.5
2911.63	62.5
2912.48	56.5
2913.33	54.5
2914.18	45.5
2915.02	43
2915.87	47
2916.72	43.5
2917.57	45
2918.42	41
2919.27	40
2920.12	36
2920.97	34
2921.81	38
2922.66	30
2923.51	28
2924.36	30
2925.21	31
2926.05	27
2926.9	28.5
2927.75	29.5
2928.59	29
2929.44	32
2930.29	28.5
2931.14	29
2931.98	31.5
2932.83	24
2933.68	29
2934.52	30
2935.37	27
2936.21	28
2937.06	31
2937.91	32
2938.75	27
2939.6	27.5
2940.44	30
2941.29	25
2942.14	28.5
2942.98	26.5
2943.82	27.5
2944.67	25.5
2945.51	31
2946.36	29.5
2947.2	26.5
2948.05	30
2948.89	30
2949.74	31.5
2950.58	31
2951.43	33
2952.27	33
2953.11	29
2953.96	30
2954.8	32.5
2955.64	32.5
2956.49	34
2957.33	34
2958.17	38
2959.02	39
2959.86	45.5
2960.7	39
2961.54	40
2962.39	42
2963.23	44.5
2964.07	48
2964.91	46
2965.75	46
2966.6	42
2967.44	39.5
2968.28	41
2969.12	38
2969.96	45.5
2970.8	41
2971.64	39.4976
2972.48	37.4452
2973.33	34.1035
2974.17	33.1226
2975.01	36.7313
2975.85	37.6996
2976.69	35.9828
2977.53	35.6536
2978.37	31.7686
2979.21	31.0269
2980.05	31.9026
2980.89	32.9178
2981.73	28.6055
2982.57	28.4002
2983.41	25.6015
2984.25	25.6006
2985.08	26.0777
2985.92	30.1481
2986.76	27.1372
2987.6	26.1173
2988.44	26.8626
2989.28	24.69
2990.12	23.059
2990.96	23.6244
2991.79	25.4834
2992.63	25.4164
2993.47	22.2102
2994.31	25.5039
2995.14	24.1056
2995.98	23.7834
2996.82	26.2255
2997.66	23.8164
2998.49	25.4955
2999.33	25.6626
3000.17	23.8036
3001	24.4
3001.84	23.4273
3002.68	26.8998
3003.51	24.0989
3004.35	23.3782
3005.19	22.5
3006.02	23.9904
3006.86	21.9585
3007.7	24.5556
3008.53	23.1405
3009.37	24.8374
3010.2	20.182
3011.04	20.3471
3011.87	21.2262
3012.71	21.2254
3013.54	22.3106
3014.38	20.058
3015.21	21.6906
3016.05	21.8704
3016.88	22.3562
3017.72	23.4255
3018.55	23.3457
3019.39	22.8332
3020.22	24.432
3021.05	23.1097
3021.89	22.4268
3022.72	21.9677
3023.55	22.6533
3024.39	22.6686
3025.22	23.3589
3026.05	21.7387
3026.89	22.0857
3027.72	24.8447
3028.55	24.8025
3029.39	23.5505
3030.22	21.6231
3031.05	20.5551
3031.88	20.7034
3032.72	21.2461
3033.55	22.1027
3034.38	22.9967
3035.21	22.3157
3036.04	22.9512
3036.88	23.0115
3037.71	21.8035
3038.54	21.253
3039.37	21.3047
3040.2	22.1819
3041.03	22.0421
3041.86	22.6373
3042.69	22.6386
3043.52	23.4472
3044.36	22.6505
3045.19	22.9225
3046.02	23.7085
3046.85	23.3007
3047.68	22.3121
3048.51	19.935
3049.34	20.8703
3050.17	21.7367
3051	21.3062
3051.83	21.5447
3052.66	21.4163
3053.48	23.6609
3054.31	23.9236
3055.14	22.843
3055.97	22.4412
3056.8	20.1779
3057.29	19
3058.12	18
3058.95	24
3059.79	22.5
3060.62	23.5
3061.45	24
3062.29	18
3063.12	19
3063.95	24.5
3064.78	24.5
3065.62	20.5
3066.45	20.5
3067.28	24
3068.11	26
3068.94	25
3069.77	22.5
3070.61	22
3071.44	18.5
3072.27	22
3073.1	21.5
3073.93	27
3074.76	21
3075.59	24
3076.42	22
3077.25	23
3078.08	23
3078.92	21
3079.74	21.5
3080.57	24
3081.41	22.5
3082.24	25
3083.06	22.5
3083.89	23
3084.72	27
3085.55	25
3086.38	25
3087.21	20.5
3088.04	22.5
3088.87	24.5
3089.7	23.5
3090.53	22
3091.36	20.5
3092.18	20.5
3093.01	19
3093.84	21
3094.67	21.5
3095.5	19
3096.32	22
3097.15	22.5
3097.98	23
3098.81	22.5
3099.64	22.5
3100.46	21
3101.29	22
3102.12	21.5
3102.94	29
3103.77	23.5
3104.6	15.5
3105.42	23
3106.25	22
3107.08	23
3107.9	24.5
3108.73	21
3109.56	23
3110.38	21
3111.21	25
3112.03	25
3112.86	26
3113.68	21
3114.51	25
3115.33	23.5
3116.16	20
3116.98	23
3117.81	25.5
3118.63	25
3119.46	23.5
3120.28	22
3121.11	23
3121.93	23.5
3122.76	19.5
3123.58	20
3124.4	24
3125.23	20
3126.05	23
3126.87	23.5
3127.7	21.5
3128.52	23.5
3129.34	20
3130.17	21
3130.99	26.5
3131.81	24
3132.64	25
3133.46	21.5
3134.28	24.5
3135.1	22
3135.93	20
3136.75	20.5
3137.57	22.5
3138.39	20
3139.21	24.5
3140.04	24
3140.86	24.5
3141.68	25
3142.5	22.5
3143.32	24
3144.14	23
3144.96	20
3145.78	19.5
3146.61	22.5
3147.43	20.5
3148.25	24
3149.07	24.5
3149.89	24
3150.71	22
3151.53	21
3152.35	21.5
3153.17	26
3153.99	25.5
3154.81	21
3155.63	23.5
3156.45	24.5
3157.27	21.5
3158.08	23.5
3158.9	24.5
3159.72	23
3160.54	24.5
3161.36	21
3162.18	20.5
3163	22.5
3163.82	21
3164.63	24
3165.45	21.5
3166.27	24.5
3167.09	22
3167.91	23.5
3168.72	22
3169.54	22.5
3170.36	24
3171.18	23.5
3171.99	22.5
3172.81	21.5
3173.63	22
3174.44	19
3175.26	22
3176.08	21.5
3176.89	24.5
3177.71	21
3178.53	24
3179.34	21
3180.16	21
3180.97	22.5
3181.79	23
3182.61	21
3183.42	23
3184.24	23.5
3185.05	24
3185.87	21
3186.68	25
3187.5	20
3188.31	21.5
3189.13	23
3189.94	20.5
3190.76	22
3191.57	27
3192.39	20.5
3193.2	24
3194.02	24
3194.83	19
3195.64	22.5
3196.46	21.5
3197.27	24
3198.08	23.5
3198.9	21
3199.71	21
3200.52	22
3201.34	24.5
3202.15	22.5
3202.96	26.5
3203.78	23
3204.59	23
3205.4	22.5
3206.21	20.5
3207.03	22
3207.84	22.5
3208.65	21
3209.46	21
3210.27	20
3211.09	22.5
3211.9	19
3212.71	21
3213.52	24
3214.33	20.5
3215.14	18
3215.95	22.5
3216.77	22
3217.58	27.5
3218.39	20.5
3219.2	21
3220.01	23.5
3220.82	25
3221.63	22
3222.44	26
3223.25	22.5
3224.06	23
3224.87	21.5
3225.68	26.5
3226.49	24
3227.3	24
3228.11	23
3228.92	29.5
3229.73	27
3230.53	23
3231.34	22.5
3232.15	24.5
3232.96	22.5
3233.77	25
3234.58	24.5
3235.39	25
3236.19	24
3237	22
3237.81	25
3238.62	23
3239.43	24
3240.23	21
3241.04	21.5
3241.85	23.5
3242.66	23.5
3243.46	25.5
3244.27	22
3245.08	22
3245.89	28
3246.69	27.5
3247.5	28.5
3248.31	19.5
3249.11	21
3249.92	25.5
3250.72	23.5
3251.53	28
3252.34	24
3253.14	26
3253.95	21
3254.75	24.5
3255.56	25
3256.36	22.5
3257.17	23
3257.98	24.5
3258.78	18
3259.59	24
3260.39	19
3261.19	25.5
3262	24.5
3262.8	23.5
3263.61	22
3264.41	27
3265.22	23
3266.02	24
3266.83	24.5
3267.63	23
3268.43	24
3269.24	22
3270.04	27.5
3270.84	22.5
3271.65	23
3272.45	26.5
3273.25	26
3274.06	24
3274.86	20.5
3275.66	22
3276.46	23
3277.27	27
3278.07	25.5
3278.87	28.5
3279.67	26.5
3280.48	25
3281.28	25
3282.08	25.5
3282.88	19.5
3283.68	22.5
3284.48	22.5
3285.29	21
3286.09	23.5
3286.89	20
3287.69	22
3288.49	23
3289.29	22.5
3290.09	24
3290.89	24
3291.69	26
3292.49	25
3293.29	24
3294.09	24
3294.89	21
3295.69	24.5
3296.49	22
3297.29	22.5
3298.09	23
3298.89	25
3299.69	25
3300.49	23
3301.29	22
3302.09	25
3302.89	21.5
3303.69	26
3304.49	26
3305.28	22
3306.08	23
3306.88	21.5
3307.68	24.5
3308.48	22
3309.28	24.5
3310.07	21.5
3310.87	21.5
3311.67	28
3312.47	25.5
3313.26	24.5
3314.06	23
3314.86	25.5
3315.66	21
3316.45	25.5
3317.25	20.5
3318.05	25.5
3318.84	26
3319.64	23
3320.44	20
3321.23	25.5
3322.03	22.5
3322.83	25.5
3323.62	19
3324.42	24.5
3325.21	22
3326.01	22
3326.81	22.5
3327.6	26
3328.4	24.5
3329.19	21.5
3329.99	24
3330.78	23.5
3331.58	25
3332.37	20
3333.17	25
3333.96	26
3334.76	21.5
3335.55	24
3336.34	23.5
3337.14	22
3337.93	23.5
3338.73	25
3339.52	23.5
3340.31	25
3341.11	23.5
3341.9	23.5
3342.69	24
3343.49	20
3344.28	25
3345.07	26
3345.87	24.5
3346.66	19.5
3347.45	25.5
3348.25	22.5
3349.04	24
3349.83	25.5
3350.62	23
3351.42	20
3352.21	25
3353	23.5
3353.79	26
3354.58	26.5
3355.37	28
3356.17	21.5
3356.96	27
3357.75	23.5
3358.54	24.5
3359.33	22
3360.12	27
3360.91	27
3361.7	20
3362.49	25.5
3363.29	24
3364.08	25
3364.87	23.5
3365.66	19.5
3366.45	23
3367.24	21.5
3368.03	22.5
3368.82	22.5
3369.61	25.5
3370.4	23.5
3371.19	22
3371.97	24
3372.76	24
3373.55	23
3374.34	21.5
3375.13	25
3375.92	22
3376.71	23
3377.5	22.5
3378.29	22
3379.07	23.5
3379.86	27
3380.65	23
3381.44	26.5
3382.23	26.5
3383.01	21
3383.8	24
3384.59	20
3385.38	26
3386.16	23.5
3386.95	23.5
3387.74	22
3388.53	19.5
3389.31	24.5
3390.1	24.5
3390.89	22
3391.67	25
3392.46	27
3393.25	20
3394.03	23.5
3394.82	23.5
3395.6	27
3396.39	26.5
3397.18	22.5
3397.96	22.5
3398.75	22.5
3399.53	24
3400.32	27.5
3401.1	22.5
3401.89	26.5
3402.67	22.5
3403.46	17.5
3404.24	26
3405.03	21
3405.81	27
3406.6	23.5
3407.38	21.5
3408.17	26.5
3408.95	20.5
3409.74	23
3410.52	25
3411.3	23
3412.09	25
3412.87	24
3413.65	22
3414.44	25
3415.22	26.5
3416	23
3416.79	24
3417.57	25.5
3418.35	26
3419.14	24.5
3419.92	23.5
3420.7	27.5
3421.48	22
3422.27	26
3423.05	23
3423.83	26
3424.61	27
3425.4	22
3426.18	19
3426.96	23
3427.74	24.5
3428.52	23.5
3429.3	24.5
3430.08	25
3430.87	22
3431.65	26
3432.43	21.5
3433.21	24.5
3433.99	25.5
3434.77	25
3435.55	22.5
3436.33	27.5
3437.11	25
3437.89	22.5
3438.67	25.5
3439.45	26
3440.23	20.5
3441.01	25
3441.79	22.5
3442.57	26.5
3443.35	20.5
3444.13	25.5
3444.91	23
3445.69	24
3446.47	23.5
3447.25	24
3448.03	23
3448.8	25
3449.58	24
3450.36	23
3451.14	24
3451.92	27
3452.7	21
3453.47	22
3454.25	27.5
3455.03	28
3455.81	21
3456.59	23
3457.36	23
3458.14	19
3458.92	20.5
3459.69	26
3460.47	22
3461.25	23
3462.03	22
3462.8	22.5
3463.58	21.5
3464.36	22.5
3465.13	26.5
3465.91	25.5
3466.69	27.5
3467.46	23
3468.24	24
3469.01	26.5
3469.79	25
3470.57	20.5
3471.34	27
3472.12	23.5
3472.89	24.5
3473.67	24
3474.44	23
3475.22	24
3475.99	25
3476.77	25
3477.54	21
3478.32	17
3479.09	27.5
3479.87	28
3480.64	25
3481.41	24.5
3482.19	24.5
3482.96	26
3483.74	23
3484.51	20.5
3485.28	22.5
3486.06	23
3486.83	25.5
3487.6	25.5
3488.38	23
3489.15	25
3489.92	22.5
3490.7	23
3491.47	23
3492.24	23.5
3493.01	20.5
3493.79	25
3494.56	23
3495.33	22.5
3496.1	24.5
3496.88	21.5
3497.65	21
3498.42	27.5
3499.19	24.5
3499.96	22.5
