#Acq. time (s)=	5
#Accumulations=	5
#Range (cm-¹)=	100...3500
#Windows=	4
#Autofocus=	Off
#AutoExposure=	Off
#Spike filter=	Multiple accum.
#Delay time (s)=	0
#Binning=	1
#Readout mode=	Signal
#DeNoise=	Off
#ICS correction=	Off
#Dark correction=	Off
#Inst. Process=	Off
#Instrument=	LabRAM HR Evol
#Detector=	Syncerity OE
#Objective=	x100_VIS
#Grating=	600 (500nm)
#ND Filter=	25%
#Laser=	633nm_Edge
#Hole=	100.021
#Range=	Visible
#Project=	verificaciones
#Sample=	at1
#Site=	lined
#Title=	bolusat1lined
#Remark=	
#Date=	13.01.2026 13:53
#Acquired=	13.01.2026 13:53:14
100.692	27
101.975	32.5
103.258	32
104.542	27
105.824	28
107.107	30
108.39	26.5
109.672	28.5
110.954	30.5
112.236	28.5
113.519	28
114.8	33.5
116.081	25
117.362	26.5
118.643	32
119.924	26
121.204	29
122.484	28
123.764	28
125.044	32
126.323	30.5
127.603	31.5
128.882	29
130.161	31
131.438	32.5
132.716	33.5
133.995	31
135.273	31.5
136.55	31.5
137.828	35
139.106	34
140.383	34
141.66	36.5
142.937	34
144.213	39.5
145.488	35
146.764	36.5
148.04	38
149.316	34.5
150.592	38
151.867	36
153.141	37.5
154.416	38
155.69	37
156.965	35.5
158.239	40.5
159.512	39.5
160.786	33.5
162.059	36.5
163.333	42.5
164.605	36.5
165.878	36
167.15	39
168.423	36
169.694	38
170.966	36
172.238	36.5
173.51	36
174.78	33.5
176.052	39.5
177.323	34.5
178.592	35
179.863	38
181.134	34
182.403	39.5
183.673	41
184.943	39.5
186.211	39
187.481	37
188.749	37
190.018	37
191.287	35.5
192.554	38
193.822	38.5
195.089	40
196.357	37
197.625	36.5
198.891	35
200.159	40
201.425	34
202.692	35
203.957	30
205.224	33.5
206.489	35
207.755	33
209.02	34
210.286	33
211.55	34
212.815	34
214.079	33.5
215.344	34
216.607	30
217.872	34
219.135	30
220.399	29.5
221.662	32.5
222.924	29
224.187	32.5
225.449	30
226.713	32.5
227.974	32.5
229.235	30.5
230.498	31.5
231.759	30.5
233.019	30.5
234.281	29.5
235.542	28
236.802	33
238.063	32
239.323	29.5
240.582	34.5
241.843	32
243.102	29
244.361	29.5
245.621	30
246.879	31
248.138	27.5
249.396	29.5
250.655	27.5
251.913	28
253.17	28
254.427	32
255.686	30.5
256.943	28
258.199	30
259.456	29
260.712	26.5
261.969	29.5
263.225	29.5
264.481	30.5
265.736	24.5
266.991	32.5
268.246	27.5
269.502	30.5
270.757	29
272.011	26
273.265	32.5
274.519	24
275.773	25
277.027	29
278.28	27
279.533	29.5
280.786	28.5
282.04	32.5
283.293	28.5
284.545	26.5
285.798	29
287.049	26.5
288.301	27
289.553	27
290.804	32
292.055	31.5
293.306	32
294.557	29
295.807	30.5
297.058	34
298.308	26.5
299.558	25
300.808	28
302.057	24.5
303.305	29
304.554	25
305.803	26.5
307.052	25.5
308.3	30
309.549	27
310.797	28.5
312.045	30
313.292	29
314.54	27.5
315.786	27
317.033	28.5
318.28	31
319.526	24.5
320.773	27
322.019	24.5
323.264	29
324.51	30.5
325.755	25
327.001	29
328.246	28
329.49	30
330.735	31
331.979	29.5
333.224	27
334.467	31
335.711	29
336.955	29
338.199	25
339.441	27
340.684	28
341.927	23
343.168	30.5
344.411	28
345.654	26.5
346.895	25.5
348.137	28
349.379	30.5
350.619	28
351.86	28.5
353.102	27.5
354.341	27.5
355.582	30
356.821	27
358.062	28
359.302	25
360.541	28
361.781	28.5
363.019	28.5
364.259	28
365.496	24
366.736	27
367.974	28.5
369.212	28.5
370.45	26
371.687	26
372.925	27
374.162	23.5
375.399	30
376.635	28.5
377.873	27
379.109	26
380.344	25.5
381.581	25
382.816	30
384.052	29
385.287	24.5
386.523	30
387.757	27
388.991	27.5
390.227	29
391.46	26.5
392.695	30
393.928	32.5
395.162	27
396.396	28
397.629	26
398.861	26
400.095	29
401.327	26
402.559	27.5
403.792	28
405.024	29
406.255	25
407.488	27
408.719	30
409.949	28
411.18	29
412.412	27.5
413.642	25
414.872	26
416.102	31
417.333	28
418.562	24.5
419.791	24
421.02	31
422.249	30
423.479	31.5
424.707	29
425.935	26
427.163	26
428.391	23
429.619	26
430.848	26
432.075	24
433.302	30.5
434.529	29.5
435.755	30
436.982	30
438.208	27.5
439.434	28
440.66	27.5
441.885	35
443.111	27
444.338	27
445.563	25.5
446.788	28
448.012	27.5
449.237	31
450.461	30
451.685	24
452.909	30
454.133	26
455.356	32
456.579	28.5
457.802	26.5
459.025	30
460.247	27.5
461.469	32
462.691	32
463.914	24.5
465.136	31.5
466.357	28.5
467.579	31
468.8	29.5
470.021	33
471.242	29.5
472.462	33.5
473.682	30
474.903	36.5
476.123	34.5
477.343	36
478.563	40
479.782	46.5
481	43
482.219	46.5
483.438	50.5
484.657	50.5
485.874	50.5
487.093	53.5
488.311	54.5
489.529	55.5
490.747	56.5
491.963	49.5
493.181	46.5
494.398	47
495.614	48.5
496.83	46
498.047	45.5
499.264	39
500.479	43
501.695	40
502.911	38
504.125	36
505.34	35
506.554	35
507.769	34.5
508.984	35
510.198	29
511.412	38
512.627	33.5
513.839	32
515.053	35
516.266	37
517.479	33
518.691	29.5
519.905	33.5
521.118	29.5
522.329	34
523.542	30
524.753	30.5
525.965	30.5
527.176	27.5
528.388	32
529.598	27
530.809	26.5
532.019	32
533.23	30
534.44	30
535.649	27.5
536.86	26
538.068	28.5
539.279	31
540.487	29
541.697	29
542.905	25
544.113	30
545.322	27.5
546.53	30.5
547.737	30
548.946	27
550.153	28.5
551.361	26.5
552.568	30
553.774	30
554.982	28
556.188	29
557.394	25
558.599	23
559.806	29.5
561.012	30.5
562.217	25.5
563.423	32
564.628	30
565.832	30.5
567.036	32
568.241	25
569.446	29
570.65	28.5
571.853	28.5
573.057	31
574.26	26
575.464	27
576.667	30
577.87	28.5
579.072	30
580.274	29.5
581.477	27
582.68	26
583.881	19
585.083	27.5
586.284	25.5
587.485	26.5
588.686	25
589.887	25
591.087	28.5
592.288	27.5
593.488	24
594.688	28
595.888	27.5
597.087	23.5
598.287	27.5
599.486	28
600.685	28.5
601.884	25.5
603.082	27
604.281	26
605.479	29.5
606.677	28
607.875	28.5
609.073	26
610.27	29.5
611.468	29
612.665	27
613.862	29
615.058	30
616.255	28
617.451	30.5
618.648	28
619.842	28
621.038	22.5
622.234	26.5
623.429	33
624.624	28
625.819	24
627.013	29
628.207	30
629.402	29
630.596	23.5
631.79	28.5
632.983	28
634.177	30
635.37	28.5
636.564	25
637.755	28
638.948	30
640.141	31.5
641.334	24.5
642.525	29.5
643.717	26
644.909	29.5
646.099	29.5
647.291	29.5
648.483	30.5
649.674	26
650.864	26
652.055	31
653.244	29.5
654.435	28.5
655.625	23.5
656.814	30.5
658.004	25
659.193	28
660.382	28
661.571	26
662.759	28.5
663.948	29
665.135	27
666.324	28.5
667.511	28.5
668.7	32.5
669.886	28
671.074	29.5
672.262	26
673.448	32.5
674.634	29
675.821	29
677.007	30
678.194	32.5
679.379	33.5
680.565	29
681.75	29.5
682.936	33
684.121	33.5
685.305	33.5
686.491	30
687.675	33
688.86	33
690.043	31.5
691.227	36
692.411	29.5
693.594	37
694.777	30
695.961	28
697.144	30.5
698.326	32.5
699.509	30.5
700.691	36
701.873	37.5
703.056	37
704.237	43
705.419	45
706.599	40.5
707.782	40
708.962	44.5
710.143	47.5
711.323	51
712.504	39
713.684	39.5
714.864	37.5
716.043	28.5
717.223	29
718.403	32
719.582	30
720.761	28.5
721.94	31.5
723.118	27.5
724.296	27.5
725.474	30
726.652	30.5
727.831	30.5
729.009	27.5
730.186	28.5
731.363	30
732.54	25
733.717	26.5
734.893	28
736.07	27
737.246	34
738.422	27.5
739.598	27
740.773	25
741.949	23
743.124	25
744.299	29
745.474	23
746.649	20
747.823	28
748.997	28
750.172	27.5
751.346	29
752.519	26
753.693	27
754.867	24.5
756.038	28.5
757.211	24
758.384	27.5
759.557	31
760.73	27
761.902	33
763.074	29
764.246	28
765.417	27.5
766.588	31.5
767.76	29
768.931	25
770.102	29
771.271	27.5
772.442	28.5
773.613	27
774.783	29.5
775.952	27.5
777.122	28.5
778.291	27.5
779.461	28
780.629	31
781.798	30
782.967	32.5
784.135	28.5
785.304	30
786.472	26.5
787.639	35
788.807	27
789.975	32.5
791.142	30
792.309	30.5
793.477	28
794.642	32
795.81	30.5
796.975	28
798.142	23
799.308	31
800.473	28.5
801.639	25.5
802.804	32.5
803.97	33.5
805.134	32
806.299	26
807.463	26
808.628	29.5
809.792	28
810.957	26
812.12	25.5
813.284	30.5
814.447	29
815.611	29
816.773	29
817.937	28.5
819.099	30
820.261	31
821.424	29
822.585	25
823.748	27
824.909	25
826.07	27.5
827.232	31
828.393	28
829.554	26
830.715	28.5
831.875	27.5
833.035	26.5
834.196	28.5
835.356	26
836.515	24.5
837.676	27.5
838.835	30
839.994	28
841.152	25
842.312	29
843.47	28
844.629	26.5
845.786	27
846.946	28
848.103	28
849.261	21.5
850.418	27
851.575	25
852.733	28.5
853.89	27.5
855.046	30
856.203	23
857.359	28
858.515	29
859.67	30
860.827	25
861.983	25
863.138	30.5
864.293	26.5
865.448	29.5
866.603	27
867.757	29
868.912	32.5
870.066	28.5
871.22	25
872.374	28
873.527	32
874.681	31
875.834	27
876.987	29.5
878.14	30
879.293	24
880.445	28.5
881.598	27.5
882.75	27.5
883.902	26
885.054	28.5
886.206	27.5
887.357	25
888.507	24.5
889.658	27.5
890.809	23.5
891.96	25.5
893.111	25
894.261	22
895.411	27.5
896.561	23.5
897.71	27
898.86	24
900.009	28
901.159	30
902.308	23.5
903.455	25.5
904.604	28
905.753	25.5
906.901	24
908.048	25.5
909.197	27
910.344	21.5
911.492	21
912.639	26
913.786	24
914.933	25
916.079	28
917.226	30
918.373	27.5
919.518	29.5
920.664	26
921.81	29
922.955	26.5
924.101	29.5
925.245	28
926.391	26.5
927.536	23
928.68	28
929.825	25
930.968	24.5
932.113	24
933.256	28
934.4	24
935.543	26.5
936.687	21
937.83	27.5
938.973	28
940.115	25
941.258	23.5
942.399	28.5
943.542	23.5
944.684	23
945.826	27
946.967	31
948.109	25.5
949.25	25
950.392	32.5
951.532	25.5
952.672	26.5
953.813	23.5
954.953	25
956.093	27.5
957.233	25
958.373	25
959.512	26
960.652	27.5
961.791	28
962.929	30
964.069	22
965.207	25.5
966.345	29
967.484	23.5
968.622	27
969.759	22.5
970.896	25.5
972.035	27
973.172	27
974.309	25
975.445	19.5
976.582	24.5
977.719	26
978.855	26
979.991	25
981.127	25
982.263	32.5
983.398	28
984.535	25
985.67	25.5
986.804	23.5
987.939	28
989.074	29
990.208	26
991.342	25.5
992.476	25
993.61	25
994.744	26.5
995.877	24
997.01	23
998.143	27
999.276	24
1000.41	24
1001.54	29.5
1002.67	24.5
1003.81	23.5
1004.94	23.5
1006.07	25.5
1007.2	28
1008.33	28.5
1009.47	25.5
1010.6	27
1011.73	23.5
1012.86	27
1013.99	29
1015.12	25
1016.25	22
1017.38	27
1018.51	24.5
1019.64	24
1020.77	25
1021.9	26
1023.03	25
1024.15	25
1025.28	25
1026.41	29.5
1027.54	23.5
1028.67	26
1029.8	24
1030.92	25
1032.05	20.5
1033.18	25.5
1034.31	26.5
1035.43	24
1036.56	26.5
1037.69	25.5
1038.81	25.5
1039.94	23
1041.07	28.5
1042.19	26.5
1043.32	24
1044.44	27
1045.57	24
1046.69	27
1047.82	30.5
1048.94	25
1050.07	24.5
1051.19	25
1052.32	27.5
1053.44	25.5
1054.57	24.5
1055.69	26
1056.81	27
1057.94	24
1059.06	26
1060.18	25.5
1061.31	27
1062.43	21.5
1063.55	24.5
1064.67	26.5
1065.8	25.5
1066.92	28
1068.04	24
1069.16	24
1070.28	18
1071.4	27.5
1072.52	25.5
1073.64	25.5
1074.76	28.5
1075.89	23.5
1077.01	27
1078.13	26
1079.25	25.5
1080.37	27.5
1081.49	23
1082.6	26
1083.72	26.5
1084.84	26
1085.96	26
1087.08	26.5
1088.2	24
1089.32	26
1090.43	27
1091.55	27.5
1092.67	22.5
1093.79	27
1094.91	24.5
1096.02	22
1097.14	27
1098.26	25.5
1099.37	28.5
1100.49	26.5
1101.61	27
1102.72	21.5
1103.84	23
1104.95	22
1106.07	21.5
1107.18	26
1108.3	25.5
1109.41	24.5
1110.53	27.5
1111.64	26
1112.76	23.5
1113.87	25.5
1114.99	24
1116.1	27.5
1117.21	24.5
1118.33	24
1119.44	26.5
1120.55	22.5
1121.67	26.5
1122.78	28
1123.89	25.5
1125	25.5
1126.12	26
1127.23	24.5
1128.34	25.5
1129.45	25.5
1130.56	27
1131.68	24
1132.79	26
1133.9	22.5
1135.01	21.5
1136.12	25
1137.23	27.5
1138.34	23.5
1139.45	22
1140.56	23.5
1141.67	23
1142.78	24
1143.89	21
1145	24
1146.11	22
1147.22	28
1148.32	27.5
1149.43	25
1150.54	24
1151.65	25
1152.76	23
1153.86	20
1154.97	23
1156.08	23.5
1157.19	21
1158.29	26.5
1159.4	22
1160.51	26
1161.61	24
1162.72	26.5
1163.83	25
1164.93	27.5
1166.04	24.5
1167.14	26
1168.25	23
1169.35	24.5
1170.46	25.5
1171.56	26
1172.67	24
1173.77	23.5
1174.88	24
1175.98	28
1177.08	27
1178.19	24
1179.29	27.5
1180.4	26
1181.5	24.5
1182.6	26
1183.71	27.5
1184.81	23.5
1185.91	25.5
1187.01	26
1188.12	25.5
1189.22	24.5
1190.32	27
1191.42	25
1192.52	25
1193.62	23
1194.72	21.5111
1195.83	23.9282
1196.93	27.4393
1198.03	23.5645
1199.13	26.0096
1200.23	23.0203
1201.33	25.4568
1202.43	27.7087
1203.53	22.6021
1204.63	26.5928
1205.73	22.0935
1206.83	19.4633
1207.92	20.302
1209.02	23.0912
1210.12	24.1998
1211.22	23.1721
1212.32	24.9614
1213.42	23.0226
1214.51	27.3507
1215.61	24.4056
1216.71	23.6981
1217.81	20.0079
1218.9	24.1229
1220	22.7203
1221.1	23.7855
1222.19	24.4184
1223.29	21.7542
1224.39	23.4231
1225.48	25.4214
1226.58	24.9407
1227.68	23.1426
1228.77	26.7767
1229.87	24.6362
1230.96	23.2421
1232.06	23.5111
1233.15	23.3779
1234.25	25.955
1235.34	23.9605
1236.43	24.4334
1237.53	24.8391
1238.62	21.4108
1239.72	26.3777
1240.81	24.2702
1241.9	24.5742
1243	22.429
1244.09	24.6297
1245.18	23.8175
1246.27	23.4557
1247.37	22.5447
1248.46	23.0633
1249.55	25.9268
1250.64	23.0536
1251.74	25.2077
1252.83	24.4806
1253.92	27.4171
1255.01	24.3513
1256.1	24.3076
1257.19	22.197
1258.28	25.2665
1259.38	27.8796
1260.46	27.1095
1261.56	23.3435
1262.65	28.4344
1263.74	24.8759
1264.82	26.0902
1265.91	26.073
1267	24.4567
1268.09	22.1775
1269.18	23.5939
1270.27	25.0807
1271.36	24.9834
1272.45	25.8663
1273.54	24.9187
1274.63	24.5873
1275.71	25.915
1276.8	23.4506
1277.89	23.2571
1278.98	23.4358
1280.06	24.4331
1281.15	23.3304
1282.24	20.9891
1283.32	25.1328
1284.41	24.892
1285.5	24.6856
1286.58	25.3819
1287.67	27.0849
1288.76	24.5955
1289.84	29.1653
1290.93	24.5159
1292.01	24.6646
1293.1	26.6615
1294.18	24.3965
1295.27	23.3058
1296.35	21.1745
1297.44	21.8759
1298.52	23.0674
1299.6	21.5039
1300.69	24.7032
1301.77	24.7877
1302.86	23.0675
1303.94	23.6134
1305.02	25.3889
1306.11	20.9827
1306.41	19
1307.5	22
1308.59	24.5
1309.68	19.5
1310.77	23.5
1311.85	22
1312.94	24.5
1314.03	28
1315.11	23.5
1316.2	27.5
1317.29	26
1318.37	25.5
1319.46	26
1320.55	25
1321.63	22.5
1322.72	23
1323.8	29
1324.89	22.5
1325.98	25.5
1327.06	24.5
1328.15	26.5
1329.23	24.5
1330.31	23.5
1331.4	22
1332.48	25
1333.57	26
1334.65	25.5
1335.74	27
1336.82	28
1337.9	21
1338.99	28
1340.07	25.5
1341.15	24.5
1342.24	28
1343.32	24
1344.4	23.5
1345.48	19
1346.56	23.5
1347.65	25.5
1348.73	22
1349.81	26
1350.89	27
1351.97	29
1353.05	23.5
1354.13	22
1355.21	24.5
1356.29	22.5
1357.37	21
1358.46	24.5
1359.54	29
1360.62	24.5
1361.69	24.5
1362.77	27
1363.85	25.5
1364.93	23.5
1366.01	29
1367.09	28.5
1368.17	24
1369.25	26
1370.33	25.5
1371.41	19
1372.48	23.5
1373.56	29
1374.64	29
1375.72	26.5
1376.79	23.5
1377.87	26.5
1378.95	26
1380.02	24.5
1381.1	26.5
1382.18	25
1383.25	26
1384.33	25.5
1385.4	26
1386.48	27.5
1387.56	28
1388.63	22
1389.71	28
1390.78	27
1391.86	25.5
1392.93	27.5
1394.01	25
1395.08	26.5
1396.15	27
1397.23	27
1398.3	28
1399.38	31
1400.45	27.5
1401.52	26.5
1402.6	27
1403.67	26
1404.74	32.5
1405.81	30.5
1406.89	26.5
1407.96	32
1409.03	28.5
1410.1	26
1411.17	28.5
1412.25	29
1413.32	30
1414.39	30
1415.46	27
1416.53	29.5
1417.6	29.5
1418.67	31.5
1419.74	24
1420.81	25
1421.88	29
1422.95	26.5
1424.02	22.5
1425.09	28
1426.16	27.5
1427.23	30
1428.3	25
1429.37	24
1430.44	29
1431.51	27
1432.58	27
1433.64	24
1434.71	25
1435.78	22.5
1436.85	27.5
1437.92	26
1438.98	23
1440.05	22.5
1441.12	25
1442.18	24.5
1443.25	27
1444.32	28.5
1445.38	25.5
1446.45	27
1447.52	23
1448.58	27.5
1449.65	21.5
1450.71	28
1451.78	23
1452.84	24.5
1453.91	26.5
1454.97	25.5
1456.04	29
1457.1	25.5
1458.17	24.5
1459.23	27.5
1460.3	27.5
1461.36	23.5
1462.42	24.5
1463.49	24
1464.55	26
1465.61	24.5
1466.68	26.5
1467.74	25
1468.8	26
1469.86	21.5
1470.93	24
1471.99	22.5
1473.05	26.5
1474.11	22.5
1475.17	24
1476.24	24
1477.3	27
1478.36	22.5
1479.42	25.5
1480.48	23
1481.54	28.5
1482.6	28
1483.66	24
1484.72	25
1485.78	22.5
1486.84	23
1487.9	23
1488.96	24.5
1490.02	23
1491.08	27.5
1492.14	25
1493.2	25
1494.26	25.5
1495.31	24
1496.37	26.5
1497.43	24
1498.49	25.5
1499.55	22
1500.6	25.5
1501.66	24
1502.72	27.5
1503.78	23
1504.83	26.5
1505.89	25
1506.95	24.5
1508	25
1509.06	26
1510.12	28
1511.17	25
1512.23	25.5
1513.28	26
1514.34	26
1515.39	26
1516.45	24.5
1517.5	26.5
1518.56	27
1519.61	28
1520.67	28
1521.72	24
1522.78	27.5
1523.83	24
1524.88	21.5
1525.94	25.5
1526.99	25.5
1528.05	24
1529.1	26
1530.15	28
1531.2	24.5
1532.26	26
1533.31	28
1534.36	24
1535.41	25
1536.47	24
1537.52	25.5
1538.57	25
1539.62	25.5
1540.67	25
1541.72	22
1542.77	27
1543.83	23.5
1544.88	24
1545.93	23
1546.98	26.5
1548.03	24.5
1549.08	25.5
1550.13	25
1551.18	28
1552.23	23
1553.28	21
1554.32	27
1555.37	24.5
1556.42	26
1557.47	25
1558.52	27.5
1559.57	22.5
1560.62	24
1561.67	26
1562.71	22
1563.76	24.5
1564.81	25.5
1565.86	25
1566.9	27.5
1567.95	25
1569	24
1570.04	24.5
1571.09	26
1572.14	24.5
1573.18	29.5
1574.23	25.5
1575.27	26
1576.32	27.5
1577.37	26
1578.41	29
1579.46	28.5
1580.5	27.5
1581.55	22.5
1582.59	27
1583.64	23.5
1584.68	27
1585.72	18.5
1586.77	23
1587.81	25
1588.86	23
1589.9	27.5
1590.94	23.5
1591.99	25
1593.03	28.5
1594.07	29
1595.12	25
1596.16	28
1597.2	27.5
1598.24	24.5
1599.29	25.5
1600.33	24.5
1601.37	23.5
1602.41	25
1603.45	26.5
1604.49	29
1605.53	27
1606.58	26
1607.62	23.5
1608.66	26
1609.7	30
1610.74	25.5
1611.78	24
1612.82	21.5
1613.86	25
1614.9	25.5
1615.94	25
1616.98	25
1618.02	26
1619.06	22
1620.09	27.5
1621.13	26.5
1622.17	23.5
1623.21	27.5
1624.25	27
1625.29	28
1626.32	21
1627.36	25.5
1628.4	22.5
1629.44	22.5
1630.47	24.5
1631.51	25
1632.55	23.5
1633.58	22
1634.62	25.5
1635.66	25.5
1636.69	25
1637.73	24
1638.77	25.5
1639.8	27.5
1640.84	25.5
1641.87	26.5
1642.91	26
1643.94	26
1644.98	27.5
1646.01	26.5
1647.05	30
1648.08	27
1649.12	26
1650.15	22.5
1651.18	27.5
1652.22	23.5
1653.25	26.5
1654.29	24.5
1655.32	23
1656.35	29
1657.39	26
1658.42	27.5
1659.45	23
1660.48	26.5
1661.52	22
1662.55	25
1663.58	24.5
1664.61	27
1665.64	25.5
1666.68	27
1667.71	26.5
1668.74	25.5
1669.77	24
1670.8	24.5
1671.83	24.5
1672.86	23
1673.89	27.5
1674.92	25
1675.95	30.5
1676.98	28.5
1678.01	23
1679.04	26
1680.07	23
1681.1	29
1682.13	27.5
1683.16	26.5
1684.19	25
1685.22	24
1686.25	30.5
1687.27	22
1688.3	26
1689.33	20
1690.36	25
1691.38	23
1692.41	23.5
1693.44	25
1694.47	26
1695.49	22
1696.52	25
1697.55	25.5
1698.57	23.5
1699.6	21
1700.63	28
1701.65	24.5
1702.68	26
1703.7	25.5
1704.73	23
1705.76	26.5
1706.78	23.5
1707.81	25.5
1708.83	25
1709.86	22.5
1710.88	30.5
1711.91	27
1712.93	23.5
1713.95	27
1714.98	25
1716	28.5
1717.03	27.5
1718.05	20
1719.07	24.5
1720.1	25.5
1721.12	26
1722.14	25.5
1723.16	24
1724.19	24
1725.21	27.5
1726.23	27.5
1727.25	26.5
1728.28	22
1729.3	27
1730.32	24.5
1731.34	24.5
1732.36	25.5
1733.38	22.5
1734.41	27
1735.43	22.5
1736.45	24
1737.47	23
1738.49	26
1739.51	26
1740.53	21
1741.55	27
1742.57	27.5
1743.59	25.5
1744.61	29.5
1745.63	28.5
1746.64	23.5
1747.66	26
1748.68	26
1749.7	24
1750.72	24
1751.74	24
1752.76	24
1753.77	24
1754.79	27.5
1755.81	24
1756.83	27
1757.84	26.5
1758.86	23
1759.88	25.5
1760.9	27
1761.91	28
1762.93	27.5
1763.95	22
1764.96	23.5
1765.98	26.5
1766.99	26.5
1768.01	22.5
1769.02	24
1770.04	27.5
1771.06	22.5
1772.07	22.5
1773.09	26
1774.1	25
1775.12	25
1776.13	26
1777.14	26
1778.16	27.5
1779.17	27.5
1780.19	26.5
1781.2	26
1782.21	24.5
1783.23	25.5
1784.24	28.5
1785.25	25.5
1786.27	24
1787.28	26.5
1788.29	25
1789.3	24
1790.32	25.5
1791.33	23
1792.34	22
1793.35	29
1794.36	25
1795.38	26
1796.39	23
1797.4	28.5
1798.41	25
1799.42	24
1800.43	25
1801.44	26
1802.45	25.5
1803.46	22
1804.47	27
1805.48	24
1806.49	27
1807.5	24.5
1808.51	26
1809.52	24.5
1810.53	22
1811.54	23
1812.55	25.5
1813.56	24
1814.57	26.5
1815.57	27.5
1816.58	25.5
1817.59	24
1818.6	27
1819.61	25
1820.61	21.5
1821.62	27.5
1822.63	23.5
1823.64	24.5
1824.64	28
1825.65	25
1826.66	23.5
1827.66	25.5
1828.67	25.5
1829.68	26
1830.68	26
1831.69	24
1832.69	24
1833.7	21.5
1834.7	25.5
1835.71	22
1836.71	27.5
1837.72	25.5
1838.72	25
1839.73	25
1840.73	23
1841.74	23
1842.74	26
1843.75	26
1844.75	22.5
1845.75	22
1846.76	25
1847.76	23
1848.76	22.5
1849.77	23.5
1850.77	26
1851.77	23
1852.78	26
1853.78	24.5
1854.78	30
1855.78	25
1856.78	21.5
1857.79	23
1858.79	29
1859.79	24
1860.79	28
1861.79	25.5
1862.79	24
1863.79	27
1864.79	26.5
1865.79	26
1866.8	21.5
1867.8	22.5
1868.8	27.5
1869.8	23
1870.8	27
1871.8	26.5
1872.8	24
1873.79	25
1874.79	26.5
1875.79	23
1876.79	25
1877.79	27.5
1878.79	25
1879.79	23
1880.79	23.5
1881.78	22.5
1882.78	24
1883.78	26
1884.78	25
1885.77	26
1886.77	24
1887.77	21.5
1888.77	27
1889.76	24
1890.76	24
1891.76	30
1892.75	23
1893.75	23
1894.75	25.5
1895.74	25
1896.74	23.5
1897.73	24.5
1898.73	22.5
1899.73	25.5
1900.72	23
1901.72	25
1902.71	24.5
1903.7	28
1904.7	23.5
1905.69	26.5
1906.69	27
1907.68	28
1908.68	26
1909.67	25.5
1910.66	28.5
1911.66	26
1912.65	28.5
1913.64	25
1914.64	21.5
1915.63	25.5
1916.62	27.5
1917.62	26.5
1918.61	24.5
1919.6	22
1920.59	27
1921.58	24.5
1922.58	23
1923.57	23.5
1924.56	27.5
1925.55	28
1926.54	22
1927.53	28
1928.52	23.5
1929.51	27
1930.51	25.5
1931.5	26
1932.49	26
1933.48	23.5
1934.47	24
1935.46	25.5
1936.45	23
1937.44	22
1938.42	27
1939.41	24
1940.4	23.5
1941.39	22
1942.38	26
1943.37	21.5
1944.36	23
1945.35	23.5
1946.33	24.5
1947.32	24
1948.31	25.5
1949.3	24.5
1950.29	21.5
1951.27	27.5
1952.26	26.5
1953.25	24
1954.23	22.5
1955.22	24.5
1956.21	24
1957.19	26
1958.18	27
1959.17	24
1960.15	24.5
1961.14	24
1962.13	23.5
1963.11	22
1964.1	27.5
1965.08	22
1966.07	21
1967.05	24.5
1968.04	22.5
1969.02	29
1970.01	25
1970.99	21.5
1971.97	28.5
1972.96	22
1973.94	23.5
1974.93	24.5
1975.91	27
1976.89	25
1977.88	26
1978.86	23.5
1979.84	22
1980.83	26
1981.81	26
1982.79	23.5
1983.77	25.5
1984.76	22.5
1985.74	25.5
1986.72	27
1987.7	22
1988.68	27.5
1989.67	27
1990.65	23
1991.63	25
1992.61	22
1993.59	25.5
1994.57	20.5
1995.55	26
1996.53	25.5
1997.51	23
1998.49	21
1999.47	21
2000.45	24
2001.43	22.5
2002.41	26
2003.39	26.5
2004.37	24
2005.35	21.5
2006.33	24.5
2007.31	22
2008.29	24
2009.26	22
2010.24	23.5
2011.22	21.5
2012.2	24.5
2013.18	22
2014.15	29.5
2015.13	23
2016.11	24
2017.09	20
2018.06	21
2019.04	25.5
2020.02	26.5
2021	22
2021.97	25
2022.95	25.5
2023.92	24.5
2024.9	25.5
2025.88	25
2026.85	23
2027.83	24.5
2028.8	26
2029.78	27.5
2030.75	22.5
2031.73	26.5
2032.7	25
2033.68	24
2034.65	22
2035.63	26
2036.6	22.5
2037.58	22.5
2038.55	22
2039.52	23.5
2040.5	24
2041.47	25.5
2042.45	29
2043.42	21.5
2044.39	21.5
2045.36	22
2046.34	22
2047.31	23.5
2048.28	23
2049.26	22
2050.23	27.5
2051.2	22.5
2052.17	23
2053.14	22
2054.12	23
2055.09	21
2056.06	24.5
2057.03	25
2058	25.5
2058.97	23.5
2059.94	24
2060.91	22.5
2061.88	21.5
2062.85	22
2063.82	25
2064.79	24.5
2065.76	22.5
2066.73	23
2067.7	22.5
2068.67	20.5
2069.64	25.5
2070.61	24.5
2071.58	21
2072.55	25.5
2073.52	25.5
2074.49	25.5
2075.45	24
2076.42	24
2077.39	24
2078.36	25.5
2079.33	24.5
2080.29	25.5
2081.26	20
2082.23	21
2083.2	25
2084.16	22
2085.13	21.5
2086.1	23
2087.06	24
2088.03	22.5
2089	21
2089.96	25.5
2090.93	19.5
2091.89	23
2092.86	22
2093.83	27
2094.79	24.5
2095.76	25.5
2096.72	24
2097.69	24.5
2098.65	24
2099.62	26.5
2100.58	26
2101.55	22
2102.51	23
2103.47	22.5
2104.44	26
2105.4	19
2106.36	25
2107.33	22.5
2108.29	22.5
2109.25	27
2110.22	24.5
2111.18	22.5
2112.14	23.5
2113.11	27
2114.07	19.5
2115.03	24
2115.99	27
2116.96	22
2117.92	24
2118.88	24.5
2119.84	25.5
2120.8	22.5
2121.76	26
2122.72	26.5
2123.68	23
2124.65	22
2125.61	21.5
2126.57	21
2127.53	25
2128.49	24.5
2129.45	23.5
2130.41	23
2131.37	21.5
2132.33	23.5
2133.29	23
2134.25	20.5
2135.21	20
2136.17	26
2137.12	23.5
2138.08	21
2139.04	26
2140	19.5
2140.96	20
2141.92	22
2142.88	20.0049
2143.83	22.937
2144.79	26.4757
2145.75	21.1069
2146.71	20.5407
2147.66	26.3039
2148.62	23.2719
2149.58	22.409
2150.53	23.8146
2151.49	25.1739
2152.45	22.6348
2153.4	22.7939
2154.36	23.105
2155.32	23.1283
2156.27	22.8782
2157.23	23.3585
2158.19	23.1914
2159.14	24.0155
2160.1	22.6993
2161.05	21.5947
2162.01	22.7825
2162.96	23.3838
2163.92	24.5665
2164.87	24.6263
2165.83	25.0691
2166.78	21.6631
2167.73	24.2118
2168.69	23.0524
2169.64	24.7478
2170.6	24.5357
2171.55	22.6128
2172.5	23.3762
2173.46	23.2829
2174.41	21.6176
2175.36	25.1074
2176.32	23.3466
2177.27	23.1585
2178.22	21.2835
2179.18	22.0756
2180.13	22.0993
2181.08	23.4606
2182.03	23.7593
2182.98	23.1174
2183.94	24.9349
2184.89	22.895
2185.84	23.1034
2186.79	22.0977
2187.74	21.9752
2188.69	25.2082
2189.64	20.5958
2190.6	21.815
2191.55	23.4631
2192.5	23.6719
2193.45	20.4269
2194.4	19.959
2195.35	22.6529
2196.3	21.5045
2197.25	24.5536
2198.2	22.6622
2199.15	23.7527
2200.1	19.9684
2201.04	24.0476
2201.99	23.7136
2202.94	22.7527
2203.89	24.0607
2204.84	21.0677
2205.79	23.4217
2206.74	23.1898
2207.69	21.3694
2208.63	22.469
2209.58	22.5203
2210.53	22.979
2211.48	23.3798
2212.43	24.4792
2213.37	23.9787
2214.32	23.9699
2215.27	22.1622
2216.21	20.3817
2217.16	23.0337
2218.11	22.4786
2219.05	24.4037
2220	20.7436
2220.95	19.8956
2221.89	22.3978
2222.84	24.3422
2223.78	22.2284
2224.73	21.8369
2225.68	21.7074
2226.62	24.5237
2227.57	23.7318
2228.51	24.8936
2229.46	22.3646
2230.4	23.8333
2231.35	20.9079
2232.29	24.108
2233.24	25.6894
2234.18	22.3276
2235.12	20.8051
2236.07	21.3596
2237.01	21.585
2237.95	23.3787
2238.9	23.5627
2239.84	21.5963
2240.06	21
2241.01	23
2241.96	23
2242.91	20.5
2243.86	24
2244.8	23.5
2245.75	20.5
2246.7	20.5
2247.65	22.5
2248.59	19
2249.54	24.5
2250.49	26
2251.43	22
2252.38	22
2253.33	21.5
2254.27	22
2255.22	24
2256.16	23
2257.11	25.5
2258.06	23.5
2259	19
2259.95	23
2260.89	24
2261.84	21.5
2262.78	26
2263.73	28.5
2264.67	20
2265.62	19
2266.56	18
2267.5	22.5
2268.45	27.5
2269.39	20.5
2270.34	22.5
2271.28	24
2272.22	24.5
2273.17	22
2274.11	18
2275.05	21
2276	22
2276.94	23
2277.88	22
2278.82	21
2279.77	21.5
2280.71	22.5
2281.65	22
2282.59	24.5
2283.53	21.5
2284.48	26
2285.42	24
2286.36	25
2287.3	21
2288.24	22.5
2289.18	23
2290.12	21
2291.06	21.5
2292	23
2292.94	21
2293.89	22.5
2294.83	26
2295.77	20.5
2296.71	18.5
2297.65	20
2298.58	20.5
2299.52	22.5
2300.46	20
2301.4	25.5
2302.34	22
2303.28	19.5
2304.22	24
2305.16	23
2306.1	18.5
2307.03	24.5
2307.97	24
2308.91	24
2309.85	25.5
2310.79	23
2311.72	21.5
2312.66	24
2313.6	26
2314.54	22
2315.47	26
2316.41	25.5
2317.35	23.5
2318.28	19
2319.22	25.5
2320.16	27
2321.09	24.5
2322.03	25
2322.96	21
2323.9	23.5
2324.84	21
2325.77	23
2326.71	20.5
2327.64	22
2328.58	22.5
2329.51	24.5
2330.45	26
2331.38	23.5
2332.32	20.5
2333.25	23
2334.18	24.5
2335.12	24.5
2336.05	22
2336.99	27
2337.92	19
2338.85	26
2339.79	24
2340.72	24.5
2341.65	23
2342.59	24.5
2343.52	19
2344.45	26
2345.39	21
2346.32	23
2347.25	28
2348.18	21
2349.11	24.5
2350.05	21.5
2350.98	20
2351.91	26
2352.84	26
2353.77	21.5
2354.7	22.5
2355.64	24.5
2356.57	24.5
2357.5	23
2358.43	24
2359.36	22
2360.29	23.5
2361.22	19
2362.15	24.5
2363.08	23
2364.01	28.5
2364.94	25
2365.87	27.5
2366.8	20.5
2367.73	23.5
2368.66	25
2369.58	24.5
2370.51	20
2371.44	22
2372.37	19.5
2373.3	22.5
2374.23	20.5
2375.16	23.5
2376.08	21
2377.01	23
2377.94	23.5
2378.87	26
2379.8	23.5
2380.72	23
2381.65	26
2382.58	22
2383.5	24.5
2384.43	26.5
2385.36	25.5
2386.28	21.5
2387.21	24.5
2388.14	23
2389.06	26
2389.99	22
2390.91	24
2391.84	23.5
2392.77	24
2393.69	21
2394.62	26
2395.54	24
2396.47	21.5
2397.39	25
2398.32	26.5
2399.24	24.5
2400.16	24
2401.09	26.5
2402.01	20
2402.94	22
2403.86	26
2404.78	23.5
2405.71	22.5
2406.63	20
2407.56	23.5
2408.48	25
2409.4	23
2410.32	20.5
2411.25	21.5
2412.17	23.5
2413.09	22
2414.02	23
2414.94	22
2415.86	22
2416.78	25.5
2417.7	22
2418.63	26.5
2419.55	25.5
2420.47	22.5
2421.39	21
2422.31	25
2423.23	23
2424.15	19
2425.07	23
2425.99	26.5
2426.92	25
2427.84	21.5
2428.76	24
2429.68	23
2430.59	21.5
2431.51	22.5
2432.43	19
2433.35	23.5
2434.27	26
2435.19	22
2436.11	21.5
2437.03	22.5
2437.95	26
2438.87	22.5
2439.79	21.5
2440.71	27
2441.62	26.5
2442.54	25
2443.46	26.5
2444.38	27.5
2445.3	19.5
2446.21	21
2447.13	21
2448.05	23.5
2448.97	21
2449.88	22.5
2450.8	22
2451.72	29
2452.63	25.5
2453.55	26
2454.47	24.5
2455.38	22
2456.3	22
2457.21	21
2458.13	24
2459.05	23.5
2459.96	21
2460.88	26
2461.79	21.5
2462.71	23
2463.62	22
2464.54	23
2465.45	27.5
2466.37	30.5
2467.28	25
2468.2	22.5
2469.11	26
2470.02	22.5
2470.94	23
2471.85	25.5
2472.77	21.5
2473.68	23
2474.59	23
2475.51	23
2476.42	23
2477.33	28
2478.25	24
2479.16	27
2480.07	18.5
2480.98	27
2481.9	22
2482.81	20.5
2483.72	24.5
2484.63	29
2485.55	24.5
2486.46	24
2487.37	20.5
2488.28	23.5
2489.19	25.5
2490.1	24
2491.01	20
2491.92	24.5
2492.83	27
2493.74	24.5
2494.66	22.5
2495.57	25
2496.48	23
2497.39	27.5
2498.3	22
2499.21	27
2500.12	18.5
2501.03	23.5
2501.93	18
2502.84	26.5
2503.75	24
2504.66	21.5
2505.57	24
2506.48	26.5
2507.39	23.5
2508.3	23
2509.21	25
2510.11	25
2511.02	26.5
2511.93	25
2512.84	24
2513.75	22
2514.65	21.5
2515.56	23
2516.47	24
2517.37	24
2518.28	22
2519.19	26
2520.09	24
2521	25
2521.91	23
2522.81	21.5
2523.72	23.5
2524.63	26.5
2525.53	21
2526.44	25
2527.34	25
2528.25	24
2529.16	25.5
2530.06	25
2530.97	26
2531.87	23
2532.78	22
2533.68	24.5
2534.58	28.5
2535.49	24
2536.39	23.5
2537.3	24.5
2538.2	22
2539.11	22.5
2540.01	24
2540.91	25
2541.82	24
2542.72	22
2543.62	26.5
2544.53	21
2545.43	23
2546.33	23
2547.23	23
2548.14	23.5
2549.04	26.5
2549.94	25.5
2550.84	27
2551.75	25
2552.65	26
2553.55	23.5
2554.45	24.5
2555.35	25
2556.26	23
2557.16	21
2558.06	26.5
2558.96	24.5
2559.86	25
2560.76	27.5
2561.66	28.5
2562.56	23.5
2563.46	27
2564.36	25
2565.26	28.5
2566.16	24.5
2567.06	28
2567.96	26.5
2568.86	23.5
2569.76	27
2570.66	23
2571.56	23
2572.46	22
2573.36	23.5
2574.26	26
2575.16	26
2576.05	23.5
2576.95	22
2577.85	27
2578.75	28
2579.65	26
2580.54	26.5
2581.44	25.5
2582.34	25.5
2583.24	22.5
2584.13	25.5
2585.03	21.5
2585.93	22.5
2586.83	24
2587.72	21
2588.62	26
2589.52	26
2590.41	25.5
2591.31	27
2592.2	25
2593.1	25
2594	25.5
2594.89	26
2595.79	25.5
2596.68	24
2597.58	25
2598.47	18.5
2599.37	29.5
2600.26	26
2601.16	25.5
2602.05	27
2602.95	20.5
2603.84	28
2604.74	24.5
2605.63	27
2606.52	23
2607.42	24.5
2608.31	24
2609.21	28
2610.1	26.5
2610.99	25.5
2611.89	22.5
2612.78	23
2613.67	25.5
2614.56	24
2615.46	26
2616.35	27.5
2617.24	22.5
2618.13	23
2619.03	25
2619.92	27.5
2620.81	24.5
2621.7	25
2622.59	26.5
2623.49	26
2624.38	23.5
2625.27	26
2626.16	23
2627.05	21
2627.94	25
2628.83	26
2629.72	25.5
2630.61	26
2631.5	26
2632.39	26
2633.28	26.5
2634.17	24.5
2635.06	25
2635.95	25
2636.84	25.5
2637.73	24.5
2638.62	23.5
2639.51	27.5
2640.4	22.5
2641.29	21.5
2642.18	23.5
2643.07	21.5
2643.96	22.5
2644.84	24
2645.73	25
2646.62	25
2647.51	22.5
2648.4	27
2649.28	24.5
2650.17	23.5
2651.06	20.5
2651.95	22.5
2652.83	24.5
2653.72	26.5
2654.61	22
2655.49	22.5
2656.38	22
2657.27	23
2658.16	26.5
2659.04	23.5
2659.93	24.5
2660.81	25.5
2661.7	24
2662.59	28
2663.47	22
2664.36	25
2665.24	24.5
2666.13	23
2667.01	23
2667.9	26
2668.78	24.5
2669.67	26.5
2670.55	22
2671.44	24.5
2672.32	24
2673.21	21
2674.09	22
2674.97	23
2675.86	22.5
2676.74	27.5
2677.62	22.5
2678.51	27
2679.39	23
2680.27	28
2681.16	26
2682.04	20.5
2682.92	26
2683.81	24.5
2684.69	24
2685.57	26.5
2686.45	22
2687.34	27.5
2688.22	25
2689.1	21
2689.98	23
2690.86	23.5
2691.75	18
2692.63	21
2693.51	22.5
2694.39	27
2695.27	23
2696.15	26
2697.03	25
2697.91	24
2698.79	24.5
2699.67	27
2700.55	24
2701.43	23
2702.31	23.5
2703.19	23.5
2704.07	21.5
2704.95	21
2705.83	25
2706.71	22
2707.59	23.5
2708.47	26
2709.35	25.5
2710.23	23
2711.11	27
2711.99	28
2712.86	19
2713.74	22
2714.62	28.5
2715.5	22
2716.38	23
2717.26	25
2718.13	24
2719.01	26
2719.89	24.5
2720.77	23
2721.64	26
2722.52	21
2723.4	23
2724.27	23.5
2725.15	24
2726.03	21
2726.9	25.5
2727.78	21.5
2728.66	23.5
2729.53	24
2730.41	28.5
2731.28	24
2732.16	28.5
2733.03	24.5
2733.91	24
2734.79	26
2735.66	23.5
2736.54	23.5
2737.41	25.5
2738.29	26.5
2739.16	26.5
2740.03	26
2740.91	22.5
2741.78	24
2742.66	26
2743.53	24.5
2744.41	26
2745.28	24
2746.15	22.5
2747.03	22.5
2747.9	25.5
2748.77	20.5
2749.65	24.5
2750.52	26
2751.39	22
2752.27	23
2753.14	23
2754.01	26.5
2754.88	22.5
2755.75	25
2756.63	26.5
2757.5	23
2758.37	24.5
2759.24	21.5
2760.11	23
2760.99	26
2761.86	21
2762.73	23.5
2763.6	26.5
2764.47	20
2765.34	26.5
2766.21	23.5
2767.08	22.5
2767.95	22.5
2768.82	23
2769.69	21
2770.56	26
2771.43	24
2772.3	26
2773.17	23.5
2774.04	26
2774.91	23
2775.78	24.5
2776.65	27.5
2777.52	24.5
2778.39	26
2779.26	22
2780.13	23
2780.99	23.5
2781.86	22
2782.73	25
2783.6	26
2784.47	25
2785.34	24.5
2786.2	24.5
2787.07	24
2787.94	23
2788.81	24
2789.67	26
2790.54	29.5
2791.41	25
2792.27	24
2793.14	26
2794.01	22.5
2794.87	25
2795.74	23
2796.61	25
2797.47	27.5
2798.34	24.5
2799.21	26.5
2800.07	25.5
2800.94	24.75
2801.8	24
2802.67	26
2803.53	26
2804.4	25
2805.26	25
2806.13	24.5
2806.99	25
2807.86	24.5
2808.72	26
2809.59	28.5
2810.45	27
2811.32	26.5
2812.18	25.5
2813.04	27.5
2813.91	25.5
2814.77	23
2815.64	27
2816.5	29
2817.36	25
2818.22	25
2819.09	26
2819.95	24.5
2820.81	25
2821.68	25
2822.54	20
2823.4	28.5
2824.26	21
2825.13	21
2825.99	23
2826.85	26
2827.71	27
2828.57	23.5
2829.44	26.5
2830.3	25.5
2831.16	23
2832.02	23.5
2832.88	25.5
2833.74	25
2834.6	25
2835.46	20
2836.32	26.5
2837.18	27.5
2838.04	25
2838.9	27
2839.76	25
2840.62	27.5
2841.48	26.5
2842.34	24.5
2843.2	25
2844.06	27
2844.92	26
2845.78	25
2846.64	22.5
2847.5	27
2848.36	30
2849.22	27.5
2850.08	23
2850.93	26
2851.79	29
2852.65	24.5
2853.51	22.5
2854.37	27.5
2855.22	26
2856.08	22
2856.94	24.5
2857.8	27.5
2858.65	26.5
2859.51	26.5
2860.37	26.5
2861.23	23.5
2862.08	28
2862.94	21
2863.79	27
2864.65	21
2865.51	25
2866.36	26.5
2867.22	26
2868.08	28
2868.93	24.5
2869.79	29
2870.64	26
2871.5	27
2872.35	26
2873.21	30.5
2874.06	31.5
2874.92	28
2875.77	27.5
2876.63	28.5
2877.48	27
2878.34	32
2879.19	28.5
2880.05	32
2880.9	30
2881.76	33
2882.61	31
2883.46	30
2884.32	33.5
2885.17	29
2886.02	36.5
2886.88	37.5
2887.73	32
2888.58	35
2889.44	34
2890.29	35
2891.14	38
2891.99	39.5
2892.85	39
2893.7	38
2894.55	42
2895.4	41.5
2896.25	47
2897.11	49.5
2897.96	47
2898.81	55.5
2899.66	52
2900.51	52.5
2901.36	60
2902.21	59
2903.07	62.5
2903.92	65.5
2904.77	59
2905.62	59.5
2906.47	65.5
2907.32	60
2908.17	52
2909.02	62
2909.87	56
2910.72	55
2911.57	54
2912.42	53.5
2913.27	47
2914.12	44.5
2914.97	46
2915.81	40
2916.66	42.5
2917.51	42
2918.36	38.5
2919.21	37.5
2920.06	33
2920.91	35
2921.75	35
2922.6	33
2923.45	30
2924.3	33
2925.15	30.5
2925.99	30.5
2926.84	26.5
2927.69	27.5
2928.54	30
2929.38	28
2930.23	32
2931.08	25
2931.92	24
2932.77	27.5
2933.62	27
2934.46	29
2935.31	29
2936.16	28
2937	28.5
2937.85	31
2938.69	26.5
2939.54	19.5
2940.38	27
2941.23	25.5
2942.08	24.5
2942.92	29
2943.77	28
2944.61	28
2945.46	26.5
2946.3	27
2947.15	25
2947.99	27.5
2948.83	27.5
2949.68	23
2950.52	31
2951.37	27.5
2952.21	33
2953.05	32.5
2953.9	29.5
2954.74	34.5
2955.58	26.5
2956.43	33
2957.27	31
2958.11	33
2958.96	33.5
2959.8	33
2960.64	41.5
2961.48	38.5
2962.33	36.5
2963.17	38.5
2964.01	37
2964.85	41.5
2965.69	40.5
2966.54	36
2967.38	39
2968.22	40
2969.06	37
2969.9	40
2970.74	39
2971.58	38.9927
2972.43	33.9498
2973.27	33.0614
2974.11	30.2506
2974.95	30.6667
2975.79	32.0826
2976.63	34.1248
2977.47	32.6034
2978.31	31.9406
2979.15	25.8667
2979.99	27.8904
2980.83	30.893
2981.67	26.334
2982.51	28.2108
2983.35	27.8492
2984.19	26.4071
2985.03	27.2525
2985.86	27.0406
2986.7	23.7935
2987.54	25.7332
2988.38	24.8832
2989.22	24.0187
2990.06	26.6116
2990.9	26.5818
2991.73	25.0011
2992.57	22.0941
2993.41	23.8978
2994.25	23.9168
2995.09	22.8317
2995.92	25.0202
2996.76	25.4349
2997.6	24.8922
2998.44	25.9368
2999.27	25.6036
3000.11	23.1689
3000.95	23.0051
3001.78	24.744
3002.62	23.416
3003.46	22.3691
3004.29	25.0677
3005.13	25.3069
3005.96	22.8131
3006.8	23.1543
3007.64	23.375
3008.47	24.2363
3009.31	22.8117
3010.14	22.7051
3010.98	23.3103
3011.81	24.4681
3012.65	22.7948
3013.48	22.2143
3014.32	24.3347
3015.15	24.6661
3015.99	23.3256
3016.82	23.4939
3017.66	25.8052
3018.49	21.6387
3019.33	21.0393
3020.16	24.9091
3020.99	26.32
3021.83	23.9057
3022.66	21.6283
3023.5	20.5617
3024.33	21.767
3025.16	20.4514
3026	22.0366
3026.83	22.5316
3027.66	22.5963
3028.49	23.9761
3029.33	22.4802
3030.16	21.1379
3030.99	21.5345
3031.83	23.9692
3032.66	21.6769
3033.49	20.8301
3034.32	22.8825
3035.15	23.7047
3035.99	21.4142
3036.82	20.2892
3037.65	21.5773
3038.48	21.6309
3039.31	24.0726
3040.14	24.5415
3040.97	22.4707
3041.81	22.9816
3042.64	24.1682
3043.47	23.3236
3044.3	21.2247
3045.13	21.1408
3045.96	22.7136
3046.79	26.0915
3047.62	24.2982
3048.45	22.0498
3049.28	22.8588
3050.11	23.4841
3050.94	22.7679
3051.77	22.5888
3052.6	21.9466
3053.43	22.1311
3054.26	21.807
3055.08	21.6316
3055.91	21.2264
3056.74	20.0024
3057.26	20
3058.09	24
3058.92	24.5
3059.76	22
3060.59	23
3061.42	21.5
3062.25	22
3063.09	24
3063.92	22.5
3064.75	24
3065.58	26.5
3066.42	24
3067.25	24.5
3068.08	21
3068.91	23
3069.74	18.5
3070.57	24
3071.41	21.5
3072.24	27
3073.07	20
3073.9	23.5
3074.73	22.5
3075.56	21
3076.39	20.5
3077.22	19.5
3078.05	23.5
3078.88	26
3079.71	23
3080.54	23
3081.37	22
3082.2	26
3083.03	26
3083.86	21.5
3084.69	25.5
3085.52	21.5
3086.35	21
3087.18	22.5
3088.01	18
3088.84	21.5
3089.67	22.5
3090.5	22.5
3091.32	24.5
3092.15	21
3092.98	25
3093.81	24
3094.64	23
3095.47	26
3096.29	23.5
3097.12	23
3097.95	25
3098.78	23
3099.6	22
3100.43	21.5
3101.26	24
3102.09	24.5
3102.91	19
3103.74	20
3104.57	20.5
3105.39	23
3106.22	21.5
3107.05	25.5
3107.87	24.5
3108.7	23.5
3109.52	19
3110.35	23
3111.18	25
3112	24.5
3112.83	22.5
3113.65	21
3114.48	23
3115.3	21
3116.13	22.5
3116.95	23
3117.78	23
3118.6	22
3119.43	28.5
3120.25	23
3121.08	26.5
3121.9	21.5
3122.72	26
3123.55	23.5
3124.37	20
3125.2	16
3126.02	21
3126.84	20
3127.67	24.5
3128.49	24
3129.31	24
3130.14	22
3130.96	25
3131.78	24.5
3132.61	25.5
3133.43	18.5
3134.25	21.5
3135.07	24
3135.89	21.5
3136.72	22.5
3137.54	24
3138.36	19.5
3139.18	27
3140	29.5
3140.83	23
3141.65	22.5
3142.47	19.5
3143.29	22.5
3144.11	24
3144.93	20
3145.75	24
3146.57	22.5
3147.4	21.5
3148.22	21
3149.04	26
3149.86	21
3150.68	21
3151.5	24
3152.32	20
3153.14	22
3153.96	23.5
3154.78	23.5
3155.59	21
3156.42	22
3157.23	24
3158.05	25.5
3158.87	23
3159.69	21.5
3160.51	21
3161.33	25.5
3162.15	22
3162.97	26.5
3163.78	26
3164.6	25.5
3165.42	23
3166.24	25
3167.06	27
3167.87	26.5
3168.69	21.5
3169.51	23
3170.33	23
3171.14	21.5
3171.96	24
3172.78	22
3173.6	24.5
3174.41	22.5
3175.23	24
3176.05	23.5
3176.86	20
3177.68	22.5
3178.5	22.5
3179.31	24
3180.13	22.5
3180.94	25.5
3181.76	19.5
3182.58	19
3183.39	23
3184.21	23.5
3185.02	24.5
3185.84	23
3186.65	25.5
3187.47	25
3188.28	23
3189.1	26
3189.91	25.5
3190.73	19.5
3191.54	24
3192.36	22.5
3193.17	25
3193.98	22
3194.8	23.5
3195.61	23
3196.43	23.5
3197.24	19
3198.05	25
3198.87	23.5
3199.68	23.5
3200.49	26.5
3201.31	23
3202.12	19
3202.93	28
3203.75	23.5
3204.56	23
3205.37	24
3206.18	24.5
3207	21
3207.81	23
3208.62	18.5
3209.43	25
3210.24	24
3211.06	25
3211.87	27
3212.68	21.5
3213.49	25
3214.3	22
3215.11	21.5
3215.92	22
3216.73	24
3217.55	23
3218.36	23.5
3219.17	23.5
3219.98	24
3220.79	25.5
3221.6	21.5
3222.41	25.5
3223.22	22.5
3224.03	22.5
3224.84	19.5
3225.65	22
3226.46	17.5
3227.27	21
3228.08	23
3228.89	23
3229.7	25
3230.5	23
3231.31	24
3232.12	23.5
3232.93	25
3233.74	25
3234.55	23.5
3235.36	20
3236.16	25
3236.97	23
3237.78	27
3238.59	23.5
3239.4	23
3240.2	22.5
3241.01	26
3241.82	19.5
3242.63	25
3243.43	27
3244.24	26.5
3245.05	24.5
3245.85	25.5
3246.66	22.5
3247.47	21.5
3248.27	21
3249.08	24.5
3249.89	25
3250.69	23
3251.5	20
3252.31	25.5
3253.11	22
3253.92	24
3254.72	26.5
3255.53	22
3256.33	23
3257.14	24.5
3257.94	30
3258.75	26
3259.55	24
3260.36	23.5
3261.16	23
3261.97	22
3262.77	23.5
3263.58	25
3264.38	22.5
3265.19	26.5
3265.99	21.5
3266.79	24.5
3267.6	24
3268.4	23
3269.21	24
3270.01	22
3270.81	27
3271.62	19
3272.42	25
3273.22	21
3274.03	24
3274.83	23
3275.63	23.5
3276.43	22
3277.24	25
3278.04	26
3278.84	26
3279.64	23.5
3280.45	22.5
3281.25	24.5
3282.05	23
3282.85	22.5
3283.65	24.5
3284.45	25
3285.26	23.5
3286.06	23
3286.86	25
3287.66	24.5
3288.46	23.5
3289.26	25
3290.06	23.5
3290.86	23
3291.66	22
3292.46	24
3293.26	22.5
3294.06	26
3294.86	23.5
3295.66	21.5
3296.46	23
3297.26	23
3298.06	21
3298.86	24
3299.66	28
3300.46	24.5
3301.26	21.5
3302.06	24
3302.86	24
3303.66	21
3304.46	24
3305.25	22
3306.05	21.5
3306.85	25.5
3307.65	22
3308.45	21
3309.25	26
3310.04	23.5
3310.84	21.5
3311.64	25.5
3312.44	21
3313.23	24
3314.03	22
3314.83	27.5
3315.63	21.5
3316.42	26.5
3317.22	26.5
3318.02	20
3318.81	21.5
3319.61	25
3320.41	22
3321.2	24.5
3322	22
3322.8	18
3323.59	26.5
3324.39	24.5
3325.18	22
3325.98	24
3326.78	24.5
3327.57	25.5
3328.37	24.5
3329.16	20
3329.96	25.5
3330.75	27.5
3331.55	25.5
3332.34	22.5
3333.14	24.5
3333.93	26.5
3334.73	24
3335.52	21
3336.31	22
3337.11	24
3337.9	26.5
3338.7	18.5
3339.49	22
3340.28	22.5
3341.08	27.5
3341.87	22.5
3342.66	26
3343.46	20.5
3344.25	21.5
3345.04	23.5
3345.84	21
3346.63	22.5
3347.42	28
3348.22	19.5
3349.01	27
3349.8	24
3350.59	25
3351.39	24.5
3352.18	23
3352.97	23.5
3353.76	25
3354.55	23.5
3355.35	21
3356.14	23
3356.93	24.5
3357.72	26
3358.51	22.5
3359.3	23
3360.09	27
3360.88	26
3361.67	26.5
3362.46	22.5
3363.26	21
3364.05	25
3364.84	24.5
3365.63	23
3366.42	23.5
3367.21	21
3368	23.5
3368.79	25
3369.58	25.5
3370.37	24
3371.15	22.5
3371.94	23
3372.73	24
3373.52	21
3374.31	24
3375.1	27
3375.89	23
3376.68	22
3377.47	21.5
3378.26	24
3379.04	21.5
3379.83	22
3380.62	26
3381.41	23.5
3382.2	23.5
3382.98	23
3383.77	21.5
3384.56	24
3385.35	27.5
3386.13	22.5
3386.92	24
3387.71	25.5
3388.5	23.5
3389.28	25.5
3390.07	22
3390.86	26.5
3391.64	27
3392.43	22
3393.22	17
3394	21
3394.79	25.5
3395.57	24.5
3396.36	22.5
3397.15	23
3397.93	25.5
3398.72	28.5
3399.5	24
3400.29	23.5
3401.07	25
3401.86	28
3402.65	23.5
3403.43	22
3404.21	24.5
3405	25.5
3405.78	23
3406.57	26
3407.35	24.5
3408.14	19.5
3408.92	21.5
3409.71	20.5
3410.49	22.5
3411.27	22.5
3412.06	23
3412.84	21
3413.62	24
3414.41	23
3415.19	24
3415.97	23.5
3416.76	22
3417.54	27
3418.32	24
3419.11	23
3419.89	27
3420.67	21.5
3421.46	26
3422.24	25.5
3423.02	20.5
3423.8	24
3424.58	22
3425.37	25.5
3426.15	20
3426.93	26
3427.71	25
3428.49	25.5
3429.27	24
3430.05	26
3430.84	27.5
3431.62	25.5
3432.4	19.5
3433.18	26
3433.96	22
3434.74	25
3435.52	23
3436.3	23.5
3437.08	25.5
3437.86	18
3438.64	24
3439.42	24
3440.2	24
3440.98	21.5
3441.76	22.5
3442.54	24.5
3443.32	24.5
3444.1	24.5
3444.88	24
3445.66	24
3446.44	21.5
3447.22	22
3448	26
3448.77	24
3449.55	25
3450.33	24.5
3451.11	22
3451.89	24
3452.67	26
3453.45	25.5
3454.22	26
3455	23.5
3455.78	23
3456.56	22
3457.33	25.5
3458.11	25
3458.89	22
3459.67	21
3460.44	23.5
3461.22	21.5
3462	26
3462.77	23
3463.55	25.5
3464.33	21
3465.1	24
3465.88	24
3466.66	24
3467.43	28
3468.21	27.5
3468.98	26
3469.76	20
3470.54	25
3471.31	26
3472.09	24.5
3472.86	23.5
3473.64	24.5
3474.41	22.5
3475.19	25.5
3475.96	25
3476.74	26.5
3477.51	26
3478.29	20
3479.06	31
3479.84	24.5
3480.61	23
3481.39	23
3482.16	24
3482.93	24.5
3483.71	21
3484.48	25.5
3485.25	22.5
3486.03	20.5
3486.8	25
3487.57	21.5
3488.35	21.5
3489.12	24.5
3489.89	23
3490.67	22.5
3491.44	26.5
3492.21	28
3492.99	22.5
3493.76	23.5
3494.53	21
3495.3	27
3496.08	25
3496.85	22
3497.62	23.5
3498.39	24.5
3499.16	23
3499.93	24
