#Acq. time (s)=	5
#Accumulations=	5
#Range (cm-ｹ)=	100...3500
#Windows=	4
#Autofocus=	Off
#AutoExposure=	Off
#Spike filter=	Multiple accum.
#Delay time (s)=	0
#Binning=	1
#Readout mode=	Signal
#DeNoise=	Off
#ICS correction=	Off
#Dark correction=	Off
#Inst. Process=	Off
#Instrument=	LabRAM HR Evol
#Detector=	Syncerity OE
#Objective=	x100_VIS
#Grating=	600 (500nm)
#ND Filter=	25%
#Laser=	633nm_Edge
#Hole=	100.021
#Range=	Visible
#Project=	verificaciones
#Sample=	at1
#Site=	plain
#Title=	bolusat1plain
#Remark=	com
#Date=	16.01.2026 15:53
#Acquired=	16.01.2026 15:53:31
100.564	23
101.847	27.5
103.131	36
104.414	31.5
105.697	31
106.979	32
108.262	32.5
109.544	28.5
110.826	28.5
112.109	32
113.391	29
114.672	34
115.954	27
117.235	30
118.515	33
119.796	31.5
121.076	31
122.357	36.5
123.637	33
124.916	35.5
126.196	31.5
127.475	34.5
128.754	30.5
130.033	32.5
131.31	36.5
132.589	30
133.867	37
135.145	38
136.423	37
137.701	38
138.978	38
140.256	33.5
141.533	38
142.809	38
144.086	39
145.361	43.5
146.637	38.5
147.913	38
149.189	41.5
150.464	36
151.74	47.5
153.014	41
154.288	38.5
155.563	40
156.838	39
158.112	42.5
159.385	43
160.659	41
161.932	36
163.206	40
164.479	41
165.751	39.5
167.024	41
168.296	41
169.567	39
170.84	42
172.112	42
173.383	43
174.654	40
175.925	42
177.196	43
178.466	41
179.737	40
181.007	44
182.276	41.5
183.546	41.5
184.816	41
186.085	46
187.354	42
188.624	43.5
189.891	36.5
191.16	42.5
192.427	40.5
193.696	42.5
194.964	40
196.231	41.5
197.499	40.5
198.765	41
200.033	43
201.298	39
202.566	41.5
203.831	36
205.098	37
206.363	37
207.629	35.5
208.894	35
210.159	38.5
211.424	39
212.689	34
213.953	35
215.218	37
216.481	36
217.746	38
219.009	32.5
220.273	33.5
221.536	36.5
222.798	33
224.062	30.5
225.323	33
226.587	34
227.848	36
229.109	34
230.372	31.5
231.633	31.5
232.894	27
234.156	35
235.416	33
236.678	30
237.937	29
239.197	31
240.457	33.5
241.717	29
242.976	31
244.235	29
245.495	29
246.754	33
248.012	28.5
249.27	30.5
250.529	30
251.787	29
253.045	34.5
254.302	29.5
255.56	31.5
256.817	27
258.074	30
259.33	26
260.586	28
261.844	26
263.1	33
264.355	26.5
265.611	31.5
266.866	32
268.121	29
269.377	30
270.632	26
271.886	30.5
273.14	30.5
274.394	25.5
275.648	27
276.902	28.5
278.155	27
279.408	31
280.663	31
281.915	26.5
283.168	33
284.42	28.5
285.673	28.5
286.925	26
288.176	28.5
289.428	31
290.679	31
291.93	29.5
293.181	30
294.432	32
295.683	30
296.933	28
298.183	28
299.433	28
300.683	29
301.932	28
303.182	31
304.429	29
305.678	31.5
306.927	28
308.176	30
309.424	31.5
310.672	28
311.92	32.5
313.168	25
314.415	27.5
315.661	31
316.908	26.5
318.155	26.5
319.402	29.5
320.648	30.5
321.895	29
323.139	32
324.385	32.5
325.631	31
326.877	29
328.122	26.5
329.366	31
330.611	30
331.855	30.5
333.1	29
334.343	27
335.587	28.5
336.831	33
338.074	27
339.317	29
340.56	26.5
341.803	29.5
343.044	31.5
344.287	29
345.53	27
346.771	31
348.013	34
349.255	26.5
350.495	31
351.736	28.5
352.978	28.5
354.217	33
355.458	29.5
356.699	23
357.938	30
359.178	31.5
360.417	26
361.657	30
362.895	26.5
364.135	28
365.374	25
366.612	28.5
367.851	30
369.088	25
370.327	33
371.564	29
372.802	31
374.038	29.5
375.276	27
376.512	31
377.749	30.5
378.985	29.5
380.222	28.5
381.457	31
382.692	29.5
383.929	29.5
385.164	30
386.4	25.5
387.634	31
388.869	26
390.103	30.5
391.337	28.5
392.572	29
393.805	28.5
395.038	30
396.273	30
397.506	29
398.74	28.5
399.972	27.5
401.204	27
402.437	29
403.669	29
404.901	27
406.132	27
407.365	30.5
408.596	27.5
409.826	29
411.058	25.5
412.289	32.5
413.519	30.5
414.749	31.5
415.98	30
417.21	30
418.439	26.5
419.668	27
420.897	27.5
422.128	26
423.356	31
424.585	30.5
425.813	28
427.041	28
428.269	25.5
429.498	25.5
430.725	30
431.952	31.5
433.179	26
434.406	29.5
435.633	28.5
436.859	29.5
438.085	31
439.312	32.5
440.537	26
441.764	29.5
442.99	26.5
444.215	28
445.44	26
446.665	27.5
447.89	28.5
449.114	32
450.339	30.5
451.563	30.5
452.787	30.5
454.01	28
455.234	30.5
456.457	30.5
457.68	32
458.903	28.5
460.126	29.5
461.348	26.5
462.569	33.5
463.792	29
465.013	36
466.235	34.5
467.457	32.5
468.678	34
469.899	30.5
471.12	34
472.341	36.5
473.56	38
474.781	40
476.001	41
477.221	40.5
478.441	45
479.66	50
480.878	48
482.098	55
483.317	51.5
484.535	61.5
485.754	62.5
486.971	63
488.189	64
489.407	62.5
490.625	66.5
491.842	57
493.059	62.5
494.276	50
495.493	51
496.709	50
497.926	50.5
499.142	43
500.357	44
501.573	39
502.789	38.5
504.003	38
505.219	48
506.434	40
507.648	44
508.863	41.5
510.078	36.5
511.291	35.5
512.505	34
513.718	34.5
514.932	35
516.145	30
517.358	31
518.572	29.5
519.783	33
520.997	34
522.208	37.5
523.421	31.5
524.632	35
525.844	33
527.055	31
528.266	30.5
529.477	32
530.688	36
531.898	34
533.109	30
534.319	30
535.53	27.5
536.739	32
537.948	30.5
539.158	26.5
540.366	29
541.576	32
542.784	34
543.994	30.5
545.201	30.5
546.409	27.5
547.618	31
548.825	29.5
550.032	32.5
551.24	27
552.447	30.5
553.654	25.5
554.861	27
556.067	28
557.273	31
558.48	31
559.686	29.5
560.891	27.5
562.096	31.5
563.302	30
564.507	25.5
565.712	27.5
566.916	26
568.122	27.5
569.326	27.5
570.529	30.5
571.733	26
572.936	31
574.141	30
575.344	30.5
576.547	27.5
577.75	32
578.952	27.5
580.154	29.5
581.358	26
582.56	27.5
583.761	26
584.963	28.5
586.164	25
587.365	26
588.566	24
589.767	28
590.967	29
592.168	32.5
593.369	27
594.569	28.5
595.769	33
596.969	28.5
598.168	27.5
599.367	27
600.566	30.5
601.765	29
602.964	29.5
604.162	25
605.361	28
606.559	28.5
607.757	25.5
608.953	27
610.151	30.5
611.348	26.5
612.545	31
613.742	33
614.939	27.5
616.135	29.5
617.332	28
618.528	33.5
619.724	27.5
620.918	26.5
622.114	27
623.309	27
624.505	29.5
625.7	26.5
626.895	32.5
628.088	25
629.282	27
630.477	27
631.671	29
632.865	25.5
634.057	26
635.251	32
636.444	29
637.637	28.5
638.829	27
640.022	28.5
641.214	29.5
642.407	28.5
643.598	27.5
644.79	28.5
645.982	35
647.172	25.5
648.364	26
649.555	29.5
650.745	33
651.936	27
653.126	27
654.315	31.5
655.506	32
656.696	32
657.885	27
659.074	32.5
660.263	28
661.452	32.5
662.64	26.5
663.829	31
665.018	25
666.205	32
667.394	35
668.581	31.5
669.769	31.5
670.955	27.5
672.143	29
673.329	32.5
674.517	33.5
675.703	30
676.89	28
678.075	31
679.262	30.5
680.447	33.5
681.632	33
682.818	33
684.002	37.5
685.188	33.5
686.372	40
687.556	36
688.741	33
689.925	40
691.11	33
692.293	37.5
693.476	35
694.66	34.5
695.843	35.5
697.025	36
698.209	39
699.391	35.5
700.573	40.5
701.756	37
702.938	42.5
704.119	44.5
705.3	50
706.483	49.5
707.664	57.5
708.844	55.5
710.025	51.5
711.206	51
712.386	40.5
713.566	43
714.746	38
715.925	37
717.106	34
718.285	31
719.464	29.5
720.643	30
721.822	30
723	31.5
724.178	28
725.358	27
726.536	33.5
727.713	28
728.891	31.5
730.068	28.5
731.245	29
732.422	29
733.599	28.5
734.775	24.5
735.952	27.5
737.128	28.5
738.304	28
739.48	30.5
740.656	28
741.831	27.5
743.006	28
744.181	26
745.356	26
746.531	29.5
747.706	28
748.88	24
750.054	29.5
751.228	28
752.402	27
753.576	32
754.749	30
755.922	25
757.095	28.5
758.267	31.5
759.44	29.5
760.612	28
761.785	29
762.957	26
764.129	26
765.301	31.5
766.471	30
767.642	30.5
768.814	29.5
769.985	30.5
771.156	27
772.325	28
773.495	28
774.666	27.5
775.836	27
777.005	23
778.174	30
779.344	27
780.513	30.5
781.681	30
782.85	25
784.019	32
785.187	33
786.355	30.5
787.523	34
788.69	33
789.858	29.5
791.026	31.5
792.192	32.5
793.36	29
794.526	31
795.693	29
796.86	27
798.025	30.5
799.191	28
800.356	29
801.523	27.5
802.689	25.5
803.853	30
805.019	31
806.183	27
807.348	28
808.512	30
809.677	29
810.84	27
812.005	27
813.167	31
814.332	29
815.494	28.5
816.657	26.5
817.82	29.5
818.982	31
820.146	28.5
821.307	25
822.47	29
823.632	28
824.793	25
825.955	29.5
827.116	24.5
828.277	29.5
829.439	27
830.599	26.5
831.759	29
832.92	27.5
834.08	27.5
835.24	30.5
836.4	27
837.56	24.5
838.719	29
839.877	26
841.037	27.5
842.196	26.5
843.354	30
844.512	27
845.672	28.5
846.83	28.5
847.987	26.5
849.145	27.5
850.302	28.5
851.46	28
852.617	29
853.774	29
854.93	29.5
856.087	31
857.243	29
858.4	31
859.556	29
860.712	32.5
861.867	26
863.022	29.5
864.177	26
865.332	29.5
866.487	31.5
867.642	30.5
868.796	25
869.95	27.5
871.104	30
872.258	27.5
873.412	28
874.565	28.5
875.718	33.5
876.872	25.5
878.024	28.5
879.177	30
880.33	31
881.482	29.5
882.635	27
883.787	27.5
884.938	25.5
886.09	28.5
887.242	20
888.393	26.5
889.544	26.5
890.695	26.5
891.845	25.5
892.995	22
894.146	26
895.296	31
896.446	24
897.596	27
898.744	24.5
899.894	26
901.043	27
902.193	26.5
903.342	26
904.489	27
905.638	26.5
906.786	30
907.935	27.5
909.081	25.5
910.229	29
911.377	26.5
912.525	24
913.671	26
914.818	26
915.965	26.5
917.111	26
918.258	25
919.404	29
920.549	28.5
921.695	24
922.84	33.5
923.986	28
925.132	30
926.276	27
927.421	29.5
928.565	25
929.71	25.5
930.855	28
931.998	25.5
933.142	25
934.285	27.5
935.429	27
936.572	31
937.716	23
938.858	23
940.001	26
941.143	30.5
942.286	28.5
943.428	26.5
944.57	27.5
945.712	25.5
946.854	27
947.995	30
949.135	23.5
950.277	27.5
951.418	28.5
952.559	24
953.699	26
954.839	25
955.98	30.5
957.119	27
958.258	30
959.399	29.5
960.538	24.5
961.676	25
962.816	28.5
963.955	27.5
965.093	26
966.232	24.5
967.37	28.5
968.508	27.5
969.645	26
970.784	25.5
971.921	25
973.058	28.5
974.195	27
975.333	26.5
976.469	22.5
977.605	25
978.741	27
979.877	24
981.013	27
982.15	27.5
983.285	28
984.421	27
985.556	25
986.691	30.5
987.825	27.5
988.96	28.5
990.094	25
991.228	26
992.364	27.5
993.497	23.5
994.631	25
995.765	24.5
996.898	25
998.031	25
999.164	25.5
1000.3	27
1001.43	29
1002.56	22.5
1003.69	24
1004.83	23
1005.96	31
1007.09	28.5
1008.22	25
1009.35	28
1010.48	28
1011.61	24.5
1012.74	25.5
1013.88	26.5
1015.01	28
1016.14	25
1017.27	28.5
1018.4	22.5
1019.53	26.5
1020.65	27
1021.78	25
1022.91	25
1024.04	26
1025.17	28.5
1026.3	29
1027.43	25
1028.56	24.5
1029.68	28.5
1030.81	28
1031.94	25
1033.07	23
1034.19	24
1035.32	24.5
1036.45	26
1037.58	26.5
1038.7	27.5
1039.83	25.5
1040.95	29
1042.08	23
1043.21	27
1044.33	26
1045.46	25
1046.58	24.5
1047.71	26
1048.83	30
1049.96	27
1051.08	24.5
1052.21	25
1053.33	24
1054.45	28
1055.58	25
1056.7	24.5
1057.82	25.5
1058.95	26.5
1060.07	28
1061.19	25.5
1062.32	25.5
1063.44	27
1064.56	24
1065.68	29
1066.81	27.5
1067.93	26.5
1069.05	23
1070.17	22.5
1071.29	26.5
1072.41	26.5
1073.53	26
1074.65	20.5
1075.77	28.5
1076.89	24.5
1078.01	24.5
1079.13	27
1080.25	26
1081.37	24
1082.49	27
1083.61	27
1084.73	22.5
1085.85	23
1086.97	27.5
1088.09	23.5
1089.2	30.5
1090.32	29
1091.44	25
1092.56	24
1093.68	27
1094.79	26
1095.91	26
1097.03	25
1098.14	25
1099.26	24
1100.38	30
1101.49	26.5
1102.61	21
1103.73	28.5
1104.84	23
1105.96	26
1107.07	29.5
1108.19	27.5
1109.3	24
1110.42	29.5
1111.53	22.5
1112.65	26
1113.76	26
1114.88	23
1115.99	27.5
1117.1	27
1118.22	25.5
1119.33	23
1120.44	23.5
1121.56	21.5
1122.67	26
1123.78	25
1124.89	23
1126.01	27
1127.12	25.5
1128.23	27.5
1129.34	25
1130.45	23.5
1131.56	25
1132.67	24.5
1133.79	25.5
1134.9	26
1136.01	26
1137.12	26
1138.23	23
1139.34	26
1140.45	27
1141.56	21
1142.67	26.5
1143.78	20.5
1144.89	29.5
1145.99	26
1147.1	24
1148.21	27.5
1149.32	26
1150.43	23.5
1151.54	26
1152.65	23
1153.75	25
1154.86	24.5
1155.97	24
1157.08	30
1158.18	27
1159.29	23
1160.4	22.5
1161.5	21
1162.61	26.5
1163.72	26
1164.82	26.5
1165.93	25
1167.03	27.5
1168.14	28.5
1169.24	24
1170.35	26.5
1171.45	25.5
1172.56	23
1173.66	23.5
1174.77	23
1175.87	21
1176.98	27.5
1178.08	25
1179.18	26.5
1180.29	28.5
1181.39	26
1182.49	26
1183.6	25.5
1184.7	26
1185.8	25
1186.9	26
1188	22.5
1189.11	24.5
1190.21	23
1191.31	25
1192.41	25.5
1193.51	27.5
1194.61	25.9958
1195.72	25.0118
1196.82	24.5102
1197.92	26.5392
1199.02	22.1456
1200.12	22.2752
1201.22	26.5742
1202.32	27.5995
1203.42	28.4447
1204.52	21.871
1205.62	24.2848
1206.71	25.4014
1207.81	25.0952
1208.91	23.8777
1210.01	23.1363
1211.11	24.7699
1212.21	25.9351
1213.31	24.6163
1214.4	26.2333
1215.5	22.1599
1216.6	25.4214
1217.7	22.193
1218.79	21.9892
1219.89	23.4779
1220.99	23.2915
1222.08	22.1264
1223.18	26.101
1224.28	24.1332
1225.37	26.7558
1226.47	27.8508
1227.56	23.7982
1228.66	24.0969
1229.76	23.8311
1230.85	26.9465
1231.95	25.6896
1233.04	24.3656
1234.14	24.2148
1235.23	24.0665
1236.32	21.8887
1237.42	23.7352
1238.51	24.4264
1239.61	26.8551
1240.7	24.2508
1241.79	25.7492
1242.89	23.0625
1243.98	24.7019
1245.07	24.931
1246.17	25.2306
1247.26	25.0773
1248.35	24.1511
1249.44	24.9463
1250.53	27.4134
1251.63	26.2549
1252.72	26.7403
1253.81	26.7509
1254.9	26.4021
1255.99	26.8678
1257.08	27.0509
1258.17	27.4102
1259.27	24.5459
1260.36	27.158
1261.45	26.2503
1262.54	24.9911
1263.63	28.0828
1264.72	26.5915
1265.81	29.0738
1266.89	28.9924
1267.98	26.0814
1269.07	25.4641
1270.16	24.5881
1271.25	25.9604
1272.34	22.677
1273.43	24.9894
1274.52	26.1095
1275.6	27.9821
1276.69	25.2213
1277.78	24.8859
1278.87	23.5201
1279.95	26.0291
1281.04	23.0064
1282.13	24.541
1283.22	24.3929
1284.3	25.5844
1285.39	23.8133
1286.48	25.2395
1287.56	24.701
1288.65	24.3411
1289.73	24.4773
1290.82	22.9323
1291.9	23.8622
1292.99	23.5486
1294.07	22.2501
1295.16	23.8821
1296.24	27.0096
1297.33	26.069
1298.41	24.2958
1299.5	23.3471
1300.58	24.7202
1301.66	24.5404
1302.75	25.2199
1303.83	24.308
1304.91	25.1164
1306	25.036
1306.4	24.5
1307.48	25.5
1308.57	22
1309.66	26
1310.75	26
1311.84	24.5
1312.92	26.5
1314.01	24
1315.1	22
1316.18	25.5
1317.27	23
1318.36	26
1319.44	26
1320.53	22
1321.62	27.5
1322.7	27
1323.79	24
1324.87	24.5
1325.96	26
1327.04	24.5
1328.13	25
1329.21	26.5
1330.3	23.5
1331.38	22
1332.47	24
1333.55	22.5
1334.64	26.5
1335.72	23.5
1336.8	26.5
1337.89	27.5
1338.97	26
1340.05	23
1341.14	21
1342.22	24
1343.3	30
1344.38	22
1345.47	24
1346.55	25
1347.63	24
1348.71	22
1349.79	24
1350.87	23.5
1351.96	28
1353.04	26.5
1354.12	23.5
1355.2	26
1356.28	23
1357.36	25.5
1358.44	23
1359.52	28
1360.6	22.5
1361.68	26.5
1362.76	29
1363.84	20.5
1364.92	23.5
1366	27.5
1367.07	21.5
1368.15	21
1369.23	25
1370.31	27
1371.39	24
1372.47	19
1373.54	26
1374.62	23
1375.7	26
1376.78	26
1377.85	24
1378.93	22
1380.01	26.5
1381.08	25.5
1382.16	23
1383.24	25
1384.31	25
1385.39	24.5
1386.46	26.5
1387.54	26.5
1388.61	32.5
1389.69	27
1390.76	29
1391.84	25
1392.91	27
1393.99	27.5
1395.06	26
1396.14	27
1397.21	28
1398.29	19.5
1399.36	29
1400.43	28.5
1401.51	29
1402.58	31.5
1403.65	31
1404.72	32
1405.8	32
1406.87	30.5
1407.94	31
1409.02	30.5
1410.09	33.5
1411.16	30
1412.23	32.5
1413.3	29
1414.37	35.5
1415.44	29
1416.51	33.5
1417.59	30.5
1418.66	29.5
1419.73	29
1420.8	28
1421.87	29
1422.94	28
1424.01	26
1425.08	27.5
1426.15	28.5
1427.22	29.5
1428.28	30
1429.35	27
1430.42	24
1431.49	27
1432.56	25
1433.63	24.5
1434.7	25
1435.76	26
1436.83	23
1437.9	26
1438.97	26
1440.03	26
1441.1	25
1442.17	25.5
1443.23	25.5
1444.3	25
1445.37	24
1446.43	25.5
1447.5	25.5
1448.57	31.5
1449.63	28.5
1450.7	26
1451.76	26
1452.83	31.5
1453.89	26.5
1454.96	29.5
1456.02	22
1457.09	28.5
1458.15	26.5
1459.22	26
1460.28	27.5
1461.34	28
1462.41	29
1463.47	27
1464.53	23.5
1465.6	28.5
1466.66	24
1467.72	23
1468.78	27
1469.85	26
1470.91	22
1471.97	26.5
1473.03	26
1474.1	27
1475.16	25
1476.22	31
1477.28	25
1478.34	29.5
1479.4	25.5
1480.46	25.5
1481.52	30.5
1482.58	28.5
1483.65	26.5
1484.71	24.5
1485.77	27.5
1486.82	27
1487.89	26
1488.94	27
1490	27
1491.06	27
1492.12	25.5
1493.18	28.5
1494.24	26
1495.3	26
1496.36	24.5
1497.41	22
1498.47	25
1499.53	29
1500.59	26.5
1501.65	29
1502.7	28.5
1503.76	25.5
1504.82	26.5
1505.87	22
1506.93	27.5
1507.99	24
1509.04	26.5
1510.1	27
1511.16	25.5
1512.21	24
1513.27	26
1514.32	24
1515.38	29.5
1516.43	28
1517.49	28.5
1518.54	23
1519.6	28.5
1520.65	25
1521.71	26
1522.76	26.5
1523.81	26.5
1524.87	24
1525.92	26
1526.98	24
1528.03	23.5
1529.08	21
1530.14	24.5
1531.19	26
1532.24	29
1533.29	23
1534.35	25
1535.4	26.5
1536.45	26
1537.5	27
1538.55	29
1539.61	24
1540.66	24
1541.71	23.5
1542.76	27
1543.81	25
1544.86	30.5
1545.91	29
1546.96	24.5
1548.01	26.5
1549.06	23
1550.11	26
1551.16	26.5
1552.21	27
1553.26	28.5
1554.31	24
1555.36	26.5
1556.41	25
1557.46	25.5
1558.5	28.5
1559.55	23
1560.6	22.5
1561.65	29.5
1562.7	30.5
1563.74	25
1564.79	28.5
1565.84	23
1566.89	25
1567.93	28
1568.98	31.5
1570.03	23.5
1571.07	26
1572.12	25
1573.17	25.5
1574.21	26
1575.26	26
1576.3	26
1577.35	28.5
1578.4	24
1579.44	29
1580.49	26
1581.53	21.5
1582.58	25.5
1583.62	24
1584.66	27
1585.71	27
1586.75	26
1587.8	28
1588.84	26
1589.88	26
1590.93	26
1591.97	25
1593.01	28
1594.06	22.5
1595.1	28.5
1596.14	27
1597.18	24
1598.23	23.5
1599.27	30.5
1600.31	26
1601.35	26
1602.39	28
1603.44	29
1604.48	25
1605.52	27.5
1606.56	29.5
1607.6	24.5
1608.64	24.5
1609.68	26
1610.72	28.5
1611.76	28
1612.8	24
1613.84	27
1614.88	24.5
1615.92	26.5
1616.96	24
1618	26
1619.04	25.5
1620.08	28.5
1621.12	25.5
1622.16	23.5
1623.19	23.5
1624.23	26.5
1625.27	25
1626.31	25
1627.35	26.5
1628.38	24
1629.42	26
1630.46	26
1631.49	25
1632.53	25
1633.57	25
1634.6	21
1635.64	21
1636.68	27
1637.71	25.5
1638.75	26.5
1639.79	26.5
1640.82	24.5
1641.86	29.5
1642.89	25.5
1643.93	24.5
1644.96	29.5
1646	28
1647.03	24
1648.07	30
1649.1	26.5
1650.13	23.5
1651.17	23
1652.2	27
1653.24	24
1654.27	26
1655.3	25.5
1656.34	26.5
1657.37	28
1658.4	26.5
1659.43	27
1660.47	26
1661.5	27
1662.53	29
1663.56	24
1664.6	26.5
1665.63	27
1666.66	27
1667.69	23.5
1668.72	25
1669.75	25
1670.78	27.5
1671.81	27.5
1672.85	26.5
1673.88	26
1674.91	24
1675.94	25
1676.97	26.5
1678	24.5
1679.03	24
1680.06	25
1681.09	24.5
1682.11	23.5
1683.14	27
1684.17	26.5
1685.2	24
1686.23	30.5
1687.26	25.5
1688.29	26
1689.31	23
1690.34	31
1691.37	24
1692.4	28
1693.42	28
1694.45	23.5
1695.48	26
1696.51	26
1697.53	26
1698.56	23
1699.59	23.5
1700.61	24.5
1701.64	28.5
1702.66	23
1703.69	26
1704.72	22.5
1705.74	26
1706.77	24
1707.79	21
1708.82	27
1709.84	26.5
1710.87	25.5
1711.89	23.5
1712.91	24
1713.94	24.5
1714.96	27.5
1715.99	26
1717.01	23
1718.03	23
1719.06	25.5
1720.08	23.5
1721.1	27
1722.13	26.5
1723.15	24.5
1724.17	28.5
1725.19	24.5
1726.22	28
1727.24	29
1728.26	23
1729.28	26
1730.3	30.5
1731.33	28
1732.35	30.5
1733.37	26
1734.39	26.5
1735.41	24.5
1736.43	26.5
1737.45	28
1738.47	27
1739.49	24
1740.51	25.5
1741.53	23.5
1742.55	24
1743.57	26
1744.59	25
1745.61	25
1746.63	29.5
1747.65	23
1748.67	25
1749.69	25
1750.7	22
1751.72	28
1752.74	25
1753.76	27
1754.78	27
1755.79	26.5
1756.81	27
1757.83	28
1758.85	25
1759.86	24
1760.88	24
1761.9	29
1762.91	26.5
1763.93	26.5
1764.95	25.5
1765.96	22.5
1766.98	21.5
1767.99	26.5
1769.01	24
1770.02	29
1771.04	27.5
1772.06	25
1773.07	25
1774.09	25.5
1775.1	29
1776.11	24
1777.13	26.5
1778.14	27.5
1779.16	24
1780.17	24.5
1781.18	27
1782.2	27
1783.21	28.5
1784.22	30
1785.24	26.5
1786.25	22
1787.26	22.5
1788.28	23.5
1789.29	25.5
1790.3	25
1791.31	26
1792.33	25.5
1793.34	27
1794.35	26
1795.36	25
1796.37	28
1797.38	26.5
1798.39	27.5
1799.4	28
1800.42	27
1801.43	28.5
1802.44	24.5
1803.45	22
1804.46	22.5
1805.47	26
1806.48	25
1807.49	26
1808.5	24.5
1809.51	26
1810.51	24.5
1811.52	28
1812.53	29
1813.54	23
1814.55	25.5
1815.56	24
1816.57	24.5
1817.57	27
1818.58	26
1819.59	26
1820.6	29.5
1821.61	26.5
1822.61	26.5
1823.62	24.5
1824.63	21.5
1825.63	22
1826.64	25.5
1827.65	22.5
1828.65	25.5
1829.66	22
1830.67	27.5
1831.67	28
1832.68	27.5
1833.68	25
1834.69	23
1835.69	29
1836.7	25.5
1837.7	26.5
1838.71	25
1839.71	26
1840.72	27
1841.72	25.5
1842.73	22
1843.73	25.5
1844.73	24.5
1845.74	25.5
1846.74	25.5
1847.74	20.5
1848.75	26.5
1849.75	26.5
1850.75	26
1851.76	26.5
1852.76	26
1853.76	27
1854.76	28
1855.77	25
1856.77	24
1857.77	26
1858.77	27.5
1859.77	25
1860.77	23
1861.78	27
1862.78	22
1863.78	25.5
1864.78	29
1865.78	24.5
1866.78	22.5
1867.78	24
1868.78	21
1869.78	25
1870.78	30.5
1871.78	25
1872.78	25
1873.78	25
1874.78	26
1875.78	27
1876.78	24
1877.78	26
1878.77	23.5
1879.77	24.5
1880.77	20
1881.77	26
1882.77	28
1883.77	24
1884.76	28.5
1885.76	26
1886.76	28
1887.75	26.5
1888.75	26
1889.75	26
1890.75	24.5
1891.74	29.5
1892.74	23.5
1893.73	25
1894.73	22
1895.73	26
1896.72	25.5
1897.72	24
1898.71	24
1899.71	25
1900.7	25
1901.7	24.5
1902.69	24
1903.69	27.5
1904.68	26
1905.68	26.5
1906.67	26
1907.67	30.5
1908.66	20.5
1909.65	25
1910.65	26
1911.64	26
1912.63	24.5
1913.63	26.5
1914.62	25
1915.61	29
1916.61	22
1917.6	26
1918.59	27.5
1919.58	28
1920.58	24
1921.57	22.5
1922.56	26.5
1923.55	23.5
1924.54	25
1925.54	26
1926.53	24
1927.52	27.5
1928.51	24.5
1929.5	25
1930.49	23
1931.48	26.5
1932.47	28
1933.46	25
1934.45	23.5
1935.44	24.5
1936.43	23.5
1937.42	29.5
1938.41	25
1939.4	21
1940.39	26.5
1941.38	23
1942.37	26
1943.35	26
1944.34	24
1945.33	25
1946.32	22.5
1947.31	26
1948.3	25.5
1949.28	24.5
1950.27	26
1951.26	28
1952.25	26.5
1953.23	28
1954.22	26
1955.21	24.5
1956.19	27.5
1957.18	26
1958.17	29
1959.15	25
1960.14	27
1961.12	27.5
1962.11	25.5
1963.1	25.5
1964.08	25.5
1965.07	24.5
1966.05	23.5
1967.04	28.5
1968.02	24.5
1969.01	28.5
1969.99	28
1970.98	23.5
1971.96	25.5
1972.94	27.5
1973.93	23.5
1974.91	25
1975.9	28
1976.88	25
1977.86	23.5
1978.85	21
1979.83	26
1980.81	26
1981.79	27
1982.78	27
1983.76	26.5
1984.74	24.5
1985.72	26
1986.71	24.5
1987.69	23
1988.67	21
1989.65	24.5
1990.63	27.5
1991.61	25.5
1992.59	23
1993.57	28.5
1994.56	24.5
1995.54	21
1996.52	26.5
1997.5	25
1998.48	24.5
1999.46	22.5
2000.44	25
2001.42	26
2002.4	24
2003.38	26
2004.36	25.5
2005.33	23
2006.31	24.5
2007.29	25
2008.27	24.5
2009.25	26
2010.23	21
2011.21	21.5
2012.18	25
2013.16	23
2014.14	25.5
2015.12	26.5
2016.09	22.5
2017.07	26
2018.05	25.5
2019.03	23.5
2020	24.5
2020.98	25.5
2021.96	26
2022.93	25
2023.91	23
2024.89	25
2025.86	22
2026.84	22
2027.81	28
2028.79	27.5
2029.76	26
2030.74	25.5
2031.71	25
2032.69	21.5
2033.66	19
2034.64	25
2035.61	24.5
2036.59	24
2037.56	22
2038.54	25.5
2039.51	26.5
2040.48	25
2041.46	23.5
2042.43	24.5
2043.4	26.5
2044.38	21
2045.35	22
2046.32	25.5
2047.29	24
2048.27	20
2049.24	23
2050.21	28.5
2051.18	23
2052.16	23
2053.13	18
2054.1	24
2055.07	25.5
2056.04	24
2057.01	26
2057.98	23.5
2058.96	23
2059.93	25
2060.9	23
2061.87	22.5
2062.84	23.5
2063.81	27
2064.78	24.5
2065.75	28
2066.72	19.5
2067.69	21
2068.66	23.5
2069.63	27.5
2070.6	23.5
2071.56	23.5
2072.53	27.5
2073.5	23.5
2074.47	20.5
2075.44	23.5
2076.41	24.5
2077.38	25
2078.34	26
2079.31	25
2080.28	25.5
2081.25	24
2082.21	25
2083.18	21
2084.15	22.5
2085.11	24
2086.08	22.5
2087.05	25
2088.01	27
2088.98	20.5
2089.95	25.5
2090.91	21.5
2091.88	27
2092.84	26.5
2093.81	24
2094.78	23.5
2095.74	21.5
2096.71	23.5
2097.67	23.5
2098.64	20
2099.6	27
2100.57	24
2101.53	26
2102.49	24
2103.46	25.5
2104.42	23.5
2105.39	26.5
2106.35	28.5
2107.31	23
2108.28	26
2109.24	23.5
2110.2	25.5
2111.17	21
2112.13	22.5
2113.09	24
2114.05	25
2115.02	22
2115.98	22.5
2116.94	24.5
2117.9	22
2118.86	19
2119.83	26.5
2120.79	27.5
2121.75	26
2122.71	24.5
2123.67	24
2124.63	24.5
2125.59	26.5
2126.55	27
2127.51	25
2128.47	23.5
2129.43	25.5
2130.39	26
2131.35	20
2132.31	24
2133.27	20
2134.23	21
2135.19	24
2136.15	22
2137.11	21.5
2138.07	19.5
2139.03	20.5
2139.99	21
2140.94	23.5
2141.9	24
2142.86	23.001
2143.82	23.4576
2144.78	22.0474
2145.73	22.6459
2146.69	21.5356
2147.65	23.6008
2148.61	21.5685
2149.56	25.2878
2150.52	22.8335
2151.48	20.2581
2152.43	25.7967
2153.39	25.6326
2154.35	20.1983
2155.3	25.0299
2156.26	23.9019
2157.21	21.1222
2158.17	22.6092
2159.13	22.7192
2160.08	26.051
2161.04	25.9768
2161.99	22.2809
2162.95	23.705
2163.9	26.4078
2164.86	22.9442
2165.81	24.2612
2166.77	22.8034
2167.72	23.3264
2168.67	24.9589
2169.63	22.5117
2170.58	25.4014
2171.54	19.3403
2172.49	23.6598
2173.44	23.5991
2174.4	21.7261
2175.35	26.1253
2176.3	24.6598
2177.26	23.2011
2178.21	23.5312
2179.16	24.2923
2180.11	22.6174
2181.07	24.0168
2182.02	22.4017
2182.97	21.1233
2183.92	23.733
2184.87	22.7794
2185.82	23.1223
2186.78	23.3714
2187.73	24.7285
2188.68	21.6751
2189.63	20.6414
2190.58	24.0386
2191.53	23.2926
2192.48	23.2708
2193.43	22.7753
2194.38	24.4036
2195.33	24.0323
2196.28	21.4044
2197.23	21.6044
2198.18	23.2165
2199.13	23.4289
2200.08	24.1472
2201.03	22.9277
2201.98	21.9413
2202.93	22.9587
2203.88	21.7024
2204.83	24.0461
2205.77	21.2158
2206.72	23.0385
2207.67	22.3091
2208.62	24.0117
2209.57	24.1837
2210.52	22.0134
2211.46	21.2701
2212.41	20.9225
2213.36	24.3825
2214.31	24.8002
2215.25	22.3664
2216.2	23.179
2217.15	23.2181
2218.09	23.1116
2219.04	21.9888
2219.99	21.8131
2220.93	25.5332
2221.88	22.902
2222.82	22.1374
2223.77	24.1783
2224.72	23.4775
2225.66	19.4541
2226.61	21.1459
2227.55	22.4502
2228.5	23.9854
2229.44	21.6818
2230.39	22.4813
2231.33	23.5744
2232.28	21.5168
2233.22	23.4691
2234.16	22.3441
2235.11	25.0519
2236.05	24.7623
2237	23.6301
2237.94	24.1247
2238.88	23.13
2239.83	21.8171
2240.13	21.5
2241.08	26.5
2242.03	24
2242.98	22.5
2243.92	24
2244.87	26
2245.82	19
2246.76	25.5
2247.71	23
2248.66	23
2249.61	26
2250.55	21.5
2251.5	22.5
2252.45	20
2253.39	24.5
2254.34	24.5
2255.28	20.5
2256.23	22
2257.18	20.5
2258.12	25
2259.07	24.5
2260.01	21.5
2260.96	27
2261.9	25.5
2262.85	22
2263.79	25
2264.74	20.5
2265.68	22
2266.63	27.5
2267.57	25
2268.51	26
2269.46	25.5
2270.4	21.5
2271.35	28
2272.29	23
2273.23	24
2274.18	23.5
2275.12	22.5
2276.06	21
2277	23
2277.95	23
2278.89	21.5
2279.83	22.5
2280.78	21
2281.72	23
2282.66	22
2283.6	25.5
2284.54	23
2285.48	20
2286.43	21.5
2287.37	24
2288.31	24
2289.25	23
2290.19	25.5
2291.13	19.5
2292.07	23
2293.01	24.5
2293.95	23.5
2294.89	23
2295.83	22.5
2296.77	23
2297.71	23.5
2298.65	23
2299.59	21.5
2300.53	20.5
2301.47	24
2302.41	23.5
2303.35	22.5
2304.29	19.5
2305.22	25.5
2306.16	23.5
2307.1	23
2308.04	23
2308.98	23
2309.91	23.5
2310.85	25
2311.79	23.5
2312.73	21
2313.66	22
2314.6	26
2315.54	21
2316.48	26.5
2317.41	19
2318.35	23
2319.29	24
2320.22	20
2321.16	25
2322.09	24
2323.03	26
2323.97	23
2324.9	24.5
2325.84	22.5
2326.77	26
2327.71	25
2328.64	25
2329.58	25.5
2330.51	25
2331.45	24.5
2332.38	26
2333.32	25.5
2334.25	26.5
2335.18	25.5
2336.12	25.5
2337.05	22.5
2337.99	26
2338.92	22.5
2339.85	23
2340.79	23
2341.72	24
2342.65	23
2343.59	26
2344.52	20
2345.45	23.5
2346.38	26.5
2347.32	22
2348.25	24
2349.18	20.5
2350.11	27.5
2351.04	26
2351.98	23
2352.91	25
2353.84	22
2354.77	26
2355.7	22
2356.63	23.5
2357.56	22
2358.49	22
2359.42	20.5
2360.35	20
2361.28	25.5
2362.21	21.5
2363.14	23.5
2364.07	23.5
2365	25
2365.93	20
2366.86	24.5
2367.79	22
2368.72	24.5
2369.65	22.5
2370.58	25.5
2371.51	23
2372.44	23.5
2373.36	27
2374.29	24.5
2375.22	25.5
2376.15	23.5
2377.08	25.5
2378	23
2378.93	20.5
2379.86	26.5
2380.79	23
2381.71	24.5
2382.64	24
2383.57	24
2384.49	21.5
2385.42	27
2386.35	24.5
2387.27	23.5
2388.2	25.5
2389.13	23
2390.05	22.5
2390.98	26.5
2391.9	22.5
2392.83	23.5
2393.76	22
2394.68	23.5
2395.61	19
2396.53	27.5
2397.46	27.5
2398.38	23
2399.3	26.5
2400.23	26.5
2401.15	23
2402.08	26.5
2403	20
2403.93	23.5
2404.85	24
2405.77	27
2406.7	29.5
2407.62	22.5
2408.54	23.5
2409.47	23
2410.39	22
2411.31	25.5
2412.24	23
2413.16	23
2414.08	24.5
2415	23
2415.92	26
2416.85	26.5
2417.77	22
2418.69	24
2419.61	22
2420.53	22
2421.45	18.5
2422.38	27.5
2423.3	23.5
2424.22	25
2425.14	24
2426.06	29
2426.98	23
2427.9	25
2428.82	24
2429.74	26
2430.66	21.5
2431.58	24.5
2432.5	24
2433.42	23.5
2434.34	23.5
2435.26	25.5
2436.18	22.5
2437.1	27
2438.01	26
2438.93	24
2439.85	25.5
2440.77	26
2441.69	25.5
2442.61	23.5
2443.52	24
2444.44	24.5
2445.36	26.5
2446.28	23
2447.2	25.5
2448.11	21
2449.03	23
2449.95	25
2450.86	29
2451.78	21
2452.7	20.5
2453.61	26.5
2454.53	28
2455.45	23
2456.36	21
2457.28	21.5
2458.2	24
2459.11	28.5
2460.03	22.5
2460.94	25.5
2461.86	26
2462.77	24
2463.69	23
2464.6	24.5
2465.52	25.5
2466.43	23
2467.35	27
2468.26	25
2469.18	21.5
2470.09	27
2471	24
2471.92	24
2472.83	24.5
2473.74	22
2474.66	21
2475.57	26.5
2476.48	22
2477.4	27.5
2478.31	26.5
2479.22	24
2480.14	23.5
2481.05	25.5
2481.96	23
2482.87	28
2483.79	26.5
2484.7	24
2485.61	21
2486.52	21
2487.43	19
2488.34	24.5
2489.25	25.5
2490.17	25
2491.08	27.5
2491.99	24
2492.9	26.5
2493.81	23.5
2494.72	21
2495.63	26.5
2496.54	24.5
2497.45	24
2498.36	26.5
2499.27	25
2500.18	27.5
2501.09	25.5
2502	27
2502.91	26.5
2503.82	24.5
2504.73	23.5
2505.63	25
2506.54	29
2507.45	27
2508.36	25
2509.27	24
2510.18	25.5
2511.09	26
2511.99	24
2512.9	23.5
2513.81	23
2514.72	24
2515.62	23.5
2516.53	27
2517.44	23.5
2518.34	22
2519.25	22
2520.16	25
2521.06	30.5
2521.97	21.5
2522.88	25
2523.78	28
2524.69	21.5
2525.6	26
2526.5	28
2527.41	27
2528.31	20
2529.22	23
2530.12	21
2531.03	28.5
2531.93	24
2532.84	25
2533.74	24.5
2534.65	21
2535.55	27
2536.46	28.5
2537.36	23
2538.27	27
2539.17	23.5
2540.07	19
2540.98	23
2541.88	27.5
2542.78	20.5
2543.69	23.5
2544.59	25.5
2545.49	24
2546.4	25
2547.3	26.5
2548.2	24.5
2549.1	27
2550.01	22.5
2550.91	26.5
2551.81	26.5
2552.71	26.5
2553.61	30.5
2554.52	23.5
2555.42	27.5
2556.32	27
2557.22	26
2558.12	25.5
2559.02	25
2559.92	22
2560.82	24
2561.72	20.5
2562.62	27
2563.53	20
2564.43	26
2565.33	23
2566.23	23.5
2567.13	22
2568.03	24
2568.92	24
2569.82	26
2570.72	25.5
2571.62	23
2572.52	23.5
2573.42	23
2574.32	24.5
2575.22	25
2576.12	23
2577.02	25.5
2577.91	25.5
2578.81	23.5
2579.71	22
2580.61	23
2581.5	23
2582.4	24.5
2583.3	24.5
2584.2	24
2585.09	24
2585.99	21
2586.89	26.5
2587.78	26
2588.68	24.5
2589.58	24
2590.47	25.5
2591.37	24
2592.27	25.5
2593.16	29.5
2594.06	24.5
2594.95	23
2595.85	25
2596.75	24
2597.64	29
2598.54	27.5
2599.43	23
2600.33	24.5
2601.22	23
2602.12	23.5
2603.01	26.5
2603.9	24
2604.8	29
2605.69	27
2606.59	26.5
2607.48	28.5
2608.37	25.5
2609.27	25.5
2610.16	23.5
2611.05	21
2611.95	28.5
2612.84	24.5
2613.73	25
2614.63	27
2615.52	24.5
2616.41	22
2617.3	24.5
2618.2	24
2619.09	24
2619.98	23.5
2620.87	21.5
2621.76	25
2622.66	23.5
2623.55	24
2624.44	23
2625.33	24.5
2626.22	26
2627.11	25
2628	23.5
2628.9	25
2629.79	27.5
2630.68	26
2631.57	25
2632.46	24
2633.35	22
2634.24	29
2635.13	21.5
2636.02	20
2636.91	25
2637.8	26
2638.68	22
2639.57	25.5
2640.46	21
2641.35	23
2642.24	27.5
2643.13	25
2644.02	28
2644.91	25
2645.79	25.5
2646.68	26
2647.57	27.5
2648.46	31
2649.35	23.5
2650.23	24.5
2651.12	26.5
2652.01	23.5
2652.9	26
2653.78	26
2654.67	23.5
2655.56	23
2656.44	22
2657.33	23
2658.22	25
2659.1	22
2659.99	26
2660.88	24
2661.76	22
2662.65	20.5
2663.53	22.5
2664.42	28.5
2665.3	24
2666.19	19.5
2667.07	25
2667.96	23
2668.84	22
2669.73	26
2670.61	25
2671.5	24.5
2672.38	26
2673.27	22.5
2674.15	26
2675.04	25.5
2675.92	22.5
2676.8	23.5
2677.69	22
2678.57	23
2679.45	20.5
2680.34	23
2681.22	21
2682.1	28.5
2682.99	27.5
2683.87	26
2684.75	26
2685.63	28.5
2686.52	25
2687.4	22
2688.28	26
2689.16	25.5
2690.04	27
2690.93	24
2691.81	23.5
2692.69	23
2693.57	23
2694.45	23.5
2695.33	25.5
2696.21	23.5
2697.09	24
2697.97	22
2698.85	23.5
2699.74	26
2700.62	24.5
2701.5	27.5
2702.38	22.5
2703.26	22
2704.14	27
2705.02	23
2705.89	22
2706.77	23
2707.65	24.5
2708.53	24.5
2709.41	24
2710.29	25.5
2711.17	26
2712.05	25
2712.93	27
2713.8	24
2714.68	25.5
2715.56	26
2716.44	23.5
2717.32	27
2718.19	24.5
2719.07	21
2719.95	27
2720.83	24
2721.7	27
2722.58	22
2723.46	26
2724.33	25
2725.21	27.5
2726.09	25.5
2726.97	25
2727.84	24.5
2728.72	30
2729.59	24.5
2730.47	26
2731.35	25.5
2732.22	29
2733.1	26
2733.97	23
2734.85	28
2735.72	25
2736.6	26
2737.47	25
2738.35	24.5
2739.22	21
2740.1	25.5
2740.97	24
2741.84	27
2742.72	25.5
2743.59	27
2744.47	25.5
2745.34	25.5
2746.21	23
2747.09	27
2747.96	26.5
2748.83	26
2749.71	25
2750.58	28
2751.45	24.5
2752.33	22.5
2753.2	23
2754.07	25
2754.94	24.5
2755.82	23.5
2756.69	24
2757.56	25
2758.43	24
2759.3	24
2760.18	21
2761.05	23
2761.92	26
2762.79	26
2763.66	22.5
2764.53	25.5
2765.4	30
2766.27	27
2767.14	23.5
2768.01	23
2768.88	24
2769.75	22.5
2770.62	25
2771.49	25.5
2772.36	28
2773.23	24.5
2774.1	24
2774.97	22
2775.84	23
2776.71	28.5
2777.58	30
2778.45	24.5
2779.32	25
2780.19	27
2781.06	28.5
2781.92	24
2782.79	26.5
2783.66	27.5
2784.53	26.5
2785.4	24.5
2786.26	26
2787.13	27
2788	29
2788.87	27
2789.73	30
2790.6	24
2791.47	28
2792.34	24
2793.2	26
2794.07	25.5
2794.94	27
2795.8	27
2796.67	25
2797.53	28
2798.4	25.5
2799.27	24
2800.13	27.5
2801	27.5
2801.86	27
2802.73	25
2803.59	26
2804.46	27
2805.32	27.5
2806.19	25
2807.05	30.5
2807.92	26
2808.78	25.5
2809.65	28
2810.51	29
2811.38	28.5
2812.24	22
2813.1	26
2813.97	27
2814.83	27
2815.7	24
2816.56	27.5
2817.42	27.5
2818.29	24
2819.15	29
2820.01	28
2820.87	25
2821.74	25.5
2822.6	23
2823.46	26.5
2824.32	25.5
2825.19	28
2826.05	26
2826.91	24
2827.77	29.5
2828.63	27
2829.5	24.5
2830.36	25.5
2831.22	23
2832.08	26
2832.94	23
2833.8	26.5
2834.66	24
2835.52	27.5
2836.38	22.5
2837.24	26.5
2838.1	26.5
2838.96	24
2839.82	28.5
2840.68	25
2841.54	30
2842.4	25
2843.26	27
2844.12	24.5
2844.98	26.5
2845.84	26
2846.7	24.5
2847.56	26.5
2848.42	28
2849.28	25.5
2850.14	28.5
2850.99	24
2851.85	26.5
2852.71	23.5
2853.57	25.5
2854.43	24
2855.28	26
2856.14	21
2857	27.5
2857.86	27
2858.71	23
2859.57	26
2860.43	25.5
2861.28	31.5
2862.14	26.5
2863	27.5
2863.86	28.5
2864.71	26
2865.57	28.5
2866.42	28
2867.28	27.5
2868.14	27
2868.99	29.5
2869.85	30.5
2870.7	26.5
2871.56	28.5
2872.41	28.5
2873.27	30
2874.13	34
2874.98	29.5
2875.83	26
2876.69	28
2877.54	31.5
2878.4	31.5
2879.25	35
2880.11	32
2880.96	31
2881.81	36
2882.67	31
2883.52	34
2884.38	40.5
2885.23	36.5
2886.08	34.5
2886.94	38
2887.79	31
2888.64	37
2889.5	36
2890.35	40.5
2891.2	38
2892.05	38
2892.91	43
2893.76	46
2894.61	43.5
2895.46	51
2896.31	49
2897.17	45
2898.02	53
2898.87	59.5
2899.72	59
2900.57	59.5
2901.42	71.5
2902.27	65
2903.12	71
2903.98	73.5
2904.83	68.5
2905.68	76
2906.53	71.5
2907.38	74.5
2908.23	68.5
2909.08	65
2909.93	65.5
2910.78	67.5
2911.63	59.5
2912.48	55.5
2913.33	53
2914.18	52
2915.02	48
2915.87	43.5
2916.72	43
2917.57	41
2918.42	40.5
2919.27	40
2920.12	38
2920.97	35.5
2921.81	38
2922.66	32
2923.51	37
2924.36	34.5
2925.21	31.5
2926.05	35
2926.9	30
2927.75	30.5
2928.59	29
2929.44	32
2930.29	27.5
2931.14	30
2931.98	27.5
2932.83	27
2933.68	28.5
2934.52	32.5
2935.37	32.5
2936.21	29
2937.06	30
2937.91	32
2938.75	27.5
2939.6	27
2940.44	32
2941.29	26.5
2942.14	27.5
2942.98	30
2943.82	30
2944.67	26
2945.51	31
2946.36	28
2947.2	29
2948.05	35
2948.89	26.5
2949.74	28.5
2950.58	29
2951.43	32.5
2952.27	34
2953.11	29.5
2953.96	30.5
2954.8	31
2955.64	34.5
2956.49	34
2957.33	34
2958.17	40.5
2959.02	29
2959.86	37
2960.7	40
2961.54	38.5
2962.39	42.5
2963.23	46
2964.07	43
2964.91	45.5
2965.75	45
2966.6	46
2967.44	39
2968.28	44
2969.12	37
2969.96	43
2970.8	41
2971.64	41.9782
2972.48	36.9306
2973.33	40.9087
2974.17	34.1833
2975.01	33.87
2975.85	31.3966
2976.69	32.9262
2977.53	34.7141
2978.37	32.7969
2979.21	31.3344
2980.05	33.7305
2980.89	29.9096
2981.73	26.0364
2982.57	29.1349
2983.41	27.7971
2984.25	28.2669
2985.08	25.7161
2985.92	25.3926
2986.76	24.0829
2987.6	23.8431
2988.44	27.7701
2989.28	24.3811
2990.12	28.0964
2990.96	27.7572
2991.79	25.187
2992.63	23.426
2993.47	28.8029
2994.31	25
2995.14	25.8823
2995.98	26.2918
2996.82	22.5364
2997.66	25.2054
2998.49	22.4408
2999.33	24.6876
3000.17	25.0362
3001	25.0147
3001.84	23.1763
3002.68	25.3062
3003.51	23.4809
3004.35	25.1275
3005.19	27.1305
3006.02	25.8953
3006.86	27.3571
3007.7	24.9883
3008.53	23.9081
3009.37	24.7354
3010.2	22.4623
3011.04	23.1052
3011.87	26.2267
3012.71	24.9906
3013.54	25.2876
3014.38	24.577
3015.21	24.6052
3016.05	25.0828
3016.88	25.1129
3017.72	23.1155
3018.55	23.75
3019.39	23.7871
3020.22	23.9315
3021.05	23.3683
3021.89	20.3495
3022.72	20.6764
3023.55	24.2304
3024.39	25.4668
3025.22	24.3786
3026.05	22.2471
3026.89	23.1127
3027.72	24.1828
3028.55	23.6926
3029.39	24.3325
3030.22	24.1925
3031.05	25.3236
3031.88	22.6851
3032.72	23.0551
3033.55	23.1206
3034.38	23.2297
3035.21	22.7653
3036.04	24.902
3036.88	25.4642
3037.71	24.0314
3038.54	23.054
3039.37	22.2171
3040.2	20.8071
3041.03	24.087
3041.86	24.2332
3042.69	24.9158
3043.52	24.7144
3044.36	23.8055
3045.19	23.8032
3046.02	23.2379
3046.85	23.1069
3047.68	22.1437
3048.51	22.5035
3049.34	23.348
3050.17	23.6729
3051	24.2615
3051.83	24.4238
3052.66	24.9223
3053.48	25.8365
3054.31	24.8199
3055.14	21.5404
3055.97	23.2999
3056.8	22.589
3057.29	22
3058.12	25
3058.95	26.5
3059.79	22
3060.62	26
3061.45	21
3062.29	22
3063.12	24
3063.95	21
3064.78	24.5
3065.62	23
3066.45	24
3067.28	25.5
3068.11	25.5
3068.94	25
3069.77	23.5
3070.61	27.5
3071.44	21.5
3072.27	22.5
3073.1	24
3073.93	23.5
3074.76	24.5
3075.59	24.5
3076.42	21.5
3077.25	26
3078.08	22
3078.92	25
3079.74	25.5
3080.57	24.5
3081.41	27.5
3082.24	25.5
3083.06	22.5
3083.89	23.5
3084.72	26
3085.55	23.5
3086.38	23
3087.21	19.5
3088.04	17.5
3088.87	25.5
3089.7	24.5
3090.53	20
3091.36	20.5
3092.18	24
3093.01	25.5
3093.84	23
3094.67	21.5
3095.5	23.5
3096.32	26.5
3097.15	25
3097.98	23.5
3098.81	20
3099.64	23.5
3100.46	24.5
3101.29	25.5
3102.12	20.5
3102.94	24.5
3103.77	23
3104.6	23
3105.42	27
3106.25	24
3107.08	26
3107.9	22.5
3108.73	25.5
3109.56	27
3110.38	26.5
3111.21	25
3112.03	23.5
3112.86	23.5
3113.68	24.5
3114.51	23
3115.33	25.5
3116.16	23.5
3116.98	22
3117.81	19.5
3118.63	29
3119.46	21
3120.28	25
3121.11	23.5
3121.93	24
3122.76	23.5
3123.58	22
3124.4	25.5
3125.23	26
3126.05	24.5
3126.87	27
3127.7	22
3128.52	28
3129.34	27
3130.17	25
3130.99	25
3131.81	27
3132.64	23.5
3133.46	19.5
3134.28	27
3135.1	20
3135.93	25.5
3136.75	23.5
3137.57	24.5
3138.39	24.5
3139.21	24.5
3140.04	27.5
3140.86	23.5
3141.68	23.5
3142.5	23
3143.32	22.5
3144.14	23.5
3144.96	24
3145.78	22.5
3146.61	25.5
3147.43	24
3148.25	23.5
3149.07	22
3149.89	21.5
3150.71	28
3151.53	23.5
3152.35	24
3153.17	22.5
3153.99	25
3154.81	24
3155.63	20
3156.45	27
3157.27	18
3158.08	29.5
3158.9	22.5
3159.72	24.5
3160.54	24
3161.36	22
3162.18	22
3163	20.5
3163.82	23
3164.63	25.5
3165.45	21
3166.27	26
3167.09	30.5
3167.91	24
3168.72	22
3169.54	25
3170.36	25.5
3171.18	22.5
3171.99	26
3172.81	24.5
3173.63	25
3174.44	23.5
3175.26	26
3176.08	22.5
3176.89	26.5
3177.71	24
3178.53	27
3179.34	24.5
3180.16	22
3180.97	22.5
3181.79	24
3182.61	26.5
3183.42	22
3184.24	27
3185.05	24.5
3185.87	23
3186.68	24.5
3187.5	24
3188.31	21.5
3189.13	22.5
3189.94	24
3190.76	26
3191.57	24
3192.39	26
3193.2	22
3194.02	26
3194.83	19
3195.64	26.5
3196.46	26
3197.27	26
3198.08	24.5
3198.9	24.5
3199.71	24
3200.52	25.5
3201.34	20
3202.15	24.5
3202.96	25.5
3203.78	26
3204.59	23.5
3205.4	24
3206.21	22.5
3207.03	27
3207.84	17.5
3208.65	22.5
3209.46	24.5
3210.27	25
3211.09	26.5
3211.9	23
3212.71	26
3213.52	25
3214.33	25.5
3215.14	22
3215.95	23
3216.77	24
3217.58	27.5
3218.39	24
3219.2	21.5
3220.01	28
3220.82	24.5
3221.63	21
3222.44	19
3223.25	24.5
3224.06	22.5
3224.87	26
3225.68	23
3226.49	25
3227.3	22
3228.11	26.5
3228.92	24.5
3229.73	24
3230.53	26.5
3231.34	23
3232.15	25.5
3232.96	21
3233.77	25
3234.58	24
3235.39	24.5
3236.19	25
3237	28.5
3237.81	27
3238.62	24.5
3239.43	23.5
3240.23	24
3241.04	27
3241.85	22.5
3242.66	23
3243.46	18
3244.27	24.5
3245.08	25.5
3245.89	25
3246.69	24.5
3247.5	22
3248.31	20.5
3249.11	27.5
3249.92	28.5
3250.72	21
3251.53	24.5
3252.34	20
3253.14	25
3253.95	21.5
3254.75	25
3255.56	26
3256.36	28
3257.17	25.5
3257.98	21.5
3258.78	26.5
3259.59	24
3260.39	25.5
3261.19	27
3262	21.5
3262.8	23.5
3263.61	25
3264.41	22
3265.22	26
3266.02	26
3266.83	23
3267.63	24
3268.43	21
3269.24	22
3270.04	22.5
3270.84	23
3271.65	24.5
3272.45	24.5
3273.25	24
3274.06	24
3274.86	23
3275.66	25.5
3276.46	24
3277.27	24
3278.07	25.5
3278.87	26
3279.67	24
3280.48	24.5
3281.28	23
3282.08	26
3282.88	23.5
3283.68	22.5
3284.48	24
3285.29	26
3286.09	19.5
3286.89	21
3287.69	25.5
3288.49	23
3289.29	22.5
3290.09	19.5
3290.89	25
3291.69	24.5
3292.49	27
3293.29	24.5
3294.09	22.5
3294.89	22.5
3295.69	25.5
3296.49	30
3297.29	25
3298.09	24
3298.89	24.5
3299.69	21.5
3300.49	28.5
3301.29	23
3302.09	24
3302.89	22.5
3303.69	23.5
3304.49	19.5
3305.28	24.5
3306.08	27
3306.88	27
3307.68	24.5
3308.48	22
3309.28	25.5
3310.07	23
3310.87	22.5
3311.67	23
3312.47	24
3313.26	28.5
3314.06	26.5
3314.86	22
3315.66	25.5
3316.45	22
3317.25	23
3318.05	25
3318.84	23
3319.64	26.5
3320.44	25
3321.23	25
3322.03	24
3322.83	27
3323.62	26
3324.42	24
3325.21	26.5
3326.01	23
3326.81	26
3327.6	24.5
3328.4	26
3329.19	26
3329.99	21
3330.78	24
3331.58	21
3332.37	29
3333.17	26
3333.96	26.5
3334.76	23
3335.55	24.5
3336.34	24
3337.14	24.5
3337.93	27
3338.73	25
3339.52	22.5
3340.31	27
3341.11	20.5
3341.9	26.5
3342.69	27
3343.49	27.5
3344.28	21
3345.07	23.5
3345.87	25.5
3346.66	24.5
3347.45	26.5
3348.25	24.5
3349.04	28.5
3349.83	21
3350.62	29
3351.42	27
3352.21	24
3353	23
3353.79	28
3354.58	19.5
3355.37	23
3356.17	25
3356.96	25
3357.75	21.5
3358.54	27
3359.33	23
3360.12	23
3360.91	25
3361.7	21
3362.49	26.5
3363.29	24.5
3364.08	20.5
3364.87	25.5
3365.66	27
3366.45	23.5
3367.24	20.5
3368.03	24
3368.82	26
3369.61	25.5
3370.4	27.5
3371.19	22.5
3371.97	23
3372.76	26
3373.55	24
3374.34	22
3375.13	23
3375.92	25
3376.71	20.5
3377.5	25.5
3378.29	24
3379.07	26
3379.86	26.5
3380.65	28
3381.44	27
3382.23	24.5
3383.01	26
3383.8	28.5
3384.59	24
3385.38	26
3386.16	25.5
3386.95	26.5
3387.74	23
3388.53	20.5
3389.31	28
3390.1	22.5
3390.89	21
3391.67	24.5
3392.46	27
3393.25	24
3394.03	25
3394.82	24
3395.6	25.5
3396.39	23.5
3397.18	27
3397.96	28
3398.75	26
3399.53	26
3400.32	26
3401.1	26.5
3401.89	24.5
3402.67	23
3403.46	27
3404.24	26
3405.03	22.5
3405.81	26
3406.6	25
3407.38	28
3408.17	24.5
3408.95	22
3409.74	21.5
3410.52	23
3411.3	24
3412.09	22.5
3412.87	24
3413.65	29.5
3414.44	24.5
3415.22	23
3416	24
3416.79	25.5
3417.57	21.5
3418.35	28.5
3419.14	24.5
3419.92	25.5
3420.7	24
3421.48	28.5
3422.27	26.5
3423.05	24
3423.83	24.5
3424.61	27
3425.4	25
3426.18	24.5
3426.96	25
3427.74	24.5
3428.52	24
3429.3	22
3430.08	26
3430.87	23.5
3431.65	26
3432.43	25.5
3433.21	22
3433.99	29
3434.77	26
3435.55	28
3436.33	26.5
3437.11	27
3437.89	25
3438.67	22.5
3439.45	23
3440.23	27
3441.01	23.5
3441.79	25
3442.57	25
3443.35	26
3444.13	29.5
3444.91	26
3445.69	23.5
3446.47	24
3447.25	26.5
3448.03	27
3448.8	23
3449.58	20
3450.36	27
3451.14	25.5
3451.92	26.5
3452.7	26
3453.47	23
3454.25	25.5
3455.03	22
3455.81	24
3456.59	21
3457.36	27
3458.14	23.5
3458.92	22
3459.69	24
3460.47	25
3461.25	24
3462.03	21
3462.8	23
3463.58	23
3464.36	27
3465.13	24.5
3465.91	22
3466.69	28
3467.46	25.5
3468.24	23.5
3469.01	22
3469.79	27.5
3470.57	24
3471.34	24.5
3472.12	24
3472.89	27
3473.67	22
3474.44	22.5
3475.22	23.5
3475.99	24
3476.77	24
3477.54	26
3478.32	26
3479.09	26
3479.87	25
3480.64	24.5
3481.41	23
3482.19	28.5
3482.96	24
3483.74	24.5
3484.51	25.5
3485.28	25
3486.06	23.5
3486.83	27
3487.6	25.5
3488.38	20.5
3489.15	25
3489.92	19
3490.7	26.5
3491.47	27
3492.24	26
3493.01	24
3493.79	22.5
3494.56	26
3495.33	27.5
3496.1	24
3496.88	21.5
3497.65	25.5
3498.42	23.5
3499.19	26
3499.96	19.5
