#Acq. time (s)=	5
#Accumulations=	5
#Range (cm-ｹ)=	100...3500
#Windows=	4
#Autofocus=	Off
#AutoExposure=	Off
#Spike filter=	Multiple accum.
#Delay time (s)=	0
#Binning=	1
#Readout mode=	Signal
#DeNoise=	Off
#ICS correction=	Off
#Dark correction=	Off
#Inst. Process=	Off
#Instrument=	LabRAM HR Evol
#Detector=	Syncerity OE
#Objective=	x100_VIS
#Grating=	600 (500nm)
#ND Filter=	25%
#Laser=	633nm_Edge
#Hole=	100.021
#Range=	Visible
#Project=	verificaciones
#Sample=	at1
#Site=	plain
#Title=	bolusat1plain
#Remark=	com
#Date=	16.01.2026 16:19
#Acquired=	16.01.2026 16:19:30
100.564	31.5
101.847	35
103.131	31.5
104.414	29
105.697	31.5
106.979	28.5
108.262	29
109.544	30
110.826	27.5
112.109	33.5
113.391	28
114.672	28
115.954	30.5
117.235	36
118.515	31
119.796	30.5
121.076	35
122.357	31.5
123.637	33.5
124.916	33
126.196	33
127.475	31.5
128.754	30.5
130.033	31.5
131.31	35
132.589	33
133.867	32
135.145	29
136.423	33.5
137.701	35
138.978	36.5
140.256	37.5
141.533	33
142.809	37.5
144.086	34.5
145.361	33
146.637	37
147.913	40
149.189	44
150.464	39
151.74	41
153.014	42.5
154.288	41.5
155.563	42
156.838	39
158.112	42
159.385	44
160.659	38
161.932	36
163.206	41
164.479	40
165.751	37.5
167.024	42
168.296	38.5
169.567	36.5
170.84	37
172.112	38
173.383	42.5
174.654	40
175.925	41
177.196	41.5
178.466	38.5
179.737	40
181.007	44
182.276	34
183.546	46.5
184.816	42
186.085	39.5
187.354	39
188.624	40.5
189.891	42.5
191.16	39
192.427	39.5
193.696	43
194.964	40
196.231	37.5
197.499	43
198.765	35
200.033	37.5
201.298	35.5
202.566	38
203.831	37
205.098	35
206.363	33.5
207.629	39.5
208.894	36.5
210.159	33
211.424	39
212.689	32.5
213.953	34
215.218	32.5
216.481	35
217.746	32
219.009	34.5
220.273	36.5
221.536	32
222.798	34
224.062	35
225.323	31.5
226.587	30.5
227.848	33.5
229.109	29.5
230.372	28.5
231.633	33
232.894	29
234.156	33
235.416	32.5
236.678	26.5
237.937	28
239.197	30
240.457	28.5
241.717	29.5
242.976	30
244.235	34
245.495	32
246.754	29.5
248.012	29.5
249.27	31
250.529	30.5
251.787	31.5
253.045	30.5
254.302	28.5
255.56	27
256.817	26
258.074	29.5
259.33	30
260.586	27.5
261.844	28
263.1	28
264.355	31.5
265.611	32.5
266.866	30.5
268.121	30
269.377	31
270.632	31.5
271.886	24
273.14	31
274.394	28
275.648	30.5
276.902	26.5
278.155	29.5
279.408	29
280.663	30.5
281.915	23
283.168	28.5
284.42	32.5
285.673	32.5
286.925	31
288.176	29
289.428	28.5
290.679	30.5
291.93	27
293.181	28
294.432	31
295.683	25.5
296.933	27
298.183	25
299.433	28
300.683	30
301.932	31.5
303.182	29
304.429	25
305.678	29
306.927	26.5
308.176	25.5
309.424	30
310.672	27
311.92	29
313.168	28
314.415	23
315.661	26.5
316.908	26
318.155	28
319.402	30
320.648	31.5
321.895	25.5
323.139	28
324.385	23.5
325.631	27
326.877	29
328.122	28
329.366	30.5
330.611	27
331.855	25
333.1	31
334.343	27
335.587	29
336.831	25
338.074	30
339.317	28
340.56	29.5
341.803	27
343.044	28
344.287	24.5
345.53	25.5
346.771	26.5
348.013	29
349.255	24
350.495	29
351.736	32
352.978	27.5
354.217	30.5
355.458	24
356.699	29
357.938	32.5
359.178	24
360.417	30
361.657	27.5
362.895	29
364.135	28
365.374	31
366.612	26.5
367.851	31
369.088	25
370.327	27.5
371.564	27.5
372.802	24.5
374.038	28.5
375.276	24
376.512	29.5
377.749	25.5
378.985	24
380.222	26.5
381.457	27.5
382.692	31
383.929	28
385.164	29
386.4	26.5
387.634	30.5
388.869	25
390.103	29
391.337	27
392.572	27.5
393.805	28
395.038	29
396.273	28
397.506	27
398.74	28
399.972	26
401.204	28.5
402.437	25
403.669	25
404.901	26.5
406.132	27
407.365	27
408.596	25
409.826	28
411.058	26
412.289	28
413.519	28
414.749	32
415.98	27.5
417.21	25
418.439	28.5
419.668	25.5
420.897	26
422.128	31
423.356	26
424.585	27
425.813	25.5
427.041	27
428.269	22
429.498	27
430.725	25.5
431.952	27
433.179	22.5
434.406	26.5
435.633	28
436.859	25
438.085	28.5
439.312	27.5
440.537	25
441.764	24.5
442.99	28.5
444.215	27.5
445.44	30
446.665	28
447.89	30
449.114	26
450.339	27.5
451.563	29.5
452.787	32
454.01	27
455.234	28.5
456.457	27.5
457.68	29.5
458.903	31
460.126	27
461.348	28.5
462.569	29
463.792	29
465.013	31.5
466.235	33.5
467.457	28
468.678	32.5
469.899	33.5
471.12	33.5
472.341	32.5
473.56	39
474.781	34.5
476.001	37.5
477.221	37
478.441	48.5
479.66	49.5
480.878	49
482.098	54
483.317	56.5
484.535	55
485.754	56
486.971	63
488.189	62.5
489.407	60.5
490.625	61.5
491.842	58.5
493.059	54
494.276	51.5
495.493	48.5
496.709	49
497.926	45
499.142	43.5
500.357	46.5
501.573	47.5
502.789	44.5
504.003	39
505.219	37
506.434	38
507.648	35
508.863	36.5
510.078	36
511.291	36
512.505	34
513.718	35
514.932	35
516.145	34.5
517.358	34
518.572	30
519.783	32
520.997	30.5
522.208	33.5
523.421	32
524.632	31.5
525.844	31.5
527.055	31.5
528.266	30.5
529.477	26
530.688	30
531.898	28
533.109	26
534.319	27.5
535.53	27
536.739	26
537.948	26
539.158	28
540.366	32
541.576	26.5
542.784	31.5
543.994	32
545.201	27
546.409	29
547.618	27
548.825	24.5
550.032	25.5
551.24	31
552.447	26
553.654	28.5
554.861	28
556.067	28.5
557.273	26
558.48	29.5
559.686	26
560.891	30.5
562.096	27
563.302	30.5
564.507	25
565.712	27
566.916	22.5
568.122	27.5
569.326	24
570.529	26
571.733	26
572.936	29
574.141	27.5
575.344	31.5
576.547	30.5
577.75	30.5
578.952	25
580.154	25.5
581.358	26.5
582.56	31
583.761	30
584.963	24.5
586.164	29
587.365	25.5
588.566	26
589.767	30.5
590.967	28
592.168	26.5
593.369	23
594.569	27.5
595.769	30
596.969	28.5
598.168	31
599.367	30.5
600.566	24
601.765	26
602.964	29
604.162	28
605.361	27.5
606.559	23
607.757	31
608.953	23
610.151	28.5
611.348	28
612.545	26
613.742	27.5
614.939	25.5
616.135	27.5
617.332	32
618.528	28
619.724	27.5
620.918	27.5
622.114	28
623.309	30
624.505	28
625.7	28.5
626.895	29
628.088	28.5
629.282	26
630.477	31.5
631.671	26
632.865	26
634.057	27
635.251	29
636.444	27.5
637.637	27
638.829	28
640.022	26
641.214	28
642.407	27
643.598	29
644.79	33
645.982	29
647.172	24
648.364	30
649.555	27
650.745	24.5
651.936	28
653.126	25
654.315	28
655.506	27
656.696	29
657.885	30
659.074	31
660.263	28
661.452	28
662.64	31
663.829	26
665.018	28
666.205	30.5
667.394	29
668.581	28
669.769	30
670.955	28
672.143	34.5
673.329	27.5
674.517	31
675.703	30
676.89	29
678.075	31.5
679.262	27.5
680.447	37
681.632	33
682.818	34
684.002	36.5
685.188	28
686.372	29
687.556	35.5
688.741	33.5
689.925	34
691.11	31
692.293	31.5
693.476	31.5
694.66	34
695.843	29
697.025	32
698.209	33.5
699.391	30.5
700.573	35.5
701.756	39
702.938	39.5
704.119	40.5
705.3	42.5
706.483	42
707.664	47.5
708.844	52
710.025	54
711.206	51
712.386	44
713.566	41.5
714.746	41.5
715.925	35.5
717.106	33.5
718.285	34
719.464	30
720.643	31
721.822	32.5
723	25
724.178	28.5
725.358	32
726.536	30
727.713	28
728.891	26.5
730.068	26
731.245	30
732.422	26.5
733.599	27
734.775	28.5
735.952	29.5
737.128	27
738.304	27.5
739.48	26.5
740.656	28
741.831	26
743.006	29
744.181	28
745.356	26
746.531	25
747.706	33.5
748.88	30
750.054	27
751.228	28.5
752.402	26
753.576	27
754.749	30
755.922	24.5
757.095	27.5
758.267	30
759.44	28
760.612	27
761.785	29
762.957	22
764.129	29.5
765.301	25.5
766.471	29
767.642	25.5
768.814	23
769.985	30
771.156	29.5
772.325	31.5
773.495	27
774.666	33
775.836	24.5
777.005	27
778.174	32
779.344	31.5
780.513	32
781.681	29.5
782.85	29
784.019	31.5
785.187	27.5
786.355	33
787.523	30
788.69	32.5
789.858	28
791.026	33
792.192	33.5
793.36	28
794.526	32
795.693	29
796.86	28
798.025	29.5
799.191	26.5
800.356	34
801.523	31
802.689	31.5
803.853	27
805.019	29
806.183	28
807.348	28
808.512	26
809.677	27
810.84	29
812.005	29.5
813.167	28.5
814.332	30.5
815.494	28
816.657	31
817.82	25.5
818.982	28.5
820.146	31.5
821.307	26.5
822.47	24
823.632	28
824.793	25.5
825.955	28
827.116	25
828.277	27
829.439	27.5
830.599	27.5
831.759	26.5
832.92	25
834.08	27.5
835.24	30
836.4	28
837.56	29
838.719	27.5
839.877	29.5
841.037	30
842.196	26.5
843.354	27
844.512	25.5
845.672	26
846.83	28
847.987	28.5
849.145	27.5
850.302	29.5
851.46	26.5
852.617	25.5
853.774	27
854.93	30.5
856.087	27.5
857.243	29.5
858.4	31.5
859.556	28
860.712	28.5
861.867	29.5
863.022	34.5
864.177	29
865.332	30
866.487	28.5
867.642	28
868.796	28.5
869.95	25.5
871.104	28
872.258	25
873.412	28
874.565	29.5
875.718	26.5
876.872	23.5
878.024	31.5
879.177	26.5
880.33	27.5
881.482	30
882.635	26
883.787	27
884.938	27
886.09	25.5
887.242	25
888.393	29
889.544	24
890.695	21
891.845	26
892.995	23.5
894.146	23
895.296	21.5
896.446	25.5
897.596	24
898.744	26
899.894	24.5
901.043	28
902.193	25.5
903.342	26.5
904.489	29
905.638	24
906.786	27
907.935	27
909.081	26
910.229	26.5
911.377	26
912.525	23.5
913.671	27
914.818	22
915.965	25.5
917.111	24.5
918.258	27
919.404	26
920.549	26
921.695	27.5
922.84	26
923.986	28
925.132	29.5
926.276	26.5
927.421	26
928.565	27.5
929.71	27
930.855	21
931.998	24.5
933.142	27
934.285	27
935.429	28
936.572	27
937.716	25.5
938.858	25
940.001	25
941.143	25
942.286	25
943.428	25.5
944.57	31
945.712	25.5
946.854	25
947.995	24
949.135	26.5
950.277	28
951.418	22
952.559	26.5
953.699	24
954.839	26
955.98	24.5
957.119	24.5
958.258	25
959.399	32.5
960.538	23
961.676	28.5
962.816	28
963.955	26
965.093	27.5
966.232	28.5
967.37	25
968.508	24
969.645	26
970.784	26.5
971.921	26.5
973.058	25
974.195	27.5
975.333	24
976.469	26.5
977.605	28
978.741	27.5
979.877	22
981.013	27.5
982.15	30
983.285	23.5
984.421	21.5
985.556	26
986.691	24
987.825	25
988.96	26
990.094	23.5
991.228	25
992.364	29.5
993.497	26.5
994.631	31
995.765	24
996.898	28.5
998.031	27.5
999.164	26
1000.3	29
1001.43	28
1002.56	25.5
1003.69	28
1004.83	29
1005.96	26
1007.09	22
1008.22	29
1009.35	26
1010.48	25.5
1011.61	27.5
1012.74	27
1013.88	28.5
1015.01	27.5
1016.14	27
1017.27	27
1018.4	24
1019.53	24.5
1020.65	24
1021.78	22
1022.91	26.5
1024.04	32.5
1025.17	27
1026.3	26
1027.43	23
1028.56	25
1029.68	27
1030.81	27
1031.94	24
1033.07	21
1034.19	26.5
1035.32	27.5
1036.45	26
1037.58	29.5
1038.7	24
1039.83	21.5
1040.95	19
1042.08	26.5
1043.21	23
1044.33	26.5
1045.46	23.5
1046.58	24
1047.71	26
1048.83	26
1049.96	24
1051.08	27.5
1052.21	21
1053.33	23
1054.45	23
1055.58	25.5
1056.7	25
1057.82	21.5
1058.95	26
1060.07	30.5
1061.19	24.5
1062.32	27
1063.44	32
1064.56	25.5
1065.68	24.5
1066.81	24.5
1067.93	24.5
1069.05	26.5
1070.17	24.5
1071.29	30.5
1072.41	27.5
1073.53	28
1074.65	26
1075.77	26.5
1076.89	28
1078.01	28
1079.13	28
1080.25	27.5
1081.37	23
1082.49	26.5
1083.61	26.5
1084.73	26.5
1085.85	23
1086.97	19
1088.09	28
1089.2	26
1090.32	24
1091.44	23.5
1092.56	24
1093.68	22
1094.79	28
1095.91	29
1097.03	26.5
1098.14	22.5
1099.26	26
1100.38	20
1101.49	23.5
1102.61	27
1103.73	23
1104.84	23
1105.96	21.5
1107.07	27
1108.19	23
1109.3	26
1110.42	25
1111.53	27
1112.65	25.5
1113.76	27.5
1114.88	26.5
1115.99	22
1117.1	24
1118.22	25
1119.33	21.5
1120.44	20
1121.56	25
1122.67	27
1123.78	27.5
1124.89	21.5
1126.01	25.5
1127.12	26
1128.23	25.5
1129.34	26
1130.45	24.5
1131.56	26
1132.67	26.5
1133.79	24.5
1134.9	24.5
1136.01	25
1137.12	24
1138.23	26
1139.34	22
1140.45	23
1141.56	24.5
1142.67	23
1143.78	26.5
1144.89	25
1145.99	29.5
1147.1	26.5
1148.21	22
1149.32	28
1150.43	26
1151.54	24.5
1152.65	24.5
1153.75	23
1154.86	20
1155.97	23.5
1157.08	25.5
1158.18	25
1159.29	23
1160.4	23
1161.5	17.5
1162.61	23.5
1163.72	26
1164.82	26
1165.93	26.5
1167.03	26.5
1168.14	26
1169.24	26
1170.35	26
1171.45	26
1172.56	28
1173.66	23.5
1174.77	23
1175.87	23.5
1176.98	23
1178.08	23
1179.18	22.5
1180.29	26
1181.39	28
1182.49	24
1183.6	20
1184.7	23
1185.8	25.5
1186.9	23.5
1188	25
1189.11	24
1190.21	27.5
1191.31	25.5
1192.41	25
1193.51	23.5
1194.61	21.4952
1195.72	24.0018
1196.82	24.0184
1197.92	23.9601
1199.02	23.9125
1200.12	24.1068
1201.22	22.2556
1202.32	25.0741
1203.42	27.0049
1204.52	26.9585
1205.62	24.8297
1206.71	22.9764
1207.81	22.234
1208.91	22.5875
1210.01	21.629
1211.11	26.7207
1212.21	24.497
1213.31	22.9464
1214.4	26.6568
1215.5	27.3943
1216.6	25.8767
1217.7	21.6167
1218.79	23.6092
1219.89	24.7718
1220.99	22.4757
1222.08	22.4938
1223.18	21.6432
1224.28	24.9659
1225.37	23.7238
1226.47	24.7182
1227.56	24.537
1228.66	23.8471
1229.76	26.5118
1230.85	24.0138
1231.95	24.0086
1233.04	21.8552
1234.14	24.0961
1235.23	27.9579
1236.32	23.9345
1237.42	25.6807
1238.51	23.9838
1239.61	23.1879
1240.7	21.5593
1241.79	24.8795
1242.89	24.9473
1243.98	25.2967
1245.07	23.9118
1246.17	23.4601
1247.26	24.6525
1248.35	23.8489
1249.44	24.2829
1250.53	24.2309
1251.63	25.489
1252.72	24.5777
1253.81	26.5052
1254.9	24.6085
1255.99	25.3716
1257.08	26.8439
1258.17	27.0254
1259.27	24.3567
1260.36	26.9321
1261.45	27.862
1262.54	23.9821
1263.63	27.743
1264.72	30.4331
1265.81	25.6569
1266.89	24.8707
1267.98	25.1383
1269.07	24.1639
1270.16	24.8998
1271.25	25.8846
1272.34	24.7943
1273.43	24.6063
1274.52	24.4976
1275.6	26.8945
1276.69	25.4274
1277.78	23.9953
1278.87	25.0836
1279.95	23.6145
1281.04	22.0706
1282.13	24.9604
1283.22	25.04
1284.3	21.7574
1285.39	20.0569
1286.48	24.6501
1287.56	23.9347
1288.65	25.3383
1289.73	24.4705
1290.82	22.8878
1291.9	23.9105
1292.99	20.1131
1294.07	21.3962
1295.16	23.8947
1296.24	25.2931
1297.33	25.1134
1298.41	23.457
1299.5	22.5316
1300.58	23.6229
1301.66	23.9563
1302.75	22.7631
1303.83	23.0152
1304.91	25.1092
1306	23.7878
1306.4	22.5
1307.48	25.5
1308.57	20.5
1309.66	26.5
1310.75	26
1311.84	26.5
1312.92	20
1314.01	21.5
1315.1	24.5
1316.18	27.5
1317.27	23
1318.36	24
1319.44	25
1320.53	25.5
1321.62	23
1322.7	27
1323.79	23.5
1324.87	25.5
1325.96	20
1327.04	28.5
1328.13	27.5
1329.21	23.5
1330.3	28
1331.38	28
1332.47	21.5
1333.55	27
1334.64	25
1335.72	23.5
1336.8	23
1337.89	24
1338.97	21.5
1340.05	26
1341.14	25
1342.22	28.5
1343.3	24.5
1344.38	25.5
1345.47	23.5
1346.55	21
1347.63	23
1348.71	26
1349.79	22.5
1350.87	21
1351.96	23
1353.04	28
1354.12	25.5
1355.2	22
1356.28	25.5
1357.36	21.5
1358.44	18.5
1359.52	22
1360.6	24
1361.68	25
1362.76	26
1363.84	22
1364.92	23
1366	26
1367.07	21
1368.15	21.5
1369.23	23
1370.31	25
1371.39	19.5
1372.47	25
1373.54	27.5
1374.62	24.5
1375.7	20.5
1376.78	26
1377.85	26.5
1378.93	29.5
1380.01	24
1381.08	21
1382.16	24.5
1383.24	27
1384.31	23.5
1385.39	25
1386.46	26
1387.54	25
1388.61	27.5
1389.69	25
1390.76	26
1391.84	25.5
1392.91	26.5
1393.99	25.5
1395.06	28.5
1396.14	27.5
1397.21	28.5
1398.29	25
1399.36	27.5
1400.43	27.5
1401.51	34
1402.58	32.5
1403.65	29
1404.72	27
1405.8	28
1406.87	29
1407.94	31
1409.02	27
1410.09	31
1411.16	31.5
1412.23	27
1413.3	34
1414.37	34
1415.44	32.5
1416.51	30.5
1417.59	30
1418.66	25
1419.73	27.5
1420.8	26
1421.87	28
1422.94	24
1424.01	26.5
1425.08	29
1426.15	31
1427.22	26.5
1428.28	25
1429.35	26
1430.42	28.5
1431.49	24
1432.56	27
1433.63	25
1434.7	26.5
1435.76	27
1436.83	24.5
1437.9	26
1438.97	21.5
1440.03	25.5
1441.1	26
1442.17	26
1443.23	28
1444.3	24.5
1445.37	29.5
1446.43	24.5
1447.5	26
1448.57	22.5
1449.63	24
1450.7	25.5
1451.76	27
1452.83	23.5
1453.89	25.5
1454.96	22
1456.02	26.5
1457.09	24
1458.15	24
1459.22	24
1460.28	26
1461.34	28
1462.41	24.5
1463.47	29.5
1464.53	26.5
1465.6	26
1466.66	21.5
1467.72	27
1468.78	26.5
1469.85	21.5
1470.91	25.5
1471.97	26
1473.03	25
1474.1	22.5
1475.16	25.5
1476.22	21
1477.28	23.5
1478.34	23.5
1479.4	27
1480.46	29
1481.52	23
1482.58	24.5
1483.65	23.5
1484.71	26.5
1485.77	28
1486.82	25.5
1487.89	24.5
1488.94	20.5
1490	28.5
1491.06	25.5
1492.12	25
1493.18	21
1494.24	25.5
1495.3	26
1496.36	27
1497.41	21
1498.47	29
1499.53	24.5
1500.59	23
1501.65	28
1502.7	28.5
1503.76	23
1504.82	24.5
1505.87	28.5
1506.93	22
1507.99	24.5
1509.04	28
1510.1	27
1511.16	25
1512.21	25.5
1513.27	28
1514.32	28
1515.38	26
1516.43	22.5
1517.49	27.5
1518.54	23.5
1519.6	25.5
1520.65	24
1521.71	26
1522.76	26.5
1523.81	26
1524.87	23.5
1525.92	21.5
1526.98	28
1528.03	26.5
1529.08	28
1530.14	24
1531.19	27
1532.24	29.5
1533.29	27
1534.35	27
1535.4	26
1536.45	27.5
1537.5	25
1538.55	22
1539.61	24
1540.66	22
1541.71	26.5
1542.76	24
1543.81	25
1544.86	26
1545.91	24.5
1546.96	28.5
1548.01	22.5
1549.06	21.5
1550.11	27
1551.16	26.5
1552.21	26.5
1553.26	28.5
1554.31	24
1555.36	24.5
1556.41	23.5
1557.46	26
1558.5	24
1559.55	29
1560.6	19
1561.65	27
1562.7	24
1563.74	23
1564.79	24
1565.84	20
1566.89	27
1567.93	26
1568.98	25
1570.03	23
1571.07	22.5
1572.12	27.5
1573.17	25
1574.21	24.5
1575.26	27.5
1576.3	24.5
1577.35	22.5
1578.4	27.5
1579.44	26
1580.49	24
1581.53	22
1582.58	27
1583.62	27
1584.66	26
1585.71	24
1586.75	24
1587.8	26.5
1588.84	22.5
1589.88	25
1590.93	25
1591.97	23
1593.01	25.5
1594.06	23
1595.1	26
1596.14	23
1597.18	23.5
1598.23	25.5
1599.27	25
1600.31	27
1601.35	27
1602.39	23
1603.44	25
1604.48	27.5
1605.52	23
1606.56	25.5
1607.6	29.5
1608.64	25.5
1609.68	22.5
1610.72	24.5
1611.76	23.5
1612.8	31.5
1613.84	23.5
1614.88	26.5
1615.92	25
1616.96	25.5
1618	25.5
1619.04	25.5
1620.08	26
1621.12	23
1622.16	25
1623.19	26
1624.23	24
1625.27	24
1626.31	23
1627.35	27
1628.38	27
1629.42	24.5
1630.46	26
1631.49	23
1632.53	30.5
1633.57	27
1634.6	26
1635.64	25
1636.68	26
1637.71	26.5
1638.75	26
1639.79	25
1640.82	26
1641.86	28.5
1642.89	27
1643.93	20
1644.96	24.5
1646	20.5
1647.03	24.5
1648.07	28
1649.1	25
1650.13	24
1651.17	25.5
1652.2	28.5
1653.24	22.5
1654.27	26.5
1655.3	23.5
1656.34	21
1657.37	27
1658.4	25.5
1659.43	23
1660.47	25
1661.5	25
1662.53	24.5
1663.56	25.5
1664.6	26
1665.63	26.5
1666.66	29
1667.69	25
1668.72	29.5
1669.75	26
1670.78	27
1671.81	22.5
1672.85	23
1673.88	24
1674.91	26
1675.94	25
1676.97	26.5
1678	21
1679.03	24
1680.06	26
1681.09	23
1682.11	26
1683.14	23.5
1684.17	24
1685.2	26
1686.23	29
1687.26	26
1688.29	21
1689.31	25
1690.34	25.5
1691.37	22.5
1692.4	26
1693.42	22
1694.45	26.5
1695.48	21
1696.51	24.5
1697.53	25
1698.56	23
1699.59	22.5
1700.61	23.5
1701.64	26
1702.66	22
1703.69	24.5
1704.72	24.5
1705.74	24.5
1706.77	25.5
1707.79	24.5
1708.82	28
1709.84	23
1710.87	25.5
1711.89	22
1712.91	26
1713.94	26
1714.96	21.5
1715.99	24
1717.01	25
1718.03	29.5
1719.06	24.5
1720.08	26.5
1721.1	26
1722.13	23.5
1723.15	25
1724.17	27.5
1725.19	30
1726.22	26.5
1727.24	22
1728.26	25.5
1729.28	27
1730.3	25.5
1731.33	23
1732.35	22
1733.37	25
1734.39	24
1735.41	22
1736.43	24.5
1737.45	27.5
1738.47	28.5
1739.49	27.5
1740.51	26
1741.53	23.5
1742.55	26
1743.57	22
1744.59	25
1745.61	21
1746.63	26
1747.65	24.5
1748.67	23
1749.69	22
1750.7	26
1751.72	20.5
1752.74	21.5
1753.76	27.5
1754.78	24.5
1755.79	23.5
1756.81	27.5
1757.83	27
1758.85	27
1759.86	26.5
1760.88	23.5
1761.9	20
1762.91	24.5
1763.93	25
1764.95	22
1765.96	26.5
1766.98	24
1767.99	28
1769.01	24.5
1770.02	26
1771.04	23
1772.06	22.5
1773.07	25.5
1774.09	26
1775.1	25
1776.11	22.5
1777.13	23.5
1778.14	23
1779.16	22
1780.17	25
1781.18	23.5
1782.2	27
1783.21	25.5
1784.22	23
1785.24	26
1786.25	23.5
1787.26	22
1788.28	24.5
1789.29	23
1790.3	25.5
1791.31	24.5
1792.33	23
1793.34	23.5
1794.35	20.5
1795.36	28.5
1796.37	25
1797.38	23
1798.39	25
1799.4	27
1800.42	24
1801.43	27
1802.44	27
1803.45	22
1804.46	24.5
1805.47	29.5
1806.48	24.5
1807.49	26.5
1808.5	20.5
1809.51	28
1810.51	24
1811.52	27
1812.53	22.5
1813.54	27.5
1814.55	26
1815.56	25.5
1816.57	26.5
1817.57	22.5
1818.58	27.5
1819.59	19.5
1820.6	25
1821.61	25.5
1822.61	24
1823.62	26
1824.63	23.5
1825.63	26
1826.64	23
1827.65	24.5
1828.65	21
1829.66	20.5
1830.67	22
1831.67	23.5
1832.68	27
1833.68	26
1834.69	19
1835.69	25.5
1836.7	26.5
1837.7	25
1838.71	23
1839.71	20.5
1840.72	23.5
1841.72	22
1842.73	24.5
1843.73	24.5
1844.73	24
1845.74	27.5
1846.74	21
1847.74	22.5
1848.75	26
1849.75	24
1850.75	26
1851.76	28.5
1852.76	26
1853.76	23
1854.76	23
1855.77	26.5
1856.77	20.5
1857.77	25
1858.77	28
1859.77	22
1860.77	23.5
1861.78	22
1862.78	21.5
1863.78	25.5
1864.78	26
1865.78	26
1866.78	25
1867.78	23.5
1868.78	23
1869.78	22
1870.78	26
1871.78	21
1872.78	23
1873.78	26
1874.78	25
1875.78	25
1876.78	24.5
1877.78	23
1878.77	23
1879.77	22
1880.77	21
1881.77	23.5
1882.77	25
1883.77	23
1884.76	22
1885.76	26
1886.76	27
1887.75	25
1888.75	24.5
1889.75	23.5
1890.75	25
1891.74	26
1892.74	26
1893.73	21
1894.73	23.5
1895.73	23
1896.72	23
1897.72	26
1898.71	21.5
1899.71	23.5
1900.7	25
1901.7	22
1902.69	26.5
1903.69	26
1904.68	24
1905.68	23
1906.67	26
1907.67	26
1908.66	24.5
1909.65	23
1910.65	25
1911.64	22
1912.63	25
1913.63	25
1914.62	24.5
1915.61	26
1916.61	27
1917.6	23.5
1918.59	24.5
1919.58	23.5
1920.58	27
1921.57	23.5
1922.56	27.5
1923.55	26
1924.54	24
1925.54	25.5
1926.53	24.5
1927.52	21.5
1928.51	23
1929.5	23
1930.49	25.5
1931.48	22
1932.47	22.5
1933.46	24
1934.45	22.5
1935.44	22
1936.43	24
1937.42	20.5
1938.41	26.5
1939.4	23
1940.39	22
1941.38	25.5
1942.37	24.5
1943.35	25
1944.34	24
1945.33	23
1946.32	23
1947.31	22.5
1948.3	24.25
1949.28	24
1950.27	24.5
1951.26	25.5
1952.25	22.5
1953.23	26.5
1954.22	24
1955.21	27.5
1956.19	24
1957.18	21.5
1958.17	26
1959.15	24
1960.14	22
1961.12	27.5
1962.11	20
1963.1	24
1964.08	24
1965.07	26.5
1966.05	22
1967.04	24
1968.02	22
1969.01	26.5
1969.99	23
1970.98	25
1971.96	22.5
1972.94	22.5
1973.93	22
1974.91	23
1975.9	20.5
1976.88	23
1977.86	24
1978.85	19.5
1979.83	27
1980.81	29.5
1981.79	27
1982.78	22.5
1983.76	23
1984.74	25.5
1985.72	22
1986.71	25
1987.69	25
1988.67	23
1989.65	21.5
1990.63	21.5
1991.61	23.5
1992.59	24.5
1993.57	28.5
1994.56	23
1995.54	23.5
1996.52	23
1997.5	24.5
1998.48	25
1999.46	24.5
2000.44	23
2001.42	21
2002.4	22
2003.38	22
2004.36	25
2005.33	22
2006.31	25.5
2007.29	21
2008.27	24.5
2009.25	24.5
2010.23	23.5
2011.21	23
2012.18	22.5
2013.16	23.5
2014.14	20.5
2015.12	20
2016.09	22
2017.07	25.5
2018.05	24
2019.03	20
2020	25.5
2020.98	22
2021.96	26
2022.93	25
2023.91	24.5
2024.89	26
2025.86	28.5
2026.84	23.5
2027.81	22
2028.79	23
2029.76	20.5
2030.74	23
2031.71	25
2032.69	23.5
2033.66	23.5
2034.64	23
2035.61	25
2036.59	22
2037.56	23.5
2038.54	29
2039.51	22
2040.48	22.5
2041.46	24
2042.43	21
2043.4	21
2044.38	24
2045.35	22
2046.32	24.5
2047.29	26
2048.27	24.5
2049.24	21
2050.21	26.5
2051.18	26
2052.16	24.5
2053.13	24
2054.1	21
2055.07	22
2056.04	26.5
2057.01	22
2057.98	25.5
2058.96	22.5
2059.93	25.5
2060.9	26.5
2061.87	21.5
2062.84	21
2063.81	24.5
2064.78	21.5
2065.75	25.5
2066.72	25.5
2067.69	26
2068.66	25
2069.63	23
2070.6	24.5
2071.56	24
2072.53	18.5
2073.5	24
2074.47	22.5
2075.44	24.5
2076.41	24.5
2077.38	21.5
2078.34	22.5
2079.31	22.5
2080.28	25.5
2081.25	23
2082.21	27
2083.18	23.5
2084.15	23
2085.11	23
2086.08	26
2087.05	24
2088.01	25
2088.98	23
2089.95	18
2090.91	26
2091.88	23
2092.84	19
2093.81	25.5
2094.78	23
2095.74	20
2096.71	20.5
2097.67	25
2098.64	22.5
2099.6	19.5
2100.57	24.5
2101.53	26
2102.49	20.5
2103.46	24
2104.42	23.5
2105.39	23
2106.35	22
2107.31	24.5
2108.28	22
2109.24	23
2110.2	23
2111.17	24.5
2112.13	25
2113.09	22.5
2114.05	22
2115.02	23.5
2115.98	21
2116.94	26.5
2117.9	26
2118.86	27.5
2119.83	23.5
2120.79	25
2121.75	20.5
2122.71	20.5
2123.67	23
2124.63	21
2125.59	23.5
2126.55	21.5
2127.51	21
2128.47	22
2129.43	21
2130.39	23
2131.35	24
2132.31	23.5
2133.27	21.5
2134.23	24
2135.19	25
2136.15	25
2137.11	22
2138.07	20
2139.03	24.5
2139.99	21
2140.94	26
2141.9	21
2142.86	19.0112
2143.82	21.9662
2144.78	24.0052
2145.73	23.966
2146.69	23.4861
2147.65	22.0834
2148.61	21.527
2149.56	23.9638
2150.52	20.0493
2151.48	23.6007
2152.43	20.4967
2153.39	26.0429
2154.35	21.1607
2155.3	21.6877
2156.26	22.4908
2157.21	21.9434
2158.17	22.8951
2159.13	22.0159
2160.08	21.8995
2161.04	22.9633
2161.99	19.2837
2162.95	22.2876
2163.9	23.4304
2164.86	22.5243
2165.81	19.6763
2166.77	20.6873
2167.72	21.4675
2168.67	24.4976
2169.63	23.6848
2170.58	24.5315
2171.54	20.7031
2172.49	19.6392
2173.44	21.0724
2174.4	21.2382
2175.35	22.9974
2176.3	23.3274
2177.26	21.9791
2178.21	21.559
2179.16	19.9691
2180.11	22.7045
2181.07	21.9986
2182.02	21.7015
2182.97	19.4214
2183.92	20.4512
2184.87	20.4799
2185.82	20.331
2186.78	22.8228
2187.73	23.0306
2188.68	23.3326
2189.63	21.7708
2190.58	22.9626
2191.53	23.5142
2192.48	23.9583
2193.43	20.8435
2194.38	23.3763
2195.33	24.1772
2196.28	23.203
2197.23	23.1194
2198.18	24.5981
2199.13	22.0084
2200.08	21.297
2201.03	22.4671
2201.98	22.0689
2202.93	21.0723
2203.88	23.5819
2204.83	23.2548
2205.77	25.1231
2206.72	23.8221
2207.67	23.3571
2208.62	21.2515
2209.57	22.2102
2210.52	19.8056
2211.46	22.335
2212.41	22.1144
2213.36	22.3864
2214.31	22.6335
2215.25	23.9606
2216.2	24.4558
2217.15	22.1737
2218.09	21.8762
2219.04	22.5511
2219.99	20.9992
2220.93	21.8265
2221.88	23.4835
2222.82	23.0102
2223.77	24.2535
2224.72	22.6957
2225.66	24.1222
2226.61	20.9171
2227.55	23.9407
2228.5	22.4975
2229.44	23.6076
2230.39	23.1218
2231.33	22.9219
2232.28	22.3382
2233.22	22.6414
2234.16	22.2393
2235.11	22.6677
2236.05	22.8689
2237	22.0092
2237.94	20.8875
2238.88	20.9098
2239.83	21.6756
2240.13	22
2241.08	21.5
2242.03	23
2242.98	25
2243.92	22
2244.87	20
2245.82	20.5
2246.76	23
2247.71	23
2248.66	24
2249.61	22
2250.55	21
2251.5	21.5
2252.45	25.5
2253.39	22.5
2254.34	22
2255.28	22
2256.23	23.5
2257.18	24
2258.12	23.5
2259.07	25.5
2260.01	24
2260.96	22
2261.9	20.5
2262.85	21.5
2263.79	26
2264.74	18
2265.68	23
2266.63	24.5
2267.57	21
2268.51	26
2269.46	24
2270.4	24
2271.35	24.5
2272.29	24
2273.23	20
2274.18	23
2275.12	21.5
2276.06	20.5
2277	22
2277.95	23
2278.89	25
2279.83	20.5
2280.78	25.5
2281.72	25
2282.66	19.5
2283.6	24
2284.54	20
2285.48	26
2286.43	20.5
2287.37	23
2288.31	23
2289.25	22
2290.19	22
2291.13	22.5
2292.07	21
2293.01	24
2293.95	22
2294.89	22.5
2295.83	19.5
2296.77	23
2297.71	24.5
2298.65	24.5
2299.59	20
2300.53	23.5
2301.47	23.5
2302.41	21
2303.35	21
2304.29	27
2305.22	21.5
2306.16	24
2307.1	22
2308.04	26.5
2308.98	22
2309.91	25.5
2310.85	24.5
2311.79	23
2312.73	24.5
2313.66	18
2314.6	25.5
2315.54	19
2316.48	21
2317.41	21.5
2318.35	23
2319.29	25.5
2320.22	22
2321.16	24
2322.09	22
2323.03	20.5
2323.97	25.5
2324.9	21.5
2325.84	22.5
2326.77	23.5
2327.71	25
2328.64	21
2329.58	21.5
2330.51	22
2331.45	26.5
2332.38	21.5
2333.32	22
2334.25	26
2335.18	24
2336.12	20
2337.05	27
2337.99	21.5
2338.92	25
2339.85	18.5
2340.79	24
2341.72	25
2342.65	21.5
2343.59	28
2344.52	25
2345.45	24.5
2346.38	24
2347.32	25
2348.25	24
2349.18	23.5
2350.11	19
2351.04	23
2351.98	21
2352.91	20
2353.84	23
2354.77	25
2355.7	21.5
2356.63	28.5
2357.56	21.5
2358.49	21
2359.42	21.5
2360.35	24
2361.28	23
2362.21	22
2363.14	24.5
2364.07	24
2365	23
2365.93	24.5
2366.86	21
2367.79	25
2368.72	24
2369.65	23
2370.58	25
2371.51	24.5
2372.44	24
2373.36	26
2374.29	24.5
2375.22	21
2376.15	21.5
2377.08	23.5
2378	22
2378.93	23
2379.86	24
2380.79	21.5
2381.71	22
2382.64	26
2383.57	23.5
2384.49	25
2385.42	24
2386.35	24.5
2387.27	21.5
2388.2	22.5
2389.13	24.5
2390.05	21
2390.98	27
2391.9	22.5
2392.83	22.5
2393.76	23
2394.68	25.5
2395.61	21.5
2396.53	20
2397.46	22
2398.38	23
2399.3	27.5
2400.23	25
2401.15	23
2402.08	23
2403	22.5
2403.93	20.5
2404.85	26
2405.77	21
2406.7	26.5
2407.62	22
2408.54	24
2409.47	27
2410.39	25
2411.31	24
2412.24	22
2413.16	24
2414.08	24
2415	24
2415.92	21.5
2416.85	23
2417.77	27.5
2418.69	23.5
2419.61	22
2420.53	26
2421.45	22
2422.38	25.5
2423.3	20
2424.22	20
2425.14	25.5
2426.06	21
2426.98	24
2427.9	23
2428.82	23.5
2429.74	21
2430.66	24
2431.58	23
2432.5	22
2433.42	22.5
2434.34	24
2435.26	24
2436.18	24.5
2437.1	25
2438.01	22.5
2438.93	23.5
2439.85	25
2440.77	27
2441.69	23.5
2442.61	23
2443.52	23.5
2444.44	24.5
2445.36	22.5
2446.28	27
2447.2	24
2448.11	24
2449.03	19
2449.95	20
2450.86	21.5
2451.78	25
2452.7	26.5
2453.61	22
2454.53	23
2455.45	26.5
2456.36	25.5
2457.28	24.5
2458.2	26
2459.11	25
2460.03	25
2460.94	23
2461.86	21.5
2462.77	27
2463.69	22
2464.6	22.5
2465.52	24
2466.43	22
2467.35	23
2468.26	23
2469.18	24.5
2470.09	25
2471	21
2471.92	25
2472.83	27.5
2473.74	26.5
2474.66	25.5
2475.57	23.5
2476.48	24
2477.4	25
2478.31	23.5
2479.22	25.5
2480.14	25
2481.05	18
2481.96	27.5
2482.87	23
2483.79	24
2484.7	26.5
2485.61	24.5
2486.52	22.5
2487.43	25.5
2488.34	22
2489.25	26
2490.17	22.5
2491.08	25.5
2491.99	26.5
2492.9	24
2493.81	24.5
2494.72	28
2495.63	24
2496.54	24
2497.45	23
2498.36	26.5
2499.27	25
2500.18	28
2501.09	26
2502	26
2502.91	25
2503.82	23
2504.73	21
2505.63	24
2506.54	27
2507.45	23.5
2508.36	21
2509.27	25.5
2510.18	23
2511.09	23
2511.99	27
2512.9	25.5
2513.81	24
2514.72	23
2515.62	25.5
2516.53	25
2517.44	26.5
2518.34	23
2519.25	27.5
2520.16	26
2521.06	22
2521.97	21.5
2522.88	26.5
2523.78	25
2524.69	23.5
2525.6	23
2526.5	25
2527.41	24
2528.31	23.5
2529.22	24.5
2530.12	25.5
2531.03	21.5
2531.93	26
2532.84	24.5
2533.74	26.5
2534.65	22.5
2535.55	23
2536.46	24
2537.36	26.5
2538.27	19
2539.17	22
2540.07	24.5
2540.98	23
2541.88	22.5
2542.78	23.5
2543.69	22
2544.59	22.5
2545.49	24
2546.4	22
2547.3	22
2548.2	29
2549.1	21
2550.01	23.5
2550.91	22.5
2551.81	19
2552.71	24.5
2553.61	25.5
2554.52	24
2555.42	22.5
2556.32	27
2557.22	19
2558.12	21.5
2559.02	25
2559.92	24
2560.82	25
2561.72	27.5
2562.62	21
2563.53	22
2564.43	24.5
2565.33	23.5
2566.23	19
2567.13	25
2568.03	23
2568.92	25
2569.82	19
2570.72	24.5
2571.62	25
2572.52	24
2573.42	20.5
2574.32	25.5
2575.22	26.5
2576.12	24.5
2577.02	22
2577.91	24
2578.81	27
2579.71	25.5
2580.61	23
2581.5	23.5
2582.4	22
2583.3	21.5
2584.2	24
2585.09	26
2585.99	27.5
2586.89	23.5
2587.78	24
2588.68	20
2589.58	18
2590.47	25.5
2591.37	23
2592.27	26
2593.16	24
2594.06	26.5
2594.95	26
2595.85	24
2596.75	25
2597.64	24.5
2598.54	24.5
2599.43	24
2600.33	24.5
2601.22	24.5
2602.12	22
2603.01	21
2603.9	25
2604.8	24.5
2605.69	25.5
2606.59	25.5
2607.48	23.5
2608.37	25
2609.27	23
2610.16	27
2611.05	24.5
2611.95	23.5
2612.84	21
2613.73	20
2614.63	23.5
2615.52	25
2616.41	21
2617.3	27
2618.2	22.5
2619.09	20.5
2619.98	26.5
2620.87	23
2621.76	21
2622.66	23.5
2623.55	24.5
2624.44	20
2625.33	19.5
2626.22	27.5
2627.11	26
2628	25.5
2628.9	23.5
2629.79	26.5
2630.68	25.5
2631.57	24
2632.46	25.5
2633.35	26.5
2634.24	22.5
2635.13	23
2636.02	26
2636.91	25.5
2637.8	21
2638.68	24.5
2639.57	23
2640.46	22.5
2641.35	25
2642.24	22
2643.13	24
2644.02	23.5
2644.91	24.5
2645.79	22
2646.68	22.5
2647.57	23
2648.46	22.5
2649.35	22
2650.23	26
2651.12	23.5
2652.01	22
2652.9	23
2653.78	25.5
2654.67	22.5
2655.56	25.5
2656.44	23.5
2657.33	29.5
2658.22	25.5
2659.1	26
2659.99	24.5
2660.88	20
2661.76	26.5
2662.65	24.5
2663.53	24
2664.42	23.5
2665.3	24.5
2666.19	24.5
2667.07	23
2667.96	24
2668.84	19
2669.73	24
2670.61	23
2671.5	20
2672.38	25
2673.27	24
2674.15	22
2675.04	25.5
2675.92	26
2676.8	23.5
2677.69	24
2678.57	20.5
2679.45	26.5
2680.34	24
2681.22	29
2682.1	22.5
2682.99	25
2683.87	25.5
2684.75	21
2685.63	25
2686.52	24
2687.4	24
2688.28	24
2689.16	23.5
2690.04	26
2690.93	23.5
2691.81	23
2692.69	28
2693.57	21.5
2694.45	20
2695.33	22
2696.21	21
2697.09	20.5
2697.97	23.5
2698.85	23
2699.74	23.5
2700.62	21
2701.5	23.5
2702.38	22
2703.26	24.5
2704.14	25.5
2705.02	27
2705.89	25
2706.77	24
2707.65	26
2708.53	24.5
2709.41	22.5
2710.29	23
2711.17	23
2712.05	23
2712.93	26
2713.8	24
2714.68	26.5
2715.56	23.5
2716.44	23
2717.32	23
2718.19	28
2719.07	27
2719.95	22.5
2720.83	22
2721.7	21.5
2722.58	23
2723.46	25.5
2724.33	24
2725.21	23.5
2726.09	24.5
2726.97	26
2727.84	26
2728.72	24
2729.59	22.5
2730.47	24
2731.35	26
2732.22	24
2733.1	23.5
2733.97	26
2734.85	23.5
2735.72	22
2736.6	26
2737.47	25
2738.35	24.5
2739.22	22
2740.1	24
2740.97	24
2741.84	26
2742.72	22
2743.59	27.5
2744.47	22
2745.34	23
2746.21	21.5
2747.09	23
2747.96	24.5
2748.83	21.5
2749.71	22.5
2750.58	27.5
2751.45	23.5
2752.33	24.5
2753.2	22.5
2754.07	25.5
2754.94	24.5
2755.82	23.5
2756.69	21.5
2757.56	21
2758.43	22
2759.3	22
2760.18	25.5
2761.05	25
2761.92	21.5
2762.79	20
2763.66	25.5
2764.53	24.5
2765.4	25
2766.27	24.5
2767.14	21.5
2768.01	25.5
2768.88	26
2769.75	27
2770.62	24
2771.49	24
2772.36	21.5
2773.23	26.5
2774.1	22
2774.97	23
2775.84	24.5
2776.71	24.5
2777.58	27
2778.45	24
2779.32	23
2780.19	24.5
2781.06	22
2781.92	21
2782.79	25.5
2783.66	26.5
2784.53	26
2785.4	23.5
2786.26	24.5
2787.13	24
2788	23.5
2788.87	27.5
2789.73	27.5
2790.6	24
2791.47	24.5
2792.34	26
2793.2	24
2794.07	25.5
2794.94	27
2795.8	23
2796.67	21.5
2797.53	22.5
2798.4	26
2799.27	25
2800.13	26.5
2801	27.5
2801.86	28.5
2802.73	25.5
2803.59	25
2804.46	28
2805.32	26
2806.19	23
2807.05	26
2807.92	25.5
2808.78	25.5
2809.65	27.5
2810.51	25
2811.38	27.5
2812.24	23
2813.1	24
2813.97	24.5
2814.83	25
2815.7	26.5
2816.56	27
2817.42	26.5
2818.29	22
2819.15	27
2820.01	26.5
2820.87	24.5
2821.74	27.5
2822.6	26.5
2823.46	24.5
2824.32	24
2825.19	24
2826.05	26.5
2826.91	29
2827.77	27
2828.63	25.5
2829.5	29
2830.36	24.5
2831.22	27.5
2832.08	25
2832.94	23.5
2833.8	27
2834.66	28
2835.52	24
2836.38	29.5
2837.24	27.5
2838.1	22
2838.96	22.5
2839.82	23
2840.68	23
2841.54	22.5
2842.4	28
2843.26	28.5
2844.12	25
2844.98	26
2845.84	23.5
2846.7	27
2847.56	26
2848.42	27.5
2849.28	26.5
2850.14	25.5
2850.99	26.5
2851.85	28
2852.71	21.5
2853.57	26.5
2854.43	25
2855.28	23.5
2856.14	29.5
2857	23
2857.86	28.5
2858.71	23
2859.57	26
2860.43	31.5
2861.28	22
2862.14	26
2863	24
2863.86	26.5
2864.71	24
2865.57	31.5
2866.42	26
2867.28	26.5
2868.14	25
2868.99	27
2869.85	28
2870.7	27
2871.56	27.5
2872.41	27.5
2873.27	27
2874.13	32
2874.98	29
2875.83	29.5
2876.69	27
2877.54	26.5
2878.4	30.5
2879.25	28.5
2880.11	33
2880.96	27.5
2881.81	28.5
2882.67	33
2883.52	33
2884.38	30.5
2885.23	35.5
2886.08	34
2886.94	31.5
2887.79	38.5
2888.64	29.5
2889.5	37.5
2890.35	37
2891.2	42.5
2892.05	39.5
2892.91	41
2893.76	37.5
2894.61	42
2895.46	47
2896.31	47
2897.17	50
2898.02	49.5
2898.87	51.5
2899.72	55.5
2900.57	60
2901.42	59
2902.27	67
2903.12	65
2903.98	66
2904.83	63
2905.68	67
2906.53	72
2907.38	70
2908.23	73
2909.08	62.5
2909.93	62.5
2910.78	59
2911.63	55
2912.48	54.5
2913.33	57
2914.18	49.5
2915.02	49.5
2915.87	45
2916.72	44.5
2917.57	41
2918.42	39
2919.27	37
2920.12	36.5
2920.97	35.5
2921.81	34.5
2922.66	34.5
2923.51	34.5
2924.36	28.5
2925.21	33
2926.05	35
2926.9	28.5
2927.75	30.5
2928.59	29
2929.44	28
2930.29	27.5
2931.14	28.5
2931.98	32
2932.83	34
2933.68	32.5
2934.52	29
2935.37	31.5
2936.21	26
2937.06	28.5
2937.91	27.5
2938.75	29
2939.6	27
2940.44	24.5
2941.29	32
2942.14	26
2942.98	28
2943.82	26
2944.67	25
2945.51	23.5
2946.36	31.5
2947.2	31
2948.05	32.5
2948.89	31
2949.74	33.5
2950.58	27.5
2951.43	32.5
2952.27	32.5
2953.11	31
2953.96	34.5
2954.8	31.5
2955.64	33.5
2956.49	29
2957.33	31
2958.17	36
2959.02	39
2959.86	38.5
2960.7	37.5
2961.54	36
2962.39	41
2963.23	44.5
2964.07	46
2964.91	44
2965.75	45
2966.6	40.5
2967.44	43
2968.28	39
2969.12	41
2969.96	42
2970.8	42
2971.64	34.4927
2972.48	33.9436
2973.33	37.5954
2974.17	36.3974
2975.01	35.5348
2975.85	32.9617
2976.69	31.6198
2977.53	28.4005
2978.37	29.64
2979.21	27.3578
2980.05	27.6987
2980.89	32.6015
2981.73	29.1214
2982.57	28.3514
2983.41	27.5635
2984.25	24.4218
2985.08	23.4223
2985.92	27.009
2986.76	25.9015
2987.6	24.3738
2988.44	25.8839
2989.28	26.6198
2990.12	29.2928
2990.96	23.9476
2991.79	27.6166
2992.63	27.4841
2993.47	23.1626
2994.31	26.8465
2995.14	24.449
2995.98	27.3376
2996.82	22.7849
2997.66	22.716
2998.49	24.9178
2999.33	26.5276
3000.17	23.1748
3001	24.1769
3001.84	23.1042
3002.68	22.4946
3003.51	22.4909
3004.35	21.3835
3005.19	23.517
3006.02	22.891
3006.86	22.5143
3007.7	26.1214
3008.53	23.2668
3009.37	23.0607
3010.2	24.209
3011.04	20.5383
3011.87	20.8234
3012.71	24.2572
3013.54	22.7332
3014.38	24.2111
3015.21	22.3597
3016.05	20.4806
3016.88	21.2433
3017.72	23.5064
3018.55	23.2753
3019.39	24.5126
3020.22	23.8715
3021.05	20.5673
3021.89	22.8789
3022.72	22.2265
3023.55	23.1285
3024.39	22.4519
3025.22	21.8083
3026.05	22.0556
3026.89	23.6054
3027.72	23.1723
3028.55	22.06
3029.39	25.6079
3030.22	23.8425
3031.05	24.1358
3031.88	23.1484
3032.72	22.5089
3033.55	22.5079
3034.38	22.3434
3035.21	25.3422
3036.04	22.7165
3036.88	21.4399
3037.71	23.4615
3038.54	23.3792
3039.37	23.9905
3040.2	24.7814
3041.03	21.2705
3041.86	20.8954
3042.69	23.5031
3043.52	23.2537
3044.36	22.0606
3045.19	23.4857
3046.02	21.7142
3046.85	21.622
3047.68	21.9223
3048.51	22.8129
3049.34	24.1735
3050.17	23.1055
3051	25.1871
3051.83	24.3738
3052.66	25.1014
3053.48	25.4293
3054.31	23.7877
3055.14	23.5275
3055.97	23.3481
3056.8	22.2452
3057.29	24
3058.12	21
3058.95	26.5
3059.79	21
3060.62	25.5
3061.45	19.5
3062.29	23.5
3063.12	21.5
3063.95	26.5
3064.78	22.5
3065.62	20.5
3066.45	22.5
3067.28	24
3068.11	22
3068.94	21
3069.77	24.5
3070.61	21
3071.44	26
3072.27	22.5
3073.1	23
3073.93	23.5
3074.76	24
3075.59	25.5
3076.42	23.5
3077.25	22
3078.08	21
3078.92	21.5
3079.74	23.5
3080.57	23.5
3081.41	24
3082.24	25
3083.06	21
3083.89	23.5
3084.72	20
3085.55	24.5
3086.38	22
3087.21	20.5
3088.04	24
3088.87	24.5
3089.7	22.5
3090.53	24
3091.36	20.5
3092.18	20.5
3093.01	24
3093.84	20.5
3094.67	23.5
3095.5	24
3096.32	24.5
3097.15	26
3097.98	21
3098.81	25.5
3099.64	22.5
3100.46	21.5
3101.29	23
3102.12	23
3102.94	26
3103.77	21
3104.6	24
3105.42	22
3106.25	25
3107.08	24.5
3107.9	23
3108.73	22
3109.56	22
3110.38	22.5
3111.21	21.5
3112.03	22
3112.86	24
3113.68	28
3114.51	23
3115.33	23
3116.16	24
3116.98	22
3117.81	22.5
3118.63	28.5
3119.46	24.5
3120.28	18.5
3121.11	20
3121.93	18
3122.76	26
3123.58	23.5
3124.4	24.5
3125.23	23
3126.05	22
3126.87	24
3127.7	21
3128.52	23.5
3129.34	24
3130.17	21
3130.99	25
3131.81	22
3132.64	24
3133.46	23
3134.28	20.5
3135.1	24
3135.93	26.5
3136.75	22.5
3137.57	24
3138.39	21.5
3139.21	22
3140.04	23
3140.86	23.5
3141.68	24.5
3142.5	24.5
3143.32	24
3144.14	24
3144.96	24
3145.78	22.5
3146.61	24
3147.43	20
3148.25	25
3149.07	23
3149.89	21
3150.71	26
3151.53	24.5
3152.35	21.5
3153.17	21.5
3153.99	23
3154.81	25.5
3155.63	21
3156.45	24.5
3157.27	20
3158.08	27
3158.9	23
3159.72	20.5
3160.54	25.5
3161.36	23
3162.18	19.5
3163	26.5
3163.82	25
3164.63	23.5
3165.45	20
3166.27	24
3167.09	26
3167.91	22
3168.72	22.5
3169.54	23
3170.36	23.5
3171.18	22.5
3171.99	24.5
3172.81	23
3173.63	27
3174.44	24
3175.26	23
3176.08	21.5
3176.89	19.5
3177.71	25.5
3178.53	23.5
3179.34	23.5
3180.16	19
3180.97	22.5
3181.79	28
3182.61	24
3183.42	20
3184.24	26
3185.05	22
3185.87	23
3186.68	21.5
3187.5	23.5
3188.31	23
3189.13	21.5
3189.94	22
3190.76	22.5
3191.57	21
3192.39	25
3193.2	24.5
3194.02	24.5
3194.83	22
3195.64	22.5
3196.46	22
3197.27	24
3198.08	25
3198.9	22
3199.71	23
3200.52	20.5
3201.34	24.5
3202.15	21
3202.96	22.5
3203.78	22.5
3204.59	23.5
3205.4	22
3206.21	23.5
3207.03	21.5
3207.84	21
3208.65	24.5
3209.46	24
3210.27	22.5
3211.09	22
3211.9	23
3212.71	25.5
3213.52	23
3214.33	23
3215.14	24
3215.95	20
3216.77	22.5
3217.58	22
3218.39	23
3219.2	22.5
3220.01	20
3220.82	22
3221.63	23
3222.44	19
3223.25	22.5
3224.06	22
3224.87	23
3225.68	23.5
3226.49	23
3227.3	21.5
3228.11	23
3228.92	26.5
3229.73	27.5
3230.53	26.5
3231.34	24
3232.15	20.5
3232.96	25.5
3233.77	25
3234.58	27.5
3235.39	24
3236.19	24.5
3237	26.5
3237.81	20.5
3238.62	23.5
3239.43	25.5
3240.23	21.5
3241.04	23
3241.85	21
3242.66	23
3243.46	21
3244.27	26
3245.08	22
3245.89	22
3246.69	25
3247.5	24.5
3248.31	24
3249.11	22.5
3249.92	24
3250.72	22
3251.53	25
3252.34	23
3253.14	23.5
3253.95	22
3254.75	20.5
3255.56	21
3256.36	25.5
3257.17	22
3257.98	26.5
3258.78	25.5
3259.59	18.5
3260.39	22
3261.19	24.5
3262	22
3262.8	21.5
3263.61	24.5
3264.41	23
3265.22	26.5
3266.02	22
3266.83	23.5
3267.63	20.5
3268.43	20
3269.24	22
3270.04	22.5
3270.84	22
3271.65	24.5
3272.45	21
3273.25	24.5
3274.06	26
3274.86	22.5
3275.66	23.5
3276.46	24
3277.27	24
3278.07	26
3278.87	22
3279.67	22
3280.48	22.5
3281.28	20
3282.08	23.5
3282.88	19.5
3283.68	23
3284.48	19
3285.29	22.5
3286.09	24
3286.89	22.5
3287.69	20.5
3288.49	26
3289.29	20.5
3290.09	23.5
3290.89	22.5
3291.69	24.5
3292.49	24.5
3293.29	25
3294.09	21
3294.89	26
3295.69	23
3296.49	24.5
3297.29	23
3298.09	28.5
3298.89	22
3299.69	25
3300.49	22
3301.29	23.5
3302.09	26
3302.89	21
3303.69	24
3304.49	23.5
3305.28	24.5
3306.08	21
3306.88	23.5
3307.68	22
3308.48	26
3309.28	20
3310.07	22.5
3310.87	24.5
3311.67	22
3312.47	21.5
3313.26	21.5
3314.06	22
3314.86	24
3315.66	27
3316.45	24.5
3317.25	21
3318.05	21.5
3318.84	25
3319.64	22
3320.44	25.5
3321.23	25
3322.03	26.5
3322.83	23.5
3323.62	25
3324.42	23.5
3325.21	22.5
3326.01	21.5
3326.81	20.5
3327.6	19
3328.4	24
3329.19	24.5
3329.99	25.5
3330.78	22
3331.58	24
3332.37	22
3333.17	21
3333.96	25
3334.76	22.5
3335.55	20
3336.34	21
3337.14	25.5
3337.93	22
3338.73	27
3339.52	24.5
3340.31	21
3341.11	24
3341.9	23
3342.69	27.5
3343.49	21
3344.28	24
3345.07	22
3345.87	23.5
3346.66	25
3347.45	23.5
3348.25	24
3349.04	28.5
3349.83	21.5
3350.62	22
3351.42	26
3352.21	22
3353	21
3353.79	24.5
3354.58	22.5
3355.37	24.5
3356.17	21
3356.96	21.5
3357.75	22
3358.54	23
3359.33	23
3360.12	22
3360.91	26
3361.7	21
3362.49	21
3363.29	24
3364.08	25.5
3364.87	23.5
3365.66	23
3366.45	20
3367.24	23.5
3368.03	25
3368.82	21.5
3369.61	20.5
3370.4	24.5
3371.19	23
3371.97	26
3372.76	20
3373.55	21
3374.34	22
3375.13	23.5
3375.92	23
3376.71	21
3377.5	25
3378.29	25.5
3379.07	22
3379.86	23
3380.65	25
3381.44	27
3382.23	23
3383.01	27
3383.8	18
3384.59	26
3385.38	21.5
3386.16	22.5
3386.95	24
3387.74	24
3388.53	24
3389.31	24.5
3390.1	27.5
3390.89	22
3391.67	24.5
3392.46	24
3393.25	25.5
3394.03	20
3394.82	23
3395.6	24.5
3396.39	21.5
3397.18	21
3397.96	20
3398.75	23.5
3399.53	21
3400.32	23.5
3401.1	26.5
3401.89	22.5
3402.67	25.5
3403.46	21
3404.24	27
3405.03	18.5
3405.81	21.5
3406.6	26
3407.38	26
3408.17	21
3408.95	25
3409.74	25
3410.52	27
3411.3	23.5
3412.09	22
3412.87	20
3413.65	22.5
3414.44	23
3415.22	25
3416	26
3416.79	23.5
3417.57	21
3418.35	26
3419.14	22
3419.92	26
3420.7	23.5
3421.48	24.5
3422.27	23
3423.05	23
3423.83	23
3424.61	26
3425.4	21
3426.18	22
3426.96	24
3427.74	23.5
3428.52	23
3429.3	22
3430.08	22.5
3430.87	19.5
3431.65	25.5
3432.43	22.5
3433.21	24.5
3433.99	22
3434.77	22
3435.55	25
3436.33	22
3437.11	22
3437.89	23
3438.67	22
3439.45	21
3440.23	21
3441.01	25
3441.79	23
3442.57	23
3443.35	23.5
3444.13	24
3444.91	25
3445.69	22.5
3446.47	22
3447.25	26
3448.03	28.5
3448.8	24
3449.58	25
3450.36	19.5
3451.14	23.5
3451.92	21
3452.7	23
3453.47	20
3454.25	31
3455.03	22
3455.81	23
3456.59	21.5
3457.36	25.5
3458.14	23
3458.92	24
3459.69	22.5
3460.47	24
3461.25	26
3462.03	24
3462.8	22.5
3463.58	20.5
3464.36	24
3465.13	21
3465.91	21
3466.69	23.5
3467.46	24
3468.24	24
3469.01	23
3469.79	21
3470.57	23
3471.34	24
3472.12	19.5
3472.89	23.5
3473.67	23.5
3474.44	25.5
3475.22	22
3475.99	19.5
3476.77	25
3477.54	23.5
3478.32	20
3479.09	27
3479.87	25.5
3480.64	21.5
3481.41	22
3482.19	24
3482.96	22
3483.74	24.5
3484.51	21.5
3485.28	23
3486.06	25
3486.83	24.5
3487.6	26
3488.38	23
3489.15	21
3489.92	23.5
3490.7	24
3491.47	23
3492.24	23.5
3493.01	22
3493.79	22.5
3494.56	23
3495.33	21.5
3496.1	28
3496.88	19
3497.65	21.5
3498.42	25
3499.19	24
3499.96	19.5
