#Acq. time (s)=	5
#Accumulations=	5
#Range (cm-¹)=	100...3500
#Windows=	4
#Autofocus=	Off
#AutoExposure=	Off
#Spike filter=	Multiple accum.
#Delay time (s)=	0
#Binning=	1
#Readout mode=	Signal
#DeNoise=	Off
#ICS correction=	Off
#Dark correction=	Off
#Inst. Process=	Off
#Instrument=	LabRAM HR Evol
#Detector=	Syncerity OE
#Objective=	x100_VIS
#Grating=	600 (500nm)
#ND Filter=	25%
#Laser=	633nm_Edge
#Hole=	100.021
#Range=	Visible
#Project=	verificaciones
#Sample=	at1
#Site=	plain
#Title=	bolusat1plain
#Remark=	com
#Date=	16.01.2026 16:07
#Acquired=	16.01.2026 16:07:25
100.564	30.5
101.847	34
103.131	32.5
104.414	34
105.697	32
106.979	36
108.262	25
109.544	30
110.826	28
112.109	32
113.391	29.5
114.672	28
115.954	29.5
117.235	37
118.515	36
119.796	30.5
121.076	31.5
122.357	31
123.637	33.5
124.916	31
126.196	37
127.475	33.5
128.754	33.5
130.033	33
131.31	30
132.589	34
133.867	36
135.145	31.5
136.423	36
137.701	39
138.978	33
140.256	33
141.533	38.5
142.809	32
144.086	38
145.361	38
146.637	36.5
147.913	40
149.189	37.5
150.464	39.5
151.74	42.5
153.014	37
154.288	39
155.563	43
156.838	44
158.112	36.5
159.385	39.5
160.659	39
161.932	41.5
163.206	41.5
164.479	39
165.751	39
167.024	39.5
168.296	40.5
169.567	37
170.84	41.5
172.112	35.5
173.383	39.5
174.654	39.5
175.925	38
177.196	40
178.466	40
179.737	39
181.007	40.5
182.276	40
183.546	41.5
184.816	42.5
186.085	45.5
187.354	36
188.624	43
189.891	37.5
191.16	40.5
192.427	41.5
193.696	36.5
194.964	40
196.231	39
197.499	39.5
198.765	43.5
200.033	41.5
201.298	38.5
202.566	40
203.831	38.5
205.098	35.5
206.363	37.5
207.629	35.5
208.894	39
210.159	38
211.424	36
212.689	36
213.953	37
215.218	31.5
216.481	30
217.746	33.5
219.009	35.5
220.273	34
221.536	31
222.798	33.5
224.062	34.5
225.323	31.5
226.587	32
227.848	30
229.109	33.5
230.372	33.5
231.633	32
232.894	30
234.156	30.5
235.416	32
236.678	29
237.937	32
239.197	30
240.457	30
241.717	27
242.976	31
244.235	32
245.495	29.5
246.754	28
248.012	32
249.27	29
250.529	31
251.787	31
253.045	31
254.302	30
255.56	30
256.817	30
258.074	33
259.33	34
260.586	28
261.844	30
263.1	25
264.355	30
265.611	29.5
266.866	33
268.121	32
269.377	32.5
270.632	29.5
271.886	24
273.14	26.5
274.394	27.5
275.648	25
276.902	26
278.155	27
279.408	28
280.663	31
281.915	30.5
283.168	28
284.42	30.5
285.673	31
286.925	30.5
288.176	25.5
289.428	30
290.679	29
291.93	29
293.181	27.5
294.432	27.5
295.683	29
296.933	29.5
298.183	27
299.433	31
300.683	28
301.932	26
303.182	29.5
304.429	32
305.678	32.5
306.927	30.5
308.176	26.5
309.424	29
310.672	29
311.92	28.5
313.168	23.5
314.415	30
315.661	26
316.908	27.5
318.155	31.5
319.402	30
320.648	28
321.895	27
323.139	25
324.385	26
325.631	27.5
326.877	28
328.122	28
329.366	30.5
330.611	27.5
331.855	25
333.1	31
334.343	30.5
335.587	31
336.831	30.5
338.074	29.5
339.317	28
340.56	29
341.803	26
343.044	28
344.287	29
345.53	28
346.771	27
348.013	25.5
349.255	30
350.495	29.5
351.736	30
352.978	28
354.217	32.5
355.458	29.5
356.699	30.5
357.938	29.5
359.178	32.5
360.417	27.5
361.657	26
362.895	29.5
364.135	30
365.374	26.5
366.612	25.5
367.851	28
369.088	24
370.327	30
371.564	25
372.802	30
374.038	27.5
375.276	28
376.512	27
377.749	25
378.985	27.5
380.222	30.5
381.457	27.5
382.692	27.5
383.929	25.5
385.164	30
386.4	31
387.634	26.5
388.869	26.5
390.103	28
391.337	26.5
392.572	25.5
393.805	27.5
395.038	30.5
396.273	25
397.506	30
398.74	31
399.972	25
401.204	30
402.437	30
403.669	29.5
404.901	27
406.132	31.5
407.365	29
408.596	25
409.826	26
411.058	29.5
412.289	25
413.519	25.5
414.749	27
415.98	29
417.21	30.5
418.439	27
419.668	29
420.897	29
422.128	29
423.356	29.5
424.585	28
425.813	27
427.041	28
428.269	23
429.498	26
430.725	23.5
431.952	29
433.179	25
434.406	31.5
435.633	31.5
436.859	26
438.085	28
439.312	29
440.537	28
441.764	28
442.99	28
444.215	29
445.44	25.5
446.665	34
447.89	31
449.114	28.5
450.339	32.5
451.563	31
452.787	29.5
454.01	30
455.234	30
456.457	31.5
457.68	28
458.903	28
460.126	30
461.348	31
462.569	30
463.792	28
465.013	30.5
466.235	31.5
467.457	33.5
468.678	31.5
469.899	35
471.12	36.5
472.341	39
473.56	39.5
474.781	35
476.001	39
477.221	42
478.441	46
479.66	46.5
480.878	51
482.098	46.5
483.317	55
484.535	54
485.754	51
486.971	53.5
488.189	56
489.407	61
490.625	58
491.842	57.5
493.059	53
494.276	55
495.493	49.5
496.709	48
497.926	47.5
499.142	44
500.357	46
501.573	37
502.789	39
504.003	40
505.219	44.5
506.434	41.5
507.648	41
508.863	36
510.078	32.5
511.291	35.5
512.505	35
513.718	33
514.932	32
516.145	34
517.358	37
518.572	32.5
519.783	33
520.997	31.5
522.208	33.5
523.421	31
524.632	36
525.844	33
527.055	27.5
528.266	30.5
529.477	32
530.688	26
531.898	38.5
533.109	33
534.319	27
535.53	29.5
536.739	28.5
537.948	33
539.158	26.5
540.366	30.5
541.576	28
542.784	26
543.994	28.5
545.201	30.5
546.409	26
547.618	30.5
548.825	29
550.032	29.5
551.24	34.5
552.447	31
553.654	29.5
554.861	30
556.067	29
557.273	29
558.48	29.5
559.686	32
560.891	27.5
562.096	28
563.302	29
564.507	30
565.712	25
566.916	27
568.122	29
569.326	30
570.529	28
571.733	29
572.936	28
574.141	28
575.344	28.5
576.547	28.5
577.75	28
578.952	28
580.154	28
581.358	33
582.56	23
583.761	27
584.963	30.5
586.164	28
587.365	30.5
588.566	27
589.767	30
590.967	29.5
592.168	32.5
593.369	29
594.569	22
595.769	28
596.969	25.5
598.168	29.5
599.367	30.5
600.566	33
601.765	28.5
602.964	27
604.162	29
605.361	30.5
606.559	25
607.757	27.5
608.953	30.5
610.151	29.5
611.348	27.5
612.545	25.5
613.742	30
614.939	30.5
616.135	28
617.332	29
618.528	30
619.724	26.5
620.918	30.5
622.114	29
623.309	30.5
624.505	26
625.7	25.5
626.895	29
628.088	30.5
629.282	31
630.477	30
631.671	26
632.865	30
634.057	28
635.251	33
636.444	29
637.637	27.5
638.829	31.5
640.022	27
641.214	34.5
642.407	31
643.598	28
644.79	32.5
645.982	28
647.172	29.5
648.364	28
649.555	31
650.745	27.5
651.936	27.5
653.126	29.5
654.315	32.5
655.506	29.5
656.696	31.5
657.885	28
659.074	31.5
660.263	26
661.452	30
662.64	28.5
663.829	29
665.018	33.5
666.205	33.5
667.394	30
668.581	35
669.769	28
670.955	32
672.143	33
673.329	30.5
674.517	32
675.703	32
676.89	31.5
678.075	31
679.262	35
680.447	32
681.632	35
682.818	35.5
684.002	37.5
685.188	38
686.372	32.5
687.556	33
688.741	31
689.925	32
691.11	38
692.293	33.5
693.476	35.5
694.66	36.5
695.843	31.5
697.025	34
698.209	33.5
699.391	36.5
700.573	40
701.756	40
702.938	39.5
704.119	40
705.3	47
706.483	49.5
707.664	53
708.844	51.5
710.025	50
711.206	49.5
712.386	42.5
713.566	41
714.746	37
715.925	35.5
717.106	36
718.285	34.5
719.464	30
720.643	33.5
721.822	32
723	34.5
724.178	30
725.358	32
726.536	26.5
727.713	28
728.891	28.5
730.068	30
731.245	31.5
732.422	27
733.599	26.5
734.775	27.5
735.952	34
737.128	28.5
738.304	25
739.48	29
740.656	28
741.831	28.5
743.006	32
744.181	26
745.356	30
746.531	32.5
747.706	28
748.88	28
750.054	26
751.228	29
752.402	28.5
753.576	28.5
754.749	30.5
755.922	32
757.095	26.5
758.267	28
759.44	30.5
760.612	28
761.785	27
762.957	28
764.129	25
765.301	31.5
766.471	29
767.642	24.5
768.814	27.5
769.985	29
771.156	27.5
772.325	28.5
773.495	30
774.666	31.5
775.836	26
777.005	27
778.174	30
779.344	31
780.513	28
781.681	29
782.85	32.5
784.019	31.5
785.187	34
786.355	30
787.523	33
788.69	35
789.858	33
791.026	32
792.192	28
793.36	30
794.526	26.5
795.693	25.5
796.86	31
798.025	30.5
799.191	26
800.356	27
801.523	26
802.689	29.5
803.853	29
805.019	29
806.183	32
807.348	27
808.512	23
809.677	28.5
810.84	28
812.005	28
813.167	30.5
814.332	33.5
815.494	30.5
816.657	29.5
817.82	27
818.982	30
820.146	22.5
821.307	27.5
822.47	29.5
823.632	25.5
824.793	31
825.955	30
827.116	28
828.277	23
829.439	31
830.599	27
831.759	27.5
832.92	28
834.08	27.5
835.24	27
836.4	30
837.56	26
838.719	27
839.877	30
841.037	29.5
842.196	27.5
843.354	28
844.512	28
845.672	26.5
846.83	28.5
847.987	28
849.145	31.5
850.302	31
851.46	29
852.617	31
853.774	24
854.93	30
856.087	28.5
857.243	26.5
858.4	27
859.556	31
860.712	29
861.867	28.5
863.022	32
864.177	34
865.332	24
866.487	26
867.642	32.5
868.796	30
869.95	29
871.104	28
872.258	30
873.412	31
874.565	32
875.718	25.5
876.872	26
878.024	26.5
879.177	35
880.33	29.5
881.482	32
882.635	27.5
883.787	31
884.938	28.5
886.09	28
887.242	27.5
888.393	22
889.544	29
890.695	24.5
891.845	25.5
892.995	27.5
894.146	27
895.296	27
896.446	26.5
897.596	27
898.744	31
899.894	27.5
901.043	25
902.193	28.5
903.342	26.5
904.489	27
905.638	27
906.786	27
907.935	29.5
909.081	24.5
910.229	29.5
911.377	24.5
912.525	28
913.671	27
914.818	23
915.965	26.5
917.111	25
918.258	27.5
919.404	25
920.549	22
921.695	23
922.84	23.5
923.986	28.5
925.132	32
926.276	27
927.421	24.5
928.565	26.5
929.71	24
930.855	28.5
931.998	28.5
933.142	25
934.285	22
935.429	27
936.572	27.5
937.716	31
938.858	25
940.001	27.5
941.143	28
942.286	28.5
943.428	24.5
944.57	28.5
945.712	26.5
946.854	25.5
947.995	27.5
949.135	29
950.277	26
951.418	25.5
952.559	27.5
953.699	23
954.839	23.5
955.98	26.5
957.119	26
958.258	26.5
959.399	25
960.538	22.5
961.676	30.5
962.816	24.5
963.955	23
965.093	28
966.232	27
967.37	31
968.508	26.5
969.645	25
970.784	25.5
971.921	25.5
973.058	28
974.195	28
975.333	25.5
976.469	26
977.605	24
978.741	25
979.877	21.5
981.013	23
982.15	30.5
983.285	26.5
984.421	26.5
985.556	26
986.691	27
987.825	27
988.96	26
990.094	31
991.228	28
992.364	27.5
993.497	26
994.631	26.5
995.765	26
996.898	24.5
998.031	24
999.164	23
1000.3	25.5
1001.43	28
1002.56	24
1003.69	26.5
1004.83	25.5
1005.96	29
1007.09	29
1008.22	31.5
1009.35	27.5
1010.48	24.5
1011.61	26
1012.74	26
1013.88	25.5
1015.01	24
1016.14	27.5
1017.27	29
1018.4	26
1019.53	25
1020.65	23
1021.78	25
1022.91	27
1024.04	29
1025.17	25.5
1026.3	29
1027.43	24
1028.56	23.5
1029.68	27.5
1030.81	23
1031.94	23.5
1033.07	27.5
1034.19	25
1035.32	25
1036.45	26
1037.58	27.5
1038.7	25
1039.83	26
1040.95	28
1042.08	30
1043.21	30.5
1044.33	29
1045.46	26
1046.58	23.5
1047.71	24.5
1048.83	24
1049.96	25
1051.08	28.5
1052.21	24.5
1053.33	28.5
1054.45	27
1055.58	23
1056.7	29.5
1057.82	31.5
1058.95	26.5
1060.07	21
1061.19	25
1062.32	26
1063.44	29
1064.56	27
1065.68	25
1066.81	25.5
1067.93	25.5
1069.05	28
1070.17	25
1071.29	27.5
1072.41	25
1073.53	23.5
1074.65	28
1075.77	27
1076.89	24
1078.01	25
1079.13	27.5
1080.25	27.5
1081.37	27
1082.49	24.5
1083.61	26
1084.73	27.5
1085.85	25
1086.97	29
1088.09	25.5
1089.2	25.5
1090.32	26
1091.44	24.5
1092.56	26
1093.68	23
1094.79	28
1095.91	23
1097.03	22
1098.14	24
1099.26	22
1100.38	23.5
1101.49	23
1102.61	23.5
1103.73	23
1104.84	27
1105.96	24
1107.07	23.5
1108.19	27
1109.3	24
1110.42	26
1111.53	23.5
1112.65	25.5
1113.76	28
1114.88	25
1115.99	27
1117.1	26.5
1118.22	25.5
1119.33	31.5
1120.44	24
1121.56	28.5
1122.67	25
1123.78	22.5
1124.89	26
1126.01	23
1127.12	22
1128.23	21.5
1129.34	25
1130.45	24.5
1131.56	26
1132.67	30
1133.79	28.5
1134.9	24
1136.01	28
1137.12	23
1138.23	29
1139.34	24
1140.45	23
1141.56	27.5
1142.67	27
1143.78	22.5
1144.89	27
1145.99	26
1147.1	26
1148.21	23
1149.32	27.5
1150.43	26
1151.54	26
1152.65	29
1153.75	25
1154.86	26
1155.97	27
1157.08	22.5
1158.18	24.5
1159.29	23.5
1160.4	26
1161.5	25.5
1162.61	22.5
1163.72	29
1164.82	29.5
1165.93	26
1167.03	27
1168.14	29
1169.24	26.5
1170.35	21.5
1171.45	25
1172.56	26
1173.66	26.5
1174.77	26
1175.87	23.5
1176.98	29
1178.08	27
1179.18	25.5
1180.29	25
1181.39	25.5
1182.49	28
1183.6	23.5
1184.7	27
1185.8	26
1186.9	24.5
1188	29.5
1189.11	26.5
1190.21	26.5
1191.31	27
1192.41	19
1193.51	26.5
1194.61	24.5051
1195.72	22.0182
1196.82	26.5398
1197.92	24.0529
1199.02	27.4296
1200.12	24.9943
1201.22	25.8738
1202.32	23.9895
1203.42	26.1775
1204.52	23.0461
1205.62	26.1984
1206.71	23.9913
1207.81	28.2457
1208.91	23.4933
1210.01	23.7095
1211.11	24.4458
1212.21	25.2233
1213.31	24.915
1214.4	25.7266
1215.5	25.6324
1216.6	27.1019
1217.7	25.8618
1218.79	27.8398
1219.89	25.6509
1220.99	23.7605
1222.08	25.5097
1223.18	23.2457
1224.28	24.8654
1225.37	22.0884
1226.47	27.7029
1227.56	25.2039
1228.66	22.7086
1229.76	29.4267
1230.85	25.9695
1231.95	23.0442
1233.04	25.2937
1234.14	24.8003
1235.23	25.7139
1236.32	24.2834
1237.42	26.2322
1238.51	27.1277
1239.61	23.8662
1240.7	23.7044
1241.79	25.598
1242.89	26.0855
1243.98	24.4906
1245.07	24.3006
1246.17	26.3952
1247.26	25.4642
1248.35	25.2014
1249.44	26.3623
1250.53	26.1154
1251.63	25.163
1252.72	28.3965
1253.81	26.4178
1254.9	24.7279
1255.99	22.4303
1257.08	25.6756
1258.17	28.0631
1259.27	24.0015
1260.36	28.0616
1261.45	26.15
1262.54	24.5089
1263.63	27.3496
1264.72	27.5098
1265.81	30.1636
1266.89	25.9996
1267.98	27.2926
1269.07	26.3649
1270.16	27.4986
1271.25	26.5682
1272.34	22.9592
1273.43	22.4389
1274.52	25.9103
1275.6	25.685
1276.69	23.1229
1277.78	22.8958
1278.87	23.3794
1279.95	24.9587
1281.04	23.4696
1282.13	24.9604
1283.22	24.2885
1284.3	26.6636
1285.39	25.9144
1286.48	25.1174
1287.56	26.5645
1288.65	24.2405
1289.73	24.075
1290.82	24.5913
1291.9	23.5653
1292.99	25.1439
1294.07	24.944
1295.16	24.4476
1296.24	23.0762
1297.33	25.7127
1298.41	22.9758
1299.5	23.6064
1300.58	25.5801
1301.66	25.7689
1302.75	22.7633
1303.83	24.2383
1304.91	24.0836
1306	24.6027
1306.4	25.5
1307.48	25
1308.57	27
1309.66	26
1310.75	28
1311.84	25
1312.92	25
1314.01	26.5
1315.1	21.5
1316.18	28
1317.27	24.5
1318.36	24
1319.44	26
1320.53	25
1321.62	23
1322.7	22.5
1323.79	23
1324.87	23.5
1325.96	22.5
1327.04	24.5
1328.13	24
1329.21	25
1330.3	26
1331.38	25.5
1332.47	22.5
1333.55	22.5
1334.64	22.5
1335.72	23.5
1336.8	26.5
1337.89	26.5
1338.97	28
1340.05	26.5
1341.14	24.5
1342.22	31
1343.3	28
1344.38	22
1345.47	27
1346.55	22.5
1347.63	23
1348.71	25
1349.79	24.5
1350.87	27.5
1351.96	23
1353.04	25
1354.12	25
1355.2	29.5
1356.28	27
1357.36	23
1358.44	22.5
1359.52	26
1360.6	27
1361.68	25.5
1362.76	25.5
1363.84	25.5
1364.92	23
1366	25.5
1367.07	24
1368.15	23.5
1369.23	23.5
1370.31	22
1371.39	25.5
1372.47	29
1373.54	29.5
1374.62	24
1375.7	25
1376.78	26.5
1377.85	26
1378.93	23.5
1380.01	22.5
1381.08	28.5
1382.16	25
1383.24	26
1384.31	25
1385.39	29
1386.46	28
1387.54	25
1388.61	29.5
1389.69	23
1390.76	29
1391.84	28
1392.91	24.5
1393.99	27
1395.06	25.5
1396.14	29
1397.21	24.5
1398.29	27.5
1399.36	31
1400.43	30
1401.51	29
1402.58	30
1403.65	29.5
1404.72	31.5
1405.8	28
1406.87	30.5
1407.94	28
1409.02	32.5
1410.09	33.5
1411.16	27
1412.23	32.5
1413.3	33.5
1414.37	34
1415.44	28.5
1416.51	29.5
1417.59	30.5
1418.66	27
1419.73	28.5
1420.8	28
1421.87	29.5
1422.94	30
1424.01	23
1425.08	28
1426.15	30.5
1427.22	28.5
1428.28	29
1429.35	28.5
1430.42	27
1431.49	22
1432.56	25.5
1433.63	29.5
1434.7	25
1435.76	28.5
1436.83	30
1437.9	30
1438.97	21.5
1440.03	26
1441.1	24
1442.17	30
1443.23	28
1444.3	26.5
1445.37	23
1446.43	24.5
1447.5	23
1448.57	26.5
1449.63	23.5
1450.7	23
1451.76	25.5
1452.83	27.5
1453.89	25.5
1454.96	24
1456.02	26
1457.09	26
1458.15	24
1459.22	25
1460.28	24
1461.34	23.5
1462.41	25
1463.47	27.5
1464.53	27
1465.6	26
1466.66	26
1467.72	22
1468.78	25
1469.85	27
1470.91	23.5
1471.97	28
1473.03	26
1474.1	23
1475.16	26
1476.22	24.5
1477.28	25.5
1478.34	28.5
1479.4	27
1480.46	27
1481.52	27.5
1482.58	28.5
1483.65	28.5
1484.71	22.5
1485.77	23
1486.82	27.5
1487.89	28
1488.94	25.5
1490	25
1491.06	28.5
1492.12	28
1493.18	26
1494.24	24.5
1495.3	28.5
1496.36	24
1497.41	26.5
1498.47	26
1499.53	27
1500.59	23
1501.65	27
1502.7	22.5
1503.76	23.5
1504.82	27
1505.87	25.5
1506.93	23.5
1507.99	28
1509.04	25.5
1510.1	23
1511.16	25
1512.21	26
1513.27	30
1514.32	29
1515.38	24
1516.43	21
1517.49	25
1518.54	28.5
1519.6	24.5
1520.65	25.5
1521.71	26
1522.76	23.5
1523.81	22
1524.87	28.5
1525.92	30.5
1526.98	27
1528.03	27.5
1529.08	27
1530.14	27.5
1531.19	28
1532.24	26
1533.29	26.5
1534.35	26.5
1535.4	28.5
1536.45	30
1537.5	23
1538.55	23
1539.61	25.5
1540.66	27.5
1541.71	27.5
1542.76	29.5
1543.81	23.5
1544.86	25.5
1545.91	24.5
1546.96	26.5
1548.01	27.5
1549.06	22.5
1550.11	21
1551.16	27.5
1552.21	21.5
1553.26	27
1554.31	23
1555.36	22
1556.41	27
1557.46	27
1558.5	23
1559.55	27.5
1560.6	26
1561.65	25.5
1562.7	27.5
1563.74	25
1564.79	24
1565.84	28
1566.89	25.5
1567.93	27
1568.98	26
1570.03	23.5
1571.07	25
1572.12	25
1573.17	26
1574.21	24.5
1575.26	27
1576.3	27
1577.35	28.5
1578.4	24
1579.44	25.5
1580.49	25
1581.53	25.5
1582.58	28
1583.62	24
1584.66	30.5
1585.71	29.5
1586.75	25
1587.8	28
1588.84	25
1589.88	24
1590.93	23
1591.97	24.5
1593.01	29
1594.06	27.5
1595.1	24
1596.14	29
1597.18	25.5
1598.23	27
1599.27	22
1600.31	25.5
1601.35	23.5
1602.39	26.5
1603.44	24.5
1604.48	25
1605.52	29
1606.56	24.5
1607.6	25.5
1608.64	27
1609.68	24.5
1610.72	25.5
1611.76	25.5
1612.8	26.5
1613.84	26
1614.88	24.5
1615.92	26.5
1616.96	29
1618	30
1619.04	28
1620.08	26
1621.12	27
1622.16	25
1623.19	27
1624.23	26.5
1625.27	27
1626.31	22
1627.35	22
1628.38	26
1629.42	28
1630.46	24.5
1631.49	21.5
1632.53	26.5
1633.57	26
1634.6	21.5
1635.64	27
1636.68	27
1637.71	24
1638.75	25.5
1639.79	27.5
1640.82	25
1641.86	29
1642.89	25
1643.93	27
1644.96	23
1646	25.5
1647.03	25
1648.07	23
1649.1	26.5
1650.13	26
1651.17	27.5
1652.2	22
1653.24	28
1654.27	27.5
1655.3	26.5
1656.34	28
1657.37	28
1658.4	27
1659.43	28.5
1660.47	28.5
1661.5	25.5
1662.53	28.5
1663.56	28
1664.6	23.5
1665.63	24.5
1666.66	27.5
1667.69	27.5
1668.72	29
1669.75	27
1670.78	23
1671.81	26
1672.85	22.5
1673.88	27.5
1674.91	26.5
1675.94	27
1676.97	26
1678	25.5
1679.03	28.5
1680.06	29.5
1681.09	27
1682.11	27
1683.14	27
1684.17	28.5
1685.2	27
1686.23	24.5
1687.26	24.5
1688.29	25.5
1689.31	26.5
1690.34	23
1691.37	25
1692.4	27
1693.42	22
1694.45	21.5
1695.48	29
1696.51	25.5
1697.53	26
1698.56	21
1699.59	26.5
1700.61	27
1701.64	26
1702.66	26
1703.69	23
1704.72	25
1705.74	25.5
1706.77	19
1707.79	25.5
1708.82	23.5
1709.84	26
1710.87	25
1711.89	26
1712.91	26.5
1713.94	24.5
1714.96	22.5
1715.99	27
1717.01	23.5
1718.03	25
1719.06	27
1720.08	27.5
1721.1	23
1722.13	26.5
1723.15	26.5
1724.17	26.5
1725.19	26.5
1726.22	25
1727.24	27
1728.26	23
1729.28	24
1730.3	24
1731.33	25
1732.35	26
1733.37	26.5
1734.39	25
1735.41	27
1736.43	22
1737.45	24.5
1738.47	27
1739.49	27
1740.51	23
1741.53	22
1742.55	26
1743.57	26.5
1744.59	28
1745.61	27.5
1746.63	29
1747.65	25.5
1748.67	26.5
1749.69	25
1750.7	29
1751.72	25
1752.74	25
1753.76	25.5
1754.78	27.5
1755.79	26
1756.81	26
1757.83	25.5
1758.85	26.5
1759.86	27
1760.88	28
1761.9	26.5
1762.91	28.5
1763.93	29.5
1764.95	26.5
1765.96	28.5
1766.98	25.5
1767.99	25
1769.01	28
1770.02	25.5
1771.04	29
1772.06	23.5
1773.07	30
1774.09	25
1775.1	24
1776.11	26.5
1777.13	22
1778.14	26.5
1779.16	24.5
1780.17	25
1781.18	22
1782.2	26.5
1783.21	26
1784.22	27
1785.24	26
1786.25	25
1787.26	24.5
1788.28	27.5
1789.29	25
1790.3	24.5
1791.31	27
1792.33	22
1793.34	26
1794.35	24.5
1795.36	27
1796.37	28
1797.38	26.5
1798.39	28.5
1799.4	24.5
1800.42	28
1801.43	24
1802.44	26.5
1803.45	24
1804.46	26
1805.47	24
1806.48	24.5
1807.49	23
1808.5	25
1809.51	21
1810.51	28.5
1811.52	23
1812.53	28
1813.54	26.5
1814.55	27
1815.56	28
1816.57	26
1817.57	27
1818.58	27.5
1819.59	27.5
1820.6	26.5
1821.61	26.5
1822.61	24.5
1823.62	26.5
1824.63	25
1825.63	26
1826.64	26
1827.65	26.5
1828.65	26.5
1829.66	26
1830.67	26
1831.67	26
1832.68	26.5
1833.68	25
1834.69	25
1835.69	24
1836.7	32
1837.7	26
1838.71	24
1839.71	26
1840.72	24.5
1841.72	29.5
1842.73	25.5
1843.73	27
1844.73	26
1845.74	30
1846.74	25
1847.74	25
1848.75	27
1849.75	25
1850.75	24
1851.76	21
1852.76	25.5
1853.76	29.5
1854.76	31
1855.77	25
1856.77	27
1857.77	29.5
1858.77	26.5
1859.77	26.5
1860.77	28
1861.78	23.5
1862.78	26
1863.78	24
1864.78	26.5
1865.78	22.5
1866.78	26.5
1867.78	23
1868.78	26
1869.78	24
1870.78	27.5
1871.78	23
1872.78	26.5
1873.78	24
1874.78	27.5
1875.78	24.5
1876.78	25.5
1877.78	27.5
1878.77	26
1879.77	27
1880.77	23
1881.77	22
1882.77	26.5
1883.77	26.5
1884.76	25.5
1885.76	26.5
1886.76	19.5
1887.75	27
1888.75	23
1889.75	29
1890.75	24.5
1891.74	29.5
1892.74	25
1893.73	25.5
1894.73	26
1895.73	29.5
1896.72	24
1897.72	25
1898.71	23
1899.71	26
1900.7	23.5
1901.7	22.5
1902.69	22
1903.69	27
1904.68	22
1905.68	28.5
1906.67	24.5
1907.67	24.5
1908.66	26
1909.65	26.5
1910.65	25
1911.64	22.5
1912.63	24
1913.63	22.5
1914.62	26.5
1915.61	23
1916.61	24.5
1917.6	27
1918.59	24
1919.58	23.5
1920.58	28.5
1921.57	24.5
1922.56	31
1923.55	23.5
1924.54	28
1925.54	21
1926.53	22
1927.52	24
1928.51	27.5
1929.5	22
1930.49	25.5
1931.48	22
1932.47	24.5
1933.46	24
1934.45	25
1935.44	25
1936.43	25.5
1937.42	24
1938.41	26
1939.4	22.5
1940.39	27
1941.38	24.5
1942.37	23.5
1943.35	24.5
1944.34	25.5
1945.33	26
1946.32	23
1947.31	26
1948.3	26.5
1949.28	25.5
1950.27	27
1951.26	23.5
1952.25	27.5
1953.23	26
1954.22	25.5
1955.21	25.5
1956.19	22
1957.18	27.5
1958.17	28
1959.15	23.5
1960.14	24
1961.12	26
1962.11	23.5
1963.1	24.5
1964.08	25
1965.07	21.5
1966.05	23.5
1967.04	23
1968.02	26.5
1969.01	25
1969.99	23.5
1970.98	25.5
1971.96	22.5
1972.94	25.5
1973.93	24.5
1974.91	16
1975.9	27.5
1976.88	23
1977.86	23.5
1978.85	26
1979.83	26
1980.81	27
1981.79	24
1982.78	21.5
1983.76	27
1984.74	25
1985.72	25
1986.71	24.5
1987.69	23
1988.67	22.5
1989.65	26
1990.63	24
1991.61	26
1992.59	24.5
1993.57	26
1994.56	28.5
1995.54	25
1996.52	26
1997.5	24.5
1998.48	27.5
1999.46	25
2000.44	25.5
2001.42	24
2002.4	30
2003.38	24.5
2004.36	25.5
2005.33	23
2006.31	23
2007.29	24
2008.27	26
2009.25	24.5
2010.23	25.5
2011.21	25.5
2012.18	26
2013.16	20
2014.14	28
2015.12	24
2016.09	26.5
2017.07	24
2018.05	26
2019.03	24.5
2020	25
2020.98	22.5
2021.96	27
2022.93	24.5
2023.91	24
2024.89	25.5
2025.86	23.5
2026.84	24.5
2027.81	22.5
2028.79	18.5
2029.76	23.5
2030.74	24
2031.71	23.5
2032.69	24
2033.66	22.5
2034.64	28
2035.61	21.5
2036.59	23.5
2037.56	24.5
2038.54	28
2039.51	24.5
2040.48	25.5
2041.46	21
2042.43	25
2043.4	27.5
2044.38	23
2045.35	21.5
2046.32	26
2047.29	23
2048.27	22
2049.24	21.5
2050.21	23
2051.18	26
2052.16	27
2053.13	26.5
2054.1	21
2055.07	24.5
2056.04	24
2057.01	26
2057.98	21.5
2058.96	24.5
2059.93	27
2060.9	22
2061.87	21
2062.84	25
2063.81	24
2064.78	22
2065.75	23.5
2066.72	23
2067.69	24
2068.66	26.5
2069.63	26.5
2070.6	24
2071.56	24
2072.53	26
2073.5	23
2074.47	25.5
2075.44	27.5
2076.41	24
2077.38	25.5
2078.34	25
2079.31	21
2080.28	25.5
2081.25	24.5
2082.21	26
2083.18	21.5
2084.15	23.5
2085.11	23
2086.08	28
2087.05	21.5
2088.01	25
2088.98	23
2089.95	27
2090.91	23
2091.88	22.5
2092.84	21.5
2093.81	22
2094.78	25
2095.74	25.5
2096.71	27
2097.67	25
2098.64	23.5
2099.6	25
2100.57	24.5
2101.53	25
2102.49	22.5
2103.46	24.5
2104.42	24
2105.39	25.5
2106.35	28.5
2107.31	20
2108.28	24
2109.24	20.5
2110.2	30
2111.17	24.5
2112.13	19.5
2113.09	25.5
2114.05	24.5
2115.02	21.5
2115.98	27
2116.94	26.5
2117.9	25
2118.86	24.5
2119.83	26
2120.79	24
2121.75	24
2122.71	23
2123.67	24
2124.63	25
2125.59	23.5
2126.55	21
2127.51	23.5
2128.47	26
2129.43	24
2130.39	19
2131.35	21.5
2132.31	24
2133.27	25
2134.23	28
2135.19	27.5
2136.15	24
2137.11	21.5
2138.07	21
2139.03	25.5
2139.99	21
2140.94	21.5
2141.9	24
2142.86	24.9898
2143.82	22.9502
2144.78	21.5838
2145.73	28.9747
2146.69	24.0318
2147.65	24.4279
2148.61	26.2169
2149.56	24.506
2150.52	24.4815
2151.48	21.8904
2152.43	22.0356
2153.39	21.0315
2154.35	25.306
2155.3	22.4969
2156.26	24.2481
2157.21	21.9026
2158.17	21.7817
2159.13	23.9411
2160.08	25.7015
2161.04	20.9664
2161.99	24.4484
2162.95	25.6369
2163.9	23.5435
2164.86	22.5145
2165.81	21.9011
2166.77	23.9675
2167.72	20.6398
2168.67	22.267
2169.63	23.3617
2170.58	22.961
2171.54	23.0225
2172.49	23.4106
2173.44	22.0584
2174.4	21.5046
2175.35	24.2779
2176.3	22.6471
2177.26	21.7087
2178.21	23.9616
2179.16	23.5518
2180.11	23.5376
2181.07	22.7315
2182.02	19.5086
2182.97	24.4912
2183.92	24.7077
2184.87	23.3087
2185.82	21.9885
2186.78	23.3714
2187.73	23.253
2188.68	20.4321
2189.63	23.6349
2190.58	24.0471
2191.53	23.0142
2192.48	22.5411
2193.43	22.6759
2194.38	26.3544
2195.33	22.3681
2196.28	23.0744
2197.23	23.8129
2198.18	20.9609
2199.13	23.6126
2200.08	22.6714
2201.03	22.7267
2201.98	23.5927
2202.93	23.6264
2203.88	24.0318
2204.83	23.2814
2205.77	23.1779
2206.72	21.7246
2207.67	23.781
2208.62	23.2372
2209.57	22.3943
2210.52	23.7086
2211.46	26.2622
2212.41	24.4673
2213.36	20.312
2214.31	21.0373
2215.25	24.0347
2216.2	23.5717
2217.15	22.2246
2218.09	22.4224
2219.04	22.4082
2219.99	25.436
2220.93	21.8113
2221.88	23.0931
2222.82	23.0068
2223.77	24.6783
2224.72	23.0162
2225.66	22.5
2226.61	24.0147
2227.55	22.1863
2228.5	23.2673
2229.44	22.0861
2230.39	21.8058
2231.33	22.8647
2232.28	23.3344
2233.22	23.0364
2234.16	24.3146
2235.11	20.9214
2236.05	23.3534
2237	20.514
2237.94	22.6605
2238.88	23.4088
2239.83	21.2988
2240.13	20.5
2241.08	23
2242.03	25.5
2242.98	24
2243.92	20.5
2244.87	22.5
2245.82	26.5
2246.76	19
2247.71	19
2248.66	22.5
2249.61	20
2250.55	22.5
2251.5	23.5
2252.45	23
2253.39	25
2254.34	23
2255.28	23.5
2256.23	22
2257.18	24
2258.12	24
2259.07	22
2260.01	22.5
2260.96	22
2261.9	25
2262.85	24
2263.79	22
2264.74	24
2265.68	24.5
2266.63	22
2267.57	26.5
2268.51	22.5
2269.46	25
2270.4	23.5
2271.35	19.5
2272.29	20
2273.23	23
2274.18	22
2275.12	21.5
2276.06	24
2277	22.5
2277.95	22.5
2278.89	24
2279.83	23
2280.78	26.5
2281.72	25.5
2282.66	22.5
2283.6	23.5
2284.54	25.5
2285.48	23
2286.43	23.5
2287.37	28
2288.31	19
2289.25	22.5
2290.19	27
2291.13	21
2292.07	22
2293.01	22.5
2293.95	26
2294.89	24.5
2295.83	23
2296.77	24
2297.71	23
2298.65	25
2299.59	22
2300.53	20.5
2301.47	24
2302.41	23
2303.35	19.5
2304.29	24.5
2305.22	22
2306.16	22.5
2307.1	22
2308.04	21
2308.98	24
2309.91	24
2310.85	27
2311.79	24
2312.73	24.5
2313.66	22.5
2314.6	27
2315.54	22
2316.48	23.5
2317.41	24
2318.35	22.5
2319.29	25.5
2320.22	22
2321.16	27
2322.09	24
2323.03	23.5
2323.97	23
2324.9	19
2325.84	23.5
2326.77	26
2327.71	22
2328.64	27.5
2329.58	25.5
2330.51	24
2331.45	24
2332.38	23
2333.32	21
2334.25	27
2335.18	25.5
2336.12	26
2337.05	24
2337.99	22.5
2338.92	22
2339.85	24.5
2340.79	25
2341.72	23
2342.65	25.5
2343.59	26.5
2344.52	26
2345.45	23.5
2346.38	26
2347.32	28
2348.25	23
2349.18	23.5
2350.11	25
2351.04	20
2351.98	24.5
2352.91	26
2353.84	28
2354.77	22.5
2355.7	23.5
2356.63	23
2357.56	25.5
2358.49	24.5
2359.42	20.5
2360.35	24
2361.28	24.5
2362.21	22.5
2363.14	28.5
2364.07	25
2365	24
2365.93	26.5
2366.86	19.5
2367.79	24
2368.72	22
2369.65	23.5
2370.58	24
2371.51	21.5
2372.44	23
2373.36	24
2374.29	26.5
2375.22	22.5
2376.15	22.5
2377.08	24.5
2378	27.5
2378.93	21.5
2379.86	22.5
2380.79	22
2381.71	25.5
2382.64	27
2383.57	29
2384.49	22
2385.42	22
2386.35	28
2387.27	24
2388.2	22
2389.13	25
2390.05	22
2390.98	23
2391.9	26.5
2392.83	24.5
2393.76	22.5
2394.68	21
2395.61	29
2396.53	23
2397.46	27.5
2398.38	23
2399.3	24
2400.23	25
2401.15	27
2402.08	24
2403	22.5
2403.93	26.5
2404.85	24.5
2405.77	24.5
2406.7	25.5
2407.62	25
2408.54	24
2409.47	22.5
2410.39	25
2411.31	24.5
2412.24	25
2413.16	26
2414.08	24.5
2415	20
2415.92	25
2416.85	25
2417.77	25.5
2418.69	24
2419.61	24.5
2420.53	25
2421.45	23
2422.38	23.5
2423.3	22
2424.22	21.5
2425.14	26
2426.06	22.5
2426.98	22
2427.9	22
2428.82	25
2429.74	24
2430.66	27.5
2431.58	27.5
2432.5	26
2433.42	24
2434.34	25
2435.26	23
2436.18	29.5
2437.1	26.5
2438.01	27.5
2438.93	25.5
2439.85	23
2440.77	21
2441.69	24
2442.61	21
2443.52	23.5
2444.44	25
2445.36	25
2446.28	24
2447.2	22
2448.11	23.5
2449.03	23
2449.95	24
2450.86	21
2451.78	25.5
2452.7	24
2453.61	24.5
2454.53	24
2455.45	24
2456.36	27.5
2457.28	26
2458.2	23
2459.11	24
2460.03	24
2460.94	26
2461.86	18.5
2462.77	30
2463.69	29
2464.6	26.5
2465.52	28
2466.43	26
2467.35	27.5
2468.26	26.5
2469.18	26.5
2470.09	23.5
2471	23.5
2471.92	20
2472.83	27
2473.74	25.5
2474.66	24.5
2475.57	24
2476.48	27.5
2477.4	23.5
2478.31	28
2479.22	27
2480.14	25.5
2481.05	22.5
2481.96	22
2482.87	24
2483.79	23
2484.7	24.5
2485.61	26
2486.52	23.5
2487.43	24.5
2488.34	26.5
2489.25	25.5
2490.17	23
2491.08	23.5
2491.99	24
2492.9	26
2493.81	26
2494.72	25.5
2495.63	22
2496.54	21
2497.45	23.5
2498.36	23
2499.27	27
2500.18	24
2501.09	27.5
2502	25
2502.91	23.5
2503.82	23
2504.73	21
2505.63	28
2506.54	23
2507.45	21.5
2508.36	26.5
2509.27	26.5
2510.18	24
2511.09	24.5
2511.99	29.5
2512.9	27
2513.81	26
2514.72	26
2515.62	25.5
2516.53	26
2517.44	26.5
2518.34	25
2519.25	24.5
2520.16	23
2521.06	25
2521.97	22
2522.88	25.5
2523.78	27
2524.69	25
2525.6	26.5
2526.5	24.5
2527.41	21.5
2528.31	24.5
2529.22	26.5
2530.12	25
2531.03	24.5
2531.93	25
2532.84	26.5
2533.74	26
2534.65	24.5
2535.55	18
2536.46	26
2537.36	24.5
2538.27	27.5
2539.17	29
2540.07	24
2540.98	20
2541.88	26
2542.78	25
2543.69	23
2544.59	27.5
2545.49	21
2546.4	24
2547.3	28.5
2548.2	26
2549.1	27
2550.01	24.5
2550.91	24
2551.81	22.5
2552.71	26
2553.61	26
2554.52	23
2555.42	25.5
2556.32	26
2557.22	25
2558.12	22.5
2559.02	24.5
2559.92	20
2560.82	23.5
2561.72	28
2562.62	25.5
2563.53	24.5
2564.43	25.5
2565.33	26
2566.23	24
2567.13	24.5
2568.03	21.5
2568.92	26
2569.82	23
2570.72	30
2571.62	27.5
2572.52	25.5
2573.42	24.5
2574.32	25.5
2575.22	24.5
2576.12	28
2577.02	24
2577.91	26.5
2578.81	25
2579.71	25
2580.61	25
2581.5	26
2582.4	20
2583.3	25
2584.2	26.5
2585.09	25.5
2585.99	21
2586.89	24.5
2587.78	23
2588.68	25
2589.58	18
2590.47	23
2591.37	21
2592.27	26.5
2593.16	27
2594.06	23.5
2594.95	22.5
2595.85	25
2596.75	21.5
2597.64	26
2598.54	24
2599.43	26.5
2600.33	25
2601.22	24
2602.12	25
2603.01	24.5
2603.9	26.5
2604.8	20
2605.69	26
2606.59	23
2607.48	24.5
2608.37	26.5
2609.27	24.5
2610.16	28
2611.05	20
2611.95	22.5
2612.84	25
2613.73	22
2614.63	29
2615.52	20.5
2616.41	23
2617.3	22
2618.2	25.5
2619.09	28
2619.98	23
2620.87	25.5
2621.76	25
2622.66	27.5
2623.55	27
2624.44	24
2625.33	26
2626.22	28.5
2627.11	21
2628	28.5
2628.9	23.5
2629.79	23.5
2630.68	27.5
2631.57	26
2632.46	28.5
2633.35	26
2634.24	22.5
2635.13	25.5
2636.02	23
2636.91	27
2637.8	27
2638.68	25.5
2639.57	20.5
2640.46	23.5
2641.35	22.5
2642.24	22
2643.13	26.5
2644.02	26
2644.91	27
2645.79	26.5
2646.68	24
2647.57	25.5
2648.46	27
2649.35	26
2650.23	26.5
2651.12	26
2652.01	24.5
2652.9	24
2653.78	23.5
2654.67	23.5
2655.56	26
2656.44	27
2657.33	24.5
2658.22	26
2659.1	24
2659.99	23.5
2660.88	23
2661.76	25.5
2662.65	23.5
2663.53	23.5
2664.42	23
2665.3	24
2666.19	24.5
2667.07	26
2667.96	27
2668.84	25
2669.73	24.5
2670.61	24
2671.5	26.5
2672.38	22.5
2673.27	21.5
2674.15	24.5
2675.04	22.5
2675.92	27
2676.8	22.5
2677.69	24
2678.57	27.5
2679.45	25.5
2680.34	26
2681.22	27
2682.1	24.5
2682.99	26
2683.87	23
2684.75	25
2685.63	26
2686.52	23
2687.4	23.5
2688.28	23.5
2689.16	27.5
2690.04	22.5
2690.93	26
2691.81	22.5
2692.69	22
2693.57	29
2694.45	24
2695.33	24.5
2696.21	23.5
2697.09	25.5
2697.97	24.5
2698.85	27
2699.74	23.5
2700.62	25.5
2701.5	26
2702.38	26
2703.26	26
2704.14	22.5
2705.02	26
2705.89	22.5
2706.77	27
2707.65	22
2708.53	23.5
2709.41	26.5
2710.29	28
2711.17	22
2712.05	23
2712.93	24
2713.8	27
2714.68	21.5
2715.56	22
2716.44	23
2717.32	23.5
2718.19	22
2719.07	28
2719.95	26.5
2720.83	26
2721.7	26
2722.58	27
2723.46	22
2724.33	24
2725.21	25.5
2726.09	25.5
2726.97	26
2727.84	26
2728.72	26
2729.59	29
2730.47	21
2731.35	21
2732.22	23.5
2733.1	28
2733.97	24
2734.85	27
2735.72	27
2736.6	23
2737.47	23.5
2738.35	24.5
2739.22	25
2740.1	25
2740.97	25
2741.84	24
2742.72	26
2743.59	25
2744.47	26.5
2745.34	24.5
2746.21	25
2747.09	26
2747.96	22
2748.83	24
2749.71	26.5
2750.58	21
2751.45	26
2752.33	24
2753.2	24
2754.07	21.5
2754.94	23.5
2755.82	29.5
2756.69	25
2757.56	25
2758.43	26
2759.3	23
2760.18	27
2761.05	28
2761.92	24.5
2762.79	23.5
2763.66	29
2764.53	22
2765.4	23.5
2766.27	24
2767.14	25
2768.01	24.5
2768.88	25
2769.75	26.5
2770.62	24
2771.49	25.5
2772.36	27
2773.23	24
2774.1	20.5
2774.97	24.5
2775.84	24
2776.71	24
2777.58	23.5
2778.45	24
2779.32	28
2780.19	26.5
2781.06	27
2781.92	27
2782.79	22.5
2783.66	26.5
2784.53	27
2785.4	25
2786.26	28.5
2787.13	25.5
2788	25
2788.87	28
2789.73	26.5
2790.6	26
2791.47	26
2792.34	23.5
2793.2	27.5
2794.07	24.5
2794.94	30.5
2795.8	26
2796.67	29
2797.53	23.5
2798.4	28.5
2799.27	29
2800.13	25
2801	26.5
2801.86	26.5
2802.73	24
2803.59	26.5
2804.46	24
2805.32	27
2806.19	25
2807.05	26.5
2807.92	25.5
2808.78	29.5
2809.65	33
2810.51	26.5
2811.38	27
2812.24	25.5
2813.1	28.5
2813.97	24.5
2814.83	25.5
2815.7	25
2816.56	24
2817.42	25
2818.29	30.5
2819.15	27.5
2820.01	29.5
2820.87	25.5
2821.74	29.5
2822.6	28
2823.46	28.5
2824.32	27.5
2825.19	26.5
2826.05	28
2826.91	27
2827.77	24
2828.63	28.5
2829.5	27
2830.36	26
2831.22	25
2832.08	22
2832.94	28
2833.8	30
2834.66	24.5
2835.52	23
2836.38	29
2837.24	26
2838.1	27
2838.96	27
2839.82	28
2840.68	27
2841.54	27
2842.4	26.5
2843.26	24.5
2844.12	29
2844.98	26
2845.84	28
2846.7	26
2847.56	30
2848.42	24
2849.28	30
2850.14	24
2850.99	25
2851.85	26
2852.71	26
2853.57	27
2854.43	25
2855.28	27.5
2856.14	27
2857	23.5
2857.86	23.5
2858.71	25.5
2859.57	26
2860.43	27
2861.28	23.5
2862.14	25.5
2863	25
2863.86	26
2864.71	29.5
2865.57	27.5
2866.42	27
2867.28	30.5
2868.14	24
2868.99	30
2869.85	28
2870.7	29
2871.56	29.5
2872.41	26
2873.27	29.5
2874.13	29
2874.98	29.5
2875.83	32
2876.69	30.5
2877.54	30
2878.4	31
2879.25	32.5
2880.11	34
2880.96	33
2881.81	34
2882.67	30
2883.52	29
2884.38	38.5
2885.23	36
2886.08	33.5
2886.94	35.5
2887.79	39
2888.64	37
2889.5	38
2890.35	34
2891.2	42.5
2892.05	45
2892.91	43
2893.76	45
2894.61	46
2895.46	47
2896.31	49
2897.17	47
2898.02	54
2898.87	56
2899.72	61.5
2900.57	66
2901.42	64
2902.27	64.5
2903.12	71
2903.98	67
2904.83	71
2905.68	69
2906.53	68
2907.38	65.5
2908.23	66
2909.08	69
2909.93	63.5
2910.78	62.5
2911.63	62
2912.48	48
2913.33	51
2914.18	53.5
2915.02	46.5
2915.87	49.5
2916.72	46.5
2917.57	44
2918.42	39
2919.27	37
2920.12	41
2920.97	34
2921.81	33.5
2922.66	30.5
2923.51	34
2924.36	32.5
2925.21	30
2926.05	34
2926.9	30
2927.75	34
2928.59	28
2929.44	29
2930.29	25.5
2931.14	28
2931.98	27
2932.83	30.5
2933.68	29
2934.52	30
2935.37	34
2936.21	25
2937.06	29
2937.91	30
2938.75	25.5
2939.6	30
2940.44	29.5
2941.29	28.5
2942.14	29.5
2942.98	28
2943.82	27
2944.67	28.5
2945.51	29
2946.36	30
2947.2	23
2948.05	30.5
2948.89	30
2949.74	31.5
2950.58	35
2951.43	30.5
2952.27	30.5
2953.11	30.5
2953.96	26
2954.8	36
2955.64	30
2956.49	34
2957.33	36
2958.17	39
2959.02	34.5
2959.86	36.5
2960.7	39
2961.54	40.5
2962.39	49
2963.23	44
2964.07	40
2964.91	45.5
2965.75	43.5
2966.6	41.5
2967.44	42
2968.28	39.5
2969.12	41.5
2969.96	37
2970.8	41
2971.64	38.4927
2972.48	37.9018
2973.33	35.0879
2974.17	33.4939
2975.01	36.3059
2975.85	33.8682
2976.69	32.3781
2977.53	29.8003
2978.37	28.5663
2979.21	27.769
2980.05	27.4344
2980.89	29.0135
2981.73	30.1056
2982.57	26.7722
2983.41	27.7742
2984.25	31.699
2985.08	26.7815
2985.92	25.0542
2986.76	25.456
2987.6	24.1917
2988.44	26.4146
2989.28	24.7882
2990.12	27.0635
2990.96	25.2778
2991.79	26.8059
2992.63	25.32
2993.47	24.5932
2994.31	26.4144
2995.14	26.9952
2995.98	27.8002
2996.82	26.2991
2997.66	24.054
2998.49	27.4458
2999.33	21.498
3000.17	25.7689
3001	23.5957
3001.84	22.4739
3002.68	25.5766
3003.51	23.3011
3004.35	24.674
3005.19	25.4248
3006.02	23.7889
3006.86	25.4293
3007.7	24.5102
3008.53	24.4543
3009.37	23.2354
3010.2	25.4913
3011.04	24.3641
3011.87	23.0485
3012.71	23.2746
3013.54	24.6614
3014.38	21.6929
3015.21	23.9421
3016.05	23.2111
3016.88	22.6832
3017.72	24.4818
3018.55	23.0495
3019.39	25.1361
3020.22	24.0599
3021.05	22.5084
3021.89	21.359
3022.72	22.9029
3023.55	22.8979
3024.39	24.3191
3025.22	24.9393
3026.05	23.2565
3026.89	24.4261
3027.72	23.9039
3028.55	21.363
3029.39	22.4544
3030.22	23.4037
3031.05	23.5914
3031.88	21.4987
3032.72	19.5462
3033.55	23.949
3034.38	21.9782
3035.21	22.293
3036.04	22.4558
3036.88	23.2621
3037.71	23.3493
3038.54	22.5558
3039.37	23.3989
3040.2	24.171
3041.03	22.5113
3041.86	22.3204
3042.69	21.8237
3043.52	23.6468
3044.36	24.3349
3045.19	24.0143
3046.02	23.9762
3046.85	22.5518
3047.68	21.4253
3048.51	20.6117
3049.34	20.3164
3050.17	20.4696
3051	22.8411
3051.83	23.5485
3052.66	24.3896
3053.48	24.2973
3054.31	21.8066
3055.14	21.6602
3055.97	20.9972
3056.8	21.4977
3057.29	25
3058.12	25.5
3058.95	24
3059.79	20.5
3060.62	24
3061.45	24.5
3062.29	22
3063.12	22.5
3063.95	24.5
3064.78	23
3065.62	23.5
3066.45	21.5
3067.28	20.5
3068.11	23.5
3068.94	25.5
3069.77	24
3070.61	24.5
3071.44	23.5
3072.27	21.5
3073.1	25
3073.93	21.5
3074.76	22.5
3075.59	24.5
3076.42	25.5
3077.25	19
3078.08	23
3078.92	23.5
3079.74	18
3080.57	25
3081.41	29
3082.24	23.5
3083.06	23
3083.89	25
3084.72	25.5
3085.55	23
3086.38	20.5
3087.21	23.5
3088.04	24
3088.87	22.5
3089.7	24.5
3090.53	25
3091.36	22
3092.18	23.5
3093.01	23.5
3093.84	22.5
3094.67	24
3095.5	24
3096.32	20.5
3097.15	24
3097.98	26
3098.81	24
3099.64	25
3100.46	24
3101.29	23
3102.12	21
3102.94	22.5
3103.77	20
3104.6	24
3105.42	25
3106.25	25
3107.08	23
3107.9	24.5
3108.73	20
3109.56	25
3110.38	24
3111.21	21.5
3112.03	23.5
3112.86	25.5
3113.68	23.5
3114.51	22
3115.33	25
3116.16	25.5
3116.98	21
3117.81	23.5
3118.63	23.5
3119.46	22.5
3120.28	21
3121.11	29
3121.93	22
3122.76	22.5
3123.58	20.5
3124.4	21.5
3125.23	21.5
3126.05	22.5
3126.87	24
3127.7	23
3128.52	27
3129.34	27
3130.17	23.5
3130.99	28.5
3131.81	22
3132.64	18
3133.46	26.5
3134.28	21
3135.1	26
3135.93	23
3136.75	26
3137.57	24.5
3138.39	25
3139.21	24.5
3140.04	26.5
3140.86	20
3141.68	23
3142.5	23
3143.32	21.5
3144.14	26.5
3144.96	24
3145.78	23
3146.61	24
3147.43	29.5
3148.25	25
3149.07	23
3149.89	23.5
3150.71	22
3151.53	25.5
3152.35	23
3153.17	28
3153.99	28
3154.81	23.5
3155.63	19.5
3156.45	20.5
3157.27	23.5
3158.08	21
3158.9	26
3159.72	26
3160.54	25
3161.36	25
3162.18	21
3163	23.5
3163.82	24
3164.63	23
3165.45	23.5
3166.27	25.5
3167.09	23.5
3167.91	29.5
3168.72	27.5
3169.54	23
3170.36	22.5
3171.18	21
3171.99	24
3172.81	24
3173.63	22.5
3174.44	24
3175.26	21.5
3176.08	26.5
3176.89	26.5
3177.71	22
3178.53	25
3179.34	23
3180.16	25.5
3180.97	21
3181.79	24
3182.61	20.5
3183.42	21
3184.24	22.5
3185.05	22.5
3185.87	24
3186.68	23.5
3187.5	22
3188.31	20
3189.13	24
3189.94	21.5
3190.76	25.5
3191.57	22.5
3192.39	28
3193.2	23
3194.02	21.5
3194.83	23
3195.64	27
3196.46	21.5
3197.27	23.5
3198.08	21.5
3198.9	26
3199.71	25
3200.52	22.5
3201.34	22.5
3202.15	25
3202.96	25
3203.78	23
3204.59	24
3205.4	26
3206.21	24
3207.03	22
3207.84	22
3208.65	28
3209.46	24
3210.27	23.5
3211.09	25.5
3211.9	20
3212.71	27
3213.52	21
3214.33	22.5
3215.14	24
3215.95	26.5
3216.77	22.5
3217.58	20.5
3218.39	19
3219.2	22.5
3220.01	25.5
3220.82	25.5
3221.63	23
3222.44	26.5
3223.25	21.5
3224.06	21
3224.87	21.5
3225.68	24
3226.49	23
3227.3	21.5
3228.11	27
3228.92	22
3229.73	26.5
3230.53	28
3231.34	23
3232.15	20
3232.96	21
3233.77	29.5
3234.58	26.5
3235.39	22
3236.19	24
3237	25
3237.81	22
3238.62	20
3239.43	21
3240.23	23.5
3241.04	27.5
3241.85	21.5
3242.66	23.5
3243.46	24
3244.27	22
3245.08	22
3245.89	21
3246.69	24.5
3247.5	25
3248.31	25
3249.11	26.5
3249.92	23.5
3250.72	27.5
3251.53	26.5
3252.34	22
3253.14	25
3253.95	26.5
3254.75	25
3255.56	25.5
3256.36	21.5
3257.17	24.5
3257.98	32
3258.78	23
3259.59	24.5
3260.39	20.5
3261.19	26
3262	23.5
3262.8	21
3263.61	23.5
3264.41	20
3265.22	22.5
3266.02	23
3266.83	24
3267.63	25.5
3268.43	24.5
3269.24	21.5
3270.04	24
3270.84	22
3271.65	26
3272.45	28
3273.25	23.5
3274.06	23
3274.86	22
3275.66	20
3276.46	21.5
3277.27	23.5
3278.07	22.5
3278.87	26.5
3279.67	28
3280.48	21
3281.28	23.5
3282.08	26.5
3282.88	23
3283.68	24
3284.48	24
3285.29	25.5
3286.09	24.5
3286.89	29
3287.69	20.5
3288.49	31
3289.29	25.5
3290.09	24
3290.89	25
3291.69	22
3292.49	26
3293.29	22.5
3294.09	27
3294.89	23
3295.69	23.5
3296.49	24
3297.29	24
3298.09	25
3298.89	24
3299.69	22.5
3300.49	24.5
3301.29	25
3302.09	24.5
3302.89	23.5
3303.69	22
3304.49	24
3305.28	25.5
3306.08	23
3306.88	26
3307.68	24
3308.48	25.5
3309.28	25
3310.07	25
3310.87	23
3311.67	29.5
3312.47	25
3313.26	27
3314.06	25
3314.86	24.5
3315.66	25.5
3316.45	28.5
3317.25	23
3318.05	22.5
3318.84	28
3319.64	22.5
3320.44	25
3321.23	28.5
3322.03	20
3322.83	25
3323.62	25
3324.42	23.5
3325.21	22
3326.01	23.5
3326.81	24
3327.6	22
3328.4	22
3329.19	26
3329.99	23.5
3330.78	22
3331.58	21.5
3332.37	25
3333.17	26.5
3333.96	21.5
3334.76	25.5
3335.55	23
3336.34	22.5
3337.14	25.5
3337.93	23
3338.73	23
3339.52	21
3340.31	22.5
3341.11	25
3341.9	26
3342.69	24.5
3343.49	27.5
3344.28	22.5
3345.07	23.5
3345.87	22.5
3346.66	24.5
3347.45	24
3348.25	25
3349.04	22.5
3349.83	20.5
3350.62	25
3351.42	25
3352.21	23
3353	24
3353.79	22
3354.58	23.5
3355.37	25.5
3356.17	24
3356.96	23.5
3357.75	22.5
3358.54	24
3359.33	22
3360.12	25
3360.91	26.5
3361.7	23
3362.49	23.5
3363.29	24.5
3364.08	25
3364.87	21
3365.66	22.5
3366.45	25
3367.24	26.5
3368.03	24
3368.82	24
3369.61	20
3370.4	27
3371.19	25
3371.97	21
3372.76	21
3373.55	25.5
3374.34	22
3375.13	20.5
3375.92	23
3376.71	24
3377.5	26
3378.29	22
3379.07	27.5
3379.86	22.5
3380.65	28
3381.44	22
3382.23	25.5
3383.01	25
3383.8	23
3384.59	23
3385.38	26.5
3386.16	22
3386.95	25.5
3387.74	26.5
3388.53	25
3389.31	27
3390.1	21
3390.89	24
3391.67	23.5
3392.46	25
3393.25	24
3394.03	22
3394.82	25
3395.6	24
3396.39	24.5
3397.18	24
3397.96	25
3398.75	22
3399.53	22
3400.32	25.5
3401.1	23
3401.89	24
3402.67	27
3403.46	29
3404.24	26
3405.03	18.5
3405.81	25
3406.6	28.5
3407.38	26
3408.17	26
3408.95	20
3409.74	25
3410.52	21
3411.3	24.5
3412.09	26.5
3412.87	24
3413.65	23.5
3414.44	27
3415.22	19
3416	28
3416.79	23.5
3417.57	24
3418.35	23.5
3419.14	22
3419.92	26.5
3420.7	24
3421.48	23
3422.27	28
3423.05	22.5
3423.83	23
3424.61	24.5
3425.4	23
3426.18	20
3426.96	24.5
3427.74	24
3428.52	25.5
3429.3	24.5
3430.08	27.5
3430.87	24
3431.65	24.5
3432.43	25
3433.21	20
3433.99	25.5
3434.77	22
3435.55	23
3436.33	20.5
3437.11	25
3437.89	28.5
3438.67	24.5
3439.45	23
3440.23	26.5
3441.01	21
3441.79	24
3442.57	25.5
3443.35	25
3444.13	22.5
3444.91	25.5
3445.69	25
3446.47	21
3447.25	25
3448.03	26
3448.8	23.5
3449.58	25
3450.36	26
3451.14	24.5
3451.92	23
3452.7	24
3453.47	22
3454.25	27
3455.03	26.5
3455.81	24.5
3456.59	27
3457.36	26.5
3458.14	26.5
3458.92	23
3459.69	23
3460.47	21.5
3461.25	25
3462.03	24.5
3462.8	23
3463.58	29
3464.36	22
3465.13	25.5
3465.91	23
3466.69	23
3467.46	22.5
3468.24	22
3469.01	21
3469.79	25.5
3470.57	19
3471.34	23
3472.12	22.5
3472.89	26
3473.67	24.5
3474.44	24.5
3475.22	21.5
3475.99	22
3476.77	25.5
3477.54	23
3478.32	23
3479.09	24
3479.87	26
3480.64	24
3481.41	23.5
3482.19	26
3482.96	24.5
3483.74	23
3484.51	21.5
3485.28	27.5
3486.06	24
3486.83	27
3487.6	29
3488.38	24
3489.15	24.5
3489.92	25
3490.7	24
3491.47	26
3492.24	23
3493.01	24
3493.79	23
3494.56	23
3495.33	23
3496.1	25
3496.88	25
3497.65	23
3498.42	24.5
3499.19	23.5
3499.96	20
