#Acq. time (s)=	5
#Accumulations=	5
#Range (cm-¹)=	100...3500
#Windows=	4
#Autofocus=	Off
#AutoExposure=	Off
#Spike filter=	Multiple accum.
#Delay time (s)=	0
#Binning=	1
#Readout mode=	Signal
#DeNoise=	Off
#ICS correction=	Off
#Dark correction=	Off
#Inst. Process=	Off
#Instrument=	LabRAM HR Evol
#Detector=	Syncerity OE
#Objective=	x100_VIS
#Grating=	600 (500nm)
#ND Filter=	25%
#Laser=	633nm_Edge
#Hole=	100.021
#Range=	Visible
#Project=	verificaciones
#Sample=	at1
#Site=	plain
#Title=	bolusat1plain
#Remark=	com
#Date=	16.01.2026 16:12
#Acquired=	16.01.2026 16:12:28
100.564	27
101.847	29.5
103.131	32.5
104.414	30
105.697	30
106.979	34
108.262	28.5
109.544	30
110.826	33
112.109	29
113.391	31.5
114.672	29
115.954	27
117.235	35
118.515	32
119.796	27
121.076	28.5
122.357	28.5
123.637	34.5
124.916	28
126.196	28.5
127.475	38
128.754	33
130.033	31
131.31	36.5
132.589	35.5
133.867	33
135.145	34
136.423	36.5
137.701	35
138.978	35.5
140.256	39
141.533	37.5
142.809	38
144.086	42.5
145.361	37
146.637	37
147.913	38.5
149.189	39
150.464	38
151.74	39
153.014	41
154.288	41
155.563	40.5
156.838	44
158.112	38.5
159.385	40
160.659	42
161.932	40
163.206	43.5
164.479	43
165.751	36
167.024	41.5
168.296	41
169.567	39.5
170.84	39.5
172.112	38
173.383	39
174.654	33.5
175.925	39.5
177.196	40
178.466	40.5
179.737	37.5
181.007	41.5
182.276	41.5
183.546	40.5
184.816	41.5
186.085	43
187.354	42
188.624	38.5
189.891	39.5
191.16	40
192.427	42
193.696	40
194.964	37.5
196.231	38.5
197.499	37
198.765	37
200.033	39
201.298	34.5
202.566	39
203.831	35.5
205.098	33
206.363	37.5
207.629	42.5
208.894	30
210.159	36
211.424	34
212.689	32.5
213.953	35.5
215.218	30.5
216.481	33
217.746	34
219.009	38.5
220.273	33.5
221.536	31
222.798	32
224.062	33
225.323	31.5
226.587	34.5
227.848	32
229.109	32
230.372	32
231.633	29.5
232.894	32
234.156	30
235.416	30
236.678	32.5
237.937	30
239.197	30
240.457	28
241.717	31
242.976	32
244.235	32.5
245.495	29
246.754	30
248.012	26
249.27	26.5
250.529	25.5
251.787	30
253.045	34.5
254.302	32
255.56	26
256.817	25
258.074	30
259.33	30
260.586	30
261.844	29
263.1	31.5
264.355	30
265.611	29
266.866	26
268.121	29
269.377	29
270.632	30.5
271.886	28.5
273.14	31
274.394	27
275.648	30.5
276.902	27.5
278.155	26.5
279.408	26.5
280.663	27
281.915	30.5
283.168	28
284.42	32.5
285.673	31
286.925	27
288.176	27
289.428	29
290.679	32.5
291.93	29.5
293.181	29
294.432	25
295.683	25.5
296.933	26.5
298.183	30.5
299.433	26
300.683	29
301.932	28.5
303.182	26
304.429	25.5
305.678	26
306.927	28.5
308.176	27
309.424	29.5
310.672	30
311.92	27.5
313.168	29.5
314.415	27
315.661	30
316.908	29.5
318.155	29.5
319.402	23.5
320.648	29.5
321.895	28
323.139	32.5
324.385	25
325.631	28
326.877	29.5
328.122	28
329.366	26.5
330.611	27
331.855	28
333.1	30.5
334.343	31.5
335.587	27
336.831	29
338.074	30.5
339.317	28.5
340.56	30
341.803	29.5
343.044	27
344.287	30
345.53	30
346.771	30
348.013	25.5
349.255	30
350.495	26.5
351.736	26
352.978	27
354.217	32
355.458	30.5
356.699	24.5
357.938	31
359.178	30.5
360.417	25
361.657	28.5
362.895	26.5
364.135	32
365.374	32.5
366.612	28
367.851	30
369.088	27
370.327	29.5
371.564	30
372.802	27.5
374.038	29
375.276	26
376.512	28
377.749	25.5
378.985	29
380.222	24
381.457	28
382.692	30.5
383.929	22
385.164	27
386.4	30
387.634	28.5
388.869	27.5
390.103	26.5
391.337	25
392.572	31
393.805	26
395.038	30
396.273	27
397.506	27.5
398.74	29
399.972	26
401.204	25
402.437	29.5
403.669	29
404.901	30.5
406.132	27
407.365	27.5
408.596	29.5
409.826	25.5
411.058	30.5
412.289	29.5
413.519	27
414.749	26.5
415.98	25.5
417.21	29
418.439	30
419.668	28
420.897	26
422.128	31
423.356	28.5
424.585	27.5
425.813	28.5
427.041	25
428.269	27.5
429.498	30.5
430.725	25
431.952	25
433.179	30
434.406	26
435.633	26.5
436.859	30
438.085	30.5
439.312	31
440.537	30.5
441.764	28
442.99	23.5
444.215	31.5
445.44	30.5
446.665	29
447.89	31.5
449.114	32.5
450.339	25.5
451.563	29.5
452.787	33.5
454.01	34
455.234	28.5
456.457	27.5
457.68	28.5
458.903	24.5
460.126	31
461.348	31.5
462.569	27.5
463.792	35.5
465.013	32.5
466.235	32.5
467.457	32
468.678	28
469.899	36
471.12	30.5
472.341	32
473.56	38.5
474.781	38
476.001	42
477.221	37.5
478.441	39.5
479.66	44.5
480.878	49.5
482.098	47
483.317	47
484.535	57
485.754	59.5
486.971	59
488.189	56.5
489.407	62
490.625	57
491.842	56.5
493.059	54.5
494.276	53
495.493	54
496.709	50.5
497.926	47
499.142	42.5
500.357	48.5
501.573	44.5
502.789	43.5
504.003	39
505.219	35.5
506.434	34
507.648	32
508.863	36.5
510.078	38.5
511.291	35
512.505	32.5
513.718	36
514.932	30.5
516.145	33
517.358	30
518.572	32
519.783	31
520.997	26
522.208	29
523.421	30
524.632	34.5
525.844	36
527.055	27
528.266	31
529.477	25.5
530.688	30
531.898	32.5
533.109	28.5
534.319	28
535.53	27.5
536.739	30
537.948	33.5
539.158	29
540.366	26.5
541.576	31
542.784	27.5
543.994	28
545.201	29.5
546.409	27
547.618	27
548.825	28
550.032	26
551.24	23.5
552.447	29
553.654	29.5
554.861	27.5
556.067	28.5
557.273	28.5
558.48	29
559.686	30
560.891	23
562.096	26
563.302	29
564.507	27.5
565.712	23
566.916	27.5
568.122	28.5
569.326	25.5
570.529	32
571.733	27.5
572.936	28
574.141	25.5
575.344	32
576.547	29
577.75	31.5
578.952	28
580.154	22
581.358	26
582.56	28.5
583.761	31
584.963	29
586.164	30
587.365	29
588.566	25.5
589.767	28
590.967	29
592.168	25
593.369	26.5
594.569	24.5
595.769	29.5
596.969	32.5
598.168	26.5
599.367	29
600.566	26
601.765	26
602.964	25.5
604.162	27
605.361	28
606.559	27.5
607.757	26
608.953	28
610.151	31.5
611.348	30
612.545	28.5
613.742	27.5
614.939	26.5
616.135	28
617.332	29.5
618.528	27
619.724	26
620.918	27
622.114	29
623.309	27.5
624.505	28
625.7	30.5
626.895	25
628.088	28
629.282	27
630.477	29
631.671	28
632.865	26
634.057	27
635.251	26
636.444	27.5
637.637	27.5
638.829	27.5
640.022	26.5
641.214	33.5
642.407	30
643.598	31
644.79	28
645.982	30.5
647.172	31
648.364	26
649.555	29.5
650.745	30
651.936	26
653.126	26.5
654.315	28
655.506	24.5
656.696	27
657.885	28
659.074	31
660.263	31
661.452	26
662.64	28
663.829	28
665.018	25.5
666.205	30
667.394	30.5
668.581	27.5
669.769	31
670.955	26
672.143	29.5
673.329	24.5
674.517	26
675.703	30.5
676.89	28.5
678.075	32
679.262	32
680.447	38.5
681.632	27.5
682.818	32.5
684.002	38
685.188	34.5
686.372	33
687.556	32
688.741	38
689.925	35.5
691.11	34
692.293	38
693.476	30.5
694.66	36.5
695.843	30
697.025	34.5
698.209	34.5
699.391	33
700.573	38.5
701.756	34.5
702.938	37.5
704.119	42
705.3	45
706.483	49
707.664	45
708.844	54.5
710.025	47
711.206	47.5
712.386	44
713.566	38.5
714.746	35
715.925	34.5
717.106	34
718.285	33
719.464	33
720.643	32
721.822	31
723	32
724.178	30.5
725.358	25.5
726.536	29
727.713	27
728.891	30
730.068	29.5
731.245	28
732.422	33
733.599	31
734.775	30
735.952	30
737.128	28.5
738.304	26
739.48	32.5
740.656	32
741.831	29
743.006	30
744.181	25
745.356	34
746.531	28
747.706	27.5
748.88	26.5
750.054	29.5
751.228	28
752.402	26
753.576	28.5
754.749	30
755.922	29.5
757.095	26.5
758.267	29
759.44	31.5
760.612	28
761.785	29
762.957	29
764.129	28
765.301	28.5
766.471	30
767.642	27.5
768.814	27
769.985	30
771.156	30
772.325	28
773.495	30.5
774.666	30
775.836	29
777.005	30.5
778.174	25
779.344	27.5
780.513	28
781.681	27
782.85	28.5
784.019	30
785.187	34
786.355	26.5
787.523	29.5
788.69	32.5
789.858	30
791.026	31.5
792.192	30.5
793.36	29
794.526	30
795.693	30
796.86	29
798.025	27
799.191	30.5
800.356	28
801.523	30
802.689	29
803.853	26.5
805.019	27
806.183	28
807.348	26.5
808.512	26.5
809.677	27
810.84	26.5
812.005	26.5
813.167	24
814.332	31
815.494	31.5
816.657	25
817.82	28.5
818.982	25
820.146	25
821.307	25.5
822.47	22.5
823.632	26.5
824.793	26
825.955	29
827.116	24
828.277	30
829.439	26
830.599	24
831.759	28
832.92	28.5
834.08	26
835.24	27
836.4	27.5
837.56	24.5
838.719	29
839.877	26.5
841.037	25.5
842.196	26
843.354	27
844.512	26
845.672	29.5
846.83	30
847.987	27
849.145	28
850.302	26
851.46	27
852.617	29
853.774	29.5
854.93	34.5
856.087	25
857.243	24
858.4	27
859.556	29
860.712	31.5
861.867	31
863.022	28.5
864.177	29.5
865.332	31
866.487	26.5
867.642	27.5
868.796	26.5
869.95	26.5
871.104	28
872.258	27
873.412	30
874.565	26.5
875.718	26
876.872	27.5
878.024	28.5
879.177	27.5
880.33	30
881.482	27
882.635	27
883.787	27
884.938	26
886.09	27
887.242	23
888.393	23
889.544	25
890.695	27.5
891.845	25.5
892.995	28
894.146	25
895.296	26.5
896.446	29
897.596	29
898.744	28.5
899.894	24
901.043	22.5
902.193	29.5
903.342	24
904.489	26
905.638	26.5
906.786	28
907.935	26
909.081	25.5
910.229	25.5
911.377	28
912.525	25.5
913.671	28
914.818	28.5
915.965	26.5
917.111	25.5
918.258	25.5
919.404	23
920.549	24.5
921.695	23
922.84	25.5
923.986	28
925.132	25
926.276	26.5
927.421	30.5
928.565	25
929.71	26.5
930.855	25.5
931.998	21
933.142	32
934.285	26
935.429	25.5
936.572	29.5
937.716	25
938.858	25.5
940.001	23.5
941.143	26
942.286	28.5
943.428	27.5
944.57	25
945.712	25
946.854	27.5
947.995	27.5
949.135	24
950.277	26
951.418	23.5
952.559	25
953.699	27
954.839	22.5
955.98	26
957.119	26.5
958.258	29.5
959.399	26
960.538	26.5
961.676	22.5
962.816	25
963.955	24.5
965.093	23
966.232	24
967.37	32
968.508	24.5
969.645	29
970.784	28.25
971.921	26.5
973.058	26
974.195	26
975.333	25.5
976.469	30
977.605	27.5
978.741	26.5
979.877	26.5
981.013	30
982.15	28
983.285	26
984.421	29
985.556	25
986.691	25
987.825	27
988.96	27
990.094	23.5
991.228	20
992.364	20
993.497	30.5
994.631	27
995.765	27.5
996.898	24.5
998.031	25
999.164	24
1000.3	26
1001.43	27
1002.56	28
1003.69	26
1004.83	25.5
1005.96	28
1007.09	25.5
1008.22	31.5
1009.35	28
1010.48	24.5
1011.61	26
1012.74	24
1013.88	22
1015.01	23.5
1016.14	27.5
1017.27	27
1018.4	27
1019.53	24.5
1020.65	28.5
1021.78	26.5
1022.91	21.5
1024.04	27
1025.17	24.5
1026.3	25
1027.43	29.5
1028.56	22.5
1029.68	26
1030.81	23
1031.94	24
1033.07	25
1034.19	24.5
1035.32	25.5
1036.45	27.5
1037.58	23.5
1038.7	25
1039.83	28
1040.95	22
1042.08	24
1043.21	19
1044.33	22
1045.46	22
1046.58	25.5
1047.71	26
1048.83	26.5
1049.96	28
1051.08	24
1052.21	24
1053.33	28
1054.45	25.5
1055.58	28.5
1056.7	24
1057.82	27.5
1058.95	23.5
1060.07	21.5
1061.19	27
1062.32	26
1063.44	25.5
1064.56	23
1065.68	23
1066.81	25
1067.93	26
1069.05	25
1070.17	28
1071.29	24
1072.41	25.5
1073.53	25
1074.65	26
1075.77	26
1076.89	25.5
1078.01	26
1079.13	27.5
1080.25	28
1081.37	27
1082.49	23
1083.61	23.5
1084.73	19
1085.85	26.5
1086.97	26
1088.09	24.5
1089.2	26
1090.32	26
1091.44	26.5
1092.56	27
1093.68	23.5
1094.79	25
1095.91	22
1097.03	23
1098.14	25
1099.26	27
1100.38	23
1101.49	26
1102.61	28
1103.73	25.5
1104.84	26.5
1105.96	22.5
1107.07	23.5
1108.19	25
1109.3	26
1110.42	25
1111.53	26
1112.65	24
1113.76	24
1114.88	25
1115.99	24
1117.1	26
1118.22	25.5
1119.33	20.5
1120.44	23
1121.56	25
1122.67	26.5
1123.78	25.5
1124.89	26.5
1126.01	22.5
1127.12	26
1128.23	18
1129.34	25
1130.45	23
1131.56	22
1132.67	25.5
1133.79	27.5
1134.9	26
1136.01	23.5
1137.12	26.5
1138.23	27.5
1139.34	26
1140.45	26
1141.56	27
1142.67	25
1143.78	18.5
1144.89	23
1145.99	26
1147.1	23.5
1148.21	22.5
1149.32	23
1150.43	27.5
1151.54	25
1152.65	21.5
1153.75	23.5
1154.86	25.5
1155.97	26.5
1157.08	26.5
1158.18	19
1159.29	26.5
1160.4	24
1161.5	26
1162.61	28
1163.72	25.5
1164.82	27
1165.93	24
1167.03	25
1168.14	25.5
1169.24	27.5
1170.35	26.5
1171.45	21
1172.56	27
1173.66	27
1174.77	23
1175.87	25
1176.98	25
1178.08	25
1179.18	28
1180.29	27
1181.39	24.5
1182.49	26
1183.6	23.5
1184.7	22
1185.8	26
1186.9	27.5
1188	24
1189.11	24
1190.21	28.5
1191.31	26.5
1192.41	27.5
1193.51	24.5
1194.61	25.9981
1195.72	21.5273
1196.82	22.5908
1197.92	25.0843
1199.02	23.5097
1200.12	24.5364
1201.22	24.8422
1202.32	23.4202
1203.42	22.8914
1204.52	24.4236
1205.62	27.7325
1206.71	21.3219
1207.81	22.065
1208.91	22.9956
1210.01	22.9251
1211.11	22.8843
1212.21	23.8665
1213.31	27.3874
1214.4	22.6649
1215.5	23.1562
1216.6	21.533
1217.7	21.2306
1218.79	25.1561
1219.89	24.8683
1220.99	26.0536
1222.08	23.3674
1223.18	24.1141
1224.28	24.0987
1225.37	22.6723
1226.47	23.2747
1227.56	23.8385
1228.66	25.3711
1229.76	24.3422
1230.85	23.2099
1231.95	25.6436
1233.04	22.3327
1234.14	24.2297
1235.23	24.833
1236.32	24.2808
1237.42	26.2624
1238.51	24.848
1239.61	23.5479
1240.7	25.6003
1241.79	24.1642
1242.89	24.3672
1243.98	23.3564
1245.07	21.8824
1246.17	22.7914
1247.26	25.3586
1248.35	24.1648
1249.44	27.5132
1250.53	25.5866
1251.63	26.3079
1252.72	22.6427
1253.81	24.784
1254.9	25.7668
1255.99	25.5
1257.08	25.2791
1258.17	25.767
1259.27	26.3676
1260.36	24.8719
1261.45	23.5885
1262.54	26.1966
1263.63	25.1091
1264.72	23.3625
1265.81	24.4986
1266.89	26.0817
1267.98	23.6611
1269.07	23.1365
1270.16	24.5803
1271.25	26.1597
1272.34	25.2176
1273.43	24.6986
1274.52	21.7786
1275.6	24.0711
1276.69	23.6183
1277.78	24.7031
1278.87	25.7171
1279.95	23.5615
1281.04	22.0835
1282.13	25.1567
1283.22	24.391
1284.3	24.2066
1285.39	23.4431
1286.48	22.6282
1287.56	23.8423
1288.65	22.641
1289.73	23.9549
1290.82	24.6199
1291.9	25.4104
1292.99	24.2941
1294.07	23.8617
1295.16	24.4617
1296.24	23.6299
1297.33	26.6454
1298.41	24.5961
1299.5	24.2741
1300.58	23.7253
1301.66	24.4973
1302.75	24.0592
1303.83	25.3604
1304.91	23.6618
1306	20.7616
1306.4	20
1307.48	25.5
1308.57	24.5
1309.66	24.5
1310.75	20.5
1311.84	23
1312.92	22.5
1314.01	24.5
1315.1	22
1316.18	21
1317.27	22.5
1318.36	19
1319.44	21
1320.53	20
1321.62	23.5
1322.7	24.5
1323.79	23
1324.87	22
1325.96	23
1327.04	26.5
1328.13	23
1329.21	18
1330.3	25.5
1331.38	24.5
1332.47	24.5
1333.55	26
1334.64	21
1335.72	28.5
1336.8	24.5
1337.89	28
1338.97	27
1340.05	26
1341.14	22
1342.22	25.5
1343.3	21
1344.38	20.5
1345.47	23.5
1346.55	19.5
1347.63	24.5
1348.71	22.5
1349.79	24.5
1350.87	28.5
1351.96	25
1353.04	27
1354.12	23
1355.2	16.5
1356.28	24
1357.36	20.5
1358.44	22
1359.52	27.5
1360.6	27
1361.68	28
1362.76	23
1363.84	20.5
1364.92	22.5
1366	24.5
1367.07	24
1368.15	23
1369.23	23
1370.31	25.5
1371.39	27
1372.47	25
1373.54	28
1374.62	23
1375.7	25
1376.78	22
1377.85	26.5
1378.93	23
1380.01	23
1381.08	25
1382.16	27.5
1383.24	28
1384.31	21
1385.39	26
1386.46	24
1387.54	25
1388.61	23.5
1389.69	27
1390.76	23
1391.84	26
1392.91	24.5
1393.99	26
1395.06	26
1396.14	25.5
1397.21	26
1398.29	23.5
1399.36	29
1400.43	28
1401.51	28.5
1402.58	30.5
1403.65	31
1404.72	27
1405.8	27.5
1406.87	30
1407.94	23
1409.02	27
1410.09	30
1411.16	32.5
1412.23	28
1413.3	34
1414.37	34
1415.44	30.5
1416.51	27
1417.59	33.5
1418.66	27.5
1419.73	30
1420.8	27
1421.87	25.5
1422.94	29
1424.01	27.5
1425.08	25
1426.15	25.5
1427.22	26.5
1428.28	28
1429.35	26
1430.42	21.5
1431.49	24
1432.56	27.5
1433.63	27.5
1434.7	23
1435.76	27
1436.83	24
1437.9	25.5
1438.97	23.5
1440.03	24
1441.1	24
1442.17	25
1443.23	27.5
1444.3	26.5
1445.37	26.5
1446.43	24
1447.5	27.5
1448.57	29.5
1449.63	23.5
1450.7	24
1451.76	23
1452.83	20
1453.89	27
1454.96	29.5
1456.02	24
1457.09	20
1458.15	25
1459.22	22
1460.28	27.5
1461.34	23.5
1462.41	25
1463.47	27.5
1464.53	26.5
1465.6	28
1466.66	25.5
1467.72	26
1468.78	25
1469.85	26
1470.91	27
1471.97	25
1473.03	21.5
1474.1	24
1475.16	25
1476.22	25
1477.28	25
1478.34	24
1479.4	22
1480.46	25.5
1481.52	24
1482.58	26.5
1483.65	29.5
1484.71	22
1485.77	26
1486.82	28.5
1487.89	30
1488.94	25
1490	25
1491.06	28
1492.12	25.5
1493.18	28.5
1494.24	25
1495.3	24.5
1496.36	27
1497.41	25.5
1498.47	25.5
1499.53	28
1500.59	27
1501.65	24
1502.7	26
1503.76	25
1504.82	21.5
1505.87	24
1506.93	26.5
1507.99	25.5
1509.04	24
1510.1	25.5
1511.16	24.5
1512.21	23.5
1513.27	24.5
1514.32	25
1515.38	28.5
1516.43	28.5
1517.49	22
1518.54	24
1519.6	20
1520.65	24
1521.71	25
1522.76	26
1523.81	24
1524.87	27
1525.92	25
1526.98	24
1528.03	24
1529.08	25
1530.14	27
1531.19	25.5
1532.24	29
1533.29	26.5
1534.35	29
1535.4	23.5
1536.45	26
1537.5	27
1538.55	28
1539.61	25
1540.66	21
1541.71	28
1542.76	25.5
1543.81	26
1544.86	20
1545.91	25
1546.96	27
1548.01	20.5
1549.06	25
1550.11	20
1551.16	23
1552.21	28.5
1553.26	25.5
1554.31	30
1555.36	26.5
1556.41	26
1557.46	24
1558.5	24.5
1559.55	26.5
1560.6	24
1561.65	26
1562.7	25.5
1563.74	24.5
1564.79	21.5
1565.84	28
1566.89	24
1567.93	27
1568.98	26
1570.03	28
1571.07	23.5
1572.12	25
1573.17	31.5
1574.21	23
1575.26	23
1576.3	28
1577.35	26
1578.4	27
1579.44	19.5
1580.49	27
1581.53	26.5
1582.58	29
1583.62	23.5
1584.66	25.5
1585.71	23
1586.75	25
1587.8	28
1588.84	19
1589.88	25
1590.93	24.5
1591.97	26.5
1593.01	25
1594.06	26.5
1595.1	25
1596.14	25.5
1597.18	18
1598.23	24.5
1599.27	24
1600.31	23.5
1601.35	22.5
1602.39	25.5
1603.44	27
1604.48	21
1605.52	29.5
1606.56	25
1607.6	27
1608.64	26
1609.68	23.5
1610.72	24
1611.76	26
1612.8	24.5
1613.84	28
1614.88	24.5
1615.92	27
1616.96	23
1618	25
1619.04	27
1620.08	27
1621.12	25
1622.16	20.5
1623.19	27
1624.23	30
1625.27	24.5
1626.31	23
1627.35	26.5
1628.38	27
1629.42	24.5
1630.46	27
1631.49	26
1632.53	24
1633.57	23.5
1634.6	23.5
1635.64	24
1636.68	26
1637.71	19
1638.75	24
1639.79	25
1640.82	28.5
1641.86	27.5
1642.89	26.5
1643.93	27.5
1644.96	26
1646	24.5
1647.03	24
1648.07	23.5
1649.1	22.5
1650.13	25
1651.17	24
1652.2	26
1653.24	23
1654.27	24
1655.3	22
1656.34	26.5
1657.37	28.5
1658.4	27.5
1659.43	24
1660.47	24
1661.5	27
1662.53	26
1663.56	27
1664.6	27
1665.63	24
1666.66	26
1667.69	27
1668.72	23.5
1669.75	21.5
1670.78	24.5
1671.81	28.5
1672.85	26.5
1673.88	25
1674.91	24
1675.94	26.5
1676.97	26
1678	24.5
1679.03	25.5
1680.06	26
1681.09	26.5
1682.11	26.5
1683.14	25
1684.17	27.5
1685.2	23
1686.23	25
1687.26	27.5
1688.29	28
1689.31	28.5
1690.34	26
1691.37	25.5
1692.4	24
1693.42	26
1694.45	26
1695.48	27
1696.51	24
1697.53	26
1698.56	22
1699.59	23
1700.61	24
1701.64	22.5
1702.66	26
1703.69	25
1704.72	27
1705.74	25
1706.77	24.5
1707.79	27.5
1708.82	27.5
1709.84	28
1710.87	22.5
1711.89	23
1712.91	25
1713.94	25.5
1714.96	24.5
1715.99	29
1717.01	27.5
1718.03	26
1719.06	24
1720.08	26
1721.1	25.5
1722.13	28.5
1723.15	26.5
1724.17	25
1725.19	26
1726.22	26
1727.24	28.5
1728.26	23.5
1729.28	25.5
1730.3	26
1731.33	22
1732.35	21
1733.37	26
1734.39	22.5
1735.41	27
1736.43	23
1737.45	25
1738.47	24.5
1739.49	23
1740.51	26.5
1741.53	24
1742.55	27.5
1743.57	22
1744.59	26
1745.61	30
1746.63	25.5
1747.65	25.5
1748.67	21.5
1749.69	26
1750.7	25.5
1751.72	24
1752.74	26
1753.76	26
1754.78	30.5
1755.79	24
1756.81	24
1757.83	27
1758.85	22.5
1759.86	22
1760.88	27
1761.9	24
1762.91	26.5
1763.93	24
1764.95	23
1765.96	26
1766.98	20
1767.99	22
1769.01	26
1770.02	26
1771.04	24
1772.06	22.5
1773.07	26.5
1774.09	25
1775.1	27
1776.11	26
1777.13	22.5
1778.14	24
1779.16	26.5
1780.17	28
1781.18	22
1782.2	25
1783.21	26.5
1784.22	27.5
1785.24	24.5
1786.25	25
1787.26	22.5
1788.28	23.5
1789.29	24.5
1790.3	28
1791.31	22
1792.33	26
1793.34	20
1794.35	23.5
1795.36	24
1796.37	29
1797.38	24
1798.39	21
1799.4	28
1800.42	24.5
1801.43	27
1802.44	22.5
1803.45	27
1804.46	22
1805.47	22.5
1806.48	25
1807.49	24
1808.5	29
1809.51	26
1810.51	24
1811.52	27
1812.53	23.5
1813.54	24
1814.55	27
1815.56	27
1816.57	27
1817.57	26.5
1818.58	23
1819.59	22.5
1820.6	24
1821.61	25.5
1822.61	25
1823.62	23
1824.63	24
1825.63	22
1826.64	22
1827.65	24
1828.65	23.5
1829.66	23
1830.67	20
1831.67	28.5
1832.68	23.5
1833.68	23.5
1834.69	22.5
1835.69	23.5
1836.7	28.5
1837.7	26
1838.71	27
1839.71	19.5
1840.72	28.5
1841.72	20.5
1842.73	24
1843.73	21
1844.73	23
1845.74	21.5
1846.74	26.5
1847.74	26
1848.75	24.5
1849.75	23
1850.75	26
1851.76	26
1852.76	25.5
1853.76	25
1854.76	25.5
1855.77	24
1856.77	28
1857.77	25
1858.77	18
1859.77	21
1860.77	26
1861.78	25
1862.78	27
1863.78	26.5
1864.78	25.5
1865.78	24
1866.78	25
1867.78	23.5
1868.78	25
1869.78	26
1870.78	29
1871.78	23
1872.78	23.5
1873.78	26
1874.78	21.5
1875.78	27
1876.78	26.5
1877.78	23.5
1878.77	28.5
1879.77	23.5
1880.77	24.5
1881.77	21.5
1882.77	22.5
1883.77	22.5
1884.76	24
1885.76	23
1886.76	27.5
1887.75	27
1888.75	23
1889.75	23
1890.75	24
1891.74	24
1892.74	22.5
1893.73	24
1894.73	29
1895.73	23.5
1896.72	25
1897.72	23.5
1898.71	25.5
1899.71	25
1900.7	23.5
1901.7	26.5
1902.69	24
1903.69	25.5
1904.68	24.5
1905.68	28.5
1906.67	27
1907.67	28
1908.66	25.5
1909.65	25.5
1910.65	25.5
1911.64	26
1912.63	24
1913.63	23
1914.62	24.5
1915.61	22
1916.61	29
1917.6	26
1918.59	25
1919.58	25
1920.58	23.5
1921.57	27.5
1922.56	23.5
1923.55	22.5
1924.54	23
1925.54	25.5
1926.53	26.5
1927.52	24.5
1928.51	23
1929.5	23
1930.49	26.5
1931.48	25
1932.47	25
1933.46	19
1934.45	23.5
1935.44	24
1936.43	25
1937.42	20.5
1938.41	21.5
1939.4	28
1940.39	24.5
1941.38	23
1942.37	25.5
1943.35	24
1944.34	22
1945.33	27
1946.32	23
1947.31	21
1948.3	22.5
1949.28	24
1950.27	21
1951.26	23.5
1952.25	22
1953.23	17.5
1954.22	22
1955.21	26.5
1956.19	24
1957.18	29.5
1958.17	26.5
1959.15	26.5
1960.14	27
1961.12	23.5
1962.11	20.5
1963.1	23.5
1964.08	24
1965.07	23.5
1966.05	21.5
1967.04	26.5
1968.02	26
1969.01	25.5
1969.99	28
1970.98	23.5
1971.96	25
1972.94	23
1973.93	24.5
1974.91	23
1975.9	27
1976.88	25
1977.86	21.5
1978.85	23.5
1979.83	22.5
1980.81	26.5
1981.79	23
1982.78	20
1983.76	24.5
1984.74	27.5
1985.72	26
1986.71	22.5
1987.69	24
1988.67	27
1989.65	31
1990.63	22
1991.61	25.5
1992.59	24.5
1993.57	26.5
1994.56	23.5
1995.54	23.5
1996.52	22
1997.5	24
1998.48	26.5
1999.46	21
2000.44	23
2001.42	25
2002.4	27
2003.38	23.5
2004.36	24
2005.33	25
2006.31	23.5
2007.29	22
2008.27	22.5
2009.25	25.5
2010.23	24
2011.21	23.5
2012.18	27
2013.16	20
2014.14	24
2015.12	24
2016.09	22
2017.07	23
2018.05	25.5
2019.03	27
2020	23
2020.98	24
2021.96	22.5
2022.93	21
2023.91	20
2024.89	23
2025.86	25.5
2026.84	23.5
2027.81	23
2028.79	21.5
2029.76	25
2030.74	27.5
2031.71	27.5
2032.69	18
2033.66	21
2034.64	23.5
2035.61	23
2036.59	21
2037.56	26.5
2038.54	25.5
2039.51	24
2040.48	23
2041.46	22
2042.43	22.5
2043.4	22.5
2044.38	25
2045.35	19
2046.32	23
2047.29	25.5
2048.27	24.5
2049.24	23
2050.21	22
2051.18	27
2052.16	23
2053.13	22.5
2054.1	25.5
2055.07	23
2056.04	25
2057.01	24.5
2057.98	24.5
2058.96	24
2059.93	24.5
2060.9	24
2061.87	23
2062.84	23
2063.81	26
2064.78	20.5
2065.75	21
2066.72	26.5
2067.69	21
2068.66	20
2069.63	23
2070.6	22
2071.56	25.5
2072.53	24
2073.5	22
2074.47	23
2075.44	23.5
2076.41	25
2077.38	23
2078.34	25
2079.31	21.5
2080.28	23.5
2081.25	23.5
2082.21	19
2083.18	25.5
2084.15	20
2085.11	20.5
2086.08	23
2087.05	24.5
2088.01	22
2088.98	22
2089.95	20.5
2090.91	28.5
2091.88	23.5
2092.84	22.5
2093.81	22
2094.78	23
2095.74	22.5
2096.71	28
2097.67	18
2098.64	21
2099.6	25
2100.57	24
2101.53	23
2102.49	24
2103.46	27.5
2104.42	18.5
2105.39	20.5
2106.35	24
2107.31	27
2108.28	24.5
2109.24	24.5
2110.2	24
2111.17	22
2112.13	22.5
2113.09	22
2114.05	23
2115.02	24
2115.98	25
2116.94	26
2117.9	23
2118.86	21.5
2119.83	24
2120.79	22
2121.75	21
2122.71	21
2123.67	22.5
2124.63	22
2125.59	23
2126.55	21
2127.51	21
2128.47	21
2129.43	21.5
2130.39	24.5
2131.35	23
2132.31	23.5
2133.27	19
2134.23	23
2135.19	23.5
2136.15	23
2137.11	21.5
2138.07	22.5
2139.03	24
2139.99	20.5
2140.94	21.5
2141.9	28.5
2142.86	24.4835
2143.82	24.44
2144.78	22.0601
2145.73	18.2446
2146.69	24.3369
2147.65	21.753
2148.61	22.6253
2149.56	22.4515
2150.52	19.1783
2151.48	21.5389
2152.43	22.8854
2153.39	27.5128
2154.35	22.912
2155.3	22.1406
2156.26	20.7261
2157.21	24.6348
2158.17	19.8784
2159.13	22.346
2160.08	21.3896
2161.04	23.9801
2161.99	24.9424
2162.95	23.5807
2163.9	24.195
2164.86	24.046
2165.81	22.5052
2166.77	21.1748
2167.72	22.1556
2168.67	23.1975
2169.63	20.0083
2170.58	21.5548
2171.54	22.0372
2172.49	23.0223
2173.44	22.4871
2174.4	21.3835
2175.35	25.005
2176.3	24.1336
2177.26	21.6039
2178.21	22.3128
2179.16	22.8822
2180.11	20.7688
2181.07	24.2131
2182.02	23.4914
2182.97	21.5353
2183.92	24.5357
2184.87	22.1573
2185.82	20.3545
2186.78	23.2502
2187.73	21.5573
2188.68	22.1771
2189.63	21.4417
2190.58	22.4903
2191.53	22.9716
2192.48	21.5485
2193.43	22.072
2194.38	19.84
2195.33	23.6124
2196.28	23.1136
2197.23	23.6626
2198.18	22.3609
2199.13	20.0284
2200.08	23.1392
2201.03	22.5898
2201.98	25.1277
2202.93	22.4269
2203.88	22.9172
2204.83	24.3726
2205.77	21.4008
2206.72	24.4263
2207.67	21.8571
2208.62	21.9038
2209.57	22.3951
2210.52	21.1102
2211.46	20.4636
2212.41	21.92
2213.36	22.9303
2214.31	21.9623
2215.25	20.1887
2216.2	22.0846
2217.15	21.0814
2218.09	22.5439
2219.04	22.4883
2219.99	23.9167
2220.93	23.4872
2221.88	21.6695
2222.82	19.9573
2223.77	23.4921
2224.72	22.2757
2225.66	21.7187
2226.61	22.0704
2227.55	20.6323
2228.5	22.0466
2229.44	22.9944
2230.39	22.6716
2231.33	22.3155
2232.28	23.6982
2233.22	21.3853
2234.16	22.8627
2235.11	23.1988
2236.05	25.9661
2237	25.6674
2237.94	22.2829
2238.88	22.0621
2239.83	24.1939
2240.13	25
2241.08	24
2242.03	19
2242.98	25
2243.92	27
2244.87	21
2245.82	20.5
2246.76	25
2247.71	19
2248.66	25
2249.61	27
2250.55	22.5
2251.5	24.5
2252.45	28
2253.39	25
2254.34	20
2255.28	26
2256.23	20.5
2257.18	23
2258.12	22.5
2259.07	18.5
2260.01	24.5
2260.96	20.5
2261.9	23
2262.85	26
2263.79	21
2264.74	25
2265.68	23
2266.63	23
2267.57	20
2268.51	28
2269.46	23
2270.4	20
2271.35	25
2272.29	25.5
2273.23	19.5
2274.18	24.5
2275.12	22.5
2276.06	24.5
2277	24
2277.95	24.5
2278.89	23.5
2279.83	24.5
2280.78	21
2281.72	21.5
2282.66	24.5
2283.6	20.5
2284.54	21.5
2285.48	17
2286.43	24
2287.37	21
2288.31	25
2289.25	19
2290.19	23
2291.13	20.5
2292.07	24.5
2293.01	23
2293.95	24
2294.89	23.5
2295.83	21
2296.77	25
2297.71	19
2298.65	25
2299.59	20.5
2300.53	26
2301.47	21.5
2302.41	23
2303.35	19.5
2304.29	22.5
2305.22	23.5
2306.16	24
2307.1	21
2308.04	23.5
2308.98	23.5
2309.91	24
2310.85	23
2311.79	24
2312.73	23
2313.66	25.5
2314.6	25.5
2315.54	23.5
2316.48	19
2317.41	27
2318.35	23
2319.29	24
2320.22	20.5
2321.16	25
2322.09	23
2323.03	23
2323.97	21
2324.9	23
2325.84	24
2326.77	21.5
2327.71	25.5
2328.64	24
2329.58	23.5
2330.51	22
2331.45	22
2332.38	22.5
2333.32	23.5
2334.25	24
2335.18	25.5
2336.12	23.5
2337.05	24.5
2337.99	21
2338.92	20.5
2339.85	22
2340.79	24
2341.72	26
2342.65	22
2343.59	22.5
2344.52	23
2345.45	19
2346.38	25.5
2347.32	24
2348.25	28.5
2349.18	22
2350.11	21.5
2351.04	25
2351.98	24
2352.91	23.5
2353.84	23.5
2354.77	24.5
2355.7	23
2356.63	24.5
2357.56	20
2358.49	24.5
2359.42	22
2360.35	23.5
2361.28	22
2362.21	24
2363.14	23.5
2364.07	26.5
2365	21.5
2365.93	21.5
2366.86	21.5
2367.79	21
2368.72	22.5
2369.65	24.5
2370.58	23
2371.51	24.5
2372.44	21.5
2373.36	21
2374.29	25.5
2375.22	20
2376.15	21.5
2377.08	22.5
2378	25
2378.93	24.5
2379.86	24.5
2380.79	25
2381.71	23.5
2382.64	26
2383.57	25.5
2384.49	26.5
2385.42	24
2386.35	26.5
2387.27	24
2388.2	20.5
2389.13	25.5
2390.05	22.5
2390.98	22
2391.9	21.5
2392.83	22
2393.76	28
2394.68	23
2395.61	22.5
2396.53	21.5
2397.46	26
2398.38	27
2399.3	25
2400.23	19
2401.15	27
2402.08	26.5
2403	21.5
2403.93	21.5
2404.85	23.5
2405.77	26.5
2406.7	25.5
2407.62	20.5
2408.54	24
2409.47	24.5
2410.39	23.5
2411.31	19.5
2412.24	25
2413.16	23.5
2414.08	19
2415	16.5
2415.92	21
2416.85	21
2417.77	23.5
2418.69	22
2419.61	22
2420.53	24.5
2421.45	20
2422.38	23
2423.3	24
2424.22	22
2425.14	28
2426.06	22.5
2426.98	23
2427.9	25
2428.82	23
2429.74	24.5
2430.66	22
2431.58	23.5
2432.5	25
2433.42	23
2434.34	24
2435.26	24
2436.18	25.5
2437.1	26.5
2438.01	23.5
2438.93	22
2439.85	26
2440.77	25.5
2441.69	24.5
2442.61	22.5
2443.52	30
2444.44	23
2445.36	21.5
2446.28	23
2447.2	25
2448.11	25.5
2449.03	22
2449.95	25.5
2450.86	20.5
2451.78	22
2452.7	23
2453.61	21
2454.53	19
2455.45	25.5
2456.36	25
2457.28	24.5
2458.2	25
2459.11	25
2460.03	22
2460.94	25.5
2461.86	20.5
2462.77	28.5
2463.69	25
2464.6	26
2465.52	23.5
2466.43	23
2467.35	25
2468.26	28.5
2469.18	21.5
2470.09	21
2471	25.5
2471.92	21.5
2472.83	20
2473.74	25
2474.66	23.5
2475.57	23
2476.48	22.5
2477.4	27.5
2478.31	26
2479.22	19.5
2480.14	27
2481.05	24
2481.96	21
2482.87	22.5
2483.79	23
2484.7	20.5
2485.61	26
2486.52	24
2487.43	23
2488.34	21.5
2489.25	22
2490.17	23
2491.08	25
2491.99	26.5
2492.9	24
2493.81	24
2494.72	24
2495.63	25
2496.54	24
2497.45	23
2498.36	26.5
2499.27	24
2500.18	27
2501.09	25.5
2502	27
2502.91	25
2503.82	29
2504.73	23
2505.63	18.5
2506.54	24
2507.45	25
2508.36	23
2509.27	26.5
2510.18	26.5
2511.09	21.5
2511.99	25
2512.9	27.5
2513.81	23.5
2514.72	24.5
2515.62	23
2516.53	28
2517.44	25
2518.34	23.5
2519.25	23
2520.16	24.5
2521.06	24.5
2521.97	25
2522.88	23.5
2523.78	24
2524.69	23
2525.6	19
2526.5	25
2527.41	22
2528.31	25
2529.22	23
2530.12	23.5
2531.03	29
2531.93	26
2532.84	29.5
2533.74	21.5
2534.65	23.5
2535.55	24.5
2536.46	24
2537.36	25
2538.27	24
2539.17	25.5
2540.07	26
2540.98	22.5
2541.88	22.5
2542.78	22.5
2543.69	22
2544.59	25
2545.49	22.5
2546.4	25
2547.3	23
2548.2	21
2549.1	23
2550.01	26
2550.91	26.5
2551.81	22
2552.71	24.5
2553.61	26.5
2554.52	22
2555.42	24.5
2556.32	23.5
2557.22	26
2558.12	24.5
2559.02	26
2559.92	24
2560.82	22
2561.72	24
2562.62	24.5
2563.53	24
2564.43	23
2565.33	29
2566.23	24.5
2567.13	23
2568.03	24.5
2568.92	25.5
2569.82	23.5
2570.72	21
2571.62	20.5
2572.52	23
2573.42	24
2574.32	27
2575.22	23
2576.12	24
2577.02	24
2577.91	25.5
2578.81	22.5
2579.71	26
2580.61	25
2581.5	24
2582.4	24.5
2583.3	26
2584.2	23
2585.09	27
2585.99	20
2586.89	18.5
2587.78	25.5
2588.68	17
2589.58	25.5
2590.47	26.5
2591.37	26
2592.27	23.5
2593.16	27
2594.06	22
2594.95	26
2595.85	23.5
2596.75	24
2597.64	22
2598.54	23.5
2599.43	23.5
2600.33	24.5
2601.22	26
2602.12	24.5
2603.01	23
2603.9	26.5
2604.8	26
2605.69	25.5
2606.59	25
2607.48	22.5
2608.37	24
2609.27	24
2610.16	25.5
2611.05	25.5
2611.95	24
2612.84	21.5
2613.73	25
2614.63	22
2615.52	23.5
2616.41	25.5
2617.3	24.5
2618.2	25
2619.09	20.5
2619.98	25
2620.87	22.5
2621.76	24
2622.66	18.5
2623.55	24.5
2624.44	22
2625.33	23.5
2626.22	26
2627.11	25.5
2628	25
2628.9	20.5
2629.79	24.5
2630.68	25.5
2631.57	30.5
2632.46	24.5
2633.35	23
2634.24	23.5
2635.13	26.5
2636.02	23
2636.91	24
2637.8	22.5
2638.68	24.5
2639.57	25
2640.46	23
2641.35	20.5
2642.24	25
2643.13	24
2644.02	21.5
2644.91	27.5
2645.79	23.5
2646.68	26
2647.57	24.5
2648.46	26
2649.35	24
2650.23	21.5
2651.12	24
2652.01	24.5
2652.9	24.5
2653.78	26
2654.67	23
2655.56	25.5
2656.44	20.5
2657.33	25.5
2658.22	18
2659.1	25
2659.99	22
2660.88	24.5
2661.76	26.5
2662.65	22
2663.53	20
2664.42	23.5
2665.3	23
2666.19	26
2667.07	22
2667.96	23
2668.84	27.5
2669.73	28
2670.61	25
2671.5	25
2672.38	25
2673.27	24
2674.15	23
2675.04	25
2675.92	25.5
2676.8	23
2677.69	24.5
2678.57	21
2679.45	25
2680.34	26
2681.22	26.5
2682.1	27
2682.99	25
2683.87	20
2684.75	20.5
2685.63	23
2686.52	25
2687.4	28
2688.28	25
2689.16	28
2690.04	26
2690.93	25.5
2691.81	23
2692.69	21
2693.57	24
2694.45	22
2695.33	23
2696.21	27
2697.09	25
2697.97	25.5
2698.85	22
2699.74	25
2700.62	26
2701.5	25.5
2702.38	23
2703.26	23.5
2704.14	26.5
2705.02	26.5
2705.89	26
2706.77	29
2707.65	22.5
2708.53	25.5
2709.41	18
2710.29	24.5
2711.17	24.5
2712.05	22
2712.93	23.5
2713.8	25
2714.68	23.5
2715.56	26
2716.44	25.5
2717.32	22
2718.19	22.5
2719.07	27
2719.95	23
2720.83	29
2721.7	25
2722.58	23.5
2723.46	24
2724.33	26
2725.21	23
2726.09	24.5
2726.97	25.5
2727.84	30
2728.72	23.5
2729.59	24
2730.47	24.5
2731.35	24.5
2732.22	24
2733.1	24.5
2733.97	27.5
2734.85	23
2735.72	20.5
2736.6	22
2737.47	26.5
2738.35	20
2739.22	25.5
2740.1	23
2740.97	25
2741.84	21
2742.72	21
2743.59	25
2744.47	21
2745.34	27
2746.21	28.5
2747.09	21
2747.96	27.5
2748.83	23.5
2749.71	19
2750.58	25.5
2751.45	22
2752.33	20.5
2753.2	28
2754.07	21.5
2754.94	24.5
2755.82	22
2756.69	24
2757.56	26.5
2758.43	20
2759.3	23.5
2760.18	23.5
2761.05	26.5
2761.92	24
2762.79	18.5
2763.66	25.5
2764.53	26
2765.4	25
2766.27	24
2767.14	23.5
2768.01	25
2768.88	25
2769.75	24
2770.62	21.5
2771.49	22
2772.36	20.5
2773.23	26
2774.1	25
2774.97	27
2775.84	21.5
2776.71	24.5
2777.58	26
2778.45	26
2779.32	25
2780.19	26.5
2781.06	22.5
2781.92	24.5
2782.79	24
2783.66	25.5
2784.53	24.5
2785.4	27
2786.26	23
2787.13	25.5
2788	26.5
2788.87	24.5
2789.73	26.5
2790.6	28
2791.47	25
2792.34	24
2793.2	23
2794.07	26
2794.94	25
2795.8	26
2796.67	22
2797.53	26.5
2798.4	25
2799.27	24
2800.13	28
2801	25.75
2801.86	23.5
2802.73	25.5
2803.59	27.5
2804.46	21.5
2805.32	27
2806.19	24
2807.05	23.5
2807.92	25.5
2808.78	28
2809.65	25.5
2810.51	22.5
2811.38	25
2812.24	28.5
2813.1	25
2813.97	23.5
2814.83	28
2815.7	20
2816.56	27
2817.42	24.5
2818.29	25
2819.15	25.5
2820.01	23
2820.87	22.5
2821.74	26
2822.6	26.5
2823.46	26
2824.32	23
2825.19	29
2826.05	24.5
2826.91	23.5
2827.77	25
2828.63	23
2829.5	29
2830.36	27
2831.22	24.5
2832.08	26.5
2832.94	26.5
2833.8	28
2834.66	22
2835.52	27
2836.38	27
2837.24	26.5
2838.1	20.5
2838.96	27
2839.82	30.5
2840.68	26.5
2841.54	28
2842.4	25
2843.26	25.5
2844.12	23
2844.98	23
2845.84	22
2846.7	25
2847.56	23
2848.42	22
2849.28	23.5
2850.14	23
2850.99	27
2851.85	26
2852.71	27
2853.57	24.5
2854.43	26
2855.28	24.5
2856.14	23
2857	25
2857.86	27.5
2858.71	25
2859.57	23
2860.43	23.5
2861.28	25
2862.14	27.5
2863	27
2863.86	26
2864.71	29.5
2865.57	27
2866.42	29
2867.28	27
2868.14	29
2868.99	29
2869.85	28.5
2870.7	28.5
2871.56	31.5
2872.41	29
2873.27	28
2874.13	30
2874.98	28.5
2875.83	28.5
2876.69	24
2877.54	31
2878.4	31
2879.25	33.5
2880.11	31
2880.96	28
2881.81	31
2882.67	31.5
2883.52	29.5
2884.38	29
2885.23	35
2886.08	36.5
2886.94	33
2887.79	33
2888.64	35.5
2889.5	38.5
2890.35	38
2891.2	41.5
2892.05	38
2892.91	37.5
2893.76	43.5
2894.61	45
2895.46	45
2896.31	46
2897.17	52
2898.02	55
2898.87	51.5
2899.72	55.5
2900.57	60.5
2901.42	60
2902.27	58.5
2903.12	65
2903.98	68
2904.83	66
2905.68	69
2906.53	68
2907.38	73
2908.23	72.5
2909.08	64.5
2909.93	59
2910.78	63
2911.63	56
2912.48	53
2913.33	52
2914.18	49
2915.02	45
2915.87	47
2916.72	47
2917.57	40
2918.42	42.5
2919.27	38.5
2920.12	35.5
2920.97	35.5
2921.81	31
2922.66	35.5
2923.51	34
2924.36	33
2925.21	33
2926.05	35.5
2926.9	25
2927.75	27
2928.59	28
2929.44	30.5
2930.29	28
2931.14	24
2931.98	28.5
2932.83	31.5
2933.68	24
2934.52	32
2935.37	27
2936.21	30
2937.06	24
2937.91	28
2938.75	26
2939.6	27.5
2940.44	27.5
2941.29	25
2942.14	26.5
2942.98	25
2943.82	23
2944.67	28.5
2945.51	32
2946.36	24.5
2947.2	28.5
2948.05	33
2948.89	33.5
2949.74	28
2950.58	29.5
2951.43	29.5
2952.27	30
2953.11	35.5
2953.96	27.5
2954.8	35
2955.64	30.5
2956.49	33.5
2957.33	34
2958.17	41.5
2959.02	32
2959.86	38.5
2960.7	37.5
2961.54	41
2962.39	42
2963.23	44
2964.07	42
2964.91	50
2965.75	44
2966.6	40.5
2967.44	39
2968.28	41.5
2969.12	40
2969.96	37.5
2970.8	37
2971.64	41.4684
2972.48	36.95
2973.33	36.4387
2974.17	35.916
2975.01	37.824
2975.85	32.9283
2976.69	31.3823
2977.53	29.6686
2978.37	29.9369
2979.21	29.4116
2980.05	26.735
2980.89	27.5029
2981.73	31.2392
2982.57	30.5169
2983.41	30.8752
2984.25	25.6122
2985.08	28.449
2985.92	26.6916
2986.76	25.8898
2987.6	27.4312
2988.44	26.5473
2989.28	28.2904
2990.12	28.4115
2990.96	22.5
2991.79	24.8858
2992.63	24.5049
2993.47	25.9709
2994.31	25.6371
2995.14	26.3107
2995.98	27.062
2996.82	22.4382
2997.66	24.2938
2998.49	23.8525
2999.33	23.919
3000.17	23.81
3001	23.2231
3001.84	23.4893
3002.68	24.215
3003.51	21.8689
3004.35	24.5287
3005.19	25.0409
3006.02	22.547
3006.86	21.2489
3007.7	21.9561
3008.53	22.8423
3009.37	23.1772
3010.2	22.0505
3011.04	23.2093
3011.87	22.1954
3012.71	21.4289
3013.54	22.261
3014.38	21
3015.21	23.4676
3016.05	22.573
3016.88	23.6443
3017.72	20.9294
3018.55	23.901
3019.39	23.8546
3020.22	23.9959
3021.05	22.0283
3021.89	21.8079
3022.72	23.6509
3023.55	23.2233
3024.39	21.4195
3025.22	21.6984
3026.05	22.4563
3026.89	24.3703
3027.72	21.7773
3028.55	21.5112
3029.39	22
3030.22	21.7796
3031.05	22.7037
3031.88	24.8326
3032.72	20.8799
3033.55	20.7729
3034.38	23.7406
3035.21	22.0398
3036.04	19.649
3036.88	22.3977
3037.71	22.7912
3038.54	23.037
3039.37	22.8913
3040.2	21.3095
3041.03	23.0253
3041.86	22.4042
3042.69	22.5321
3043.52	24.2284
3044.36	23.6263
3045.19	22.8664
3046.02	22.5774
3046.85	20.1006
3047.68	20.2674
3048.51	21.4797
3049.34	22.6146
3050.17	23.2331
3051	21.0082
3051.83	21.5924
3052.66	23.8896
3053.48	23.0709
3054.31	21.1443
3055.14	21.0445
3055.97	19.8587
3056.8	21.0194
3057.29	21
3058.12	18.5
3058.95	22
3059.79	24.5
3060.62	25
3061.45	25
3062.29	25
3063.12	24.5
3063.95	22.5
3064.78	24
3065.62	25
3066.45	24.5
3067.28	25.5
3068.11	23.5
3068.94	25
3069.77	24.5
3070.61	24
3071.44	26
3072.27	20
3073.1	24
3073.93	21
3074.76	25.5
3075.59	24
3076.42	24.5
3077.25	24
3078.08	23
3078.92	19
3079.74	22
3080.57	23
3081.41	24.5
3082.24	23
3083.06	22
3083.89	23
3084.72	24
3085.55	23
3086.38	23.5
3087.21	23
3088.04	21.5
3088.87	26
3089.7	24
3090.53	24
3091.36	24
3092.18	17
3093.01	20.5
3093.84	21.5
3094.67	23.5
3095.5	18.5
3096.32	24.5
3097.15	24.5
3097.98	23
3098.81	23
3099.64	22
3100.46	27.5
3101.29	24.5
3102.12	26.5
3102.94	24
3103.77	24
3104.6	24.5
3105.42	24.5
3106.25	23.5
3107.08	23.5
3107.9	23.5
3108.73	22.5
3109.56	23.5
3110.38	20.5
3111.21	24
3112.03	23
3112.86	24
3113.68	22
3114.51	22.5
3115.33	22.5
3116.16	24
3116.98	23
3117.81	24
3118.63	24.5
3119.46	21
3120.28	25
3121.11	25
3121.93	22.5
3122.76	23.5
3123.58	21.5
3124.4	21
3125.23	21
3126.05	22.5
3126.87	22
3127.7	22
3128.52	19.5
3129.34	23
3130.17	23.5
3130.99	23.5
3131.81	26.5
3132.64	19.5
3133.46	24.5
3134.28	24.5
3135.1	25
3135.93	23
3136.75	23.5
3137.57	21.5
3138.39	22
3139.21	22.5
3140.04	21
3140.86	22.5
3141.68	23.5
3142.5	24
3143.32	24
3144.14	25
3144.96	25
3145.78	25
3146.61	25
3147.43	28
3148.25	22.5
3149.07	23
3149.89	22
3150.71	26
3151.53	24
3152.35	23
3153.17	22
3153.99	24.5
3154.81	25
3155.63	24.5
3156.45	22.5
3157.27	23
3158.08	27
3158.9	23
3159.72	24
3160.54	25.5
3161.36	26.5
3162.18	22.5
3163	23
3163.82	21
3164.63	23.5
3165.45	24
3166.27	26.5
3167.09	21
3167.91	20
3168.72	21
3169.54	22
3170.36	23.5
3171.18	20
3171.99	23.5
3172.81	21.5
3173.63	23.5
3174.44	22.5
3175.26	22
3176.08	26
3176.89	24
3177.71	23.5
3178.53	15
3179.34	23.5
3180.16	25.5
3180.97	19
3181.79	23
3182.61	22.5
3183.42	22.5
3184.24	24.5
3185.05	23
3185.87	21
3186.68	24
3187.5	20.5
3188.31	19
3189.13	22.5
3189.94	20.5
3190.76	25
3191.57	23.5
3192.39	26
3193.2	27
3194.02	20
3194.83	28
3195.64	23.5
3196.46	25
3197.27	21.5
3198.08	24
3198.9	24
3199.71	26
3200.52	22
3201.34	20.5
3202.15	23
3202.96	25
3203.78	28
3204.59	25.5
3205.4	21
3206.21	22.5
3207.03	24
3207.84	23.5
3208.65	24.5
3209.46	23.5
3210.27	22
3211.09	22
3211.9	26
3212.71	21
3213.52	22
3214.33	23
3215.14	24
3215.95	25
3216.77	23.5
3217.58	23
3218.39	20
3219.2	23
3220.01	22
3220.82	23
3221.63	22
3222.44	24.5
3223.25	19
3224.06	17
3224.87	22
3225.68	26.5
3226.49	24.5
3227.3	25
3228.11	24
3228.92	25.5
3229.73	29.5
3230.53	23.5
3231.34	19.5
3232.15	23.5
3232.96	22.5
3233.77	26
3234.58	21.5
3235.39	23.5
3236.19	21
3237	25
3237.81	25
3238.62	23.5
3239.43	19
3240.23	23.5
3241.04	22
3241.85	21.5
3242.66	24
3243.46	23.5
3244.27	27.5
3245.08	24.5
3245.89	24
3246.69	19
3247.5	23
3248.31	20
3249.11	25.5
3249.92	25.5
3250.72	20.5
3251.53	23.5
3252.34	25
3253.14	24.5
3253.95	17.5
3254.75	23.5
3255.56	27
3256.36	22.5
3257.17	22
3257.98	21.5
3258.78	24
3259.59	28
3260.39	24.5
3261.19	23
3262	21.5
3262.8	21.5
3263.61	20.5
3264.41	26
3265.22	26
3266.02	25
3266.83	23
3267.63	24
3268.43	23.5
3269.24	21
3270.04	22.5
3270.84	21
3271.65	23
3272.45	22
3273.25	21.5
3274.06	25.5
3274.86	21.5
3275.66	23
3276.46	22.5
3277.27	24
3278.07	20.5
3278.87	23
3279.67	23
3280.48	21
3281.28	22
3282.08	22
3282.88	17
3283.68	21.5
3284.48	24
3285.29	24
3286.09	22.5
3286.89	21.5
3287.69	20
3288.49	23
3289.29	22
3290.09	22.5
3290.89	25
3291.69	27
3292.49	24
3293.29	26
3294.09	23
3294.89	24.5
3295.69	22.5
3296.49	23.5
3297.29	26.5
3298.09	23
3298.89	24
3299.69	25
3300.49	24.5
3301.29	23
3302.09	25
3302.89	22.5
3303.69	20.5
3304.49	24
3305.28	21
3306.08	22.5
3306.88	24.5
3307.68	24
3308.48	22.5
3309.28	23
3310.07	24.5
3310.87	23
3311.67	27
3312.47	27
3313.26	24.5
3314.06	21
3314.86	22.5
3315.66	26.5
3316.45	24.5
3317.25	22
3318.05	24.5
3318.84	23.5
3319.64	25
3320.44	27
3321.23	23
3322.03	25.5
3322.83	25
3323.62	22
3324.42	25
3325.21	22.5
3326.01	22
3326.81	22.5
3327.6	22
3328.4	26
3329.19	21.5
3329.99	25.5
3330.78	23.5
3331.58	25.5
3332.37	23.5
3333.17	25
3333.96	24
3334.76	24
3335.55	22.5
3336.34	23.5
3337.14	22
3337.93	23.5
3338.73	24.5
3339.52	23
3340.31	25
3341.11	26
3341.9	23
3342.69	22
3343.49	25
3344.28	20.5
3345.07	23.5
3345.87	28
3346.66	27
3347.45	23.5
3348.25	24.5
3349.04	29
3349.83	22
3350.62	24
3351.42	23.5
3352.21	21
3353	22
3353.79	21
3354.58	27.5
3355.37	26.5
3356.17	28.5
3356.96	26
3357.75	24
3358.54	23.5
3359.33	23
3360.12	23
3360.91	23.5
3361.7	25.5
3362.49	26
3363.29	19.5
3364.08	25
3364.87	19
3365.66	21
3366.45	25.5
3367.24	25.5
3368.03	23
3368.82	25.5
3369.61	25.5
3370.4	22
3371.19	21.5
3371.97	22.5
3372.76	26
3373.55	26.5
3374.34	25
3375.13	24
3375.92	23.5
3376.71	27
3377.5	23.5
3378.29	21
3379.07	21
3379.86	26
3380.65	24.5
3381.44	25.5
3382.23	24.5
3383.01	24.5
3383.8	22.5
3384.59	20.5
3385.38	25.5
3386.16	27
3386.95	20
3387.74	26
3388.53	23
3389.31	21.5
3390.1	27
3390.89	24
3391.67	26
3392.46	27
3393.25	24
3394.03	25
3394.82	25
3395.6	25
3396.39	24.5
3397.18	23.5
3397.96	24.5
3398.75	19
3399.53	20.5
3400.32	27
3401.1	26
3401.89	24.5
3402.67	25
3403.46	21.5
3404.24	22.5
3405.03	23.5
3405.81	26
3406.6	21.5
3407.38	25.5
3408.17	26.5
3408.95	20
3409.74	26
3410.52	27.5
3411.3	24.5
3412.09	27
3412.87	26.5
3413.65	23
3414.44	20.5
3415.22	22
3416	22
3416.79	27.5
3417.57	24
3418.35	27.5
3419.14	23.5
3419.92	22
3420.7	25
3421.48	26.5
3422.27	24.5
3423.05	22.5
3423.83	25.5
3424.61	21
3425.4	23.5
3426.18	24.5
3426.96	23
3427.74	25.5
3428.52	23.5
3429.3	24.5
3430.08	25
3430.87	23
3431.65	22.5
3432.43	24
3433.21	23
3433.99	19
3434.77	21
3435.55	22
3436.33	22.5
3437.11	28
3437.89	23.5
3438.67	22
3439.45	23.5
3440.23	29
3441.01	23.5
3441.79	21
3442.57	21
3443.35	23
3444.13	24
3444.91	22
3445.69	24
3446.47	26
3447.25	28.5
3448.03	25
3448.8	23.5
3449.58	26
3450.36	22
3451.14	21
3451.92	24
3452.7	24
3453.47	22
3454.25	20.5
3455.03	20
3455.81	23
3456.59	27
3457.36	22.5
3458.14	23
3458.92	24
3459.69	21.5
3460.47	23
3461.25	24.5
3462.03	23
3462.8	25.5
3463.58	27
3464.36	23.5
3465.13	24.5
3465.91	20.5
3466.69	23
3467.46	28.5
3468.24	25
3469.01	26
3469.79	25
3470.57	22
3471.34	24.5
3472.12	23.5
3472.89	18
3473.67	24.5
3474.44	22
3475.22	21.5
3475.99	24
3476.77	22.5
3477.54	23
3478.32	22.5
3479.09	25.5
3479.87	23
3480.64	24
3481.41	22.5
3482.19	25.5
3482.96	24
3483.74	27.5
3484.51	23.5
3485.28	26.5
3486.06	23.5
3486.83	23
3487.6	25.5
3488.38	26.5
3489.15	21.5
3489.92	24
3490.7	21.5
3491.47	25
3492.24	23
3493.01	24
3493.79	24
3494.56	23.5
3495.33	26
3496.1	25.5
3496.88	23.5
3497.65	23.5
3498.42	24.5
3499.19	22.5
3499.96	23.5
