#Acq. time (s)=	5
#Accumulations=	5
#Range (cm-¹)=	100...3500
#Windows=	4
#Autofocus=	Off
#AutoExposure=	Off
#Spike filter=	Multiple accum.
#Delay time (s)=	0
#Binning=	1
#Readout mode=	Signal
#DeNoise=	Off
#ICS correction=	Off
#Dark correction=	Off
#Inst. Process=	Off
#Instrument=	LabRAM HR Evol
#Detector=	Syncerity OE
#Objective=	x100_VIS
#Grating=	600 (500nm)
#ND Filter=	25%
#Laser=	633nm_Edge
#Hole=	100.021
#Range=	Visible
#Project=	verificaciones
#Sample=	at1
#Site=	plain
#Title=	bolusat1plain
#Remark=	
#Date=	13.01.2026 14:22
#Acquired=	13.01.2026 14:22:46
100.692	29.5
101.975	30.5
103.258	32.5
104.542	30.5
105.824	29.5
107.107	31.5
108.39	27.5
109.672	29
110.954	29.5
112.236	29.5
113.519	30.5
114.8	29.5
116.081	32
117.362	33
118.643	28.5
119.924	28.5
121.204	31.5
122.484	32.5
123.764	31
125.044	31
126.323	34
127.603	27.5
128.882	32.5
130.161	36
131.438	34.5
132.716	34.5
133.995	33
135.273	37.5
136.55	35
137.828	33
139.106	38
140.383	36
141.66	35.5
142.937	36.5
144.213	38.5
145.488	41.5
146.764	43
148.04	36.5
149.316	38
150.592	43.5
151.867	41
153.141	42
154.416	41.5
155.69	39
156.965	40.5
158.239	41
159.512	40
160.786	43
162.059	39
163.333	38.5
164.605	41
165.878	41.5
167.15	42.5
168.423	44.5
169.694	39
170.966	41.5
172.238	35.5
173.51	41
174.78	39.5
176.052	35
177.323	42.5
178.592	44
179.863	38.5
181.134	41.5
182.403	43
183.673	40.5
184.943	38
186.211	43
187.481	45
188.749	39
190.018	46
191.287	40.5
192.554	43
193.822	40
195.089	39.5
196.357	39
197.625	43.5
198.891	36
200.159	42
201.425	38.5
202.692	34
203.957	38.5
205.224	36
206.489	42
207.755	31.5
209.02	38.5
210.286	36
211.55	37
212.815	36.5
214.079	35
215.344	32
216.607	35
217.872	35
219.135	35
220.399	31
221.662	31.5
222.924	36
224.187	34
225.449	30.5
226.713	33
227.974	30
229.235	33
230.498	31.5
231.759	35
233.019	30.5
234.281	26
235.542	28
236.802	33
238.063	27.5
239.323	31
240.582	29
241.843	29
243.102	30
244.361	32
245.621	31
246.879	31.5
248.138	29.5
249.396	30.5
250.655	27.5
251.913	32.5
253.17	25
254.427	32.5
255.686	29
256.943	33
258.199	28.5
259.456	28
260.712	32
261.969	32
263.225	32.5
264.481	28
265.736	27.5
266.991	27.5
268.246	27
269.502	25
270.757	31.5
272.011	27
273.265	27
274.519	29
275.773	23.5
277.027	31.5
278.28	29
279.533	28
280.786	24
282.04	29
283.293	27
284.545	29
285.798	30
287.049	28
288.301	30.5
289.553	30
290.804	32
292.055	30.5
293.306	29.5
294.557	29.5
295.807	31
297.058	31.5
298.308	30
299.558	31
300.808	29.5
302.057	28
303.305	28.5
304.554	24.5
305.803	26.5
307.052	27
308.3	28
309.549	31.5
310.797	28
312.045	30
313.292	31
314.54	27.5
315.786	35.5
317.033	24
318.28	30.5
319.526	30
320.773	27.5
322.019	31
323.264	29
324.51	26
325.755	28.5
327.001	28.5
328.246	27
329.49	28.5
330.735	30
331.979	29
333.224	25.5
334.467	26
335.711	30
336.955	25.5
338.199	25
339.441	30.5
340.684	31
341.927	30
343.168	35
344.411	28.5
345.654	32
346.895	27.5
348.137	31
349.379	26.5
350.619	27
351.86	27
353.102	29.5
354.341	26.5
355.582	28.5
356.821	29
358.062	28.5
359.302	29.5
360.541	31
361.781	28.5
363.019	26
364.259	26.5
365.496	27
366.736	27.5
367.974	28
369.212	25
370.45	29.5
371.687	30.5
372.925	29
374.162	31.5
375.399	30
376.635	27
377.873	31
379.109	26.5
380.344	34.5
381.581	28
382.816	28
384.052	31.5
385.287	32
386.523	26
387.757	27
388.991	29
390.227	29
391.46	26.5
392.695	29
393.928	28
395.162	26.5
396.396	25
397.629	30
398.861	32
400.095	25
401.327	27
402.559	27
403.792	25
405.024	30
406.255	32
407.488	25
408.719	29
409.949	29.5
411.18	29
412.412	26
413.642	28
414.872	31.5
416.102	28
417.333	24.5
418.562	29.5
419.791	26.5
421.02	29
422.249	28
423.479	21.5
424.707	28
425.935	29.5
427.163	27.5
428.391	27.5
429.619	27.5
430.848	26
432.075	32.5
433.302	27.5
434.529	30
435.755	30
436.982	29
438.208	28
439.434	31.5
440.66	30
441.885	29
443.111	21.5
444.338	31
445.563	30.5
446.788	28
448.012	31
449.237	29.5
450.461	28.5
451.685	34
452.909	26
454.133	26.5
455.356	28
456.579	29.5
457.802	29
459.025	26.5
460.247	29
461.469	32.5
462.691	28
463.914	29.5
465.136	35
466.357	31
467.579	32.5
468.8	36.5
470.021	35.5
471.242	32.5
472.462	34
473.682	39.5
474.903	37.5
476.123	41.5
477.343	40.5
478.563	40.5
479.782	46.5
481	44
482.219	51.5
483.438	54.5
484.657	60
485.874	57.5
487.093	61.5
488.311	67
489.529	63.5
490.747	58
491.963	58.5
493.181	58.5
494.398	51.5
495.614	58
496.83	51.5
498.047	48.5
499.264	44
500.479	50.5
501.695	44.5
502.911	45.5
504.125	38
505.34	40.5
506.554	41
507.769	40.5
508.984	38
510.198	40.5
511.412	31
512.627	41
513.839	36
515.053	33
516.266	37.5
517.479	35
518.691	34
519.905	31
521.118	33.5
522.329	32.5
523.542	34
524.753	34
525.965	32
527.176	36.5
528.388	32
529.598	29
530.809	32
532.019	30
533.23	28.5
534.44	31.5
535.649	31
536.86	29.5
538.068	29.5
539.279	27.5
540.487	28
541.697	27
542.905	32
544.113	31.5
545.322	27.5
546.53	26
547.737	27
548.946	29
550.153	28
551.361	32
552.568	27.5
553.774	29.5
554.982	31.5
556.188	32.5
557.394	30
558.599	29.5
559.806	25
561.012	31
562.217	25.5
563.423	27
564.628	30
565.832	27
567.036	26.5
568.241	27
569.446	28
570.65	25.5
571.853	29.5
573.057	28
574.26	31
575.464	26.5
576.667	28
577.87	29.5
579.072	29
580.274	29.5
581.477	31
582.68	25
583.881	32
585.083	29
586.284	29.5
587.485	27
588.686	30
589.887	27.5
591.087	28.5
592.288	33
593.488	29.5
594.688	28
595.888	29.5
597.087	28
598.287	24
599.486	27
600.685	29
601.884	26.5
603.082	32.5
604.281	28.5
605.479	28
606.677	27
607.875	30
609.073	31
610.27	25
611.468	25.5
612.665	29.5
613.862	31.5
615.058	30
616.255	28.5
617.451	22
618.648	25
619.842	30.5
621.038	25.5
622.234	26.5
623.429	30.5
624.624	30.5
625.819	26
627.013	30
628.207	29.5
629.402	29
630.596	26
631.79	25.5
632.983	23
634.177	26
635.37	29.5
636.564	27
637.755	31
638.948	22
640.141	29
641.334	27
642.525	33
643.717	29
644.909	31
646.099	30
647.291	28
648.483	28.5
649.674	31
650.864	33
652.055	30.5
653.244	25
654.435	30
655.625	31.5
656.814	32
658.004	27.5
659.193	33.5
660.382	32
661.571	28
662.759	27
663.948	32
665.135	28.5
666.324	27.5
667.511	32
668.7	26.5
669.886	31
671.074	27.5
672.262	34.5
673.448	32.5
674.634	36
675.821	32
677.007	27
678.194	34
679.379	33
680.565	34
681.75	38
682.936	37
684.121	34
685.305	33.5
686.491	34.5
687.675	33.5
688.86	31
690.043	32.5
691.227	35
692.411	35.5
693.594	32
694.777	37
695.961	38
697.144	32.5
698.326	39
699.509	41.5
700.691	39
701.873	44.5
703.056	44
704.237	43.5
705.419	43.5
706.599	48
707.782	49.5
708.962	53.5
710.143	48.5
711.323	48
712.504	44.5
713.684	46
714.864	34
716.043	30.5
717.223	35
718.403	30
719.582	32.5
720.761	31
721.94	32
723.118	28
724.296	33.5
725.474	33
726.652	30
727.831	30
729.009	29
730.186	30.5
731.363	33.5
732.54	32
733.717	30.5
734.893	29.5
736.07	27.5
737.246	32
738.422	33.5
739.598	32.5
740.773	27
741.949	31
743.124	28.5
744.299	24
745.474	27
746.649	30.5
747.823	28.5
748.997	27.5
750.172	28.5
751.346	29.5
752.519	28.5
753.693	30
754.867	28.5
756.038	30
757.211	27
758.384	24
759.557	28
760.73	26
761.902	27.5
763.074	29.5
764.246	31
765.417	32
766.588	27.5
767.76	28
768.931	28
770.102	30.5
771.271	24.5
772.442	31
773.613	30
774.783	27
775.952	30.5
777.122	31.5
778.291	30.5
779.461	28.5
780.629	29.5
781.798	31
782.967	34
784.135	30.5
785.304	32.5
786.472	33.5
787.639	28
788.807	33
789.975	37.5
791.142	30
792.309	32.5
793.477	31
794.642	32
795.81	31
796.975	28
798.142	26
799.308	34.5
800.473	28
801.639	32
802.804	30.5
803.97	25.5
805.134	30
806.299	32
807.463	27.5
808.628	29
809.792	28
810.957	30
812.12	26
813.284	30.5
814.447	24.5
815.611	32
816.773	30
817.937	28.5
819.099	26.5
820.261	32
821.424	31.5
822.585	30.5
823.748	29.5
824.909	27
826.07	26
827.232	26.5
828.393	28
829.554	24.5
830.715	25
831.875	31
833.035	29.5
834.196	29.5
835.356	30
836.515	27.5
837.676	28
838.835	27.5
839.994	31.5
841.152	25
842.312	28
843.47	26
844.629	30.5
845.786	26.5
846.946	26
848.103	30
849.261	28
850.418	30.5
851.575	25.5
852.733	33.5
853.89	31
855.046	30
856.203	29.5
857.359	31.5
858.515	27
859.67	28.5
860.827	28
861.983	29
863.138	30.5
864.293	31
865.448	30
866.603	26
867.757	32.5
868.912	30
870.066	29
871.22	29
872.374	28.5
873.527	32
874.681	26.5
875.834	26.5
876.987	27
878.14	28.5
879.293	29.5
880.445	27
881.598	28
882.75	26.5
883.902	28
885.054	31.5
886.206	28
887.357	23.5
888.507	29
889.658	27
890.809	27
891.96	27.5
893.111	30.5
894.261	26
895.411	24
896.561	27.5
897.71	26
898.86	27
900.009	27.5
901.159	29.5
902.308	26.5
903.455	29.5
904.604	28
905.753	27.5
906.901	25.5
908.048	23
909.197	26
910.344	31
911.492	28.5
912.639	27
913.786	22
914.933	23.5
916.079	25
917.226	25
918.373	23
919.518	25
920.664	26
921.81	22.5
922.955	28
924.101	27
925.245	28.5
926.391	26.5
927.536	28
928.68	28
929.825	28.5
930.968	28
932.113	27
933.256	27
934.4	29.5
935.543	26
936.687	27.5
937.83	26
938.973	28.5
940.115	28.5
941.258	28
942.399	26
943.542	26.5
944.684	31.5
945.826	27.5
946.967	23.5
948.109	22.5
949.25	28.5
950.392	27
951.532	29
952.672	27
953.813	28
954.953	28
956.093	25
957.233	29.5
958.373	28
959.512	31.5
960.652	25
961.791	30.5
962.929	26
964.069	25
965.207	27
966.345	26
967.484	25
968.622	26
969.759	26
970.896	27.75
972.035	28.5
973.172	25
974.309	29
975.445	29
976.582	27
977.719	26
978.855	32.5
979.991	27.5
981.127	22
982.263	29
983.398	26
984.535	24.5
985.67	28.5
986.804	23
987.939	25
989.074	22
990.208	27
991.342	27
992.476	29
993.61	25.5
994.744	32
995.877	26
997.01	23
998.143	23.5
999.276	28
1000.41	24.5
1001.54	22
1002.67	28
1003.81	27.5
1004.94	26
1006.07	26
1007.2	28
1008.33	29.5
1009.47	27
1010.6	26
1011.73	23.5
1012.86	24.5
1013.99	28
1015.12	26.5
1016.25	28
1017.38	24
1018.51	26.5
1019.64	25.5
1020.77	26
1021.9	28.5
1023.03	29
1024.15	24
1025.28	27.5
1026.41	27.5
1027.54	26.5
1028.67	27
1029.8	29.5
1030.92	28.5
1032.05	22
1033.18	28.5
1034.31	25
1035.43	26
1036.56	23.5
1037.69	26
1038.81	24
1039.94	28.5
1041.07	25
1042.19	27
1043.32	25.5
1044.44	27.5
1045.57	27.5
1046.69	27
1047.82	26
1048.94	26
1050.07	25
1051.19	27
1052.32	29
1053.44	28
1054.57	27
1055.69	26
1056.81	25.5
1057.94	28.5
1059.06	24
1060.18	26.5
1061.31	26
1062.43	23.5
1063.55	23.5
1064.67	22
1065.8	29.5
1066.92	27
1068.04	27.5
1069.16	22
1070.28	27
1071.4	24.5
1072.52	22
1073.64	28.5
1074.76	25.5
1075.89	26
1077.01	28
1078.13	24
1079.25	26
1080.37	21
1081.49	27.5
1082.6	26
1083.72	27.5
1084.84	24
1085.96	25.5
1087.08	25.5
1088.2	26
1089.32	26.5
1090.43	26
1091.55	27.5
1092.67	25.5
1093.79	24
1094.91	27.5
1096.02	25.5
1097.14	22.5
1098.26	25.5
1099.37	22.5
1100.49	27.5
1101.61	25.5
1102.72	27
1103.84	26.5
1104.95	22
1106.07	27.5
1107.18	29
1108.3	30
1109.41	28
1110.53	25
1111.64	27
1112.76	28.5
1113.87	24
1114.99	23.5
1116.1	27
1117.21	27
1118.33	22
1119.44	27
1120.55	26.5
1121.67	26.5
1122.78	25
1123.89	25
1125	25
1126.12	24
1127.23	27
1128.34	28
1129.45	25
1130.56	26.5
1131.68	24
1132.79	27.5
1133.9	22
1135.01	25
1136.12	24.5
1137.23	25
1138.34	27
1139.45	24.5
1140.56	24.5
1141.67	25.5
1142.78	26
1143.89	23
1145	25
1146.11	26
1147.22	21.5
1148.32	23
1149.43	23
1150.54	25
1151.65	27.5
1152.76	25
1153.86	24
1154.97	30
1156.08	22
1157.19	28
1158.29	25.5
1159.4	25
1160.51	26.5
1161.61	22.5
1162.72	24.5
1163.83	24
1164.93	29
1166.04	22
1167.14	27.5
1168.25	28
1169.35	29
1170.46	25.5
1171.56	25.5
1172.67	24.5
1173.77	23
1174.88	25.5
1175.98	28
1177.08	25.5
1178.19	22.5
1179.29	23
1180.4	23
1181.5	22.5
1182.6	24
1183.71	28.5
1184.81	23.5
1185.91	28.5
1187.01	26.5
1188.12	22.5
1189.22	25
1190.32	23.5
1191.42	24
1192.52	28
1193.62	24.5
1194.72	23.9993
1195.83	28.4103
1196.93	23.5759
1198.03	24.6701
1199.13	23.9995
1200.23	24.5497
1201.33	26.285
1202.43	23.9833
1203.53	29.1142
1204.63	25.3301
1205.73	23.3809
1206.83	23.1207
1207.92	22.3509
1209.02	22.181
1210.12	26.677
1211.22	23.4998
1212.32	24.3563
1213.42	23.2322
1214.51	23.9678
1215.61	25.9536
1216.71	27.2156
1217.81	25.6511
1218.9	25.3686
1220	25.5915
1221.1	22.7985
1222.19	18.1118
1223.29	22.2488
1224.39	23.4887
1225.48	25.5765
1226.58	26.0164
1227.68	24.3016
1228.77	23.8159
1229.87	26.3399
1230.96	24.1748
1232.06	23.5174
1233.15	22.1982
1234.25	23.4144
1235.34	24.7739
1236.43	25.7703
1237.53	26.5698
1238.62	22.4454
1239.72	24.583
1240.81	23.0981
1241.9	24.7923
1243	25.2137
1244.09	23.4425
1245.18	24.374
1246.27	26.3161
1247.37	23.0918
1248.46	25.4265
1249.55	24.6121
1250.64	22.727
1251.74	24.234
1252.83	25.0111
1253.92	23.7674
1255.01	28.1907
1256.1	25.1233
1257.19	25.6635
1258.28	26.0433
1259.38	27.3996
1260.46	25.056
1261.56	23.6224
1262.65	27.2301
1263.74	26.5058
1264.82	26.9722
1265.91	24.1573
1267	27.0886
1268.09	23.4246
1269.18	26.9146
1270.27	25.4699
1271.36	26.285
1272.45	22.1464
1273.54	21.9063
1274.63	23.6177
1275.71	21.0759
1276.8	23.8133
1277.89	26.4435
1278.98	24.7472
1280.06	25.1809
1281.15	25
1282.24	28.4496
1283.32	26.7603
1284.41	27.4354
1285.5	24.4672
1286.58	23.3204
1287.67	24.5914
1288.76	24.4343
1289.84	24.4733
1290.93	25.1137
1292.01	26.8496
1293.1	24.2578
1294.18	25.3966
1295.27	23.5861
1296.35	24.0241
1297.44	24.0284
1298.52	24.0364
1299.6	23.6496
1300.69	24.6083
1301.77	23.2344
1302.86	25.011
1303.94	24.5437
1305.02	24.9962
1306.11	24.4037
1306.41	24
1307.5	22.5
1308.59	24
1309.68	24
1310.77	24.5
1311.85	27.5
1312.94	23.5
1314.03	24
1315.11	28
1316.2	25
1317.29	24.5
1318.37	29.5
1319.46	23.5
1320.55	26.5
1321.63	24.5
1322.72	24.5
1323.8	27
1324.89	21.5
1325.98	25.5
1327.06	25.5
1328.15	23
1329.23	22.5
1330.31	22.5
1331.4	25
1332.48	23
1333.57	27
1334.65	23
1335.74	24.5
1336.82	22
1337.9	27
1338.99	25.5
1340.07	24.5
1341.15	21
1342.24	27
1343.32	24
1344.4	26.5
1345.48	23.5
1346.56	20.5
1347.65	26.5
1348.73	27.5
1349.81	25
1350.89	24.5
1351.97	25
1353.05	24
1354.13	26
1355.21	25
1356.29	23
1357.37	22
1358.46	25
1359.54	25.5
1360.62	26
1361.69	25
1362.77	29
1363.85	22.5
1364.93	29.5
1366.01	25
1367.09	27
1368.17	26
1369.25	23
1370.33	28
1371.41	29
1372.48	24
1373.56	25.5
1374.64	25
1375.72	26
1376.79	30
1377.87	26.5
1378.95	22.5
1380.02	26.5
1381.1	24
1382.18	24
1383.25	25
1384.33	28.5
1385.4	24
1386.48	25.5
1387.56	24
1388.63	27
1389.71	28
1390.78	24
1391.86	27.5
1392.93	29
1394.01	29
1395.08	28.5
1396.15	24
1397.23	29
1398.3	30
1399.38	27
1400.45	24.5
1401.52	31
1402.6	33.5
1403.67	28
1404.74	27.5
1405.81	29.5
1406.89	28
1407.96	31.5
1409.03	29
1410.1	33
1411.17	28
1412.25	32
1413.32	31
1414.39	30
1415.46	32.5
1416.53	32
1417.6	29.5
1418.67	27
1419.74	32.5
1420.81	27.5
1421.88	30.5
1422.95	28.5
1424.02	26
1425.09	24
1426.16	30.5
1427.23	26.5
1428.3	28.5
1429.37	27.5
1430.44	28.5
1431.51	26
1432.58	26.5
1433.64	24.5
1434.71	24.5
1435.78	27
1436.85	25
1437.92	27.5
1438.98	26.5
1440.05	26
1441.12	23.5
1442.18	26.5
1443.25	28
1444.32	26.5
1445.38	27.5
1446.45	24.5
1447.52	27.5
1448.58	24
1449.65	25
1450.71	27
1451.78	25.5
1452.84	28.5
1453.91	27
1454.97	21.5
1456.04	26
1457.1	26
1458.17	27.5
1459.23	27.5
1460.3	24
1461.36	25.5
1462.42	23
1463.49	28
1464.55	25.5
1465.61	24.5
1466.68	24.5
1467.74	28.5
1468.8	24.5
1469.86	25
1470.93	26.5
1471.99	26
1473.05	26.5
1474.11	26
1475.17	23
1476.24	29
1477.3	25
1478.36	24.5
1479.42	23
1480.48	29
1481.54	26
1482.6	31.5
1483.66	29
1484.72	22
1485.78	23
1486.84	26
1487.9	29.5
1488.96	25
1490.02	23
1491.08	25.5
1492.14	26
1493.2	27
1494.26	24
1495.31	33.5
1496.37	27
1497.43	23
1498.49	24.5
1499.55	23
1500.6	27.5
1501.66	26
1502.72	25
1503.78	25.5
1504.83	26
1505.89	27
1506.95	27.5
1508	29.5
1509.06	27
1510.12	24
1511.17	27.5
1512.23	24.5
1513.28	26
1514.34	22
1515.39	26.5
1516.45	24
1517.5	26.5
1518.56	26.5
1519.61	25.5
1520.67	22.5
1521.72	26.5
1522.78	25.5
1523.83	25
1524.88	20.5
1525.94	29
1526.99	29.5
1528.05	26
1529.1	27
1530.15	28.5
1531.2	27
1532.26	23
1533.31	25.5
1534.36	26.5
1535.41	23
1536.47	25
1537.52	23.5
1538.57	26.5
1539.62	24.5
1540.67	25.5
1541.72	28
1542.77	22
1543.83	27
1544.88	29
1545.93	27
1546.98	25.5
1548.03	27
1549.08	26
1550.13	26
1551.18	26.5
1552.23	21.5
1553.28	23
1554.32	28.5
1555.37	26
1556.42	27.5
1557.47	25.5
1558.52	31
1559.57	24.5
1560.62	27
1561.67	21
1562.71	24
1563.76	24
1564.81	27.5
1565.86	25.5
1566.9	25
1567.95	24.5
1569	27
1570.04	28
1571.09	26
1572.14	23.5
1573.18	26
1574.23	26.5
1575.27	25.5
1576.32	27.5
1577.37	24
1578.41	26
1579.46	27.5
1580.5	25
1581.55	28
1582.59	26
1583.64	25
1584.68	25
1585.72	23
1586.77	24.5
1587.81	25
1588.86	24
1589.9	22.5
1590.94	26.5
1591.99	26
1593.03	28
1594.07	22.5
1595.12	31
1596.16	27
1597.2	25
1598.24	28.5
1599.29	25
1600.33	25.5
1601.37	29
1602.41	25
1603.45	26
1604.49	23
1605.53	22.5
1606.58	23.5
1607.62	23.5
1608.66	26.5
1609.7	24.5
1610.74	23
1611.78	26
1612.82	26
1613.86	27.5
1614.9	27
1615.94	24
1616.98	25.5
1618.02	28
1619.06	27.5
1620.09	29.5
1621.13	20.5
1622.17	23.5
1623.21	25
1624.25	24
1625.29	25.5
1626.32	21
1627.36	28.5
1628.4	23
1629.44	27
1630.47	22
1631.51	26
1632.55	22.5
1633.58	30.5
1634.62	24.5
1635.66	23.5
1636.69	25
1637.73	25.5
1638.77	27.5
1639.8	23
1640.84	23.5
1641.87	25
1642.91	24
1643.94	24
1644.98	23.5
1646.01	25
1647.05	27.5
1648.08	28
1649.12	25.5
1650.15	28.5
1651.18	28
1652.22	20
1653.25	28
1654.29	25.5
1655.32	26
1656.35	23
1657.39	23.5
1658.42	28.5
1659.45	26
1660.48	25
1661.52	23
1662.55	27
1663.58	24
1664.61	29
1665.64	24
1666.68	24
1667.71	29
1668.74	26.5
1669.77	24.5
1670.8	25.5
1671.83	24
1672.86	21
1673.89	24
1674.92	23
1675.95	25.5
1676.98	23
1678.01	29
1679.04	24
1680.07	26
1681.1	26
1682.13	24
1683.16	26.5
1684.19	22
1685.22	27
1686.25	22
1687.27	21.5
1688.3	24.5
1689.33	26.5
1690.36	26
1691.38	28
1692.41	26
1693.44	25.5
1694.47	26.5
1695.49	25
1696.52	22.5
1697.55	26
1698.57	23
1699.6	24.5
1700.63	24
1701.65	26
1702.68	25
1703.7	27.5
1704.73	22
1705.76	27
1706.78	20
1707.81	29.5
1708.83	29
1709.86	24
1710.88	26
1711.91	25.5
1712.93	20
1713.95	27
1714.98	27.5
1716	24.5
1717.03	24.5
1718.05	24
1719.07	23
1720.1	28.5
1721.12	26.5
1722.14	25.5
1723.16	24
1724.19	27.5
1725.21	25.5
1726.23	27.5
1727.25	28
1728.28	23
1729.3	28
1730.32	27.5
1731.34	25
1732.36	24
1733.38	23
1734.41	25.5
1735.43	23
1736.45	25
1737.47	22
1738.49	26
1739.51	27
1740.53	25
1741.55	24.5
1742.57	25
1743.59	30
1744.61	25
1745.63	28.5
1746.64	26.5
1747.66	25
1748.68	25.5
1749.7	26
1750.72	27
1751.74	25
1752.76	30.5
1753.77	25.5
1754.79	26
1755.81	27.5
1756.83	25.5
1757.84	20
1758.86	26
1759.88	26
1760.9	26.5
1761.91	25
1762.93	26
1763.95	24.5
1764.96	24
1765.98	21
1766.99	28
1768.01	24
1769.02	24
1770.04	25.5
1771.06	27
1772.07	26
1773.09	29
1774.1	23
1775.12	26
1776.13	27
1777.14	25.5
1778.16	23
1779.17	26
1780.19	21
1781.2	28.5
1782.21	23.5
1783.23	20.5
1784.24	27
1785.25	25
1786.27	22.5
1787.28	22
1788.29	23.5
1789.3	23
1790.32	28.5
1791.33	27.5
1792.34	25
1793.35	26
1794.36	25
1795.38	24.5
1796.39	23
1797.4	25.5
1798.41	28
1799.42	25.5
1800.43	24.5
1801.44	23.5
1802.45	26
1803.46	26
1804.47	28.5
1805.48	26.5
1806.49	24.5
1807.5	24
1808.51	24.5
1809.52	25.5
1810.53	26
1811.54	25
1812.55	27.5
1813.56	25.5
1814.57	21
1815.57	27
1816.58	23.5
1817.59	24.5
1818.6	21
1819.61	27.5
1820.61	25
1821.62	24.5
1822.63	27
1823.64	24
1824.64	23
1825.65	24
1826.66	25
1827.66	25
1828.67	22
1829.68	25
1830.68	22.5
1831.69	20
1832.69	22.5
1833.7	29
1834.7	24
1835.71	26
1836.71	24
1837.72	26
1838.72	23
1839.73	28
1840.73	25.5
1841.74	25
1842.74	25
1843.75	25
1844.75	27
1845.75	24.5
1846.76	24.5
1847.76	25
1848.76	23.5
1849.77	25.5
1850.77	22
1851.77	23
1852.78	22
1853.78	25
1854.78	28
1855.78	24.5
1856.78	25
1857.79	22
1858.79	25.5
1859.79	21.5
1860.79	21
1861.79	23
1862.79	25
1863.79	20
1864.79	30
1865.79	27.5
1866.8	27
1867.8	22.5
1868.8	28.5
1869.8	24.5
1870.8	28
1871.8	21
1872.8	25
1873.79	24.5
1874.79	25.5
1875.79	25.5
1876.79	22
1877.79	23
1878.79	22.5
1879.79	25.5
1880.79	22
1881.78	27.5
1882.78	26.5
1883.78	27.5
1884.78	24
1885.77	28.5
1886.77	18
1887.77	25.5
1888.77	25
1889.76	28
1890.76	25
1891.76	26
1892.75	26.5
1893.75	25
1894.75	27.5
1895.74	23
1896.74	23
1897.73	22
1898.73	21
1899.73	23.5
1900.72	26.5
1901.72	24.5
1902.71	24.5
1903.7	25
1904.7	24
1905.69	23
1906.69	26.5
1907.68	23
1908.68	26
1909.67	22.5
1910.66	27
1911.66	25.5
1912.65	21
1913.64	26.5
1914.64	28.5
1915.63	24
1916.62	26.5
1917.62	26.5
1918.61	26
1919.6	21.5
1920.59	26.5
1921.58	28
1922.58	29
1923.57	27.5
1924.56	23
1925.55	24
1926.54	23
1927.53	25.5
1928.52	26.5
1929.51	27.5
1930.51	20.5
1931.5	23
1932.49	23.5
1933.48	25.5
1934.47	26
1935.46	26.5
1936.45	24.5
1937.44	30
1938.42	21.5
1939.41	24
1940.4	20.5
1941.39	22
1942.38	24
1943.37	26
1944.36	24
1945.35	26
1946.33	23
1947.32	22.5
1948.31	23
1949.3	23
1950.29	20
1951.27	23.5
1952.26	20.5
1953.25	22.5
1954.23	20.5
1955.22	25.5
1956.21	22.5
1957.19	26
1958.18	26.5
1959.17	24
1960.15	21.5
1961.14	25.5
1962.13	24.5
1963.11	25.5
1964.1	28.5
1965.08	24
1966.07	25
1967.05	22
1968.04	24
1969.02	28
1970.01	22.5
1970.99	23.5
1971.97	25
1972.96	23
1973.94	25
1974.93	25.5
1975.91	26.5
1976.89	26.5
1977.88	26.5
1978.86	25
1979.84	23
1980.83	23
1981.81	27.5
1982.79	22.5
1983.77	26.5
1984.76	23
1985.74	25.5
1986.72	21.5
1987.7	22.5
1988.68	23
1989.67	22
1990.65	26
1991.63	26
1992.61	21
1993.59	26
1994.57	25
1995.55	26.5
1996.53	21.5
1997.51	24
1998.49	22
1999.47	27
2000.45	27
2001.43	24.5
2002.41	23
2003.39	25.5
2004.37	21
2005.35	23.5
2006.33	22
2007.31	26.5
2008.29	25
2009.26	22.5
2010.24	25.5
2011.22	26.5
2012.2	24.5
2013.18	25.5
2014.15	25.5
2015.13	24
2016.11	28
2017.09	25.5
2018.06	20.5
2019.04	26
2020.02	26
2021	22
2021.97	23
2022.95	23
2023.92	20
2024.9	24
2025.88	26
2026.85	23.5
2027.83	26.5
2028.8	26
2029.78	24
2030.75	22.5
2031.73	25.5
2032.7	22
2033.68	23
2034.65	24.5
2035.63	25
2036.6	27.5
2037.58	22.5
2038.55	27
2039.52	27.5
2040.5	23
2041.47	23
2042.45	23.5
2043.42	26.5
2044.39	27
2045.36	27
2046.34	25.5
2047.31	24
2048.28	23
2049.26	24.5
2050.23	28
2051.2	24.5
2052.17	23
2053.14	25
2054.12	24.5
2055.09	23
2056.06	25.5
2057.03	19
2058	23.5
2058.97	25.5
2059.94	25.5
2060.91	23
2061.88	18
2062.85	21.5
2063.82	23
2064.79	27.5
2065.76	25
2066.73	23.5
2067.7	26
2068.67	24
2069.64	25.5
2070.61	25.5
2071.58	23.5
2072.55	17
2073.52	25.5
2074.49	26.5
2075.45	22.5
2076.42	21.5
2077.39	23.5
2078.36	25
2079.33	26
2080.29	25
2081.26	24
2082.23	23
2083.2	24
2084.16	24
2085.13	21
2086.1	21
2087.06	21
2088.03	23
2089	24
2089.96	23
2090.93	23
2091.89	23.5
2092.86	24
2093.83	22.5
2094.79	19
2095.76	22.5
2096.72	23.5
2097.69	25
2098.65	24.5
2099.62	25
2100.58	22
2101.55	23
2102.51	25
2103.47	25
2104.44	22
2105.4	29
2106.36	27
2107.33	20.5
2108.29	26
2109.25	23
2110.22	24
2111.18	25.5
2112.14	25
2113.11	23.5
2114.07	20
2115.03	24
2115.99	26.5
2116.96	25
2117.92	27
2118.88	26
2119.84	27
2120.8	22
2121.76	23.5
2122.72	25.5
2123.68	22
2124.65	20.5
2125.61	26
2126.57	21
2127.53	21
2128.49	21
2129.45	22.5
2130.41	26.5
2131.37	25
2132.33	21.5
2133.29	23
2134.25	25
2135.21	23.5
2136.17	25
2137.12	23.5
2138.08	20.5
2139.04	23.5
2140	22.5
2140.96	22.5
2141.92	26.5
2142.88	21.0056
2143.83	23.9582
2144.79	19.6025
2145.75	22.0524
2146.71	18.2652
2147.66	24.834
2148.62	23.9126
2149.58	20.1823
2150.53	21.2901
2151.49	23.4045
2152.45	21.8958
2153.4	21.3951
2154.36	23.0138
2155.32	22.1821
2156.27	22.1408
2157.23	21.301
2158.19	21.2709
2159.14	24.2346
2160.1	19.5993
2161.05	22.8738
2162.01	23.1598
2162.96	21.0378
2163.92	26.3177
2164.87	22.0363
2165.83	23.1084
2166.78	25.237
2167.73	23.366
2168.69	22.1273
2169.64	22.1357
2170.6	21.3444
2171.55	21.7039
2172.5	22.3684
2173.46	22.7967
2174.41	23.1391
2175.36	24.3613
2176.32	19.1857
2177.27	22.8951
2178.22	20.3268
2179.18	22.8991
2180.13	23.1745
2181.08	23.4897
2182.03	20.774
2182.98	21.6755
2183.94	22.7475
2184.89	20.6343
2185.84	22.7532
2186.79	22.8906
2187.74	22.9497
2188.69	24.017
2189.64	20.4994
2190.6	22.2296
2191.55	20.1983
2192.5	21.2362
2193.45	22.5286
2194.4	22.7918
2195.35	19.2599
2196.3	19.9449
2197.25	22.7807
2198.2	21.4044
2199.15	21.893
2200.1	20.9896
2201.04	23.1518
2201.99	22.2297
2202.94	22.5537
2203.89	21.2594
2204.84	23.2963
2205.79	23.3427
2206.74	23.7591
2207.69	21.3346
2208.63	25.0665
2209.58	23.5737
2210.53	24.1837
2211.48	24.2597
2212.43	24.1008
2213.37	22.0223
2214.32	24.7957
2215.27	21.273
2216.21	25.6879
2217.16	22.6778
2218.11	24.7741
2219.05	21.5974
2220	20.3576
2220.95	19.0057
2221.89	21.669
2222.84	23.1383
2223.78	23.8158
2224.73	22.8233
2225.68	22.5099
2226.62	24.2975
2227.57	20.9224
2228.51	23.3921
2229.46	22.9291
2230.4	22.7549
2231.35	20.7959
2232.29	23.3768
2233.24	21.6986
2234.18	21.0947
2235.12	22.8975
2236.07	21.9775
2237.01	21.1738
2237.95	19.5844
2238.9	22.0976
2239.84	23.3754
2240.06	23.5
2241.01	27
2241.96	23.5
2242.91	24
2243.86	23.5
2244.8	20
2245.75	23.5
2246.7	22.5
2247.65	22
2248.59	24
2249.54	18
2250.49	24.5
2251.43	21
2252.38	22.5
2253.33	19
2254.27	25.5
2255.22	23
2256.16	25
2257.11	22
2258.06	25.5
2259	22
2259.95	19
2260.89	21.5
2261.84	22
2262.78	21.5
2263.73	19.5
2264.67	22
2265.62	24.5
2266.56	23
2267.5	23
2268.45	23
2269.39	23
2270.34	24
2271.28	23
2272.22	24
2273.17	24
2274.11	22.5
2275.05	21
2276	24.5
2276.94	23
2277.88	22.5
2278.82	23.5
2279.77	18.5
2280.71	23
2281.65	25
2282.59	22
2283.53	24.5
2284.48	23
2285.42	20
2286.36	23
2287.3	21.5
2288.24	22
2289.18	21.5
2290.12	21
2291.06	23.5
2292	19
2292.94	24.5
2293.89	22.5
2294.83	23
2295.77	21.5
2296.71	24
2297.65	20.5
2298.58	24
2299.52	24
2300.46	28
2301.4	22.5
2302.34	23.5
2303.28	25
2304.22	23.5
2305.16	21.5
2306.1	23
2307.03	22
2307.97	24
2308.91	26.5
2309.85	20.5
2310.79	22.5
2311.72	23
2312.66	18
2313.6	24.5
2314.54	24
2315.47	22.5
2316.41	24.5
2317.35	26
2318.28	23
2319.22	21
2320.16	22.5
2321.09	24.5
2322.03	23
2322.96	26
2323.9	27.5
2324.84	27
2325.77	24
2326.71	19.5
2327.64	23.5
2328.58	23
2329.51	22
2330.45	24.5
2331.38	22.5
2332.32	23.5
2333.25	23.5
2334.18	26.5
2335.12	25
2336.05	22
2336.99	23
2337.92	21
2338.85	22.5
2339.79	26
2340.72	25.5
2341.65	25.5
2342.59	18
2343.52	27
2344.45	23
2345.39	19
2346.32	22
2347.25	27
2348.18	22.5
2349.11	21
2350.05	24.5
2350.98	21.5
2351.91	22.5
2352.84	26
2353.77	23
2354.7	24.5
2355.64	24
2356.57	22
2357.5	23.5
2358.43	24.5
2359.36	24
2360.29	22.5
2361.22	23.5
2362.15	21.5
2363.08	24
2364.01	27
2364.94	25
2365.87	25
2366.8	23
2367.73	24
2368.66	23
2369.58	24.5
2370.51	27
2371.44	24
2372.37	17.5
2373.3	21
2374.23	24.5
2375.16	24
2376.08	26
2377.01	23
2377.94	23
2378.87	25.5
2379.8	22
2380.72	23
2381.65	23
2382.58	25
2383.5	22
2384.43	25
2385.36	25
2386.28	25
2387.21	24.5
2388.14	24
2389.06	25
2389.99	24.5
2390.91	22
2391.84	21.5
2392.77	21
2393.69	21.5
2394.62	23
2395.54	20
2396.47	22.5
2397.39	22.5
2398.32	24
2399.24	23.5
2400.16	22.5
2401.09	22.5
2402.01	24
2402.94	27
2403.86	21.5
2404.78	22
2405.71	20.5
2406.63	28
2407.56	25
2408.48	24
2409.4	23.5
2410.32	25.5
2411.25	20.5
2412.17	25
2413.09	25
2414.02	18
2414.94	22
2415.86	21
2416.78	25.5
2417.7	20
2418.63	24.5
2419.55	21
2420.47	22
2421.39	24
2422.31	24
2423.23	23
2424.15	20
2425.07	26
2425.99	19
2426.92	22
2427.84	19
2428.76	22
2429.68	25
2430.59	24
2431.51	23.5
2432.43	23.5
2433.35	22.5
2434.27	23
2435.19	20
2436.11	26.5
2437.03	23
2437.95	22.5
2438.87	21.5
2439.79	23.5
2440.71	30
2441.62	20
2442.54	25.5
2443.46	23
2444.38	21.5
2445.3	26
2446.21	22.5
2447.13	25
2448.05	21.5
2448.97	25.5
2449.88	23
2450.8	22.5
2451.72	27
2452.63	19.5
2453.55	21
2454.47	25
2455.38	25.5
2456.3	23
2457.21	22.5
2458.13	27.5
2459.05	24
2459.96	22
2460.88	23
2461.79	18.5
2462.71	25.5
2463.62	21
2464.54	25
2465.45	24
2466.37	25.5
2467.28	25
2468.2	30
2469.11	22.5
2470.02	22.5
2470.94	22.5
2471.85	27
2472.77	23
2473.68	22.5
2474.59	24
2475.51	24
2476.42	24.5
2477.33	24
2478.25	23
2479.16	27
2480.07	23.5
2480.98	23.5
2481.9	24
2482.81	21.5
2483.72	27
2484.63	27.5
2485.55	24.5
2486.46	20
2487.37	25
2488.28	25.5
2489.19	25.5
2490.1	22
2491.01	24
2491.92	25.5
2492.83	28
2493.74	25.5
2494.66	23
2495.57	25.5
2496.48	24.5
2497.39	24
2498.3	22
2499.21	19
2500.12	21.5
2501.03	24.5
2501.93	25.5
2502.84	28
2503.75	25
2504.66	26
2505.57	24
2506.48	26
2507.39	22
2508.3	21.5
2509.21	27
2510.11	24.5
2511.02	24
2511.93	25.5
2512.84	24
2513.75	21.5
2514.65	25
2515.56	23
2516.47	25.5
2517.37	23.5
2518.28	23
2519.19	24
2520.09	23.5
2521	22
2521.91	26.5
2522.81	29.5
2523.72	21
2524.63	19.5
2525.53	23
2526.44	27.5
2527.34	22.5
2528.25	26
2529.16	23
2530.06	26.5
2530.97	23
2531.87	26
2532.78	26
2533.68	26.5
2534.58	25.5
2535.49	24.5
2536.39	24.5
2537.3	25
2538.2	25.5
2539.11	26.5
2540.01	23
2540.91	23.5
2541.82	23
2542.72	25.5
2543.62	24.5
2544.53	23.5
2545.43	21
2546.33	19.5
2547.23	24.5
2548.14	22
2549.04	26
2549.94	23.5
2550.84	26.5
2551.75	23
2552.65	26
2553.55	25
2554.45	27
2555.35	24.5
2556.26	24
2557.16	24
2558.06	25.5
2558.96	25.5
2559.86	23
2560.76	22
2561.66	29.5
2562.56	26
2563.46	23.5
2564.36	25
2565.26	20.5
2566.16	23.5
2567.06	23.5
2567.96	23
2568.86	23
2569.76	27.5
2570.66	25
2571.56	22.5
2572.46	26
2573.36	26.5
2574.26	24.5
2575.16	26.5
2576.05	27
2576.95	22
2577.85	24.5
2578.75	27
2579.65	25
2580.54	25
2581.44	21.5
2582.34	27
2583.24	23
2584.13	21.5
2585.03	23.5
2585.93	24.5
2586.83	22
2587.72	28
2588.62	23.5
2589.52	22
2590.41	26
2591.31	23.5
2592.2	23.5
2593.1	25
2594	27
2594.89	26
2595.79	25.5
2596.68	27
2597.58	24.5
2598.47	25.5
2599.37	23.5
2600.26	23.5
2601.16	20.5
2602.05	23.5
2602.95	22
2603.84	24
2604.74	24.5
2605.63	24.5
2606.52	21.5
2607.42	24
2608.31	22.5
2609.21	24
2610.1	24.5
2610.99	23
2611.89	23.5
2612.78	23.5
2613.67	24
2614.56	26
2615.46	24
2616.35	25
2617.24	27
2618.13	25
2619.03	28
2619.92	18.5
2620.81	20
2621.7	22.5
2622.59	24.5
2623.49	25.5
2624.38	22
2625.27	22
2626.16	29
2627.05	27
2627.94	23.5
2628.83	22.5
2629.72	26
2630.61	22.5
2631.5	27
2632.39	22.5
2633.28	25
2634.17	23
2635.06	23
2635.95	24
2636.84	27
2637.73	26
2638.62	26
2639.51	26
2640.4	28.5
2641.29	25
2642.18	24.5
2643.07	24
2643.96	24
2644.84	22
2645.73	21.5
2646.62	24
2647.51	25
2648.4	24
2649.28	22
2650.17	27.5
2651.06	23.5
2651.95	25
2652.83	24
2653.72	24.5
2654.61	23
2655.49	24.5
2656.38	24.5
2657.27	28
2658.16	25.5
2659.04	25
2659.93	23
2660.81	25
2661.7	22
2662.59	22
2663.47	22.5
2664.36	24
2665.24	27
2666.13	25.5
2667.01	23.5
2667.9	25.5
2668.78	23
2669.67	26
2670.55	24
2671.44	22
2672.32	26
2673.21	23
2674.09	26.5
2674.97	27
2675.86	23
2676.74	24.5
2677.62	23
2678.51	23
2679.39	24
2680.27	24
2681.16	25.5
2682.04	25
2682.92	27.5
2683.81	28
2684.69	23
2685.57	25.5
2686.45	25
2687.34	22
2688.22	22
2689.1	21
2689.98	27
2690.86	26.5
2691.75	25.5
2692.63	22
2693.51	24
2694.39	27.5
2695.27	22.5
2696.15	24
2697.03	23
2697.91	25
2698.79	24
2699.67	28
2700.55	23
2701.43	24
2702.31	22
2703.19	26.5
2704.07	21.5
2704.95	27.5
2705.83	21
2706.71	22
2707.59	23.5
2708.47	25
2709.35	22.5
2710.23	24
2711.11	25
2711.99	25
2712.86	23.5
2713.74	23
2714.62	22.5
2715.5	20.5
2716.38	25
2717.26	24.5
2718.13	21
2719.01	26
2719.89	23
2720.77	22.5
2721.64	21
2722.52	24.5
2723.4	23
2724.27	24
2725.15	22.5
2726.03	22.5
2726.9	27.5
2727.78	28.5
2728.66	23
2729.53	24
2730.41	24
2731.28	23
2732.16	22
2733.03	25.5
2733.91	21.5
2734.79	22
2735.66	25
2736.54	21
2737.41	23.5
2738.29	21
2739.16	22
2740.03	21
2740.91	24
2741.78	25
2742.66	26
2743.53	24.5
2744.41	22
2745.28	22.5
2746.15	26
2747.03	23
2747.9	24.5
2748.77	25
2749.65	25
2750.52	27
2751.39	22
2752.27	23
2753.14	22
2754.01	24.5
2754.88	26
2755.75	21
2756.63	25
2757.5	21
2758.37	24.5
2759.24	21.5
2760.11	26
2760.99	21.5
2761.86	22
2762.73	23.5
2763.6	25
2764.47	25.5
2765.34	29.5
2766.21	22.5
2767.08	28.5
2767.95	23.5
2768.82	24
2769.69	22.5
2770.56	24.5
2771.43	26.5
2772.3	21.5
2773.17	24
2774.04	22.5
2774.91	26
2775.78	25
2776.65	23.5
2777.52	24.5
2778.39	29.5
2779.26	21
2780.13	26
2780.99	21.5
2781.86	25.5
2782.73	25.5
2783.6	26.5
2784.47	25
2785.34	27.5
2786.2	23.5
2787.07	25
2787.94	25
2788.81	25.5
2789.67	26
2790.54	27.5
2791.41	27.5
2792.27	26
2793.14	26
2794.01	25.5
2794.87	31
2795.74	26.5
2796.61	27
2797.47	28.5
2798.34	24
2799.21	28.5
2800.07	23
2800.94	26.5
2801.8	26
2802.67	25.5
2803.53	24.5
2804.4	26
2805.26	24
2806.13	23
2806.99	24.5
2807.86	25
2808.72	26.5
2809.59	29.5
2810.45	28
2811.32	26.5
2812.18	29
2813.04	24.5
2813.91	27
2814.77	27
2815.64	29
2816.5	26.5
2817.36	25.5
2818.22	25
2819.09	29
2819.95	26
2820.81	23.5
2821.68	28
2822.54	27
2823.4	24.5
2824.26	26.5
2825.13	25.5
2825.99	23
2826.85	23.5
2827.71	26.5
2828.57	25
2829.44	29
2830.3	25.5
2831.16	24
2832.02	25
2832.88	25.5
2833.74	30
2834.6	23
2835.46	24.5
2836.32	21
2837.18	26.5
2838.04	25.5
2838.9	24
2839.76	25.5
2840.62	22.5
2841.48	27
2842.34	23
2843.2	23
2844.06	27
2844.92	23.5
2845.78	27.5
2846.64	22
2847.5	24
2848.36	26.5
2849.22	27
2850.08	22.5
2850.93	24.5
2851.79	26
2852.65	25.5
2853.51	27
2854.37	24
2855.22	26
2856.08	26
2856.94	28
2857.8	26
2858.65	27
2859.51	23.5
2860.37	26.5
2861.23	25
2862.08	28
2862.94	29
2863.79	26
2864.65	26.5
2865.51	27.5
2866.36	28.5
2867.22	27
2868.08	31
2868.93	25.5
2869.79	27
2870.64	26
2871.5	27.5
2872.35	27
2873.21	32
2874.06	31.5
2874.92	30.5
2875.77	29
2876.63	28
2877.48	31.5
2878.34	34
2879.19	27.5
2880.05	32
2880.9	32
2881.76	28
2882.61	32.5
2883.46	29.5
2884.32	31.5
2885.17	29.5
2886.02	32.5
2886.88	36
2887.73	35
2888.58	33.5
2889.44	36.5
2890.29	37.5
2891.14	37.5
2891.99	40
2892.85	42.5
2893.7	41
2894.55	44
2895.4	44.5
2896.25	48
2897.11	47.5
2897.96	57.5
2898.81	56
2899.66	62
2900.51	63.5
2901.36	60.5
2902.21	66
2903.07	68.5
2903.92	70.5
2904.77	71
2905.62	69
2906.47	69.5
2907.32	70
2908.17	69.5
2909.02	65.5
2909.87	65.5
2910.72	63.5
2911.57	66
2912.42	55.5
2913.27	48
2914.12	54
2914.97	47
2915.81	43.5
2916.66	45
2917.51	43
2918.36	36.5
2919.21	40.5
2920.06	39.5
2920.91	36
2921.75	37.5
2922.6	32.5
2923.45	38
2924.3	30
2925.15	33
2925.99	30.5
2926.84	34
2927.69	30.5
2928.54	29
2929.38	31.5
2930.23	30.5
2931.08	26.5
2931.92	23.5
2932.77	27
2933.62	26.5
2934.46	27
2935.31	27
2936.16	26.5
2937	28
2937.85	23.5
2938.69	29
2939.54	26.5
2940.38	27.5
2941.23	29
2942.08	25
2942.92	25.5
2943.77	28.5
2944.61	29
2945.46	28.5
2946.3	29
2947.15	32
2947.99	30
2948.83	29
2949.68	32
2950.52	29
2951.37	33
2952.21	31.5
2953.05	31
2953.9	34
2954.74	31.5
2955.58	33
2956.43	33
2957.27	35
2958.11	34
2958.96	35
2959.8	42.5
2960.64	41.5
2961.48	44
2962.33	42
2963.17	36.5
2964.01	45.5
2964.85	46
2965.69	44.5
2966.54	42
2967.38	43.5
2968.22	45.5
2969.06	42
2969.9	43
2970.74	36.5
2971.58	39.9733
2972.43	36.9299
2973.27	39.8953
2974.11	41.3287
2974.95	36.9384
2975.79	34.9059
2976.63	31.9496
2977.47	32.7163
2978.31	31.9998
2979.15	30.4756
2979.99	31.9991
2980.83	28.818
2981.67	25.8214
2982.51	30.4216
2983.35	24.9798
2984.19	29.7895
2985.03	29.7112
2985.86	29.9941
2986.7	28.2816
2987.54	25.4053
2988.38	26.9202
2989.22	27.6445
2990.06	26.6167
2990.9	26.9466
2991.73	22.6713
2992.57	24.7524
2993.41	24.3714
2994.25	26.0433
2995.09	24.7112
2995.92	26.4156
2996.76	25.3118
2997.6	25.878
2998.44	24.0832
2999.27	23.6473
3000.11	23.7077
3000.95	23.898
3001.78	23.2662
3002.62	23.8136
3003.46	23.4805
3004.29	23.0641
3005.13	22.9032
3005.96	23.2232
3006.8	22.2076
3007.64	21.7888
3008.47	24.6238
3009.31	21.3198
3010.14	20.072
3010.98	22.2027
3011.81	21.9611
3012.65	21.1143
3013.48	23.6438
3014.32	22.9236
3015.15	22.0773
3015.99	20.4536
3016.82	23.1414
3017.66	22.0813
3018.49	22.3906
3019.33	23.9942
3020.16	22.6001
3020.99	21.3694
3021.83	23.7133
3022.66	22.735
3023.5	21.5592
3024.33	22.5177
3025.16	21.4413
3026	22.9722
3026.83	24.7606
3027.66	23.4026
3028.49	23.7799
3029.33	23.5091
3030.16	22.5301
3030.99	21.5727
3031.83	19.5375
3032.66	20.3623
3033.49	23.6646
3034.32	24.2166
3035.15	22.8194
3035.99	22.7628
3036.82	21.7039
3037.65	19.8859
3038.48	20.2401
3039.31	20.219
3040.14	20.5952
3040.97	23.0335
3041.81	22.0849
3042.64	20.6691
3043.47	21.0995
3044.3	21.801
3045.13	21.9523
3045.96	22.6058
3046.79	22.2563
3047.62	23.4548
3048.45	24.2653
3049.28	22.6474
3050.11	22.5863
3050.94	22.0746
3051.77	21.9759
3052.6	20.4951
3053.43	21.5806
3054.26	21.7621
3055.08	22.736
3055.91	23.8198
3056.74	21.84
3057.26	24
3058.09	22.5
3058.92	25.5
3059.76	23
3060.59	24
3061.42	24
3062.25	26.5
3063.09	23.5
3063.92	24.5
3064.75	25
3065.58	26.5
3066.42	23.5
3067.25	23
3068.08	21
3068.91	22.5
3069.74	20
3070.57	22
3071.41	22
3072.24	22
3073.07	25.5
3073.9	22
3074.73	23.5
3075.56	24.5
3076.39	21
3077.22	21
3078.05	21
3078.88	24.5
3079.71	24
3080.54	24.5
3081.37	26
3082.2	25
3083.03	20
3083.86	27
3084.69	28
3085.52	23
3086.35	22
3087.18	22.5
3088.01	21
3088.84	24
3089.67	22.5
3090.5	18.5
3091.32	25
3092.15	20.5
3092.98	21.5
3093.81	22.5
3094.64	26
3095.47	21
3096.29	23.5
3097.12	24
3097.95	24
3098.78	22
3099.6	21.5
3100.43	27.5
3101.26	22
3102.09	21
3102.91	25
3103.74	22
3104.57	24
3105.39	25
3106.22	25.5
3107.05	25.5
3107.87	28
3108.7	23.5
3109.52	19
3110.35	21
3111.18	24
3112	24.5
3112.83	22
3113.65	21.5
3114.48	20.5
3115.3	27
3116.13	20.5
3116.95	21
3117.78	18.5
3118.6	24
3119.43	23
3120.25	24.5
3121.08	23.5
3121.9	24
3122.72	24.5
3123.55	20
3124.37	21.5
3125.2	21.5
3126.02	22.5
3126.84	24
3127.67	18
3128.49	25.5
3129.31	24.5
3130.14	24
3130.96	25.5
3131.78	25
3132.61	19
3133.43	21
3134.25	25
3135.07	22.5
3135.89	20
3136.72	24.5
3137.54	24
3138.36	20
3139.18	26.5
3140	28.5
3140.83	24
3141.65	22.5
3142.47	22.5
3143.29	18
3144.11	21.5
3144.93	22
3145.75	25
3146.57	25
3147.4	22
3148.22	26
3149.04	24
3149.86	22.5
3150.68	20
3151.5	22
3152.32	24.5
3153.14	21
3153.96	22
3154.78	24
3155.59	23
3156.42	25
3157.23	22
3158.05	22.5
3158.87	21.5
3159.69	25
3160.51	22
3161.33	23
3162.15	21
3162.97	23.5
3163.78	22
3164.6	24
3165.42	23.5
3166.24	25
3167.06	24
3167.87	30.5
3168.69	25
3169.51	23
3170.33	24
3171.14	24
3171.96	25.5
3172.78	26.5
3173.6	26
3174.41	24
3175.23	22.5
3176.05	19
3176.86	26.5
3177.68	17.5
3178.5	25
3179.31	21
3180.13	24.5
3180.94	23
3181.76	26
3182.58	21.5
3183.39	20.5
3184.21	22
3185.02	20
3185.84	27.5
3186.65	22.5
3187.47	22
3188.28	21
3189.1	23
3189.91	23
3190.73	20.5
3191.54	24.5
3192.36	21.5
3193.17	22.5
3193.98	23
3194.8	22.5
3195.61	23.5
3196.43	23.5
3197.24	25
3198.05	20
3198.87	21
3199.68	23.5
3200.49	23
3201.31	23.5
3202.12	21.5
3202.93	27
3203.75	24.5
3204.56	21
3205.37	25
3206.18	21.5
3207	23
3207.81	22.5
3208.62	20
3209.43	25
3210.24	22.5
3211.06	23
3211.87	22.5
3212.68	23
3213.49	25
3214.3	22.5
3215.11	24.5
3215.92	25.5
3216.73	24.5
3217.55	25
3218.36	22
3219.17	21
3219.98	25
3220.79	27
3221.6	20
3222.41	22
3223.22	23.5
3224.03	26
3224.84	24.5
3225.65	26
3226.46	24
3227.27	23
3228.08	19.5
3228.89	22
3229.7	26.5
3230.5	27.5
3231.31	26
3232.12	25
3232.93	26
3233.74	25
3234.55	22.5
3235.36	22.5
3236.16	17
3236.97	25
3237.78	26
3238.59	22
3239.4	22
3240.2	23
3241.01	24
3241.82	23
3242.63	24
3243.43	26.5
3244.24	25.5
3245.05	28
3245.85	20.5
3246.66	23.5
3247.47	23
3248.27	21.5
3249.08	21
3249.89	24
3250.69	19
3251.5	22
3252.31	20.5
3253.11	25.5
3253.92	23.5
3254.72	24.5
3255.53	24
3256.33	22
3257.14	23.5
3257.94	25
3258.75	23
3259.55	21
3260.36	25.5
3261.16	22
3261.97	21
3262.77	23
3263.58	23
3264.38	23.5
3265.19	23.5
3265.99	24.5
3266.79	23
3267.6	26.5
3268.4	25
3269.21	24
3270.01	26.5
3270.81	23
3271.62	23
3272.42	24
3273.22	25
3274.03	22
3274.83	23
3275.63	25
3276.43	23
3277.24	23
3278.04	23
3278.84	25.5
3279.64	20.5
3280.45	19
3281.25	24.5
3282.05	20
3282.85	25.5
3283.65	21.5
3284.45	21
3285.26	22.5
3286.06	20.5
3286.86	23
3287.66	20
3288.46	23
3289.26	22.5
3290.06	23.5
3290.86	27.5
3291.66	19
3292.46	26
3293.26	24.5
3294.06	23
3294.86	23.5
3295.66	21
3296.46	26.5
3297.26	26
3298.06	24
3298.86	20.5
3299.66	25
3300.46	24.5
3301.26	24
3302.06	23.5
3302.86	21.5
3303.66	24.5
3304.46	24
3305.25	22
3306.05	26.5
3306.85	24
3307.65	24
3308.45	22
3309.25	18
3310.04	24
3310.84	24.5
3311.64	25
3312.44	23
3313.23	19.5
3314.03	22
3314.83	25.5
3315.63	23
3316.42	25
3317.22	23
3318.02	23.5
3318.81	24
3319.61	25
3320.41	22.5
3321.2	24
3322	22.5
3322.8	24.5
3323.59	20.5
3324.39	27
3325.18	22.5
3325.98	24
3326.78	28.5
3327.57	26
3328.37	20
3329.16	25
3329.96	27
3330.75	20
3331.55	22
3332.34	23
3333.14	22.5
3333.93	25.5
3334.73	23.5
3335.52	24
3336.31	24.5
3337.11	24
3337.9	25.5
3338.7	24.5
3339.49	22
3340.28	24
3341.08	27
3341.87	25.5
3342.66	23.5
3343.46	22
3344.25	25.5
3345.04	23
3345.84	25.5
3346.63	24.5
3347.42	26
3348.22	26
3349.01	25
3349.8	21.5
3350.59	21.5
3351.39	21.5
3352.18	25
3352.97	25
3353.76	24
3354.55	22.5
3355.35	26.5
3356.14	22
3356.93	27.5
3357.72	21.5
3358.51	24
3359.3	24
3360.09	25
3360.88	23
3361.67	25
3362.46	23.5
3363.26	25
3364.05	22
3364.84	23.5
3365.63	20.5
3366.42	23
3367.21	25
3368	21
3368.79	23
3369.58	27.5
3370.37	19
3371.15	22
3371.94	25
3372.73	25.5
3373.52	21.5
3374.31	22.5
3375.1	23.5
3375.89	24
3376.68	22.5
3377.47	24.5
3378.26	25
3379.04	25.5
3379.83	22
3380.62	24
3381.41	27
3382.2	22
3382.98	20
3383.77	22.5
3384.56	23.5
3385.35	24
3386.13	26
3386.92	26.5
3387.71	23.5
3388.5	23.5
3389.28	18
3390.07	23.5
3390.86	23
3391.64	21.5
3392.43	18
3393.22	21.5
3394	25.5
3394.79	22
3395.57	23
3396.36	24
3397.15	23
3397.93	24.5
3398.72	21
3399.5	23
3400.29	24
3401.07	23
3401.86	21.5
3402.65	22
3403.43	24
3404.21	21
3405	24.5
3405.78	25
3406.57	23.5
3407.35	23.5
3408.14	26
3408.92	21
3409.71	27
3410.49	23.5
3411.27	22
3412.06	24
3412.84	26.5
3413.62	24
3414.41	23
3415.19	24
3415.97	23.5
3416.76	25
3417.54	26
3418.32	24
3419.11	23
3419.89	20
3420.67	22
3421.46	27
3422.24	22.5
3423.02	24
3423.8	20.5
3424.58	28.5
3425.37	23
3426.15	24
3426.93	23.5
3427.71	20
3428.49	27.5
3429.27	21
3430.05	26
3430.84	22
3431.62	26.5
3432.4	23
3433.18	20.5
3433.96	25
3434.74	22
3435.52	23.5
3436.3	25
3437.08	23.5
3437.86	22.5
3438.64	25.5
3439.42	26
3440.2	23
3440.98	20
3441.76	25.5
3442.54	19.5
3443.32	22
3444.1	23
3444.88	25
3445.66	24.5
3446.44	25
3447.22	26.5
3448	23
3448.77	21
3449.55	23.5
3450.33	22
3451.11	21
3451.89	26.5
3452.67	22
3453.45	23
3454.22	24
3455	24
3455.78	25
3456.56	25
3457.33	21
3458.11	23
3458.89	24.5
3459.67	22
3460.44	24
3461.22	26
3462	21.5
3462.77	26
3463.55	22.5
3464.33	25
3465.1	21.5
3465.88	23
3466.66	24
3467.43	24
3468.21	24
3468.98	26
3469.76	25
3470.54	23.5
3471.31	25
3472.09	21
3472.86	22.5
3473.64	19
3474.41	20
3475.19	25
3475.96	19
3476.74	24
3477.51	27.5
3478.29	26
3479.06	27
3479.84	25
3480.61	24.5
3481.39	19
3482.16	21
3482.93	22.5
3483.71	23
3484.48	25.5
3485.25	22.5
3486.03	24.5
3486.8	26
3487.57	25
3488.35	23
3489.12	22.5
3489.89	26.5
3490.67	25.5
3491.44	25
3492.21	26.5
3492.99	24
3493.76	28
3494.53	23
3495.3	26
3496.08	23
3496.85	25
3497.62	24.5
3498.39	25
3499.16	19.5
3499.93	24
