#Acq. time (s)=	5
#Accumulations=	5
#Range (cm-¹)=	100...3500
#Windows=	4
#Autofocus=	Off
#AutoExposure=	Off
#Spike filter=	Multiple accum.
#Delay time (s)=	0
#Binning=	1
#Readout mode=	Signal
#DeNoise=	Off
#ICS correction=	Off
#Dark correction=	Off
#Inst. Process=	Off
#Instrument=	LabRAM HR Evol
#Detector=	Syncerity OE
#Objective=	x100_VIS
#Grating=	600 (500nm)
#ND Filter=	25%
#Laser=	633nm_Edge
#Hole=	100.021
#Range=	Visible
#Project=	verificaciones
#Sample=	at1
#Site=	lined
#Title=	bolusat1lined
#Remark=	
#Date=	13.01.2026 14:02
#Acquired=	13.01.2026 14:02:40
100.692	23.5
101.975	31
103.258	27.5
104.542	32
105.824	23
107.107	29.5
108.39	30
109.672	31
110.954	26.5
112.236	33
113.519	27
114.8	26.5
116.081	31
117.362	32
118.643	29.5
119.924	27
121.204	32
122.484	31
123.764	27.5
125.044	28
126.323	28.5
127.603	30
128.882	31
130.161	27
131.438	30.5
132.716	32
133.995	32
135.273	34.5
136.55	34.5
137.828	38
139.106	30.5
140.383	32
141.66	35.5
142.937	34
144.213	35
145.488	37.5
146.764	36
148.04	30.5
149.316	31.5
150.592	36.5
151.867	37
153.141	41
154.416	37.5
155.69	35
156.965	30.5
158.239	35.5
159.512	37.5
160.786	39.5
162.059	37.5
163.333	39
164.605	36
165.878	29
167.15	33
168.423	34
169.694	34.5
170.966	35.5
172.238	34.5
173.51	35.5
174.78	31.5
176.052	40
177.323	34.5
178.592	36.5
179.863	36.5
181.134	33.5
182.403	37
183.673	37
184.943	34.5
186.211	38
187.481	34
188.749	38
190.018	36
191.287	39
192.554	33.5
193.822	35
195.089	38
196.357	38.5
197.625	39.5
198.891	34.5
200.159	32
201.425	33
202.692	35
203.957	33.5
205.224	36
206.489	34.5
207.755	31.5
209.02	33.5
210.286	35
211.55	34.5
212.815	29
214.079	33
215.344	31.5
216.607	30
217.872	32
219.135	32
220.399	36.5
221.662	29.5
222.924	31
224.187	31.5
225.449	31
226.713	28
227.974	33
229.235	32
230.498	28
231.759	28.5
233.019	30
234.281	27.5
235.542	28
236.802	31
238.063	33.5
239.323	28.5
240.582	32
241.843	31
243.102	25
244.361	29
245.621	30.5
246.879	33
248.138	27
249.396	28.5
250.655	29
251.913	33
253.17	24.5
254.427	25
255.686	28
256.943	33.5
258.199	23.5
259.456	26.5
260.712	28.5
261.969	29
263.225	27.5
264.481	25.5
265.736	25.5
266.991	26
268.246	26.5
269.502	28
270.757	27.5
272.011	28.5
273.265	28
274.519	25.5
275.773	26.5
277.027	26.5
278.28	25
279.533	29
280.786	28.5
282.04	27
283.293	29.5
284.545	27.5
285.798	32.5
287.049	25
288.301	29
289.553	23
290.804	27
292.055	28
293.306	24.5
294.557	27.5
295.807	30
297.058	28
298.308	29.5
299.558	28
300.808	30
302.057	25.5
303.305	28
304.554	31
305.803	27
307.052	26
308.3	24
309.549	27.5
310.797	31.5
312.045	24
313.292	27
314.54	29.5
315.786	26
317.033	30
318.28	25
319.526	27
320.773	28
322.019	27.5
323.264	31.5
324.51	28
325.755	32
327.001	31
328.246	25
329.49	25
330.735	26
331.979	27
333.224	23
334.467	29
335.711	30
336.955	28.5
338.199	27
339.441	25.5
340.684	26
341.927	27
343.168	26
344.411	27
345.654	28
346.895	28.5
348.137	26
349.379	31
350.619	28
351.86	24
353.102	26
354.341	29
355.582	27
356.821	26
358.062	30.5
359.302	24
360.541	24
361.781	26
363.019	29
364.259	27.5
365.496	28
366.736	32.5
367.974	31
369.212	27.5
370.45	27
371.687	27
372.925	23
374.162	29
375.399	31
376.635	29
377.873	24.5
379.109	30.5
380.344	27.5
381.581	29
382.816	32
384.052	29.5
385.287	28.5
386.523	27
387.757	33.5
388.991	28
390.227	27
391.46	26
392.695	27
393.928	29
395.162	28
396.396	28
397.629	27.5
398.861	25
400.095	29.5
401.327	29
402.559	28
403.792	30.5
405.024	24
406.255	27
407.488	27
408.719	28.5
409.949	28
411.18	26
412.412	26
413.642	28
414.872	24
416.102	25
417.333	27
418.562	26
419.791	29
421.02	25
422.249	28.5
423.479	24
424.707	27
425.935	28
427.163	24
428.391	30.5
429.619	30
430.848	28.5
432.075	25
433.302	28.5
434.529	27
435.755	24
436.982	27.5
438.208	28.5
439.434	29
440.66	31
441.885	27.5
443.111	24.5
444.338	26
445.563	29.5
446.788	29.5
448.012	25.5
449.237	32
450.461	26.5
451.685	30
452.909	25
454.133	28.5
455.356	28
456.579	29
457.802	31
459.025	28
460.247	29
461.469	28
462.691	29
463.914	29
465.136	31
466.357	29
467.579	29.5
468.8	30
470.021	31
471.242	30
472.462	36.5
473.682	34
474.903	33.5
476.123	36.5
477.343	40
478.563	39
479.782	40.5
481	43
482.219	40
483.438	50.5
484.657	47.5
485.874	49.5
487.093	47.5
488.311	52
489.529	56
490.747	52
491.963	52
493.181	47
494.398	49.5
495.614	48.5
496.83	44
498.047	44.5
499.264	35.5
500.479	38.5
501.695	37
502.911	37
504.125	37.5
505.34	38.5
506.554	36.5
507.769	36.5
508.984	34.5
510.198	37
511.412	33.5
512.627	29.5
513.839	33.5
515.053	27
516.266	32.5
517.479	29
518.691	33
519.905	30
521.118	29.5
522.329	31.5
523.542	28
524.753	28.5
525.965	31.5
527.176	29
528.388	29.5
529.598	31
530.809	26.5
532.019	33.5
533.23	28
534.44	27
535.649	28
536.86	30.5
538.068	30
539.279	28
540.487	29
541.697	30
542.905	27
544.113	26
545.322	31.5
546.53	26.5
547.737	30.5
548.946	30
550.153	29
551.361	29
552.568	26
553.774	25.5
554.982	27.5
556.188	28
557.394	25
558.599	29
559.806	28.5
561.012	30
562.217	26
563.423	31.5
564.628	29.5
565.832	28.5
567.036	26.5
568.241	28.5
569.446	29
570.65	28.5
571.853	29.5
573.057	27
574.26	26
575.464	27
576.667	31.5
577.87	25
579.072	29.5
580.274	30
581.477	26.5
582.68	25.5
583.881	26.5
585.083	31
586.284	29
587.485	27
588.686	30.5
589.887	30
591.087	27.5
592.288	24.5
593.488	26
594.688	28
595.888	32.5
597.087	22
598.287	30.5
599.486	30
600.685	28
601.884	26
603.082	25
604.281	30
605.479	26.5
606.677	26.5
607.875	28.5
609.073	28
610.27	27.5
611.468	26
612.665	25.5
613.862	33.5
615.058	28
616.255	26.5
617.451	29.5
618.648	25.5
619.842	25.5
621.038	22
622.234	29
623.429	26
624.624	29
625.819	25.5
627.013	23
628.207	28
629.402	31
630.596	28
631.79	30.5
632.983	26
634.177	28
635.37	29.5
636.564	25
637.755	26
638.948	29.5
640.141	26.5
641.334	27.5
642.525	28
643.717	27.5
644.909	25
646.099	28.5
647.291	26.5
648.483	27
649.674	28.5
650.864	29
652.055	27.5
653.244	29
654.435	27
655.625	25
656.814	29.5
658.004	26.5
659.193	25
660.382	27
661.571	27
662.759	26.5
663.948	27
665.135	31
666.324	28.5
667.511	28.5
668.7	32.5
669.886	29.5
671.074	25.5
672.262	31
673.448	31.5
674.634	30
675.821	32.5
677.007	31.5
678.194	27
679.379	28
680.565	28.5
681.75	31.5
682.936	28.5
684.121	34
685.305	37
686.491	32.5
687.675	33.5
688.86	32
690.043	33
691.227	30
692.411	31.5
693.594	30.5
694.777	31.5
695.961	33
697.144	31.5
698.326	31.5
699.509	35.5
700.691	36.5
701.873	36
703.056	39.5
704.237	38.5
705.419	42.5
706.599	44
707.782	45
708.962	43
710.143	43
711.323	43.5
712.504	38.5
713.684	35
714.864	34
716.043	34
717.223	30
718.403	35
719.582	31
720.761	25.5
721.94	26.5
723.118	31.5
724.296	28.5
725.474	26.5
726.652	31.5
727.831	28.5
729.009	30.5
730.186	28
731.363	31
732.54	26
733.717	27
734.893	28
736.07	29
737.246	25
738.422	25
739.598	26.5
740.773	28.5
741.949	26.5
743.124	29
744.299	29
745.474	29
746.649	26
747.823	26.5
748.997	27.5
750.172	30.5
751.346	26.5
752.519	30.5
753.693	20.5
754.867	28.5
756.038	27
757.211	23
758.384	28
759.557	28
760.73	26
761.902	26
763.074	28.5
764.246	28.5
765.417	29
766.588	29.5
767.76	29
768.931	25
770.102	28
771.271	31
772.442	29
773.613	27
774.783	28
775.952	27.5
777.122	29
778.291	29.5
779.461	28
780.629	27
781.798	28
782.967	30
784.135	29.5
785.304	26.5
786.472	26.5
787.639	30.5
788.807	30
789.975	25.5
791.142	32
792.309	28
793.477	30
794.642	32
795.81	27
796.975	30
798.142	26
799.308	28
800.473	29.5
801.639	30.5
802.804	27
803.97	25.5
805.134	27
806.299	28.5
807.463	28
808.628	26
809.792	26
810.957	27.5
812.12	31
813.284	30.5
814.447	29
815.611	27
816.773	29
817.937	29.5
819.099	25.5
820.261	26
821.424	28.5
822.585	31
823.748	28.5
824.909	24.5
826.07	25
827.232	27.5
828.393	25
829.554	25
830.715	27.5
831.875	27
833.035	29.5
834.196	30
835.356	28
836.515	28
837.676	27
838.835	31
839.994	25
841.152	25
842.312	30
843.47	28
844.629	27.5
845.786	26.5
846.946	30
848.103	27.5
849.261	27
850.418	33
851.575	25
852.733	30
853.89	29.5
855.046	29.5
856.203	28.5
857.359	28
858.515	24
859.67	30
860.827	26
861.983	27.5
863.138	31.5
864.293	27.5
865.448	29
866.603	25.5
867.757	29
868.912	29
870.066	23
871.22	26.5
872.374	27.5
873.527	22
874.681	29
875.834	26.5
876.987	29
878.14	23
879.293	27
880.445	30.5
881.598	27
882.75	31
883.902	30
885.054	23
886.206	23.5
887.357	26
888.507	25.5
889.658	23
890.809	23
891.96	25
893.111	29.5
894.261	26.5
895.411	25.5
896.561	25.5
897.71	27
898.86	26
900.009	30
901.159	27.5
902.308	22
903.455	28.5
904.604	24
905.753	29
906.901	26
908.048	26.5
909.197	24.5
910.344	28.5
911.492	26.5
912.639	27
913.786	26.5
914.933	25
916.079	24
917.226	25
918.373	29.5
919.518	22.5
920.664	26.5
921.81	24
922.955	23
924.101	30.5
925.245	26
926.391	27
927.536	25
928.68	25
929.825	28.5
930.968	25
932.113	25.5
933.256	23
934.4	27.5
935.543	24
936.687	27
937.83	25.5
938.973	29
940.115	26.5
941.258	27.5
942.399	26.5
943.542	27.5
944.684	24
945.826	25
946.967	23.5
948.109	23.5
949.25	29
950.392	24
951.532	28
952.672	19.5
953.813	22.5
954.953	29
956.093	26.5
957.233	22.5
958.373	26.5
959.512	23.5
960.652	24
961.791	21
962.929	26
964.069	25.5
965.207	26
966.345	26.5
967.484	27
968.622	22.5
969.759	27.5
970.896	29
972.035	28.5
973.172	23.5
974.309	24
975.445	24
976.582	26
977.719	30
978.855	28
979.991	25
981.127	27.5
982.263	28.5
983.398	24
984.535	24
985.67	27
986.804	27.5
987.939	24
989.074	28
990.208	28.5
991.342	27.5
992.476	27
993.61	25.5
994.744	24.5
995.877	24
997.01	27.5
998.143	22.5
999.276	29.5
1000.41	29.5
1001.54	24.5
1002.67	23
1003.81	26
1004.94	29.5
1006.07	25
1007.2	23.5
1008.33	30
1009.47	27
1010.6	20.5
1011.73	28.5
1012.86	26.5
1013.99	26.5
1015.12	26.5
1016.25	25.5
1017.38	25.5
1018.51	20.5
1019.64	28
1020.77	25.5
1021.9	23.5
1023.03	22
1024.15	29
1025.28	26
1026.41	22
1027.54	23
1028.67	25
1029.8	25.5
1030.92	25
1032.05	27.5
1033.18	23.5
1034.31	22.5
1035.43	25
1036.56	25.5
1037.69	22.5
1038.81	27
1039.94	27
1041.07	24.5
1042.19	26
1043.32	27.5
1044.44	23.5
1045.57	28.5
1046.69	24.5
1047.82	24
1048.94	24
1050.07	27
1051.19	29
1052.32	23.5
1053.44	25.5
1054.57	27.5
1055.69	23.5
1056.81	24
1057.94	25
1059.06	28
1060.18	27
1061.31	24
1062.43	28
1063.55	25.5
1064.67	24.5
1065.8	28.5
1066.92	25.5
1068.04	23.5
1069.16	25.5
1070.28	27
1071.4	27
1072.52	25.5
1073.64	27
1074.76	27
1075.89	23
1077.01	22.5
1078.13	24.5
1079.25	24.5
1080.37	24.5
1081.49	25.5
1082.6	22
1083.72	24.5
1084.84	26.5
1085.96	19
1087.08	22
1088.2	26.5
1089.32	26
1090.43	21
1091.55	23
1092.67	25
1093.79	21
1094.91	24
1096.02	24.5
1097.14	21.5
1098.26	25
1099.37	24.5
1100.49	23.5
1101.61	25.5
1102.72	25
1103.84	25
1104.95	26
1106.07	24
1107.18	23.5
1108.3	27
1109.41	27
1110.53	24.5
1111.64	25
1112.76	19.5
1113.87	26.5
1114.99	22.5
1116.1	25.5
1117.21	24.5
1118.33	24.5
1119.44	19
1120.55	25.5
1121.67	27
1122.78	28
1123.89	25.5
1125	27.5
1126.12	26
1127.23	26
1128.34	22
1129.45	25
1130.56	24
1131.68	24.5
1132.79	22.5
1133.9	22.5
1135.01	27
1136.12	23
1137.23	24
1138.34	24.5
1139.45	23.5
1140.56	27
1141.67	25
1142.78	21.5
1143.89	23
1145	24.5
1146.11	22.5
1147.22	27.5
1148.32	24
1149.43	23.5
1150.54	22.5
1151.65	23.5
1152.76	23.5
1153.86	24
1154.97	26.5
1156.08	25
1157.19	22
1158.29	22
1159.4	19
1160.51	26
1161.61	21
1162.72	26
1163.83	27
1164.93	25.5
1166.04	28.5
1167.14	23
1168.25	22.5
1169.35	23.5
1170.46	24.5
1171.56	25
1172.67	22.5
1173.77	27
1174.88	22
1175.98	24
1177.08	25.5
1178.19	24.5
1179.29	23
1180.4	31.5
1181.5	21
1182.6	25
1183.71	21
1184.81	22.5
1185.91	26.5
1187.01	22
1188.12	25.5
1189.22	20.5
1190.32	20
1191.42	24.5
1192.52	21
1193.62	23
1194.72	23.9806
1195.83	25.4397
1196.93	25.0414
1198.03	21.6802
1199.13	24.4568
1200.23	24.8637
1201.33	26.4533
1202.43	24.4068
1203.53	23.7041
1204.63	25.3077
1205.73	23.0593
1206.83	25.9743
1207.92	22.9357
1209.02	21.5442
1210.12	21.6521
1211.22	26.0271
1212.32	25.0415
1213.42	23.4661
1214.51	21.1335
1215.61	22.4552
1216.71	21.8479
1217.81	23.7793
1218.9	22.8788
1220	25.0874
1221.1	24.2982
1222.19	24.521
1223.29	26.505
1224.39	24.0453
1225.48	28.0913
1226.58	25.4947
1227.68	25.355
1228.77	23.0202
1229.87	22.9347
1230.96	21.681
1232.06	22.7109
1233.15	25.1155
1234.25	23.9519
1235.34	25.239
1236.43	22.7535
1237.53	24.1866
1238.62	23.9912
1239.72	25.9854
1240.81	22.7143
1241.9	25.6623
1243	27.0649
1244.09	23.1054
1245.18	25.8215
1246.27	23.4666
1247.37	22.4786
1248.46	24.9796
1249.55	26.8
1250.64	23.7883
1251.74	25.1932
1252.83	20.9012
1253.92	25.9171
1255.01	24.696
1256.1	23
1257.19	24.7535
1258.28	24.7032
1259.38	24.9215
1260.46	25.338
1261.56	24.3644
1262.65	26.2087
1263.74	25.5876
1264.82	24.1804
1265.91	25.9964
1267	27.3266
1268.09	24.3869
1269.18	26.6401
1270.27	26.4457
1271.36	22.8905
1272.45	25.5605
1273.54	24.6315
1274.63	23.4484
1275.71	23.7423
1276.8	23.2763
1277.89	22.8431
1278.98	21.7575
1280.06	24.109
1281.15	24.0928
1282.24	22.7661
1283.32	23.7306
1284.41	25.4041
1285.5	24.716
1286.58	22.2958
1287.67	22.4118
1288.76	22.4905
1289.84	20.5422
1290.93	22.6432
1292.01	22.6068
1293.1	24.1459
1294.18	24.2209
1295.27	23.3126
1296.35	21.7065
1297.44	22.3914
1298.52	23.625
1299.6	21.1655
1300.69	22.3234
1301.77	25.8032
1302.86	24.0162
1303.94	23.4035
1305.02	23.7981
1306.11	23.2708
1306.41	23
1307.5	20.5
1308.59	25.5
1309.68	23.5
1310.77	24
1311.85	23.5
1312.94	25
1314.03	28
1315.11	25
1316.2	24.5
1317.29	24
1318.37	28
1319.46	25
1320.55	29
1321.63	26.5
1322.72	26
1323.8	23.5
1324.89	19.5
1325.98	22
1327.06	25.5
1328.15	27.5
1329.23	26.5
1330.31	25
1331.4	26.5
1332.48	27
1333.57	24.5
1334.65	24
1335.74	23.5
1336.82	23.5
1337.9	21.5
1338.99	27
1340.07	26
1341.15	22.5
1342.24	28.5
1343.32	21
1344.4	26
1345.48	22.5
1346.56	24.5
1347.65	25
1348.73	23
1349.81	26.5
1350.89	26.5
1351.97	20
1353.05	19.5
1354.13	25
1355.21	22.5
1356.29	23
1357.37	23.5
1358.46	25.5
1359.54	23
1360.62	24
1361.69	22.5
1362.77	25.5
1363.85	23.5
1364.93	23
1366.01	24
1367.09	26.5
1368.17	25
1369.25	23.5
1370.33	25
1371.41	26
1372.48	26
1373.56	24.5
1374.64	22.5
1375.72	28.5
1376.79	23.5
1377.87	22.5
1378.95	25
1380.02	24
1381.1	22.5
1382.18	26
1383.25	25
1384.33	24.5
1385.4	23.5
1386.48	20
1387.56	27
1388.63	25
1389.71	25.5
1390.78	25
1391.86	25
1392.93	25
1394.01	25
1395.08	25.5
1396.15	26.5
1397.23	28
1398.3	26
1399.38	28.5
1400.45	28.5
1401.52	22
1402.6	29.5
1403.67	26
1404.74	28
1405.81	24.5
1406.89	32
1407.96	26
1409.03	27
1410.1	28.5
1411.17	27
1412.25	29
1413.32	30
1414.39	32.5
1415.46	28
1416.53	26.5
1417.6	23
1418.67	24.5
1419.74	28.5
1420.81	24.5
1421.88	26.5
1422.95	26
1424.02	27.5
1425.09	24.5
1426.16	29
1427.23	20
1428.3	29
1429.37	25.5
1430.44	23.5
1431.51	28.5
1432.58	26
1433.64	24.5
1434.71	25
1435.78	26
1436.85	26.5
1437.92	31.5
1438.98	25.5
1440.05	25.5
1441.12	25
1442.18	25
1443.25	23.5
1444.32	26
1445.38	25
1446.45	23
1447.52	27.5
1448.58	27
1449.65	25
1450.71	23.5
1451.78	26
1452.84	27
1453.91	24
1454.97	23
1456.04	25
1457.1	20
1458.17	21
1459.23	22
1460.3	26.5
1461.36	22.5
1462.42	26
1463.49	25.5
1464.55	27.5
1465.61	21
1466.68	24.5
1467.74	24
1468.8	21.5
1469.86	25
1470.93	23.5
1471.99	24
1473.05	25
1474.11	22.5
1475.17	29
1476.24	22.5
1477.3	27.5
1478.36	26
1479.42	27.5
1480.48	27.5
1481.54	24.5
1482.6	26
1483.66	25
1484.72	26
1485.78	27.5
1486.84	23
1487.9	29.5
1488.96	23.5
1490.02	24
1491.08	22.5
1492.14	27.5
1493.2	28
1494.26	24
1495.31	30
1496.37	27
1497.43	23.5
1498.49	23
1499.55	23
1500.6	23.5
1501.66	25
1502.72	25.5
1503.78	27
1504.83	23
1505.89	25.5
1506.95	27.5
1508	25.5
1509.06	29
1510.12	23.5
1511.17	23
1512.23	27.5
1513.28	25.5
1514.34	26
1515.39	25
1516.45	25
1517.5	24.5
1518.56	24.5
1519.61	24
1520.67	25.5
1521.72	25.5
1522.78	26
1523.83	26.5
1524.88	26.5
1525.94	22.5
1526.99	26.5
1528.05	25
1529.1	23
1530.15	22
1531.2	29
1532.26	27.5
1533.31	29.5
1534.36	26
1535.41	24.5
1536.47	22.5
1537.52	26.5
1538.57	20
1539.62	23.5
1540.67	28
1541.72	25.5
1542.77	26
1543.83	24
1544.88	26.5
1545.93	23
1546.98	27
1548.03	26
1549.08	26
1550.13	24
1551.18	24
1552.23	24
1553.28	28
1554.32	22.5
1555.37	29
1556.42	25
1557.47	22
1558.52	24
1559.57	25
1560.62	21.5
1561.67	22
1562.71	26
1563.76	27
1564.81	28
1565.86	23
1566.9	21.5
1567.95	28
1569	24
1570.04	24.5
1571.09	25
1572.14	25
1573.18	23
1574.23	22.5
1575.27	24
1576.32	23.5
1577.37	29.5
1578.41	28
1579.46	26
1580.5	29
1581.55	25
1582.59	27
1583.64	26
1584.68	26.5
1585.72	30.5
1586.77	23
1587.81	25
1588.86	23
1589.9	32
1590.94	21.5
1591.99	24
1593.03	21
1594.07	27
1595.12	24
1596.16	29
1597.2	25
1598.24	27
1599.29	25
1600.33	25
1601.37	28.5
1602.41	25.5
1603.45	27
1604.49	29
1605.53	24
1606.58	24.5
1607.62	28
1608.66	21
1609.7	27
1610.74	24.5
1611.78	28.5
1612.82	27.5
1613.86	27.5
1614.9	26.5
1615.94	27
1616.98	25.5
1618.02	28.5
1619.06	28.5
1620.09	28
1621.13	23.5
1622.17	27
1623.21	28
1624.25	23.5
1625.29	25
1626.32	27.5
1627.36	25
1628.4	24
1629.44	26.5
1630.47	25
1631.51	23
1632.55	24.5
1633.58	20.5
1634.62	24.5
1635.66	27
1636.69	24
1637.73	28
1638.77	24
1639.8	27.5
1640.84	27.5
1641.87	25.5
1642.91	23.5
1643.94	22.5
1644.98	26
1646.01	21.5
1647.05	26
1648.08	23.5
1649.12	27.5
1650.15	26.5
1651.18	22.5
1652.22	26.5
1653.25	25
1654.29	23.5
1655.32	22
1656.35	25
1657.39	21
1658.42	26
1659.45	25.5
1660.48	24
1661.52	27
1662.55	25
1663.58	26.5
1664.61	22
1665.64	26
1666.68	23.5
1667.71	25
1668.74	26
1669.77	24
1670.8	22.5
1671.83	24
1672.86	21.5
1673.89	28
1674.92	28
1675.95	30.5
1676.98	24
1678.01	27
1679.04	24
1680.07	28
1681.1	28
1682.13	24
1683.16	26.5
1684.19	25.5
1685.22	20.5
1686.25	28.5
1687.27	21.5
1688.3	25
1689.33	25
1690.36	27.5
1691.38	25
1692.41	22.5
1693.44	22
1694.47	22
1695.49	22
1696.52	22.5
1697.55	28
1698.57	26
1699.6	29.5
1700.63	25
1701.65	24
1702.68	27
1703.7	23
1704.73	26.5
1705.76	22
1706.78	24
1707.81	24
1708.83	21
1709.86	28
1710.88	25
1711.91	23.5
1712.93	20
1713.95	27
1714.98	24.5
1716	26
1717.03	25
1718.05	23
1719.07	29
1720.1	27
1721.12	28
1722.14	25
1723.16	23.5
1724.19	20.5
1725.21	26.5
1726.23	27
1727.25	22.5
1728.28	25.5
1729.3	23.5
1730.32	27
1731.34	24
1732.36	27.5
1733.38	22.5
1734.41	22
1735.43	26
1736.45	24
1737.47	24.5
1738.49	28.5
1739.51	28.5
1740.53	25
1741.55	24.5
1742.57	25
1743.59	28
1744.61	27
1745.63	24
1746.64	20.5
1747.66	27.5
1748.68	23.5
1749.7	23.5
1750.72	25.5
1751.74	23
1752.76	24
1753.77	26
1754.79	30
1755.81	28
1756.83	22.5
1757.84	24
1758.86	24
1759.88	24
1760.9	26
1761.91	27
1762.93	24.5
1763.95	25.5
1764.96	26.5
1765.98	29
1766.99	23
1768.01	24.5
1769.02	27.5
1770.04	24.5
1771.06	25
1772.07	27
1773.09	19.5
1774.1	24
1775.12	27
1776.13	20
1777.14	27.5
1778.16	24
1779.17	27
1780.19	25
1781.2	23
1782.21	24.5
1783.23	23
1784.24	27.5
1785.25	25
1786.27	26
1787.28	23.5
1788.29	23.5
1789.3	27
1790.32	27.5
1791.33	24.5
1792.34	25.5
1793.35	26
1794.36	20
1795.38	27
1796.39	24.5
1797.4	24
1798.41	27
1799.42	22.5
1800.43	27
1801.44	22
1802.45	27.5
1803.46	22
1804.47	28.5
1805.48	23
1806.49	23
1807.5	24.5
1808.51	20.5
1809.52	24
1810.53	28.5
1811.54	20
1812.55	26.5
1813.56	25
1814.57	23
1815.57	26.5
1816.58	25.5
1817.59	23.5
1818.6	26
1819.61	26
1820.61	26
1821.62	24
1822.63	22
1823.64	24
1824.64	22
1825.65	26.5
1826.66	25
1827.66	23.5
1828.67	24
1829.68	27
1830.68	23.5
1831.69	23
1832.69	26
1833.7	23.5
1834.7	27.5
1835.71	27
1836.71	25.5
1837.72	20
1838.72	25
1839.73	25.5
1840.73	22.5
1841.74	25
1842.74	22.5
1843.75	22.5
1844.75	27
1845.75	29
1846.76	29.5
1847.76	23.5
1848.76	21.5
1849.77	25.5
1850.77	27
1851.77	27.5
1852.78	26
1853.78	28
1854.78	28
1855.78	26.5
1856.78	20
1857.79	24.5
1858.79	22
1859.79	23.5
1860.79	26
1861.79	25
1862.79	24.5
1863.79	25.5
1864.79	24
1865.79	23
1866.8	26
1867.8	22
1868.8	29
1869.8	28
1870.8	23.5
1871.8	23
1872.8	26
1873.79	26.5
1874.79	25.5
1875.79	26
1876.79	25.5
1877.79	18
1878.79	25
1879.79	25
1880.79	23.5
1881.78	24.5
1882.78	26
1883.78	24.5
1884.78	24
1885.77	20
1886.77	27.5
1887.77	26.5
1888.77	24
1889.76	21
1890.76	25.5
1891.76	26.5
1892.75	26.5
1893.75	23.5
1894.75	22.5
1895.74	18
1896.74	22.5
1897.73	23.5
1898.73	20
1899.73	25.5
1900.72	23.5
1901.72	25.5
1902.71	24
1903.7	28
1904.7	22.5
1905.69	20.5
1906.69	24
1907.68	26
1908.68	21
1909.67	24.5
1910.66	25
1911.66	25.5
1912.65	23
1913.64	23
1914.64	25.5
1915.63	25
1916.62	28
1917.62	22
1918.61	21
1919.6	22
1920.59	25
1921.58	23.5
1922.58	24.5
1923.57	22
1924.56	24
1925.55	25
1926.54	26.5
1927.53	24.5
1928.52	25
1929.51	23
1930.51	23.5
1931.5	23
1932.49	24.5
1933.48	22
1934.47	24.5
1935.46	25.5
1936.45	26.5
1937.44	25.5
1938.42	25
1939.41	22
1940.4	25
1941.39	21
1942.38	23
1943.37	27
1944.36	25.5
1945.35	20
1946.33	25
1947.32	23.5
1948.31	22
1949.3	20
1950.29	23.5
1951.27	24
1952.26	25.5
1953.25	24
1954.23	25.5
1955.22	20.5
1956.21	19
1957.19	21
1958.18	29
1959.17	21
1960.15	26.5
1961.14	25.5
1962.13	21.5
1963.11	25
1964.1	25
1965.08	23.5
1966.07	23
1967.05	24.5
1968.04	19.5
1969.02	26
1970.01	24
1970.99	22
1971.97	22.5
1972.96	24.5
1973.94	24
1974.93	23
1975.91	22
1976.89	23.5
1977.88	21.5
1978.86	28
1979.84	27
1980.83	24
1981.81	26
1982.79	24
1983.77	24
1984.76	26.5
1985.74	26.5
1986.72	21
1987.7	24
1988.68	22
1989.67	23
1990.65	23
1991.63	22
1992.61	23.5
1993.59	24
1994.57	27
1995.55	28
1996.53	23.5
1997.51	21.5
1998.49	20.5
1999.47	23
2000.45	24
2001.43	21.5
2002.41	22
2003.39	23.5
2004.37	27
2005.35	25
2006.33	24
2007.31	25
2008.29	22
2009.26	24
2010.24	24.5
2011.22	24
2012.2	23
2013.18	24
2014.15	24
2015.13	25.5
2016.11	23
2017.09	19
2018.06	26
2019.04	22.5
2020.02	27
2021	20.5
2021.97	26.5
2022.95	23
2023.92	24
2024.9	24
2025.88	22.5
2026.85	20.5
2027.83	24
2028.8	21
2029.78	26
2030.75	18.5
2031.73	23
2032.7	22.5
2033.68	26.5
2034.65	28.5
2035.63	20
2036.6	21
2037.58	27.5
2038.55	27
2039.52	22
2040.5	19.5
2041.47	24
2042.45	24
2043.42	26
2044.39	23
2045.36	21
2046.34	22.5
2047.31	27
2048.28	22
2049.26	23.5
2050.23	22.5
2051.2	26
2052.17	20.5
2053.14	23.5
2054.12	28
2055.09	23.5
2056.06	20
2057.03	24
2058	22.5
2058.97	27
2059.94	27
2060.91	22.5
2061.88	22.5
2062.85	20
2063.82	22
2064.79	19.5
2065.76	21
2066.73	22.5
2067.7	23.5
2068.67	22.5
2069.64	25.5
2070.61	23.5
2071.58	20.5
2072.55	20
2073.52	24.5
2074.49	22
2075.45	23.5
2076.42	23
2077.39	21
2078.36	23
2079.33	24.5
2080.29	24
2081.26	20.5
2082.23	22
2083.2	19
2084.16	24
2085.13	20
2086.1	20
2087.06	23
2088.03	23
2089	22
2089.96	21
2090.93	23
2091.89	24
2092.86	23.5
2093.83	20
2094.79	23
2095.76	21
2096.72	23.5
2097.69	21
2098.65	25
2099.62	26.5
2100.58	24
2101.55	24.5
2102.51	22
2103.47	18
2104.44	23
2105.4	18
2106.36	21.5
2107.33	22.5
2108.29	22.5
2109.25	24
2110.22	23
2111.18	22.5
2112.14	23.5
2113.11	24
2114.07	22
2115.03	21
2115.99	25.5
2116.96	23.5
2117.92	25
2118.88	20.5
2119.84	25.5
2120.8	23
2121.76	22.5
2122.72	23.5
2123.68	23
2124.65	25
2125.61	24
2126.57	23.5
2127.53	23
2128.49	24
2129.45	24.5
2130.41	23
2131.37	23.5
2132.33	21
2133.29	23
2134.25	21
2135.21	23
2136.17	22
2137.12	24
2138.08	24
2139.04	22.5
2140	25
2140.96	20.5
2141.92	21.5
2142.88	23.0014
2143.83	23.9738
2144.79	19.6159
2145.75	22.5573
2146.71	24.3559
2147.66	23.7539
2148.62	21.4693
2149.58	20.1364
2150.53	23.2721
2151.49	21.1066
2152.45	21.7451
2153.4	22.7123
2154.36	21.2896
2155.32	23.8979
2156.27	21.4376
2157.23	22.1702
2158.19	20.2809
2159.14	20.5434
2160.1	22.4979
2161.05	21.1671
2162.01	25.9124
2162.96	25.5288
2163.92	23.1149
2164.87	24.3981
2165.83	23.7274
2166.78	20.7722
2167.73	23.5506
2168.69	24.3325
2169.64	24.2277
2170.6	22.3041
2171.55	23.0717
2172.5	23.0442
2173.46	22.3443
2174.41	19.9515
2175.36	23.2773
2176.32	20.8237
2177.27	23.797
2178.22	22.2363
2179.18	24.5377
2180.13	18.1437
2181.08	22.7197
2182.03	22.2495
2182.98	24.3203
2183.94	23.1698
2184.89	22.784
2185.84	24.2401
2186.79	23.2561
2187.74	20.4612
2188.69	20.9794
2189.64	21.3642
2190.6	23.5084
2191.55	23.5
2192.5	24.0172
2193.45	21.6092
2194.4	22.1791
2195.35	23.8375
2196.3	23.1759
2197.25	23.4892
2198.2	21.6504
2199.15	22.7105
2200.1	22.5156
2201.04	22.7915
2201.99	21.7214
2202.94	22.8854
2203.89	22.0774
2204.84	24.0953
2205.79	23.3541
2206.74	22.0523
2207.69	21.0836
2208.63	21.4636
2209.58	21.2718
2210.53	22.6165
2211.48	21.8519
2212.43	19.5512
2213.37	24.3905
2214.32	22.6472
2215.27	22.8009
2216.21	24.0494
2217.16	21.0589
2218.11	20.4307
2219.05	22.4362
2220	21.9291
2220.95	22.5412
2221.89	25.453
2222.84	23.4636
2223.78	24.3638
2224.73	24.1961
2225.68	23.4832
2226.62	22.7107
2227.57	23.523
2228.51	23.2436
2229.46	22.0495
2230.4	20.4
2231.35	23.6843
2232.29	21.6249
2233.24	22.0585
2234.18	23.7767
2235.12	25.764
2236.07	25.8627
2237.01	23.4993
2237.95	25.354
2238.9	24.0758
2239.84	23.5
2240.06	23.5
2241.01	18
2241.96	24.5
2242.91	24.5
2243.86	22
2244.8	21
2245.75	24.5
2246.7	22
2247.65	24.5
2248.59	22.5
2249.54	23.5
2250.49	22
2251.43	18
2252.38	20.5
2253.33	20.5
2254.27	23
2255.22	19.5
2256.16	20
2257.11	23.5
2258.06	22
2259	25.5
2259.95	23
2260.89	23
2261.84	26
2262.78	23
2263.73	22
2264.67	26.5
2265.62	21
2266.56	26
2267.5	22
2268.45	24.5
2269.39	24.5
2270.34	19.5
2271.28	22.5
2272.22	20.5
2273.17	24.5
2274.11	19
2275.05	22
2276	21
2276.94	26
2277.88	22
2278.82	21
2279.77	20
2280.71	24.5
2281.65	23
2282.59	20.5
2283.53	22.5
2284.48	22.5
2285.42	22
2286.36	20.5
2287.3	19.5
2288.24	20
2289.18	22
2290.12	23.5
2291.06	23
2292	18.5
2292.94	20
2293.89	21.5
2294.83	26
2295.77	26
2296.71	24
2297.65	23
2298.58	23.5
2299.52	20.5
2300.46	24
2301.4	23.5
2302.34	21.5
2303.28	23
2304.22	23
2305.16	24
2306.1	24.5
2307.03	25
2307.97	21
2308.91	24
2309.85	24
2310.79	23.5
2311.72	25
2312.66	25.5
2313.6	22
2314.54	24.5
2315.47	19.5
2316.41	24
2317.35	24
2318.28	23
2319.22	21
2320.16	24.5
2321.09	23.5
2322.03	21
2322.96	19
2323.9	24.5
2324.84	23
2325.77	20
2326.71	22
2327.64	22
2328.58	22
2329.51	21.5
2330.45	21
2331.38	22
2332.32	21
2333.25	23.5
2334.18	25
2335.12	26.5
2336.05	25
2336.99	27
2337.92	22.5
2338.85	23
2339.79	21.5
2340.72	26
2341.65	21
2342.59	22
2343.52	26
2344.45	24
2345.39	23
2346.32	22.5
2347.25	25.5
2348.18	23.5
2349.11	24
2350.05	26.5
2350.98	21.5
2351.91	23
2352.84	26
2353.77	24
2354.7	23
2355.64	22
2356.57	20.5
2357.5	25
2358.43	23
2359.36	22
2360.29	22.5
2361.22	26
2362.15	23.5
2363.08	25.5
2364.01	25.5
2364.94	25.5
2365.87	23.5
2366.8	24.5
2367.73	25
2368.66	20
2369.58	23
2370.51	23
2371.44	23
2372.37	25
2373.3	26
2374.23	20
2375.16	22.5
2376.08	21
2377.01	22
2377.94	22.5
2378.87	22
2379.8	24
2380.72	19
2381.65	24.5
2382.58	18.5
2383.5	22.5
2384.43	25
2385.36	24
2386.28	24.5
2387.21	26
2388.14	23.5
2389.06	26.5
2389.99	23.5
2390.91	25.5
2391.84	24
2392.77	23
2393.69	25.5
2394.62	21
2395.54	23.5
2396.47	23
2397.39	23
2398.32	24
2399.24	25.5
2400.16	22.5
2401.09	20.5
2402.01	27.5
2402.94	20
2403.86	22.5
2404.78	21
2405.71	27.5
2406.63	22
2407.56	22.5
2408.48	26
2409.4	22.5
2410.32	21.5
2411.25	22.5
2412.17	21
2413.09	26
2414.02	23
2414.94	26.5
2415.86	23.5
2416.78	24
2417.7	24.5
2418.63	24.5
2419.55	20.5
2420.47	22.5
2421.39	26
2422.31	24
2423.23	24.5
2424.15	21.5
2425.07	29
2425.99	21.5
2426.92	23.5
2427.84	20
2428.76	29.5
2429.68	22.5
2430.59	23.5
2431.51	25
2432.43	25
2433.35	22
2434.27	24
2435.19	20.5
2436.11	25.5
2437.03	21
2437.95	22.5
2438.87	21.5
2439.79	27
2440.71	26
2441.62	22.5
2442.54	24.5
2443.46	23
2444.38	22
2445.3	25
2446.21	28.5
2447.13	23
2448.05	22.5
2448.97	20
2449.88	25
2450.8	20
2451.72	24.5
2452.63	22.5
2453.55	24
2454.47	25
2455.38	26.5
2456.3	24
2457.21	26
2458.13	19.5
2459.05	23.5
2459.96	22
2460.88	25
2461.79	27.5
2462.71	27
2463.62	22
2464.54	23.5
2465.45	20
2466.37	25
2467.28	23.5
2468.2	24.5
2469.11	23
2470.02	23
2470.94	21
2471.85	23.5
2472.77	27.5
2473.68	25.5
2474.59	25
2475.51	24.5
2476.42	22
2477.33	24.5
2478.25	24
2479.16	21
2480.07	23.5
2480.98	26.5
2481.9	24
2482.81	22
2483.72	24
2484.63	23.5
2485.55	26.5
2486.46	25.5
2487.37	22
2488.28	21.5
2489.19	26.5
2490.1	23
2491.01	25
2491.92	23.5
2492.83	24.5
2493.74	22.5
2494.66	21
2495.57	22.5
2496.48	26.5
2497.39	21
2498.3	19
2499.21	25.5
2500.12	24
2501.03	22
2501.93	24.5
2502.84	28.5
2503.75	22
2504.66	28
2505.57	24
2506.48	25.5
2507.39	21.5
2508.3	28.5
2509.21	23
2510.11	26.5
2511.02	24.5
2511.93	25
2512.84	25.5
2513.75	25
2514.65	23
2515.56	25.5
2516.47	21
2517.37	24.5
2518.28	23.5
2519.19	21
2520.09	23
2521	28
2521.91	17.5
2522.81	23
2523.72	22.5
2524.63	25
2525.53	23.5
2526.44	24.5
2527.34	21.5
2528.25	25
2529.16	27
2530.06	24.5
2530.97	25.5
2531.87	27
2532.78	26
2533.68	24
2534.58	25
2535.49	26
2536.39	24
2537.3	27.5
2538.2	23.5
2539.11	23
2540.01	22.5
2540.91	24
2541.82	26.5
2542.72	23.5
2543.62	20.5
2544.53	19.5
2545.43	26
2546.33	22
2547.23	29
2548.14	21
2549.04	24
2549.94	23.5
2550.84	22
2551.75	24
2552.65	21
2553.55	25.5
2554.45	23
2555.35	23.5
2556.26	25
2557.16	21
2558.06	25
2558.96	27
2559.86	23.5
2560.76	24
2561.66	26
2562.56	23
2563.46	25.5
2564.36	25
2565.26	23.5
2566.16	24
2567.06	21.5
2567.96	23
2568.86	25
2569.76	21
2570.66	25.5
2571.56	26
2572.46	23
2573.36	23.5
2574.26	22.5
2575.16	26.5
2576.05	26.5
2576.95	25.5
2577.85	22.5
2578.75	24.5
2579.65	24
2580.54	25
2581.44	26
2582.34	24.5
2583.24	27
2584.13	28.5
2585.03	22
2585.93	22
2586.83	22.5
2587.72	23.5
2588.62	24.5
2589.52	26.5
2590.41	23
2591.31	25.5
2592.2	22
2593.1	24
2594	24
2594.89	24.5
2595.79	24
2596.68	21.5
2597.58	24.5
2598.47	29.5
2599.37	23.5
2600.26	24
2601.16	18
2602.05	29.5
2602.95	24.5
2603.84	25
2604.74	25
2605.63	27
2606.52	26.5
2607.42	25
2608.31	27.5
2609.21	26.5
2610.1	25
2610.99	20
2611.89	26
2612.78	23
2613.67	27
2614.56	23
2615.46	25
2616.35	23.5
2617.24	25.5
2618.13	20
2619.03	23
2619.92	25.5
2620.81	24
2621.7	21
2622.59	24.5
2623.49	23.5
2624.38	23
2625.27	26.5
2626.16	22.5
2627.05	23.5
2627.94	24
2628.83	24.5
2629.72	27
2630.61	25.5
2631.5	25
2632.39	26.5
2633.28	24
2634.17	25
2635.06	22.5
2635.95	22.5
2636.84	28
2637.73	22
2638.62	24
2639.51	24
2640.4	27
2641.29	22
2642.18	23
2643.07	25
2643.96	23.5
2644.84	26
2645.73	28
2646.62	22.5
2647.51	24.5
2648.4	24.5
2649.28	23
2650.17	21
2651.06	23.5
2651.95	22.5
2652.83	25
2653.72	25
2654.61	22.5
2655.49	25.5
2656.38	21.5
2657.27	24
2658.16	23.5
2659.04	24
2659.93	25.5
2660.81	24.5
2661.7	23
2662.59	22
2663.47	22
2664.36	22.5
2665.24	22
2666.13	27
2667.01	23
2667.9	26.5
2668.78	25
2669.67	23.5
2670.55	21.5
2671.44	23.5
2672.32	22.5
2673.21	29
2674.09	26
2674.97	25.5
2675.86	22.5
2676.74	27
2677.62	20
2678.51	20.5
2679.39	23
2680.27	21.5
2681.16	30.5
2682.04	25.5
2682.92	23.5
2683.81	24.5
2684.69	22.5
2685.57	21
2686.45	26
2687.34	25.5
2688.22	24
2689.1	24
2689.98	18.5
2690.86	22
2691.75	21
2692.63	23
2693.51	25
2694.39	23
2695.27	22
2696.15	24.5
2697.03	29.5
2697.91	24
2698.79	20
2699.67	25.5
2700.55	24.5
2701.43	26
2702.31	25.5
2703.19	19.5
2704.07	28.5
2704.95	24
2705.83	26
2706.71	24
2707.59	21.5
2708.47	22
2709.35	22
2710.23	23.5
2711.11	27
2711.99	21
2712.86	22.5
2713.74	22.5
2714.62	29
2715.5	27
2716.38	25
2717.26	25.5
2718.13	24
2719.01	28
2719.89	19
2720.77	23
2721.64	22
2722.52	24
2723.4	27
2724.27	24
2725.15	24
2726.03	23
2726.9	28
2727.78	26
2728.66	25
2729.53	20
2730.41	26
2731.28	23
2732.16	22
2733.03	24.5
2733.91	25.5
2734.79	25
2735.66	24.5
2736.54	22.5
2737.41	21
2738.29	24.5
2739.16	19.5
2740.03	23
2740.91	27
2741.78	24.5
2742.66	27
2743.53	22.5
2744.41	20
2745.28	26.5
2746.15	26.5
2747.03	28.5
2747.9	23
2748.77	25
2749.65	24.5
2750.52	21
2751.39	25
2752.27	24.5
2753.14	22.5
2754.01	25
2754.88	25
2755.75	23
2756.63	27
2757.5	23
2758.37	23.5
2759.24	21
2760.11	19
2760.99	26
2761.86	25
2762.73	22.5
2763.6	24.5
2764.47	25
2765.34	25
2766.21	23.5
2767.08	23.5
2767.95	20
2768.82	24
2769.69	24.5
2770.56	22
2771.43	24
2772.3	25
2773.17	20
2774.04	23.5
2774.91	27
2775.78	26.5
2776.65	25.5
2777.52	28
2778.39	21.5
2779.26	26
2780.13	24
2780.99	24
2781.86	26.5
2782.73	21
2783.6	23
2784.47	24
2785.34	26
2786.2	24
2787.07	26
2787.94	24.5
2788.81	25.5
2789.67	24
2790.54	24
2791.41	21
2792.27	24
2793.14	23.5
2794.01	26
2794.87	23.5
2795.74	24
2796.61	24.5
2797.47	26
2798.34	25
2799.21	23
2800.07	24
2800.94	23.5
2801.8	23
2802.67	27.5
2803.53	24.5
2804.4	27
2805.26	25
2806.13	24
2806.99	21
2807.86	22
2808.72	24
2809.59	30
2810.45	24
2811.32	27
2812.18	23
2813.04	24
2813.91	28.5
2814.77	25
2815.64	28
2816.5	26
2817.36	26
2818.22	26
2819.09	25
2819.95	22
2820.81	23
2821.68	24.5
2822.54	28
2823.4	21.5
2824.26	23.5
2825.13	28.5
2825.99	24.5
2826.85	25
2827.71	24
2828.57	24
2829.44	28.5
2830.3	24
2831.16	25.5
2832.02	25
2832.88	23.5
2833.74	22.5
2834.6	25.5
2835.46	25
2836.32	23.5
2837.18	25
2838.04	25
2838.9	25
2839.76	26
2840.62	26
2841.48	25
2842.34	25
2843.2	26
2844.06	26.5
2844.92	23
2845.78	23.5
2846.64	22
2847.5	25.5
2848.36	22
2849.22	24
2850.08	26
2850.93	24
2851.79	28
2852.65	25.5
2853.51	21.5
2854.37	27
2855.22	26.5
2856.08	22
2856.94	25
2857.8	24.5
2858.65	27.5
2859.51	24.5
2860.37	26.5
2861.23	27.5
2862.08	25
2862.94	26
2863.79	28
2864.65	26
2865.51	24
2866.36	24
2867.22	23
2868.08	25
2868.93	27.5
2869.79	28.5
2870.64	27
2871.5	29
2872.35	30
2873.21	26
2874.06	25
2874.92	29
2875.77	28.5
2876.63	28.5
2877.48	26
2878.34	29
2879.19	29.5
2880.05	28
2880.9	29
2881.76	27.5
2882.61	30
2883.46	33
2884.32	31.5
2885.17	28
2886.02	30
2886.88	31
2887.73	31
2888.58	33
2889.44	34
2890.29	34.5
2891.14	36
2891.99	31
2892.85	39
2893.7	39.5
2894.55	38.5
2895.4	39
2896.25	43
2897.11	38.5
2897.96	47
2898.81	48
2899.66	48
2900.51	52
2901.36	51.5
2902.21	51
2903.07	60
2903.92	60.5
2904.77	59
2905.62	60
2906.47	64
2907.32	60.5
2908.17	61
2909.02	59
2909.87	59
2910.72	52
2911.57	51
2912.42	45.5
2913.27	45
2914.12	42
2914.97	42.5
2915.81	41.5
2916.66	40.5
2917.51	40
2918.36	38
2919.21	36.5
2920.06	30
2920.91	29
2921.75	32
2922.6	34.5
2923.45	30
2924.3	34
2925.15	30
2925.99	32
2926.84	30
2927.69	30.5
2928.54	27.5
2929.38	29
2930.23	30
2931.08	27
2931.92	29
2932.77	28.5
2933.62	26
2934.46	27.5
2935.31	26
2936.16	23.5
2937	26.5
2937.85	25.5
2938.69	26
2939.54	25
2940.38	26.5
2941.23	27.5
2942.08	28.5
2942.92	24.5
2943.77	28
2944.61	26.5
2945.46	29
2946.3	20.5
2947.15	30
2947.99	30
2948.83	28
2949.68	30.5
2950.52	31.5
2951.37	27.5
2952.21	32
2953.05	25
2953.9	30
2954.74	34
2955.58	31
2956.43	35.5
2957.27	31.5
2958.11	34
2958.96	34
2959.8	37.5
2960.64	34
2961.48	36.5
2962.33	40.5
2963.17	39
2964.01	38
2964.85	44
2965.69	37.5
2966.54	40
2967.38	38.5
2968.22	42
2969.06	35.5
2969.9	37.5
2970.74	37
2971.58	30.0073
2972.43	30.4876
2973.27	34.4905
2974.11	35.8712
2974.95	35.3471
2975.79	33.5165
2976.63	31.8425
2977.47	28.8372
2978.31	30.3167
2979.15	27.0976
2979.99	26.6977
2980.83	26.5281
2981.67	28.5733
2982.51	26.7802
2983.35	25.8016
2984.19	26.2014
2985.03	25.4759
2985.86	25.4189
2986.7	26.0952
2987.54	25.5427
2988.38	27.9268
2989.22	26.5956
2990.06	22.6926
2990.9	25.4187
2991.73	25.6189
2992.57	25.3271
2993.41	25.4745
2994.25	25.6195
2995.09	24.7217
2995.92	24.0702
2996.76	23.1703
2997.6	24.8123
2998.44	23.9517
2999.27	22.877
3000.11	22.0509
3000.95	21.5651
3001.78	21.8228
3002.62	22.6719
3003.46	22.8178
3004.29	23.9321
3005.13	21.3281
3005.96	24.5106
3006.8	22.1854
3007.64	24.2564
3008.47	22.3465
3009.31	24.004
3010.14	24.1618
3010.98	20.9049
3011.81	21.3228
3012.65	21.3617
3013.48	24.1615
3014.32	24.4236
3015.15	24.303
3015.99	23.7596
3016.82	21.2985
3017.66	22.0843
3018.49	24.0011
3019.33	21.6563
3020.16	22.7211
3020.99	21.9317
3021.83	22.3782
3022.66	22.3717
3023.5	24.5898
3024.33	25.3179
3025.16	21.5873
3026	22.504
3026.83	23.2733
3027.66	22.0723
3028.49	24.0239
3029.33	22.8601
3030.16	22.0903
3030.99	23.2002
3031.83	21.9442
3032.66	22.6456
3033.49	23.3295
3034.32	26.3585
3035.15	25.8238
3035.99	22.5172
3036.82	20.7362
3037.65	20.1321
3038.48	19.6365
3039.31	20.5913
3040.14	21.8962
3040.97	24.1549
3041.81	23.2072
3042.64	19.6322
3043.47	20.928
3044.3	21.3873
3045.13	20.6427
3045.96	22.9486
3046.79	23.7093
3047.62	21.9641
3048.45	21.744
3049.28	24.2561
3050.11	25.2929
3050.94	23.926
3051.77	22.2193
3052.6	20.7185
3053.43	22.6034
3054.26	25.2232
3055.08	22.9475
3055.91	21.772
3056.74	21.8985
3057.26	22.5
3058.09	22.5
3058.92	23
3059.76	22
3060.59	22
3061.42	18
3062.25	20
3063.09	22.5
3063.92	21
3064.75	24
3065.58	23.5
3066.42	22
3067.25	24
3068.08	25
3068.91	19.5
3069.74	23.5
3070.57	23
3071.41	21
3072.24	22
3073.07	25
3073.9	26
3074.73	27
3075.56	19.5
3076.39	20.5
3077.22	29
3078.05	22.5
3078.88	24
3079.71	21
3080.54	21.5
3081.37	23
3082.2	21
3083.03	24
3083.86	24
3084.69	21.5
3085.52	23.5
3086.35	25.5
3087.18	22.5
3088.01	18
3088.84	24
3089.67	24
3090.5	24
3091.32	25
3092.15	19
3092.98	23.5
3093.81	24
3094.64	21.5
3095.47	24
3096.29	19.5
3097.12	20
3097.95	22
3098.78	22.5
3099.6	23
3100.43	25.5
3101.26	21.5
3102.09	20
3102.91	23
3103.74	22
3104.57	23
3105.39	23
3106.22	24.5
3107.05	21
3107.87	21
3108.7	23
3109.52	23.5
3110.35	20
3111.18	24.5
3112	22
3112.83	22
3113.65	21
3114.48	25
3115.3	24
3116.13	25
3116.95	24.5
3117.78	19.5
3118.6	27
3119.43	22
3120.25	23.5
3121.08	23
3121.9	23.5
3122.72	23
3123.55	21.5
3124.37	25
3125.2	23
3126.02	25
3126.84	22
3127.67	24.5
3128.49	22.5
3129.31	25.5
3130.14	23.5
3130.96	25.5
3131.78	22
3132.61	23.5
3133.43	25
3134.25	22.5
3135.07	25
3135.89	22.5
3136.72	21
3137.54	23
3138.36	23.5
3139.18	24.5
3140	25.5
3140.83	24
3141.65	24
3142.47	23
3143.29	21.5
3144.11	21
3144.93	24.5
3145.75	19.5
3146.57	24
3147.4	22
3148.22	22
3149.04	21
3149.86	26
3150.68	25
3151.5	22
3152.32	22
3153.14	26.5
3153.96	22
3154.78	23.5
3155.59	20
3156.42	26
3157.23	23
3158.05	26
3158.87	23
3159.69	24.5
3160.51	21
3161.33	22.5
3162.15	21
3162.97	20
3163.78	24
3164.6	21.5
3165.42	24
3166.24	23
3167.06	26
3167.87	20
3168.69	24.5
3169.51	19
3170.33	23
3171.14	24
3171.96	26.5
3172.78	22
3173.6	25
3174.41	20
3175.23	21.5
3176.05	21.5
3176.86	27
3177.68	22.5
3178.5	22
3179.31	21
3180.13	22
3180.94	23
3181.76	22
3182.58	21
3183.39	22
3184.21	22
3185.02	21
3185.84	23.5
3186.65	27
3187.47	21
3188.28	21.5
3189.1	24.5
3189.91	20
3190.73	22.5
3191.54	26
3192.36	24
3193.17	20
3193.98	22.5
3194.8	21.5
3195.61	20.5
3196.43	28
3197.24	27.5
3198.05	22.5
3198.87	26
3199.68	20.5
3200.49	25.5
3201.31	23.5
3202.12	27
3202.93	22
3203.75	19.5
3204.56	22.5
3205.37	26.5
3206.18	18.5
3207	22.5
3207.81	24.5
3208.62	20
3209.43	21
3210.24	24
3211.06	26
3211.87	21.5
3212.68	25.5
3213.49	23
3214.3	24.5
3215.11	24.5
3215.92	21
3216.73	23.5
3217.55	24
3218.36	18
3219.17	28.5
3219.98	24
3220.79	23
3221.6	20.5
3222.41	24
3223.22	19.5
3224.03	19
3224.84	25.5
3225.65	22.5
3226.46	25
3227.27	20
3228.08	25
3228.89	21
3229.7	24
3230.5	18
3231.31	27.5
3232.12	23.5
3232.93	23
3233.74	24.5
3234.55	21.5
3235.36	20
3236.16	21
3236.97	23
3237.78	21.5
3238.59	22
3239.4	23
3240.2	21
3241.01	22.5
3241.82	24
3242.63	24
3243.43	26.5
3244.24	21.5
3245.05	23
3245.85	25
3246.66	18
3247.47	22
3248.27	24
3249.08	25
3249.89	23
3250.69	22.5
3251.5	23
3252.31	22.5
3253.11	25.5
3253.92	22.5
3254.72	22.5
3255.53	22
3256.33	21.5
3257.14	23
3257.94	21.5
3258.75	25
3259.55	25
3260.36	23.5
3261.16	24
3261.97	19
3262.77	23.5
3263.58	21.5
3264.38	24
3265.19	22
3265.99	20
3266.79	24
3267.6	24
3268.4	22.5
3269.21	21
3270.01	23
3270.81	22
3271.62	22
3272.42	18
3273.22	23
3274.03	26
3274.83	25
3275.63	27.5
3276.43	24
3277.24	26.5
3278.04	22.5
3278.84	23.5
3279.64	24
3280.45	25.5
3281.25	26.5
3282.05	23
3282.85	21
3283.65	25.5
3284.45	19
3285.26	21
3286.06	21.5
3286.86	24
3287.66	24.5
3288.46	24.5
3289.26	27
3290.06	25.5
3290.86	24
3291.66	19
3292.46	17
3293.26	24.5
3294.06	21
3294.86	28
3295.66	21.5
3296.46	25
3297.26	23
3298.06	23.5
3298.86	23.5
3299.66	20.5
3300.46	19.5
3301.26	21
3302.06	22
3302.86	24
3303.66	24
3304.46	22.5
3305.25	23
3306.05	25
3306.85	20.5
3307.65	25
3308.45	23
3309.25	23
3310.04	22.5
3310.84	23
3311.64	25
3312.44	23.5
3313.23	23
3314.03	21.5
3314.83	24.5
3315.63	23.5
3316.42	26.5
3317.22	23.5
3318.02	22
3318.81	21
3319.61	18
3320.41	26.5
3321.2	23
3322	21
3322.8	23.5
3323.59	24.5
3324.39	24.5
3325.18	19.5
3325.98	24.5
3326.78	25
3327.57	22.5
3328.37	21.5
3329.16	22.5
3329.96	22
3330.75	23
3331.55	23.5
3332.34	22
3333.14	23
3333.93	22
3334.73	25
3335.52	25
3336.31	24
3337.11	23.5
3337.9	22
3338.7	22
3339.49	23
3340.28	24
3341.08	24
3341.87	21
3342.66	24
3343.46	25.5
3344.25	24
3345.04	22
3345.84	22.5
3346.63	19
3347.42	23
3348.22	21.5
3349.01	24
3349.8	26
3350.59	23.5
3351.39	21.5
3352.18	24.5
3352.97	22
3353.76	23
3354.55	23.5
3355.35	20
3356.14	21.5
3356.93	25
3357.72	24
3358.51	21
3359.3	22
3360.09	23
3360.88	23.5
3361.67	26
3362.46	21.5
3363.26	23.5
3364.05	23
3364.84	25
3365.63	24
3366.42	23
3367.21	25
3368	20
3368.79	26.5
3369.58	27
3370.37	24.5
3371.15	25
3371.94	25
3372.73	19
3373.52	24
3374.31	23.5
3375.1	22
3375.89	26.5
3376.68	20.5
3377.47	24.5
3378.26	21
3379.04	23
3379.83	24.5
3380.62	22.5
3381.41	24.5
3382.2	21.5
3382.98	23
3383.77	20
3384.56	26
3385.35	24
3386.13	23.5
3386.92	21
3387.71	21
3388.5	24.5
3389.28	23.5
3390.07	21.5
3390.86	24.5
3391.64	22
3392.43	21.5
3393.22	24
3394	22.5
3394.79	22
3395.57	22.5
3396.36	20
3397.15	21
3397.93	22
3398.72	21
3399.5	24.5
3400.29	26
3401.07	26
3401.86	28
3402.65	24
3403.43	26
3404.21	26
3405	25
3405.78	25
3406.57	23
3407.35	24.5
3408.14	22.5
3408.92	25
3409.71	23
3410.49	24.5
3411.27	25.5
3412.06	23
3412.84	26
3413.62	27
3414.41	24.5
3415.19	20
3415.97	25
3416.76	22
3417.54	24
3418.32	25
3419.11	25
3419.89	21.5
3420.67	24.5
3421.46	22
3422.24	26.5
3423.02	23
3423.8	24
3424.58	25.5
3425.37	23
3426.15	24
3426.93	22.5
3427.71	23.5
3428.49	25
3429.27	25
3430.05	25
3430.84	22.5
3431.62	24.5
3432.4	25
3433.18	26.5
3433.96	22
3434.74	26
3435.52	22
3436.3	21
3437.08	24
3437.86	25.5
3438.64	23
3439.42	24
3440.2	21
3440.98	22
3441.76	22.5
3442.54	24.5
3443.32	21.5
3444.1	21
3444.88	22.5
3445.66	25.5
3446.44	25
3447.22	24.5
3448	23
3448.77	24.5
3449.55	21
3450.33	18.5
3451.11	22
3451.89	25.5
3452.67	22
3453.45	22
3454.22	23.5
3455	24
3455.78	19.5
3456.56	24.5
3457.33	22.5
3458.11	25.5
3458.89	20.5
3459.67	21
3460.44	21
3461.22	25
3462	27
3462.77	25
3463.55	23.5
3464.33	26
3465.1	25
3465.88	22
3466.66	25.5
3467.43	25
3468.21	21
3468.98	24
3469.76	22
3470.54	22
3471.31	22.5
3472.09	23.5
3472.86	22
3473.64	22.5
3474.41	24.5
3475.19	19.5
3475.96	19.5
3476.74	21
3477.51	26.5
3478.29	22.5
3479.06	24
3479.84	25
3480.61	22.5
3481.39	19
3482.16	24
3482.93	25.5
3483.71	27
3484.48	22.5
3485.25	23.5
3486.03	23
3486.8	29
3487.57	20
3488.35	24.5
3489.12	21.5
3489.89	21
3490.67	21.5
3491.44	26
3492.21	23
3492.99	23
3493.76	24.5
3494.53	19.5
3495.3	24
3496.08	21
3496.85	19.5
3497.62	18
3498.39	25.5
3499.16	28
3499.93	22
