#Acq. time (s)=	5
#Accumulations=	5
#Range (cm-¹)=	100...3500
#Windows=	4
#Autofocus=	Off
#AutoExposure=	Off
#Spike filter=	Multiple accum.
#Delay time (s)=	0
#Binning=	1
#Readout mode=	Signal
#DeNoise=	Off
#ICS correction=	Off
#Dark correction=	Off
#Inst. Process=	Off
#Instrument=	LabRAM HR Evol
#Detector=	Syncerity OE
#Objective=	x100_VIS
#Grating=	600 (500nm)
#ND Filter=	25%
#Laser=	633nm_Edge
#Hole=	100.021
#Range=	Visible
#Project=	verificaciones
#Sample=	at1
#Site=	plain
#Title=	bolusat1plain
#Remark=	com
#Date=	16.01.2026 16:24
#Acquired=	16.01.2026 16:24:50
100.564	24
101.847	33
103.131	31
104.414	27.5
105.697	32
106.979	33
108.262	29
109.544	30
110.826	29.5
112.109	30.5
113.391	26.5
114.672	28
115.954	25.5
117.235	35
118.515	33
119.796	30
121.076	31
122.357	35.5
123.637	33
124.916	32
126.196	35
127.475	28
128.754	35.5
130.033	32
131.31	34
132.589	36.5
133.867	35
135.145	38
136.423	34
137.701	37
138.978	32
140.256	31
141.533	36
142.809	35
144.086	40.5
145.361	38.5
146.637	33
147.913	41.5
149.189	36.5
150.464	41.5
151.74	44.5
153.014	35
154.288	41.5
155.563	40.5
156.838	43.5
158.112	41.5
159.385	41
160.659	44
161.932	38
163.206	43
164.479	41.5
165.751	40.5
167.024	46.5
168.296	39
169.567	41.5
170.84	39
172.112	40
173.383	37.5
174.654	43
175.925	37
177.196	39
178.466	40.5
179.737	43.5
181.007	40.5
182.276	41
183.546	43
184.816	46.5
186.085	46.5
187.354	41.5
188.624	41.5
189.891	40
191.16	36
192.427	43.5
193.696	43.5
194.964	47
196.231	41
197.499	40
198.765	41
200.033	41.5
201.298	39.5
202.566	35.5
203.831	39.5
205.098	37.5
206.363	37
207.629	39.5
208.894	37.5
210.159	36.5
211.424	33.5
212.689	33
213.953	35.5
215.218	30
216.481	34.5
217.746	30
219.009	33
220.273	31
221.536	35.5
222.798	32.5
224.062	34.5
225.323	38
226.587	31
227.848	32
229.109	29.5
230.372	32
231.633	34.5
232.894	33
234.156	29.5
235.416	29
236.678	37
237.937	33
239.197	31.5
240.457	28
241.717	30.5
242.976	33.5
244.235	28.5
245.495	31
246.754	33.5
248.012	29.5
249.27	32.5
250.529	28.5
251.787	30.5
253.045	29
254.302	28.5
255.56	24
256.817	28.5
258.074	29.5
259.33	27.5
260.586	33
261.844	29
263.1	30
264.355	27
265.611	28.5
266.866	31.5
268.121	27.5
269.377	28.5
270.632	33
271.886	27.5
273.14	28.5
274.394	26
275.648	31
276.902	30
278.155	25.5
279.408	30.5
280.663	25
281.915	31.5
283.168	30
284.42	32.5
285.673	32
286.925	30
288.176	29
289.428	28.5
290.679	28
291.93	26
293.181	29
294.432	31
295.683	33
296.933	29
298.183	28.5
299.433	27
300.683	27
301.932	30.5
303.182	27
304.429	30
305.678	25
306.927	30
308.176	28
309.424	27
310.672	24.5
311.92	29
313.168	29.5
314.415	27.5
315.661	25
316.908	28
318.155	27.5
319.402	29
320.648	30
321.895	29
323.139	27.5
324.385	31
325.631	28
326.877	31
328.122	27.5
329.366	27
330.611	31
331.855	26.5
333.1	23
334.343	25
335.587	28
336.831	28.5
338.074	30
339.317	24.5
340.56	28
341.803	31
343.044	30
344.287	27.5
345.53	29
346.771	27
348.013	31
349.255	24
350.495	28
351.736	29
352.978	31
354.217	30.5
355.458	26
356.699	29
357.938	28
359.178	26.5
360.417	24
361.657	25.5
362.895	30.5
364.135	20
365.374	29
366.612	28.5
367.851	33
369.088	27.5
370.327	29
371.564	29
372.802	26.5
374.038	27.5
375.276	24
376.512	31
377.749	26
378.985	29
380.222	29
381.457	26
382.692	30
383.929	24.5
385.164	26
386.4	29.5
387.634	30.5
388.869	24
390.103	26
391.337	28
392.572	29
393.805	27
395.038	29
396.273	24.5
397.506	26.5
398.74	26
399.972	28
401.204	32
402.437	27
403.669	30.5
404.901	23.5
406.132	26
407.365	29.5
408.596	27.5
409.826	26
411.058	28
412.289	24
413.519	26
414.749	23
415.98	26
417.21	28
418.439	27
419.668	25
420.897	30
422.128	28.5
423.356	26.5
424.585	28.5
425.813	28.5
427.041	26.5
428.269	31
429.498	26.5
430.725	28
431.952	26.5
433.179	27
434.406	29.5
435.633	27
436.859	27
438.085	27
439.312	29.5
440.537	27
441.764	26.5
442.99	23
444.215	30.5
445.44	29
446.665	29
447.89	29
449.114	29.5
450.339	26.5
451.563	32.5
452.787	28
454.01	29
455.234	24
456.457	30.5
457.68	31.5
458.903	29
460.126	30
461.348	29.5
462.569	27
463.792	31
465.013	29.5
466.235	32.5
467.457	32
468.678	31.5
469.899	33.5
471.12	33
472.341	34.5
473.56	37.5
474.781	41.5
476.001	39
477.221	40
478.441	46.5
479.66	42.5
480.878	53
482.098	55
483.317	51
484.535	60
485.754	59.5
486.971	63.5
488.189	60
489.407	67
490.625	61.5
491.842	62.5
493.059	53
494.276	59.5
495.493	55.5
496.709	51
497.926	52.5
499.142	46.5
500.357	43.5
501.573	46.5
502.789	40.5
504.003	42
505.219	41
506.434	38
507.648	37
508.863	36.5
510.078	32.5
511.291	33
512.505	32
513.718	35.5
514.932	33
516.145	32.5
517.358	32.5
518.572	34
519.783	34.5
520.997	27
522.208	31
523.421	32.5
524.632	29.5
525.844	30
527.055	29.5
528.266	27.5
529.477	29.5
530.688	28
531.898	33.5
533.109	32
534.319	27.5
535.53	30.5
536.739	28.5
537.948	27
539.158	27.5
540.366	24.5
541.576	27.5
542.784	31
543.994	28.5
545.201	31.5
546.409	26
547.618	31
548.825	29
550.032	27.5
551.24	25
552.447	30.5
553.654	27
554.861	30
556.067	27
557.273	30
558.48	29
559.686	27
560.891	28
562.096	30.5
563.302	29
564.507	27.5
565.712	30.5
566.916	27
568.122	28.5
569.326	33
570.529	26
571.733	27.5
572.936	23
574.141	26.5
575.344	32.5
576.547	30.5
577.75	30
578.952	25
580.154	27
581.358	25
582.56	28
583.761	25
584.963	25
586.164	28
587.365	30
588.566	23.5
589.767	27.5
590.967	25
592.168	26
593.369	28
594.569	27.5
595.769	27
596.969	27
598.168	24.5
599.367	27
600.566	29
601.765	32
602.964	29
604.162	30
605.361	30.5
606.559	29.5
607.757	29.5
608.953	28.5
610.151	30
611.348	31.5
612.545	29.5
613.742	26
614.939	28.5
616.135	29
617.332	30.5
618.528	26.5
619.724	24.5
620.918	26.5
622.114	27
623.309	29.5
624.505	28
625.7	31.5
626.895	30.5
628.088	31.5
629.282	28
630.477	23.5
631.671	21
632.865	27.5
634.057	31
635.251	28
636.444	28
637.637	28
638.829	25.5
640.022	29.5
641.214	26.5
642.407	31.5
643.598	28
644.79	26.5
645.982	28.5
647.172	26.5
648.364	29
649.555	28
650.745	24.5
651.936	29
653.126	29
654.315	33
655.506	30.5
656.696	25.5
657.885	29.5
659.074	27
660.263	30.5
661.452	25.5
662.64	26
663.829	21
665.018	27.5
666.205	31.5
667.394	27.5
668.581	31.5
669.769	30
670.955	28.5
672.143	29.5
673.329	31
674.517	30.5
675.703	33.5
676.89	31
678.075	31.5
679.262	31
680.447	34.5
681.632	35.5
682.818	31.5
684.002	35
685.188	33.5
686.372	31
687.556	34
688.741	36.5
689.925	35.5
691.11	37
692.293	29
693.476	38
694.66	35.5
695.843	32.5
697.025	36
698.209	35
699.391	35.5
700.573	36
701.756	36.5
702.938	41.5
704.119	40.5
705.3	40
706.483	52
707.664	48
708.844	51
710.025	54.5
711.206	47
712.386	46.5
713.566	42.5
714.746	40.5
715.925	35
717.106	34
718.285	36
719.464	35
720.643	32.5
721.822	32
723	27.5
724.178	29.5
725.358	26
726.536	30
727.713	28
728.891	29
730.068	30.5
731.245	29
732.422	28
733.599	31
734.775	27.5
735.952	26
737.128	29.5
738.304	30
739.48	27.5
740.656	27
741.831	27
743.006	29.5
744.181	26
745.356	29
746.531	29.5
747.706	26.5
748.88	28
750.054	28.5
751.228	25
752.402	27.5
753.576	26
754.749	27
755.922	28
757.095	27
758.267	30
759.44	28
760.612	30
761.785	25
762.957	26
764.129	26
765.301	31
766.471	31.5
767.642	28.5
768.814	29.5
769.985	25
771.156	27.5
772.325	26
773.495	29
774.666	27
775.836	28
777.005	28.5
778.174	27.5
779.344	29.5
780.513	26
781.681	31
782.85	30
784.019	31.5
785.187	31
786.355	27.5
787.523	34.5
788.69	31
789.858	34.5
791.026	30.5
792.192	30
793.36	31
794.526	32
795.693	28.5
796.86	29
798.025	26
799.191	26
800.356	29
801.523	23.5
802.689	26.5
803.853	25.5
805.019	27.5
806.183	28
807.348	29.5
808.512	25.5
809.677	21
810.84	29
812.005	29.5
813.167	26.5
814.332	31.5
815.494	29
816.657	29
817.82	25
818.982	27.5
820.146	26
821.307	26
822.47	26
823.632	28.5
824.793	26.5
825.955	27.5
827.116	25
828.277	27
829.439	23
830.599	26
831.759	28
832.92	30
834.08	25.5
835.24	26
836.4	24
837.56	29.5
838.719	28
839.877	26
841.037	25.5
842.196	29
843.354	23
844.512	29.5
845.672	26.5
846.83	23.5
847.987	28.5
849.145	30
850.302	24
851.46	28
852.617	25
853.774	22
854.93	27
856.087	28.5
857.243	27
858.4	29.5
859.556	29.5
860.712	32
861.867	29
863.022	30
864.177	32.5
865.332	29
866.487	30
867.642	28
868.796	26
869.95	27.5
871.104	28.5
872.258	28
873.412	27
874.565	29.5
875.718	25
876.872	26
878.024	27.5
879.177	24.5
880.33	22
881.482	25.5
882.635	26.5
883.787	26
884.938	27.5
886.09	25
887.242	22
888.393	27.5
889.544	24
890.695	29
891.845	25
892.995	23
894.146	24.5
895.296	24
896.446	26
897.596	29
898.744	28.5
899.894	25.5
901.043	29
902.193	26.5
903.342	28.5
904.489	26.5
905.638	26.5
906.786	26.5
907.935	25
909.081	26
910.229	27
911.377	28
912.525	23.5
913.671	25
914.818	28
915.965	24
917.111	22
918.258	29.5
919.404	25.5
920.549	23.5
921.695	26.5
922.84	26
923.986	30.5
925.132	26
926.276	24.5
927.421	24.5
928.565	25.5
929.71	25
930.855	22.5
931.998	26.5
933.142	28
934.285	28.5
935.429	26.5
936.572	25
937.716	22.5
938.858	24
940.001	27.5
941.143	25
942.286	26
943.428	28.5
944.57	25.5
945.712	25
946.854	28
947.995	27
949.135	27
950.277	26
951.418	28
952.559	25
953.699	22.5
954.839	22.5
955.98	27
957.119	28.5
958.258	25
959.399	24.5
960.538	21
961.676	24.5
962.816	27
963.955	28
965.093	22.5
966.232	28
967.37	24.5
968.508	26
969.645	24.5
970.784	23.5
971.921	22
973.058	25
974.195	24.5
975.333	27.5
976.469	26
977.605	28.5
978.741	26.5
979.877	26
981.013	30
982.15	30.5
983.285	25
984.421	26
985.556	26.5
986.691	26.5
987.825	24
988.96	27.5
990.094	27
991.228	26
992.364	24
993.497	23
994.631	27.5
995.765	27
996.898	24
998.031	28.5
999.164	24
1000.3	24.5
1001.43	26.5
1002.56	25.5
1003.69	22.5
1004.83	24.5
1005.96	27.5
1007.09	26
1008.22	27.5
1009.35	26
1010.48	25
1011.61	25
1012.74	23.5
1013.88	27.5
1015.01	27
1016.14	26.5
1017.27	27
1018.4	24
1019.53	24
1020.65	22.5
1021.78	26
1022.91	23
1024.04	25
1025.17	28
1026.3	26
1027.43	26
1028.56	25.5
1029.68	25
1030.81	24
1031.94	24
1033.07	26.5
1034.19	21
1035.32	24.5
1036.45	23
1037.58	24
1038.7	26.5
1039.83	25
1040.95	23
1042.08	22.5
1043.21	27.5
1044.33	25.5
1045.46	27
1046.58	25
1047.71	25.5
1048.83	25
1049.96	25
1051.08	27
1052.21	24.5
1053.33	25.5
1054.45	21
1055.58	27
1056.7	27
1057.82	27
1058.95	29.5
1060.07	23.5
1061.19	25
1062.32	29
1063.44	24.5
1064.56	26
1065.68	30
1066.81	24.5
1067.93	25
1069.05	26
1070.17	24
1071.29	26
1072.41	24
1073.53	25.5
1074.65	21
1075.77	26.5
1076.89	26
1078.01	24.5
1079.13	22.5
1080.25	26.5
1081.37	25
1082.49	25.5
1083.61	24
1084.73	21
1085.85	24
1086.97	28
1088.09	23.5
1089.2	23
1090.32	26
1091.44	26
1092.56	28
1093.68	22.5
1094.79	22.5
1095.91	24.5
1097.03	23.5
1098.14	23.5
1099.26	23
1100.38	21.5
1101.49	26
1102.61	27
1103.73	26.5
1104.84	25.5
1105.96	22.5
1107.07	26.5
1108.19	26.5
1109.3	26
1110.42	25
1111.53	23
1112.65	23.5
1113.76	27
1114.88	26.5
1115.99	27
1117.1	22.5
1118.22	25
1119.33	19.5
1120.44	24.5
1121.56	25
1122.67	24
1123.78	24.5
1124.89	23.5
1126.01	23
1127.12	22
1128.23	26
1129.34	27
1130.45	24.5
1131.56	20
1132.67	24
1133.79	24.5
1134.9	27
1136.01	23
1137.12	23.5
1138.23	21
1139.34	22
1140.45	29
1141.56	23.5
1142.67	19.5
1143.78	23
1144.89	26
1145.99	27.5
1147.1	24
1148.21	26.5
1149.32	26
1150.43	22.5
1151.54	22.5
1152.65	22.5
1153.75	24.5
1154.86	25
1155.97	27.5
1157.08	27
1158.18	26.5
1159.29	22.5
1160.4	21.5
1161.5	26
1162.61	22
1163.72	29.5
1164.82	28
1165.93	25.5
1167.03	23.5
1168.14	27.5
1169.24	22.5
1170.35	23
1171.45	24
1172.56	24
1173.66	24
1174.77	19
1175.87	22
1176.98	27
1178.08	24.5
1179.18	27
1180.29	23.5
1181.39	25.5
1182.49	23
1183.6	20
1184.7	24.5
1185.8	23.5
1186.9	28
1188	18.5
1189.11	24.5
1190.21	26
1191.31	24.5
1192.41	21.5
1193.51	24
1194.61	23.4962
1195.72	24.4172
1196.82	24.0913
1197.92	21.6529
1199.02	25.0171
1200.12	23.8442
1201.22	23.1701
1202.32	24.8262
1203.42	27.3065
1204.52	25.0144
1205.62	24.6474
1206.71	23.3282
1207.81	21.5174
1208.91	22.6399
1210.01	24.0212
1211.11	21.9863
1212.21	22.1966
1213.31	19.5988
1214.4	24.2507
1215.5	26.2849
1216.6	19.5937
1217.7	21.9049
1218.79	26.5116
1219.89	23.9342
1220.99	21.8652
1222.08	23.6019
1223.18	19.7473
1224.28	24.5662
1225.37	23.6364
1226.47	25.9988
1227.56	26.0236
1228.66	22.35
1229.76	23.677
1230.85	25.635
1231.95	21.0552
1233.04	21.6673
1234.14	21.8769
1235.23	23.5694
1236.32	23.1509
1237.42	23.8157
1238.51	24.0329
1239.61	23.829
1240.7	24.9145
1241.79	23.7143
1242.89	22.5154
1243.98	23.6746
1245.07	21.4381
1246.17	21.0869
1247.26	21.9182
1248.35	20.7964
1249.44	24.084
1250.53	26.1057
1251.63	25.6546
1252.72	22.6233
1253.81	25.2206
1254.9	26.2306
1255.99	21.5652
1257.08	24.7712
1258.17	26.1019
1259.27	26.2901
1260.36	25.8599
1261.45	26.0482
1262.54	27.3383
1263.63	26.2278
1264.72	23.4393
1265.81	24.1557
1266.89	24.4836
1267.98	25.0112
1269.07	29.1349
1270.16	27.4682
1271.25	25.3551
1272.34	22.8356
1273.43	23.634
1274.52	22.6979
1275.6	24.6739
1276.69	24.8044
1277.78	23.676
1278.87	23.1664
1279.95	22.6638
1281.04	22.4931
1282.13	25.024
1283.22	24.206
1284.3	23.1198
1285.39	24.6268
1286.48	23.0977
1287.56	24.0531
1288.65	21.1217
1289.73	23.9094
1290.82	26.0763
1291.9	26.4515
1292.99	22.4428
1294.07	23.0054
1295.16	23.2835
1296.24	23.1845
1297.33	25.4098
1298.41	24.1658
1299.5	23.1578
1300.58	24.5867
1301.66	24.1405
1302.75	23.2035
1303.83	18.9043
1304.91	22.9221
1306	23.9527
1306.4	22.5
1307.48	23.5
1308.57	26
1309.66	23
1310.75	26.5
1311.84	25
1312.92	25.5
1314.01	22.5
1315.1	22.5
1316.18	24
1317.27	23.5
1318.36	30
1319.44	23
1320.53	23
1321.62	25
1322.7	27
1323.79	29
1324.87	24
1325.96	28
1327.04	25.5
1328.13	22.5
1329.21	25
1330.3	23.5
1331.38	23
1332.47	23
1333.55	24
1334.64	24.5
1335.72	25.5
1336.8	27
1337.89	26.5
1338.97	22.5
1340.05	23.5
1341.14	25.5
1342.22	22.5
1343.3	26
1344.38	26
1345.47	23.5
1346.55	21
1347.63	23.5
1348.71	28
1349.79	27.5
1350.87	23
1351.96	23
1353.04	21
1354.12	22
1355.2	26.5
1356.28	21.5
1357.36	24
1358.44	23.5
1359.52	22.5
1360.6	22.5
1361.68	20.5
1362.76	26
1363.84	22
1364.92	21.5
1366	25
1367.07	23
1368.15	22.5
1369.23	22.5
1370.31	23
1371.39	21.5
1372.47	21.5
1373.54	27.5
1374.62	27.5
1375.7	23.5
1376.78	21
1377.85	29
1378.93	22
1380.01	28
1381.08	22.5
1382.16	23.5
1383.24	19.5
1384.31	23
1385.39	27
1386.46	19.5
1387.54	23
1388.61	25
1389.69	21
1390.76	23.5
1391.84	23
1392.91	23
1393.99	26.5
1395.06	23.5
1396.14	25
1397.21	26.5
1398.29	24.5
1399.36	27.5
1400.43	28
1401.51	29
1402.58	27
1403.65	30.5
1404.72	25
1405.8	28.5
1406.87	28
1407.94	28
1409.02	29
1410.09	31
1411.16	29.5
1412.23	27
1413.3	30.5
1414.37	32
1415.44	29.5
1416.51	27.5
1417.59	27
1418.66	28.5
1419.73	30.5
1420.8	30
1421.87	25.5
1422.94	25.5
1424.01	29
1425.08	25.5
1426.15	24
1427.22	23.5
1428.28	25.5
1429.35	26
1430.42	28
1431.49	29.5
1432.56	26
1433.63	27
1434.7	25
1435.76	24.5
1436.83	23
1437.9	27
1438.97	21.5
1440.03	24
1441.1	26
1442.17	28
1443.23	27
1444.3	20.5
1445.37	25.5
1446.43	24
1447.5	28.5
1448.57	26.5
1449.63	25
1450.7	23.5
1451.76	26
1452.83	24.5
1453.89	23
1454.96	27
1456.02	25.5
1457.09	27
1458.15	25
1459.22	27.5
1460.28	24
1461.34	22
1462.41	23.5
1463.47	21.5
1464.53	24
1465.6	24.5
1466.66	25
1467.72	26.5
1468.78	23
1469.85	20
1470.91	24
1471.97	21.5
1473.03	24
1474.1	26.5
1475.16	24
1476.22	24
1477.28	26.5
1478.34	26
1479.4	20
1480.46	29.5
1481.52	24
1482.58	24
1483.65	25
1484.71	30.5
1485.77	26
1486.82	26
1487.89	22.5
1488.94	24
1490	27.5
1491.06	25.5
1492.12	26.5
1493.18	25
1494.24	23.5
1495.3	25
1496.36	26.5
1497.41	26
1498.47	23
1499.53	27.5
1500.59	24.5
1501.65	23.5
1502.7	22
1503.76	24.5
1504.82	25
1505.87	24
1506.93	23.5
1507.99	23.5
1509.04	26
1510.1	29.5
1511.16	25
1512.21	19.5
1513.27	29.5
1514.32	21.5
1515.38	22.5
1516.43	23
1517.49	28.5
1518.54	25.5
1519.6	24
1520.65	24.5
1521.71	23
1522.76	24.5
1523.81	22.5
1524.87	25
1525.92	22
1526.98	23
1528.03	27
1529.08	24.5
1530.14	25
1531.19	27
1532.24	25
1533.29	24
1534.35	28
1535.4	27
1536.45	24
1537.5	25
1538.55	22.5
1539.61	25.5
1540.66	25
1541.71	29
1542.76	26
1543.81	24
1544.86	24.5
1545.91	23
1546.96	24
1548.01	26
1549.06	27.5
1550.11	25
1551.16	24.5
1552.21	25
1553.26	24
1554.31	25.5
1555.36	28
1556.41	27
1557.46	24.5
1558.5	25
1559.55	27
1560.6	25.5
1561.65	28
1562.7	30
1563.74	24
1564.79	27
1565.84	20
1566.89	24.5
1567.93	25
1568.98	26
1570.03	22.5
1571.07	25
1572.12	26
1573.17	26.5
1574.21	25
1575.26	25
1576.3	24
1577.35	27
1578.4	28.5
1579.44	26.5
1580.49	25.5
1581.53	25
1582.58	24
1583.62	24.5
1584.66	27
1585.71	23.5
1586.75	25
1587.8	25
1588.84	24.5
1589.88	22
1590.93	29
1591.97	25.5
1593.01	27
1594.06	28
1595.1	22
1596.14	24.5
1597.18	25.5
1598.23	24
1599.27	24.5
1600.31	22
1601.35	23.5
1602.39	23.5
1603.44	24.5
1604.48	20
1605.52	26.5
1606.56	25
1607.6	26
1608.64	20.5
1609.68	25
1610.72	27.5
1611.76	25
1612.8	22
1613.84	29
1614.88	24
1615.92	25.5
1616.96	27
1618	31
1619.04	25
1620.08	26
1621.12	29
1622.16	28
1623.19	24
1624.23	25
1625.27	25.5
1626.31	26
1627.35	23
1628.38	24
1629.42	24.5
1630.46	26
1631.49	24.5
1632.53	26.5
1633.57	21.5
1634.6	21.5
1635.64	21.5
1636.68	27
1637.71	25
1638.75	26
1639.79	26.5
1640.82	23.5
1641.86	28
1642.89	23
1643.93	24.5
1644.96	25.5
1646	25.5
1647.03	26
1648.07	22.5
1649.1	22.5
1650.13	26.5
1651.17	26
1652.2	22
1653.24	23
1654.27	24
1655.3	23.5
1656.34	26
1657.37	23.5
1658.4	24
1659.43	23.5
1660.47	27.5
1661.5	24
1662.53	25
1663.56	27.5
1664.6	25
1665.63	29
1666.66	28.5
1667.69	23
1668.72	26.5
1669.75	20
1670.78	26.5
1671.81	26
1672.85	22
1673.88	27.5
1674.91	22
1675.94	23
1676.97	24.5
1678	24.5
1679.03	22.5
1680.06	22
1681.09	24
1682.11	27.5
1683.14	28.5
1684.17	29
1685.2	22.5
1686.23	31
1687.26	25
1688.29	24
1689.31	26
1690.34	23.5
1691.37	22.5
1692.4	25
1693.42	22.5
1694.45	25
1695.48	29
1696.51	25
1697.53	26.5
1698.56	21.5
1699.59	27.5
1700.61	23
1701.64	21
1702.66	23.5
1703.69	26
1704.72	26.5
1705.74	28.5
1706.77	25
1707.79	25
1708.82	25
1709.84	25.5
1710.87	24
1711.89	24
1712.91	28.5
1713.94	23.5
1714.96	26
1715.99	25
1717.01	25.5
1718.03	26
1719.06	23
1720.08	27.5
1721.1	26
1722.13	25.5
1723.15	23
1724.17	22
1725.19	25
1726.22	24.5
1727.24	24
1728.26	26.5
1729.28	25
1730.3	25.5
1731.33	19
1732.35	26.5
1733.37	30
1734.39	25.5
1735.41	24.5
1736.43	24
1737.45	24.5
1738.47	25.5
1739.49	22
1740.51	22.5
1741.53	25.5
1742.55	24.5
1743.57	25.5
1744.59	26
1745.61	24
1746.63	24
1747.65	24
1748.67	24.5
1749.69	26
1750.7	26
1751.72	20.5
1752.74	23
1753.76	23
1754.78	26.5
1755.79	27
1756.81	21.5
1757.83	22
1758.85	21.5
1759.86	22.5
1760.88	25.5
1761.9	24
1762.91	23
1763.93	26.5
1764.95	25
1765.96	23.5
1766.98	26
1767.99	29
1769.01	26
1770.02	23
1771.04	24
1772.06	26.5
1773.07	27
1774.09	23
1775.1	27
1776.11	23.5
1777.13	23
1778.14	23.5
1779.16	23
1780.17	23
1781.18	24
1782.2	22.5
1783.21	22
1784.22	25
1785.24	24.5
1786.25	25
1787.26	24
1788.28	27
1789.29	23
1790.3	25.5
1791.31	22.5
1792.33	24.5
1793.34	28.5
1794.35	26
1795.36	28.5
1796.37	24.5
1797.38	23
1798.39	25
1799.4	23
1800.42	29.5
1801.43	23
1802.44	26.5
1803.45	27.5
1804.46	27
1805.47	27
1806.48	21.5
1807.49	25
1808.5	23.5
1809.51	23
1810.51	28.5
1811.52	22.5
1812.53	26
1813.54	28
1814.55	23.5
1815.56	20
1816.57	23.5
1817.57	26
1818.58	25
1819.59	25.5
1820.6	21
1821.61	21
1822.61	23.5
1823.62	23
1824.63	25.5
1825.63	25
1826.64	22
1827.65	24
1828.65	20
1829.66	28
1830.67	24
1831.67	25
1832.68	25.5
1833.68	25.5
1834.69	21
1835.69	26
1836.7	25.5
1837.7	25.5
1838.71	23
1839.71	24
1840.72	24
1841.72	24
1842.73	25.5
1843.73	25.5
1844.73	21.5
1845.74	21
1846.74	23
1847.74	25.5
1848.75	21
1849.75	24.5
1850.75	22.5
1851.76	25
1852.76	25
1853.76	27
1854.76	25.5
1855.77	26
1856.77	26.5
1857.77	23.5
1858.77	26.5
1859.77	21
1860.77	27.5
1861.78	25
1862.78	23
1863.78	25
1864.78	27.5
1865.78	25.5
1866.78	22
1867.78	25
1868.78	23.5
1869.78	24.5
1870.78	23.5
1871.78	22
1872.78	22
1873.78	28
1874.78	22.5
1875.78	25.5
1876.78	24
1877.78	23
1878.77	24
1879.77	26
1880.77	24
1881.77	25.5
1882.77	26
1883.77	23.5
1884.76	26
1885.76	26
1886.76	23.5
1887.75	23.5
1888.75	22
1889.75	27.5
1890.75	23.5
1891.74	23
1892.74	25.5
1893.73	21.5
1894.73	21.5
1895.73	23
1896.72	24.5
1897.72	19.5
1898.71	28.5
1899.71	26.5
1900.7	23
1901.7	21.5
1902.69	24.5
1903.69	22
1904.68	22
1905.68	25.5
1906.67	24
1907.67	24
1908.66	26
1909.65	26
1910.65	26
1911.64	24.5
1912.63	20.5
1913.63	26.5
1914.62	20.5
1915.61	22.5
1916.61	24.5
1917.6	27.5
1918.59	21
1919.58	22.5
1920.58	27.5
1921.57	26.5
1922.56	24.5
1923.55	24
1924.54	27
1925.54	23.5
1926.53	20
1927.52	27
1928.51	26
1929.5	26
1930.49	25
1931.48	25
1932.47	23.5
1933.46	23
1934.45	23.5
1935.44	23
1936.43	25
1937.42	26
1938.41	26
1939.4	23.5
1940.39	26
1941.38	26
1942.37	24
1943.35	26.5
1944.34	23.5
1945.33	25.5
1946.32	26.5
1947.31	20
1948.3	23.5
1949.28	26.5
1950.27	24
1951.26	21.5
1952.25	25
1953.23	21.5
1954.22	25.5
1955.21	25
1956.19	24
1957.18	21
1958.17	27
1959.15	26
1960.14	23.5
1961.12	25
1962.11	22
1963.1	23
1964.08	20
1965.07	23.5
1966.05	28.5
1967.04	20
1968.02	24
1969.01	24
1969.99	23
1970.98	21
1971.96	23
1972.94	23.5
1973.93	21
1974.91	25.5
1975.9	26.5
1976.88	26.5
1977.86	21.5
1978.85	26
1979.83	22.5
1980.81	26
1981.79	23.5
1982.78	24.5
1983.76	21.5
1984.74	23.5
1985.72	26
1986.71	21
1987.69	22.5
1988.67	23
1989.65	22
1990.63	25.5
1991.61	21.5
1992.59	22
1993.57	22
1994.56	25.5
1995.54	24
1996.52	25
1997.5	23
1998.48	24.5
1999.46	24
2000.44	20.5
2001.42	24
2002.4	23
2003.38	24
2004.36	23.5
2005.33	26.5
2006.31	26
2007.29	22.5
2008.27	26
2009.25	22.5
2010.23	25
2011.21	23.5
2012.18	23
2013.16	20.5
2014.14	28
2015.12	20
2016.09	22.5
2017.07	24
2018.05	23
2019.03	27.5
2020	22.5
2020.98	22.5
2021.96	26.5
2022.93	24
2023.91	26.5
2024.89	22
2025.86	21.5
2026.84	19.5
2027.81	24.5
2028.79	24
2029.76	26.5
2030.74	22.5
2031.71	24.5
2032.69	23.5
2033.66	25
2034.64	24
2035.61	23
2036.59	23
2037.56	21
2038.54	21.5
2039.51	18.5
2040.48	21
2041.46	24.5
2042.43	24.5
2043.4	21.5
2044.38	24.5
2045.35	23
2046.32	21.5
2047.29	24
2048.27	22
2049.24	24
2050.21	21.5
2051.18	21
2052.16	25
2053.13	25.5
2054.1	22.5
2055.07	23.5
2056.04	21
2057.01	21.5
2057.98	21
2058.96	21.5
2059.93	20
2060.9	21
2061.87	22
2062.84	26
2063.81	22
2064.78	21.5
2065.75	23.5
2066.72	22.5
2067.69	23
2068.66	19.5
2069.63	22.5
2070.6	23.5
2071.56	23
2072.53	23.5
2073.5	22
2074.47	21.5
2075.44	22.5
2076.41	24.5
2077.38	19.5
2078.34	23
2079.31	20
2080.28	22.5
2081.25	22
2082.21	22.5
2083.18	23.5
2084.15	28
2085.11	24.5
2086.08	21
2087.05	23.5
2088.01	26.5
2088.98	21
2089.95	23
2090.91	24
2091.88	25.5
2092.84	23
2093.81	25
2094.78	22.5
2095.74	23
2096.71	23
2097.67	22.5
2098.64	20.5
2099.6	24
2100.57	25
2101.53	22
2102.49	25.5
2103.46	26
2104.42	24.5
2105.39	19
2106.35	21.5
2107.31	23
2108.28	23
2109.24	20.5
2110.2	25
2111.17	22.5
2112.13	20.5
2113.09	23
2114.05	25
2115.02	24.5
2115.98	26
2116.94	23
2117.9	24
2118.86	27.5
2119.83	22.5
2120.79	29
2121.75	26
2122.71	21.5
2123.67	25
2124.63	24
2125.59	22.5
2126.55	20
2127.51	21.5
2128.47	22.5
2129.43	27
2130.39	23.5
2131.35	22
2132.31	23
2133.27	19
2134.23	23.5
2135.19	27.5
2136.15	22
2137.11	21
2138.07	22.5
2139.03	21
2139.99	24.5
2140.94	25
2141.9	22.5
2142.86	19.017
2143.82	23.0104
2144.78	24.433
2145.73	21.6522
2146.69	24.8629
2147.65	23.0501
2148.61	17.9931
2149.56	20.5911
2150.52	21.8629
2151.48	21.7982
2152.43	21.5077
2153.39	20.635
2154.35	22.2308
2155.3	24.2704
2156.26	24.8392
2157.21	22.9245
2158.17	23.3054
2159.13	23.601
2160.08	22.2602
2161.04	18.842
2161.99	23.642
2162.95	23.1488
2163.9	22.5828
2164.86	21.9806
2165.81	22.1814
2166.77	23.7155
2167.72	22.4405
2168.67	21.0916
2169.63	21.8583
2170.58	26.2034
2171.54	19.3104
2172.49	20.3746
2173.44	26.9632
2174.4	22.3149
2175.35	22.02
2176.3	21.3534
2177.26	22.0524
2178.21	22.1562
2179.16	17.8273
2180.11	24.8917
2181.07	24.7304
2182.02	20.8021
2182.97	22.2871
2183.92	20.384
2184.87	20.7085
2185.82	20.3956
2186.78	22.4514
2187.73	21.3753
2188.68	22.9222
2189.63	22.3041
2190.58	23.7174
2191.53	21.75
2192.48	21.0736
2193.43	21.4981
2194.38	21.9217
2195.33	23.1399
2196.28	21.2588
2197.23	22.1937
2198.18	22.1867
2199.13	21.0419
2200.08	22.4349
2201.03	21.6056
2201.98	20.3995
2202.93	20.0563
2203.88	18.8016
2204.83	21.3696
2205.77	22.2996
2206.72	23.6156
2207.67	23.521
2208.62	23.5121
2209.57	21.6055
2210.52	20.4438
2211.46	23.2105
2212.41	20.6929
2213.36	20.4494
2214.31	20.2657
2215.25	20.5516
2216.2	22.1465
2217.15	22.2687
2218.09	23.9298
2219.04	20.777
2219.99	23.1254
2220.93	24.7702
2221.88	24.5484
2222.82	24.7816
2223.77	20.8903
2224.72	21.2018
2225.66	22.1642
2226.61	24.3036
2227.55	25.5441
2228.5	22.0201
2229.44	22.4753
2230.39	22.1393
2231.33	21.3868
2232.28	20.835
2233.22	20.2227
2234.16	20.9093
2235.11	19.2774
2236.05	21.3283
2237	21.5262
2237.94	21.9855
2238.88	22.1047
2239.83	22
2240.13	22
2241.08	26.5
2242.03	22
2242.98	22
2243.92	21.5
2244.87	20.5
2245.82	22
2246.76	23.5
2247.71	21
2248.66	25
2249.61	22
2250.55	20.5
2251.5	22.5
2252.45	25
2253.39	19
2254.34	25.5
2255.28	22
2256.23	24
2257.18	22
2258.12	24
2259.07	20
2260.01	21
2260.96	17.5
2261.9	22.5
2262.85	21
2263.79	22.5
2264.74	22.5
2265.68	24
2266.63	25.5
2267.57	20.5
2268.51	26.5
2269.46	24
2270.4	21.5
2271.35	27
2272.29	23.5
2273.23	21
2274.18	23
2275.12	18
2276.06	20
2277	20
2277.95	24.5
2278.89	18
2279.83	22.5
2280.78	26
2281.72	25
2282.66	19
2283.6	21.5
2284.54	22
2285.48	19.5
2286.43	21.5
2287.37	19.5
2288.31	21.5
2289.25	23.5
2290.19	24
2291.13	23.5
2292.07	19
2293.01	22.5
2293.95	24.5
2294.89	22.5
2295.83	21
2296.77	21.5
2297.71	20.5
2298.65	21.5
2299.59	23.5
2300.53	23
2301.47	19
2302.41	24
2303.35	19.5
2304.29	23
2305.22	25.5
2306.16	19.5
2307.1	24.5
2308.04	23.5
2308.98	25.5
2309.91	19.5
2310.85	23.5
2311.79	21
2312.73	24
2313.66	19.5
2314.6	22.5
2315.54	22.5
2316.48	23
2317.41	23.5
2318.35	27.5
2319.29	23
2320.22	21
2321.16	22.5
2322.09	23.5
2323.03	22.5
2323.97	27
2324.9	22
2325.84	27
2326.77	22
2327.71	26
2328.64	22
2329.58	21
2330.51	25
2331.45	22
2332.38	25
2333.32	25.5
2334.25	25
2335.18	19.5
2336.12	20
2337.05	22.5
2337.99	20
2338.92	24
2339.85	21.5
2340.79	22
2341.72	27.5
2342.65	22.5
2343.59	21.5
2344.52	22.5
2345.45	26
2346.38	24
2347.32	25
2348.25	18
2349.18	20
2350.11	23
2351.04	21.5
2351.98	21
2352.91	26
2353.84	25
2354.77	23
2355.7	23
2356.63	25.5
2357.56	23
2358.49	21
2359.42	21.5
2360.35	29.5
2361.28	22.5
2362.21	25
2363.14	23.5
2364.07	24
2365	17
2365.93	26
2366.86	24
2367.79	24
2368.72	21.5
2369.65	22
2370.58	22
2371.51	24.5
2372.44	23
2373.36	23.5
2374.29	25.5
2375.22	24
2376.15	20.5
2377.08	23
2378	22.5
2378.93	21
2379.86	25
2380.79	22
2381.71	21.5
2382.64	21
2383.57	22
2384.49	18.5
2385.42	24
2386.35	24
2387.27	27.5
2388.2	23
2389.13	18.5
2390.05	24
2390.98	20.5
2391.9	20
2392.83	22.5
2393.76	24
2394.68	20
2395.61	22.5
2396.53	23
2397.46	26
2398.38	25
2399.3	23.5
2400.23	21.5
2401.15	24
2402.08	27
2403	23
2403.93	23.5
2404.85	23
2405.77	23
2406.7	26.5
2407.62	25.5
2408.54	21
2409.47	25
2410.39	23.5
2411.31	23.5
2412.24	24.5
2413.16	23.5
2414.08	27.5
2415	24
2415.92	25
2416.85	26.5
2417.77	21.5
2418.69	25.5
2419.61	21.5
2420.53	22
2421.45	23.5
2422.38	25.5
2423.3	22
2424.22	19
2425.14	22
2426.06	22.5
2426.98	25
2427.9	23
2428.82	24
2429.74	20
2430.66	22
2431.58	21
2432.5	25
2433.42	23.5
2434.34	21
2435.26	23
2436.18	25
2437.1	24.5
2438.01	23
2438.93	23
2439.85	24.5
2440.77	25
2441.69	22.5
2442.61	26
2443.52	23.5
2444.44	23.5
2445.36	26.5
2446.28	26
2447.2	22
2448.11	24
2449.03	25
2449.95	25
2450.86	23
2451.78	24
2452.7	25.5
2453.61	26
2454.53	24
2455.45	26
2456.36	21
2457.28	23.5
2458.2	24
2459.11	25.5
2460.03	24
2460.94	27
2461.86	23
2462.77	23.5
2463.69	20
2464.6	27.5
2465.52	27
2466.43	24.5
2467.35	20
2468.26	24.5
2469.18	23
2470.09	22.5
2471	25.5
2471.92	24.5
2472.83	24.5
2473.74	24.5
2474.66	19
2475.57	23.5
2476.48	27
2477.4	25.5
2478.31	24
2479.22	23.5
2480.14	28.5
2481.05	24.5
2481.96	23
2482.87	27
2483.79	24.5
2484.7	22.5
2485.61	23.5
2486.52	22
2487.43	24.5
2488.34	25.5
2489.25	25.5
2490.17	28
2491.08	26
2491.99	21
2492.9	22.5
2493.81	23
2494.72	19
2495.63	23.5
2496.54	26.5
2497.45	23.5
2498.36	25
2499.27	28
2500.18	25.5
2501.09	23
2502	26
2502.91	23
2503.82	25.5
2504.73	25
2505.63	23
2506.54	24.5
2507.45	22
2508.36	25
2509.27	24
2510.18	25.5
2511.09	25.5
2511.99	24.5
2512.9	22
2513.81	22
2514.72	24.5
2515.62	17
2516.53	26
2517.44	24.5
2518.34	23
2519.25	27.5
2520.16	19
2521.06	23
2521.97	24.5
2522.88	25
2523.78	22.5
2524.69	23
2525.6	21
2526.5	20.5
2527.41	25.5
2528.31	21.5
2529.22	26.5
2530.12	22
2531.03	20
2531.93	23.5
2532.84	25
2533.74	23
2534.65	24.5
2535.55	24
2536.46	25
2537.36	24.5
2538.27	23.5
2539.17	22
2540.07	26.5
2540.98	20.5
2541.88	24.5
2542.78	27
2543.69	25.5
2544.59	24
2545.49	24.5
2546.4	26
2547.3	25
2548.2	24.5
2549.1	19.5
2550.01	22
2550.91	23.5
2551.81	20.5
2552.71	22
2553.61	21.5
2554.52	23
2555.42	23
2556.32	23.5
2557.22	25
2558.12	27.5
2559.02	26
2559.92	26
2560.82	25
2561.72	25
2562.62	26
2563.53	22.5
2564.43	20.5
2565.33	24.5
2566.23	26.5
2567.13	24
2568.03	25.5
2568.92	26.5
2569.82	23
2570.72	25
2571.62	27.5
2572.52	21.5
2573.42	25.5
2574.32	22.5
2575.22	25
2576.12	24
2577.02	27
2577.91	20
2578.81	25
2579.71	21.5
2580.61	24
2581.5	22
2582.4	23
2583.3	20
2584.2	20
2585.09	26
2585.99	22.5
2586.89	23
2587.78	23.5
2588.68	27.5
2589.58	24
2590.47	19.5
2591.37	23.5
2592.27	23.5
2593.16	25
2594.06	21.5
2594.95	21.5
2595.85	23.5
2596.75	23.5
2597.64	26.5
2598.54	25.5
2599.43	22.5
2600.33	24.5
2601.22	24.5
2602.12	24
2603.01	26
2603.9	23
2604.8	25.5
2605.69	25
2606.59	27
2607.48	23.5
2608.37	26.5
2609.27	26.5
2610.16	27.5
2611.05	24
2611.95	21
2612.84	22.5
2613.73	26
2614.63	23.5
2615.52	22.5
2616.41	21
2617.3	24
2618.2	26
2619.09	21
2619.98	26.5
2620.87	22
2621.76	20.5
2622.66	27
2623.55	26
2624.44	24
2625.33	24
2626.22	21
2627.11	29
2628	26
2628.9	25.5
2629.79	24
2630.68	24
2631.57	24.5
2632.46	23.5
2633.35	22
2634.24	27.5
2635.13	23
2636.02	25.5
2636.91	24.5
2637.8	23.5
2638.68	21
2639.57	22
2640.46	25.5
2641.35	25
2642.24	23
2643.13	25
2644.02	23
2644.91	28
2645.79	23
2646.68	25
2647.57	23.5
2648.46	26.5
2649.35	27.5
2650.23	27
2651.12	23
2652.01	28.5
2652.9	24.5
2653.78	25
2654.67	25.5
2655.56	22
2656.44	24.5
2657.33	26
2658.22	24
2659.1	22
2659.99	21.5
2660.88	24
2661.76	25.5
2662.65	24.5
2663.53	24.5
2664.42	28.5
2665.3	23
2666.19	19
2667.07	21
2667.96	24
2668.84	27.5
2669.73	25
2670.61	28
2671.5	24
2672.38	24
2673.27	23
2674.15	21.5
2675.04	26.5
2675.92	25
2676.8	21.5
2677.69	28
2678.57	24.5
2679.45	24.5
2680.34	24
2681.22	28.5
2682.1	25.5
2682.99	22
2683.87	29
2684.75	21
2685.63	26.5
2686.52	27
2687.4	24.5
2688.28	24.5
2689.16	23
2690.04	24.5
2690.93	21
2691.81	24
2692.69	23
2693.57	24.5
2694.45	24
2695.33	20
2696.21	22
2697.09	25
2697.97	23.5
2698.85	21
2699.74	24
2700.62	22
2701.5	25.5
2702.38	24
2703.26	24
2704.14	24.5
2705.02	26
2705.89	25.5
2706.77	28
2707.65	24.5
2708.53	25
2709.41	24.5
2710.29	24
2711.17	22.5
2712.05	26.5
2712.93	22
2713.8	24.5
2714.68	21.5
2715.56	23
2716.44	24
2717.32	24
2718.19	23
2719.07	24.5
2719.95	21
2720.83	25.5
2721.7	22
2722.58	28.5
2723.46	19.5
2724.33	24.5
2725.21	23.5
2726.09	24.5
2726.97	23.5
2727.84	24.5
2728.72	25
2729.59	23.5
2730.47	24.5
2731.35	24.5
2732.22	28
2733.1	27.5
2733.97	25.5
2734.85	26
2735.72	23
2736.6	24
2737.47	22.5
2738.35	24
2739.22	23
2740.1	22
2740.97	24.5
2741.84	22
2742.72	22
2743.59	24
2744.47	28
2745.34	21
2746.21	23
2747.09	24
2747.96	24.5
2748.83	26.5
2749.71	28
2750.58	21.5
2751.45	25.5
2752.33	23
2753.2	25.5
2754.07	24
2754.94	25
2755.82	20.5
2756.69	22
2757.56	24.5
2758.43	27
2759.3	27
2760.18	22
2761.05	24
2761.92	23.5
2762.79	25.5
2763.66	26
2764.53	26
2765.4	25
2766.27	30.5
2767.14	24
2768.01	23.5
2768.88	21
2769.75	21.5
2770.62	22.5
2771.49	25
2772.36	25
2773.23	23.5
2774.1	25
2774.97	26
2775.84	23
2776.71	23
2777.58	24.5
2778.45	26
2779.32	23
2780.19	25.5
2781.06	24
2781.92	25.5
2782.79	21.5
2783.66	26
2784.53	21.5
2785.4	25
2786.26	24
2787.13	24
2788	25
2788.87	23
2789.73	24
2790.6	25
2791.47	23.5
2792.34	28
2793.2	27.5
2794.07	24
2794.94	27
2795.8	21
2796.67	26
2797.53	23
2798.4	28
2799.27	23.5
2800.13	26.5
2801	28.5
2801.86	28
2802.73	26
2803.59	22
2804.46	25
2805.32	27
2806.19	21.5
2807.05	23
2807.92	28
2808.78	26.5
2809.65	28.5
2810.51	24
2811.38	22
2812.24	26.5
2813.1	25
2813.97	27.5
2814.83	31
2815.7	24.5
2816.56	24
2817.42	30.5
2818.29	27
2819.15	30
2820.01	23
2820.87	28
2821.74	27
2822.6	26
2823.46	25
2824.32	26
2825.19	24.5
2826.05	23.5
2826.91	27
2827.77	26.5
2828.63	28
2829.5	26
2830.36	29
2831.22	24.5
2832.08	26.5
2832.94	26.5
2833.8	29
2834.66	25.5
2835.52	27
2836.38	23
2837.24	26.5
2838.1	23
2838.96	27
2839.82	23
2840.68	21
2841.54	26
2842.4	24
2843.26	23.5
2844.12	23.5
2844.98	26.5
2845.84	22.5
2846.7	25
2847.56	23.5
2848.42	25.5
2849.28	20.5
2850.14	27
2850.99	26.5
2851.85	26.5
2852.71	28
2853.57	29
2854.43	24
2855.28	26.5
2856.14	23
2857	25
2857.86	24
2858.71	24
2859.57	23.5
2860.43	25.5
2861.28	25
2862.14	29
2863	28
2863.86	25.5
2864.71	24.5
2865.57	22.5
2866.42	26.5
2867.28	29.5
2868.14	28.5
2868.99	26
2869.85	31
2870.7	24
2871.56	29.5
2872.41	27
2873.27	28
2874.13	28.5
2874.98	28.5
2875.83	25
2876.69	30.5
2877.54	27.5
2878.4	30.5
2879.25	33.5
2880.11	31
2880.96	33
2881.81	33
2882.67	34
2883.52	35
2884.38	31.5
2885.23	36.5
2886.08	37
2886.94	35
2887.79	38.5
2888.64	34.5
2889.5	31
2890.35	35.5
2891.2	38
2892.05	42
2892.91	39
2893.76	42.5
2894.61	44.5
2895.46	48.5
2896.31	51.5
2897.17	53
2898.02	49
2898.87	53
2899.72	53.5
2900.57	60.5
2901.42	64.5
2902.27	64
2903.12	67
2903.98	74
2904.83	70
2905.68	70.5
2906.53	71
2907.38	70.5
2908.23	71.5
2909.08	64.5
2909.93	72
2910.78	67
2911.63	58.5
2912.48	60
2913.33	52.5
2914.18	47.5
2915.02	50
2915.87	49.5
2916.72	38.5
2917.57	45
2918.42	38.5
2919.27	38
2920.12	35
2920.97	37.5
2921.81	32
2922.66	36.5
2923.51	32.5
2924.36	27.5
2925.21	28
2926.05	27
2926.9	37
2927.75	27.5
2928.59	29.5
2929.44	30
2930.29	31
2931.14	28.5
2931.98	25
2932.83	26.5
2933.68	30
2934.52	27.5
2935.37	24
2936.21	30
2937.06	31.5
2937.91	28
2938.75	26
2939.6	23
2940.44	30
2941.29	29.5
2942.14	27.5
2942.98	26
2943.82	31
2944.67	26.5
2945.51	27
2946.36	24.5
2947.2	26.5
2948.05	29.5
2948.89	28
2949.74	27
2950.58	32.5
2951.43	33
2952.27	28
2953.11	30.5
2953.96	32.5
2954.8	31
2955.64	29.5
2956.49	32.5
2957.33	34.5
2958.17	39
2959.02	37
2959.86	37.5
2960.7	38.5
2961.54	41
2962.39	38
2963.23	41.5
2964.07	43
2964.91	48
2965.75	41
2966.6	44
2967.44	43
2968.28	45.5
2969.12	39.5
2969.96	39.5
2970.8	39.5
2971.64	37.9854
2972.48	36.4642
2973.33	33.1283
2974.17	35.4411
2975.01	31.0681
2975.85	36.4115
2976.69	35.5839
2977.53	30.5257
2978.37	31.7274
2979.21	29.608
2980.05	29.0146
2980.89	32.5587
2981.73	28.4538
2982.57	26.0312
2983.41	28.1019
2984.25	27.9508
2985.08	27.9903
2985.92	28.6512
2986.76	27.7697
2987.6	24.6602
2988.44	26.5451
2989.28	21.5187
2990.12	26.6561
2990.96	24.3122
2991.79	28.3526
2992.63	23.7315
2993.47	28.0942
2994.31	26.4087
2995.14	26.5047
2995.98	25.098
2996.82	24.8103
2997.66	22.4798
2998.49	23.4955
2999.33	22.4278
3000.17	24.5337
3001	23.3809
3001.84	24.9108
3002.68	25.3142
3003.51	22.1889
3004.35	22.9179
3005.19	24.7203
3006.02	22.6017
3006.86	22.9781
3007.7	20.0794
3008.53	19.1749
3009.37	21.4394
3010.2	21.7662
3011.04	22.5507
3011.87	23.7839
3012.71	23.7671
3013.54	23.6481
3014.38	21.635
3015.21	23.3115
3016.05	22.6444
3016.88	22.8987
3017.72	22.542
3018.55	22.3714
3019.39	23.9781
3020.22	23.678
3021.05	23.0862
3021.89	22.3132
3022.72	22.7517
3023.55	23.1612
3024.39	20.8936
3025.22	21.8459
3026.05	22.149
3026.89	23.7288
3027.72	23.354
3028.55	22.9303
3029.39	23.0859
3030.22	20.9212
3031.05	19.941
3031.88	21.2227
3032.72	21.5467
3033.55	19.1995
3034.38	20.518
3035.21	22.057
3036.04	21.0786
3036.88	22.1368
3037.71	20.2273
3038.54	20.9229
3039.37	22.0335
3040.2	20.7461
3041.03	20.8772
3041.86	21.4801
3042.69	22.8935
3043.52	23.7383
3044.36	22.3959
3045.19	21.0631
3046.02	21.3452
3046.85	21.2628
3047.68	21.0672
3048.51	21.4113
3049.34	22.0811
3050.17	22.1924
3051	22.5961
3051.83	23.7107
3052.66	20.7372
3053.48	22.1931
3054.31	22.8152
3055.14	21.148
3055.97	22.1491
3056.8	23.9374
3057.29	26
3058.12	20.5
3058.95	21.5
3059.79	21
3060.62	23.5
3061.45	23
3062.29	23
3063.12	23
3063.95	22
3064.78	24.5
3065.62	25
3066.45	21
3067.28	22
3068.11	20.5
3068.94	20
3069.77	21.5
3070.61	24
3071.44	21.5
3072.27	23.5
3073.1	23
3073.93	20
3074.76	25.5
3075.59	20.5
3076.42	23
3077.25	22.5
3078.08	21
3078.92	22
3079.74	25
3080.57	24
3081.41	24.5
3082.24	19
3083.06	25
3083.89	21
3084.72	26.5
3085.55	24
3086.38	23
3087.21	20
3088.04	24
3088.87	22
3089.7	25
3090.53	23.5
3091.36	25.5
3092.18	22.5
3093.01	21
3093.84	22
3094.67	23
3095.5	23.5
3096.32	24
3097.15	26
3097.98	25
3098.81	20
3099.64	25.5
3100.46	24
3101.29	23
3102.12	22.5
3102.94	22.5
3103.77	24
3104.6	27
3105.42	21.5
3106.25	25
3107.08	26
3107.9	20.5
3108.73	20
3109.56	22
3110.38	21
3111.21	24
3112.03	21.5
3112.86	19
3113.68	22.5
3114.51	24
3115.33	23.5
3116.16	21
3116.98	26
3117.81	24.5
3118.63	27
3119.46	22
3120.28	24.5
3121.11	21.5
3121.93	23.5
3122.76	20
3123.58	19
3124.4	20.5
3125.23	21
3126.05	24
3126.87	23.5
3127.7	22
3128.52	23.5
3129.34	28
3130.17	20.5
3130.99	25.5
3131.81	25
3132.64	20.5
3133.46	26
3134.28	22
3135.1	22.5
3135.93	22
3136.75	27
3137.57	22
3138.39	22
3139.21	23
3140.04	26
3140.86	25
3141.68	22.5
3142.5	27.5
3143.32	20.5
3144.14	24
3144.96	25.5
3145.78	23.5
3146.61	23.5
3147.43	21
3148.25	21
3149.07	22
3149.89	24.5
3150.71	24.5
3151.53	23.5
3152.35	22
3153.17	26
3153.99	21.5
3154.81	22.5
3155.63	22
3156.45	28
3157.27	23
3158.08	20
3158.9	22.5
3159.72	22
3160.54	23
3161.36	29
3162.18	19
3163	25
3163.82	17.5
3164.63	21.5
3165.45	20.5
3166.27	25.5
3167.09	21.5
3167.91	25.5
3168.72	18.5
3169.54	25
3170.36	17.5
3171.18	26
3171.99	20
3172.81	23.5
3173.63	24
3174.44	24
3175.26	24.5
3176.08	21
3176.89	20
3177.71	22
3178.53	24.5
3179.34	20
3180.16	22
3180.97	21.5
3181.79	21
3182.61	23.5
3183.42	22.5
3184.24	25
3185.05	24.5
3185.87	23
3186.68	22.5
3187.5	23.5
3188.31	23
3189.13	23
3189.94	21
3190.76	24
3191.57	23.5
3192.39	23
3193.2	23.5
3194.02	20
3194.83	22
3195.64	25.5
3196.46	26.5
3197.27	23
3198.08	27
3198.9	21
3199.71	25.5
3200.52	25
3201.34	25.5
3202.15	25
3202.96	22
3203.78	22
3204.59	22
3205.4	22.5
3206.21	25
3207.03	23
3207.84	20
3208.65	23
3209.46	20
3210.27	23.5
3211.09	22
3211.9	26.5
3212.71	22.5
3213.52	24.5
3214.33	23
3215.14	22
3215.95	24
3216.77	22
3217.58	24.5
3218.39	25
3219.2	24
3220.01	30.5
3220.82	24
3221.63	23.5
3222.44	21
3223.25	25
3224.06	19
3224.87	29.5
3225.68	21.5
3226.49	25
3227.3	20
3228.11	25.5
3228.92	24.5
3229.73	25
3230.53	24.5
3231.34	21
3232.15	21
3232.96	27.5
3233.77	25
3234.58	24.5
3235.39	21.5
3236.19	25.5
3237	22
3237.81	19
3238.62	23.5
3239.43	21
3240.23	22.5
3241.04	21.5
3241.85	22
3242.66	21.5
3243.46	29
3244.27	22
3245.08	25
3245.89	22.5
3246.69	23
3247.5	22.5
3248.31	23.5
3249.11	23
3249.92	23
3250.72	25.5
3251.53	25
3252.34	22.5
3253.14	24
3253.95	23
3254.75	21.5
3255.56	26
3256.36	22
3257.17	21.5
3257.98	29
3258.78	21
3259.59	25
3260.39	25.5
3261.19	22
3262	22
3262.8	26.5
3263.61	20.5
3264.41	22
3265.22	23
3266.02	22
3266.83	20
3267.63	21.5
3268.43	21.5
3269.24	19.5
3270.04	20
3270.84	23.5
3271.65	23
3272.45	22.5
3273.25	24
3274.06	19.5
3274.86	27
3275.66	23.5
3276.46	27
3277.27	25.5
3278.07	25.5
3278.87	25.5
3279.67	20.5
3280.48	22
3281.28	24.5
3282.08	20
3282.88	21.5
3283.68	23.5
3284.48	24.5
3285.29	28.5
3286.09	26
3286.89	28.5
3287.69	24.5
3288.49	25
3289.29	23
3290.09	22.5
3290.89	26.5
3291.69	24
3292.49	23
3293.29	23
3294.09	23
3294.89	28
3295.69	26
3296.49	25.5
3297.29	22.5
3298.09	22
3298.89	23.5
3299.69	24
3300.49	19.5
3301.29	24.5
3302.09	21
3302.89	21.5
3303.69	22.5
3304.49	24.5
3305.28	25
3306.08	21
3306.88	23.5
3307.68	24.5
3308.48	22.5
3309.28	28
3310.07	22.5
3310.87	20
3311.67	24
3312.47	24
3313.26	26.5
3314.06	22
3314.86	25
3315.66	24.5
3316.45	23.5
3317.25	26
3318.05	23
3318.84	27
3319.64	23.5
3320.44	25
3321.23	26
3322.03	25
3322.83	19
3323.62	23.5
3324.42	22
3325.21	22.5
3326.01	25
3326.81	25.5
3327.6	25
3328.4	23
3329.19	23
3329.99	20
3330.78	24.5
3331.58	21.5
3332.37	23.5
3333.17	23.5
3333.96	24.5
3334.76	24
3335.55	26
3336.34	24
3337.14	23.5
3337.93	23
3338.73	24.5
3339.52	26
3340.31	25.5
3341.11	24
3341.9	23
3342.69	23
3343.49	22
3344.28	28
3345.07	25.5
3345.87	21.5
3346.66	23
3347.45	22
3348.25	21
3349.04	24.5
3349.83	19
3350.62	24
3351.42	26
3352.21	24.5
3353	24
3353.79	24.5
3354.58	18.5
3355.37	22
3356.17	25.5
3356.96	20.5
3357.75	22
3358.54	22
3359.33	25
3360.12	28
3360.91	25
3361.7	19
3362.49	26.5
3363.29	22.5
3364.08	25.5
3364.87	21
3365.66	22
3366.45	22
3367.24	23
3368.03	22.5
3368.82	24
3369.61	28
3370.4	21
3371.19	26
3371.97	25
3372.76	27
3373.55	24.5
3374.34	24
3375.13	20
3375.92	19.5
3376.71	23
3377.5	25.5
3378.29	25
3379.07	26
3379.86	23
3380.65	24
3381.44	28
3382.23	23.5
3383.01	26.5
3383.8	23
3384.59	23.5
3385.38	24
3386.16	24
3386.95	25
3387.74	23.5
3388.53	24.5
3389.31	16
3390.1	26.5
3390.89	26.5
3391.67	24.5
3392.46	23
3393.25	22.5
3394.03	24.5
3394.82	22
3395.6	25
3396.39	25
3397.18	24.5
3397.96	18
3398.75	22.5
3399.53	24
3400.32	28
3401.1	21
3401.89	25.5
3402.67	23
3403.46	24
3404.24	23.5
3405.03	20.5
3405.81	25.5
3406.6	24
3407.38	24.5
3408.17	25
3408.95	22
3409.74	25
3410.52	29
3411.3	21
3412.09	25
3412.87	19
3413.65	25
3414.44	22
3415.22	23.5
3416	23
3416.79	21.5
3417.57	26.5
3418.35	27
3419.14	22.5
3419.92	26
3420.7	22.5
3421.48	25.5
3422.27	24
3423.05	18
3423.83	21.5
3424.61	22
3425.4	21.5
3426.18	23
3426.96	25
3427.74	24
3428.52	21
3429.3	23
3430.08	20
3430.87	24
3431.65	24
3432.43	23
3433.21	19.5
3433.99	24.5
3434.77	21
3435.55	22
3436.33	23
3437.11	23
3437.89	25.5
3438.67	25
3439.45	25.5
3440.23	20.5
3441.01	25
3441.79	25.5
3442.57	19.5
3443.35	25.5
3444.13	21
3444.91	25.5
3445.69	20
3446.47	25
3447.25	25
3448.03	21.5
3448.8	20
3449.58	28.5
3450.36	22
3451.14	23
3451.92	26
3452.7	29
3453.47	22
3454.25	21
3455.03	24.5
3455.81	22.5
3456.59	23
3457.36	23
3458.14	24.5
3458.92	23
3459.69	23.5
3460.47	22.5
3461.25	24.5
3462.03	25
3462.8	20.5
3463.58	22
3464.36	19
3465.13	27
3465.91	21.5
3466.69	27
3467.46	22.5
3468.24	24
3469.01	20
3469.79	24
3470.57	23.5
3471.34	23
3472.12	23.5
3472.89	24.5
3473.67	21.5
3474.44	24.5
3475.22	26.5
3475.99	30.5
3476.77	18.5
3477.54	21
3478.32	25.5
3479.09	26
3479.87	23
3480.64	21.5
3481.41	24.5
3482.19	23
3482.96	24.5
3483.74	24.5
3484.51	25
3485.28	19
3486.06	24.5
3486.83	25.5
3487.6	29
3488.38	24
3489.15	24.5
3489.92	23.5
3490.7	23
3491.47	26
3492.24	26
3493.01	21
3493.79	23
3494.56	23
3495.33	20
3496.1	24
3496.88	22
3497.65	27
3498.42	21
3499.19	25
3499.96	21.5
