#Acq. time (s)=	3
#Accumulations=	3
#Range (cm-¹)=	100...3000
#Windows=	3
#Autofocus=	Off
#AutoExposure=	Off
#Spike filter=	Multiple accum.
#Delay time (s)=	0
#Binning=	1
#Readout mode=	Signal
#DeNoise=	Off
#ICS correction=	Off
#Dark correction=	Off
#Inst. Process=	Off
#Instrument=	LabRAM HR Evol
#Detector=	Syncerity OE
#Objective=	x100_VIS_LWD
#Grating=	600 (500nm)
#ND Filter=	25%
#Laser=	633nm_Edge
#Hole=	100.021
#Range=	Visible
#Project=	Bolus
#Sample=	A3
#Site=	stripside
#Title=	m12
#Remark=	
#Date=	03.11.2025 18:24
#Acquired=	03.11.2025 18:24:15
100.969	29
102.252	42
103.535	40
104.818	33
106.101	36
107.384	34
108.666	30
109.948	37
111.232	32
112.514	38
113.795	40
115.077	36
116.358	34
117.639	33
118.919	33
120.2	39
121.48	40
122.76	34
124.04	37
125.32	32
126.599	35
127.879	36
129.158	32
130.436	41
131.715	40
132.992	35
134.27	43
135.548	32
136.826	40
138.104	42
139.381	38
140.658	40
141.935	34
143.212	36
144.489	38
145.763	32
147.04	39
148.315	39
149.591	43
150.867	42
152.142	46
153.416	42
154.691	41
155.965	42
157.24	36
158.514	40
159.786	45
161.06	44
162.334	42
163.607	41
164.881	39
166.152	38
167.425	40
168.698	44
169.969	45
171.241	40
172.513	39
173.785	40
175.055	38
176.326	40
177.597	46
178.867	47
180.137	38
181.408	41
182.677	42
183.947	42
185.217	33
186.485	38
187.755	41
189.022	44
190.291	47
191.56	46
192.828	45
194.096	50
195.363	40
196.631	40
197.899	44
199.165	38
200.432	38
201.698	46
202.965	44
204.23	36
205.497	43
206.762	38
208.028	41
209.293	39
210.559	40
211.823	41
213.088	34
214.352	34
215.617	38
216.88	34
218.145	36
219.408	30
220.672	38
221.934	35
223.196	36
224.46	34
225.722	35
226.985	42
228.246	38
229.508	36
230.77	38
232.031	35
233.292	37
234.554	34
235.814	34
237.074	36
238.335	39
239.595	33
240.854	34
242.115	28
243.374	34
244.633	37
245.893	32
247.151	37
248.409	38
249.667	39
250.927	34
252.184	34
253.442	40
254.699	32
255.957	34
257.214	36
258.47	34
259.727	32
260.983	33
262.24	35
263.496	35
264.752	34
266.007	38
267.262	39
268.517	34
269.773	38
271.028	36
272.282	34
273.536	33
274.79	38
276.044	32
277.297	34
278.551	28
279.804	36
281.057	30
282.31	30
283.564	34
284.816	34
286.068	32
287.32	31
288.572	36
289.823	30
291.074	36
292.325	34
293.576	26
294.827	33
296.077	32
297.328	30
298.578	33
299.828	30
301.077	32
302.325	38
303.575	28
304.824	33
306.073	30
307.321	31
308.57	35
309.818	35
311.066	37
312.314	32
313.562	28
314.808	35
316.055	34
317.302	30
318.549	31
319.796	34
321.042	36
322.288	26
323.533	34
324.779	34
326.024	34
327.27	34
328.515	34
329.759	32
331.004	34
332.248	31
333.493	30
334.736	28
335.98	33
337.223	37
338.466	36
339.709	34
340.952	34
342.195	35
343.437	29
344.68	38
345.922	34
347.163	32
348.405	32
349.647	32
350.887	26
352.128	30
353.37	38
354.609	38
355.85	38
357.089	32
358.33	31
359.57	31
360.809	31
362.049	32
363.287	39
364.526	33
365.764	32
367.003	32
368.241	30
369.479	34
370.718	38
371.955	37
373.193	32
374.429	28
375.667	35
376.903	35
378.139	35
379.376	28
380.611	30
381.848	32
383.083	34
384.319	32
385.554	32
386.79	30
388.024	34
389.258	32
390.493	37
391.727	34
392.962	34
394.195	32
395.428	36
396.663	32
397.895	34
399.128	34
400.361	33
401.593	30
402.825	38
404.058	32
405.29	31
406.521	30
407.752	35
408.985	30
410.215	34
411.446	38
412.678	33
413.908	35
415.138	31
416.367	37
417.597	36
418.828	37
420.057	36
421.286	33
422.514	33
423.743	34
424.973	31
426.201	36
427.429	34
428.657	34
429.884	33
431.112	36
432.34	30
433.567	28
434.794	36
436.02	32
437.247	34
438.473	36
439.699	36
440.925	33
442.15	33
443.376	35
444.601	33
445.826	36
447.051	36
448.275	36
449.5	31
450.724	38
451.948	36
453.172	39
454.396	34
455.619	34
456.842	38
458.065	36
459.288	32
460.511	32
461.733	34
462.956	35
464.178	38
465.4	36
466.621	32
467.843	36
469.064	34
470.285	34
471.505	40
472.726	41
473.946	37
475.166	38
476.387	38
477.606	44
478.825	45
480.044	51
481.264	53
482.483	50
483.702	51
484.921	56
486.138	56
487.356	57
488.574	60
489.792	56
491.009	56
492.226	63
493.444	58
494.661	52
495.877	53
497.094	51
498.31	50
499.525	48
500.741	49
501.958	43
503.172	46
504.388	46
505.603	47
506.817	44
508.032	35
509.247	38
510.46	42
511.675	42
512.888	40
514.102	40
515.316	36
516.528	39
517.742	40
518.954	38
520.167	35
521.378	35
522.591	38
523.802	35
525.015	36
526.226	38
527.438	36
528.648	34
529.86	34
531.07	28
532.281	34
533.491	32
534.702	34
535.911	39
537.121	36
538.33	38
539.54	34
540.749	36
541.957	39
543.167	34
544.375	34
545.584	37
546.791	38
547.999	45
549.207	34
550.414	38
551.621	37
552.829	34
554.035	34
555.241	36
556.449	35
557.655	34
558.86	34
560.066	30
561.272	32
562.477	36
563.682	34
564.888	33
566.093	39
567.297	30
568.501	32
569.705	32
570.91	38
572.114	33
573.317	37
574.52	28
575.723	33
576.927	38
578.13	32
579.332	30
580.535	32
581.737	29
582.938	34
584.14	34
585.343	31
586.544	30
587.745	32
588.946	31
590.147	34
591.347	32
592.548	35
593.748	28
594.948	34
596.147	32
597.347	37
598.546	36
599.745	36
600.944	32
602.143	37
603.342	34
604.54	34
605.738	31
606.937	32
608.134	30
609.332	30
610.529	30
611.727	34
612.924	34
614.121	34
615.317	36
616.513	31
617.709	39
618.905	37
620.101	30
621.297	36
622.492	33
623.688	30
624.883	32
626.077	38
627.271	31
628.466	40
629.66	31
630.855	34
632.047	37
633.241	38
634.435	33
635.629	31
636.82	28
638.014	36
639.207	34
640.399	31
641.59	31
642.783	33
643.975	32
645.166	38
646.357	31
647.549	36
648.741	43
649.93	32
651.122	35
652.311	33
653.502	35
654.692	35
655.881	26
657.071	39
658.261	32
659.45	32
660.639	39
661.827	31
663.016	34
664.204	34
665.393	34
666.581	36
667.769	29
668.957	36
670.143	32
671.331	37
672.518	40
673.705	35
674.891	30
676.078	38
677.264	34
678.451	36
679.636	42
680.821	38
682.007	38
683.192	38
684.378	36
685.562	38
686.747	40
687.931	34
689.115	34
690.3	42
691.483	40
692.666	35
693.851	36
695.034	34
696.216	32
697.4	41
698.582	40
699.764	40
700.948	40
702.129	41
703.311	45
704.493	44
705.674	50
706.855	52
708.036	48
709.218	54
710.399	44
711.579	53
712.759	52
713.939	43
715.12	39
716.299	40
717.478	41
718.657	37
719.836	42
721.015	37
722.195	32
723.373	36
724.552	40
725.729	31
726.907	36
728.085	29
729.262	31
730.44	39
731.617	28
732.795	38
733.972	32
735.148	31
736.324	34
737.501	40
738.677	34
739.852	38
741.028	44
742.203	36
743.379	34
744.554	28
745.729	34
746.903	34
748.078	33
749.252	30
750.426	33
751.599	28
752.772	36
753.946	37
755.119	32
756.293	39
757.466	29
758.639	36
759.811	36
760.984	36
762.155	37
763.327	29
764.499	39
765.67	31
766.842	35
768.013	33
769.183	32
770.354	30
771.525	33
772.696	35
773.865	38
775.035	35
776.205	37
777.375	35
778.544	36
779.713	37
780.882	39
782.052	36
783.219	32
784.388	36
785.557	34
786.724	35
787.892	30
789.06	33
790.227	38
791.395	40
792.562	34
793.728	35
794.895	35
796.061	34
797.228	35
798.395	33
799.56	32
800.726	41
801.891	28
803.057	34
804.221	32
805.387	36
806.551	36
807.716	34
808.879	34
810.044	33
811.208	30
812.372	39
813.535	30
814.699	30
815.862	38
817.025	33
818.188	34
819.351	31
820.513	30
821.675	34
822.837	36
823.999	33
825.161	34
826.322	35
827.483	32
828.645	32
829.805	39
830.966	36
832.127	32
833.287	26
834.447	32
835.607	30
836.767	37
837.926	34
839.085	33
840.245	33
841.404	37
842.562	31
843.72	32
844.88	38
846.038	30
847.195	38
848.353	32
849.512	34
850.669	31
851.826	37
852.983	29
854.139	35
855.296	35
856.453	32
857.609	35
858.765	32
859.921	32
861.077	36
862.232	39
863.387	31
864.542	37
865.697	32
866.852	35
868.008	37
869.162	34
870.316	34
871.47	30
872.624	37
873.778	30
874.931	36
876.084	35
877.237	32
878.39	32
879.543	34
880.695	32
881.846	30
882.999	38
884.151	35
885.302	31
886.454	38
887.606	34
888.757	28
889.908	30
891.059	36
892.21	30
893.359	33
894.509	33
895.659	35
896.81	33
897.959	34
899.109	36
900.257	36
901.407	34
902.556	35
903.705	32
904.854	34
906.001	32
907.149	34
908.298	32
909.446	34
910.592	31
911.74	31
912.888	30
914.034	33
915.181	24
916.328	30
917.473	33
918.62	36
919.766	30
920.911	32
922.058	33
923.204	36
924.348	36
925.494	29
926.638	30
927.783	28
928.928	35
930.072	32
931.216	32
932.36	33
933.504	30
934.647	35
935.791	30
936.933	28
938.077	32
939.219	30
940.363	43
941.504	28
942.647	35
943.789	32
944.932	34
946.073	26
947.215	32
948.356	33
949.498	30
950.638	30
951.778	33
952.92	32
954.06	34
955.199	25
956.34	33
957.479	37
958.62	32
959.759	30
960.898	32
962.038	26
963.176	35
964.315	29
965.453	36
966.592	32
967.73	32
968.867	36
970.006	28
971.144	30
972.281	27
973.418	34
974.554	26
975.692	34
976.829	32
977.965	29
979.101	32
980.237	32
981.374	30
982.509	40
983.645	29
984.78	31
985.915	33
987.05	27
988.184	26
989.319	34
990.453	30
991.589	32
992.722	33
993.856	35
994.99	33
996.123	34
997.257	32
998.39	33
999.523	26
1000.66	30
1001.79	36
1002.92	32
1004.05	34
1005.18	32
1006.32	34
1007.45	34
1008.58	28
1009.71	30
1010.84	31
1011.97	37
1013.1	31
1014.23	28
1015.36	33
1016.49	33
1017.62	30
1018.75	35
1019.88	27
1021.01	28
1022.14	35
1023.27	31
1024.4	34
1025.53	35
1026.66	32
1027.79	28
1028.91	28
1030.04	32
1031.17	31
1032.3	31
1033.42	30
1034.55	26
1035.68	33
1036.81	33
1037.93	36
1039.06	28
1040.18	31
1041.31	31
1042.44	26
1043.56	31
1044.69	36
1045.81	37
1046.94	31
1048.06	30
1049.19	36
1050.31	26
1051.44	31
1052.56	30
1053.69	28
1054.81	36
1055.93	30
1057.06	30
1058.18	32
1059.3	30
1060.43	31
1061.55	30
1062.67	34
1063.79	33
1064.92	35
1066.04	38
1067.16	34
1068.28	34
1069.4	32
1070.52	26
1071.65	32
1072.77	36
1073.89	32
1075.01	26
1076.13	38
1077.25	28
1078.37	28
1079.49	26
1080.61	29
1081.73	30
1082.85	28
1083.97	30
1085.09	29
1086.2	31
1087.32	26
1088.44	30
1089.56	33
1090.68	28
1091.8	35
1092.91	28
1094.03	34
1095.15	33
1096.26	34
1097.38	32
1098.5	28
1099.61	28
1100.73	32
1101.85	28
1102.96	30
1104.08	28
1105.19	31
1106.31	30
1107.43	28
1108.54	32
1109.66	31
1110.77	32
1111.88	32
1113	30
1114.11	28
1115.23	33
1116.34	32
1117.46	24
1118.57	30
1119.68	32
1120.8	30
1121.91	30
1123.02	31
1124.13	32
1125.25	28
1126.36	30
1127.47	30
1128.58	33
1129.69	26
1130.8	31
1131.92	28
1133.03	31
1134.14	32
1135.25	31
1136.36	30
1137.47	29
1138.58	28
1139.69	34
1140.8	30
1141.91	26
1143.02	28
1144.13	24
1145.24	28
1146.35	32
1147.46	32
1148.56	28
1149.67	28
1150.78	33
1151.89	29
1153	31
1154.1	32
1155.21	32
1156.32	34
1157.43	33
1158.53	30
1159.64	32
1160.75	26
1161.85	31
1162.96	32
1164.07	31
1165.17	32
1166.28	26
1167.38	26
1168.49	34
1169.59	34
1170.7	28
1171.8	35
1172.91	28
1174.01	26
1175.12	26
1176.22	30
1177.32	30
1178.43	29
1179.53	31
1180.64	34
1181.74	36
1182.84	31
1183.94	25
1185.05	34
1186.15	34
1187.25	31
1188.35	28
1189.46	24
1190.56	28
1191.66	29
1192.76	33
1193.86	35
1194.96	32
1196.06	32.9755
1197.16	27.9585
1198.26	29.9793
1199.37	31.0267
1200.47	29.0441
1201.57	33.7843
1202.67	30.1035
1203.77	28.0918
1204.86	30.6719
1205.96	33.6375
1207.06	29.8836
1208.16	28.9533
1209.26	30.248
1210.36	27.2566
1211.46	31.0764
1212.56	29.2407
1213.65	26.3144
1214.75	26.9457
1215.85	33.9233
1216.95	29.7014
1218.04	29.8094
1219.14	34.5114
1220.24	26.6776
1221.33	26.5666
1222.43	30.515
1223.53	29.4259
1224.62	32.6725
1225.72	31.8349
1226.82	33.4853
1227.91	29.1696
1229.01	32.8085
1230.1	28.0735
1231.2	28.0441
1232.29	31.106
1233.39	29.1629
1234.48	33.3695
1235.58	29.9265
1236.67	28.8652
1237.77	31.2173
1238.86	30.4583
1239.95	30.9877
1241.05	29.6962
1242.14	28.3072
1243.23	32.2941
1244.33	29.8438
1245.42	29.8692
1246.51	28.414
1247.61	28.8465
1248.7	31.0557
1249.79	31.6471
1250.88	32.5119
1251.97	26.8659
1253.07	29.7987
1254.16	29.1532
1255.25	31.4279
1256.34	33.9958
1257.43	28.7861
1258.52	28.196
1259.61	33.3524
1260.7	33.1678
1261.79	31.7251
1262.88	31.3897
1263.97	29.2255
1265.06	29.908
1266.15	32.7709
1267.24	30.5372
1268.33	28.7022
1269.42	31.156
1270.51	28.1851
1271.6	27.2825
1272.68	30
1273.77	30.58
1274.86	28.5784
1275.95	29.8952
1277.04	32.346
1278.12	32.2999
1279.21	27.3021
1280.3	29.1298
1281.39	28.9174
1282.47	30.2206
1283.56	28.6365
1284.65	24.0529
1285.73	28.3304
1286.82	29.3147
1287.91	27.2857
1288.99	32.4032
1290.08	27.5389
1291.16	31.0525
1292.25	29.2734
1293.33	28.6077
1294.42	30.8159
1295.5	33.2524
1296.59	26.7813
1297.67	28.5399
1298.76	32.3181
1299.84	29.6716
1300.92	27.9461
1302.01	28.3686
1303.09	30.8082
1304.17	30.1842
1305.26	30.9853
1306.34	30.7532
1307.34	28
1308.43	26
1309.52	30
1310.61	33
1311.7	27
1312.78	32
1313.87	28
1314.96	28
1316.04	28
1317.13	30
1318.22	18
1319.3	34
1320.39	28
1321.48	28
1322.56	33
1323.65	34
1324.73	30
1325.82	28
1326.9	28
1327.99	27
1329.07	32
1330.16	30
1331.24	29
1332.33	34
1333.41	28
1334.5	28
1335.58	29
1336.66	34
1337.75	30
1338.83	30
1339.91	31
1341	26
1342.08	24
1343.16	34
1344.24	31
1345.33	29
1346.41	29
1347.49	26
1348.57	32
1349.65	30
1350.74	28
1351.82	31
1352.9	27
1353.98	32
1355.06	23
1356.14	30
1357.22	26
1358.3	22
1359.38	26
1360.46	32
1361.54	26
1362.62	28
1363.7	26
1364.78	35
1365.86	32
1366.94	29
1368.02	28
1369.09	27
1370.17	31
1371.25	22
1372.33	29
1373.41	32
1374.48	28
1375.56	30
1376.64	28
1377.72	34
1378.79	28
1379.87	31
1380.95	28
1382.02	28
1383.1	32
1384.17	28
1385.25	26
1386.33	32
1387.4	28
1388.48	28
1389.55	36
1390.63	32
1391.7	26
1392.78	28
1393.85	31
1394.93	28
1396	30
1397.07	30
1398.15	30
1399.22	30
1400.3	31
1401.37	30
1402.44	35
1403.52	28
1404.59	24
1405.66	33
1406.73	34
1407.81	34
1408.88	35
1409.95	26
1411.02	31
1412.09	32
1413.17	36
1414.24	33
1415.31	39
1416.38	31
1417.45	35
1418.52	30
1419.59	30
1420.66	35
1421.73	36
1422.8	28
1423.87	30
1424.94	32
1426.01	34
1427.08	34
1428.15	32
1429.22	34
1430.29	26
1431.35	31
1432.42	30
1433.49	34
1434.56	34
1435.63	28
1436.69	34
1437.76	34
1438.83	27
1439.9	30
1440.96	28
1442.03	31
1443.1	31
1444.17	30
1445.23	32
1446.3	34
1447.36	30
1448.43	34
1449.49	28
1450.56	32
1451.63	26
1452.69	30
1453.76	32
1454.82	29
1455.89	24
1456.95	26
1458.01	32
1459.08	26
1460.14	28
1461.21	31
1462.27	28
1463.34	32
1464.4	34
1465.46	31
1466.52	32
1467.59	27
1468.65	30
1469.71	28
1470.77	29
1471.84	34
1472.9	30
1473.96	33
1475.02	28
1476.08	31
1477.15	31
1478.21	32
1479.27	28
1480.33	30
1481.39	30
1482.45	33
1483.51	28
1484.57	30
1485.63	28
1486.69	31
1487.75	34
1488.81	32
1489.87	33
1490.93	31
1491.99	22
1493.05	26
1494.1	32
1495.16	32
1496.22	28
1497.28	31
1498.34	28
1499.4	28
1500.45	28
1501.51	30
1502.57	35
1503.63	31
1504.68	30
1505.74	28
1506.8	24
1507.85	28
1508.91	29
1509.97	32
1511.02	28
1512.08	34
1513.13	28
1514.19	28
1515.24	24
1516.3	33
1517.35	32
1518.41	31
1519.46	29
1520.52	28
1521.57	28
1522.63	28
1523.68	36
1524.73	28
1525.79	32
1526.84	27
1527.9	28
1528.95	32
1530	28
1531.05	28
1532.11	30
1533.16	26
1534.21	35
1535.26	28
1536.32	28
1537.37	26
1538.42	29
1539.47	32
1540.52	38
1541.57	32
1542.63	32
1543.68	29
1544.73	30
1545.78	24
1546.83	34
1547.88	29
1548.93	30
1549.98	30
1551.03	28
1552.08	24
1553.13	31
1554.18	29
1555.23	30
1556.27	28
1557.32	28
1558.37	32
1559.42	24
1560.47	28
1561.52	30
1562.56	29
1563.61	32
1564.66	35
1565.71	29
1566.75	31
1567.8	29
1568.85	31
1569.9	30
1570.94	32
1571.99	27
1573.03	26
1574.08	25
1575.13	32
1576.17	30
1577.22	30
1578.26	30
1579.31	38
1580.35	27
1581.4	30
1582.44	28
1583.49	33
1584.53	31
1585.58	29
1586.62	28
1587.66	30
1588.71	35
1589.75	29
1590.8	32
1591.84	25
1592.88	26
1593.92	26
1594.97	29
1596.01	32
1597.05	31
1598.1	30
1599.14	28
1600.18	27
1601.22	28
1602.26	31
1603.3	30
1604.35	31
1605.39	32
1606.43	30
1607.47	28
1608.51	28
1609.55	30
1610.59	28
1611.63	24
1612.67	31
1613.71	28
1614.75	36
1615.79	35
1616.83	30
1617.87	30
1618.91	32
1619.95	28
1620.99	32
1622.02	26
1623.06	28
1624.1	25
1625.14	28
1626.18	30
1627.21	27
1628.25	26
1629.29	31
1630.33	30
1631.36	29
1632.4	29
1633.44	31
1634.48	32
1635.51	32
1636.55	26
1637.58	28
1638.62	27
1639.66	29
1640.69	34
1641.73	30
1642.76	34
1643.8	31
1644.83	30
1645.87	27
1646.9	36
1647.94	33
1648.97	30
1650	33
1651.04	32
1652.07	31
1653.11	28
1654.14	32
1655.17	30
1656.21	30
1657.24	29
1658.27	35
1659.31	30
1660.34	33
1661.37	33
1662.4	33
1663.43	28
1664.47	28
1665.5	30
1666.53	32
1667.56	28
1668.59	30
1669.62	30
1670.66	30
1671.69	28
1672.72	34
1673.75	30
1674.78	30
1675.81	25
1676.84	27
1677.87	31
1678.9	30
1679.93	30
1680.96	28
1681.98	30
1683.01	30
1684.04	32
1685.07	27
1686.1	33
1687.13	32
1688.16	33
1689.18	28
1690.21	36
1691.24	28
1692.27	28
1693.3	32
1694.32	32
1695.35	31
1696.38	33
1697.4	28
1698.43	32
1699.46	28
1700.48	33
1701.51	29
1702.54	27
1703.56	28
1704.59	31
1705.61	30
1706.64	31
1707.66	26
1708.69	28
1709.71	34
1710.74	30
1711.76	32
1712.79	24
1713.81	29
1714.83	28
1715.86	30
1716.88	26
1717.91	24
1718.93	33
1719.95	32
1720.98	27
1722	29
1723.02	26
1724.04	35
1725.07	32
1726.09	27
1727.11	34
1728.13	26
1729.15	27
1730.18	35
1731.2	34
1732.22	29
1733.24	26
1734.26	32
1735.28	24
1736.3	32
1737.32	32
1738.34	24
1739.36	33
1740.38	31
1741.4	23
1742.42	31
1743.44	24
1744.46	28
1745.48	25
1746.5	32
1747.52	28
1748.54	31
1749.56	28
1750.58	32
1751.6	30
1752.61	31
1753.63	29
1754.65	33
1755.67	28
1756.68	32
1757.7	29
1758.72	30
1759.74	28
1760.75	27
1761.77	30
1762.79	30
1763.8	27
1764.82	26
1765.83	24
1766.85	26
1767.87	28
1768.88	28
1769.9	30
1770.91	27
1771.93	36
1772.94	29
1773.96	29
1774.97	28
1775.99	29
1777	28
1778.02	30
1779.03	28
1780.04	26
1781.06	33
1782.07	28
1783.09	28
1784.1	28
1785.11	31
1786.13	26
1787.14	26
1788.15	23
1789.16	27
1790.18	29
1791.19	31
1792.2	27
1793.21	29
1794.22	26
1795.23	28
1796.25	35
1797.26	32
1798.27	28
1799.28	32
1800.29	24
1801.3	30
1802.31	26
1803.32	32
1804.33	30
1805.34	32
1806.35	28
1807.36	27
1808.37	31
1809.38	30
1810.39	30
1811.4	28
1812.41	31
1813.42	32
1814.42	30
1815.43	30
1816.44	29
1817.45	31
1818.46	34
1819.47	28
1820.47	28
1821.48	28
1822.49	31
1823.49	34
1824.5	31
1825.51	30
1826.52	34
1827.52	26
1828.53	29
1829.53	29
1830.54	30
1831.55	27
1832.55	30
1833.56	28
1834.56	34
1835.57	28
1836.57	28
1837.58	28
1838.58	26
1839.59	30
1840.59	32
1841.6	31
1842.6	30
1843.61	26
1844.61	29
1845.61	22
1846.62	30
1847.62	25
1848.62	27
1849.63	18
1850.63	30
1851.63	28
1852.64	28
1853.64	30
1854.64	25
1855.64	33
1856.64	32
1857.65	29
1858.65	29
1859.65	27
1860.65	35
1861.65	27
1862.65	22
1863.65	28
1864.66	33
1865.66	32
1866.66	28
1867.66	27
1868.66	30
1869.66	27
1870.66	26
1871.66	32
1872.66	34
1873.66	32
1874.66	33
1875.65	32
1876.65	26
1877.65	31
1878.65	28
1879.65	29
1880.65	20
1881.65	26
1882.64	30
1883.64	26
1884.64	25
1885.64	27
1886.63	31
1887.63	26
1888.63	29
1889.63	22
1890.62	26
1891.62	28
1892.62	28
1893.61	30
1894.61	31
1895.6	33
1896.6	28
1897.6	29
1898.59	25
1899.59	31
1900.58	26
1901.58	28
1902.57	29
1903.57	27
1904.56	28
1905.56	26
1906.55	30
1907.54	31
1908.54	23
1909.53	33
1910.53	30
1911.52	26
1912.51	29
1913.51	21
1914.5	30
1915.49	22
1916.49	30
1917.48	33
1918.47	30
1919.46	26
1920.46	31
1921.45	30
1922.44	29
1923.43	27
1924.42	30
1925.41	30
1926.41	30
1927.4	29
1928.39	30
1929.38	32
1930.37	28
1931.36	31
1932.35	32
1933.34	27
1934.33	26
1935.32	29
1936.31	28
1937.3	26
1938.29	30
1939.28	26
1940.27	32
1941.26	29
1942.24	30
1943.23	27
1944.22	28
1945.21	30
1946.2	27
1947.19	28
1948.17	28
1949.16	32
1950.15	30
1951.14	28
1952.12	27
1953.11	31
1954.1	29
1955.09	29
1956.07	28
1957.06	27
1958.05	28
1959.03	28
1960.02	36
1961	33
1961.99	29
1962.98	29
1963.96	26
1964.95	32
1965.93	27
1966.92	29
1967.9	28
1968.89	35
1969.87	25
1970.85	30
1971.84	30
1972.82	31
1973.81	26
1974.79	30
1975.78	25
1976.76	23
1977.74	26
1978.73	27
1979.71	29
1980.69	31
1981.67	34
1982.66	30
1983.64	28
1984.62	27
1985.6	33
1986.59	32
1987.57	26
1988.55	26
1989.53	28
1990.51	29
1991.49	28
1992.47	26
1993.45	30
1994.44	22
1995.42	26
1996.4	30
1997.38	29
1998.36	24
1999.34	32
2000.32	26
2001.3	28
2002.28	24
2003.26	28
2004.24	34
2005.22	24
2006.19	28
2007.17	30
2008.15	30
2009.13	30
2010.11	30
2011.09	29
2012.06	27
2013.04	28
2014.02	27
2015	28
2015.98	32
2016.95	28
2017.93	27
2018.91	24
2019.88	30
2020.86	24
2021.84	33
2022.81	24
2023.79	35
2024.77	29
2025.74	25
2026.72	30
2027.69	29
2028.67	28
2029.65	25
2030.62	28
2031.6	32
2032.57	29
2033.55	30
2034.52	22
2035.5	26
2036.47	24
2037.44	27
2038.42	28
2039.39	27
2040.36	30
2041.34	32
2042.31	25
2043.29	32
2044.26	33
2045.23	24
2046.2	28
2047.18	30
2048.15	26
2049.12	26
2050.09	26
2051.07	22
2052.04	22
2053.01	29
2053.98	26
2054.95	28
2055.93	32
2056.9	24
2057.87	25
2058.84	24
2059.81	27
2060.78	28
2061.75	25
2062.72	30
2063.69	29
2064.66	26
2065.63	24
2066.6	33
2067.57	27
2068.54	28
2069.51	30
2070.48	30
2071.45	21
2072.42	26
2073.38	26
2074.35	27
2075.32	31
2076.29	30
2077.26	27
2078.23	28
2079.19	28
2080.16	28
2081.13	27
2082.1	36
2083.06	26
2084.03	28
2085	24
2085.96	24
2086.93	27
2087.9	28
2088.86	28
2089.83	26
2090.8	28
2091.76	31
2092.73	24
2093.69	34
2094.66	22
2095.62	27
2096.59	33
2097.55	27
2098.52	26
2099.48	25
2100.45	27
2101.41	28
2102.38	26
2103.34	28
2104.31	27
2105.27	29
2106.23	28
2107.2	30
2108.16	24
2109.12	31
2110.09	28
2111.05	24
2112.01	26
2112.98	29
2113.94	26
2114.9	24
2115.86	26
2116.82	26
2117.79	32
2118.75	32
2119.71	32
2120.67	25
2121.63	28
2122.59	29
2123.55	30
2124.52	31
2125.48	24
2126.44	23
2127.4	26
2128.36	32
2129.32	24
2130.28	28
2131.24	30
2132.2	28
2133.16	22
2134.12	28
2135.08	30
2136.04	28
2136.99	28
2137.95	26
2138.91	27
2139.87	26
2140.83	21
2141.79	28
2142.75	23
2143.7	22
2144.66	26
2145.62	31.9598
2146.58	25.9492
2147.53	28.9713
2148.49	28.8999
2149.45	22.224
2150.41	26.0964
2151.36	29.6687
2152.32	22.9265
2153.27	22.0232
2154.23	23.358
2155.19	26.7007
2156.14	25.0941
2157.1	29.0376
2158.06	24.2566
2159.01	20.5612
2159.97	27.1109
2160.92	24.7864
2161.88	25.8082
2162.83	25.8176
2163.79	25.6176
2164.74	27.595
2165.7	30.5185
2166.65	31.2353
2167.61	24.9077
2168.56	26.3033
2169.51	26.713
2170.47	25.525
2171.42	25.4608
2172.38	28.3235
2173.33	26.5209
2174.28	26.3153
2175.24	24.8578
2176.19	27.451
2177.14	23.5881
2178.09	24.7227
2179.05	26.8842
2180	26.5787
2180.95	27.4706
2181.9	22.3494
2182.86	25.9221
2183.81	27.2059
2184.76	31.2382
2185.71	25.5616
2186.66	27.5
2187.61	26.2189
2188.57	27.1078
2189.52	23.0359
2190.47	27.8702
2191.42	27.1188
2192.37	24.5587
2193.32	26.8764
2194.27	24.4715
2195.22	25.0247
2196.17	25.1074
2197.12	27.165
2198.07	24.9336
2199.02	27.3871
2199.97	29.5076
2200.92	25.6869
2201.87	27.3959
2202.82	27.1843
2203.76	24.8961
2204.71	23.549
2205.66	23.2981
2206.61	24.3981
2207.56	23.0936
2208.51	26.2303
2209.45	23.9983
2210.4	24.3231
2211.35	25.4639
2212.3	23.155
2213.24	25.5557
2214.19	26.519
2215.14	22.4347
2216.09	26.7746
2217.03	25.6333
2217.98	24.7175
2218.93	27.7451
2219.87	26.6959
2220.82	25.5807
2221.77	25.2992
2222.71	25.1079
2223.66	24.9308
2224.6	24.6301
2225.55	27.7941
2226.49	26.2241
2227.44	25.674
2228.38	29.8061
2229.33	26.2502
2230.27	23.3676
2231.22	27.7447
2232.16	29.4566
2233.11	27.3879
2234.05	24.6943
2235	24.2941
2235.94	25.3997
2236.88	27.2543
2237.83	27.7794
2238.77	27.8971
2239.71	29.1988
2240.66	28.2131
2241.6	26.4186
2242	26
2242.95	26
2243.9	28
2244.84	26
2245.79	26
2246.74	26
2247.69	26
2248.63	31
2249.58	29
2250.53	29
2251.47	23
2252.42	26
2253.37	27
2254.31	22
2255.26	28
2256.2	27
2257.15	26
2258.1	25
2259.04	28
2259.99	24
2260.93	26
2261.88	27
2262.82	21
2263.77	31
2264.71	27
2265.65	27
2266.6	28
2267.54	26
2268.49	29
2269.43	23
2270.38	22
2271.32	25
2272.26	28
2273.21	30
2274.15	30
2275.09	25
2276.04	29
2276.98	25
2277.92	28
2278.86	29
2279.81	29
2280.75	26
2281.69	18
2282.63	26
2283.57	24
2284.52	26
2285.46	28
2286.4	22
2287.34	22
2288.28	28
2289.22	22
2290.16	26
2291.1	30
2292.04	32
2292.98	32
2293.93	24
2294.86	22
2295.8	27
2296.74	22
2297.69	28
2298.62	30
2299.56	25
2300.5	26
2301.44	28
2302.38	28
2303.32	26
2304.26	23
2305.2	27
2306.14	28
2307.07	28
2308.01	30
2308.95	24
2309.89	26
2310.83	30
2311.76	24
2312.7	28
2313.64	31
2314.58	24
2315.51	28
2316.45	25
2317.39	31
2318.32	26
2319.26	26
2320.2	22
2321.13	25
2322.07	25
2323	26
2323.94	24
2324.88	20
2325.81	26
2326.75	27
2327.68	28
2328.62	25
2329.55	23
2330.49	26
2331.42	27
2332.36	32
2333.29	30
2334.22	26
2335.16	26
2336.09	29
2337.03	24
2337.96	24
2338.89	26
2339.83	27
2340.76	28
2341.69	28
2342.63	22
2343.56	26
2344.49	28
2345.43	25
2346.36	26
2347.29	30
2348.22	24
2349.15	28
2350.09	28
2351.02	27
2351.95	20
2352.88	26
2353.81	25
2354.74	26
2355.67	29
2356.61	27
2357.54	30
2358.47	29
2359.4	27
2360.33	23
2361.26	29
2362.19	25
2363.12	29
2364.05	28
2364.98	24
2365.91	22
2366.84	31
2367.77	28
2368.7	30
2369.62	22
2370.55	31
2371.48	28
2372.41	26
2373.34	26
2374.27	26
2375.2	24
2376.12	25
2377.05	25
2377.98	28
2378.91	28
2379.83	28
2380.76	26
2381.69	27
2382.62	29
2383.54	23
2384.47	31
2385.4	28
2386.32	22
2387.25	26
2388.18	26
2389.1	27
2390.03	27
2390.95	30
2391.88	28
2392.81	29
2393.73	30
2394.66	26
2395.58	28
2396.51	30
2397.43	26
2398.36	24
2399.28	28
2400.2	25
2401.13	28
2402.05	28
2402.98	30
2403.9	29
2404.83	29
2405.75	31
2406.67	26
2407.6	28
2408.52	28
2409.44	30
2410.37	28
2411.29	27
2412.21	28
2413.13	23
2414.06	27
2414.98	24
2415.9	24
2416.82	27
2417.74	34
2418.67	24
2419.59	24
2420.51	26
2421.43	28
2422.35	25
2423.27	29
2424.19	30
2425.11	26
2426.03	32
2426.96	25
2427.88	26
2428.8	25
2429.72	25
2430.64	27
2431.56	26
2432.48	24
2433.39	27
2434.31	25
2435.23	23
2436.15	28
2437.07	29
2437.99	29
2438.91	32
2439.83	30
2440.75	28
2441.67	26
2442.58	30
2443.5	31
2444.42	26
2445.34	26
2446.26	31
2447.17	28
2448.09	26
2449.01	25
2449.92	29
2450.84	27
2451.76	24
2452.68	30
2453.59	28
2454.51	28
2455.42	28
2456.34	29
2457.26	28
2458.17	26
2459.09	27
2460	28
2460.92	18
2461.83	24
2462.75	28
2463.66	31
2464.58	25
2465.49	31
2466.41	25
2467.32	25
2468.24	27
2469.15	29
2470.07	26
2470.98	25
2471.89	29
2472.81	24
2473.72	29
2474.64	24
2475.55	28
2476.46	28
2477.37	24
2478.29	23
2479.2	30
2480.11	29
2481.03	26
2481.94	28
2482.85	24
2483.76	29
2484.67	28
2485.59	30
2486.5	27
2487.41	24
2488.32	25
2489.23	29
2490.14	31
2491.05	33
2491.97	27
2492.88	30
2493.79	28
2494.7	28
2495.61	34
2496.52	28
2497.43	29
2498.34	30
2499.25	30
2500.16	29
2501.07	27
2501.98	26
2502.89	26
2503.79	29
2504.7	25
2505.61	31
2506.52	30
2507.43	28
2508.34	24
2509.25	26
2510.16	26
2511.06	28
2511.97	32
2512.88	26
2513.79	27
2514.69	30
2515.6	25
2516.51	28
2517.42	26
2518.32	30
2519.23	30
2520.14	25
2521.04	30
2521.95	27
2522.86	26
2523.76	24
2524.67	31
2525.57	27
2526.48	28
2527.39	28
2528.29	34
2529.2	27
2530.1	27
2531.01	29
2531.91	28
2532.82	29
2533.72	20
2534.63	28
2535.53	27
2536.44	28
2537.34	23
2538.24	30
2539.15	26
2540.05	31
2540.96	29
2541.86	27
2542.76	31
2543.67	26
2544.57	27
2545.47	30
2546.37	26
2547.28	27
2548.18	26
2549.08	27
2549.99	26
2550.89	30
2551.79	28
2552.69	29
2553.59	22
2554.49	26
2555.4	26
2556.3	28
2557.2	26
2558.1	33
2559	28
2559.9	26
2560.8	32
2561.7	26
2562.6	28
2563.5	26
2564.4	30
2565.3	24
2566.2	27
2567.1	26
2568	26
2568.9	26
2569.8	30
2570.7	29
2571.6	28
2572.5	24
2573.4	23
2574.3	29
2575.2	29
2576.1	26
2576.99	26
2577.89	26
2578.79	30
2579.69	27
2580.59	30
2581.48	29
2582.38	31
2583.28	26
2584.18	28
2585.07	30
2585.97	28
2586.87	28
2587.76	28
2588.66	26
2589.56	25
2590.45	26
2591.35	24
2592.25	24
2593.14	22
2594.04	34
2594.93	30
2595.83	24
2596.73	30
2597.62	28
2598.52	26
2599.41	30
2600.31	26
2601.2	33
2602.1	29
2602.99	30
2603.88	24
2604.78	28
2605.67	26
2606.57	34
2607.46	22
2608.35	28
2609.25	25
2610.14	29
2611.03	28
2611.93	29
2612.82	32
2613.71	24
2614.61	22
2615.5	29
2616.39	30
2617.29	28
2618.18	30
2619.07	27
2619.96	26
2620.85	26
2621.75	24
2622.64	28
2623.53	25
2624.42	20
2625.31	24
2626.2	26
2627.09	27
2627.98	26
2628.88	26
2629.77	26
2630.66	25
2631.55	26
2632.44	28
2633.33	24
2634.22	27
2635.11	30
2636	30
2636.89	29
2637.78	27
2638.66	28
2639.55	26
2640.44	30
2641.33	26
2642.22	35
2643.11	24
2644	23
2644.89	29
2645.78	30
2646.66	28
2647.55	30
2648.44	33
2649.33	31
2650.21	27
2651.1	28
2651.99	29
2652.88	25
2653.76	26
2654.65	31
2655.54	26
2656.42	28
2657.31	30
2658.2	30
2659.08	28
2659.97	25
2660.86	24
2661.74	26
2662.63	24
2663.51	29
2664.4	31
2665.29	28
2666.17	25
2667.06	25
2667.94	25
2668.83	29
2669.71	29
2670.6	30
2671.48	26
2672.36	32
2673.25	28
2674.13	26
2675.02	20
2675.9	32
2676.78	30
2677.67	28
2678.55	30
2679.43	31
2680.32	24
2681.2	30
2682.08	31
2682.97	30
2683.85	30
2684.73	28
2685.61	32
2686.5	26
2687.38	24
2688.26	28
2689.14	24
2690.03	32
2690.91	27
2691.79	26
2692.67	26
2693.55	28
2694.43	27
2695.31	31
2696.19	30
2697.08	28
2697.96	24
2698.84	28
2699.72	22
2700.6	29
2701.48	22
2702.36	26
2703.24	18
2704.12	27
2705	27
2705.88	35
2706.76	28
2707.64	22
2708.51	24
2709.39	24
2710.27	27
2711.15	25
2712.03	30
2712.91	20
2713.79	26
2714.67	29
2715.54	30
2716.42	24
2717.3	28
2718.18	24
2719.05	24
2719.93	26
2720.81	26
2721.69	34
2722.56	29
2723.44	28
2724.32	30
2725.19	24
2726.07	22
2726.95	30
2727.82	29
2728.7	29
2729.58	30
2730.45	29
2731.33	32
2732.2	25
2733.08	28
2733.95	26
2734.83	27
2735.7	28
2736.58	26
2737.45	30
2738.33	24
2739.2	31
2740.08	30
2740.95	30
2741.83	23
2742.7	28
2743.58	25
2744.45	26
2745.32	27
2746.2	31
2747.07	20
2747.94	26
2748.82	24
2749.69	26
2750.56	26
2751.44	26
2752.31	28
2753.18	30
2754.05	25
2754.93	22
2755.8	29
2756.67	28
2757.54	30
2758.42	24
2759.29	29
2760.16	28
2761.03	29
2761.9	25
2762.77	30
2763.64	26
2764.51	25
2765.38	26
2766.26	32
2767.13	31
2768	32
2768.87	25
2769.74	26
2770.61	22
2771.48	29
2772.35	28
2773.22	28
2774.09	24
2774.96	28
2775.83	25
2776.7	28
2777.56	29
2778.43	26
2779.3	27
2780.17	28
2781.04	30
2781.91	22
2782.78	27
2783.64	27
2784.51	28
2785.38	30
2786.25	28
2787.12	26
2787.98	32
2788.85	24
2789.72	26
2790.59	32
2791.45	27
2792.32	28
2793.19	26
2794.05	26
2794.92	29
2795.79	26
2796.65	30
2797.52	30
2798.38	28
2799.25	28
2800.12	30
2800.98	26
2801.85	30
2802.71	26
2803.58	26
2804.44	24
2805.31	29
2806.17	29
2807.04	26
2807.9	29
2808.77	32
2809.63	26
2810.5	28
2811.36	30
2812.22	30
2813.09	28
2813.95	28
2814.82	27
2815.68	27
2816.54	28
2817.41	30
2818.27	28
2819.13	22
2820	26
2820.86	26
2821.72	30
2822.58	30
2823.45	28
2824.31	22
2825.17	32
2826.03	34
2826.9	26
2827.76	27
2828.62	34
2829.48	29
2830.34	26
2831.2	30
2832.06	34
2832.92	29
2833.79	28
2834.65	28
2835.51	29
2836.37	28
2837.23	33
2838.09	28
2838.95	30
2839.81	28
2840.67	27
2841.53	30
2842.39	31
2843.25	22
2844.11	28
2844.97	28
2845.83	26
2846.68	26
2847.54	26
2848.4	31
2849.26	26
2850.12	28
2850.98	29
2851.84	34
2852.69	26
2853.55	30
2854.41	26
2855.27	31
2856.13	30
2856.98	27
2857.84	31
2858.7	30
2859.56	30
2860.41	27
2861.27	34
2862.13	29
2862.98	28
2863.84	28
2864.7	24
2865.55	28
2866.41	29
2867.27	34
2868.12	24
2868.98	28
2869.83	31
2870.69	29
2871.54	30
2872.4	32
2873.25	30
2874.11	31
2874.96	24
2875.82	30
2876.68	36
2877.53	34
2878.38	32
2879.24	35
2880.09	35
2880.95	37
2881.8	34
2882.65	36
2883.51	28
2884.36	32
2885.22	35
2886.07	32
2886.92	36
2887.77	38
2888.63	35
2889.48	32
2890.33	40
2891.19	36
2892.04	36
2892.89	38
2893.74	42
2894.6	41
2895.45	45
2896.3	41
2897.15	47
2898	36
2898.85	50
2899.71	49
2900.56	50
2901.41	50
2902.26	55
2903.11	55
2903.96	62
2904.81	56
2905.66	62
2906.51	60
2907.36	64
2908.21	58
2909.06	56
2909.91	63
2910.76	58
2911.61	50
2912.46	53
2913.31	50
2914.16	40
2915.01	44
2915.86	46
2916.71	48
2917.56	44
2918.41	40
2919.26	41
2920.1	40
2920.95	37
2921.8	36
2922.65	40
2923.5	33
2924.34	28
2925.19	36
2926.04	36
2926.89	36
2927.74	34
2928.58	32
2929.43	32
2930.28	28
2931.12	25
2931.97	32
2932.82	33
2933.66	30
2934.51	24
2935.36	29
2936.2	30
2937.05	32
2937.89	28
2938.74	30
2939.59	29
2940.43	35
2941.28	25
2942.12	26
2942.97	31
2943.81	26
2944.66	31
2945.5	33
2946.35	32
2947.19	30
2948.04	30
2948.88	32
2949.72	31
2950.57	34
2951.41	33
2952.26	36
2953.1	29
2953.94	34
2954.79	32
2955.63	32
2956.47	37
2957.32	36
2958.16	26
2959	43
2959.85	33
2960.69	36
2961.53	36
2962.37	38
2963.22	38
2964.06	34
2964.9	48
2965.74	49
2966.58	46
2967.42	36
2968.27	44
2969.11	38
2969.95	46
2970.79	34
2971.63	36
2972.47	33
2973.31	39
2974.15	37
2974.99	36
2975.83	30
2976.68	37
2977.52	34
2978.36	37
2979.2	32
2980.04	35
2980.88	30
2981.71	30
2982.55	30
2983.39	29
2984.23	26
2985.07	31
2985.91	28
2986.75	30
2987.59	28
2988.43	25
2989.27	27
2990.1	26
2990.94	30
2991.78	20
2992.62	26
2993.46	31
2994.3	28
2995.13	31
2995.97	26
2996.81	24
2997.64	32
2998.48	30
2999.32	28
