#Acq. time (s)=	3
#Accumulations=	3
#Range (cm-¹)=	100...3000
#Windows=	3
#Autofocus=	Off
#AutoExposure=	Off
#Spike filter=	Multiple accum.
#Delay time (s)=	0
#Binning=	1
#Readout mode=	Signal
#DeNoise=	Off
#ICS correction=	Off
#Dark correction=	Off
#Inst. Process=	Off
#Instrument=	LabRAM HR Evol
#Detector=	Syncerity OE
#Objective=	x100_VIS_LWD
#Grating=	600 (500nm)
#ND Filter=	25%
#Laser=	633nm_Edge
#Hole=	100.021
#Range=	Visible
#Project=	Bolus
#Sample=	A3
#Site=	stripside
#Title=	m15
#Remark=	
#Date=	03.11.2025 18:28
#Acquired=	03.11.2025 18:28:51
100.969	29
102.252	32
103.535	35
104.818	34
106.101	37
107.384	32
108.666	32
109.948	31
111.232	34
112.514	35
113.795	26
115.077	27
116.358	24
117.639	30
118.919	34
120.2	38
121.48	35
122.76	36
124.04	35
125.32	24
126.599	34
127.879	35
129.158	30
130.436	28
131.715	38
132.992	33
134.27	39
135.548	40
136.826	34
138.104	42
139.381	39
140.658	36
141.935	39
143.212	36
144.489	36
145.763	41
147.04	38
148.315	40
149.591	41
150.867	39
152.142	38
153.416	42
154.691	41
155.965	40
157.24	42
158.514	39
159.786	40
161.06	44
162.334	38
163.607	44
164.881	40
166.152	36
167.425	45
168.698	43
169.969	42
171.241	42
172.513	41
173.785	41
175.055	41
176.326	43
177.597	45
178.867	45
180.137	40
181.408	38
182.677	37
183.947	38
185.217	40
186.485	44
187.755	44
189.022	44
190.291	43
191.56	33
192.828	38
194.096	42
195.363	42
196.631	40
197.899	44
199.165	40
200.432	40
201.698	41
202.965	38
204.23	36
205.497	38
206.762	39
208.028	44
209.293	37
210.559	40
211.823	36
213.088	35
214.352	38
215.617	36
216.88	35
218.145	30
219.408	35
220.672	31
221.934	36
223.196	36
224.46	38
225.722	32
226.985	37
228.246	36
229.508	32
230.77	36
232.031	34
233.292	32
234.554	34
235.814	32
237.074	34
238.335	30
239.595	26
240.854	34
242.115	28
243.374	36
244.633	36
245.893	33
247.151	36
248.409	35
249.667	36
250.927	36
252.184	36
253.442	34
254.699	38
255.957	31
257.214	32
258.47	31
259.727	32
260.983	31
262.24	31
263.496	32
264.752	28
266.007	30
267.262	36
268.517	28
269.773	32
271.028	35
272.282	34
273.536	29
274.79	33
276.044	32
277.297	36
278.551	35
279.804	31
281.057	28
282.31	26
283.564	31
284.816	30
286.068	31
287.32	35
288.572	33
289.823	26
291.074	32
292.325	30
293.576	28
294.827	29
296.077	30
297.328	34
298.578	28
299.828	32
301.077	32
302.325	34
303.575	30
304.824	28
306.073	34
307.321	30
308.57	30
309.818	30
311.066	34
312.314	30
313.562	32
314.808	34
316.055	36
317.302	32
318.549	36
319.796	31
321.042	30
322.288	32
323.533	38
324.779	34
326.024	31
327.27	36
328.515	34
329.759	31
331.004	32
332.248	36
333.493	33
334.736	31
335.98	31
337.223	30
338.466	29
339.709	31
340.952	30
342.195	26
343.437	26
344.68	30
345.922	31
347.163	26
348.405	31
349.647	34
350.887	36
352.128	26
353.37	34
354.609	40
355.85	28
357.089	30
358.33	32
359.57	30
360.809	30
362.049	31
363.287	32
364.526	36
365.764	30
367.003	30
368.241	33
369.479	30
370.718	35
371.955	30
373.193	28
374.429	34
375.667	32
376.903	31
378.139	30
379.376	32
380.611	30
381.848	28
383.083	28
384.319	30
385.554	29
386.79	34
388.024	26
389.258	30
390.493	35
391.727	32
392.962	31
394.195	32
395.428	31
396.663	30
397.895	37
399.128	33
400.361	30
401.593	35
402.825	32
404.058	26
405.29	32
406.521	24
407.752	28
408.985	32
410.215	33
411.446	32
412.678	34
413.908	33
415.138	26
416.367	31
417.597	32
418.828	34
420.057	30
421.286	29
422.514	28
423.743	28
424.973	30
426.201	32
427.429	29
428.657	24
429.884	30
431.112	36
432.34	35
433.567	31
434.794	35
436.02	32
437.247	31
438.473	36
439.699	33
440.925	32
442.15	34
443.376	31
444.601	34
445.826	33
447.051	31
448.275	30
449.5	34
450.724	35
451.948	36
453.172	32
454.396	28
455.619	30
456.842	34
458.065	30
459.288	32
460.511	31
461.733	31
462.956	34
464.178	34
465.4	35
466.621	32
467.843	37
469.064	32
470.285	34
471.505	32
472.726	38
473.946	31
475.166	38
476.387	42
477.606	40
478.825	51
480.044	48
481.264	42
482.483	50
483.702	48
484.921	52
486.138	54
487.356	50
488.574	61
489.792	63
491.009	61
492.226	56
493.444	53
494.661	50
495.877	55
497.094	50
498.31	44
499.525	48
500.741	42
501.958	38
503.172	52
504.388	38
505.603	39
506.817	44
508.032	39
509.247	30
510.46	39
511.675	36
512.888	36
514.102	37
515.316	36
516.528	30
517.742	34
518.954	35
520.167	31
521.378	31
522.591	33
523.802	32
525.015	29
526.226	30
527.438	40
528.648	28
529.86	34
531.07	35
532.281	35
533.491	32
534.702	32
535.911	32
537.121	32
538.33	28
539.54	32
540.749	30
541.957	30
543.167	32
544.375	33
545.584	33
546.791	30
547.999	33
549.207	36
550.414	26
551.621	38
552.829	30
554.035	36
555.241	30
556.449	32
557.655	33
558.86	32
560.066	30
561.272	32
562.477	28
563.682	30
564.888	35
566.093	28
567.297	33
568.501	36
569.705	31
570.91	32
572.114	32
573.317	30
574.52	30
575.723	33
576.927	37
578.13	32
579.332	34
580.535	32
581.737	28
582.938	39
584.14	26
585.343	31
586.544	34
587.745	31
588.946	32
590.147	30
591.347	31
592.548	26
593.748	35
594.948	30
596.147	36
597.347	31
598.546	30
599.745	29
600.944	32
602.143	30
603.342	31
604.54	30
605.738	34
606.937	27
608.134	32
609.332	30
610.529	26
611.727	35
612.924	31
614.121	34
615.317	33
616.513	31
617.709	32
618.905	32
620.101	32
621.297	28
622.492	28
623.688	28
624.883	22
626.077	35
627.271	30
628.466	33
629.66	33
630.855	30
632.047	34
633.241	33
634.435	30
635.629	40
636.82	30
638.014	32
639.207	32
640.399	34
641.59	28
642.783	31
643.975	30
645.166	35
646.357	35
647.549	38
648.741	28
649.93	33
651.122	29
652.311	34
653.502	32
654.692	34
655.881	33
657.071	29
658.261	32
659.45	35
660.639	30
661.827	30
663.016	36
664.204	31
665.393	31
666.581	30
667.769	34
668.957	32
670.143	34
671.331	30
672.518	33
673.705	30
674.891	35
676.078	33
677.264	34
678.451	30
679.636	32
680.821	32
682.007	40
683.192	38
684.378	36
685.562	37
686.747	34
687.931	34
689.115	40
690.3	29
691.483	38
692.666	35
693.851	34
695.034	39
696.216	38
697.4	40
698.582	33
699.764	36
700.948	37
702.129	36
703.311	37
704.493	40
705.674	46
706.855	45
708.036	49
709.218	46
710.399	53
711.579	44
712.759	48
713.939	45
715.12	38
716.299	40
717.478	37
718.657	32
719.836	34
721.015	34
722.195	24
723.373	34
724.552	34
725.729	28
726.907	30
728.085	35
729.262	28
730.44	28
731.617	39
732.795	35
733.972	31
735.148	32
736.324	29
737.501	32
738.677	30
739.852	33
741.028	31
742.203	28
743.379	36
744.554	30
745.729	34
746.903	32
748.078	32
749.252	34
750.426	25
751.599	36
752.772	34
753.946	34
755.119	36
756.293	35
757.466	34
758.639	30
759.811	35
760.984	32
762.155	33
763.327	33
764.499	33
765.67	34
766.842	31
768.013	30
769.183	33
770.354	30
771.525	31
772.696	32
773.865	34
775.035	34
776.205	32
777.375	34
778.544	32
779.713	32
780.882	27
782.052	32
783.219	32
784.388	31
785.557	35
786.724	34
787.892	32
789.06	31
790.227	38
791.395	40
792.562	33
793.728	37
794.895	34
796.061	30
797.228	34
798.395	30
799.56	29
800.726	30
801.891	28
803.057	28
804.221	34
805.387	32
806.551	29
807.716	30
808.879	27
810.044	34
811.208	32
812.372	34
813.535	33
814.699	32
815.862	34
817.025	32
818.188	33
819.351	36
820.513	30
821.675	31
822.837	29
823.999	34
825.161	26
826.322	30
827.483	30
828.645	28
829.805	31
830.966	32
832.127	32
833.287	32
834.447	34
835.607	36
836.767	31
837.926	37
839.085	30
840.245	30
841.404	36
842.562	27
843.72	28
844.88	33
846.038	32
847.195	32
848.353	31
849.512	32
850.669	30
851.826	28
852.983	34
854.139	30
855.296	33
856.453	32
857.609	33
858.765	27
859.921	34
861.077	35
862.232	33
863.387	37
864.542	34
865.697	34
866.852	37
868.008	29
869.162	28
870.316	34
871.47	30
872.624	24
873.778	31
874.931	29
876.084	36
877.237	30
878.39	32
879.543	34
880.695	31
881.846	31
882.999	32
884.151	36
885.302	33
886.454	26
887.606	26
888.757	29
889.908	32
891.059	34
892.21	32
893.359	33
894.509	18
895.659	28
896.81	31
897.959	32
899.109	27
900.257	33
901.407	30
902.556	31
903.705	26
904.854	31
906.001	33
907.149	28
908.298	25
909.446	34
910.592	31
911.74	30
912.888	26
914.034	31
915.181	30
916.328	29
917.473	34
918.62	29
919.766	32
920.911	32
922.058	30
923.204	28
924.348	29
925.494	32
926.638	30
927.783	28
928.928	28
930.072	30
931.216	26
932.36	26
933.504	33
934.647	31
935.791	29
936.933	32
938.077	28
939.219	30
940.363	36
941.504	31
942.647	28
943.789	30
944.932	30
946.073	33
947.215	30
948.356	34
949.498	35
950.638	30
951.778	32
952.92	29
954.06	18
955.199	32
956.34	31
957.479	31
958.62	26
959.759	33
960.898	28
962.038	26
963.176	31
964.315	30
965.453	33
966.592	31
967.73	31
968.867	35
970.006	32
971.144	27
972.281	22
973.418	22
974.554	24
975.692	34
976.829	25
977.965	30
979.101	33
980.237	35
981.374	28
982.509	32
983.645	28
984.78	36
985.915	26
987.05	30
988.184	26
989.319	29
990.453	30
991.589	32
992.722	30
993.856	33
994.99	34
996.123	29
997.257	30
998.39	31
999.523	30
1000.66	28
1001.79	34
1002.92	26
1004.05	27
1005.18	26
1006.32	32
1007.45	29
1008.58	30
1009.71	31
1010.84	29
1011.97	29
1013.1	26
1014.23	34
1015.36	30
1016.49	32
1017.62	34
1018.75	29
1019.88	29
1021.01	28
1022.14	32
1023.27	31
1024.4	28
1025.53	28
1026.66	29
1027.79	32
1028.91	30
1030.04	32
1031.17	29
1032.3	26
1033.42	29
1034.55	28
1035.68	29
1036.81	30
1037.93	30
1039.06	26
1040.18	36
1041.31	30
1042.44	28
1043.56	30
1044.69	29
1045.81	30
1046.94	33
1048.06	30
1049.19	29
1050.31	31
1051.44	28
1052.56	30
1053.69	28
1054.81	29
1055.93	26
1057.06	28
1058.18	28
1059.3	26
1060.43	30
1061.55	31
1062.67	32
1063.79	24
1064.92	27
1066.04	20
1067.16	31
1068.28	29
1069.4	28
1070.52	28
1071.65	28
1072.77	24
1073.89	28
1075.01	30
1076.13	23
1077.25	32
1078.37	31
1079.49	32
1080.61	32
1081.73	34
1082.85	26
1083.97	28
1085.09	28
1086.2	30
1087.32	28
1088.44	25
1089.56	30
1090.68	29
1091.8	30
1092.91	31
1094.03	24
1095.15	27
1096.26	28
1097.38	28
1098.5	27
1099.61	32
1100.73	33
1101.85	29
1102.96	25
1104.08	30
1105.19	32
1106.31	28
1107.43	29
1108.54	26
1109.66	30
1110.77	26
1111.88	30
1113	28
1114.11	27
1115.23	28
1116.34	28
1117.46	29
1118.57	30
1119.68	30
1120.8	25
1121.91	33
1123.02	30
1124.13	29
1125.25	28
1126.36	30
1127.47	30
1128.58	28
1129.69	26
1130.8	30
1131.92	29
1133.03	28
1134.14	27
1135.25	27
1136.36	30
1137.47	33
1138.58	30
1139.69	28
1140.8	28
1141.91	28
1143.02	26
1144.13	31
1145.24	30
1146.35	25
1147.46	24
1148.56	22
1149.67	30
1150.78	30
1151.89	30
1153	25
1154.1	28
1155.21	28
1156.32	26
1157.43	28
1158.53	31
1159.64	27
1160.75	29
1161.85	30
1162.96	28
1164.07	30
1165.17	31
1166.28	24
1167.38	26
1168.49	29
1169.59	31
1170.7	28
1171.8	28
1172.91	34
1174.01	24
1175.12	24
1176.22	28
1177.32	30
1178.43	29
1179.53	29
1180.64	26
1181.74	27
1182.84	25
1183.94	29
1185.05	30
1186.15	28
1187.25	25
1188.35	24
1189.46	28
1190.56	24
1191.66	26
1192.76	30
1193.86	25
1194.96	26
1196.06	26.0196
1197.16	27.9547
1198.26	31.9224
1199.37	22.2746
1200.47	26.1941
1201.57	26.1373
1202.67	26.045
1203.77	28.0341
1204.86	28.9167
1205.96	31.5293
1207.06	33.2839
1208.16	26.3421
1209.26	27.3049
1210.36	29.3359
1211.46	31.1405
1212.56	26.4564
1213.65	29.836
1214.75	23.0379
1215.85	27.3454
1216.95	28.3981
1218.04	30.6829
1219.14	27.6455
1220.24	27.9135
1221.33	25.8942
1222.43	27.607
1223.53	31.2253
1224.62	29.3755
1225.72	30.2874
1226.82	29.6788
1227.91	26.6387
1229.01	28.3139
1230.1	27.7879
1231.2	27.4422
1232.29	28.27
1233.39	26.9661
1234.48	23.4775
1235.58	26.6479
1236.67	27.0776
1237.77	26.6044
1238.86	26.5732
1239.95	30.6875
1241.05	26.8137
1242.14	30.6406
1243.23	30.155
1244.33	30.5314
1245.42	28.3963
1246.51	25.9791
1247.61	29.3957
1248.7	29.1473
1249.79	26.9706
1250.88	30.3226
1251.97	24.4002
1253.07	28.5441
1254.16	27.6032
1255.25	29.5248
1256.34	28.0584
1257.43	31.0147
1258.52	28.1422
1259.61	30.5057
1260.7	28.3319
1261.79	23.9633
1262.88	31.3971
1263.97	29.285
1265.06	31.4638
1266.15	31.3416
1267.24	25.9121
1268.33	26.5385
1269.42	30.5237
1270.51	27.6298
1271.6	30.2415
1272.68	29.7875
1273.77	30.0293
1274.86	26.2948
1275.95	26.0635
1277.04	29.9924
1278.12	27.4525
1279.21	27.4479
1280.3	27.7879
1281.39	30.3487
1282.47	26.8257
1283.56	27.4195
1284.65	28.9951
1285.73	29.1999
1286.82	27.4108
1287.91	29.4115
1288.99	31.8685
1290.08	30.7403
1291.16	29.158
1292.25	28.3884
1293.33	28.3948
1294.42	26.3489
1295.5	27.3377
1296.59	25.0037
1297.67	28.3239
1298.76	30.0663
1299.84	27.3651
1300.92	30.2157
1302.01	29.3017
1303.09	23.6439
1304.17	26.2214
1305.26	28.0813
1306.34	28.9128
1307.34	28
1308.43	24
1309.52	24
1310.61	25
1311.7	28
1312.78	25
1313.87	28
1314.96	33
1316.04	24
1317.13	30
1318.22	24
1319.3	33
1320.39	24
1321.48	22
1322.56	26
1323.65	26
1324.73	28
1325.82	28
1326.9	31
1327.99	34
1329.07	33
1330.16	28
1331.24	26
1332.33	30
1333.41	22
1334.5	28
1335.58	32
1336.66	28
1337.75	28
1338.83	28
1339.91	34
1341	28
1342.08	30
1343.16	24
1344.24	29
1345.33	27
1346.41	28
1347.49	28
1348.57	28
1349.65	26
1350.74	30
1351.82	30
1352.9	30
1353.98	29
1355.06	28
1356.14	32
1357.22	31
1358.3	28
1359.38	26
1360.46	28
1361.54	29
1362.62	29
1363.7	28
1364.78	24
1365.86	24
1366.94	28
1368.02	29
1369.09	30
1370.17	23
1371.25	33
1372.33	25
1373.41	28
1374.48	28
1375.56	29
1376.64	20
1377.72	27
1378.79	29
1379.87	28
1380.95	28
1382.02	26
1383.1	29
1384.17	30
1385.25	29
1386.33	28
1387.4	27
1388.48	26
1389.55	28
1390.63	22
1391.7	31
1392.78	28
1393.85	32
1394.93	29
1396	30
1397.07	32
1398.15	35
1399.22	28
1400.3	27
1401.37	31
1402.44	33
1403.52	30
1404.59	24
1405.66	31
1406.73	36
1407.81	33
1408.88	29
1409.95	31
1411.02	30
1412.09	36
1413.17	35
1414.24	32
1415.31	37
1416.38	34
1417.45	28
1418.52	33
1419.59	30
1420.66	29
1421.73	38
1422.8	31
1423.87	32
1424.94	35
1426.01	32
1427.08	30
1428.15	29
1429.22	31
1430.29	29
1431.35	28
1432.42	30
1433.49	28
1434.56	31
1435.63	30
1436.69	32
1437.76	32
1438.83	26
1439.9	26
1440.96	28
1442.03	30
1443.1	28
1444.17	27
1445.23	27
1446.3	26
1447.36	25
1448.43	24
1449.49	30
1450.56	33
1451.63	30
1452.69	28
1453.76	24
1454.82	28
1455.89	30
1456.95	27
1458.01	27
1459.08	30
1460.14	27
1461.21	26
1462.27	28
1463.34	22
1464.4	27
1465.46	30
1466.52	32
1467.59	31
1468.65	28
1469.71	33
1470.77	24
1471.84	30
1472.9	27
1473.96	28
1475.02	28
1476.08	26
1477.15	30
1478.21	28
1479.27	31
1480.33	31
1481.39	28
1482.45	28
1483.51	33
1484.57	28
1485.63	26
1486.69	28
1487.75	28
1488.81	29
1489.87	26
1490.93	28
1491.99	34
1493.05	32
1494.1	30
1495.16	29
1496.22	27
1497.28	35
1498.34	24
1499.4	31
1500.45	29
1501.51	30
1502.57	26
1503.63	26
1504.68	30
1505.74	30
1506.8	30
1507.85	24
1508.91	30
1509.97	36
1511.02	31
1512.08	30
1513.13	24
1514.19	28
1515.24	32
1516.3	30
1517.35	31
1518.41	27
1519.46	29
1520.52	24
1521.57	22
1522.63	29
1523.68	32
1524.73	27
1525.79	30
1526.84	29
1527.9	24
1528.95	24
1530	28
1531.05	30
1532.11	28
1533.16	32
1534.21	33
1535.26	26
1536.32	28
1537.37	31
1538.42	27
1539.47	26
1540.52	26
1541.57	28
1542.63	30
1543.68	30
1544.73	30
1545.78	30
1546.83	30
1547.88	29
1548.93	29
1549.98	24
1551.03	30
1552.08	28
1553.13	35
1554.18	29
1555.23	28
1556.27	28
1557.32	35
1558.37	33
1559.42	28
1560.47	31
1561.52	32
1562.56	32
1563.61	30
1564.66	31
1565.71	30
1566.75	32
1567.8	30
1568.85	31
1569.9	28
1570.94	32
1571.99	34
1573.03	30
1574.08	30
1575.13	26
1576.17	26
1577.22	32
1578.26	29
1579.31	29
1580.35	25
1581.4	28
1582.44	31
1583.49	28
1584.53	26
1585.58	30
1586.62	30
1587.66	30
1588.71	30
1589.75	24
1590.8	32
1591.84	26
1592.88	29
1593.92	33
1594.97	32
1596.01	26
1597.05	32
1598.1	32
1599.14	30
1600.18	26
1601.22	30
1602.26	27
1603.3	37
1604.35	31
1605.39	30
1606.43	29
1607.47	34
1608.51	26
1609.55	26
1610.59	26
1611.63	32
1612.67	28
1613.71	28
1614.75	29
1615.79	24
1616.83	28
1617.87	28
1618.91	30
1619.95	32
1620.99	28
1622.02	32
1623.06	32
1624.1	24
1625.14	28
1626.18	34
1627.21	28
1628.25	29
1629.29	30
1630.33	26
1631.36	31
1632.4	29
1633.44	27
1634.48	26
1635.51	32
1636.55	30
1637.58	28
1638.62	31
1639.66	27
1640.69	34
1641.73	27
1642.76	32
1643.8	31
1644.83	28
1645.87	28
1646.9	28
1647.94	30
1648.97	30
1650	30
1651.04	24
1652.07	32
1653.11	26
1654.14	30
1655.17	28
1656.21	27
1657.24	32
1658.27	29
1659.31	24
1660.34	29
1661.37	28
1662.4	24
1663.43	22
1664.47	32
1665.5	25
1666.53	30
1667.56	29
1668.59	28
1669.62	24
1670.66	28
1671.69	30
1672.72	29
1673.75	28
1674.78	30
1675.81	28
1676.84	32
1677.87	35
1678.9	28
1679.93	30
1680.96	28
1681.98	32
1683.01	28
1684.04	20
1685.07	27
1686.1	29
1687.13	30
1688.16	33
1689.18	33
1690.21	33
1691.24	28
1692.27	26
1693.3	30
1694.32	30
1695.35	26
1696.38	31
1697.4	30
1698.43	32
1699.46	28
1700.48	31
1701.51	28
1702.54	28
1703.56	26
1704.59	32
1705.61	30
1706.64	31
1707.66	28
1708.69	30
1709.71	30
1710.74	31
1711.76	25
1712.79	30
1713.81	26
1714.83	29
1715.86	28
1716.88	28
1717.91	26
1718.93	26
1719.95	29
1720.98	25
1722	31
1723.02	27
1724.04	28
1725.07	24
1726.09	28
1727.11	32
1728.13	28
1729.15	29
1730.18	27
1731.2	26
1732.22	28
1733.24	28
1734.26	29
1735.28	32
1736.3	33
1737.32	28
1738.34	29
1739.36	33
1740.38	29
1741.4	34
1742.42	31
1743.44	30
1744.46	28
1745.48	28
1746.5	28
1747.52	31
1748.54	28
1749.56	27
1750.58	30
1751.6	29
1752.61	30
1753.63	29
1754.65	26
1755.67	29
1756.68	35
1757.7	29
1758.72	32
1759.74	30
1760.75	29
1761.77	26
1762.79	34
1763.8	27
1764.82	22
1765.83	30
1766.85	30
1767.87	30
1768.88	27
1769.9	22
1770.91	25
1771.93	28
1772.94	28
1773.96	30
1774.97	29
1775.99	30
1777	26
1778.02	31
1779.03	32
1780.04	28
1781.06	28
1782.07	20
1783.09	29
1784.1	30
1785.11	26
1786.13	29
1787.14	28
1788.15	26
1789.16	24
1790.18	28
1791.19	28
1792.2	30
1793.21	30
1794.22	26
1795.23	30
1796.25	26
1797.26	31
1798.27	28
1799.28	18
1800.29	28
1801.3	30
1802.31	27
1803.32	30
1804.33	22
1805.34	33
1806.35	29
1807.36	28
1808.37	26
1809.38	24
1810.39	32
1811.4	25
1812.41	27
1813.42	30
1814.42	26
1815.43	28
1816.44	30
1817.45	34
1818.46	30
1819.47	33
1820.47	29
1821.48	30
1822.49	25
1823.49	30
1824.5	26
1825.51	31
1826.52	28
1827.52	28
1828.53	26
1829.53	27
1830.54	30
1831.55	29
1832.55	28
1833.56	24
1834.56	32
1835.57	29
1836.57	26
1837.58	29
1838.58	28
1839.59	31
1840.59	26
1841.6	32
1842.6	28
1843.61	30
1844.61	31
1845.61	28
1846.62	26
1847.62	31
1848.62	30
1849.63	27
1850.63	22
1851.63	29
1852.64	26
1853.64	32
1854.64	26
1855.64	27
1856.64	24
1857.65	30
1858.65	34
1859.65	30
1860.65	20
1861.65	33
1862.65	24
1863.65	28
1864.66	28
1865.66	28
1866.66	27
1867.66	28
1868.66	27
1869.66	32
1870.66	27
1871.66	28
1872.66	30
1873.66	33
1874.66	29
1875.65	23
1876.65	31
1877.65	32
1878.65	29
1879.65	26
1880.65	24
1881.65	26
1882.64	29
1883.64	29
1884.64	31
1885.64	29
1886.63	28
1887.63	31
1888.63	27
1889.63	30
1890.62	23
1891.62	26
1892.62	26
1893.61	31
1894.61	29
1895.6	24
1896.6	30
1897.6	32
1898.59	30
1899.59	24
1900.58	28
1901.58	27
1902.57	25
1903.57	30
1904.56	28
1905.56	26
1906.55	29
1907.54	30
1908.54	22
1909.53	24
1910.53	31
1911.52	24
1912.51	26
1913.51	18
1914.5	28
1915.49	28
1916.49	26
1917.48	24
1918.47	29
1919.46	22
1920.46	25
1921.45	28
1922.44	26
1923.43	28
1924.42	27
1925.41	26
1926.41	24
1927.4	28
1928.39	29
1929.38	26
1930.37	23
1931.36	31
1932.35	30
1933.34	29
1934.33	32
1935.32	26
1936.31	24
1937.3	28
1938.29	29
1939.28	24
1940.27	32
1941.26	26
1942.24	30
1943.23	27
1944.22	20
1945.21	24
1946.2	28
1947.19	28
1948.17	32
1949.16	24
1950.15	26
1951.14	28
1952.12	31
1953.11	32
1954.1	32
1955.09	27
1956.07	26
1957.06	28
1958.05	30
1959.03	28
1960.02	32
1961	30
1961.99	28
1962.98	26
1963.96	26
1964.95	29
1965.93	30
1966.92	26
1967.9	22
1968.89	24
1969.87	32
1970.85	28
1971.84	26
1972.82	30
1973.81	28
1974.79	27
1975.78	24
1976.76	30
1977.74	28
1978.73	28
1979.71	26
1980.69	22
1981.67	25
1982.66	29
1983.64	29
1984.62	26
1985.6	28
1986.59	30
1987.57	28
1988.55	30
1989.53	30
1990.51	26
1991.49	28
1992.47	26
1993.45	25
1994.44	22
1995.42	27
1996.4	26
1997.38	28
1998.36	30
1999.34	27
2000.32	25
2001.3	30
2002.28	27
2003.26	30
2004.24	26
2005.22	30
2006.19	28
2007.17	27
2008.15	29
2009.13	28
2010.11	27
2011.09	22
2012.06	27
2013.04	27
2014.02	28
2015	24
2015.98	26
2016.95	28
2017.93	27
2018.91	30
2019.88	30
2020.86	28
2021.84	29
2022.81	26
2023.79	28
2024.77	29
2025.74	26
2026.72	25
2027.69	30
2028.67	28
2029.65	29
2030.62	25
2031.6	27
2032.57	34
2033.55	24
2034.52	24
2035.5	31
2036.47	27
2037.44	29
2038.42	26
2039.39	29
2040.36	25
2041.34	33
2042.31	26
2043.29	28
2044.26	22
2045.23	31
2046.2	28
2047.18	25
2048.15	26
2049.12	25
2050.09	31
2051.07	26
2052.04	29
2053.01	28
2053.98	30
2054.95	28
2055.93	29
2056.9	28
2057.87	25
2058.84	32
2059.81	25
2060.78	28
2061.75	28
2062.72	24
2063.69	30
2064.66	26
2065.63	28
2066.6	25
2067.57	29
2068.54	28
2069.51	29
2070.48	27
2071.45	27
2072.42	26
2073.38	24
2074.35	27
2075.32	25
2076.29	22
2077.26	26
2078.23	25
2079.19	24
2080.16	30
2081.13	25
2082.1	28
2083.06	22
2084.03	22
2085	26
2085.96	20
2086.93	28
2087.9	28
2088.86	28
2089.83	29
2090.8	28
2091.76	28
2092.73	27
2093.69	29
2094.66	25
2095.62	28
2096.59	29
2097.55	26
2098.52	20
2099.48	30
2100.45	27
2101.41	24
2102.38	29
2103.34	27
2104.31	22
2105.27	26
2106.23	24
2107.2	23
2108.16	25
2109.12	24
2110.09	23
2111.05	29
2112.01	24
2112.98	26
2113.94	27
2114.9	22
2115.86	27
2116.82	26
2117.79	29
2118.75	32
2119.71	27
2120.67	27
2121.63	30
2122.59	26
2123.55	26
2124.52	26
2125.48	30
2126.44	22
2127.4	25
2128.36	24
2129.32	30
2130.28	25
2131.24	24
2132.2	14
2133.16	30
2134.12	24
2135.08	26
2136.04	26
2136.99	33
2137.95	22
2138.91	26
2139.87	22
2140.83	26
2141.79	28
2142.75	27
2143.7	21
2144.66	27
2145.62	27.9927
2146.58	25.9519
2147.53	26.1001
2148.49	24.229
2149.45	27.9525
2150.41	26.9729
2151.36	20.7905
2152.32	27.7059
2153.27	20.338
2154.23	29.5343
2155.19	25
2156.14	20.5591
2157.1	29.2692
2158.06	27.5907
2159.01	26.304
2159.97	22.6143
2160.92	27.1618
2161.88	25.5165
2162.83	24.9111
2163.79	25.7206
2164.74	20.4113
2165.7	27.98
2166.65	26.0063
2167.61	26.3181
2168.56	25.811
2169.51	25.7278
2170.47	24.2598
2171.42	27.2371
2172.38	28
2173.33	26.9006
2174.28	21.7616
2175.24	22.8764
2176.19	23.3213
2177.14	25.1761
2178.09	25.7017
2179.05	23.4308
2180	22.0869
2180.95	27.3007
2181.9	27.6587
2182.86	28.8382
2183.81	23.1673
2184.76	26.4588
2185.71	25.8466
2186.66	28.7205
2187.61	26.5105
2188.57	24.8336
2189.52	21.5538
2190.47	26.8702
2191.42	24.6641
2192.37	22.147
2193.32	23.5147
2194.27	24.2593
2195.22	24.5712
2196.17	23.4835
2197.12	23.2684
2198.07	23.5596
2199.02	25.7739
2199.97	25.4163
2200.92	24.1348
2201.87	24.375
2202.82	20.4657
2203.76	22.7039
2204.71	26.119
2205.66	23.7952
2206.61	25.0788
2207.56	25.224
2208.51	24.1487
2209.45	23.5125
2210.4	21.3137
2211.35	26.6131
2212.3	28.4144
2213.24	25.0726
2214.19	26.0974
2215.14	26
2216.09	26.5392
2217.03	25.4709
2217.98	25.2175
2218.93	25.0154
2219.87	24.4617
2220.82	25.5222
2221.77	22.7347
2222.71	22.0098
2223.66	23.3409
2224.6	25.291
2225.55	27.7245
2226.49	28.7868
2227.44	26.6022
2228.38	25.1329
2229.33	27.1525
2230.27	24.1978
2231.22	23.5808
2232.16	22.6624
2233.11	26.5376
2234.05	28.1805
2235	26.4367
2235.94	26.336
2236.88	24.1338
2237.83	23.9412
2238.77	25.1029
2239.71	23.2998
2240.66	23.2403
2241.6	24.5962
2242	25
2242.95	24
2243.9	29
2244.84	24
2245.79	28
2246.74	28
2247.69	28
2248.63	23
2249.58	24
2250.53	23
2251.47	24
2252.42	20
2253.37	24
2254.31	24
2255.26	27
2256.2	24
2257.15	27
2258.1	22
2259.04	25
2259.99	23
2260.93	30
2261.88	20
2262.82	26
2263.77	26
2264.71	24
2265.65	29
2266.6	28
2267.54	28
2268.49	28
2269.43	29
2270.38	25
2271.32	34
2272.26	30
2273.21	25
2274.15	28
2275.09	34
2276.04	27
2276.98	30
2277.92	26
2278.86	22
2279.81	28
2280.75	29
2281.69	27
2282.63	29
2283.57	25
2284.52	26
2285.46	26
2286.4	31
2287.34	30
2288.28	29
2289.22	26
2290.16	27
2291.1	28
2292.04	23
2292.98	22
2293.93	26
2294.86	25
2295.8	30
2296.74	23
2297.69	25
2298.62	24
2299.56	24
2300.5	34
2301.44	27
2302.38	24
2303.32	26
2304.26	24
2305.2	27
2306.14	29
2307.07	24
2308.01	26
2308.95	30
2309.89	29
2310.83	26
2311.76	32
2312.7	24
2313.64	27
2314.58	24
2315.51	26
2316.45	27
2317.39	26
2318.32	31
2319.26	25
2320.2	23
2321.13	22
2322.07	24
2323	25
2323.94	26
2324.88	24
2325.81	29
2326.75	24
2327.68	26
2328.62	28
2329.55	25
2330.49	27
2331.42	27
2332.36	25
2333.29	26
2334.22	27
2335.16	29
2336.09	28
2337.03	28
2337.96	26
2338.89	24
2339.83	26
2340.76	28
2341.69	27
2342.63	22
2343.56	26
2344.49	34
2345.43	20
2346.36	23
2347.29	31
2348.22	27
2349.15	24
2350.09	26
2351.02	20
2351.95	26
2352.88	26
2353.81	23
2354.74	22
2355.67	26
2356.61	27
2357.54	24
2358.47	24
2359.4	30
2360.33	29
2361.26	28
2362.19	28
2363.12	30
2364.05	28
2364.98	21
2365.91	26
2366.84	29
2367.77	28
2368.7	22
2369.62	26
2370.55	30
2371.48	25
2372.41	28
2373.34	27
2374.27	23
2375.2	22
2376.12	27
2377.05	26
2377.98	22
2378.91	31
2379.83	28
2380.76	28
2381.69	27
2382.62	28
2383.54	27
2384.47	22
2385.4	27
2386.32	32
2387.25	23
2388.18	24
2389.1	25
2390.03	24
2390.95	29
2391.88	27
2392.81	27
2393.73	26
2394.66	26
2395.58	27
2396.51	26
2397.43	27
2398.36	29
2399.28	28
2400.2	24
2401.13	29
2402.05	33
2402.98	28
2403.9	26
2404.83	28
2405.75	28
2406.67	23
2407.6	34
2408.52	26
2409.44	28
2410.37	25
2411.29	30
2412.21	27
2413.13	32
2414.06	20
2414.98	30
2415.9	28
2416.82	29
2417.74	24
2418.67	26
2419.59	22
2420.51	32
2421.43	20
2422.35	25
2423.27	32
2424.19	30
2425.11	25
2426.03	30
2426.96	27
2427.88	24
2428.8	24
2429.72	30
2430.64	26
2431.56	28
2432.48	26
2433.39	28
2434.31	28
2435.23	26
2436.15	26
2437.07	26
2437.99	33
2438.91	25
2439.83	28
2440.75	27
2441.67	28
2442.58	24
2443.5	27
2444.42	25
2445.34	29
2446.26	19
2447.17	34
2448.09	27
2449.01	26
2449.92	24
2450.84	24
2451.76	30
2452.68	28
2453.59	27
2454.51	22
2455.42	26
2456.34	23
2457.26	30
2458.17	26
2459.09	29
2460	28
2460.92	27
2461.83	22
2462.75	27
2463.66	19
2464.58	27
2465.49	26
2466.41	31
2467.32	26
2468.24	28
2469.15	29
2470.07	18
2470.98	32
2471.89	29
2472.81	24
2473.72	26
2474.64	22
2475.55	32
2476.46	22
2477.37	24
2478.29	28
2479.2	30
2480.11	23
2481.03	28
2481.94	26
2482.85	27
2483.76	29
2484.67	25
2485.59	32
2486.5	29
2487.41	28
2488.32	23
2489.23	27
2490.14	25
2491.05	22
2491.97	26
2492.88	26
2493.79	29
2494.7	30
2495.61	29
2496.52	22
2497.43	24
2498.34	29
2499.25	31
2500.16	22
2501.07	26
2501.98	22
2502.89	24
2503.79	31
2504.7	28
2505.61	28
2506.52	30
2507.43	28
2508.34	28
2509.25	24
2510.16	27
2511.06	24
2511.97	24
2512.88	25
2513.79	32
2514.69	28
2515.6	29
2516.51	28
2517.42	26
2518.32	24
2519.23	22
2520.14	26
2521.04	22
2521.95	29
2522.86	24
2523.76	24
2524.67	24
2525.57	26
2526.48	30
2527.39	30
2528.29	25
2529.2	28
2530.1	29
2531.01	32
2531.91	30
2532.82	28
2533.72	28
2534.63	30
2535.53	25
2536.44	28
2537.34	24
2538.24	28
2539.15	24
2540.05	28
2540.96	24
2541.86	30
2542.76	28
2543.67	24
2544.57	30
2545.47	26
2546.37	29
2547.28	30
2548.18	25
2549.08	28
2549.99	26
2550.89	22
2551.79	24
2552.69	27
2553.59	29
2554.49	29
2555.4	24
2556.3	28
2557.2	26
2558.1	27
2559	28
2559.9	25
2560.8	20
2561.7	31
2562.6	25
2563.5	22
2564.4	28
2565.3	28
2566.2	31
2567.1	31
2568	24
2568.9	26
2569.8	30
2570.7	29
2571.6	30
2572.5	24
2573.4	28
2574.3	28
2575.2	24
2576.1	28
2576.99	30
2577.89	28
2578.79	30
2579.69	26
2580.59	27
2581.48	26
2582.38	28
2583.28	29
2584.18	25
2585.07	30
2585.97	30
2586.87	30
2587.76	27
2588.66	32
2589.56	26
2590.45	26
2591.35	29
2592.25	28
2593.14	26
2594.04	30
2594.93	28
2595.83	27
2596.73	28
2597.62	26
2598.52	34
2599.41	24
2600.31	24
2601.2	27
2602.1	27
2602.99	26
2603.88	26
2604.78	24
2605.67	31
2606.57	24
2607.46	26
2608.35	26
2609.25	31
2610.14	30
2611.03	30
2611.93	26
2612.82	24
2613.71	28
2614.61	35
2615.5	29
2616.39	31
2617.29	29
2618.18	26
2619.07	29
2619.96	24
2620.85	28
2621.75	33
2622.64	30
2623.53	28
2624.42	30
2625.31	28
2626.2	28
2627.09	29
2627.98	25
2628.88	28
2629.77	32
2630.66	26
2631.55	27
2632.44	29
2633.33	27
2634.22	31
2635.11	28
2636	24
2636.89	26
2637.78	21
2638.66	30
2639.55	31
2640.44	34
2641.33	30
2642.22	28
2643.11	18
2644	25
2644.89	26
2645.78	26
2646.66	30
2647.55	28
2648.44	28
2649.33	28
2650.21	26
2651.1	31
2651.99	24
2652.88	26
2653.76	26
2654.65	31
2655.54	27
2656.42	29
2657.31	32
2658.2	26
2659.08	30
2659.97	26
2660.86	25
2661.74	26
2662.63	31
2663.51	21
2664.4	24
2665.29	28
2666.17	28
2667.06	24
2667.94	33
2668.83	24
2669.71	32
2670.6	27
2671.48	26
2672.36	27
2673.25	27
2674.13	29
2675.02	31
2675.9	30
2676.78	29
2677.67	24
2678.55	28
2679.43	24
2680.32	27
2681.2	30
2682.08	30
2682.97	26
2683.85	27
2684.73	27
2685.61	26
2686.5	26
2687.38	24
2688.26	27
2689.14	24
2690.03	28
2690.91	29
2691.79	27
2692.67	26
2693.55	31
2694.43	24
2695.31	30
2696.19	28
2697.08	28
2697.96	24
2698.84	26
2699.72	26
2700.6	30
2701.48	24
2702.36	28
2703.24	30
2704.12	26
2705	25
2705.88	24
2706.76	27
2707.64	30
2708.51	28
2709.39	28
2710.27	25
2711.15	28
2712.03	29
2712.91	22
2713.79	33
2714.67	26
2715.54	25
2716.42	27
2717.3	21
2718.18	30
2719.05	32
2719.93	28
2720.81	30
2721.69	28
2722.56	32
2723.44	26
2724.32	30
2725.19	27
2726.07	29
2726.95	24
2727.82	26
2728.7	28
2729.58	26
2730.45	31
2731.33	30
2732.2	26
2733.08	26
2733.95	32
2734.83	26
2735.7	30
2736.58	26
2737.45	31
2738.33	28
2739.2	30
2740.08	29
2740.95	28
2741.83	28
2742.7	24
2743.58	26
2744.45	29
2745.32	28
2746.2	29
2747.07	29
2747.94	24
2748.82	26
2749.69	29
2750.56	24
2751.44	28
2752.31	22
2753.18	27
2754.05	23
2754.93	25
2755.8	26
2756.67	29
2757.54	33
2758.42	28
2759.29	30
2760.16	28
2761.03	22
2761.9	28
2762.77	28
2763.64	27
2764.51	27
2765.38	26
2766.26	26
2767.13	32
2768	29
2768.87	20
2769.74	24
2770.61	28
2771.48	32
2772.35	28
2773.22	25
2774.09	31
2774.96	29
2775.83	26
2776.7	28
2777.56	28
2778.43	27
2779.3	30
2780.17	24
2781.04	26
2781.91	25
2782.78	28
2783.64	29
2784.51	25
2785.38	26
2786.25	24
2787.12	27
2787.98	31
2788.85	22
2789.72	26
2790.59	27
2791.45	26
2792.32	28
2793.19	30
2794.05	28
2794.92	31
2795.79	26
2796.65	30
2797.52	26
2798.38	27
2799.25	30
2800.12	27
2800.98	30
2801.85	25
2802.71	30
2803.58	29
2804.44	26
2805.31	26
2806.17	26
2807.04	28
2807.9	29
2808.77	26
2809.63	30
2810.5	28
2811.36	22
2812.22	28
2813.09	26
2813.95	26
2814.82	27
2815.68	28
2816.54	25
2817.41	30
2818.27	30
2819.13	28
2820	29
2820.86	32
2821.72	29
2822.58	30
2823.45	28
2824.31	24
2825.17	22
2826.03	31
2826.9	32
2827.76	28
2828.62	28
2829.48	27
2830.34	27
2831.2	30
2832.06	26
2832.92	29
2833.79	26
2834.65	22
2835.51	25
2836.37	33
2837.23	26
2838.09	30
2838.95	30
2839.81	30
2840.67	26
2841.53	30
2842.39	26
2843.25	29
2844.11	31
2844.97	27
2845.83	29
2846.68	22
2847.54	26
2848.4	28
2849.26	24
2850.12	26
2850.98	24
2851.84	26
2852.69	32
2853.55	30
2854.41	29
2855.27	25
2856.13	30
2856.98	29
2857.84	28
2858.7	32
2859.56	29
2860.41	26
2861.27	29
2862.13	27
2862.98	26
2863.84	27
2864.7	26
2865.55	22
2866.41	28
2867.27	26
2868.12	32
2868.98	34
2869.83	30
2870.69	28
2871.54	28
2872.4	33
2873.25	30
2874.11	22
2874.96	33
2875.82	30
2876.68	36
2877.53	33
2878.38	32
2879.24	26
2880.09	34
2880.95	31
2881.8	24
2882.65	31
2883.51	33
2884.36	36
2885.22	36
2886.07	34
2886.92	36
2887.77	32
2888.63	31
2889.48	40
2890.33	35
2891.19	38
2892.04	39
2892.89	39
2893.74	37
2894.6	43
2895.45	41
2896.3	49
2897.15	40
2898	45
2898.85	48
2899.71	53
2900.56	50
2901.41	57
2902.26	56
2903.11	56
2903.96	58
2904.81	65
2905.66	58
2906.51	60
2907.36	62
2908.21	63
2909.06	62
2909.91	61
2910.76	52
2911.61	52
2912.46	50
2913.31	50
2914.16	53
2915.01	50
2915.86	44
2916.71	44
2917.56	44
2918.41	36
2919.26	34
2920.1	38
2920.95	45
2921.8	36
2922.65	36
2923.5	28
2924.34	31
2925.19	34
2926.04	33
2926.89	33
2927.74	34
2928.58	26
2929.43	33
2930.28	27
2931.12	28
2931.97	28
2932.82	30
2933.66	32
2934.51	27
2935.36	26
2936.2	28
2937.05	24
2937.89	26
2938.74	26
2939.59	27
2940.43	30
2941.28	28
2942.12	32
2942.97	30
2943.81	30
2944.66	28
2945.5	30
2946.35	28
2947.19	35
2948.04	30
2948.88	30
2949.72	26
2950.57	34
2951.41	28
2952.26	31
2953.1	26
2953.94	26
2954.79	36
2955.63	29
2956.47	32
2957.32	38
2958.16	33
2959	36
2959.85	31
2960.69	38
2961.53	44
2962.37	40
2963.22	41
2964.06	35
2964.9	37
2965.74	37
2966.58	44
2967.42	48
2968.27	40
2969.11	40
2969.95	42
2970.79	37
2971.63	36
2972.47	30
2973.31	39
2974.15	37
2974.99	37
2975.83	38
2976.68	37
2977.52	36
2978.36	29
2979.2	32
2980.04	34
2980.88	22
2981.71	28
2982.55	27
2983.39	31
2984.23	30
2985.07	28
2985.91	24
2986.75	26
2987.59	25
2988.43	20
2989.27	28
2990.1	29
2990.94	26
2991.78	22
2992.62	28
2993.46	24
2994.3	28
2995.13	20
2995.97	30
2996.81	27
2997.64	26
2998.48	32
2999.32	30
