#Acq. time (s)=	3
#Accumulations=	3
#Range (cm-¹)=	100...3000
#Windows=	3
#Autofocus=	Off
#AutoExposure=	Off
#Spike filter=	Multiple accum.
#Delay time (s)=	0
#Binning=	1
#Readout mode=	Signal
#DeNoise=	Off
#ICS correction=	Off
#Dark correction=	Off
#Inst. Process=	Off
#Instrument=	LabRAM HR Evol
#Detector=	Syncerity OE
#Objective=	x100_VIS_LWD
#Grating=	600 (500nm)
#ND Filter=	25%
#Laser=	633nm_Edge
#Hole=	100.021
#Range=	Visible
#Project=	Bolus
#Sample=	A3
#Site=	stripside
#Title=	m10
#Remark=	
#Date=	03.11.2025 18:21
#Acquired=	03.11.2025 18:21:29
100.969	37
102.252	39
103.535	34
104.818	39
106.101	34
107.384	31
108.666	30
109.948	33
111.232	32
112.514	36
113.795	35
115.077	34
116.358	36
117.639	32
118.919	36
120.2	31
121.48	38
122.76	35
124.04	32
125.32	32
126.599	34
127.879	34
129.158	36
130.436	38
131.715	32
132.992	33
134.27	37
135.548	38
136.826	40
138.104	42
139.381	34
140.658	34
141.935	44
143.212	38
144.489	38
145.763	40
147.04	41
148.315	40
149.591	36
150.867	38
152.142	43
153.416	41
154.691	42
155.965	42
157.24	42
158.514	42
159.786	38
161.06	39
162.334	39
163.607	39
164.881	38
166.152	40
167.425	42
168.698	38
169.969	43
171.241	36
172.513	40
173.785	40
175.055	36
176.326	40
177.597	40
178.867	46
180.137	43
181.408	42
182.677	40
183.947	45
185.217	40
186.485	44
187.755	41
189.022	36
190.291	42
191.56	43
192.828	43
194.096	42
195.363	44
196.631	40
197.899	44
199.165	38
200.432	37
201.698	45
202.965	47
204.23	30
205.497	45
206.762	38
208.028	40
209.293	42
210.559	38
211.823	37
213.088	28
214.352	37
215.617	40
216.88	32
218.145	40
219.408	32
220.672	41
221.934	39
223.196	38
224.46	33
225.722	33
226.985	39
228.246	38
229.508	28
230.77	38
232.031	32
233.292	40
234.554	31
235.814	33
237.074	37
238.335	35
239.595	33
240.854	33
242.115	32
243.374	28
244.633	38
245.893	35
247.151	33
248.409	32
249.667	36
250.927	32
252.184	32
253.442	31
254.699	34
255.957	35
257.214	34
258.47	32
259.727	34
260.983	34
262.24	31
263.496	26
264.752	32
266.007	36
267.262	38
268.517	32
269.773	32
271.028	38
272.282	30
273.536	32
274.79	32
276.044	28
277.297	31
278.551	34
279.804	34
281.057	36
282.31	32
283.564	34
284.816	28
286.068	34
287.32	30
288.572	30
289.823	33
291.074	34
292.325	36
293.576	36
294.827	36
296.077	30
297.328	34
298.578	32
299.828	29
301.077	24
302.325	36
303.575	33
304.824	35
306.073	33
307.321	34
308.57	32
309.818	29
311.066	28
312.314	31
313.562	36
314.808	33
316.055	35
317.302	30
318.549	36
319.796	34
321.042	34
322.288	32
323.533	34
324.779	35
326.024	32
327.27	35
328.515	20
329.759	31
331.004	32
332.248	36
333.493	28
334.736	30
335.98	36
337.223	28
338.466	33
339.709	33
340.952	33
342.195	33
343.437	37
344.68	30
345.922	33
347.163	33
348.405	34
349.647	36
350.887	36
352.128	35
353.37	34
354.609	32
355.85	32
357.089	37
358.33	30
359.57	34
360.809	34
362.049	32
363.287	28
364.526	34
365.764	22
367.003	30
368.241	32
369.479	36
370.718	30
371.955	36
373.193	31
374.429	32
375.667	36
376.903	30
378.139	22
379.376	37
380.611	24
381.848	32
383.083	30
384.319	36
385.554	34
386.79	30
388.024	32
389.258	34
390.493	38
391.727	30
392.962	34
394.195	35
395.428	35
396.663	35
397.895	34
399.128	32
400.361	31
401.593	34
402.825	28
404.058	30
405.29	30
406.521	32
407.752	32
408.985	33
410.215	33
411.446	34
412.678	30
413.908	35
415.138	30
416.367	35
417.597	34
418.828	32
420.057	32
421.286	35
422.514	35
423.743	31
424.973	30
426.201	33
427.429	32
428.657	34
429.884	32
431.112	35
432.34	32
433.567	32
434.794	39
436.02	36
437.247	33
438.473	30
439.699	29
440.925	26
442.15	33
443.376	28
444.601	30
445.826	30
447.051	36
448.275	28
449.5	30
450.724	42
451.948	38
453.172	34
454.396	30
455.619	34
456.842	32
458.065	42
459.288	32
460.511	31
461.733	32
462.956	36
464.178	35
465.4	32
466.621	36
467.843	34
469.064	38
470.285	35
471.505	40
472.726	39
473.946	38
475.166	40
476.387	41
477.606	36
478.825	43
480.044	46
481.264	43
482.483	46
483.702	50
484.921	52
486.138	52
487.356	58
488.574	52
489.792	59
491.009	63
492.226	59
493.444	59
494.661	53
495.877	50
497.094	46
498.31	49
499.525	45
500.741	49
501.958	46
503.172	46
504.388	46
505.603	43
506.817	44
508.032	44
509.247	41
510.46	40
511.675	38
512.888	35
514.102	39
515.316	40
516.528	35
517.742	38
518.954	38
520.167	39
521.378	32
522.591	36
523.802	28
525.015	36
526.226	38
527.438	32
528.648	36
529.86	31
531.07	30
532.281	37
533.491	38
534.702	35
535.911	36
537.121	40
538.33	34
539.54	32
540.749	30
541.957	28
543.167	35
544.375	36
545.584	30
546.791	35
547.999	35
549.207	33
550.414	34
551.621	24
552.829	36
554.035	36
555.241	32
556.449	36
557.655	35
558.86	32
560.066	34
561.272	34
562.477	34
563.682	34
564.888	32
566.093	34
567.297	30
568.501	28
569.705	34
570.91	36
572.114	35
573.317	38
574.52	34
575.723	35
576.927	38
578.13	28
579.332	31
580.535	32
581.737	26
582.938	31
584.14	28
585.343	32
586.544	34
587.745	33
588.946	38
590.147	32
591.347	36
592.548	36
593.748	32
594.948	30
596.147	33
597.347	35
598.546	35
599.745	34
600.944	32
602.143	30
603.342	32
604.54	35
605.738	33
606.937	31
608.134	32
609.332	37
610.529	34
611.727	29
612.924	35
614.121	32
615.317	34
616.513	33
617.709	37
618.905	33
620.101	38
621.297	34
622.492	32
623.688	33
624.883	36
626.077	28
627.271	30
628.466	39
629.66	37
630.855	30
632.047	38
633.241	33
634.435	32
635.629	30
636.82	34
638.014	34
639.207	30
640.399	34
641.59	32
642.783	32
643.975	32
645.166	34
646.357	37
647.549	37
648.741	32
649.93	32
651.122	32
652.311	36
653.502	29
654.692	31
655.881	32
657.071	36
658.261	30
659.45	32
660.639	31
661.827	31
663.016	30
664.204	34
665.393	32
666.581	38
667.769	29
668.957	34
670.143	28
671.331	36
672.518	32
673.705	37
674.891	38
676.078	38
677.264	29
678.451	34
679.636	38
680.821	44
682.007	41
683.192	36
684.378	45
685.562	34
686.747	37
687.931	40
689.115	34
690.3	39
691.483	38
692.666	36
693.851	38
695.034	40
696.216	36
697.4	42
698.582	42
699.764	38
700.948	36
702.129	39
703.311	42
704.493	40
705.674	46
706.855	46
708.036	50
709.218	52
710.399	51
711.579	48
712.759	46
713.939	44
715.12	43
716.299	41
717.478	39
718.657	34
719.836	42
721.015	36
722.195	34
723.373	32
724.552	34
725.729	35
726.907	33
728.085	28
729.262	39
730.44	34
731.617	32
732.795	36
733.972	35
735.148	34
736.324	33
737.501	35
738.677	35
739.852	32
741.028	35
742.203	35
743.379	34
744.554	36
745.729	33
746.903	30
748.078	33
749.252	32
750.426	32
751.599	31
752.772	31
753.946	30
755.119	37
756.293	32
757.466	34
758.639	36
759.811	34
760.984	31
762.155	35
763.327	38
764.499	32
765.67	32
766.842	33
768.013	30
769.183	32
770.354	36
771.525	33
772.696	34
773.865	33
775.035	30
776.205	31
777.375	36
778.544	32
779.713	30
780.882	31
782.052	34
783.219	33
784.388	33
785.557	37
786.724	37
787.892	36
789.06	36
790.227	33
791.395	36
792.562	35
793.728	38
794.895	36
796.061	30
797.228	37
798.395	33
799.56	32
800.726	28
801.891	34
803.057	31
804.221	32
805.387	33
806.551	34
807.716	31
808.879	32
810.044	34
811.208	35
812.372	34
813.535	35
814.699	34
815.862	31
817.025	30
818.188	33
819.351	35
820.513	32
821.675	32
822.837	34
823.999	33
825.161	34
826.322	35
827.483	32
828.645	29
829.805	30
830.966	34
832.127	32
833.287	32
834.447	38
835.607	36
836.767	35
837.926	36
839.085	31
840.245	24
841.404	34
842.562	28
843.72	36
844.88	34
846.038	35
847.195	32
848.353	32
849.512	37
850.669	28
851.826	31
852.983	36
854.139	32
855.296	34
856.453	33
857.609	26
858.765	32
859.921	35
861.077	36
862.232	33
863.387	39
864.542	35
865.697	32
866.852	33
868.008	33
869.162	33
870.316	31
871.47	33
872.624	32
873.778	30
874.931	37
876.084	30
877.237	36
878.39	33
879.543	30
880.695	37
881.846	34
882.999	29
884.151	32
885.302	34
886.454	34
887.606	30
888.757	29
889.908	29
891.059	33
892.21	35
893.359	30
894.509	32
895.659	28
896.81	30
897.959	28
899.109	31
900.257	33
901.407	28
902.556	28
903.705	26
904.854	38
906.001	30
907.149	26
908.298	26
909.446	36
910.592	36
911.74	35
912.888	33
914.034	33
915.181	29
916.328	34
917.473	30
918.62	33
919.766	30
920.911	35
922.058	31
923.204	28
924.348	34
925.494	26
926.638	34
927.783	36
928.928	31
930.072	24
931.216	29
932.36	35
933.504	33
934.647	35
935.791	31
936.933	30
938.077	30
939.219	33
940.363	34
941.504	36
942.647	31
943.789	32
944.932	31
946.073	31
947.215	30
948.356	28
949.498	28
950.638	32
951.778	28
952.92	31
954.06	31
955.199	33
956.34	29
957.479	32
958.62	31
959.759	31
960.898	29
962.038	27
963.176	40
964.315	29
965.453	31
966.592	28
967.73	33
968.867	28
970.006	30
971.144	32
972.281	33
973.418	30
974.554	33
975.692	30
976.829	31
977.965	30
979.101	31
980.237	27
981.374	31
982.509	36
983.645	32
984.78	36
985.915	32
987.05	30
988.184	31
989.319	33
990.453	31
991.589	31
992.722	29
993.856	30
994.99	37
996.123	34
997.257	28
998.39	22
999.523	30
1000.66	31
1001.79	26
1002.92	34
1004.05	28
1005.18	32
1006.32	33
1007.45	32
1008.58	30
1009.71	33
1010.84	28
1011.97	31
1013.1	32
1014.23	34
1015.36	30
1016.49	29
1017.62	30
1018.75	33
1019.88	28
1021.01	32
1022.14	34
1023.27	31
1024.4	26
1025.53	34
1026.66	29
1027.79	29
1028.91	34
1030.04	32
1031.17	30
1032.3	32
1033.42	33
1034.55	30
1035.68	28
1036.81	28
1037.93	28
1039.06	33
1040.18	26
1041.31	32
1042.44	33
1043.56	36
1044.69	36
1045.81	31
1046.94	34
1048.06	32
1049.19	30
1050.31	26
1051.44	32
1052.56	33
1053.69	31
1054.81	28
1055.93	30
1057.06	28
1058.18	26
1059.3	30
1060.43	29
1061.55	33
1062.67	30
1063.79	30
1064.92	35
1066.04	27
1067.16	32
1068.28	33
1069.4	32
1070.52	29
1071.65	31
1072.77	34
1073.89	30
1075.01	28
1076.13	29
1077.25	33
1078.37	32
1079.49	32
1080.61	29
1081.73	33
1082.85	32
1083.97	32
1085.09	33
1086.2	32
1087.32	32
1088.44	29
1089.56	24
1090.68	32
1091.8	29
1092.91	29
1094.03	28
1095.15	31
1096.26	28
1097.38	26
1098.5	34
1099.61	35
1100.73	32
1101.85	30
1102.96	30
1104.08	34
1105.19	30
1106.31	30
1107.43	28
1108.54	30
1109.66	34
1110.77	30
1111.88	31
1113	32
1114.11	30
1115.23	32
1116.34	26
1117.46	31
1118.57	28
1119.68	28
1120.8	29
1121.91	35
1123.02	32
1124.13	29
1125.25	32
1126.36	29
1127.47	30
1128.58	29
1129.69	32
1130.8	30
1131.92	30
1133.03	28
1134.14	27
1135.25	30
1136.36	30
1137.47	25
1138.58	32
1139.69	30
1140.8	29
1141.91	30
1143.02	28
1144.13	28
1145.24	34
1146.35	32
1147.46	34
1148.56	30
1149.67	32
1150.78	29
1151.89	30
1153	31
1154.1	30
1155.21	34
1156.32	33
1157.43	32
1158.53	29
1159.64	29
1160.75	24
1161.85	33
1162.96	29
1164.07	28
1165.17	32
1166.28	35
1167.38	31
1168.49	28
1169.59	30
1170.7	31
1171.8	26
1172.91	26
1174.01	28
1175.12	35
1176.22	31
1177.32	31
1178.43	27
1179.53	28
1180.64	24
1181.74	30
1182.84	22
1183.94	33
1185.05	34
1186.15	32
1187.25	31
1188.35	28
1189.46	31
1190.56	30
1191.66	33
1192.76	33
1193.86	30
1194.96	24
1196.06	27.0098
1197.16	27.9732
1198.26	26.0058
1199.37	29.9885
1200.47	29.9713
1201.57	33.6765
1202.67	27.1672
1203.77	33.6612
1204.86	24.2448
1205.96	32.2499
1207.06	25.1119
1208.16	31.4324
1209.26	29.5098
1210.36	29.6722
1211.46	33.5752
1212.56	26.2309
1213.65	27.5079
1214.75	25.5147
1215.85	27.2692
1216.95	28.6494
1218.04	28.4436
1219.14	28.958
1220.24	29.022
1221.33	26.9316
1222.43	27.6945
1223.53	29.8874
1224.62	30.4804
1225.72	28.1508
1226.82	33.0441
1227.91	28.9228
1229.01	32.7943
1230.1	29.2038
1231.2	29.6281
1232.29	29.73
1233.39	29.0486
1234.48	27.6305
1235.58	32.2158
1236.67	30.7908
1237.77	29.2451
1238.86	32.1212
1239.95	31.155
1241.05	24.9115
1242.14	29.1094
1243.23	27.845
1244.33	28.8474
1245.42	30.2157
1246.51	29.724
1247.61	29.9704
1248.7	24.6295
1249.79	27
1250.88	29.1907
1251.97	26.2834
1253.07	30.7181
1254.16	30.1532
1255.25	28.91
1256.34	24.9118
1257.43	28.4005
1258.52	29.103
1259.61	29.9666
1260.7	31.9985
1261.79	29.848
1262.88	29.65
1263.97	29.6722
1265.06	30.7549
1266.15	30.8615
1267.24	31.9561
1268.33	31.2048
1269.42	26.6471
1270.51	27.8296
1271.6	30.5201
1272.68	28.7441
1273.77	27.3546
1274.86	27.4466
1275.95	28.7143
1277.04	28.0363
1278.12	29.653
1279.21	30.1926
1280.3	27.2484
1281.39	32.5259
1282.47	31.5022
1283.56	32.0667
1284.65	31.0598
1285.73	29.7734
1286.82	27.4108
1287.91	29.3267
1288.99	26.2032
1290.08	26.8727
1291.16	25.2947
1292.25	31.5856
1293.33	32.5471
1294.42	27.4563
1295.5	28.3423
1296.59	29.9421
1297.67	24.7065
1298.76	29.1783
1299.84	29.2158
1300.92	26.3017
1302.01	27.9118
1303.09	28.2806
1304.17	29.6798
1305.26	26.0294
1306.34	26.329
1307.34	30
1308.43	32
1309.52	26
1310.61	31
1311.7	30
1312.78	26
1313.87	32
1314.96	30
1316.04	28
1317.13	30
1318.22	29
1319.3	26
1320.39	24
1321.48	24
1322.56	28
1323.65	34
1324.73	29
1325.82	25
1326.9	25
1327.99	26
1329.07	31
1330.16	24
1331.24	26
1332.33	24
1333.41	30
1334.5	29
1335.58	28
1336.66	34
1337.75	32
1338.83	32
1339.91	24
1341	32
1342.08	30
1343.16	28
1344.24	30
1345.33	32
1346.41	23
1347.49	26
1348.57	28
1349.65	30
1350.74	30
1351.82	26
1352.9	25
1353.98	32
1355.06	30
1356.14	31
1357.22	30
1358.3	32
1359.38	28
1360.46	26
1361.54	30
1362.62	30
1363.7	25
1364.78	28
1365.86	26
1366.94	28
1368.02	28
1369.09	28
1370.17	35
1371.25	27
1372.33	28
1373.41	29
1374.48	31
1375.56	26
1376.64	26
1377.72	29
1378.79	31
1379.87	30
1380.95	32
1382.02	30
1383.1	34
1384.17	30
1385.25	30
1386.33	33
1387.4	30
1388.48	31
1389.55	28
1390.63	32
1391.7	28
1392.78	29
1393.85	31
1394.93	30
1396	31
1397.07	32
1398.15	33
1399.22	34
1400.3	28
1401.37	27
1402.44	28
1403.52	33
1404.59	34
1405.66	29
1406.73	32
1407.81	32
1408.88	32
1409.95	30
1411.02	32
1412.09	34
1413.17	29
1414.24	28
1415.31	35
1416.38	37
1417.45	35
1418.52	30
1419.59	32
1420.66	34
1421.73	34
1422.8	34
1423.87	28
1424.94	28
1426.01	28
1427.08	29
1428.15	30
1429.22	24
1430.29	36
1431.35	33
1432.42	30
1433.49	28
1434.56	22
1435.63	26
1436.69	31
1437.76	30
1438.83	34
1439.9	29
1440.96	34
1442.03	29
1443.1	28
1444.17	28
1445.23	28
1446.3	30
1447.36	33
1448.43	28
1449.49	27
1450.56	32
1451.63	28
1452.69	28
1453.76	30
1454.82	28
1455.89	31
1456.95	28
1458.01	34
1459.08	29
1460.14	35
1461.21	28
1462.27	29
1463.34	32
1464.4	34
1465.46	26
1466.52	30
1467.59	31
1468.65	27
1469.71	38
1470.77	22
1471.84	28
1472.9	27
1473.96	26
1475.02	30
1476.08	29
1477.15	26
1478.21	29
1479.27	26
1480.33	26
1481.39	32
1482.45	32
1483.51	30
1484.57	22
1485.63	32
1486.69	28
1487.75	28
1488.81	27
1489.87	28
1490.93	29
1491.99	32
1493.05	33
1494.1	22
1495.16	32
1496.22	28
1497.28	24
1498.34	26
1499.4	31
1500.45	31
1501.51	29
1502.57	30
1503.63	28
1504.68	26
1505.74	34
1506.8	25
1507.85	30
1508.91	27
1509.97	32
1511.02	28
1512.08	26
1513.13	29
1514.19	29
1515.24	28
1516.3	27
1517.35	29
1518.41	29
1519.46	26
1520.52	24
1521.57	32
1522.63	31
1523.68	30
1524.73	30
1525.79	30
1526.84	34
1527.9	26
1528.95	28
1530	30
1531.05	30
1532.11	28
1533.16	26
1534.21	31
1535.26	31
1536.32	25
1537.37	30
1538.42	30
1539.47	28
1540.52	33
1541.57	33
1542.63	30
1543.68	34
1544.73	29
1545.78	27
1546.83	33
1547.88	30
1548.93	30
1549.98	26
1551.03	34
1552.08	26
1553.13	29
1554.18	30
1555.23	28
1556.27	28
1557.32	28
1558.37	30
1559.42	26
1560.47	32
1561.52	26
1562.56	28
1563.61	26
1564.66	26
1565.71	30
1566.75	35
1567.8	32
1568.85	24
1569.9	33
1570.94	29
1571.99	29
1573.03	28
1574.08	30
1575.13	32
1576.17	25
1577.22	30
1578.26	28
1579.31	30
1580.35	24
1581.4	31
1582.44	29
1583.49	28
1584.53	24
1585.58	33
1586.62	26
1587.66	30
1588.71	30
1589.75	30
1590.8	32
1591.84	30
1592.88	30
1593.92	28
1594.97	24
1596.01	22
1597.05	29
1598.1	33
1599.14	36
1600.18	27
1601.22	29
1602.26	32
1603.3	24
1604.35	22
1605.39	29
1606.43	29
1607.47	28
1608.51	26
1609.55	27
1610.59	27
1611.63	28
1612.67	28
1613.71	32
1614.75	31
1615.79	27
1616.83	29
1617.87	26
1618.91	32
1619.95	31
1620.99	29
1622.02	31
1623.06	26
1624.1	32
1625.14	31
1626.18	30
1627.21	33
1628.25	30
1629.29	27
1630.33	28
1631.36	30
1632.4	29
1633.44	30
1634.48	26
1635.51	28
1636.55	30
1637.58	28
1638.62	28
1639.66	28
1640.69	33
1641.73	32
1642.76	30
1643.8	28
1644.83	26
1645.87	26
1646.9	26
1647.94	32
1648.97	34
1650	27
1651.04	30
1652.07	33
1653.11	26
1654.14	33
1655.17	30
1656.21	28
1657.24	30
1658.27	32
1659.31	29
1660.34	32
1661.37	26
1662.4	28
1663.43	26
1664.47	30
1665.5	30
1666.53	26
1667.56	28
1668.59	32
1669.62	27
1670.66	26
1671.69	29
1672.72	26
1673.75	30
1674.78	30
1675.81	30
1676.84	28
1677.87	28
1678.9	29
1679.93	27
1680.96	30
1681.98	28
1683.01	33
1684.04	35
1685.07	30
1686.1	32
1687.13	26
1688.16	27
1689.18	30
1690.21	34
1691.24	28
1692.27	34
1693.3	28
1694.32	28
1695.35	34
1696.38	32
1697.4	31
1698.43	26
1699.46	28
1700.48	26
1701.51	30
1702.54	29
1703.56	29
1704.59	28
1705.61	32
1706.64	28
1707.66	32
1708.69	24
1709.71	31
1710.74	30
1711.76	27
1712.79	32
1713.81	28
1714.83	29
1715.86	28
1716.88	28
1717.91	26
1718.93	27
1719.95	30
1720.98	30
1722	28
1723.02	32
1724.04	28
1725.07	31
1726.09	26
1727.11	32
1728.13	28
1729.15	30
1730.18	30
1731.2	27
1732.22	25
1733.24	26
1734.26	28
1735.28	29
1736.3	28
1737.32	30
1738.34	30
1739.36	29
1740.38	26
1741.4	28
1742.42	29
1743.44	36
1744.46	32
1745.48	24
1746.5	26
1747.52	26
1748.54	32
1749.56	28
1750.58	25
1751.6	33
1752.61	31
1753.63	29
1754.65	30
1755.67	29
1756.68	34
1757.7	30
1758.72	30
1759.74	36
1760.75	32
1761.77	26
1762.79	30
1763.8	29
1764.82	31
1765.83	32
1766.85	30
1767.87	29
1768.88	29
1769.9	27
1770.91	30
1771.93	32
1772.94	32
1773.96	26
1774.97	28
1775.99	30
1777	29
1778.02	34
1779.03	30
1780.04	22
1781.06	31
1782.07	28
1783.09	32
1784.1	30
1785.11	24
1786.13	26
1787.14	27
1788.15	24
1789.16	27
1790.18	23
1791.19	27
1792.2	28
1793.21	24
1794.22	31
1795.23	32
1796.25	28
1797.26	29
1798.27	31
1799.28	28
1800.29	30
1801.3	28
1802.31	31
1803.32	27
1804.33	28
1805.34	24
1806.35	30
1807.36	28
1808.37	28
1809.38	28
1810.39	32
1811.4	26
1812.41	30
1813.42	30
1814.42	35
1815.43	28
1816.44	30
1817.45	22
1818.46	34
1819.47	30
1820.47	28
1821.48	24
1822.49	26
1823.49	29
1824.5	30
1825.51	24
1826.52	28
1827.52	31
1828.53	29
1829.53	24
1830.54	28
1831.55	18
1832.55	33
1833.56	28
1834.56	28
1835.57	29
1836.57	27
1837.58	26
1838.58	32
1839.59	27
1840.59	25
1841.6	28
1842.6	27
1843.61	32
1844.61	31
1845.61	29
1846.62	28
1847.62	28
1848.62	27
1849.63	27
1850.63	24
1851.63	30
1852.64	32
1853.64	34
1854.64	24
1855.64	26
1856.64	30
1857.65	28
1858.65	26
1859.65	26
1860.65	26
1861.65	28
1862.65	30
1863.65	26
1864.66	30
1865.66	27
1866.66	28
1867.66	25
1868.66	31
1869.66	24
1870.66	28
1871.66	35
1872.66	31
1873.66	30
1874.66	28
1875.65	26
1876.65	26
1877.65	28
1878.65	28
1879.65	24
1880.65	23
1881.65	28
1882.64	34
1883.64	28
1884.64	27
1885.64	32
1886.63	31
1887.63	26
1888.63	34
1889.63	29
1890.62	28
1891.62	25
1892.62	18
1893.61	28
1894.61	31
1895.6	31
1896.6	31
1897.6	26
1898.59	27
1899.59	28
1900.58	25
1901.58	28
1902.57	30
1903.57	32
1904.56	26
1905.56	25
1906.55	24
1907.54	28
1908.54	29
1909.53	32
1910.53	28
1911.52	27
1912.51	32
1913.51	26
1914.5	28
1915.49	30
1916.49	27
1917.48	29
1918.47	29
1919.46	28
1920.46	26
1921.45	30
1922.44	26
1923.43	32
1924.42	28
1925.41	34
1926.41	30
1927.4	29
1928.39	24
1929.38	30
1930.37	30
1931.36	26
1932.35	28
1933.34	30
1934.33	30
1935.32	25
1936.31	30
1937.3	26
1938.29	26
1939.28	23
1940.27	28
1941.26	25
1942.24	24
1943.23	33
1944.22	28
1945.21	22
1946.2	24
1947.19	25
1948.17	28
1949.16	22
1950.15	26.5
1951.14	28
1952.12	30
1953.11	31
1954.1	27
1955.09	20
1956.07	26
1957.06	30
1958.05	32
1959.03	24
1960.02	29
1961	26
1961.99	30
1962.98	31
1963.96	31
1964.95	30
1965.93	24
1966.92	29
1967.9	32
1968.89	28
1969.87	28
1970.85	31
1971.84	29
1972.82	27
1973.81	26
1974.79	28
1975.78	32
1976.76	28
1977.74	26
1978.73	30
1979.71	26
1980.69	30
1981.67	25
1982.66	26
1983.64	28
1984.62	24
1985.6	29
1986.59	26
1987.57	20
1988.55	27
1989.53	24
1990.51	32
1991.49	32
1992.47	32
1993.45	31
1994.44	22
1995.42	30
1996.4	24
1997.38	26
1998.36	28
1999.34	32
2000.32	27
2001.3	23
2002.28	20
2003.26	32
2004.24	28
2005.22	32
2006.19	28
2007.17	26
2008.15	26
2009.13	29
2010.11	26
2011.09	32
2012.06	26
2013.04	28
2014.02	27
2015	29
2015.98	28
2016.95	29
2017.93	27
2018.91	26
2019.88	30
2020.86	30
2021.84	28
2022.81	27
2023.79	31
2024.77	26
2025.74	34
2026.72	29
2027.69	31
2028.67	28
2029.65	25
2030.62	28
2031.6	24
2032.57	31
2033.55	25
2034.52	30
2035.5	26
2036.47	27
2037.44	29
2038.42	30
2039.39	32
2040.36	30
2041.34	28
2042.31	26
2043.29	29
2044.26	30
2045.23	28
2046.2	24
2047.18	31
2048.15	26
2049.12	30
2050.09	20
2051.07	29
2052.04	31
2053.01	24
2053.98	24
2054.95	24
2055.93	28
2056.9	26
2057.87	24
2058.84	26
2059.81	28
2060.78	31
2061.75	28
2062.72	31
2063.69	22
2064.66	29
2065.63	28
2066.6	26
2067.57	29
2068.54	32
2069.51	32
2070.48	27
2071.45	29
2072.42	25
2073.38	27
2074.35	24
2075.32	29
2076.29	28
2077.26	29
2078.23	27
2079.19	30
2080.16	25
2081.13	28
2082.1	22
2083.06	28
2084.03	26
2085	27
2085.96	30
2086.93	22
2087.9	29
2088.86	28
2089.83	29
2090.8	23
2091.76	28
2092.73	28
2093.69	27
2094.66	22
2095.62	24
2096.59	27
2097.55	28
2098.52	26
2099.48	24
2100.45	26
2101.41	26
2102.38	34
2103.34	30
2104.31	18
2105.27	24
2106.23	24
2107.2	28
2108.16	26
2109.12	22
2110.09	25
2111.05	22
2112.01	28
2112.98	30
2113.94	23
2114.9	26
2115.86	26
2116.82	28
2117.79	28
2118.75	31
2119.71	25
2120.67	26
2121.63	27
2122.59	26
2123.55	28
2124.52	28
2125.48	29
2126.44	20
2127.4	24
2128.36	24
2129.32	27
2130.28	24
2131.24	29
2132.2	27
2133.16	25
2134.12	26
2135.08	26
2136.04	25
2136.99	32
2137.95	26
2138.91	26
2139.87	26
2140.83	25
2141.79	22
2142.75	34
2143.7	20
2144.66	34
2145.62	29.982
2146.58	23.9492
2147.53	27.951
2148.49	29.8683
2149.45	26.0679
2150.41	32.4451
2151.36	23.5567
2152.32	24.2764
2153.27	22.1481
2154.23	25.4702
2155.19	25.981
2156.14	23.7979
2157.1	28.7684
2158.06	25.6577
2159.01	26.408
2159.97	24.8351
2160.92	27.5566
2161.88	22.5129
2162.83	27.2767
2163.79	21.1471
2164.74	25.401
2165.7	29.1589
2166.65	24.8761
2167.61	27.6819
2168.56	24.3843
2169.51	31.4186
2170.47	27.2652
2171.42	23.0676
2172.38	26.3738
2173.33	27.9137
2174.28	29.8202
2175.24	28.4931
2176.19	27.342
2177.14	25.389
2178.09	25.9496
2179.05	25.0387
2180	25.582
2180.95	25.036
2181.9	24.9524
2182.86	29.5656
2183.81	27.2895
2184.76	25.4069
2185.71	26.1233
2186.66	27.0367
2187.61	23.1095
2188.57	25.7696
2189.52	26.6585
2190.47	25.0686
2191.42	23.7131
2192.37	21.7942
2193.32	25.5147
2194.27	28.4466
2195.22	25.0865
2196.17	24.4755
2197.12	23.0686
2198.07	25.3567
2199.02	29.4907
2199.97	25.3249
2200.92	28.1201
2201.87	30.25
2202.82	26.3706
2203.76	24.8961
2204.71	26.216
2205.66	26.8286
2206.61	25.4811
2207.56	27.0333
2208.51	25.0979
2209.45	25.3218
2210.4	27.8371
2211.35	26.1413
2212.3	26.9746
2213.24	25.5575
2214.19	26.0974
2215.14	25.7206
2216.09	26.5653
2217.03	27.4343
2217.98	27.4349
2218.93	25.1394
2219.87	26.0756
2220.82	23.7569
2221.77	23.5985
2222.71	27.2426
2223.66	29.2631
2224.6	25.6761
2225.55	25.8324
2226.49	28
2227.44	22.7239
2228.38	24.1716
2229.33	25.5828
2230.27	25.0537
2231.22	26.6935
2232.16	26.3312
2233.11	24.6673
2234.05	25.2086
2235	25.4299
2235.94	23.9189
2236.88	25.6165
2237.83	27
2238.77	27.6087
2239.71	27.9755
2240.66	24.0267
2241.6	22.7247
2242	24
2242.95	25
2243.9	24
2244.84	28
2245.79	25
2246.74	29
2247.69	24
2248.63	32
2249.58	32
2250.53	24
2251.47	26
2252.42	24
2253.37	29
2254.31	22
2255.26	31
2256.2	26
2257.15	28
2258.1	22
2259.04	27
2259.99	24
2260.93	32
2261.88	16
2262.82	26
2263.77	24
2264.71	24
2265.65	27
2266.6	24
2267.54	32
2268.49	24
2269.43	28
2270.38	32
2271.32	33
2272.26	26
2273.21	24
2274.15	27
2275.09	26
2276.04	30
2276.98	28
2277.92	21
2278.86	22
2279.81	22
2280.75	27
2281.69	32
2282.63	22
2283.57	32
2284.52	28
2285.46	22
2286.4	27
2287.34	26
2288.28	22
2289.22	26
2290.16	29
2291.1	20
2292.04	30
2292.98	25
2293.93	25
2294.86	26
2295.8	28
2296.74	28
2297.69	24
2298.62	29
2299.56	28
2300.5	25
2301.44	24
2302.38	26
2303.32	30
2304.26	23
2305.2	26
2306.14	24
2307.07	30
2308.01	27
2308.95	26
2309.89	22
2310.83	22
2311.76	27
2312.7	32
2313.64	26
2314.58	22
2315.51	21
2316.45	19
2317.39	27
2318.32	26
2319.26	28
2320.2	22
2321.13	25
2322.07	22
2323	23
2323.94	28
2324.88	28
2325.81	28
2326.75	23
2327.68	28
2328.62	24
2329.55	26
2330.49	24
2331.42	22
2332.36	30
2333.29	24
2334.22	24
2335.16	29
2336.09	27
2337.03	26
2337.96	28
2338.89	29
2339.83	24
2340.76	25
2341.69	26
2342.63	26
2343.56	22
2344.49	27
2345.43	24
2346.36	28
2347.29	27
2348.22	26
2349.15	28
2350.09	27
2351.02	26
2351.95	24
2352.88	32
2353.81	27
2354.74	27
2355.67	24
2356.61	24
2357.54	26
2358.47	27
2359.4	29
2360.33	24
2361.26	32
2362.19	29
2363.12	28
2364.05	27
2364.98	24
2365.91	24
2366.84	28
2367.77	30
2368.7	22
2369.62	26
2370.55	27
2371.48	27
2372.41	23
2373.34	28
2374.27	24
2375.2	20
2376.12	26
2377.05	28
2377.98	24
2378.91	24
2379.83	31
2380.76	30
2381.69	24
2382.62	33
2383.54	26
2384.47	26
2385.4	32
2386.32	24
2387.25	24
2388.18	27
2389.1	23
2390.03	25
2390.95	28
2391.88	29
2392.81	28
2393.73	25
2394.66	30
2395.58	28
2396.51	23
2397.43	29
2398.36	26
2399.28	26
2400.2	31
2401.13	28
2402.05	30
2402.98	27
2403.9	24
2404.83	31
2405.75	26
2406.67	31
2407.6	26
2408.52	30
2409.44	27
2410.37	21
2411.29	25
2412.21	24
2413.13	29
2414.06	28
2414.98	26
2415.9	25
2416.82	27
2417.74	23
2418.67	29
2419.59	24
2420.51	28
2421.43	26
2422.35	29
2423.27	24
2424.19	26
2425.11	26
2426.03	30
2426.96	26
2427.88	28
2428.8	28
2429.72	30
2430.64	30
2431.56	33
2432.48	26
2433.39	29
2434.31	26
2435.23	28
2436.15	32
2437.07	21
2437.99	23
2438.91	22
2439.83	35
2440.75	30
2441.67	25
2442.58	30
2443.5	26
2444.42	23
2445.34	28
2446.26	28
2447.17	32
2448.09	24
2449.01	28
2449.92	32
2450.84	27
2451.76	25
2452.68	30
2453.59	26
2454.51	23
2455.42	29
2456.34	25
2457.26	28
2458.17	26
2459.09	22
2460	32
2460.92	28
2461.83	28
2462.75	28
2463.66	27
2464.58	26
2465.49	28
2466.41	31
2467.32	20
2468.24	28
2469.15	18
2470.07	29
2470.98	24
2471.89	29
2472.81	28
2473.72	25
2474.64	27
2475.55	25
2476.46	29
2477.37	25
2478.29	24
2479.2	31
2480.11	24
2481.03	28
2481.94	30
2482.85	25
2483.76	30
2484.67	29
2485.59	28
2486.5	30
2487.41	32
2488.32	24
2489.23	28
2490.14	22
2491.05	26
2491.97	26
2492.88	26
2493.79	28
2494.7	26
2495.61	32
2496.52	26
2497.43	28
2498.34	26
2499.25	22
2500.16	26
2501.07	32
2501.98	29
2502.89	30
2503.79	30
2504.7	24
2505.61	28
2506.52	28
2507.43	30
2508.34	27
2509.25	28
2510.16	28
2511.06	21
2511.97	28
2512.88	28
2513.79	26
2514.69	32
2515.6	32
2516.51	24
2517.42	26
2518.32	24
2519.23	30
2520.14	28
2521.04	25
2521.95	26
2522.86	27
2523.76	24
2524.67	28
2525.57	25
2526.48	29
2527.39	20
2528.29	35
2529.2	28
2530.1	24
2531.01	24
2531.91	28
2532.82	31
2533.72	26
2534.63	27
2535.53	30
2536.44	27
2537.34	30
2538.24	24
2539.15	28
2540.05	26
2540.96	25
2541.86	26
2542.76	29
2543.67	27
2544.57	26
2545.47	30
2546.37	26
2547.28	30
2548.18	28
2549.08	24
2549.99	22
2550.89	29
2551.79	28
2552.69	26
2553.59	28
2554.49	26
2555.4	30
2556.3	29
2557.2	30
2558.1	28
2559	29
2559.9	27
2560.8	30
2561.7	27
2562.6	26
2563.5	26
2564.4	24
2565.3	28
2566.2	28
2567.1	26
2568	22
2568.9	29
2569.8	26
2570.7	28
2571.6	31
2572.5	28
2573.4	28
2574.3	33
2575.2	31
2576.1	26
2576.99	26
2577.89	22
2578.79	26
2579.69	34
2580.59	30
2581.48	27
2582.38	31
2583.28	32
2584.18	29
2585.07	24
2585.97	22
2586.87	27
2587.76	22
2588.66	27
2589.56	26
2590.45	29
2591.35	28
2592.25	26
2593.14	28
2594.04	24
2594.93	25
2595.83	29
2596.73	27
2597.62	31
2598.52	28
2599.41	28
2600.31	26
2601.2	22
2602.1	24
2602.99	25
2603.88	30
2604.78	26
2605.67	20
2606.57	29
2607.46	20
2608.35	28
2609.25	26
2610.14	36
2611.03	29
2611.93	27
2612.82	23
2613.71	26
2614.61	30
2615.5	28
2616.39	27
2617.29	26
2618.18	25
2619.07	32
2619.96	27
2620.85	22
2621.75	32
2622.64	28
2623.53	26
2624.42	28
2625.31	22
2626.2	28
2627.09	25
2627.98	26
2628.88	29
2629.77	30
2630.66	28
2631.55	28
2632.44	30
2633.33	28
2634.22	28
2635.11	20
2636	28
2636.89	32
2637.78	25
2638.66	28
2639.55	24
2640.44	24
2641.33	28
2642.22	26
2643.11	30
2644	25
2644.89	31
2645.78	29
2646.66	26
2647.55	30
2648.44	26
2649.33	29
2650.21	26
2651.1	32
2651.99	32
2652.88	31
2653.76	20
2654.65	28
2655.54	24
2656.42	24
2657.31	24
2658.2	27
2659.08	28
2659.97	25
2660.86	34
2661.74	28
2662.63	22
2663.51	30
2664.4	27
2665.29	27
2666.17	27
2667.06	24
2667.94	26
2668.83	26
2669.71	28
2670.6	26
2671.48	26
2672.36	24
2673.25	24
2674.13	26
2675.02	30
2675.9	22
2676.78	28
2677.67	28
2678.55	26
2679.43	32
2680.32	24
2681.2	29
2682.08	26
2682.97	30
2683.85	25
2684.73	32
2685.61	29
2686.5	27
2687.38	26
2688.26	29
2689.14	30
2690.03	28
2690.91	28
2691.79	28
2692.67	22
2693.55	27
2694.43	27
2695.31	25
2696.19	20
2697.08	26
2697.96	30
2698.84	28
2699.72	28
2700.6	28
2701.48	28
2702.36	28
2703.24	24
2704.12	24
2705	26
2705.88	26
2706.76	26
2707.64	28
2708.51	30
2709.39	30
2710.27	31
2711.15	34
2712.03	26
2712.91	28
2713.79	25
2714.67	25
2715.54	27
2716.42	31
2717.3	29
2718.18	30
2719.05	20
2719.93	28
2720.81	26
2721.69	34
2722.56	26
2723.44	26
2724.32	26
2725.19	28
2726.07	28
2726.95	29
2727.82	27
2728.7	28
2729.58	26
2730.45	26
2731.33	26
2732.2	32
2733.08	30
2733.95	24
2734.83	28
2735.7	30
2736.58	24
2737.45	29
2738.33	29
2739.2	26
2740.08	26
2740.95	28
2741.83	26
2742.7	23
2743.58	28
2744.45	22
2745.32	28
2746.2	29
2747.07	27
2747.94	24
2748.82	31
2749.69	31
2750.56	23
2751.44	29
2752.31	28
2753.18	28
2754.05	24
2754.93	27
2755.8	26
2756.67	31
2757.54	26
2758.42	30
2759.29	32
2760.16	29
2761.03	24
2761.9	30
2762.77	28
2763.64	33
2764.51	30
2765.38	24
2766.26	29
2767.13	24
2768	28
2768.87	28
2769.74	30
2770.61	22
2771.48	26
2772.35	29
2773.22	24
2774.09	34
2774.96	26
2775.83	28
2776.7	28
2777.56	26
2778.43	31
2779.3	24
2780.17	30
2781.04	29
2781.91	30
2782.78	27
2783.64	30
2784.51	26
2785.38	26
2786.25	26
2787.12	30
2787.98	24
2788.85	28
2789.72	29
2790.59	27
2791.45	30
2792.32	26
2793.19	29
2794.05	32
2794.92	31
2795.79	26
2796.65	29
2797.52	30
2798.38	29
2799.25	24
2800.12	30
2800.98	27
2801.85	28
2802.71	29
2803.58	30.5
2804.44	30
2805.31	26
2806.17	28
2807.04	29
2807.9	27
2808.77	22
2809.63	28
2810.5	28
2811.36	31
2812.22	32
2813.09	28
2813.95	28
2814.82	26
2815.68	26
2816.54	30
2817.41	26
2818.27	27
2819.13	33
2820	26
2820.86	26
2821.72	26
2822.58	28
2823.45	28
2824.31	25
2825.17	26
2826.03	30
2826.9	26
2827.76	33
2828.62	27
2829.48	26
2830.34	28
2831.2	28
2832.06	36
2832.92	28
2833.79	30
2834.65	26
2835.51	27
2836.37	30
2837.23	26
2838.09	32
2838.95	29
2839.81	26
2840.67	26
2841.53	26
2842.39	29
2843.25	32
2844.11	31
2844.97	28
2845.83	28
2846.68	30
2847.54	33
2848.4	26
2849.26	26
2850.12	27
2850.98	30
2851.84	26
2852.69	26
2853.55	24
2854.41	28
2855.27	30
2856.13	29
2856.98	26
2857.84	28
2858.7	28
2859.56	26
2860.41	28
2861.27	28
2862.13	34
2862.98	21
2863.84	30
2864.7	26
2865.55	30
2866.41	24
2867.27	33
2868.12	32
2868.98	28
2869.83	29
2870.69	32
2871.54	26
2872.4	32
2873.25	26
2874.11	28
2874.96	36
2875.82	22
2876.68	30
2877.53	33
2878.38	28
2879.24	32
2880.09	33
2880.95	32
2881.8	32
2882.65	30
2883.51	34
2884.36	32
2885.22	32
2886.07	33
2886.92	38
2887.77	34
2888.63	36
2889.48	40
2890.33	34
2891.19	36
2892.04	42
2892.89	41
2893.74	42
2894.6	42
2895.45	42
2896.3	45
2897.15	45
2898	48
2898.85	48
2899.71	57
2900.56	48
2901.41	55
2902.26	56
2903.11	56
2903.96	54
2904.81	54
2905.66	66
2906.51	57
2907.36	56
2908.21	70
2909.06	64
2909.91	59
2910.76	52
2911.61	55
2912.46	57
2913.31	40
2914.16	50
2915.01	48
2915.86	44
2916.71	42
2917.56	40
2918.41	40
2919.26	41
2920.1	42
2920.95	36
2921.8	30
2922.65	28
2923.5	40
2924.34	35
2925.19	34
2926.04	32
2926.89	34
2927.74	28
2928.58	28
2929.43	31
2930.28	34
2931.12	30
2931.97	29
2932.82	27
2933.66	25
2934.51	28
2935.36	31
2936.2	35
2937.05	32
2937.89	28
2938.74	28
2939.59	28
2940.43	32
2941.28	34
2942.12	30
2942.97	26
2943.81	30
2944.66	32
2945.5	31
2946.35	29
2947.19	29
2948.04	35
2948.88	30
2949.72	27
2950.57	32
2951.41	30
2952.26	26
2953.1	33
2953.94	31
2954.79	33
2955.63	38
2956.47	40
2957.32	35
2958.16	36
2959	37
2959.85	36
2960.69	34
2961.53	38
2962.37	40
2963.22	40
2964.06	45
2964.9	40
2965.74	40
2966.58	40
2967.42	34
2968.27	38
2969.11	36
2969.95	46
2970.79	40
2971.63	39
2972.47	36
2973.31	38
2974.15	34
2974.99	38
2975.83	38
2976.68	36
2977.52	32
2978.36	34
2979.2	34
2980.04	27
2980.88	36
2981.71	29
2982.55	30
2983.39	31
2984.23	28
2985.07	29
2985.91	30
2986.75	30
2987.59	28
2988.43	30
2989.27	27
2990.1	33
2990.94	28
2991.78	28
2992.62	34
2993.46	27
2994.3	25
2995.13	31
2995.97	26
2996.81	30
2997.64	28
2998.48	35
2999.32	27
