#Acq. time (s)=	3
#Accumulations=	3
#Range (cm-¹)=	100...3000
#Windows=	3
#Autofocus=	Off
#AutoExposure=	Off
#Spike filter=	Multiple accum.
#Delay time (s)=	0
#Binning=	1
#Readout mode=	Signal
#DeNoise=	Off
#ICS correction=	Off
#Dark correction=	Off
#Inst. Process=	Off
#Instrument=	LabRAM HR Evol
#Detector=	Syncerity OE
#Objective=	x100_VIS_LWD
#Grating=	600 (500nm)
#ND Filter=	25%
#Laser=	633nm_Edge
#Hole=	100.021
#Range=	Visible
#Project=	Bolus
#Sample=	A3
#Site=	stripside
#Title=	m13
#Remark=	
#Date=	03.11.2025 18:26
#Acquired=	03.11.2025 18:26:04
100.969	26
102.252	38
103.535	44
104.818	34
106.101	31
107.384	36
108.666	40
109.948	33
111.232	36
112.514	32
113.795	39
115.077	34
116.358	35
117.639	41
118.919	35
120.2	33
121.48	39
122.76	37
124.04	39
125.32	28
126.599	34
127.879	37
129.158	34
130.436	34
131.715	40
132.992	34
134.27	36
135.548	41
136.826	37
138.104	38
139.381	40
140.658	43
141.935	44
143.212	40
144.489	46
145.763	40
147.04	41
148.315	43
149.591	44
150.867	43
152.142	42
153.416	46
154.691	41
155.965	43
157.24	44
158.514	45
159.786	44
161.06	41
162.334	42
163.607	44
164.881	43
166.152	41
167.425	46
168.698	40
169.969	46
171.241	44
172.513	50
173.785	50
175.055	39
176.326	43
177.597	38
178.867	36
180.137	42
181.408	48
182.677	47
183.947	48
185.217	48
186.485	47
187.755	43
189.022	45
190.291	43
191.56	44
192.828	41
194.096	42
195.363	47
196.631	38
197.899	44
199.165	44
200.432	43
201.698	40
202.965	46
204.23	42
205.497	43
206.762	41
208.028	44
209.293	39
210.559	37
211.823	40
213.088	40
214.352	42
215.617	35
216.88	40
218.145	36
219.408	38
220.672	37
221.934	36
223.196	35
224.46	42
225.722	42
226.985	36
228.246	38
229.508	28
230.77	36
232.031	32
233.292	38
234.554	33
235.814	34
237.074	37
238.335	36
239.595	37
240.854	42
242.115	37
243.374	35
244.633	34
245.893	39
247.151	30
248.409	41
249.667	28
250.927	37
252.184	39
253.442	36
254.699	30
255.957	34
257.214	37
258.47	39
259.727	35
260.983	33
262.24	38
263.496	37
264.752	32
266.007	37
267.262	33
268.517	33
269.773	30
271.028	30
272.282	30
273.536	36
274.79	32
276.044	36
277.297	36
278.551	30
279.804	32
281.057	36
282.31	34
283.564	36
284.816	35
286.068	36
287.32	41
288.572	35
289.823	36
291.074	32
292.325	34
293.576	34
294.827	32
296.077	37
297.328	35
298.578	30
299.828	31
301.077	29
302.325	35
303.575	34
304.824	32
306.073	28
307.321	32
308.57	29
309.818	35
311.066	30
312.314	35
313.562	32
314.808	32
316.055	24
317.302	36
318.549	28
319.796	37
321.042	30
322.288	30
323.533	33
324.779	39
326.024	31
327.27	34
328.515	33
329.759	31
331.004	28
332.248	36
333.493	32
334.736	34
335.98	32
337.223	39
338.466	36
339.709	33
340.952	33
342.195	34
343.437	32
344.68	34
345.922	31
347.163	34
348.405	35
349.647	35
350.887	30
352.128	34
353.37	35
354.609	28
355.85	34
357.089	34
358.33	30
359.57	35
360.809	35
362.049	37
363.287	34
364.526	34
365.764	34
367.003	32
368.241	36
369.479	36
370.718	30
371.955	34
373.193	38
374.429	32
375.667	34
376.903	34
378.139	38
379.376	34
380.611	32
381.848	39
383.083	30
384.319	37
385.554	39
386.79	35
388.024	40
389.258	35
390.493	30
391.727	37
392.962	36
394.195	26
395.428	33
396.663	42
397.895	33
399.128	31
400.361	39
401.593	37
402.825	35
404.058	32
405.29	30
406.521	28
407.752	36
408.985	38
410.215	36
411.446	29
412.678	32
413.908	38
415.138	30
416.367	34
417.597	34
418.828	32
420.057	34
421.286	40
422.514	35
423.743	35
424.973	33
426.201	32
427.429	38
428.657	32
429.884	30
431.112	32
432.34	34
433.567	36
434.794	37
436.02	30
437.247	34
438.473	35
439.699	34
440.925	34
442.15	37
443.376	36
444.601	32
445.826	36
447.051	34
448.275	38
449.5	36
450.724	32
451.948	36
453.172	36
454.396	36
455.619	29
456.842	32
458.065	36
459.288	36
460.511	38
461.733	28
462.956	32
464.178	40
465.4	34
466.621	43
467.843	38
469.064	38
470.285	39
471.505	36
472.726	40
473.946	45
475.166	41
476.387	44
477.606	44
478.825	45
480.044	52
481.264	46
482.483	44
483.702	56
484.921	53
486.138	66
487.356	62
488.574	62
489.792	62
491.009	63
492.226	62
493.444	57
494.661	54
495.877	58
497.094	54
498.31	50
499.525	52
500.741	51
501.958	42
503.172	40
504.388	36
505.603	41
506.817	38
508.032	46
509.247	42
510.46	36
511.675	46
512.888	42
514.102	40
515.316	41
516.528	36
517.742	37
518.954	36
520.167	30
521.378	42
522.591	44
523.802	39
525.015	39
526.226	32
527.438	27
528.648	36
529.86	34
531.07	38
532.281	34
533.491	36
534.702	32
535.911	39
537.121	34
538.33	38
539.54	36
540.749	36
541.957	32
543.167	37
544.375	37
545.584	30
546.791	39
547.999	37
549.207	39
550.414	35
551.621	34
552.829	35
554.035	38
555.241	30
556.449	36
557.655	34
558.86	30
560.066	34
561.272	34
562.477	26
563.682	35
564.888	34
566.093	33
567.297	38
568.501	28
569.705	35
570.91	32
572.114	38
573.317	30
574.52	34
575.723	34
576.927	34
578.13	41
579.332	30
580.535	36
581.737	28
582.938	37
584.14	36
585.343	31
586.544	38
587.745	37
588.946	29
590.147	36
591.347	40
592.548	34
593.748	34
594.948	34
596.147	31
597.347	30
598.546	38
599.745	32
600.944	36
602.143	30
603.342	28
604.54	38
605.738	39
606.937	31
608.134	32
609.332	36
610.529	36
611.727	38
612.924	34
614.121	35
615.317	33
616.513	34
617.709	29
618.905	35
620.101	38
621.297	34
622.492	37
623.688	30
624.883	33
626.077	30
627.271	36
628.466	36
629.66	32
630.855	36
632.047	36
633.241	37
634.435	35
635.629	35
636.82	32
638.014	32
639.207	39
640.399	32
641.59	32
642.783	37
643.975	38
645.166	36
646.357	37
647.549	32
648.741	35
649.93	37
651.122	34
652.311	36
653.502	35
654.692	34
655.881	28
657.071	36
658.261	37
659.45	32
660.639	33
661.827	32
663.016	35
664.204	33
665.393	37
666.581	32
667.769	28
668.957	35
670.143	33
671.331	35
672.518	38
673.705	41
674.891	36
676.078	35
677.264	39
678.451	37
679.636	38
680.821	44
682.007	39
683.192	43
684.378	36
685.562	39
686.747	44
687.931	40
689.115	40
690.3	42
691.483	37
692.666	40
693.851	38
695.034	36
696.216	40
697.4	38
698.582	37
699.764	44
700.948	42
702.129	40
703.311	41
704.493	48
705.674	51
706.855	46
708.036	53
709.218	52
710.399	57
711.579	48
712.759	49
713.939	43
715.12	44
716.299	45
717.478	38
718.657	41
719.836	34
721.015	34
722.195	36
723.373	41
724.552	35
725.729	34
726.907	34
728.085	34
729.262	36
730.44	34
731.617	34
732.795	36
733.972	34
735.148	39
736.324	34
737.501	34
738.677	32
739.852	29
741.028	36
742.203	32
743.379	34
744.554	30
745.729	39
746.903	32
748.078	36
749.252	34
750.426	36
751.599	36
752.772	38
753.946	34
755.119	36
756.293	33
757.466	32
758.639	32
759.811	33
760.984	36
762.155	32
763.327	34
764.499	34
765.67	38
766.842	31
768.013	33
769.183	32
770.354	30
771.525	36
772.696	38
773.865	32
775.035	32
776.205	32
777.375	35
778.544	39
779.713	32
780.882	38
782.052	37
783.219	30
784.388	35
785.557	40
786.724	39
787.892	35
789.06	35
790.227	34
791.395	36
792.562	34
793.728	37
794.895	36
796.061	32
797.228	32
798.395	32
799.56	34
800.726	36
801.891	41
803.057	41
804.221	33
805.387	35
806.551	32
807.716	39
808.879	36
810.044	37
811.208	30
812.372	37
813.535	34
814.699	34
815.862	34
817.025	32
818.188	36
819.351	39
820.513	35
821.675	36
822.837	36
823.999	34
825.161	29
826.322	30
827.483	35
828.645	36
829.805	32
830.966	35
832.127	36
833.287	36
834.447	32
835.607	36
836.767	37
837.926	30
839.085	38
840.245	28
841.404	36
842.562	38
843.72	36
844.88	30
846.038	36
847.195	36
848.353	35
849.512	35
850.669	33
851.826	39
852.983	38
854.139	38
855.296	30
856.453	32
857.609	35
858.765	36
859.921	34
861.077	34
862.232	32
863.387	34
864.542	41
865.697	36
866.852	34
868.008	30
869.162	36
870.316	36
871.47	32
872.624	35
873.778	30
874.931	32
876.084	36
877.237	26
878.39	34
879.543	31
880.695	36
881.846	34
882.999	33
884.151	34
885.302	32
886.454	34
887.606	32
888.757	34
889.908	30
891.059	36
892.21	39
893.359	36
894.509	31
895.659	34
896.81	35
897.959	31
899.109	38
900.257	37
901.407	28
902.556	31
903.705	32
904.854	39
906.001	34
907.149	36
908.298	38
909.446	31
910.592	34
911.74	26
912.888	36
914.034	35
915.181	31
916.328	39
917.473	37
918.62	40
919.766	36
920.911	34
922.058	32
923.204	36
924.348	35
925.494	32
926.638	32
927.783	34
928.928	35
930.072	36
931.216	29
932.36	33
933.504	22
934.647	35
935.791	34
936.933	35
938.077	34
939.219	30
940.363	37
941.504	34
942.647	34
943.789	35
944.932	28
946.073	37
947.215	38
948.356	34
949.498	32
950.638	32
951.778	32
952.92	34
954.06	34
955.199	34
956.34	31
957.479	32
958.62	34
959.759	32
960.898	35
962.038	35
963.176	30
964.315	35
965.453	35
966.592	31
967.73	30
968.867	36
970.006	30
971.144	33
972.281	34
973.418	28
974.554	37
975.692	35
976.829	28
977.965	32
979.101	32
980.237	35
981.374	37
982.509	34
983.645	32
984.78	32
985.915	31
987.05	33
988.184	34
989.319	30
990.453	28
991.589	36
992.722	30
993.856	31
994.99	32
996.123	36
997.257	32
998.39	29
999.523	34
1000.66	34
1001.79	36
1002.92	30
1004.05	26
1005.18	26
1006.32	37
1007.45	31
1008.58	37
1009.71	34
1010.84	35
1011.97	30
1013.1	30
1014.23	26
1015.36	30
1016.49	34
1017.62	39
1018.75	29
1019.88	30
1021.01	26
1022.14	38
1023.27	30
1024.4	30
1025.53	28
1026.66	34
1027.79	32
1028.91	34
1030.04	24
1031.17	34
1032.3	35
1033.42	26
1034.55	32
1035.68	28
1036.81	31
1037.93	28
1039.06	35
1040.18	35
1041.31	32
1042.44	32
1043.56	34
1044.69	35
1045.81	31
1046.94	32
1048.06	32
1049.19	31
1050.31	32
1051.44	28
1052.56	33
1053.69	36
1054.81	32
1055.93	28
1057.06	30
1058.18	35
1059.3	34
1060.43	28
1061.55	30
1062.67	30
1063.79	32
1064.92	34
1066.04	35
1067.16	28
1068.28	27
1069.4	34
1070.52	38
1071.65	32
1072.77	35
1073.89	33
1075.01	34
1076.13	32
1077.25	33
1078.37	30
1079.49	31
1080.61	36
1081.73	28
1082.85	30
1083.97	30
1085.09	29
1086.2	29
1087.32	36
1088.44	35
1089.56	30
1090.68	36
1091.8	33
1092.91	27
1094.03	34
1095.15	34
1096.26	28
1097.38	34
1098.5	34
1099.61	28
1100.73	34
1101.85	34
1102.96	32
1104.08	30
1105.19	33
1106.31	28
1107.43	29
1108.54	35
1109.66	32
1110.77	32
1111.88	22
1113	33
1114.11	35
1115.23	34
1116.34	34
1117.46	28
1118.57	31
1119.68	30
1120.8	34
1121.91	31
1123.02	30
1124.13	34
1125.25	31
1126.36	33
1127.47	31
1128.58	28
1129.69	30
1130.8	31
1131.92	27
1133.03	30
1134.14	29
1135.25	28
1136.36	34
1137.47	32
1138.58	33
1139.69	35
1140.8	34
1141.91	30
1143.02	26
1144.13	29
1145.24	32
1146.35	32
1147.46	31
1148.56	31
1149.67	34
1150.78	34
1151.89	31
1153	28
1154.1	36
1155.21	26
1156.32	31
1157.43	30
1158.53	30
1159.64	30
1160.75	28
1161.85	36
1162.96	32
1164.07	30
1165.17	32
1166.28	31
1167.38	30
1168.49	38
1169.59	34
1170.7	24
1171.8	36
1172.91	26
1174.01	30
1175.12	29
1176.22	24
1177.32	31
1178.43	31
1179.53	32
1180.64	32
1181.74	31
1182.84	32
1183.94	31
1185.05	28
1186.15	33
1187.25	31
1188.35	33
1189.46	28
1190.56	35
1191.66	30
1192.76	26
1193.86	29
1194.96	31
1196.06	30
1197.16	33.8914
1198.26	26.1292
1199.37	32.9658
1200.47	31.9934
1201.57	31.9853
1202.67	33.7848
1203.77	31.7636
1204.86	31.7656
1205.96	34.5242
1207.06	27.3715
1208.16	28.039
1209.26	33.8401
1210.36	32.5418
1211.46	30.4988
1212.56	30.457
1213.65	29.6036
1214.75	29.4644
1215.85	28.8887
1216.95	28
1218.04	27.8094
1219.14	33.597
1220.24	30.5905
1221.33	32.5989
1222.43	28.6724
1223.53	30.7253
1224.62	29.4804
1225.72	28.9857
1226.82	33.3777
1227.91	31.6709
1229.01	28.1126
1230.1	29.1703
1231.2	26.7787
1232.29	31.1973
1233.39	31.2347
1234.48	31.1229
1235.58	28.2896
1236.67	28.2092
1237.77	28.6936
1238.86	30.451
1239.95	28.4528
1241.05	29.3871
1242.14	29.5261
1243.23	29.992
1244.33	26.5601
1245.42	29.0038
1246.51	33.7879
1247.61	30.7779
1248.7	28.0493
1249.79	29.1912
1250.88	30.3324
1251.97	27.6925
1253.07	28.3286
1254.16	30
1255.25	31.9665
1256.34	29.8059
1257.43	31.1078
1258.52	29.7549
1259.61	31.0396
1260.7	29.7485
1261.79	27.2949
1262.88	28.0074
1263.97	30.9917
1265.06	33.5028
1266.15	31.5323
1267.24	29.3147
1268.33	25.4045
1269.42	32.492
1270.51	31.9477
1271.6	32.5161
1272.68	29.9794
1273.77	29.0443
1274.86	31.6852
1275.95	29.5019
1277.04	25.9637
1278.12	27.653
1279.21	29.9011
1280.3	30.9094
1281.39	30.9307
1282.47	30.7081
1283.56	29.9872
1284.65	30.402
1285.73	30.6774
1286.82	28.6366
1287.91	30.2324
1288.99	33.0606
1290.08	30.1103
1291.16	29.5894
1292.25	29.0261
1293.33	26.7303
1294.42	28.1181
1295.5	29.2977
1296.59	28.3725
1297.67	28.8826
1298.76	30.0423
1299.84	29.1544
1300.92	28.3126
1302.01	29.2699
1303.09	29.8708
1304.17	27.0735
1305.26	27.2881
1306.34	29.6906
1307.34	26
1308.43	26
1309.52	29
1310.61	30
1311.7	27
1312.78	30
1313.87	32
1314.96	31
1316.04	34
1317.13	29
1318.22	31
1319.3	30
1320.39	28
1321.48	30
1322.56	33
1323.65	29
1324.73	30
1325.82	31
1326.9	30
1327.99	32
1329.07	28
1330.16	26
1331.24	28
1332.33	29
1333.41	37
1334.5	29
1335.58	27
1336.66	31
1337.75	32
1338.83	34
1339.91	25
1341	32
1342.08	27
1343.16	34
1344.24	29
1345.33	24
1346.41	30
1347.49	32
1348.57	26
1349.65	30
1350.74	28
1351.82	28
1352.9	30
1353.98	30
1355.06	31
1356.14	24
1357.22	26
1358.3	33
1359.38	34
1360.46	27
1361.54	28
1362.62	30
1363.7	28
1364.78	27
1365.86	32
1366.94	26
1368.02	32
1369.09	28
1370.17	24
1371.25	28
1372.33	28
1373.41	30
1374.48	28
1375.56	27
1376.64	28
1377.72	28
1378.79	30
1379.87	31
1380.95	29
1382.02	29
1383.1	32
1384.17	32
1385.25	30
1386.33	28
1387.4	29
1388.48	32
1389.55	32
1390.63	33
1391.7	32
1392.78	31
1393.85	32
1394.93	30
1396	32
1397.07	30
1398.15	32
1399.22	28
1400.3	34
1401.37	32
1402.44	36
1403.52	31
1404.59	32
1405.66	38
1406.73	35
1407.81	34
1408.88	38
1409.95	35
1411.02	36
1412.09	33
1413.17	38
1414.24	26
1415.31	37
1416.38	40
1417.45	36
1418.52	40
1419.59	38
1420.66	33
1421.73	26
1422.8	31
1423.87	32
1424.94	31
1426.01	32
1427.08	34
1428.15	39
1429.22	32
1430.29	29
1431.35	32
1432.42	30
1433.49	33
1434.56	32
1435.63	30
1436.69	35
1437.76	33
1438.83	30
1439.9	30
1440.96	32
1442.03	32
1443.1	31
1444.17	30
1445.23	30
1446.3	32
1447.36	30
1448.43	30
1449.49	36
1450.56	26
1451.63	30
1452.69	30
1453.76	33
1454.82	31
1455.89	31
1456.95	31
1458.01	29
1459.08	31
1460.14	30
1461.21	30
1462.27	27
1463.34	33
1464.4	29
1465.46	30
1466.52	26
1467.59	27
1468.65	32
1469.71	30
1470.77	28
1471.84	34
1472.9	30
1473.96	28
1475.02	30
1476.08	28
1477.15	30
1478.21	32
1479.27	30
1480.33	33
1481.39	32
1482.45	33
1483.51	30
1484.57	34
1485.63	28
1486.69	36
1487.75	29
1488.81	30
1489.87	32
1490.93	31
1491.99	24
1493.05	34
1494.1	29
1495.16	24
1496.22	28
1497.28	30
1498.34	32
1499.4	29
1500.45	24
1501.51	29
1502.57	27
1503.63	30
1504.68	34
1505.74	34
1506.8	27
1507.85	33
1508.91	30
1509.97	26
1511.02	28
1512.08	26
1513.13	29
1514.19	28
1515.24	34
1516.3	30
1517.35	30
1518.41	30
1519.46	27
1520.52	32
1521.57	28
1522.63	30
1523.68	31
1524.73	32
1525.79	28
1526.84	30
1527.9	32
1528.95	26
1530	32
1531.05	34
1532.11	28
1533.16	32
1534.21	32
1535.26	33
1536.32	30
1537.37	30
1538.42	30
1539.47	28
1540.52	28
1541.57	26
1542.63	32
1543.68	30
1544.73	32
1545.78	30
1546.83	29
1547.88	32
1548.93	34
1549.98	27
1551.03	31
1552.08	28
1553.13	26
1554.18	26
1555.23	29
1556.27	28
1557.32	22
1558.37	34
1559.42	28
1560.47	28
1561.52	29
1562.56	30
1563.61	26
1564.66	29
1565.71	30
1566.75	30
1567.8	28
1568.85	29
1569.9	30
1570.94	29
1571.99	32
1573.03	34
1574.08	26
1575.13	32
1576.17	34
1577.22	34
1578.26	26
1579.31	35
1580.35	34
1581.4	30
1582.44	30
1583.49	34
1584.53	34
1585.58	32
1586.62	31
1587.66	30
1588.71	32
1589.75	28
1590.8	30
1591.84	24
1592.88	32
1593.92	30
1594.97	27
1596.01	32
1597.05	34
1598.1	30
1599.14	27
1600.18	24
1601.22	31
1602.26	29
1603.3	28
1604.35	32
1605.39	28
1606.43	26
1607.47	28
1608.51	31
1609.55	30
1610.59	32
1611.63	31
1612.67	26
1613.71	30
1614.75	31
1615.79	26
1616.83	34
1617.87	30
1618.91	31
1619.95	33
1620.99	33
1622.02	30
1623.06	28
1624.1	31
1625.14	29
1626.18	31
1627.21	32
1628.25	35
1629.29	24
1630.33	31
1631.36	32
1632.4	22
1633.44	34
1634.48	30
1635.51	31
1636.55	29
1637.58	28
1638.62	30
1639.66	32
1640.69	32
1641.73	30
1642.76	27
1643.8	26
1644.83	28
1645.87	30
1646.9	24
1647.94	32
1648.97	32
1650	31
1651.04	29
1652.07	32
1653.11	28
1654.14	30
1655.17	30
1656.21	27
1657.24	35
1658.27	28
1659.31	30
1660.34	33
1661.37	29
1662.4	34
1663.43	32
1664.47	29
1665.5	35
1666.53	33
1667.56	24
1668.59	28
1669.62	28
1670.66	34
1671.69	28
1672.72	32
1673.75	31
1674.78	25
1675.81	30
1676.84	30
1677.87	34
1678.9	30
1679.93	31
1680.96	28
1681.98	28
1683.01	28
1684.04	32
1685.07	28
1686.1	33
1687.13	31
1688.16	34
1689.18	28
1690.21	30
1691.24	28
1692.27	31
1693.3	24
1694.32	29
1695.35	34
1696.38	32
1697.4	26
1698.43	37
1699.46	29
1700.48	32
1701.51	28
1702.54	31
1703.56	28
1704.59	28
1705.61	30
1706.64	30
1707.66	31
1708.69	27
1709.71	32
1710.74	27
1711.76	26
1712.79	36
1713.81	24
1714.83	32
1715.86	29
1716.88	30
1717.91	34
1718.93	31
1719.95	28
1720.98	29
1722	30
1723.02	26
1724.04	32
1725.07	28
1726.09	33
1727.11	35
1728.13	32
1729.15	24
1730.18	31
1731.2	32
1732.22	30
1733.24	30
1734.26	30
1735.28	28
1736.3	33
1737.32	31
1738.34	25
1739.36	28
1740.38	32
1741.4	30
1742.42	32
1743.44	30
1744.46	24
1745.48	32
1746.5	25
1747.52	30
1748.54	27
1749.56	28
1750.58	30
1751.6	30
1752.61	28
1753.63	28
1754.65	31
1755.67	32
1756.68	28
1757.7	32
1758.72	26
1759.74	31
1760.75	34
1761.77	32
1762.79	32
1763.8	24
1764.82	30
1765.83	30
1766.85	26
1767.87	29
1768.88	24
1769.9	24
1770.91	31
1771.93	32
1772.94	32
1773.96	26
1774.97	31
1775.99	33
1777	32
1778.02	28
1779.03	29
1780.04	24
1781.06	33
1782.07	31
1783.09	32
1784.1	28
1785.11	30
1786.13	34
1787.14	28
1788.15	31
1789.16	31
1790.18	28
1791.19	32
1792.2	28
1793.21	30
1794.22	28
1795.23	32
1796.25	28
1797.26	26
1798.27	27
1799.28	32
1800.29	32
1801.3	32
1802.31	32
1803.32	29
1804.33	30
1805.34	29
1806.35	35
1807.36	28
1808.37	26
1809.38	30
1810.39	30
1811.4	29
1812.41	24
1813.42	32
1814.42	32
1815.43	29
1816.44	25
1817.45	24
1818.46	35
1819.47	28
1820.47	24
1821.48	28
1822.49	29
1823.49	32
1824.5	32
1825.51	32
1826.52	26
1827.52	30
1828.53	33
1829.53	31
1830.54	28
1831.55	28
1832.55	29
1833.56	29
1834.56	36
1835.57	26
1836.57	31
1837.58	28
1838.58	33
1839.59	30
1840.59	36
1841.6	30
1842.6	26
1843.61	25
1844.61	32
1845.61	32
1846.62	24
1847.62	31
1848.62	26
1849.63	29
1850.63	30
1851.63	34
1852.64	28
1853.64	28
1854.64	27
1855.64	32
1856.64	30
1857.65	27
1858.65	34
1859.65	26
1860.65	31
1861.65	29
1862.65	28
1863.65	34
1864.66	24
1865.66	26
1866.66	32
1867.66	29
1868.66	30
1869.66	24
1870.66	33
1871.66	29
1872.66	30
1873.66	28
1874.66	28
1875.65	34
1876.65	29
1877.65	29
1878.65	25
1879.65	30
1880.65	28
1881.65	25
1882.64	29
1883.64	28
1884.64	26
1885.64	29
1886.63	28
1887.63	30
1888.63	31
1889.63	29
1890.62	28
1891.62	30
1892.62	26
1893.61	30
1894.61	30
1895.6	30
1896.6	26
1897.6	25
1898.59	30
1899.59	28
1900.58	30
1901.58	32
1902.57	30
1903.57	28
1904.56	27
1905.56	28
1906.55	33
1907.54	31
1908.54	30
1909.53	29
1910.53	26
1911.52	26
1912.51	30
1913.51	26
1914.5	30
1915.49	25
1916.49	32
1917.48	26
1918.47	26
1919.46	28
1920.46	29
1921.45	29
1922.44	31
1923.43	24
1924.42	28
1925.41	24
1926.41	35
1927.4	34
1928.39	26
1929.38	30
1930.37	27
1931.36	28
1932.35	28
1933.34	29
1934.33	32
1935.32	31
1936.31	26
1937.3	32
1938.29	28
1939.28	31
1940.27	28
1941.26	27
1942.24	22
1943.23	31
1944.22	30
1945.21	31
1946.2	26
1947.19	31
1948.17	26
1949.16	22
1950.15	27
1951.14	31
1952.12	25
1953.11	33
1954.1	29
1955.09	24
1956.07	28
1957.06	29
1958.05	34
1959.03	31
1960.02	30
1961	28
1961.99	28
1962.98	30
1963.96	29
1964.95	25
1965.93	30
1966.92	29
1967.9	30
1968.89	24
1969.87	29
1970.85	29
1971.84	30
1972.82	31
1973.81	29
1974.79	28
1975.78	28
1976.76	30
1977.74	30
1978.73	24
1979.71	30
1980.69	30
1981.67	24
1982.66	34
1983.64	28
1984.62	26
1985.6	30
1986.59	31
1987.57	30
1988.55	34
1989.53	26
1990.51	26
1991.49	26
1992.47	26
1993.45	31
1994.44	33
1995.42	27
1996.4	26
1997.38	29
1998.36	30
1999.34	26
2000.32	30
2001.3	32
2002.28	26
2003.26	27
2004.24	27
2005.22	29
2006.19	30
2007.17	31
2008.15	30
2009.13	28
2010.11	30
2011.09	25
2012.06	26
2013.04	25
2014.02	29
2015	31
2015.98	28
2016.95	28
2017.93	27
2018.91	28
2019.88	29
2020.86	31
2021.84	30
2022.81	23
2023.79	33
2024.77	30
2025.74	30
2026.72	30
2027.69	28
2028.67	28
2029.65	33
2030.62	30
2031.6	30
2032.57	28
2033.55	24
2034.52	25
2035.5	27
2036.47	31
2037.44	27
2038.42	24
2039.39	36
2040.36	25
2041.34	30
2042.31	29
2043.29	20
2044.26	26
2045.23	28
2046.2	27
2047.18	28
2048.15	29
2049.12	29
2050.09	28
2051.07	26
2052.04	30
2053.01	28
2053.98	33
2054.95	29
2055.93	27
2056.9	31
2057.87	30
2058.84	30
2059.81	28
2060.78	30
2061.75	28
2062.72	28
2063.69	26
2064.66	26
2065.63	26
2066.6	34
2067.57	28
2068.54	26
2069.51	26
2070.48	24
2071.45	27
2072.42	30
2073.38	25
2074.35	27
2075.32	30
2076.29	31
2077.26	30
2078.23	27
2079.19	26
2080.16	25
2081.13	32
2082.1	24
2083.06	26
2084.03	29
2085	28
2085.96	25
2086.93	28
2087.9	28
2088.86	27
2089.83	29
2090.8	29
2091.76	28
2092.73	26
2093.69	28
2094.66	26
2095.62	24
2096.59	28
2097.55	28
2098.52	26
2099.48	24
2100.45	25
2101.41	23
2102.38	28
2103.34	25
2104.31	21
2105.27	30
2106.23	24
2107.2	30
2108.16	25
2109.12	22
2110.09	31
2111.05	28
2112.01	22
2112.98	26
2113.94	30
2114.9	30
2115.86	25
2116.82	28
2117.79	26
2118.75	30
2119.71	28
2120.67	26
2121.63	26
2122.59	24
2123.55	28
2124.52	30
2125.48	29
2126.44	30
2127.4	30
2128.36	31
2129.32	22
2130.28	26
2131.24	20
2132.2	25
2133.16	30
2134.12	28
2135.08	22
2136.04	28
2136.99	31
2137.95	26
2138.91	26
2139.87	24
2140.83	30
2141.79	26
2142.75	23
2143.7	25
2144.66	27
2145.62	27.0093
2146.58	28.984
2147.53	27.0021
2148.49	28.0028
2149.45	30.9152
2150.41	26.2004
2151.36	22.2591
2152.32	27.9132
2153.27	24.0371
2154.23	28.329
2155.19	25.7054
2156.14	29.5677
2157.1	26.4767
2158.06	24.4011
2159.01	31.4092
2159.97	25.4051
2160.92	26.8357
2161.88	27.4762
2162.83	28.1927
2163.79	25.1912
2164.74	24.8009
2165.7	28.6184
2166.65	28.6984
2167.61	26.2165
2168.56	27.5256
2169.51	29.75
2170.47	26.9786
2171.42	29.4174
2172.38	27.6532
2173.33	27.9425
2174.28	26.869
2175.24	28.0363
2176.19	24.9351
2177.14	28.7092
2178.09	25.687
2179.05	25.6298
2180	25.1471
2180.95	26.3986
2181.9	26.6464
2182.86	27.039
2183.81	24.6209
2184.76	25.6899
2185.71	25.4734
2186.66	25.9044
2187.61	27.0172
2188.57	27.2304
2189.52	21.0143
2190.47	27.407
2191.42	26.9792
2192.37	27.2353
2193.32	27.7778
2194.27	25.2358
2195.22	24.5418
2196.17	24.4675
2197.12	25.5157
2198.07	27.7315
2199.02	22.725
2199.97	25.9826
2200.92	26.7396
2201.87	24.75
2202.82	28.2852
2203.76	28.102
2204.71	26.7526
2205.66	28.2785
2206.61	26.2957
2207.56	26.2643
2208.51	25.3546
2209.45	26.1778
2210.4	26.8238
2211.35	25.4319
2212.3	24.9506
2213.24	27.5254
2214.19	26.2512
2215.14	20.5085
2216.09	23.853
2217.03	26.3572
2217.98	26.5
2218.93	26.4804
2219.87	26.5383
2220.82	25.5552
2221.77	26.9997
2222.71	24.6544
2223.66	28.0555
2224.6	27.2509
2225.55	27.1059
2226.49	27.9081
2227.44	25.1463
2228.38	25.4031
2229.33	26.1324
2230.27	26
2231.22	26.5649
2232.16	26.3312
2233.11	24.3975
2234.05	24.0833
2235	25.0848
2235.94	25.7636
2236.88	23.3835
2237.83	24.0735
2238.77	27.3318
2239.71	30.0518
2240.66	28.0464
2241.6	30.0358
2242	33
2242.95	24
2243.9	27
2244.84	30
2245.79	25
2246.74	25
2247.69	27
2248.63	25
2249.58	26
2250.53	28
2251.47	29
2252.42	26
2253.37	30
2254.31	28
2255.26	29
2256.2	25
2257.15	29
2258.1	26
2259.04	25
2259.99	25
2260.93	22
2261.88	27
2262.82	32
2263.77	26
2264.71	24
2265.65	22
2266.6	23
2267.54	25
2268.49	24
2269.43	25
2270.38	20
2271.32	33
2272.26	28
2273.21	24
2274.15	28
2275.09	31
2276.04	28
2276.98	25
2277.92	22
2278.86	25
2279.81	26
2280.75	30
2281.69	30
2282.63	30
2283.57	18
2284.52	28
2285.46	26
2286.4	28
2287.34	27
2288.28	26
2289.22	26
2290.16	24
2291.1	25
2292.04	25
2292.98	26
2293.93	28
2294.86	28
2295.8	27
2296.74	28
2297.69	30
2298.62	28
2299.56	25
2300.5	25
2301.44	24
2302.38	31
2303.32	26
2304.26	30
2305.2	30
2306.14	26
2307.07	30
2308.01	22
2308.95	26
2309.89	30
2310.83	25
2311.76	28
2312.7	33
2313.64	27
2314.58	28
2315.51	27
2316.45	29
2317.39	24
2318.32	27
2319.26	28
2320.2	28
2321.13	27
2322.07	24
2323	22
2323.94	29
2324.88	26
2325.81	31
2326.75	22
2327.68	26
2328.62	28
2329.55	18
2330.49	28
2331.42	27
2332.36	29
2333.29	26
2334.22	24
2335.16	20
2336.09	20
2337.03	31
2337.96	25
2338.89	25
2339.83	27
2340.76	27
2341.69	26
2342.63	27
2343.56	24
2344.49	22
2345.43	26
2346.36	26
2347.29	25
2348.22	28
2349.15	27
2350.09	26
2351.02	26
2351.95	30
2352.88	27
2353.81	27
2354.74	27
2355.67	25
2356.61	26
2357.54	24
2358.47	28
2359.4	23
2360.33	24
2361.26	28
2362.19	25
2363.12	27
2364.05	28
2364.98	24
2365.91	24
2366.84	29
2367.77	28
2368.7	26
2369.62	20
2370.55	26
2371.48	27
2372.41	28
2373.34	28
2374.27	27
2375.2	24
2376.12	24
2377.05	24
2377.98	22
2378.91	27
2379.83	28
2380.76	27
2381.69	29
2382.62	29
2383.54	28
2384.47	29
2385.4	32
2386.32	28
2387.25	24
2388.18	30
2389.1	34
2390.03	29
2390.95	29
2391.88	28
2392.81	26
2393.73	28
2394.66	24
2395.58	28
2396.51	22
2397.43	29
2398.36	26
2399.28	24
2400.2	30
2401.13	28
2402.05	26
2402.98	27
2403.9	32
2404.83	31
2405.75	24
2406.67	24
2407.6	26
2408.52	26
2409.44	24
2410.37	20
2411.29	28
2412.21	28
2413.13	31
2414.06	29
2414.98	28
2415.9	31
2416.82	26
2417.74	28
2418.67	28
2419.59	29
2420.51	25
2421.43	30
2422.35	28
2423.27	25
2424.19	28
2425.11	26
2426.03	24
2426.96	27
2427.88	28
2428.8	32
2429.72	29
2430.64	28
2431.56	29
2432.48	28
2433.39	28
2434.31	26
2435.23	25
2436.15	26
2437.07	22
2437.99	24
2438.91	30
2439.83	30
2440.75	31
2441.67	23
2442.58	29
2443.5	28
2444.42	29
2445.34	28
2446.26	31
2447.17	26
2448.09	32
2449.01	27
2449.92	26
2450.84	28
2451.76	32
2452.68	24
2453.59	18
2454.51	31
2455.42	33
2456.34	28
2457.26	26
2458.17	35
2459.09	24
2460	29
2460.92	28
2461.83	28
2462.75	24
2463.66	26
2464.58	28
2465.49	26
2466.41	30
2467.32	30
2468.24	26
2469.15	24
2470.07	31
2470.98	30
2471.89	30
2472.81	27
2473.72	30
2474.64	26
2475.55	31
2476.46	26
2477.37	26
2478.29	26
2479.2	30
2480.11	31
2481.03	30
2481.94	28
2482.85	26
2483.76	22
2484.67	30
2485.59	29
2486.5	27
2487.41	27
2488.32	31
2489.23	32
2490.14	27
2491.05	32
2491.97	25
2492.88	29
2493.79	29
2494.7	32
2495.61	31
2496.52	25
2497.43	25
2498.34	26
2499.25	29
2500.16	22
2501.07	30
2501.98	29
2502.89	24
2503.79	24
2504.7	29
2505.61	29
2506.52	27
2507.43	32
2508.34	25
2509.25	26
2510.16	27
2511.06	28
2511.97	31
2512.88	24
2513.79	25
2514.69	26
2515.6	23
2516.51	29
2517.42	31
2518.32	26
2519.23	28
2520.14	24
2521.04	24
2521.95	28
2522.86	26
2523.76	28
2524.67	24
2525.57	26
2526.48	24
2527.39	27
2528.29	30
2529.2	28
2530.1	25
2531.01	26
2531.91	28
2532.82	33
2533.72	22
2534.63	28
2535.53	28
2536.44	25
2537.34	30
2538.24	28
2539.15	28
2540.05	30
2540.96	31
2541.86	32
2542.76	30
2543.67	29
2544.57	31
2545.47	26
2546.37	30
2547.28	27
2548.18	34
2549.08	32
2549.99	31
2550.89	24
2551.79	30
2552.69	26
2553.59	25
2554.49	24
2555.4	24
2556.3	27
2557.2	25
2558.1	30
2559	34
2559.9	26
2560.8	26
2561.7	26
2562.6	24
2563.5	30
2564.4	23
2565.3	28
2566.2	30
2567.1	32
2568	29
2568.9	28
2569.8	28
2570.7	28
2571.6	29
2572.5	32
2573.4	30
2574.3	24
2575.2	25
2576.1	26
2576.99	30
2577.89	30
2578.79	33
2579.69	34
2580.59	30
2581.48	30
2582.38	28
2583.28	28
2584.18	28
2585.07	28
2585.97	30
2586.87	30
2587.76	29
2588.66	31
2589.56	31
2590.45	28
2591.35	28
2592.25	20
2593.14	24
2594.04	27
2594.93	30
2595.83	29
2596.73	22
2597.62	27
2598.52	26
2599.41	25
2600.31	24
2601.2	31
2602.1	28
2602.99	28
2603.88	28
2604.78	30
2605.67	28
2606.57	25
2607.46	26
2608.35	29
2609.25	25
2610.14	31
2611.03	29
2611.93	28
2612.82	34
2613.71	32
2614.61	27
2615.5	23
2616.39	23
2617.29	28
2618.18	26
2619.07	30
2619.96	31
2620.85	30
2621.75	27
2622.64	30
2623.53	31
2624.42	29
2625.31	33
2626.2	26
2627.09	27
2627.98	29
2628.88	29
2629.77	26
2630.66	28
2631.55	26
2632.44	30
2633.33	22
2634.22	30
2635.11	24
2636	27
2636.89	30
2637.78	30
2638.66	30
2639.55	29
2640.44	30
2641.33	25
2642.22	25
2643.11	29
2644	26
2644.89	29
2645.78	24
2646.66	26
2647.55	30
2648.44	28
2649.33	27
2650.21	27
2651.1	22
2651.99	24
2652.88	24
2653.76	29
2654.65	30
2655.54	28
2656.42	31
2657.31	29
2658.2	28
2659.08	30
2659.97	30
2660.86	27
2661.74	30
2662.63	26
2663.51	29
2664.4	26
2665.29	27
2666.17	31
2667.06	31
2667.94	30
2668.83	26
2669.71	26
2670.6	28
2671.48	23
2672.36	29
2673.25	26
2674.13	24
2675.02	24
2675.9	30
2676.78	28
2677.67	32
2678.55	30
2679.43	30
2680.32	24
2681.2	28
2682.08	27
2682.97	26
2683.85	28
2684.73	32
2685.61	26
2686.5	26
2687.38	25
2688.26	26
2689.14	29
2690.03	28
2690.91	31
2691.79	24
2692.67	30
2693.55	30
2694.43	29
2695.31	28
2696.19	26
2697.08	28
2697.96	29
2698.84	25
2699.72	24
2700.6	28
2701.48	25
2702.36	26
2703.24	30
2704.12	28
2705	25
2705.88	30
2706.76	26
2707.64	30
2708.51	28
2709.39	25
2710.27	28
2711.15	28
2712.03	30
2712.91	30
2713.79	27
2714.67	32
2715.54	22
2716.42	27
2717.3	24
2718.18	24
2719.05	30
2719.93	31
2720.81	25
2721.69	29
2722.56	29
2723.44	24
2724.32	24
2725.19	30
2726.07	22
2726.95	22
2727.82	31
2728.7	33
2729.58	26
2730.45	26
2731.33	27
2732.2	29
2733.08	22
2733.95	24
2734.83	25
2735.7	24
2736.58	33
2737.45	24
2738.33	24
2739.2	31
2740.08	28
2740.95	27
2741.83	22
2742.7	27
2743.58	28
2744.45	34
2745.32	26
2746.2	28
2747.07	28
2747.94	28
2748.82	26
2749.69	30
2750.56	31
2751.44	32
2752.31	28
2753.18	28
2754.05	26
2754.93	20
2755.8	25
2756.67	26
2757.54	28
2758.42	26
2759.29	28
2760.16	29
2761.03	31
2761.9	30
2762.77	30
2763.64	30
2764.51	28
2765.38	24
2766.26	30
2767.13	28
2768	32
2768.87	31
2769.74	26
2770.61	24
2771.48	26
2772.35	30
2773.22	25
2774.09	28
2774.96	28
2775.83	22
2776.7	32
2777.56	27
2778.43	26
2779.3	32
2780.17	30
2781.04	30
2781.91	26
2782.78	32
2783.64	31
2784.51	31
2785.38	28
2786.25	26
2787.12	27
2787.98	36
2788.85	29
2789.72	27
2790.59	26
2791.45	29
2792.32	34
2793.19	29
2794.05	31
2794.92	29
2795.79	20
2796.65	30
2797.52	26
2798.38	26
2799.25	30
2800.12	26
2800.98	28
2801.85	31
2802.71	28
2803.58	28.5
2804.44	29
2805.31	26
2806.17	29
2807.04	30
2807.9	29
2808.77	30
2809.63	28
2810.5	30
2811.36	28
2812.22	30
2813.09	31
2813.95	29
2814.82	31
2815.68	27
2816.54	26
2817.41	24
2818.27	29
2819.13	28
2820	35
2820.86	24
2821.72	31
2822.58	31
2823.45	30
2824.31	31
2825.17	30
2826.03	29
2826.9	29
2827.76	30
2828.62	24
2829.48	32
2830.34	32
2831.2	28
2832.06	31
2832.92	30
2833.79	28
2834.65	26
2835.51	34
2836.37	30
2837.23	26
2838.09	30
2838.95	24
2839.81	32
2840.67	29
2841.53	29
2842.39	26
2843.25	30
2844.11	30
2844.97	31
2845.83	30
2846.68	32
2847.54	24
2848.4	32
2849.26	36
2850.12	30
2850.98	26
2851.84	28
2852.69	25
2853.55	32
2854.41	27
2855.27	28
2856.13	26
2856.98	30
2857.84	33
2858.7	27
2859.56	28
2860.41	32
2861.27	30
2862.13	28
2862.98	27
2863.84	30
2864.7	30
2865.55	32
2866.41	30
2867.27	33
2868.12	36
2868.98	29
2869.83	30
2870.69	32
2871.54	24
2872.4	30
2873.25	31
2874.11	38
2874.96	31
2875.82	32
2876.68	32
2877.53	30
2878.38	32
2879.24	33
2880.09	33
2880.95	34
2881.8	31
2882.65	35
2883.51	36
2884.36	30
2885.22	32
2886.07	34
2886.92	30
2887.77	33
2888.63	32
2889.48	36
2890.33	33
2891.19	42
2892.04	36
2892.89	45
2893.74	40
2894.6	39
2895.45	46
2896.3	45
2897.15	46
2898	46
2898.85	48
2899.71	53
2900.56	50
2901.41	59
2902.26	60
2903.11	60
2903.96	58
2904.81	59
2905.66	64
2906.51	63
2907.36	65
2908.21	65
2909.06	64
2909.91	56
2910.76	62
2911.61	60
2912.46	58
2913.31	52
2914.16	58
2915.01	40
2915.86	44
2916.71	42
2917.56	44
2918.41	46
2919.26	42
2920.1	38
2920.95	30
2921.8	38
2922.65	40
2923.5	38
2924.34	36
2925.19	28
2926.04	28
2926.89	31
2927.74	30
2928.58	34
2929.43	32
2930.28	28
2931.12	33
2931.97	31
2932.82	31
2933.66	26
2934.51	34
2935.36	31
2936.2	29
2937.05	34
2937.89	28
2938.74	30
2939.59	28
2940.43	29
2941.28	30
2942.12	27
2942.97	30
2943.81	31
2944.66	30
2945.5	33
2946.35	29
2947.19	32
2948.04	34
2948.88	32
2949.72	34
2950.57	35
2951.41	32
2952.26	33
2953.1	36
2953.94	33
2954.79	34
2955.63	35
2956.47	44
2957.32	36
2958.16	42
2959	35
2959.85	36
2960.69	40
2961.53	42
2962.37	42
2963.22	42
2964.06	34
2964.9	42
2965.74	44
2966.58	42
2967.42	46
2968.27	44
2969.11	40
2969.95	38
2970.79	42
2971.63	39
2972.47	35
2973.31	38
2974.15	38
2974.99	38
2975.83	37
2976.68	38
2977.52	38
2978.36	38
2979.2	32
2980.04	26
2980.88	32
2981.71	34
2982.55	33
2983.39	33
2984.23	30
2985.07	31
2985.91	28
2986.75	28
2987.59	24
2988.43	23
2989.27	28
2990.1	29
2990.94	27
2991.78	29
2992.62	30
2993.46	27
2994.3	24
2995.13	28
2995.97	30
2996.81	27
2997.64	29
2998.48	24
2999.32	25
