#Acq. time (s)=	3
#Accumulations=	3
#Range (cm-¹)=	100...3000
#Windows=	3
#Autofocus=	Off
#AutoExposure=	Off
#Spike filter=	Multiple accum.
#Delay time (s)=	0
#Binning=	1
#Readout mode=	Signal
#DeNoise=	Off
#ICS correction=	Off
#Dark correction=	Off
#Inst. Process=	Off
#Instrument=	LabRAM HR Evol
#Detector=	Syncerity OE
#Objective=	x100_VIS_LWD
#Grating=	600 (500nm)
#ND Filter=	25%
#Laser=	633nm_Edge
#Hole=	100.021
#Range=	Visible
#Project=	Bolus
#Sample=	A3
#Site=	stripside
#Title=	m04
#Remark=	
#Date=	03.11.2025 18:13
#Acquired=	03.11.2025 18:13:04
100.969	29
102.252	35
103.535	37
104.818	33
106.101	32
107.384	36
108.666	32
109.948	34
111.232	36
112.514	28
113.795	32
115.077	32
116.358	36
117.639	32
118.919	34
120.2	28
121.48	40
122.76	34
124.04	30
125.32	34
126.599	35
127.879	33
129.158	37
130.436	34
131.715	36
132.992	34
134.27	35
135.548	42
136.826	35
138.104	39
139.381	37
140.658	34
141.935	35
143.212	38
144.489	40
145.763	46
147.04	35
148.315	37
149.591	39
150.867	37
152.142	40
153.416	40
154.691	42
155.965	37
157.24	44
158.514	36
159.786	40
161.06	39
162.334	43
163.607	46
164.881	40
166.152	38
167.425	40
168.698	34
169.969	43
171.241	35
172.513	41
173.785	37
175.055	41
176.326	40
177.597	42
178.867	42
180.137	43
181.408	43
182.677	40
183.947	44
185.217	39
186.485	44
187.755	36
189.022	46
190.291	41
191.56	40
192.828	44
194.096	38
195.363	46
196.631	39
197.899	40
199.165	38
200.432	37
201.698	40
202.965	41
204.23	37
205.497	36
206.762	32
208.028	42
209.293	41
210.559	30
211.823	39
213.088	37
214.352	36
215.617	36
216.88	28
218.145	36
219.408	32
220.672	36
221.934	34
223.196	34
224.46	38
225.722	38
226.985	32
228.246	37
229.508	38
230.77	33
232.031	34
233.292	30
234.554	32
235.814	28
237.074	37
238.335	37
239.595	34
240.854	32
242.115	35
243.374	34
244.633	37
245.893	35
247.151	30
248.409	28
249.667	37
250.927	31
252.184	33
253.442	32
254.699	32
255.957	33
257.214	35
258.47	33
259.727	32
260.983	34
262.24	34
263.496	35
264.752	30
266.007	34
267.262	36
268.517	26
269.773	32
271.028	35
272.282	26
273.536	32
274.79	33
276.044	31
277.297	32
278.551	30
279.804	34
281.057	32
282.31	32
283.564	34
284.816	30
286.068	31
287.32	36
288.572	28
289.823	33
291.074	31
292.325	34
293.576	30
294.827	30
296.077	31
297.328	32
298.578	32
299.828	36
301.077	30
302.325	30
303.575	30
304.824	33
306.073	29
307.321	31
308.57	24
309.818	36
311.066	32
312.314	26
313.562	25
314.808	28
316.055	28
317.302	32
318.549	30
319.796	35
321.042	30
322.288	30
323.533	34
324.779	27
326.024	28
327.27	32
328.515	27
329.759	34
331.004	31
332.248	31
333.493	33
334.736	27
335.98	33
337.223	38
338.466	30
339.709	33
340.952	36
342.195	29
343.437	33
344.68	32
345.922	32
347.163	34
348.405	27
349.647	33
350.887	32
352.128	28
353.37	36
354.609	33
355.85	32
357.089	33
358.33	30
359.57	33
360.809	30
362.049	29
363.287	29
364.526	31
365.764	30
367.003	30
368.241	30
369.479	29
370.718	34
371.955	31
373.193	33
374.429	35
375.667	28
376.903	30
378.139	32
379.376	33
380.611	36
381.848	30
383.083	31
384.319	33
385.554	29
386.79	30
388.024	34
389.258	30
390.493	29
391.727	28
392.962	27
394.195	29
395.428	28
396.663	36
397.895	30
399.128	29
400.361	33
401.593	28
402.825	28
404.058	33
405.29	30
406.521	31
407.752	32
408.985	32
410.215	29
411.446	28
412.678	31
413.908	34
415.138	30
416.367	36
417.597	32
418.828	31
420.057	29
421.286	32
422.514	30
423.743	34
424.973	32
426.201	31
427.429	32
428.657	31
429.884	30
431.112	32
432.34	34
433.567	33
434.794	29
436.02	34
437.247	32
438.473	34
439.699	30
440.925	32
442.15	27
443.376	33
444.601	36
445.826	30
447.051	30
448.275	32
449.5	30
450.724	36
451.948	34
453.172	32
454.396	32
455.619	32
456.842	33
458.065	26
459.288	37
460.511	28
461.733	34
462.956	32
464.178	36
465.4	33
466.621	32
467.843	43
469.064	36
470.285	36
471.505	33
472.726	38
473.946	38
475.166	41
476.387	38
477.606	43
478.825	39
480.044	44
481.264	44
482.483	48
483.702	53
484.921	47
486.138	46
487.356	60
488.574	51
489.792	57
491.009	59
492.226	49
493.444	59
494.661	43
495.877	48
497.094	57
498.31	38
499.525	49
500.741	45
501.958	46
503.172	42
504.388	43
505.603	40
506.817	43
508.032	41
509.247	41
510.46	38
511.675	38
512.888	36
514.102	38
515.316	34
516.528	34
517.742	35
518.954	35
520.167	39
521.378	38
522.591	31
523.802	33
525.015	32
526.226	35
527.438	34
528.648	30
529.86	31
531.07	27
532.281	32
533.491	35
534.702	32
535.911	34
537.121	32
538.33	30
539.54	35
540.749	37
541.957	30
543.167	30
544.375	36
545.584	33
546.791	34
547.999	31
549.207	30
550.414	32
551.621	34
552.829	34
554.035	32
555.241	30
556.449	34
557.655	32
558.86	31
560.066	28
561.272	34
562.477	28
563.682	32
564.888	31
566.093	31
567.297	35
568.501	29
569.705	36
570.91	28
572.114	36
573.317	33
574.52	37
575.723	33
576.927	34
578.13	29
579.332	33
580.535	28
581.737	34
582.938	35
584.14	37
585.343	31
586.544	34
587.745	30
588.946	32
590.147	31
591.347	34
592.548	31
593.748	32
594.948	28
596.147	31
597.347	35
598.546	24
599.745	32
600.944	33
602.143	34
603.342	34
604.54	32
605.738	26
606.937	32
608.134	27
609.332	29
610.529	30
611.727	36
612.924	28
614.121	32
615.317	29
616.513	30
617.709	27
618.905	35
620.101	36
621.297	32
622.492	33
623.688	38
624.883	33
626.077	30
627.271	37
628.466	32
629.66	32
630.855	33
632.047	32
633.241	30
634.435	30
635.629	28
636.82	29
638.014	30
639.207	32
640.399	30
641.59	32
642.783	32
643.975	25
645.166	34
646.357	36
647.549	34
648.741	32
649.93	39
651.122	34
652.311	33
653.502	36
654.692	28
655.881	33
657.071	30
658.261	33
659.45	34
660.639	31
661.827	36
663.016	28
664.204	31
665.393	31
666.581	34
667.769	35
668.957	36
670.143	30
671.331	35
672.518	37
673.705	37
674.891	34
676.078	34
677.264	32
678.451	24
679.636	31
680.821	37
682.007	30
683.192	34
684.378	34
685.562	39
686.747	39
687.931	36
689.115	38
690.3	32
691.483	40
692.666	33
693.851	40
695.034	33
696.216	38
697.4	37
698.582	38
699.764	32
700.948	38
702.129	40
703.311	40
704.493	40
705.674	40
706.855	42
708.036	48
709.218	51
710.399	36
711.579	50
712.759	46
713.939	35
715.12	40
716.299	40
717.478	38
718.657	41
719.836	34
721.015	30
722.195	34
723.373	35
724.552	40
725.729	32
726.907	30
728.085	34
729.262	37
730.44	30
731.617	37
732.795	30
733.972	30
735.148	30
736.324	31
737.501	26
738.677	32
739.852	34
741.028	32
742.203	32
743.379	36
744.554	34
745.729	34
746.903	33
748.078	30
749.252	28
750.426	30
751.599	31
752.772	28
753.946	35
755.119	36
756.293	36
757.466	33
758.639	36
759.811	33
760.984	35
762.155	27
763.327	32
764.499	32
765.67	38
766.842	30
768.013	32
769.183	30
770.354	31
771.525	26
772.696	33
773.865	33
775.035	30
776.205	34
777.375	35
778.544	22
779.713	31
780.882	32
782.052	34
783.219	35
784.388	38
785.557	35
786.724	33
787.892	31
789.06	32
790.227	36
791.395	35
792.562	35
793.728	34
794.895	26
796.061	30
797.228	33
798.395	30
799.56	32
800.726	34
801.891	28
803.057	30
804.221	37
805.387	32
806.551	30
807.716	35
808.879	28
810.044	34
811.208	37
812.372	35
813.535	34
814.699	30
815.862	34
817.025	30
818.188	24
819.351	31
820.513	34
821.675	33
822.837	34
823.999	29
825.161	31
826.322	28
827.483	33
828.645	32
829.805	30
830.966	27
832.127	24
833.287	30
834.447	26
835.607	35
836.767	30
837.926	35
839.085	31
840.245	32
841.404	35
842.562	34
843.72	31
844.88	30
846.038	33
847.195	36
848.353	28
849.512	35
850.669	30
851.826	28
852.983	36
854.139	36
855.296	30
856.453	31
857.609	36
858.765	35
859.921	33
861.077	33
862.232	34
863.387	34
864.542	35
865.697	28
866.852	24
868.008	30
869.162	30
870.316	32
871.47	32
872.624	34
873.778	31
874.931	35
876.084	38
877.237	30
878.39	28
879.543	31
880.695	30
881.846	28
882.999	34
884.151	33
885.302	32
886.454	31
887.606	32
888.757	26
889.908	32
891.059	23
892.21	31
893.359	25
894.509	30
895.659	29
896.81	32
897.959	33
899.109	36
900.257	26
901.407	26
902.556	28
903.705	30
904.854	32
906.001	36
907.149	34
908.298	30
909.446	28
910.592	28
911.74	32
912.888	34
914.034	29
915.181	26
916.328	32
917.473	34
918.62	35
919.766	32
920.911	32
922.058	28
923.204	31
924.348	28
925.494	35
926.638	35
927.783	26
928.928	31
930.072	34
931.216	28
932.36	34
933.504	28
934.647	30
935.791	30
936.933	33
938.077	24
939.219	31
940.363	29
941.504	31
942.647	33
943.789	31
944.932	30
946.073	29
947.215	30
948.356	27
949.498	32
950.638	26
951.778	32
952.92	32
954.06	34
955.199	30
956.34	32
957.479	30
958.62	32
959.759	28
960.898	28
962.038	24
963.176	28
964.315	26
965.453	31
966.592	30
967.73	28
968.867	32
970.006	31
971.144	31
972.281	28
973.418	30
974.554	28
975.692	27
976.829	28
977.965	27
979.101	28
980.237	29
981.374	28
982.509	28
983.645	33
984.78	28
985.915	29
987.05	28
988.184	26
989.319	34
990.453	28
991.589	29
992.722	27
993.856	22
994.99	33
996.123	30
997.257	37
998.39	28
999.523	32
1000.66	26
1001.79	29
1002.92	31
1004.05	28
1005.18	30
1006.32	33
1007.45	33
1008.58	33
1009.71	33
1010.84	32
1011.97	32
1013.1	29
1014.23	31
1015.36	26
1016.49	26
1017.62	31
1018.75	30
1019.88	32
1021.01	28
1022.14	29
1023.27	28
1024.4	31
1025.53	28
1026.66	31
1027.79	26
1028.91	26
1030.04	29
1031.17	30
1032.3	32
1033.42	30
1034.55	30
1035.68	34
1036.81	28
1037.93	32
1039.06	30
1040.18	31
1041.31	32
1042.44	24
1043.56	31
1044.69	26
1045.81	28
1046.94	29
1048.06	29
1049.19	31
1050.31	32
1051.44	30
1052.56	28
1053.69	28
1054.81	28
1055.93	22
1057.06	26
1058.18	33
1059.3	30
1060.43	28
1061.55	26
1062.67	30
1063.79	32
1064.92	31
1066.04	34
1067.16	24
1068.28	32
1069.4	31
1070.52	29
1071.65	29
1072.77	31
1073.89	24
1075.01	29
1076.13	26
1077.25	30
1078.37	30
1079.49	30
1080.61	28
1081.73	29
1082.85	26
1083.97	30
1085.09	30
1086.2	26
1087.32	26
1088.44	29
1089.56	30
1090.68	31
1091.8	32
1092.91	30
1094.03	28
1095.15	29
1096.26	28
1097.38	29
1098.5	30
1099.61	30
1100.73	29
1101.85	25
1102.96	30
1104.08	30
1105.19	31
1106.31	28
1107.43	29
1108.54	30
1109.66	26
1110.77	28
1111.88	26
1113	30
1114.11	27
1115.23	30
1116.34	34
1117.46	28
1118.57	28
1119.68	29
1120.8	30
1121.91	35
1123.02	34
1124.13	30
1125.25	32
1126.36	26
1127.47	28
1128.58	26
1129.69	26
1130.8	28
1131.92	31
1133.03	34
1134.14	25
1135.25	28
1136.36	31
1137.47	30
1138.58	31
1139.69	24
1140.8	32
1141.91	26
1143.02	33
1144.13	32
1145.24	27
1146.35	35
1147.46	29
1148.56	29
1149.67	28
1150.78	30
1151.89	31
1153	30
1154.1	26
1155.21	32
1156.32	27
1157.43	27
1158.53	28
1159.64	29
1160.75	28
1161.85	30
1162.96	28
1164.07	31
1165.17	32
1166.28	28
1167.38	31
1168.49	32
1169.59	27
1170.7	28
1171.8	26
1172.91	30
1174.01	34
1175.12	25
1176.22	30
1177.32	30
1178.43	26
1179.53	24
1180.64	24
1181.74	26
1182.84	33
1183.94	26
1185.05	27
1186.15	27
1187.25	28
1188.35	26
1189.46	32
1190.56	32
1191.66	31
1192.76	26
1193.86	31
1194.96	27
1196.06	27.9706
1197.16	27.9284
1198.26	26.0744
1199.37	28.0382
1200.47	24.0882
1201.57	30.7304
1202.67	27.976
1203.77	32.8241
1204.86	31.6901
1205.96	27.6715
1207.06	28.4853
1208.16	31.3312
1209.26	28.1254
1210.36	28.8636
1211.46	27.8587
1212.56	26.6068
1213.65	22.9797
1214.75	22.6778
1215.85	27.8244
1216.95	25.5418
1218.04	27.7733
1219.14	28.4533
1220.24	28.7794
1221.33	27.6825
1222.43	29.3404
1223.53	27.8379
1224.62	27.7117
1225.72	27.2696
1226.82	30.6388
1227.91	30.8881
1229.01	28.7696
1230.1	29.7396
1231.2	25.5578
1232.29	26.2151
1233.39	28.543
1234.48	29.0243
1235.58	27.3524
1236.67	28.6703
1237.77	25.8398
1238.86	29.0835
1239.95	28.4749
1241.05	30.1572
1242.14	27.0131
1243.23	26.5037
1244.33	30.9389
1245.42	28.977
1246.51	28.2053
1247.61	27.366
1248.7	28.1471
1249.79	26.1912
1250.88	26.3254
1251.97	27.0053
1253.07	28.7227
1254.16	26
1255.25	29.6526
1256.34	30.7273
1257.43	30.5028
1258.52	30.2158
1259.61	24.4474
1260.7	27.0822
1261.79	28.1806
1262.88	30.1486
1263.97	30.5145
1265.06	27.8009
1266.15	26.9644
1267.24	28.8502
1268.33	30.1607
1269.42	28.3258
1270.51	30.3284
1271.6	28.2495
1272.68	29.286
1273.77	28.6161
1274.86	29.0812
1275.95	26.5588
1277.04	27.3135
1278.12	28.2136
1279.21	24.1564
1280.3	27.232
1281.39	23.8081
1282.47	27.6334
1283.56	27.2001
1284.65	25.2872
1285.73	27.0786
1286.82	30.319
1287.91	28.2973
1288.99	25.9403
1290.08	25.7182
1291.16	25.6162
1292.25	23.7921
1293.33	29.12
1294.42	29.533
1295.5	27.4229
1296.59	27.8137
1297.67	28.0246
1298.76	28.9889
1299.84	30.0418
1300.92	24.6035
1302.01	28.462
1303.09	31.788
1304.17	29.2126
1305.26	22.6351
1306.34	28.2517
1307.34	31
1308.43	24
1309.52	34
1310.61	32
1311.7	32
1312.78	26
1313.87	26
1314.96	28
1316.04	28
1317.13	29
1318.22	26
1319.3	24
1320.39	31
1321.48	26
1322.56	28
1323.65	26
1324.73	33
1325.82	22
1326.9	26
1327.99	29
1329.07	22
1330.16	31
1331.24	24
1332.33	27
1333.41	28
1334.5	30
1335.58	30
1336.66	32
1337.75	24
1338.83	24
1339.91	20
1341	27
1342.08	24
1343.16	30
1344.24	29
1345.33	25
1346.41	22
1347.49	28
1348.57	28
1349.65	32
1350.74	26
1351.82	30
1352.9	30
1353.98	27
1355.06	26
1356.14	28
1357.22	28
1358.3	29
1359.38	30
1360.46	22
1361.54	26
1362.62	30
1363.7	30
1364.78	28
1365.86	32
1366.94	24
1368.02	28
1369.09	25
1370.17	30
1371.25	31
1372.33	26
1373.41	32
1374.48	32
1375.56	26
1376.64	22
1377.72	26
1378.79	29
1379.87	30
1380.95	31
1382.02	24
1383.1	27
1384.17	30
1385.25	28
1386.33	29
1387.4	36
1388.48	29
1389.55	27
1390.63	30
1391.7	30
1392.78	30
1393.85	30
1394.93	29
1396	26
1397.07	30
1398.15	35
1399.22	30
1400.3	33
1401.37	35
1402.44	28
1403.52	34
1404.59	32
1405.66	38
1406.73	28
1407.81	34
1408.88	34
1409.95	26
1411.02	30
1412.09	35
1413.17	33
1414.24	35
1415.31	34
1416.38	36
1417.45	33
1418.52	30
1419.59	35
1420.66	32
1421.73	33
1422.8	31
1423.87	28
1424.94	22
1426.01	31
1427.08	26
1428.15	30
1429.22	28
1430.29	26
1431.35	31
1432.42	29
1433.49	32
1434.56	24
1435.63	30
1436.69	27
1437.76	25
1438.83	31
1439.9	28
1440.96	30
1442.03	26
1443.1	30
1444.17	28
1445.23	29
1446.3	26
1447.36	26
1448.43	29
1449.49	25
1450.56	30
1451.63	30
1452.69	28
1453.76	25
1454.82	32
1455.89	23
1456.95	26
1458.01	28
1459.08	32
1460.14	26
1461.21	30
1462.27	26
1463.34	32
1464.4	25
1465.46	30
1466.52	24
1467.59	31
1468.65	28
1469.71	24
1470.77	26
1471.84	31
1472.9	26
1473.96	31
1475.02	28
1476.08	30
1477.15	26
1478.21	29
1479.27	26
1480.33	30
1481.39	29
1482.45	26
1483.51	26
1484.57	26
1485.63	28
1486.69	31
1487.75	30
1488.81	27
1489.87	22
1490.93	28
1491.99	28
1493.05	28
1494.1	30
1495.16	24
1496.22	30
1497.28	29
1498.34	33
1499.4	31
1500.45	28
1501.51	28
1502.57	30
1503.63	26
1504.68	24
1505.74	32
1506.8	26
1507.85	28
1508.91	28
1509.97	28
1511.02	31
1512.08	22
1513.13	28
1514.19	27
1515.24	26
1516.3	26
1517.35	30
1518.41	30
1519.46	30
1520.52	28
1521.57	30
1522.63	28
1523.68	26
1524.73	28
1525.79	27
1526.84	32
1527.9	33
1528.95	24
1530	28
1531.05	27
1532.11	32
1533.16	30
1534.21	26
1535.26	35
1536.32	24
1537.37	29
1538.42	27
1539.47	30
1540.52	31
1541.57	29
1542.63	28
1543.68	28
1544.73	26
1545.78	28
1546.83	33
1547.88	31
1548.93	32
1549.98	33
1551.03	24
1552.08	30
1553.13	26
1554.18	30
1555.23	28
1556.27	32
1557.32	27
1558.37	30
1559.42	30
1560.47	32
1561.52	25
1562.56	28
1563.61	26
1564.66	28
1565.71	24
1566.75	34
1567.8	26
1568.85	27
1569.9	35
1570.94	34
1571.99	27
1573.03	28
1574.08	29
1575.13	26
1576.17	34
1577.22	34
1578.26	30
1579.31	32
1580.35	26
1581.4	30
1582.44	28
1583.49	30
1584.53	32
1585.58	31
1586.62	24
1587.66	27
1588.71	31
1589.75	24
1590.8	30
1591.84	30
1592.88	28
1593.92	34
1594.97	32
1596.01	32
1597.05	29
1598.1	26
1599.14	28
1600.18	26
1601.22	26
1602.26	30
1603.3	25
1604.35	31
1605.39	26
1606.43	28
1607.47	30
1608.51	32
1609.55	22
1610.59	24
1611.63	29
1612.67	31
1613.71	28
1614.75	28
1615.79	25
1616.83	28
1617.87	26
1618.91	28
1619.95	31
1620.99	22
1622.02	30
1623.06	28
1624.1	28
1625.14	33
1626.18	28
1627.21	32
1628.25	30
1629.29	29
1630.33	28
1631.36	31
1632.4	30
1633.44	26
1634.48	29
1635.51	30
1636.55	26
1637.58	31
1638.62	32
1639.66	30
1640.69	33
1641.73	33
1642.76	28
1643.8	26
1644.83	31
1645.87	29
1646.9	27
1647.94	27
1648.97	29
1650	27
1651.04	28
1652.07	30
1653.11	30
1654.14	28
1655.17	29
1656.21	30
1657.24	31
1658.27	26
1659.31	31
1660.34	28
1661.37	25
1662.4	26
1663.43	29
1664.47	30
1665.5	24
1666.53	24
1667.56	30
1668.59	28
1669.62	29
1670.66	29
1671.69	30
1672.72	30
1673.75	34
1674.78	30
1675.81	30
1676.84	31
1677.87	32
1678.9	28
1679.93	30
1680.96	31
1681.98	30
1683.01	25
1684.04	25
1685.07	30
1686.1	28
1687.13	32
1688.16	28
1689.18	32
1690.21	28
1691.24	28
1692.27	25
1693.3	26
1694.32	30
1695.35	28
1696.38	27
1697.4	29
1698.43	34
1699.46	26
1700.48	32
1701.51	27
1702.54	30
1703.56	37
1704.59	26
1705.61	30
1706.64	29
1707.66	28
1708.69	28
1709.71	29
1710.74	28
1711.76	25
1712.79	27
1713.81	32
1714.83	29
1715.86	28
1716.88	27
1717.91	32
1718.93	32
1719.95	25
1720.98	30
1722	30
1723.02	30
1724.04	24
1725.07	34
1726.09	29
1727.11	32
1728.13	29
1729.15	32
1730.18	25
1731.2	26
1732.22	32
1733.24	24
1734.26	31
1735.28	33
1736.3	30
1737.32	31
1738.34	29
1739.36	30
1740.38	31
1741.4	28
1742.42	32
1743.44	28
1744.46	31
1745.48	26
1746.5	28
1747.52	34
1748.54	25
1749.56	29
1750.58	28
1751.6	32
1752.61	28
1753.63	27
1754.65	28
1755.67	25
1756.68	26
1757.7	30
1758.72	34
1759.74	27
1760.75	31
1761.77	32
1762.79	33
1763.8	31
1764.82	28
1765.83	28
1766.85	26
1767.87	24
1768.88	32
1769.9	31
1770.91	33
1771.93	33
1772.94	22
1773.96	28
1774.97	26
1775.99	30
1777	28
1778.02	27
1779.03	30
1780.04	28
1781.06	24
1782.07	28
1783.09	26
1784.1	28
1785.11	29
1786.13	31
1787.14	25
1788.15	29
1789.16	32
1790.18	22
1791.19	29
1792.2	30
1793.21	28
1794.22	30
1795.23	24
1796.25	24
1797.26	28
1798.27	27
1799.28	28
1800.29	28
1801.3	29
1802.31	28
1803.32	31
1804.33	26
1805.34	28
1806.35	29
1807.36	26
1808.37	26
1809.38	28
1810.39	30
1811.4	28
1812.41	28
1813.42	28
1814.42	30
1815.43	30
1816.44	31
1817.45	26
1818.46	29
1819.47	26
1820.47	26
1821.48	31
1822.49	29
1823.49	30
1824.5	31
1825.51	28
1826.52	28
1827.52	31
1828.53	27
1829.53	29
1830.54	26
1831.55	34
1832.55	29
1833.56	30
1834.56	26
1835.57	31
1836.57	26
1837.58	30
1838.58	26
1839.59	20
1840.59	25
1841.6	33
1842.6	32
1843.61	28
1844.61	31
1845.61	30
1846.62	29
1847.62	28
1848.62	26
1849.63	26
1850.63	28
1851.63	28
1852.64	27
1853.64	28
1854.64	27
1855.64	30
1856.64	30
1857.65	28
1858.65	30
1859.65	28
1860.65	28
1861.65	22
1862.65	32
1863.65	30
1864.66	30
1865.66	26
1866.66	30
1867.66	32
1868.66	30
1869.66	27
1870.66	28
1871.66	31
1872.66	32
1873.66	28
1874.66	28
1875.65	26
1876.65	25
1877.65	26
1878.65	24
1879.65	26
1880.65	32
1881.65	34
1882.64	26
1883.64	27
1884.64	28
1885.64	22
1886.63	29
1887.63	28
1888.63	26
1889.63	26
1890.62	29
1891.62	25
1892.62	24
1893.61	28
1894.61	26
1895.6	29
1896.6	25
1897.6	28
1898.59	28
1899.59	32
1900.58	27
1901.58	31
1902.57	26
1903.57	28
1904.56	27
1905.56	32
1906.55	27
1907.54	30
1908.54	34
1909.53	28
1910.53	30
1911.52	26
1912.51	29
1913.51	26
1914.5	28
1915.49	22
1916.49	31
1917.48	30
1918.47	26
1919.46	31
1920.46	26
1921.45	26
1922.44	24
1923.43	27
1924.42	31
1925.41	28
1926.41	23
1927.4	26
1928.39	33
1929.38	28
1930.37	28
1931.36	29
1932.35	30
1933.34	30
1934.33	28
1935.32	26
1936.31	29
1937.3	27
1938.29	29
1939.28	28
1940.27	31
1941.26	28
1942.24	28
1943.23	27
1944.22	26
1945.21	27
1946.2	30
1947.19	31
1948.17	28
1949.16	28
1950.15	29.5
1951.14	31
1952.12	29
1953.11	22
1954.1	31
1955.09	27
1956.07	25
1957.06	30
1958.05	24
1959.03	28
1960.02	30
1961	22
1961.99	28
1962.98	25
1963.96	34
1964.95	28
1965.93	24
1966.92	26
1967.9	25
1968.89	25
1969.87	26
1970.85	26
1971.84	25
1972.82	25
1973.81	30
1974.79	23
1975.78	31
1976.76	26
1977.74	27
1978.73	24
1979.71	23
1980.69	31
1981.67	27
1982.66	24
1983.64	27
1984.62	22
1985.6	24
1986.59	31
1987.57	26
1988.55	24
1989.53	26
1990.51	26
1991.49	26
1992.47	22
1993.45	22
1994.44	30
1995.42	27
1996.4	31
1997.38	28
1998.36	30
1999.34	26
2000.32	28
2001.3	29
2002.28	28
2003.26	27
2004.24	25
2005.22	22
2006.19	26
2007.17	23
2008.15	28
2009.13	24
2010.11	24
2011.09	29
2012.06	31
2013.04	26
2014.02	28
2015	26
2015.98	30
2016.95	24
2017.93	25
2018.91	28
2019.88	26
2020.86	31
2021.84	24
2022.81	24
2023.79	29
2024.77	33
2025.74	31
2026.72	28
2027.69	26
2028.67	30
2029.65	27
2030.62	29
2031.6	28
2032.57	24
2033.55	22
2034.52	23
2035.5	26
2036.47	28
2037.44	22
2038.42	30
2039.39	26
2040.36	30
2041.34	24
2042.31	24
2043.29	28
2044.26	27
2045.23	28
2046.2	20
2047.18	28
2048.15	30
2049.12	25
2050.09	30
2051.07	24
2052.04	26
2053.01	26
2053.98	28
2054.95	26
2055.93	28
2056.9	25
2057.87	26
2058.84	27
2059.81	28
2060.78	30
2061.75	26
2062.72	24
2063.69	28
2064.66	26
2065.63	28
2066.6	26
2067.57	32
2068.54	22
2069.51	26
2070.48	22
2071.45	33
2072.42	32
2073.38	28
2074.35	27
2075.32	30
2076.29	26
2077.26	24
2078.23	28
2079.19	24
2080.16	24
2081.13	22
2082.1	24
2083.06	24
2084.03	30
2085	26
2085.96	28
2086.93	25
2087.9	25
2088.86	30
2089.83	26
2090.8	16
2091.76	25
2092.73	30
2093.69	27
2094.66	24
2095.62	24
2096.59	26
2097.55	26
2098.52	27
2099.48	24
2100.45	22
2101.41	26
2102.38	30
2103.34	29
2104.31	26
2105.27	27
2106.23	25
2107.2	26
2108.16	28
2109.12	26
2110.09	29
2111.05	28
2112.01	28
2112.98	22
2113.94	28
2114.9	27
2115.86	30
2116.82	24
2117.79	26
2118.75	32
2119.71	26
2120.67	26
2121.63	26
2122.59	25
2123.55	27
2124.52	26
2125.48	27
2126.44	28
2127.4	28
2128.36	26
2129.32	22
2130.28	26
2131.24	29
2132.2	26
2133.16	28
2134.12	24
2135.08	20
2136.04	16
2136.99	28
2137.95	28
2138.91	29
2139.87	23
2140.83	24
2141.79	28
2142.75	27
2143.7	22
2144.66	30
2145.62	23.9778
2146.58	24.0067
2147.53	26.0673
2148.49	27.9258
2149.45	30.6912
2150.41	22.1193
2151.36	24.1912
2152.32	20.4748
2153.27	21.6852
2154.23	27.446
2155.19	27.4995
2156.14	25.9907
2157.1	25.7639
2158.06	26.8676
2159.01	27.7194
2159.97	21.8956
2160.92	30.3898
2161.88	23.3431
2162.83	24.1857
2163.79	25.7647
2164.74	29.998
2165.7	22.6343
2166.65	21.8824
2167.61	24.6408
2168.56	25.0273
2169.51	22.7278
2170.47	27.459
2171.42	26.1803
2172.38	27.6829
2173.33	28.3078
2174.28	28.3531
2175.24	25.0793
2176.19	23.1942
2177.14	26.3202
2178.09	27.6471
2179.05	25.3094
2180	22.5216
2180.95	27.8996
2181.9	22.3371
2182.86	26.0839
2183.81	25.9435
2184.76	28.5069
2185.71	27.535
2186.66	27.5956
2187.61	22.8725
2188.57	26.9908
2189.52	23.3364
2190.47	26.135
2191.42	22.1113
2192.37	24.8236
2193.32	25.3208
2194.27	23.9044
2195.22	24.6253
2196.17	23.722
2197.12	24.6368
2198.07	25.7862
2199.02	28.7211
2199.97	24.5063
2200.92	23.3468
2201.87	25.8611
2202.82	26.8421
2203.76	24.9618
2204.71	22.9087
2205.66	26.5155
2206.61	24.4748
2207.56	24.8662
2208.51	25.9868
2209.45	24.6453
2210.4	27.028
2211.35	25.9961
2212.3	24.7233
2213.24	25.6083
2214.19	26.7733
2215.14	23.4644
2216.09	22.2222
2217.03	23.4154
2217.98	26.8476
2218.93	29.9152
2219.87	24.7742
2220.82	24.9451
2221.77	26.2992
2222.71	26.3089
2223.66	25.5234
2224.6	24.0624
2225.55	26.1755
2226.49	27.3529
2227.44	26.732
2228.38	22.7674
2229.33	24.7719
2230.27	27.3721
2231.22	26.8702
2232.16	26
2233.11	25.2357
2234.05	24.8057
2235	24.4186
2235.94	25.781
2236.88	26.265
2237.83	25.0294
2238.77	25.2174
2239.71	26.0245
2240.66	23.6371
2241.6	25.4936
2242	28
2242.95	28
2243.9	22
2244.84	27
2245.79	24
2246.74	24
2247.69	26
2248.63	25
2249.58	22
2250.53	24
2251.47	34
2252.42	24
2253.37	24
2254.31	28
2255.26	19
2256.2	28
2257.15	24
2258.1	27
2259.04	27
2259.99	24
2260.93	24
2261.88	22
2262.82	27
2263.77	26
2264.71	28
2265.65	27
2266.6	30
2267.54	24
2268.49	27
2269.43	26
2270.38	29
2271.32	26
2272.26	28
2273.21	29
2274.15	28
2275.09	24
2276.04	28
2276.98	30
2277.92	25
2278.86	20
2279.81	23
2280.75	27
2281.69	28
2282.63	16
2283.57	25
2284.52	24
2285.46	24
2286.4	24
2287.34	24
2288.28	24
2289.22	24
2290.16	28
2291.1	26
2292.04	28
2292.98	27
2293.93	24
2294.86	27
2295.8	30
2296.74	28
2297.69	22
2298.62	24
2299.56	25
2300.5	30
2301.44	28
2302.38	26
2303.32	28
2304.26	26
2305.2	29
2306.14	28
2307.07	18
2308.01	26
2308.95	24
2309.89	22
2310.83	27
2311.76	27
2312.7	29
2313.64	28
2314.58	28
2315.51	27
2316.45	22
2317.39	22
2318.32	24
2319.26	22
2320.2	26
2321.13	28
2322.07	18
2323	31
2323.94	24
2324.88	31
2325.81	25
2326.75	24
2327.68	27
2328.62	29
2329.55	28
2330.49	27
2331.42	22
2332.36	25
2333.29	24
2334.22	25
2335.16	25
2336.09	31
2337.03	34
2337.96	26
2338.89	29
2339.83	24
2340.76	25
2341.69	26
2342.63	32
2343.56	26
2344.49	28
2345.43	30
2346.36	30
2347.29	22
2348.22	28
2349.15	26
2350.09	26
2351.02	27
2351.95	31
2352.88	27
2353.81	28
2354.74	23
2355.67	27
2356.61	30
2357.54	27
2358.47	24
2359.4	30
2360.33	30
2361.26	29
2362.19	27
2363.12	30
2364.05	24
2364.98	25
2365.91	32
2366.84	26
2367.77	28
2368.7	25
2369.62	22
2370.55	25
2371.48	28
2372.41	26
2373.34	27
2374.27	28
2375.2	26
2376.12	26
2377.05	28
2377.98	28
2378.91	24
2379.83	26
2380.76	21
2381.69	29
2382.62	28
2383.54	26
2384.47	25
2385.4	30
2386.32	26
2387.25	24
2388.18	25
2389.1	24
2390.03	25
2390.95	27
2391.88	22
2392.81	26
2393.73	26
2394.66	27
2395.58	24
2396.51	30
2397.43	20
2398.36	28
2399.28	30
2400.2	30
2401.13	22
2402.05	22
2402.98	26
2403.9	29
2404.83	26
2405.75	24
2406.67	32
2407.6	29
2408.52	27
2409.44	23
2410.37	29
2411.29	26
2412.21	28
2413.13	22
2414.06	24
2414.98	26
2415.9	27
2416.82	29
2417.74	22
2418.67	27
2419.59	29
2420.51	24
2421.43	28
2422.35	24
2423.27	29
2424.19	24
2425.11	27
2426.03	26
2426.96	29
2427.88	26
2428.8	27
2429.72	31
2430.64	26
2431.56	33
2432.48	25
2433.39	26
2434.31	22
2435.23	28
2436.15	25
2437.07	32
2437.99	31
2438.91	25
2439.83	30
2440.75	26
2441.67	30
2442.58	18
2443.5	26
2444.42	24
2445.34	28
2446.26	24
2447.17	26
2448.09	20
2449.01	27
2449.92	27
2450.84	26
2451.76	22
2452.68	26
2453.59	27
2454.51	24
2455.42	29
2456.34	22
2457.26	25
2458.17	25
2459.09	26
2460	27
2460.92	30
2461.83	24
2462.75	24
2463.66	27
2464.58	29
2465.49	27
2466.41	28
2467.32	28
2468.24	26
2469.15	26
2470.07	28
2470.98	26
2471.89	28
2472.81	28
2473.72	24
2474.64	24
2475.55	22
2476.46	24
2477.37	25
2478.29	26
2479.2	26
2480.11	28
2481.03	28
2481.94	28
2482.85	28
2483.76	24
2484.67	25
2485.59	25
2486.5	28
2487.41	29
2488.32	28
2489.23	22
2490.14	24
2491.05	26
2491.97	24
2492.88	28
2493.79	27
2494.7	30
2495.61	26
2496.52	28
2497.43	22
2498.34	27
2499.25	24
2500.16	31
2501.07	33
2501.98	26
2502.89	22
2503.79	28
2504.7	29
2505.61	30
2506.52	26
2507.43	30
2508.34	29
2509.25	28
2510.16	30
2511.06	29
2511.97	26
2512.88	29
2513.79	25
2514.69	30
2515.6	30
2516.51	31
2517.42	22
2518.32	30
2519.23	29
2520.14	26
2521.04	32
2521.95	31
2522.86	26
2523.76	25
2524.67	26
2525.57	26
2526.48	33
2527.39	31
2528.29	27
2529.2	20
2530.1	31
2531.01	24
2531.91	28
2532.82	32
2533.72	28
2534.63	29
2535.53	32
2536.44	23
2537.34	30
2538.24	26
2539.15	24
2540.05	34
2540.96	24
2541.86	28
2542.76	28
2543.67	24
2544.57	27
2545.47	26
2546.37	24
2547.28	26
2548.18	25
2549.08	26
2549.99	24
2550.89	27
2551.79	24
2552.69	30
2553.59	27
2554.49	26
2555.4	25
2556.3	30
2557.2	26
2558.1	28
2559	26
2559.9	30
2560.8	28
2561.7	30
2562.6	25
2563.5	28
2564.4	23
2565.3	30
2566.2	28
2567.1	30
2568	24
2568.9	22
2569.8	32
2570.7	27
2571.6	28
2572.5	33
2573.4	24
2574.3	28
2575.2	29
2576.1	27
2576.99	25
2577.89	28
2578.79	35
2579.69	25
2580.59	28
2581.48	24
2582.38	25
2583.28	26
2584.18	30
2585.07	26
2585.97	24
2586.87	20
2587.76	29
2588.66	26
2589.56	26
2590.45	35
2591.35	26
2592.25	21
2593.14	27
2594.04	25
2594.93	31
2595.83	30
2596.73	28
2597.62	22
2598.52	28
2599.41	26
2600.31	29
2601.2	34
2602.1	24
2602.99	28
2603.88	29
2604.78	29
2605.67	27
2606.57	27
2607.46	28
2608.35	26
2609.25	32
2610.14	33
2611.03	33
2611.93	25
2612.82	28
2613.71	28
2614.61	30
2615.5	28
2616.39	24
2617.29	27
2618.18	27
2619.07	28
2619.96	27
2620.85	28
2621.75	25
2622.64	26
2623.53	24
2624.42	26
2625.31	20
2626.2	28
2627.09	26
2627.98	30
2628.88	26
2629.77	29
2630.66	28
2631.55	31
2632.44	28
2633.33	30
2634.22	27
2635.11	31
2636	32
2636.89	30
2637.78	28
2638.66	24
2639.55	28
2640.44	26
2641.33	25
2642.22	28
2643.11	24
2644	25
2644.89	27
2645.78	28
2646.66	25
2647.55	30
2648.44	24
2649.33	30
2650.21	25
2651.1	23
2651.99	29
2652.88	24
2653.76	29
2654.65	26
2655.54	30
2656.42	29
2657.31	28
2658.2	26
2659.08	24
2659.97	23
2660.86	25
2661.74	30
2662.63	28
2663.51	26
2664.4	25
2665.29	28
2666.17	26
2667.06	28
2667.94	28
2668.83	28
2669.71	26
2670.6	28
2671.48	22
2672.36	24
2673.25	24
2674.13	27
2675.02	29
2675.9	28
2676.78	28
2677.67	30
2678.55	31
2679.43	28
2680.32	32
2681.2	28
2682.08	25
2682.97	28
2683.85	25
2684.73	25
2685.61	28
2686.5	25
2687.38	20
2688.26	29
2689.14	23
2690.03	26
2690.91	28
2691.79	27
2692.67	28
2693.55	30
2694.43	32
2695.31	24
2696.19	24
2697.08	24
2697.96	26
2698.84	26
2699.72	30
2700.6	25
2701.48	31
2702.36	27
2703.24	28
2704.12	24
2705	24
2705.88	30
2706.76	30
2707.64	24
2708.51	29
2709.39	29
2710.27	31
2711.15	31
2712.03	30
2712.91	30
2713.79	26
2714.67	27
2715.54	28
2716.42	26
2717.3	26
2718.18	31
2719.05	26
2719.93	24
2720.81	29
2721.69	28
2722.56	30
2723.44	30
2724.32	26
2725.19	28
2726.07	28
2726.95	28
2727.82	27
2728.7	30
2729.58	28
2730.45	31
2731.33	28
2732.2	28
2733.08	26
2733.95	24
2734.83	26
2735.7	28
2736.58	26
2737.45	26
2738.33	26
2739.2	26
2740.08	27
2740.95	24
2741.83	26
2742.7	24
2743.58	31
2744.45	29
2745.32	28
2746.2	27
2747.07	29
2747.94	26
2748.82	29
2749.69	27
2750.56	27
2751.44	28
2752.31	26
2753.18	27
2754.05	23
2754.93	26
2755.8	26
2756.67	24
2757.54	25
2758.42	22
2759.29	28
2760.16	28
2761.03	26
2761.9	28
2762.77	25
2763.64	28
2764.51	26
2765.38	25
2766.26	24
2767.13	24
2768	29
2768.87	27
2769.74	28
2770.61	34
2771.48	30
2772.35	26
2773.22	27
2774.09	22
2774.96	28
2775.83	30
2776.7	25
2777.56	30
2778.43	24
2779.3	30
2780.17	24
2781.04	30
2781.91	26
2782.78	24
2783.64	26
2784.51	26
2785.38	28
2786.25	28
2787.12	24
2787.98	29
2788.85	28
2789.72	26
2790.59	28
2791.45	31
2792.32	24
2793.19	30
2794.05	28
2794.92	32
2795.79	23
2796.65	28
2797.52	27
2798.38	28
2799.25	28
2800.12	32
2800.98	34
2801.85	32
2802.71	26
2803.58	28
2804.44	30
2805.31	28
2806.17	20
2807.04	30
2807.9	31
2808.77	24
2809.63	30
2810.5	31
2811.36	28
2812.22	29
2813.09	32
2813.95	28
2814.82	28
2815.68	28
2816.54	26
2817.41	28
2818.27	27
2819.13	30
2820	30
2820.86	30
2821.72	32
2822.58	26
2823.45	26
2824.31	27
2825.17	29
2826.03	28
2826.9	28
2827.76	25
2828.62	26
2829.48	30
2830.34	27
2831.2	34
2832.06	32
2832.92	33
2833.79	28
2834.65	27
2835.51	34
2836.37	28
2837.23	27
2838.09	31
2838.95	30
2839.81	30
2840.67	28
2841.53	29
2842.39	28
2843.25	28
2844.11	26
2844.97	29
2845.83	25
2846.68	30
2847.54	32
2848.4	30
2849.26	33
2850.12	28
2850.98	24
2851.84	27
2852.69	31
2853.55	28
2854.41	32
2855.27	28
2856.13	26
2856.98	24
2857.84	32
2858.7	30
2859.56	27
2860.41	26
2861.27	30
2862.13	25
2862.98	30
2863.84	26
2864.7	29
2865.55	26
2866.41	28
2867.27	29
2868.12	29
2868.98	30
2869.83	24
2870.69	32
2871.54	28
2872.4	28
2873.25	30
2874.11	28
2874.96	28
2875.82	28
2876.68	32
2877.53	28
2878.38	30
2879.24	29
2880.09	32
2880.95	33
2881.8	37
2882.65	34
2883.51	30
2884.36	33
2885.22	33
2886.07	34
2886.92	35
2887.77	34
2888.63	33
2889.48	32
2890.33	41
2891.19	40
2892.04	34
2892.89	38
2893.74	39
2894.6	41
2895.45	37
2896.3	46
2897.15	44
2898	42
2898.85	45
2899.71	46
2900.56	51
2901.41	52
2902.26	52
2903.11	50
2903.96	57
2904.81	54
2905.66	54
2906.51	58
2907.36	62
2908.21	56
2909.06	61
2909.91	58
2910.76	53
2911.61	52
2912.46	50
2913.31	50
2914.16	46
2915.01	44
2915.86	45
2916.71	39
2917.56	43
2918.41	36
2919.26	36
2920.1	43
2920.95	38
2921.8	35
2922.65	38
2923.5	33
2924.34	34
2925.19	31
2926.04	30
2926.89	29
2927.74	22
2928.58	26
2929.43	32
2930.28	30
2931.12	33
2931.97	28
2932.82	32
2933.66	27
2934.51	31
2935.36	27
2936.2	32
2937.05	35
2937.89	24
2938.74	29
2939.59	28
2940.43	32
2941.28	31
2942.12	25
2942.97	34
2943.81	33
2944.66	27
2945.5	36
2946.35	31
2947.19	30
2948.04	28
2948.88	28
2949.72	29
2950.57	31
2951.41	30
2952.26	34
2953.1	32
2953.94	28
2954.79	32
2955.63	32
2956.47	33
2957.32	39
2958.16	32
2959	36
2959.85	32
2960.69	36
2961.53	32
2962.37	42
2963.22	38
2964.06	42
2964.9	39
2965.74	40
2966.58	38
2967.42	36
2968.27	43
2969.11	40
2969.95	34
2970.79	37
2971.63	28
2972.47	38
2973.31	37
2974.15	35
2974.99	35
2975.83	38
2976.68	35
2977.52	32
2978.36	30
2979.2	32
2980.04	32
2980.88	24
2981.71	30
2982.55	29
2983.39	24
2984.23	29
2985.07	34
2985.91	28
2986.75	28
2987.59	27
2988.43	22
2989.27	34
2990.1	28
2990.94	27
2991.78	26
2992.62	27
2993.46	30
2994.3	24
2995.13	30
2995.97	28
2996.81	24
2997.64	20
2998.48	28
2999.32	27
