#Acq. time (s)=	3
#Accumulations=	3
#Range (cm-¹)=	100...3000
#Windows=	3
#Autofocus=	Off
#AutoExposure=	Off
#Spike filter=	Multiple accum.
#Delay time (s)=	0
#Binning=	1
#Readout mode=	Signal
#DeNoise=	Off
#ICS correction=	Off
#Dark correction=	Off
#Inst. Process=	Off
#Instrument=	LabRAM HR Evol
#Detector=	Syncerity OE
#Objective=	x100_VIS_LWD
#Grating=	600 (500nm)
#ND Filter=	25%
#Laser=	633nm_Edge
#Hole=	100.021
#Range=	Visible
#Project=	Bolus
#Sample=	A3
#Site=	stripside
#Title=	m05
#Remark=	
#Date=	03.11.2025 18:14
#Acquired=	03.11.2025 18:14:21
100.969	34
102.252	31
103.535	40
104.818	34
106.101	34
107.384	35
108.666	34
109.948	32
111.232	32
112.514	30
113.795	30
115.077	34
116.358	34
117.639	37
118.919	33
120.2	28
121.48	36
122.76	32
124.04	36
125.32	35
126.599	38
127.879	40
129.158	29
130.436	40
131.715	35
132.992	41
134.27	40
135.548	34
136.826	38
138.104	34
139.381	37
140.658	39
141.935	34
143.212	34
144.489	38
145.763	41
147.04	37
148.315	43
149.591	42
150.867	40
152.142	41
153.416	39
154.691	46
155.965	43
157.24	47
158.514	42
159.786	43
161.06	43
162.334	46
163.607	43
164.881	44
166.152	38
167.425	45
168.698	38
169.969	42
171.241	36
172.513	40
173.785	36
175.055	40
176.326	36
177.597	40
178.867	42
180.137	41
181.408	39
182.677	42
183.947	38
185.217	42
186.485	40
187.755	45
189.022	41
190.291	46
191.56	42
192.828	46
194.096	40
195.363	46
196.631	41
197.899	42
199.165	42
200.432	39
201.698	41
202.965	42
204.23	37
205.497	36
206.762	38
208.028	40
209.293	34
210.559	38
211.823	44
213.088	38
214.352	38
215.617	36
216.88	39
218.145	37
219.408	46
220.672	39
221.934	40
223.196	32
224.46	40
225.722	37
226.985	34
228.246	36
229.508	37
230.77	36
232.031	36
233.292	33
234.554	38
235.814	35
237.074	36
238.335	30
239.595	37
240.854	32
242.115	32
243.374	36
244.633	30
245.893	37
247.151	33
248.409	33
249.667	36
250.927	36
252.184	34
253.442	37
254.699	32
255.957	36
257.214	30
258.47	34
259.727	33
260.983	33
262.24	31
263.496	35
264.752	39
266.007	34
267.262	26
268.517	34
269.773	32
271.028	41
272.282	35
273.536	31
274.79	32
276.044	35
277.297	33
278.551	35
279.804	26
281.057	35
282.31	33
283.564	34
284.816	30
286.068	34
287.32	32
288.572	29
289.823	35
291.074	38
292.325	28
293.576	31
294.827	31
296.077	30
297.328	38
298.578	30
299.828	32
301.077	31
302.325	32
303.575	32
304.824	24
306.073	28
307.321	32
308.57	31
309.818	32
311.066	26
312.314	28
313.562	31
314.808	39
316.055	38
317.302	34
318.549	35
319.796	31
321.042	37
322.288	34
323.533	34
324.779	34
326.024	33
327.27	33
328.515	32
329.759	30
331.004	32
332.248	26
333.493	30
334.736	38
335.98	35
337.223	26
338.466	34
339.709	32
340.952	37
342.195	38
343.437	33
344.68	24
345.922	33
347.163	34
348.405	37
349.647	30
350.887	32
352.128	35
353.37	34
354.609	35
355.85	29
357.089	32
358.33	28
359.57	33
360.809	36
362.049	35
363.287	30
364.526	24
365.764	30
367.003	34
368.241	34
369.479	34
370.718	30
371.955	34
373.193	36
374.429	33
375.667	31
376.903	30
378.139	32
379.376	36
380.611	28
381.848	34
383.083	30
384.319	34
385.554	36
386.79	37
388.024	30
389.258	31
390.493	33
391.727	32
392.962	32
394.195	33
395.428	32
396.663	32
397.895	34
399.128	36
400.361	28
401.593	35
402.825	35
404.058	31
405.29	34
406.521	24
407.752	31
408.985	33
410.215	30
411.446	31
412.678	30
413.908	37
415.138	34
416.367	33
417.597	33
418.828	35
420.057	32
421.286	33
422.514	34
423.743	38
424.973	27
426.201	32
427.429	36
428.657	20
429.884	36
431.112	28
432.34	32
433.567	28
434.794	34
436.02	36
437.247	32
438.473	30
439.699	34
440.925	33
442.15	32
443.376	38
444.601	32
445.826	35
447.051	36
448.275	32
449.5	31
450.724	30
451.948	30
453.172	33
454.396	32
455.619	34
456.842	28
458.065	32
459.288	31
460.511	34
461.733	37
462.956	34
464.178	34
465.4	30
466.621	37
467.843	38
469.064	37
470.285	35
471.505	41
472.726	36
473.946	42
475.166	36
476.387	37
477.606	38
478.825	35
480.044	40
481.264	51
482.483	48
483.702	56
484.921	52
486.138	56
487.356	57
488.574	62
489.792	57
491.009	62
492.226	56
493.444	55
494.661	55
495.877	60
497.094	56
498.31	53
499.525	49
500.741	47
501.958	49
503.172	46
504.388	47
505.603	40
506.817	34
508.032	42
509.247	34
510.46	38
511.675	38
512.888	30
514.102	38
515.316	40
516.528	38
517.742	37
518.954	44
520.167	38
521.378	40
522.591	32
523.802	36
525.015	32
526.226	30
527.438	36
528.648	32
529.86	36
531.07	34
532.281	34
533.491	36
534.702	30
535.911	38
537.121	32
538.33	38
539.54	35
540.749	31
541.957	35
543.167	38
544.375	34
545.584	35
546.791	26
547.999	33
549.207	31
550.414	38
551.621	34
552.829	30
554.035	35
555.241	35
556.449	34
557.655	28
558.86	35
560.066	35
561.272	35
562.477	30
563.682	34
564.888	31
566.093	32
567.297	33
568.501	31
569.705	36
570.91	33
572.114	36
573.317	33
574.52	33
575.723	32
576.927	35
578.13	31
579.332	28
580.535	35
581.737	30
582.938	40
584.14	30
585.343	35
586.544	36
587.745	34
588.946	31
590.147	30
591.347	31
592.548	35
593.748	36
594.948	35
596.147	32
597.347	36
598.546	32
599.745	33
600.944	28
602.143	33
603.342	26
604.54	28
605.738	28
606.937	29
608.134	35
609.332	26
610.529	34
611.727	31
612.924	34
614.121	34
615.317	32
616.513	31
617.709	30
618.905	34
620.101	30
621.297	31
622.492	32
623.688	38
624.883	35
626.077	32
627.271	38
628.466	32
629.66	35
630.855	34
632.047	34
633.241	32
634.435	30
635.629	30
636.82	30
638.014	28
639.207	28
640.399	32
641.59	34
642.783	36
643.975	34
645.166	36
646.357	32
647.549	35
648.741	32
649.93	32
651.122	32
652.311	30
653.502	32
654.692	35
655.881	28
657.071	39
658.261	28
659.45	34
660.639	35
661.827	24
663.016	34
664.204	43
665.393	38
666.581	30
667.769	32
668.957	34
670.143	30
671.331	32
672.518	33
673.705	35
674.891	32
676.078	36
677.264	28
678.451	38
679.636	38
680.821	36
682.007	36
683.192	38
684.378	38
685.562	34
686.747	35
687.931	35
689.115	38
690.3	38
691.483	39
692.666	34
693.851	34
695.034	40
696.216	41
697.4	41
698.582	38
699.764	33
700.948	37
702.129	38
703.311	41
704.493	46
705.674	43
706.855	49
708.036	48
709.218	48
710.399	52
711.579	54
712.759	54
713.939	48
715.12	41
716.299	41
717.478	32
718.657	36
719.836	35
721.015	40
722.195	36
723.373	34
724.552	33
725.729	32
726.907	31
728.085	38
729.262	33
730.44	26
731.617	36
732.795	32
733.972	33
735.148	34
736.324	32
737.501	30
738.677	34
739.852	30
741.028	30
742.203	33
743.379	28
744.554	30
745.729	34
746.903	30
748.078	33
749.252	37
750.426	34
751.599	38
752.772	34
753.946	37
755.119	37
756.293	28
757.466	32
758.639	31
759.811	30
760.984	34
762.155	32
763.327	32
764.499	34
765.67	26
766.842	28
768.013	35
769.183	30
770.354	32
771.525	32
772.696	36
773.865	32
775.035	34
776.205	26
777.375	32
778.544	32
779.713	37
780.882	30
782.052	36
783.219	34
784.388	38
785.557	34
786.724	36
787.892	32
789.06	38
790.227	35
791.395	32
792.562	36
793.728	37
794.895	34
796.061	40
797.228	38
798.395	34
799.56	32
800.726	36
801.891	28
803.057	35
804.221	32
805.387	34
806.551	33
807.716	26
808.879	33
810.044	32
811.208	36
812.372	35
813.535	32
814.699	35
815.862	37
817.025	34
818.188	30
819.351	28
820.513	32
821.675	30
822.837	26
823.999	33
825.161	35
826.322	32
827.483	33
828.645	31
829.805	32
830.966	30
832.127	24
833.287	34
834.447	24
835.607	33
836.767	26
837.926	27
839.085	30
840.245	32
841.404	32
842.562	28
843.72	35
844.88	36
846.038	28
847.195	30
848.353	29
849.512	29
850.669	32
851.826	28
852.983	31
854.139	35
855.296	39
856.453	30
857.609	31
858.765	34
859.921	32
861.077	40
862.232	30
863.387	33
864.542	33
865.697	34
866.852	32
868.008	34
869.162	32
870.316	34
871.47	33
872.624	30
873.778	33
874.931	34
876.084	35
877.237	28
878.39	32
879.543	32
880.695	32
881.846	35
882.999	31
884.151	34
885.302	32
886.454	33
887.606	30
888.757	30
889.908	30
891.059	35
892.21	33
893.359	28
894.509	28
895.659	30
896.81	31
897.959	28
899.109	31
900.257	28
901.407	28
902.556	32
903.705	32
904.854	29
906.001	34
907.149	26
908.298	35
909.446	34
910.592	32
911.74	30
912.888	33
914.034	32
915.181	32
916.328	33
917.473	29
918.62	34
919.766	32
920.911	33
922.058	33
923.204	34
924.348	34
925.494	31
926.638	32
927.783	36
928.928	30
930.072	33
931.216	31
932.36	30
933.504	28
934.647	27
935.791	30
936.933	33
938.077	30
939.219	20
940.363	34
941.504	26
942.647	32
943.789	29
944.932	33
946.073	34
947.215	24
948.356	30
949.498	34
950.638	29
951.778	32
952.92	32
954.06	33
955.199	30
956.34	31
957.479	31
958.62	30
959.759	34
960.898	28
962.038	35
963.176	30
964.315	36
965.453	28
966.592	33
967.73	26
968.867	28
970.006	31
971.144	30.5
972.281	28
973.418	35
974.554	35
975.692	28
976.829	33
977.965	34
979.101	32
980.237	28
981.374	26
982.509	35
983.645	26
984.78	32
985.915	32
987.05	26
988.184	30
989.319	34
990.453	34
991.589	32
992.722	34
993.856	30
994.99	33
996.123	30
997.257	29
998.39	30
999.523	28
1000.66	32
1001.79	36
1002.92	32
1004.05	30
1005.18	30
1006.32	32
1007.45	30
1008.58	35
1009.71	36
1010.84	22
1011.97	32
1013.1	32
1014.23	31
1015.36	29
1016.49	36
1017.62	31
1018.75	28
1019.88	30
1021.01	28
1022.14	26
1023.27	30
1024.4	32
1025.53	30
1026.66	33
1027.79	32
1028.91	30
1030.04	29
1031.17	26
1032.3	32
1033.42	30
1034.55	30
1035.68	32
1036.81	29
1037.93	30
1039.06	34
1040.18	28
1041.31	32
1042.44	25
1043.56	32
1044.69	36
1045.81	34
1046.94	32
1048.06	29
1049.19	30
1050.31	38
1051.44	28
1052.56	30
1053.69	29
1054.81	30
1055.93	34
1057.06	33
1058.18	29
1059.3	37
1060.43	31
1061.55	34
1062.67	28
1063.79	31
1064.92	30
1066.04	30
1067.16	30
1068.28	33
1069.4	35
1070.52	29
1071.65	30
1072.77	28
1073.89	30
1075.01	26
1076.13	26
1077.25	27
1078.37	28
1079.49	31
1080.61	30
1081.73	32
1082.85	30
1083.97	30
1085.09	36
1086.2	30
1087.32	30
1088.44	32
1089.56	26
1090.68	30
1091.8	28
1092.91	30
1094.03	28
1095.15	30
1096.26	36
1097.38	28
1098.5	30
1099.61	30
1100.73	24
1101.85	28
1102.96	28
1104.08	30
1105.19	29
1106.31	34
1107.43	26
1108.54	32
1109.66	26
1110.77	30
1111.88	29
1113	28
1114.11	32
1115.23	32
1116.34	31
1117.46	30
1118.57	30
1119.68	29
1120.8	30
1121.91	29
1123.02	28
1124.13	32
1125.25	28
1126.36	29
1127.47	26
1128.58	34
1129.69	29
1130.8	30
1131.92	30
1133.03	31
1134.14	29
1135.25	32
1136.36	28
1137.47	29
1138.58	32
1139.69	29
1140.8	28
1141.91	26
1143.02	32
1144.13	35
1145.24	32
1146.35	31
1147.46	31
1148.56	30
1149.67	26
1150.78	32
1151.89	35
1153	32
1154.1	26
1155.21	31
1156.32	28
1157.43	28
1158.53	31
1159.64	30
1160.75	26
1161.85	32
1162.96	28
1164.07	32
1165.17	26
1166.28	32
1167.38	29
1168.49	38
1169.59	30
1170.7	29
1171.8	27
1172.91	30
1174.01	30
1175.12	30
1176.22	33
1177.32	36
1178.43	25
1179.53	29
1180.64	28
1181.74	27
1182.84	29
1183.94	30
1185.05	24
1186.15	34
1187.25	28
1188.35	18
1189.46	25
1190.56	28
1191.66	34
1192.76	31
1193.86	28
1194.96	26
1196.06	26.9951
1197.16	27.954
1198.26	31.8725
1199.37	33.7332
1200.47	26.989
1201.57	28.9706
1202.67	27.2017
1203.77	30.9159
1204.86	28.9167
1205.96	28.8578
1207.06	29.5837
1208.16	29.4946
1209.26	30.45
1210.36	29.6701
1211.46	28.143
1212.56	29.0762
1213.65	31.5944
1214.75	26.3516
1215.85	25.2692
1216.95	29.2432
1218.04	28.6725
1219.14	31.5784
1220.24	32.4406
1221.33	31.4521
1222.43	28.7598
1223.53	26.8379
1224.62	26.05
1225.72	28.5167
1226.82	27.3194
1227.91	26.0848
1229.01	29.402
1230.1	31.1554
1231.2	26.3631
1232.29	32.1315
1233.39	23.6171
1234.48	26.0713
1235.58	29.0002
1236.67	29.1062
1237.77	26.8873
1238.86	26.3235
1239.95	29.2494
1241.05	30.794
1242.14	26.5261
1243.23	28.7592
1244.33	28.3751
1245.42	30.1429
1246.51	31.1476
1247.61	30.1992
1248.7	27.2098
1249.79	30.7647
1250.88	25.6214
1251.97	28.7023
1253.07	26.2819
1254.16	29.6997
1255.25	28.0283
1256.34	28.5332
1257.43	32.4005
1258.52	30.8579
1259.61	29.6131
1260.7	28.4988
1261.79	28.5508
1262.88	33.797
1263.97	27.3915
1265.06	28.7883
1266.15	31.0645
1267.24	30.6869
1268.33	26.4158
1269.42	27.8168
1270.51	30.8796
1271.6	27.9078
1272.68	26.5015
1273.77	30.018
1274.86	31.2386
1275.95	27.6953
1277.04	27.8126
1278.12	29.5667
1279.21	31.5989
1280.3	27.0625
1281.39	23.2556
1282.47	28.0033
1283.56	25.9872
1284.65	26.2823
1285.73	27.0606
1286.82	25.9987
1287.91	28.3431
1288.99	28.2829
1290.08	25.9727
1291.16	30.3526
1292.25	27.768
1293.33	29.88
1294.42	28.4202
1295.5	26.8459
1296.59	28.0362
1297.67	29.75
1298.76	29.0975
1299.84	26.9633
1300.92	26.6895
1302.01	31.2628
1303.09	26.4239
1304.17	29.9265
1305.26	29.9706
1306.34	29.9804
1307.34	30
1308.43	29
1309.52	27
1310.61	29
1311.7	32
1312.78	25
1313.87	30
1314.96	31
1316.04	31
1317.13	26
1318.22	30
1319.3	22
1320.39	30
1321.48	26
1322.56	27
1323.65	26
1324.73	29
1325.82	29
1326.9	28
1327.99	29
1329.07	30
1330.16	28
1331.24	30
1332.33	29
1333.41	26
1334.5	31
1335.58	30
1336.66	31
1337.75	27
1338.83	34
1339.91	25
1341	29
1342.08	26
1343.16	25
1344.24	29
1345.33	29
1346.41	28
1347.49	31
1348.57	27
1349.65	29
1350.74	30
1351.82	33
1352.9	28
1353.98	30
1355.06	22
1356.14	30
1357.22	26
1358.3	27
1359.38	34
1360.46	32
1361.54	30
1362.62	32
1363.7	26
1364.78	26
1365.86	31
1366.94	32
1368.02	26
1369.09	28
1370.17	22
1371.25	30
1372.33	30
1373.41	29
1374.48	30
1375.56	26
1376.64	26
1377.72	26
1378.79	31
1379.87	32
1380.95	32
1382.02	30
1383.1	27
1384.17	29
1385.25	28
1386.33	31
1387.4	26
1388.48	28
1389.55	26
1390.63	26
1391.7	32
1392.78	30
1393.85	32
1394.93	28
1396	33
1397.07	31
1398.15	28
1399.22	28
1400.3	32
1401.37	36
1402.44	34
1403.52	32
1404.59	28
1405.66	33
1406.73	32
1407.81	32
1408.88	30
1409.95	30
1411.02	35
1412.09	36
1413.17	33
1414.24	36
1415.31	33
1416.38	34
1417.45	34
1418.52	36
1419.59	26
1420.66	31
1421.73	28
1422.8	34
1423.87	28
1424.94	35
1426.01	34
1427.08	37
1428.15	30
1429.22	27
1430.29	38
1431.35	34
1432.42	30
1433.49	30
1434.56	32
1435.63	34
1436.69	28
1437.76	32
1438.83	27
1439.9	29
1440.96	31
1442.03	35
1443.1	31
1444.17	34
1445.23	28
1446.3	32
1447.36	27
1448.43	26
1449.49	32
1450.56	29
1451.63	29
1452.69	26
1453.76	31
1454.82	24
1455.89	31
1456.95	30
1458.01	27
1459.08	30
1460.14	28
1461.21	25
1462.27	24
1463.34	34
1464.4	27
1465.46	32
1466.52	29
1467.59	29
1468.65	28
1469.71	30
1470.77	30
1471.84	31
1472.9	31
1473.96	29
1475.02	31
1476.08	28
1477.15	30
1478.21	26
1479.27	34
1480.33	31
1481.39	28
1482.45	31
1483.51	30
1484.57	28
1485.63	30
1486.69	30
1487.75	28
1488.81	32
1489.87	30
1490.93	28
1491.99	31
1493.05	32
1494.1	34
1495.16	26
1496.22	32
1497.28	31
1498.34	28
1499.4	33
1500.45	32
1501.51	30
1502.57	30
1503.63	30
1504.68	22
1505.74	32
1506.8	28
1507.85	32
1508.91	30
1509.97	30
1511.02	30
1512.08	30
1513.13	28
1514.19	27
1515.24	28
1516.3	28
1517.35	27
1518.41	30
1519.46	28
1520.52	30
1521.57	27
1522.63	31
1523.68	27
1524.73	30
1525.79	29
1526.84	33
1527.9	25
1528.95	23
1530	26
1531.05	30
1532.11	29
1533.16	28
1534.21	32
1535.26	34
1536.32	30
1537.37	30
1538.42	27
1539.47	30
1540.52	28
1541.57	33
1542.63	30
1543.68	26
1544.73	29
1545.78	30
1546.83	33
1547.88	29
1548.93	26
1549.98	29
1551.03	26
1552.08	26
1553.13	32
1554.18	24
1555.23	29
1556.27	27
1557.32	31
1558.37	36
1559.42	26
1560.47	29
1561.52	28
1562.56	26
1563.61	30
1564.66	25
1565.71	30
1566.75	30
1567.8	30
1568.85	26
1569.9	30
1570.94	28
1571.99	30
1573.03	30
1574.08	30
1575.13	33
1576.17	30
1577.22	27
1578.26	25
1579.31	32
1580.35	29
1581.4	30
1582.44	26
1583.49	30
1584.53	31
1585.58	31
1586.62	30
1587.66	28
1588.71	30
1589.75	28
1590.8	32
1591.84	26
1592.88	31
1593.92	28
1594.97	27
1596.01	28
1597.05	32
1598.1	30
1599.14	26
1600.18	32
1601.22	28
1602.26	30
1603.3	28
1604.35	32
1605.39	29
1606.43	30
1607.47	34
1608.51	34
1609.55	26
1610.59	32
1611.63	35
1612.67	18
1613.71	24
1614.75	23
1615.79	28
1616.83	32
1617.87	27
1618.91	29
1619.95	28
1620.99	31
1622.02	24
1623.06	26
1624.1	26
1625.14	30
1626.18	24
1627.21	25
1628.25	34
1629.29	22
1630.33	31
1631.36	33
1632.4	24
1633.44	24
1634.48	28
1635.51	28
1636.55	28
1637.58	31
1638.62	33
1639.66	28
1640.69	33
1641.73	30
1642.76	26
1643.8	30
1644.83	27
1645.87	30
1646.9	28
1647.94	26
1648.97	30
1650	32
1651.04	31
1652.07	30
1653.11	32
1654.14	31
1655.17	24
1656.21	28
1657.24	26
1658.27	28
1659.31	26
1660.34	28
1661.37	27
1662.4	26
1663.43	32
1664.47	28
1665.5	30
1666.53	32
1667.56	22
1668.59	31
1669.62	30
1670.66	28
1671.69	28
1672.72	27
1673.75	30
1674.78	29
1675.81	26
1676.84	29
1677.87	35
1678.9	24
1679.93	30
1680.96	30
1681.98	28
1683.01	30
1684.04	26
1685.07	22
1686.1	31
1687.13	24
1688.16	30
1689.18	34
1690.21	30
1691.24	31
1692.27	32
1693.3	29
1694.32	28
1695.35	34
1696.38	26
1697.4	26
1698.43	28
1699.46	30
1700.48	28
1701.51	31
1702.54	27
1703.56	25
1704.59	30
1705.61	30
1706.64	29
1707.66	31
1708.69	28
1709.71	34
1710.74	27
1711.76	25
1712.79	28
1713.81	24
1714.83	30
1715.86	32
1716.88	26
1717.91	33
1718.93	30
1719.95	28
1720.98	32
1722	30
1723.02	30
1724.04	29
1725.07	33
1726.09	30
1727.11	29
1728.13	26
1729.15	34
1730.18	30
1731.2	32
1732.22	30
1733.24	32
1734.26	24
1735.28	29
1736.3	25
1737.32	30
1738.34	26
1739.36	27
1740.38	20
1741.4	28
1742.42	29
1743.44	32
1744.46	32
1745.48	33
1746.5	26
1747.52	30
1748.54	29
1749.56	28
1750.58	33
1751.6	29
1752.61	29
1753.63	28
1754.65	34
1755.67	34
1756.68	27
1757.7	30
1758.72	35
1759.74	29
1760.75	29
1761.77	32
1762.79	30
1763.8	31
1764.82	29
1765.83	30
1766.85	28
1767.87	27
1768.88	31
1769.9	28
1770.91	27
1771.93	24
1772.94	28
1773.96	32
1774.97	32
1775.99	30
1777	30
1778.02	24
1779.03	30
1780.04	25
1781.06	33
1782.07	32
1783.09	25
1784.1	28
1785.11	27
1786.13	29
1787.14	27
1788.15	26
1789.16	29
1790.18	27
1791.19	32
1792.2	28
1793.21	31
1794.22	25
1795.23	34
1796.25	30
1797.26	28
1798.27	32
1799.28	32
1800.29	32
1801.3	26
1802.31	22
1803.32	29
1804.33	27
1805.34	30
1806.35	25
1807.36	28
1808.37	29
1809.38	26
1810.39	22
1811.4	28
1812.41	26
1813.42	29
1814.42	30
1815.43	30
1816.44	27
1817.45	28
1818.46	31
1819.47	32
1820.47	23
1821.48	28
1822.49	29
1823.49	25
1824.5	29
1825.51	29
1826.52	29
1827.52	29
1828.53	26
1829.53	29
1830.54	26
1831.55	30
1832.55	33
1833.56	32
1834.56	26
1835.57	25
1836.57	20
1837.58	27
1838.58	29
1839.59	24
1840.59	25
1841.6	25
1842.6	32
1843.61	27
1844.61	28
1845.61	29
1846.62	26
1847.62	27
1848.62	28
1849.63	30
1850.63	26
1851.63	31
1852.64	26
1853.64	26
1854.64	27
1855.64	26
1856.64	20
1857.65	29
1858.65	30
1859.65	22
1860.65	30
1861.65	27
1862.65	30
1863.65	26
1864.66	30
1865.66	27
1866.66	26
1867.66	30
1868.66	28
1869.66	27
1870.66	34
1871.66	29
1872.66	29
1873.66	28
1874.66	31
1875.65	24
1876.65	25
1877.65	26
1878.65	30
1879.65	27
1880.65	24
1881.65	26
1882.64	26
1883.64	29
1884.64	24
1885.64	28
1886.63	26
1887.63	26
1888.63	27
1889.63	28
1890.62	31
1891.62	30
1892.62	32
1893.61	27
1894.61	28
1895.6	31
1896.6	31
1897.6	25
1898.59	27
1899.59	32
1900.58	32
1901.58	28
1902.57	30
1903.57	32
1904.56	28
1905.56	29
1906.55	29
1907.54	30
1908.54	24
1909.53	26
1910.53	30
1911.52	28
1912.51	26
1913.51	34
1914.5	29
1915.49	30
1916.49	30
1917.48	32
1918.47	28
1919.46	28
1920.46	29
1921.45	28
1922.44	31
1923.43	25
1924.42	29
1925.41	30
1926.41	20
1927.4	31
1928.39	28
1929.38	26
1930.37	26
1931.36	29
1932.35	29
1933.34	31
1934.33	26
1935.32	30
1936.31	24
1937.3	24
1938.29	28
1939.28	29
1940.27	29
1941.26	24
1942.24	27
1943.23	26
1944.22	29
1945.21	24
1946.2	28
1947.19	31
1948.17	34
1949.16	28
1950.15	29
1951.14	30
1952.12	28
1953.11	28
1954.1	32
1955.09	19
1956.07	28
1957.06	30
1958.05	31
1959.03	30
1960.02	30
1961	26
1961.99	30
1962.98	26
1963.96	24
1964.95	26
1965.93	29
1966.92	24
1967.9	27
1968.89	24
1969.87	28
1970.85	28
1971.84	27
1972.82	29
1973.81	27
1974.79	30
1975.78	26
1976.76	31
1977.74	24
1978.73	30
1979.71	26
1980.69	26
1981.67	29
1982.66	27
1983.64	32
1984.62	30
1985.6	26
1986.59	29
1987.57	24
1988.55	29
1989.53	24
1990.51	25
1991.49	30
1992.47	26
1993.45	27
1994.44	29
1995.42	27
1996.4	32
1997.38	23
1998.36	31
1999.34	24
2000.32	26
2001.3	29
2002.28	22
2003.26	29
2004.24	26
2005.22	30
2006.19	30
2007.17	26
2008.15	26
2009.13	22
2010.11	26
2011.09	28
2012.06	31
2013.04	27
2014.02	32
2015	27
2015.98	32
2016.95	30
2017.93	26
2018.91	24
2019.88	24
2020.86	26
2021.84	22
2022.81	26
2023.79	25
2024.77	26
2025.74	27
2026.72	26
2027.69	30
2028.67	28
2029.65	29
2030.62	25
2031.6	26
2032.57	30
2033.55	25
2034.52	29
2035.5	25
2036.47	25
2037.44	28
2038.42	26
2039.39	29
2040.36	30
2041.34	30
2042.31	31
2043.29	28
2044.26	26
2045.23	26
2046.2	26
2047.18	22
2048.15	32
2049.12	26
2050.09	24
2051.07	34
2052.04	26
2053.01	28
2053.98	20
2054.95	24
2055.93	26
2056.9	28
2057.87	30
2058.84	26
2059.81	32
2060.78	26
2061.75	30
2062.72	26
2063.69	24
2064.66	26
2065.63	25
2066.6	24
2067.57	28
2068.54	27
2069.51	28
2070.48	28
2071.45	31
2072.42	27
2073.38	25
2074.35	31
2075.32	26
2076.29	24
2077.26	31
2078.23	24
2079.19	32
2080.16	25
2081.13	28
2082.1	30
2083.06	27
2084.03	28
2085	29
2085.96	31
2086.93	23
2087.9	30
2088.86	26
2089.83	27
2090.8	25
2091.76	22
2092.73	23
2093.69	26
2094.66	29
2095.62	29
2096.59	22
2097.55	26
2098.52	22
2099.48	32
2100.45	26
2101.41	23
2102.38	27
2103.34	28
2104.31	26
2105.27	29
2106.23	25
2107.2	26
2108.16	28
2109.12	28
2110.09	28
2111.05	31
2112.01	20
2112.98	25
2113.94	28
2114.9	30
2115.86	32
2116.82	28
2117.79	29
2118.75	28
2119.71	28
2120.67	28
2121.63	28
2122.59	25
2123.55	26
2124.52	22
2125.48	28
2126.44	26
2127.4	28
2128.36	27
2129.32	28
2130.28	28
2131.24	25
2132.2	25
2133.16	28
2134.12	28
2135.08	26
2136.04	30
2136.99	28
2137.95	24
2138.91	29
2139.87	29
2140.83	26
2141.79	26
2142.75	27
2143.7	20
2144.66	28
2145.62	25.9897
2146.58	25.9626
2147.53	24.098
2148.49	28.0112
2149.45	28.1561
2150.41	27.8845
2151.36	22.1443
2152.32	24.2675
2153.27	28.4259
2154.23	28.5488
2155.19	25.2059
2156.14	24.3336
2157.1	25.1091
2158.06	23.8839
2159.01	28.7083
2159.97	25.0032
2160.92	25.995
2161.88	23.1807
2162.83	28.1814
2163.79	27.3824
2164.74	27.2008
2165.7	25.1609
2166.65	25.2081
2167.61	25.0046
2168.56	26.5196
2169.51	28
2170.47	25.7402
2171.42	25.0459
2172.38	30.6155
2173.33	29.4072
2174.28	25.8971
2175.24	27.1981
2176.19	27.0211
2177.14	27.145
2178.09	26.0862
2179.05	22.033
2180	21.4647
2180.95	25.5371
2181.9	29.6225
2182.86	25.4203
2183.81	28.4683
2184.76	25.6036
2185.71	25.6534
2186.66	26.1177
2187.61	24.6364
2188.57	25.1041
2189.52	27.057
2190.47	22.0661
2191.42	24.098
2192.37	25.9118
2193.32	28.7004
2194.27	26.6588
2195.22	29.6565
2196.17	25.491
2197.12	23.5868
2198.07	25.6471
2199.02	22.0085
2199.97	24.0374
2200.92	24.2941
2201.87	22.375
2202.82	21.6597
2203.76	22.5746
2204.71	22.6528
2205.66	25.8929
2206.61	28.7353
2207.56	27.0166
2208.51	26.2973
2209.45	25.9844
2210.4	24.9907
2211.35	24
2212.3	27.2835
2213.24	24.7433
2214.19	27.6924
2215.14	26.236
2216.09	22.3169
2217.03	23.7144
2217.98	26.1302
2218.93	25.1548
2219.87	27.0746
2220.82	26.6765
2221.77	25.4361
2222.71	27.4951
2223.66	25.0665
2224.6	22.6301
2225.55	24.1353
2226.49	23.1213
2227.44	26.0939
2228.38	26.872
2229.33	28.8143
2230.27	26.4966
2231.22	24.5649
2232.16	23.1995
2233.11	25.0283
2234.05	25.2914
2235	26.7036
2235.94	28.109
2236.88	25.3835
2237.83	26.2941
2238.77	25.6339
2239.71	24.049
2240.66	24.6643
2241.6	25.0049
2242	25
2242.95	22
2243.9	28
2244.84	27
2245.79	27
2246.74	25
2247.69	29
2248.63	26
2249.58	24
2250.53	24
2251.47	22
2252.42	26
2253.37	28
2254.31	28
2255.26	27
2256.2	28
2257.15	20
2258.1	22
2259.04	24
2259.99	26
2260.93	20
2261.88	27
2262.82	26
2263.77	24
2264.71	22
2265.65	25
2266.6	24
2267.54	27
2268.49	20
2269.43	26
2270.38	31
2271.32	32
2272.26	26
2273.21	23
2274.15	29
2275.09	30
2276.04	28
2276.98	24
2277.92	26
2278.86	28
2279.81	27
2280.75	25
2281.69	27
2282.63	26
2283.57	28
2284.52	25
2285.46	30
2286.4	25
2287.34	28
2288.28	26
2289.22	26
2290.16	24
2291.1	29
2292.04	22
2292.98	26
2293.93	30
2294.86	34
2295.8	31
2296.74	26
2297.69	24
2298.62	27
2299.56	20
2300.5	28
2301.44	24
2302.38	24
2303.32	24
2304.26	27
2305.2	20
2306.14	26
2307.07	24
2308.01	26
2308.95	24
2309.89	27
2310.83	30
2311.76	28
2312.7	27
2313.64	28
2314.58	29
2315.51	24
2316.45	26
2317.39	26
2318.32	27
2319.26	28
2320.2	26
2321.13	29
2322.07	27
2323	28
2323.94	26
2324.88	24
2325.81	28
2326.75	31
2327.68	20
2328.62	26
2329.55	29
2330.49	29
2331.42	30
2332.36	23
2333.29	24
2334.22	26
2335.16	29
2336.09	30
2337.03	29
2337.96	24
2338.89	18
2339.83	24
2340.76	26
2341.69	32
2342.63	26
2343.56	30
2344.49	25
2345.43	26
2346.36	29
2347.29	27
2348.22	28
2349.15	25
2350.09	30
2351.02	26
2351.95	26
2352.88	24
2353.81	27
2354.74	30
2355.67	26
2356.61	24
2357.54	26
2358.47	27
2359.4	25
2360.33	26
2361.26	29
2362.19	22
2363.12	26
2364.05	30
2364.98	24
2365.91	19
2366.84	24
2367.77	23
2368.7	29
2369.62	24
2370.55	25
2371.48	20
2372.41	20
2373.34	28
2374.27	24
2375.2	26
2376.12	24
2377.05	24
2377.98	30
2378.91	26
2379.83	24
2380.76	22
2381.69	28
2382.62	28
2383.54	26
2384.47	26
2385.4	30
2386.32	31
2387.25	27
2388.18	29
2389.1	28
2390.03	28
2390.95	30
2391.88	30
2392.81	29
2393.73	24
2394.66	34
2395.58	23
2396.51	29
2397.43	19
2398.36	27
2399.28	24
2400.2	23
2401.13	27
2402.05	28
2402.98	26
2403.9	28
2404.83	26
2405.75	28
2406.67	24
2407.6	28
2408.52	20
2409.44	26
2410.37	29
2411.29	22
2412.21	31
2413.13	25
2414.06	27
2414.98	28
2415.9	23
2416.82	30
2417.74	26
2418.67	30
2419.59	28
2420.51	26
2421.43	32
2422.35	28
2423.27	24
2424.19	24
2425.11	30
2426.03	28
2426.96	29
2427.88	30
2428.8	26
2429.72	34
2430.64	25
2431.56	22
2432.48	26
2433.39	28
2434.31	26
2435.23	24
2436.15	26
2437.07	20
2437.99	18
2438.91	32
2439.83	28
2440.75	30
2441.67	29
2442.58	27
2443.5	26
2444.42	24
2445.34	28
2446.26	27
2447.17	28
2448.09	31
2449.01	26
2449.92	24
2450.84	25
2451.76	27
2452.68	27
2453.59	28
2454.51	22
2455.42	27
2456.34	25
2457.26	23
2458.17	28
2459.09	25
2460	24
2460.92	28
2461.83	28
2462.75	27
2463.66	24
2464.58	28
2465.49	26
2466.41	34
2467.32	30
2468.24	22
2469.15	27
2470.07	28
2470.98	25
2471.89	27
2472.81	26
2473.72	30
2474.64	22
2475.55	27
2476.46	34
2477.37	29
2478.29	31
2479.2	25
2480.11	33
2481.03	26
2481.94	26
2482.85	34
2483.76	28
2484.67	29
2485.59	24
2486.5	27
2487.41	30
2488.32	27
2489.23	22
2490.14	24
2491.05	29
2491.97	29
2492.88	26
2493.79	22
2494.7	31
2495.61	32
2496.52	30
2497.43	28
2498.34	29
2499.25	26
2500.16	25
2501.07	28
2501.98	31
2502.89	28
2503.79	30
2504.7	29
2505.61	29
2506.52	28
2507.43	26
2508.34	27
2509.25	32
2510.16	26
2511.06	25
2511.97	31
2512.88	28
2513.79	35
2514.69	32
2515.6	26
2516.51	24
2517.42	32
2518.32	28
2519.23	29
2520.14	22
2521.04	27
2521.95	26
2522.86	26
2523.76	28
2524.67	25
2525.57	27
2526.48	29
2527.39	24
2528.29	27
2529.2	25
2530.1	26
2531.01	26
2531.91	30
2532.82	35
2533.72	31
2534.63	28
2535.53	22
2536.44	30
2537.34	30
2538.24	26
2539.15	26
2540.05	28
2540.96	27
2541.86	26
2542.76	31
2543.67	25
2544.57	27
2545.47	28
2546.37	24
2547.28	27
2548.18	25
2549.08	24
2549.99	22
2550.89	28
2551.79	28
2552.69	30
2553.59	30
2554.49	30
2555.4	34
2556.3	33
2557.2	25
2558.1	30
2559	27
2559.9	27
2560.8	24
2561.7	29
2562.6	26
2563.5	30
2564.4	26
2565.3	29
2566.2	31
2567.1	28
2568	27
2568.9	27
2569.8	26
2570.7	24
2571.6	26
2572.5	24
2573.4	30
2574.3	32
2575.2	28
2576.1	28
2576.99	22
2577.89	24
2578.79	26
2579.69	33
2580.59	24
2581.48	28
2582.38	20
2583.28	27
2584.18	25
2585.07	26
2585.97	26
2586.87	22
2587.76	28
2588.66	24
2589.56	29
2590.45	25
2591.35	22
2592.25	24
2593.14	27
2594.04	27
2594.93	29
2595.83	26
2596.73	24
2597.62	30
2598.52	29
2599.41	26
2600.31	30
2601.2	32
2602.1	34
2602.99	30
2603.88	28
2604.78	26
2605.67	30
2606.57	28
2607.46	29
2608.35	32
2609.25	29
2610.14	32
2611.03	24
2611.93	27
2612.82	29
2613.71	26
2614.61	27
2615.5	28
2616.39	26
2617.29	34
2618.18	26
2619.07	32
2619.96	28
2620.85	22
2621.75	26
2622.64	26
2623.53	27
2624.42	28
2625.31	29
2626.2	28
2627.09	24
2627.98	26
2628.88	29
2629.77	22
2630.66	28
2631.55	31
2632.44	30
2633.33	26
2634.22	29
2635.11	30
2636	25
2636.89	29
2637.78	30
2638.66	26
2639.55	20
2640.44	32
2641.33	24
2642.22	25
2643.11	27
2644	27
2644.89	26
2645.78	26
2646.66	31
2647.55	26
2648.44	27
2649.33	32
2650.21	20
2651.1	26
2651.99	27
2652.88	30
2653.76	24
2654.65	31
2655.54	32
2656.42	30
2657.31	23
2658.2	28
2659.08	24
2659.97	26
2660.86	28
2661.74	31
2662.63	27
2663.51	28
2664.4	26
2665.29	29
2666.17	24
2667.06	24
2667.94	26
2668.83	28
2669.71	28
2670.6	33
2671.48	27
2672.36	24
2673.25	30
2674.13	27
2675.02	24
2675.9	24
2676.78	28
2677.67	31
2678.55	32
2679.43	28
2680.32	26
2681.2	24
2682.08	20
2682.97	32
2683.85	20
2684.73	25
2685.61	26
2686.5	29
2687.38	29
2688.26	29
2689.14	23
2690.03	26
2690.91	26
2691.79	26
2692.67	26
2693.55	24
2694.43	27
2695.31	31
2696.19	25
2697.08	26
2697.96	22
2698.84	24
2699.72	31
2700.6	23
2701.48	22
2702.36	29
2703.24	24
2704.12	31
2705	28
2705.88	28
2706.76	24
2707.64	32
2708.51	30
2709.39	29
2710.27	29
2711.15	27
2712.03	29
2712.91	24
2713.79	32
2714.67	24
2715.54	26
2716.42	26
2717.3	24
2718.18	27
2719.05	24
2719.93	27
2720.81	30
2721.69	32
2722.56	26
2723.44	26
2724.32	28
2725.19	28
2726.07	29
2726.95	25
2727.82	26
2728.7	26
2729.58	22
2730.45	26
2731.33	28
2732.2	31
2733.08	27
2733.95	28
2734.83	28
2735.7	29
2736.58	29
2737.45	24
2738.33	28
2739.2	26
2740.08	29
2740.95	24
2741.83	29
2742.7	22
2743.58	20
2744.45	28
2745.32	27
2746.2	32
2747.07	26
2747.94	29
2748.82	26
2749.69	25
2750.56	20
2751.44	22
2752.31	20
2753.18	28
2754.05	31
2754.93	28
2755.8	24
2756.67	24
2757.54	29
2758.42	24
2759.29	26
2760.16	28
2761.03	29
2761.9	22
2762.77	29
2763.64	28
2764.51	30
2765.38	28
2766.26	29
2767.13	28
2768	28
2768.87	27
2769.74	26
2770.61	24
2771.48	27
2772.35	28
2773.22	29
2774.09	27
2774.96	26
2775.83	22
2776.7	22
2777.56	32
2778.43	26
2779.3	29
2780.17	28
2781.04	26
2781.91	26
2782.78	28
2783.64	32
2784.51	26
2785.38	24
2786.25	26
2787.12	30
2787.98	32
2788.85	27
2789.72	27
2790.59	26
2791.45	28
2792.32	25
2793.19	26
2794.05	33
2794.92	31
2795.79	20
2796.65	33
2797.52	30
2798.38	25
2799.25	27
2800.12	28
2800.98	30
2801.85	28
2802.71	30
2803.58	28.5
2804.44	26
2805.31	28
2806.17	30
2807.04	34
2807.9	29
2808.77	25
2809.63	28
2810.5	26
2811.36	25
2812.22	32
2813.09	24
2813.95	28
2814.82	26
2815.68	27
2816.54	29
2817.41	28
2818.27	26
2819.13	26
2820	30
2820.86	23
2821.72	30
2822.58	30
2823.45	29
2824.31	27
2825.17	31
2826.03	26
2826.9	28
2827.76	27
2828.62	29
2829.48	27
2830.34	30
2831.2	30
2832.06	30
2832.92	28
2833.79	24
2834.65	26
2835.51	24
2836.37	30
2837.23	31
2838.09	32
2838.95	27
2839.81	24
2840.67	29
2841.53	28
2842.39	29
2843.25	28
2844.11	24
2844.97	25
2845.83	26
2846.68	27
2847.54	27
2848.4	23
2849.26	28
2850.12	30
2850.98	22
2851.84	33
2852.69	29
2853.55	34
2854.41	24
2855.27	29
2856.13	30
2856.98	24
2857.84	24
2858.7	26
2859.56	22
2860.41	25
2861.27	28
2862.13	32
2862.98	29
2863.84	29
2864.7	32
2865.55	31
2866.41	28
2867.27	30
2868.12	31
2868.98	22
2869.83	28
2870.69	30
2871.54	30
2872.4	27
2873.25	30
2874.11	30
2874.96	33
2875.82	35
2876.68	32
2877.53	28
2878.38	31
2879.24	28
2880.09	32
2880.95	36
2881.8	34
2882.65	35
2883.51	34
2884.36	37
2885.22	30
2886.07	41
2886.92	36
2887.77	36
2888.63	34
2889.48	36
2890.33	35
2891.19	37
2892.04	36
2892.89	39
2893.74	39
2894.6	47
2895.45	42
2896.3	46
2897.15	40
2898	47
2898.85	52
2899.71	46
2900.56	48
2901.41	59
2902.26	59
2903.11	57
2903.96	54
2904.81	60
2905.66	62
2906.51	61
2907.36	64
2908.21	61
2909.06	62
2909.91	62
2910.76	58
2911.61	54
2912.46	52
2913.31	50
2914.16	45
2915.01	43
2915.86	36
2916.71	42
2917.56	46
2918.41	40
2919.26	40
2920.1	36
2920.95	39
2921.8	36
2922.65	44
2923.5	34
2924.34	33
2925.19	30
2926.04	32
2926.89	31
2927.74	31
2928.58	33
2929.43	28
2930.28	26
2931.12	30
2931.97	29
2932.82	24
2933.66	28
2934.51	32
2935.36	31
2936.2	29
2937.05	26
2937.89	30
2938.74	30
2939.59	28
2940.43	30
2941.28	22
2942.12	28
2942.97	28
2943.81	31
2944.66	28
2945.5	32
2946.35	30
2947.19	30
2948.04	29
2948.88	28
2949.72	28
2950.57	38
2951.41	35
2952.26	34
2953.1	33
2953.94	32
2954.79	32
2955.63	31
2956.47	35
2957.32	32
2958.16	38
2959	42
2959.85	41
2960.69	43
2961.53	38
2962.37	40
2963.22	45
2964.06	40
2964.9	36
2965.74	45
2966.58	34
2967.42	43
2968.27	41
2969.11	39
2969.95	39
2970.79	30
2971.63	32
2972.47	32
2973.31	34
2974.15	33
2974.99	32
2975.83	38
2976.68	39
2977.52	38
2978.36	37
2979.2	37
2980.04	32
2980.88	32
2981.71	32
2982.55	34
2983.39	26
2984.23	30
2985.07	28
2985.91	32
2986.75	28
2987.59	26
2988.43	28
2989.27	30
2990.1	29
2990.94	30
2991.78	28
2992.62	32
2993.46	24
2994.3	30
2995.13	24
2995.97	30
2996.81	25
2997.64	26
2998.48	33
2999.32	27
