#Acq. time (s)=	3
#Accumulations=	3
#Range (cm-¹)=	100...3000
#Windows=	3
#Autofocus=	Off
#AutoExposure=	Off
#Spike filter=	Multiple accum.
#Delay time (s)=	0
#Binning=	1
#Readout mode=	Signal
#DeNoise=	Off
#ICS correction=	Off
#Dark correction=	Off
#Inst. Process=	Off
#Instrument=	LabRAM HR Evol
#Detector=	Syncerity OE
#Objective=	x100_VIS_LWD
#Grating=	600 (500nm)
#ND Filter=	25%
#Laser=	633nm_Edge
#Hole=	100.021
#Range=	Visible
#Project=	Bolus
#Sample=	A3
#Site=	stripside
#Title=	m07
#Remark=	
#Date=	03.11.2025 18:17
#Acquired=	03.11.2025 18:17:37
100.969	31
102.252	37
103.535	34
104.818	36
106.101	36
107.384	35
108.666	32
109.948	37
111.232	32
112.514	32
113.795	33
115.077	36
116.358	37
117.639	34
118.919	32
120.2	35
121.48	35
122.76	37
124.04	29
125.32	38
126.599	39
127.879	32
129.158	36
130.436	33
131.715	34
132.992	32
134.27	34
135.548	36
136.826	28
138.104	42
139.381	38
140.658	36
141.935	42
143.212	31
144.489	42
145.763	42
147.04	36
148.315	36
149.591	40
150.867	37
152.142	36
153.416	35
154.691	47
155.965	41
157.24	39
158.514	40
159.786	34
161.06	38
162.334	42
163.607	42
164.881	40
166.152	34
167.425	46
168.698	41
169.969	36
171.241	36
172.513	42
173.785	38
175.055	38
176.326	42
177.597	39
178.867	39
180.137	36
181.408	40
182.677	40
183.947	40
185.217	36
186.485	36
187.755	35
189.022	45
190.291	45
191.56	40
192.828	44
194.096	42
195.363	38
196.631	42
197.899	37
199.165	36
200.432	41
201.698	41
202.965	39
204.23	37
205.497	37
206.762	40
208.028	37
209.293	38
210.559	36
211.823	35
213.088	34
214.352	37
215.617	35
216.88	30
218.145	32
219.408	38
220.672	28
221.934	38
223.196	31
224.46	36
225.722	34
226.985	34
228.246	33
229.508	38
230.77	34
232.031	34
233.292	38
234.554	38
235.814	32
237.074	36
238.335	37
239.595	31
240.854	35
242.115	32
243.374	28
244.633	38
245.893	28
247.151	36
248.409	28
249.667	30
250.927	34
252.184	36
253.442	24
254.699	31
255.957	30
257.214	26
258.47	31
259.727	31
260.983	35
262.24	31
263.496	32
264.752	28
266.007	35
267.262	33
268.517	30
269.773	34
271.028	36
272.282	32
273.536	34
274.79	34
276.044	33
277.297	36
278.551	33
279.804	32
281.057	32
282.31	34
283.564	30
284.816	35
286.068	32
287.32	34
288.572	30
289.823	30
291.074	32
292.325	34
293.576	34
294.827	33
296.077	31
297.328	36
298.578	29
299.828	36
301.077	30
302.325	30
303.575	22
304.824	30
306.073	34
307.321	32
308.57	34
309.818	36
311.066	28
312.314	34
313.562	31
314.808	30
316.055	28
317.302	27
318.549	26
319.796	28
321.042	32
322.288	35
323.533	28
324.779	26
326.024	36
327.27	28
328.515	33
329.759	36
331.004	30
332.248	34
333.493	34
334.736	30
335.98	28
337.223	27
338.466	33
339.709	30
340.952	32
342.195	32
343.437	28
344.68	24
345.922	31
347.163	36
348.405	28
349.647	33
350.887	29
352.128	32
353.37	33
354.609	32
355.85	32
357.089	30
358.33	38
359.57	28
360.809	30
362.049	30
363.287	34
364.526	29
365.764	30
367.003	34
368.241	28
369.479	36
370.718	30
371.955	36
373.193	33
374.429	33
375.667	34
376.903	34
378.139	36
379.376	36
380.611	35
381.848	30
383.083	32
384.319	31
385.554	30
386.79	32
388.024	30
389.258	31
390.493	33
391.727	26
392.962	28
394.195	30
395.428	35
396.663	32
397.895	30
399.128	35
400.361	28
401.593	24
402.825	30
404.058	31
405.29	30
406.521	31
407.752	32
408.985	32
410.215	34
411.446	39
412.678	31
413.908	28
415.138	32
416.367	34
417.597	36
418.828	34
420.057	31
421.286	34
422.514	30
423.743	27
424.973	34
426.201	30
427.429	26
428.657	32
429.884	31
431.112	36
432.34	33
433.567	38
434.794	35
436.02	30
437.247	31
438.473	29
439.699	38
440.925	35
442.15	37
443.376	34
444.601	33
445.826	31
447.051	34
448.275	31
449.5	34
450.724	34
451.948	32
453.172	32
454.396	30
455.619	30
456.842	34
458.065	35
459.288	34
460.511	37
461.733	35
462.956	35
464.178	35
465.4	32
466.621	32
467.843	33
469.064	34
470.285	37
471.505	30
472.726	36
473.946	36
475.166	39
476.387	37
477.606	34
478.825	38
480.044	40
481.264	46
482.483	42
483.702	48
484.921	50
486.138	50
487.356	50
488.574	51
489.792	54
491.009	56
492.226	49
493.444	50
494.661	48
495.877	46
497.094	48
498.31	44
499.525	38
500.741	48
501.958	41
503.172	41
504.388	36
505.603	44
506.817	40
508.032	40
509.247	38
510.46	41
511.675	32
512.888	34
514.102	39
515.316	36
516.528	38
517.742	37
518.954	36
520.167	34
521.378	38
522.591	38
523.802	32
525.015	36
526.226	33
527.438	37
528.648	33
529.86	37
531.07	32
532.281	34
533.491	38
534.702	36
535.911	30
537.121	30
538.33	36
539.54	29
540.749	35
541.957	32
543.167	33
544.375	34
545.584	31
546.791	34
547.999	26
549.207	28
550.414	29
551.621	36
552.829	32
554.035	22
555.241	33
556.449	32
557.655	36
558.86	33
560.066	32
561.272	30
562.477	30
563.682	31
564.888	35
566.093	37
567.297	31
568.501	29
569.705	30
570.91	26
572.114	30
573.317	32
574.52	35
575.723	32
576.927	32
578.13	30
579.332	33
580.535	30
581.737	29
582.938	32
584.14	36
585.343	30
586.544	28
587.745	30
588.946	30
590.147	33
591.347	32
592.548	34
593.748	24
594.948	28
596.147	28
597.347	35
598.546	31
599.745	28
600.944	30
602.143	29
603.342	30
604.54	31
605.738	24
606.937	30
608.134	34
609.332	30
610.529	34
611.727	38
612.924	31
614.121	28
615.317	37
616.513	31
617.709	29
618.905	30
620.101	30
621.297	32
622.492	26
623.688	37
624.883	26
626.077	28
627.271	27
628.466	34
629.66	33
630.855	33
632.047	34
633.241	30
634.435	37
635.629	31
636.82	33
638.014	30
639.207	34
640.399	30
641.59	28
642.783	34
643.975	33
645.166	34
646.357	30
647.549	30
648.741	34
649.93	36
651.122	34
652.311	26
653.502	30
654.692	35
655.881	28
657.071	32
658.261	30
659.45	36
660.639	28
661.827	31
663.016	30
664.204	37
665.393	30
666.581	30
667.769	33
668.957	36
670.143	36
671.331	35
672.518	31
673.705	38
674.891	33
676.078	34
677.264	30
678.451	38
679.636	34
680.821	34
682.007	36
683.192	38
684.378	35
685.562	37
686.747	35
687.931	35
689.115	37
690.3	32
691.483	34
692.666	36
693.851	39
695.034	38
696.216	35
697.4	37
698.582	39
699.764	36
700.948	43
702.129	32
703.311	45
704.493	42
705.674	47
706.855	46
708.036	43
709.218	40
710.399	44
711.579	48
712.759	44
713.939	45
715.12	40
716.299	38
717.478	36
718.657	35
719.836	32
721.015	36
722.195	34
723.373	30
724.552	30
725.729	28
726.907	32
728.085	30
729.262	32
730.44	30
731.617	29
732.795	37
733.972	30
735.148	36
736.324	32
737.501	36
738.677	34
739.852	28
741.028	36
742.203	34
743.379	32
744.554	34
745.729	30
746.903	36
748.078	27
749.252	37
750.426	30
751.599	30
752.772	30
753.946	29
755.119	30
756.293	30
757.466	34
758.639	30
759.811	35
760.984	28
762.155	34
763.327	32
764.499	26
765.67	32
766.842	31
768.013	32
769.183	33
770.354	34
771.525	32
772.696	34
773.865	34
775.035	40
776.205	33
777.375	32
778.544	34
779.713	24
780.882	32
782.052	30
783.219	35
784.388	32
785.557	36
786.724	36
787.892	38
789.06	33
790.227	32
791.395	32
792.562	33
793.728	40
794.895	28
796.061	36
797.228	30
798.395	31
799.56	32
800.726	36
801.891	36
803.057	32
804.221	32
805.387	36
806.551	30
807.716	32
808.879	30
810.044	36
811.208	30
812.372	36
813.535	32
814.699	30
815.862	34
817.025	31
818.188	28
819.351	35
820.513	29
821.675	34
822.837	30
823.999	33
825.161	37
826.322	31
827.483	37
828.645	36
829.805	32
830.966	34
832.127	34
833.287	32
834.447	29
835.607	34
836.767	33
837.926	27
839.085	37
840.245	32
841.404	30
842.562	34
843.72	28
844.88	34
846.038	37
847.195	35
848.353	28
849.512	30
850.669	28
851.826	32
852.983	31
854.139	35
855.296	28
856.453	34
857.609	28
858.765	22
859.921	35
861.077	39
862.232	38
863.387	29
864.542	34
865.697	31
866.852	33
868.008	28
869.162	36
870.316	32
871.47	38
872.624	32
873.778	32
874.931	28
876.084	32
877.237	28
878.39	32
879.543	34
880.695	34
881.846	32
882.999	28
884.151	29
885.302	33
886.454	28
887.606	33
888.757	34
889.908	33
891.059	27
892.21	34
893.359	31
894.509	29
895.659	32
896.81	31
897.959	29
899.109	34
900.257	32
901.407	33
902.556	30
903.705	32
904.854	28
906.001	36
907.149	30
908.298	32
909.446	28
910.592	33
911.74	33
912.888	28
914.034	32
915.181	31
916.328	28
917.473	33
918.62	28
919.766	29
920.911	34
922.058	30
923.204	30
924.348	28
925.494	27
926.638	30
927.783	26
928.928	33
930.072	33
931.216	30
932.36	26
933.504	30
934.647	30
935.791	28
936.933	32
938.077	32
939.219	29
940.363	35
941.504	30
942.647	30
943.789	25
944.932	32
946.073	22
947.215	32
948.356	30
949.498	30
950.638	31
951.778	28
952.92	28
954.06	33
955.199	32
956.34	29
957.479	28
958.62	26
959.759	27
960.898	27
962.038	36
963.176	35
964.315	30
965.453	29
966.592	31
967.73	24
968.867	33
970.006	30
971.144	28
972.281	26
973.418	31
974.554	28
975.692	26
976.829	30
977.965	31
979.101	28
980.237	30
981.374	30
982.509	36
983.645	24
984.78	29
985.915	29
987.05	31
988.184	32
989.319	32
990.453	26
991.589	31
992.722	30
993.856	29
994.99	32
996.123	26
997.257	32
998.39	32
999.523	29
1000.66	30
1001.79	29
1002.92	29
1004.05	31
1005.18	32
1006.32	31
1007.45	30
1008.58	31
1009.71	30
1010.84	30
1011.97	27
1013.1	31
1014.23	32
1015.36	26
1016.49	28
1017.62	27
1018.75	34
1019.88	30
1021.01	28
1022.14	29
1023.27	29
1024.4	33
1025.53	33
1026.66	33
1027.79	28
1028.91	30
1030.04	31
1031.17	30
1032.3	29
1033.42	26
1034.55	32
1035.68	29
1036.81	28
1037.93	26
1039.06	30
1040.18	33
1041.31	32
1042.44	32
1043.56	34
1044.69	28
1045.81	30
1046.94	29
1048.06	36
1049.19	30
1050.31	26
1051.44	27
1052.56	34
1053.69	33
1054.81	33
1055.93	30
1057.06	32
1058.18	30
1059.3	34
1060.43	27
1061.55	32
1062.67	27
1063.79	31
1064.92	34
1066.04	30
1067.16	31
1068.28	30
1069.4	26
1070.52	28
1071.65	28
1072.77	31
1073.89	30
1075.01	32
1076.13	32
1077.25	24
1078.37	28
1079.49	28
1080.61	33
1081.73	30
1082.85	28
1083.97	26
1085.09	29
1086.2	32
1087.32	31
1088.44	30
1089.56	30
1090.68	24
1091.8	28
1092.91	27
1094.03	30
1095.15	29
1096.26	34
1097.38	28
1098.5	30
1099.61	28
1100.73	30
1101.85	31
1102.96	28
1104.08	27
1105.19	34
1106.31	24
1107.43	28
1108.54	29
1109.66	34
1110.77	32
1111.88	26
1113	34
1114.11	26
1115.23	31
1116.34	32
1117.46	26
1118.57	22
1119.68	28
1120.8	33
1121.91	28
1123.02	28
1124.13	26
1125.25	30
1126.36	31
1127.47	26
1128.58	35
1129.69	28
1130.8	30
1131.92	20
1133.03	31
1134.14	24
1135.25	34
1136.36	26
1137.47	34
1138.58	28
1139.69	34
1140.8	29
1141.91	28
1143.02	28
1144.13	30
1145.24	31
1146.35	28
1147.46	34
1148.56	30
1149.67	28
1150.78	30
1151.89	29
1153	32
1154.1	26
1155.21	28
1156.32	27
1157.43	33
1158.53	31
1159.64	27
1160.75	26
1161.85	24
1162.96	32
1164.07	30
1165.17	35
1166.28	30
1167.38	33
1168.49	33
1169.59	31
1170.7	28
1171.8	28
1172.91	29
1174.01	27
1175.12	26
1176.22	31
1177.32	28
1178.43	30
1179.53	24
1180.64	30
1181.74	29
1182.84	31
1183.94	29
1185.05	33
1186.15	30
1187.25	30
1188.35	31
1189.46	28
1190.56	26
1191.66	29
1192.76	29
1193.86	26
1194.96	30
1196.06	30
1197.16	32.9393
1198.26	29.0441
1199.37	26.2021
1200.47	26.0993
1201.57	30.9656
1202.67	27.2047
1203.77	27.7688
1204.86	27.8489
1205.96	28.6564
1207.06	32.0825
1208.16	30.4363
1209.26	31.8913
1210.36	32.0816
1211.46	26.9975
1212.56	30.2391
1213.65	24.2484
1214.75	27.4768
1215.85	27.9064
1216.95	30.2432
1218.04	30.281
1219.14	29.0988
1220.24	28.0317
1221.33	29.848
1222.43	30.5588
1223.53	29.5247
1224.62	24.7402
1225.72	30.8111
1226.82	31.3994
1227.91	30.2325
1229.01	32.3483
1230.1	26.9665
1231.2	28.0882
1232.29	26.6897
1233.39	29.9367
1234.48	28.5319
1235.58	26.7207
1236.67	29.3582
1237.77	26.1227
1238.86	28.478
1239.95	29.6563
1241.05	28.0198
1242.14	31.8514
1243.23	28.6672
1244.33	31.9748
1245.42	27.6312
1246.51	24.8366
1247.61	28.6191
1248.7	27.3503
1249.79	26.5441
1250.88	30.1529
1251.97	28.2162
1253.07	26.7626
1254.16	27.8647
1255.25	28.156
1256.34	29.0882
1257.43	30
1258.52	28.4608
1259.61	29.8937
1260.7	29.6649
1261.79	28.6475
1262.88	26.8985
1263.97	27.1535
1265.06	28.0334
1266.15	27.6679
1267.24	29.1175
1268.33	28.8157
1269.42	29.8495
1270.51	27.4906
1271.6	27.3627
1272.68	28.1802
1273.77	32.8234
1274.86	28.8176
1275.95	29.7081
1277.04	30.4245
1278.12	30.7995
1279.21	26.9947
1280.3	25.1893
1281.39	27.3915
1282.47	26.7827
1283.56	25.4302
1284.65	30.6363
1285.73	27.2077
1286.82	25.8611
1287.91	28.1476
1288.99	24.91
1290.08	27.235
1291.16	30.9579
1292.25	26.4946
1293.33	29.3973
1294.42	26.6065
1295.5	32.4694
1296.59	26.6312
1297.67	29.5341
1298.76	27.728
1299.84	24.0907
1300.92	23.7543
1302.01	28.2856
1303.09	31.459
1304.17	29.2957
1305.26	32.5051
1306.34	28.0098
1307.34	28
1308.43	29
1309.52	30
1310.61	24
1311.7	26
1312.78	28
1313.87	27
1314.96	25
1316.04	28
1317.13	29
1318.22	31
1319.3	28
1320.39	19
1321.48	28
1322.56	24
1323.65	30
1324.73	30
1325.82	27
1326.9	29
1327.99	28
1329.07	28
1330.16	26
1331.24	33
1332.33	26
1333.41	29
1334.5	30
1335.58	27
1336.66	27
1337.75	32
1338.83	26
1339.91	28
1341	30
1342.08	28
1343.16	28
1344.24	34
1345.33	35
1346.41	25
1347.49	28
1348.57	32
1349.65	27
1350.74	20
1351.82	26
1352.9	36
1353.98	32
1355.06	33
1356.14	26
1357.22	30
1358.3	29
1359.38	30
1360.46	29
1361.54	22
1362.62	28
1363.7	35
1364.78	28
1365.86	30
1366.94	30
1368.02	30
1369.09	23
1370.17	32
1371.25	29
1372.33	31
1373.41	30
1374.48	28
1375.56	31
1376.64	30
1377.72	29
1378.79	26
1379.87	26
1380.95	29
1382.02	31
1383.1	24
1384.17	31
1385.25	28
1386.33	28
1387.4	30
1388.48	29
1389.55	26
1390.63	30
1391.7	31
1392.78	30
1393.85	30
1394.93	26
1396	28
1397.07	34
1398.15	28
1399.22	33
1400.3	32
1401.37	34
1402.44	32
1403.52	33
1404.59	32
1405.66	31
1406.73	30
1407.81	34
1408.88	24
1409.95	32
1411.02	34
1412.09	31
1413.17	32
1414.24	34
1415.31	26
1416.38	27
1417.45	30
1418.52	35
1419.59	31
1420.66	30
1421.73	26
1422.8	29
1423.87	29
1424.94	31
1426.01	34
1427.08	33
1428.15	31
1429.22	30
1430.29	30
1431.35	35
1432.42	24
1433.49	29
1434.56	30
1435.63	28
1436.69	31
1437.76	30
1438.83	35
1439.9	28
1440.96	30
1442.03	31
1443.1	28
1444.17	25
1445.23	29
1446.3	31
1447.36	32
1448.43	30
1449.49	26
1450.56	32
1451.63	31
1452.69	34
1453.76	32
1454.82	33
1455.89	32
1456.95	31
1458.01	31
1459.08	32
1460.14	30
1461.21	28
1462.27	26
1463.34	29
1464.4	24
1465.46	30
1466.52	28
1467.59	28
1468.65	28
1469.71	28
1470.77	30
1471.84	26
1472.9	28
1473.96	31
1475.02	26
1476.08	31
1477.15	25
1478.21	35
1479.27	29
1480.33	30
1481.39	27
1482.45	24
1483.51	29
1484.57	30
1485.63	29
1486.69	31
1487.75	30
1488.81	29
1489.87	30
1490.93	28
1491.99	36
1493.05	24
1494.1	27
1495.16	33
1496.22	24
1497.28	27
1498.34	30
1499.4	32
1500.45	25
1501.51	22
1502.57	28
1503.63	22
1504.68	30
1505.74	25
1506.8	30
1507.85	27
1508.91	28
1509.97	32
1511.02	35
1512.08	32
1513.13	28
1514.19	28
1515.24	30
1516.3	28
1517.35	33
1518.41	28
1519.46	30
1520.52	32
1521.57	29
1522.63	28
1523.68	30
1524.73	27
1525.79	32
1526.84	24
1527.9	26
1528.95	27
1530	28
1531.05	24
1532.11	29
1533.16	28
1534.21	32
1535.26	30
1536.32	28
1537.37	30
1538.42	31
1539.47	30
1540.52	29
1541.57	29
1542.63	28
1543.68	30
1544.73	31
1545.78	26
1546.83	28
1547.88	27
1548.93	28
1549.98	32
1551.03	29
1552.08	28
1553.13	32
1554.18	24
1555.23	28
1556.27	26
1557.32	27
1558.37	30
1559.42	26
1560.47	32
1561.52	29
1562.56	29
1563.61	28
1564.66	30
1565.71	28
1566.75	31
1567.8	26
1568.85	34
1569.9	26
1570.94	26
1571.99	28
1573.03	30
1574.08	29
1575.13	28
1576.17	30
1577.22	33
1578.26	28
1579.31	25
1580.35	29
1581.4	30
1582.44	35
1583.49	30
1584.53	24
1585.58	28
1586.62	26
1587.66	29
1588.71	26
1589.75	27
1590.8	26
1591.84	29
1592.88	30
1593.92	28
1594.97	29
1596.01	30
1597.05	30
1598.1	22
1599.14	33
1600.18	32
1601.22	30
1602.26	32
1603.3	26
1604.35	30
1605.39	29
1606.43	32
1607.47	31
1608.51	29
1609.55	30
1610.59	25
1611.63	30
1612.67	28
1613.71	32
1614.75	29
1615.79	31
1616.83	26
1617.87	29
1618.91	27
1619.95	28
1620.99	30
1622.02	31
1623.06	30
1624.1	28
1625.14	30
1626.18	30
1627.21	26
1628.25	29
1629.29	24
1630.33	26
1631.36	32
1632.4	26
1633.44	31
1634.48	28
1635.51	31
1636.55	27
1637.58	30
1638.62	30
1639.66	33
1640.69	30
1641.73	32
1642.76	30
1643.8	28
1644.83	29
1645.87	34
1646.9	32
1647.94	26
1648.97	32
1650	32
1651.04	30
1652.07	24
1653.11	30
1654.14	26
1655.17	23
1656.21	24
1657.24	26
1658.27	30
1659.31	29
1660.34	28
1661.37	28
1662.4	30
1663.43	28
1664.47	34
1665.5	29
1666.53	27
1667.56	34
1668.59	31
1669.62	34
1670.66	29
1671.69	33
1672.72	27
1673.75	29
1674.78	25
1675.81	27
1676.84	34
1677.87	31
1678.9	26
1679.93	34
1680.96	28
1681.98	26
1683.01	31
1684.04	28
1685.07	30
1686.1	25
1687.13	31
1688.16	28
1689.18	30
1690.21	32
1691.24	30
1692.27	31
1693.3	26
1694.32	31
1695.35	33
1696.38	32
1697.4	30
1698.43	30
1699.46	27
1700.48	30
1701.51	30
1702.54	27
1703.56	28
1704.59	24
1705.61	32
1706.64	28
1707.66	27
1708.69	24
1709.71	30
1710.74	28
1711.76	29
1712.79	30
1713.81	27
1714.83	26
1715.86	30
1716.88	28
1717.91	29
1718.93	31
1719.95	34
1720.98	31
1722	26
1723.02	28
1724.04	22
1725.07	33
1726.09	27
1727.11	30
1728.13	30
1729.15	28
1730.18	30
1731.2	31
1732.22	27
1733.24	30
1734.26	31
1735.28	26
1736.3	33
1737.32	27
1738.34	28
1739.36	28
1740.38	30
1741.4	28
1742.42	36
1743.44	26
1744.46	31
1745.48	26
1746.5	28
1747.52	30
1748.54	30
1749.56	26
1750.58	31
1751.6	30
1752.61	26
1753.63	27
1754.65	28
1755.67	28
1756.68	33
1757.7	32
1758.72	33
1759.74	27
1760.75	29
1761.77	24
1762.79	30
1763.8	24
1764.82	30
1765.83	28
1766.85	28
1767.87	26
1768.88	26
1769.9	28
1770.91	25
1771.93	30
1772.94	28
1773.96	30
1774.97	30
1775.99	28
1777	28
1778.02	30
1779.03	25
1780.04	30
1781.06	29
1782.07	29
1783.09	31
1784.1	28
1785.11	28
1786.13	26
1787.14	28
1788.15	28
1789.16	28
1790.18	33
1791.19	22
1792.2	30
1793.21	33
1794.22	29
1795.23	26
1796.25	31
1797.26	32
1798.27	27
1799.28	30
1800.29	29
1801.3	29
1802.31	36
1803.32	30
1804.33	30
1805.34	28
1806.35	30
1807.36	26
1808.37	28
1809.38	32
1810.39	31
1811.4	32
1812.41	27
1813.42	32
1814.42	31
1815.43	31
1816.44	30
1817.45	28
1818.46	31
1819.47	28
1820.47	34
1821.48	32
1822.49	26
1823.49	24
1824.5	28
1825.51	29
1826.52	24
1827.52	30
1828.53	28
1829.53	33
1830.54	28
1831.55	31
1832.55	35
1833.56	32
1834.56	24
1835.57	32
1836.57	24
1837.58	33
1838.58	26
1839.59	31
1840.59	31
1841.6	30
1842.6	28
1843.61	26
1844.61	30
1845.61	28
1846.62	24
1847.62	26
1848.62	31
1849.63	26
1850.63	30
1851.63	33
1852.64	30
1853.64	29
1854.64	32
1855.64	26
1856.64	29
1857.65	28
1858.65	26
1859.65	27
1860.65	30
1861.65	30
1862.65	28
1863.65	27
1864.66	31
1865.66	28
1866.66	31
1867.66	31
1868.66	30
1869.66	28
1870.66	28
1871.66	30
1872.66	32
1873.66	26
1874.66	30
1875.65	28
1876.65	26
1877.65	30
1878.65	28
1879.65	28
1880.65	26
1881.65	26
1882.64	29
1883.64	26
1884.64	25
1885.64	25
1886.63	27
1887.63	30
1888.63	26
1889.63	32
1890.62	29
1891.62	33
1892.62	28
1893.61	30
1894.61	28
1895.6	27
1896.6	25
1897.6	24
1898.59	29
1899.59	26
1900.58	26
1901.58	32
1902.57	29
1903.57	21
1904.56	30
1905.56	28
1906.55	29
1907.54	29
1908.54	24
1909.53	30
1910.53	28
1911.52	31
1912.51	28
1913.51	26
1914.5	27
1915.49	33
1916.49	24
1917.48	24
1918.47	28
1919.46	27
1920.46	31
1921.45	22
1922.44	30
1923.43	28
1924.42	33
1925.41	27
1926.41	28
1927.4	28
1928.39	25
1929.38	26
1930.37	28
1931.36	29
1932.35	29
1933.34	26
1934.33	26
1935.32	28
1936.31	26
1937.3	28
1938.29	33
1939.28	27
1940.27	30
1941.26	29
1942.24	30
1943.23	20
1944.22	29
1945.21	28
1946.2	32
1947.19	32
1948.17	29
1949.16	24
1950.15	26
1951.14	28
1952.12	28
1953.11	26
1954.1	28
1955.09	31
1956.07	27
1957.06	31
1958.05	31
1959.03	24
1960.02	24
1961	24
1961.99	24
1962.98	24
1963.96	28
1964.95	22
1965.93	28
1966.92	27
1967.9	28
1968.89	25
1969.87	18
1970.85	26
1971.84	30
1972.82	26
1973.81	27
1974.79	31
1975.78	26
1976.76	29
1977.74	31
1978.73	30
1979.71	30
1980.69	33
1981.67	29
1982.66	28
1983.64	26
1984.62	30
1985.6	28
1986.59	27
1987.57	28
1988.55	25
1989.53	27
1990.51	24
1991.49	26
1992.47	27
1993.45	29
1994.44	26
1995.42	27
1996.4	27
1997.38	30
1998.36	32
1999.34	30
2000.32	23
2001.3	32
2002.28	28
2003.26	27
2004.24	31
2005.22	26
2006.19	22
2007.17	25
2008.15	26
2009.13	28
2010.11	25
2011.09	29
2012.06	28
2013.04	21
2014.02	28
2015	20
2015.98	36
2016.95	31
2017.93	32
2018.91	26
2019.88	28
2020.86	28
2021.84	31
2022.81	26
2023.79	27
2024.77	34
2025.74	30
2026.72	27
2027.69	30
2028.67	26
2029.65	28
2030.62	27
2031.6	23
2032.57	29
2033.55	30
2034.52	24
2035.5	25
2036.47	28
2037.44	27
2038.42	28
2039.39	25
2040.36	30
2041.34	26
2042.31	29
2043.29	21
2044.26	32
2045.23	28
2046.2	27
2047.18	33
2048.15	25
2049.12	26
2050.09	27
2051.07	26
2052.04	26
2053.01	26
2053.98	24
2054.95	30
2055.93	25
2056.9	26
2057.87	28
2058.84	26
2059.81	32
2060.78	24
2061.75	28
2062.72	26
2063.69	30
2064.66	28
2065.63	27
2066.6	28
2067.57	24
2068.54	28
2069.51	30
2070.48	28
2071.45	26
2072.42	22
2073.38	25
2074.35	30
2075.32	28
2076.29	26
2077.26	29
2078.23	32
2079.19	26
2080.16	31
2081.13	27
2082.1	18
2083.06	28
2084.03	27
2085	27
2085.96	25
2086.93	27
2087.9	28
2088.86	24
2089.83	28
2090.8	23
2091.76	29
2092.73	29
2093.69	27
2094.66	21
2095.62	28
2096.59	26
2097.55	27
2098.52	22
2099.48	26
2100.45	23
2101.41	28
2102.38	27
2103.34	29
2104.31	26
2105.27	27
2106.23	22
2107.2	24
2108.16	24
2109.12	32
2110.09	24
2111.05	25
2112.01	30
2112.98	29
2113.94	28
2114.9	26
2115.86	20
2116.82	25
2117.79	30
2118.75	24
2119.71	30
2120.67	22
2121.63	30
2122.59	28
2123.55	25
2124.52	24
2125.48	31
2126.44	25
2127.4	24
2128.36	25
2129.32	28
2130.28	25
2131.24	26
2132.2	24
2133.16	28
2134.12	26
2135.08	24
2136.04	25
2136.99	28
2137.95	26
2138.91	25
2139.87	20
2140.83	26
2141.79	22
2142.75	26
2143.7	30
2144.66	26
2145.62	26.0089
2146.58	24.0348
2147.53	28.049
2148.49	23.2346
2149.45	30.8609
2150.41	24.1078
2151.36	28.8004
2152.32	24
2153.27	26.7593
2154.23	25.9709
2155.19	26.2794
2156.14	25.3562
2157.1	27.0135
2158.06	24.7697
2159.01	24.0074
2159.97	22.6078
2160.92	27.669
2161.88	28.8082
2162.83	25.5452
2163.79	24.9559
2164.74	25.6028
2165.7	29.1529
2166.65	25.5651
2167.61	27.9815
2168.56	30.8621
2169.51	22.5
2170.47	24.7527
2171.42	19.1326
2172.38	27.9246
2173.33	20.9395
2174.28	26.9349
2175.24	26.8892
2176.19	27.6373
2177.14	29.3055
2178.09	26.1366
2179.05	22.3646
2180	25.3412
2180.95	25.3265
2181.9	26.7467
2182.86	26.039
2183.81	23.9761
2184.76	26.9071
2185.71	24.61
2186.66	24.4044
2187.61	23.6552
2188.57	26.6032
2189.52	25.938
2190.47	25.7305
2191.42	24.8529
2192.37	25.5294
2193.32	26.4951
2194.27	29.1873
2195.22	27.4
2196.17	27.697
2197.12	24.6639
2198.07	26.2248
2199.02	24.9682
2199.97	26.3649
2200.92	26.2941
2201.87	24.4722
2202.82	23.7491
2203.76	26.0235
2204.71	26.4786
2205.66	25.3843
2206.61	24.416
2207.56	25.756
2208.51	26
2209.45	25.3374
2210.4	25.0093
2211.35	25.7505
2212.3	27.1043
2213.24	27.1029
2214.19	26.3241
2215.14	26.4412
2216.09	25.6389
2217.03	25.3735
2217.98	24.7175
2218.93	26.9699
2219.87	26.0792
2220.82	24.6618
2221.77	25.6327
2222.71	26.0515
2223.66	26.0251
2224.6	26.4724
2225.55	28.5912
2226.49	26.7168
2227.44	26.9502
2228.38	27.4314
2229.33	24.0443
2230.27	24.6797
2231.22	25.7574
2232.16	26.5946
2233.11	26.4906
2234.05	26.25
2235	27.0667
2235.94	28.0637
2236.88	30.1312
2237.83	27.1912
2238.77	27.952
2239.71	26.7551
2240.66	23.4093
2241.6	23.5912
2242	24
2242.95	26
2243.9	24
2244.84	26
2245.79	28
2246.74	25
2247.69	24
2248.63	22
2249.58	24
2250.53	28
2251.47	25
2252.42	26
2253.37	28
2254.31	20
2255.26	30
2256.2	31
2257.15	24
2258.1	26
2259.04	26
2259.99	24
2260.93	23
2261.88	25
2262.82	24
2263.77	29
2264.71	23
2265.65	28
2266.6	32
2267.54	24
2268.49	28
2269.43	24
2270.38	24
2271.32	27
2272.26	27
2273.21	24
2274.15	24
2275.09	27
2276.04	28
2276.98	29
2277.92	20
2278.86	26
2279.81	22
2280.75	32
2281.69	25
2282.63	24
2283.57	28
2284.52	26
2285.46	26
2286.4	27
2287.34	32
2288.28	26
2289.22	29
2290.16	25
2291.1	26
2292.04	26
2292.98	26
2293.93	26
2294.86	25
2295.8	22
2296.74	24
2297.69	30
2298.62	22
2299.56	30
2300.5	27
2301.44	33
2302.38	30
2303.32	30
2304.26	21
2305.2	26
2306.14	28
2307.07	24
2308.01	20
2308.95	26
2309.89	29
2310.83	22
2311.76	30
2312.7	26
2313.64	28
2314.58	22
2315.51	28
2316.45	21
2317.39	29
2318.32	27
2319.26	25
2320.2	27
2321.13	31
2322.07	25
2323	22
2323.94	24
2324.88	22
2325.81	22
2326.75	22
2327.68	27
2328.62	27
2329.55	26
2330.49	22
2331.42	28
2332.36	22
2333.29	23
2334.22	29
2335.16	27
2336.09	27
2337.03	31
2337.96	30
2338.89	28
2339.83	24
2340.76	26
2341.69	24
2342.63	24
2343.56	29
2344.49	24
2345.43	24
2346.36	30
2347.29	25
2348.22	29
2349.15	18
2350.09	27
2351.02	22
2351.95	25
2352.88	24
2353.81	22
2354.74	24
2355.67	28
2356.61	30
2357.54	28
2358.47	26
2359.4	28
2360.33	29
2361.26	28
2362.19	27
2363.12	28
2364.05	24
2364.98	26
2365.91	30
2366.84	34
2367.77	26
2368.7	22
2369.62	28
2370.55	28
2371.48	29
2372.41	30
2373.34	29
2374.27	26
2375.2	29
2376.12	27
2377.05	30
2377.98	25
2378.91	29
2379.83	26
2380.76	24
2381.69	20
2382.62	32
2383.54	30
2384.47	26
2385.4	26
2386.32	27
2387.25	28
2388.18	31
2389.1	27
2390.03	26
2390.95	27
2391.88	27
2392.81	29
2393.73	28
2394.66	28
2395.58	21
2396.51	28
2397.43	28
2398.36	27
2399.28	30
2400.2	25
2401.13	27
2402.05	30
2402.98	31
2403.9	28
2404.83	24
2405.75	30
2406.67	26
2407.6	22
2408.52	29
2409.44	29
2410.37	28
2411.29	28
2412.21	28
2413.13	26
2414.06	28
2414.98	30
2415.9	22
2416.82	25
2417.74	29
2418.67	26
2419.59	28
2420.51	30
2421.43	24
2422.35	26
2423.27	26
2424.19	24
2425.11	24
2426.03	26
2426.96	26
2427.88	20
2428.8	29
2429.72	30
2430.64	26
2431.56	30
2432.48	26
2433.39	26
2434.31	29
2435.23	27
2436.15	28
2437.07	25
2437.99	24
2438.91	24
2439.83	31
2440.75	24
2441.67	18
2442.58	28
2443.5	26
2444.42	27
2445.34	29
2446.26	25
2447.17	25
2448.09	26
2449.01	27
2449.92	20
2450.84	28
2451.76	29
2452.68	26
2453.59	21
2454.51	28
2455.42	26
2456.34	31
2457.26	28
2458.17	30
2459.09	27
2460	24
2460.92	32
2461.83	32
2462.75	26
2463.66	26
2464.58	29
2465.49	25
2466.41	29
2467.32	28
2468.24	30
2469.15	29
2470.07	31
2470.98	26
2471.89	30
2472.81	22
2473.72	28
2474.64	32
2475.55	27
2476.46	26
2477.37	30
2478.29	32
2479.2	26
2480.11	24
2481.03	28
2481.94	24
2482.85	24
2483.76	30
2484.67	27
2485.59	24
2486.5	24
2487.41	28
2488.32	27
2489.23	24
2490.14	27
2491.05	29
2491.97	26
2492.88	28
2493.79	28
2494.7	27
2495.61	26
2496.52	22
2497.43	26
2498.34	30
2499.25	26
2500.16	28
2501.07	30
2501.98	26
2502.89	29
2503.79	27
2504.7	28
2505.61	29
2506.52	27
2507.43	34
2508.34	32
2509.25	24
2510.16	27
2511.06	24
2511.97	30
2512.88	30
2513.79	29
2514.69	26
2515.6	27
2516.51	24
2517.42	28
2518.32	30
2519.23	24
2520.14	28
2521.04	29
2521.95	30
2522.86	22
2523.76	29
2524.67	30
2525.57	22
2526.48	29
2527.39	30
2528.29	24
2529.2	26
2530.1	27
2531.01	26
2531.91	32
2532.82	28
2533.72	22
2534.63	27
2535.53	29
2536.44	26
2537.34	30
2538.24	26
2539.15	29
2540.05	28
2540.96	26
2541.86	26
2542.76	34
2543.67	28
2544.57	30
2545.47	22
2546.37	28
2547.28	28
2548.18	30
2549.08	28
2549.99	29
2550.89	29
2551.79	29
2552.69	30
2553.59	26
2554.49	35
2555.4	30
2556.3	22
2557.2	26
2558.1	28
2559	31
2559.9	30
2560.8	28
2561.7	20
2562.6	27
2563.5	26
2564.4	29
2565.3	24
2566.2	26
2567.1	31
2568	22
2568.9	31
2569.8	27
2570.7	29
2571.6	28
2572.5	26
2573.4	28
2574.3	26
2575.2	32
2576.1	27
2576.99	26
2577.89	30
2578.79	30
2579.69	31
2580.59	29
2581.48	26
2582.38	24
2583.28	25
2584.18	28
2585.07	26
2585.97	30
2586.87	26
2587.76	32
2588.66	27
2589.56	30
2590.45	28
2591.35	32
2592.25	24
2593.14	29
2594.04	26
2594.93	28
2595.83	26
2596.73	28
2597.62	24
2598.52	29
2599.41	24
2600.31	26
2601.2	28
2602.1	26
2602.99	33
2603.88	32
2604.78	28
2605.67	24
2606.57	26
2607.46	28
2608.35	30
2609.25	28
2610.14	26
2611.03	29
2611.93	28
2612.82	27
2613.71	25
2614.61	29
2615.5	26
2616.39	29
2617.29	24
2618.18	26
2619.07	30
2619.96	28
2620.85	25
2621.75	30
2622.64	28
2623.53	30
2624.42	22
2625.31	28
2626.2	28
2627.09	30
2627.98	26
2628.88	24
2629.77	30
2630.66	32
2631.55	27
2632.44	28
2633.33	24
2634.22	26
2635.11	30
2636	32
2636.89	27
2637.78	28
2638.66	28
2639.55	30
2640.44	31
2641.33	29
2642.22	34
2643.11	24
2644	29
2644.89	32
2645.78	27
2646.66	24
2647.55	35
2648.44	27
2649.33	26
2650.21	28
2651.1	27
2651.99	28
2652.88	29
2653.76	32
2654.65	25
2655.54	28
2656.42	28
2657.31	31
2658.2	31
2659.08	26
2659.97	28
2660.86	25
2661.74	24
2662.63	27
2663.51	24
2664.4	27
2665.29	29
2666.17	26
2667.06	28
2667.94	24
2668.83	26
2669.71	30
2670.6	27
2671.48	24
2672.36	28
2673.25	27
2674.13	26
2675.02	29
2675.9	26
2676.78	32
2677.67	26
2678.55	31
2679.43	26
2680.32	27
2681.2	32
2682.08	28
2682.97	22
2683.85	24
2684.73	28
2685.61	28
2686.5	28
2687.38	28
2688.26	28
2689.14	24
2690.03	28
2690.91	24
2691.79	31
2692.67	26
2693.55	27
2694.43	25
2695.31	30
2696.19	26
2697.08	29
2697.96	33
2698.84	28
2699.72	32
2700.6	27
2701.48	29
2702.36	30
2703.24	27
2704.12	28
2705	28
2705.88	33
2706.76	29
2707.64	29
2708.51	24
2709.39	33
2710.27	28
2711.15	24
2712.03	28
2712.91	27
2713.79	26
2714.67	25
2715.54	31
2716.42	26
2717.3	26
2718.18	24
2719.05	26
2719.93	25
2720.81	27
2721.69	28
2722.56	30
2723.44	26
2724.32	31
2725.19	26
2726.07	30
2726.95	29
2727.82	24
2728.7	25
2729.58	29
2730.45	22
2731.33	32
2732.2	22
2733.08	29
2733.95	28
2734.83	30
2735.7	29
2736.58	26
2737.45	26
2738.33	22
2739.2	30
2740.08	30
2740.95	24
2741.83	31
2742.7	32
2743.58	30
2744.45	24
2745.32	29
2746.2	29
2747.07	25
2747.94	25
2748.82	32
2749.69	26
2750.56	26
2751.44	28
2752.31	25
2753.18	29
2754.05	24
2754.93	28
2755.8	30
2756.67	24
2757.54	24
2758.42	26
2759.29	28
2760.16	30
2761.03	30
2761.9	25
2762.77	25
2763.64	27
2764.51	29
2765.38	31
2766.26	26
2767.13	27
2768	30
2768.87	29
2769.74	26
2770.61	24
2771.48	24
2772.35	30
2773.22	30
2774.09	30
2774.96	29
2775.83	31
2776.7	24
2777.56	29
2778.43	30
2779.3	29
2780.17	31
2781.04	26
2781.91	28
2782.78	27
2783.64	28
2784.51	26
2785.38	27
2786.25	24
2787.12	24
2787.98	29
2788.85	28
2789.72	27
2790.59	28
2791.45	28
2792.32	30
2793.19	32
2794.05	30
2794.92	28
2795.79	28
2796.65	28
2797.52	26
2798.38	26
2799.25	20
2800.12	24
2800.98	29
2801.85	28
2802.71	28
2803.58	29
2804.44	28
2805.31	18
2806.17	33
2807.04	27
2807.9	24
2808.77	26
2809.63	30
2810.5	31
2811.36	25
2812.22	26
2813.09	28
2813.95	26
2814.82	31
2815.68	33
2816.54	24
2817.41	24
2818.27	28
2819.13	31
2820	32
2820.86	26
2821.72	24
2822.58	28
2823.45	30
2824.31	30
2825.17	22
2826.03	26
2826.9	32
2827.76	25
2828.62	28
2829.48	28
2830.34	32
2831.2	25
2832.06	32
2832.92	24
2833.79	22
2834.65	30
2835.51	26
2836.37	24
2837.23	25
2838.09	28
2838.95	24
2839.81	29
2840.67	32
2841.53	28
2842.39	26
2843.25	31
2844.11	29
2844.97	30
2845.83	30
2846.68	26
2847.54	26
2848.4	24
2849.26	27
2850.12	25
2850.98	27
2851.84	29
2852.69	20
2853.55	31
2854.41	26
2855.27	28
2856.13	24
2856.98	30
2857.84	28
2858.7	26
2859.56	32
2860.41	26
2861.27	27
2862.13	30
2862.98	27
2863.84	29
2864.7	27
2865.55	28
2866.41	32
2867.27	29
2868.12	30
2868.98	26
2869.83	28
2870.69	28
2871.54	29
2872.4	29
2873.25	34
2874.11	28
2874.96	31
2875.82	33
2876.68	33
2877.53	28
2878.38	28
2879.24	33
2880.09	30
2880.95	35
2881.8	32
2882.65	34
2883.51	32
2884.36	30
2885.22	33
2886.07	32
2886.92	39
2887.77	33
2888.63	35
2889.48	33
2890.33	33
2891.19	37
2892.04	31
2892.89	43
2893.74	44
2894.6	38
2895.45	38
2896.3	41
2897.15	46
2898	42
2898.85	48
2899.71	50
2900.56	48
2901.41	56
2902.26	58
2903.11	53
2903.96	52
2904.81	59
2905.66	61
2906.51	50
2907.36	58
2908.21	57
2909.06	54
2909.91	54
2910.76	48
2911.61	52
2912.46	51
2913.31	49
2914.16	47
2915.01	46
2915.86	44
2916.71	42
2917.56	39
2918.41	37
2919.26	34
2920.1	30
2920.95	33
2921.8	34
2922.65	36
2923.5	28
2924.34	32
2925.19	31
2926.04	34
2926.89	36
2927.74	31
2928.58	32
2929.43	28
2930.28	30
2931.12	30
2931.97	28
2932.82	31
2933.66	34
2934.51	30
2935.36	29
2936.2	26
2937.05	32
2937.89	27
2938.74	28
2939.59	27
2940.43	23
2941.28	35
2942.12	30
2942.97	26
2943.81	33
2944.66	32
2945.5	32
2946.35	28
2947.19	31
2948.04	28
2948.88	32
2949.72	30
2950.57	34
2951.41	30
2952.26	32
2953.1	32
2953.94	30
2954.79	35
2955.63	33
2956.47	31
2957.32	38
2958.16	34
2959	38
2959.85	38
2960.69	32
2961.53	38
2962.37	33
2963.22	30
2964.06	45
2964.9	43
2965.74	40
2966.58	36
2967.42	37
2968.27	44
2969.11	36
2969.95	35
2970.79	32
2971.63	45
2972.47	36
2973.31	38
2974.15	34
2974.99	35
2975.83	33
2976.68	34
2977.52	28
2978.36	34
2979.2	34
2980.04	30
2980.88	30
2981.71	32
2982.55	27
2983.39	28
2984.23	30
2985.07	33
2985.91	29
2986.75	30
2987.59	31
2988.43	30
2989.27	27
2990.1	33
2990.94	27
2991.78	29
2992.62	28
2993.46	29
2994.3	27
2995.13	23
2995.97	26
2996.81	22
2997.64	26
2998.48	28
2999.32	31
