#Acq. time (s)=	3
#Accumulations=	3
#Range (cm-¹)=	100...3000
#Windows=	3
#Autofocus=	Off
#AutoExposure=	Off
#Spike filter=	Multiple accum.
#Delay time (s)=	0
#Binning=	1
#Readout mode=	Signal
#DeNoise=	Off
#ICS correction=	Off
#Dark correction=	Off
#Inst. Process=	Off
#Instrument=	LabRAM HR Evol
#Detector=	Syncerity OE
#Objective=	x100_VIS_LWD
#Grating=	600 (500nm)
#ND Filter=	25%
#Laser=	633nm_Edge
#Hole=	100.021
#Range=	Visible
#Project=	Bolus
#Sample=	A3
#Site=	stripside
#Title=	m08
#Remark=	
#Date=	03.11.2025 18:18
#Acquired=	03.11.2025 18:18:50
100.969	28
102.252	35
103.535	34
104.818	36
106.101	34
107.384	37
108.666	34
109.948	31
111.232	31
112.514	34
113.795	35
115.077	30
116.358	35
117.639	33
118.919	33
120.2	34
121.48	31
122.76	30
124.04	37
125.32	34
126.599	38
127.879	30
129.158	38
130.436	34
131.715	36
132.992	38
134.27	35
135.548	36
136.826	32
138.104	35
139.381	40
140.658	38
141.935	34
143.212	40
144.489	45
145.763	42
147.04	40
148.315	39
149.591	34
150.867	42
152.142	40
153.416	41
154.691	38
155.965	43
157.24	45
158.514	44
159.786	43
161.06	42
162.334	42
163.607	34
164.881	45
166.152	42
167.425	45
168.698	41
169.969	36
171.241	38
172.513	43
173.785	39
175.055	34
176.326	41
177.597	37
178.867	44
180.137	43
181.408	42
182.677	45
183.947	42
185.217	47
186.485	40
187.755	40
189.022	43
190.291	45
191.56	38
192.828	44
194.096	41
195.363	44
196.631	40
197.899	40
199.165	38
200.432	39
201.698	41
202.965	40
204.23	41
205.497	41
206.762	38
208.028	38
209.293	40
210.559	38
211.823	40
213.088	32
214.352	38
215.617	30
216.88	41
218.145	34
219.408	43
220.672	35
221.934	36
223.196	30
224.46	38
225.722	37
226.985	38
228.246	36
229.508	39
230.77	38
232.031	34
233.292	34
234.554	34
235.814	31
237.074	26
238.335	35
239.595	32
240.854	40
242.115	33
243.374	30
244.633	31
245.893	30
247.151	36
248.409	35
249.667	35
250.927	33
252.184	30
253.442	39
254.699	32
255.957	37
257.214	37
258.47	34
259.727	30
260.983	36
262.24	30
263.496	36
264.752	32
266.007	37
267.262	37
268.517	36
269.773	32
271.028	40
272.282	32
273.536	37
274.79	30
276.044	36
277.297	31
278.551	37
279.804	37
281.057	34
282.31	36
283.564	31
284.816	37
286.068	32
287.32	37
288.572	35
289.823	35
291.074	30
292.325	32
293.576	32
294.827	38
296.077	38
297.328	28
298.578	37
299.828	30
301.077	36
302.325	30
303.575	30
304.824	34
306.073	35
307.321	35
308.57	30
309.818	38
311.066	34
312.314	32
313.562	38
314.808	32
316.055	38
317.302	34
318.549	36
319.796	32
321.042	35
322.288	26
323.533	31
324.779	34
326.024	32
327.27	36
328.515	34
329.759	31
331.004	37
332.248	36
333.493	34
334.736	30
335.98	35
337.223	34
338.466	34
339.709	28
340.952	33
342.195	32
343.437	33
344.68	35
345.922	32
347.163	34
348.405	33
349.647	30
350.887	34
352.128	34
353.37	30
354.609	38
355.85	35
357.089	35
358.33	32
359.57	36
360.809	35
362.049	32
363.287	36
364.526	38
365.764	33
367.003	32
368.241	32
369.479	28
370.718	35
371.955	36
373.193	30
374.429	32
375.667	34
376.903	38
378.139	36
379.376	35
380.611	29
381.848	30
383.083	34
384.319	35
385.554	32
386.79	35
388.024	39
389.258	33
390.493	36
391.727	34
392.962	40
394.195	32
395.428	36
396.663	28
397.895	36
399.128	31
400.361	32
401.593	36
402.825	35
404.058	34
405.29	36
406.521	28
407.752	36
408.985	33
410.215	34
411.446	33
412.678	36
413.908	36
415.138	30
416.367	30
417.597	28
418.828	32
420.057	37
421.286	29
422.514	32
423.743	32
424.973	32
426.201	30
427.429	35
428.657	36
429.884	31
431.112	40
432.34	37
433.567	35
434.794	30
436.02	34
437.247	32
438.473	30
439.699	34
440.925	35
442.15	37
443.376	38
444.601	33
445.826	40
447.051	36
448.275	34
449.5	33
450.724	36
451.948	38
453.172	36
454.396	30
455.619	38
456.842	36
458.065	38
459.288	39
460.511	36
461.733	36
462.956	38
464.178	36
465.4	33
466.621	37
467.843	32
469.064	35
470.285	34
471.505	40
472.726	39
473.946	44
475.166	38
476.387	40
477.606	49
478.825	45
480.044	44
481.264	45
482.483	54
483.702	56
484.921	54
486.138	52
487.356	52
488.574	62
489.792	56
491.009	56
492.226	57
493.444	48
494.661	50
495.877	52
497.094	52
498.31	46
499.525	44
500.741	50
501.958	45
503.172	38
504.388	42
505.603	39
506.817	44
508.032	40
509.247	42
510.46	38
511.675	38
512.888	36
514.102	40
515.316	38
516.528	42
517.742	30
518.954	38
520.167	32
521.378	36
522.591	38
523.802	37
525.015	36
526.226	37
527.438	33
528.648	32
529.86	40
531.07	37
532.281	34
533.491	30
534.702	32
535.911	32
537.121	35
538.33	38
539.54	32
540.749	26
541.957	38
543.167	42
544.375	34
545.584	34
546.791	36
547.999	34
549.207	37
550.414	32
551.621	36
552.829	33
554.035	36
555.241	30
556.449	34
557.655	34
558.86	34
560.066	32
561.272	36
562.477	30
563.682	34
564.888	35
566.093	34
567.297	34
568.501	37
569.705	30
570.91	34
572.114	34
573.317	35
574.52	36
575.723	38
576.927	30
578.13	34
579.332	33
580.535	30
581.737	30
582.938	30
584.14	30
585.343	32
586.544	36
587.745	32
588.946	33
590.147	34
591.347	30
592.548	40
593.748	31
594.948	26
596.147	37
597.347	33
598.546	34
599.745	33
600.944	34
602.143	35
603.342	36
604.54	28
605.738	30
606.937	33
608.134	36
609.332	35
610.529	28
611.727	34
612.924	32
614.121	34
615.317	36
616.513	32
617.709	36
618.905	35
620.101	37
621.297	35
622.492	33
623.688	36
624.883	37
626.077	33
627.271	29
628.466	32
629.66	34
630.855	32
632.047	34
633.241	33
634.435	32
635.629	32
636.82	28
638.014	28
639.207	30
640.399	34
641.59	34
642.783	30
643.975	36
645.166	36
646.357	32
647.549	35
648.741	38
649.93	33
651.122	36
652.311	34
653.502	37
654.692	32
655.881	32
657.071	31
658.261	31
659.45	37
660.639	30
661.827	38
663.016	32
664.204	34
665.393	30
666.581	34
667.769	37
668.957	36
670.143	35
671.331	35
672.518	35
673.705	34
674.891	28
676.078	40
677.264	32
678.451	26
679.636	38
680.821	30
682.007	36
683.192	34
684.378	37
685.562	42
686.747	41
687.931	38
689.115	40
690.3	36
691.483	35
692.666	32
693.851	38
695.034	34
696.216	40
697.4	38
698.582	30
699.764	41
700.948	38
702.129	40
703.311	42
704.493	38
705.674	44
706.855	48
708.036	46
709.218	49
710.399	47
711.579	46
712.759	44
713.939	46
715.12	38
716.299	45
717.478	36
718.657	38
719.836	38
721.015	35
722.195	34
723.373	32
724.552	38
725.729	34
726.907	31
728.085	31
729.262	33
730.44	36
731.617	36
732.795	28
733.972	32
735.148	34
736.324	32
737.501	39
738.677	28
739.852	28
741.028	31
742.203	30
743.379	32
744.554	32
745.729	31
746.903	27
748.078	26
749.252	36
750.426	34
751.599	30
752.772	33
753.946	34
755.119	34
756.293	34
757.466	34
758.639	34
759.811	30
760.984	38
762.155	29
763.327	30
764.499	33
765.67	34
766.842	33
768.013	26
769.183	35
770.354	34
771.525	34
772.696	30
773.865	35
775.035	32
776.205	31
777.375	35
778.544	35
779.713	32
780.882	34
782.052	36
783.219	34
784.388	36
785.557	32
786.724	38
787.892	33
789.06	39
790.227	37
791.395	39
792.562	36
793.728	36
794.895	32
796.061	32
797.228	30
798.395	33
799.56	35
800.726	33
801.891	37
803.057	38
804.221	30
805.387	35
806.551	36
807.716	35
808.879	36
810.044	36
811.208	32
812.372	33
813.535	36
814.699	34
815.862	37
817.025	38
818.188	31
819.351	26
820.513	33
821.675	30
822.837	33
823.999	28
825.161	28
826.322	31
827.483	32
828.645	28
829.805	36
830.966	32
832.127	32
833.287	32
834.447	34
835.607	32
836.767	34
837.926	32
839.085	32
840.245	32
841.404	34
842.562	36
843.72	36
844.88	30
846.038	32
847.195	34
848.353	34
849.512	27
850.669	30
851.826	34
852.983	30
854.139	33
855.296	32
856.453	34
857.609	36
858.765	30
859.921	32
861.077	32
862.232	36
863.387	40
864.542	34
865.697	38
866.852	26
868.008	32
869.162	37
870.316	34
871.47	34
872.624	36
873.778	34
874.931	34
876.084	34
877.237	33
878.39	33
879.543	36
880.695	36
881.846	40
882.999	34
884.151	33
885.302	34
886.454	30
887.606	32
888.757	30
889.908	32
891.059	34
892.21	33
893.359	31
894.509	32
895.659	28
896.81	36
897.959	27
899.109	28
900.257	24
901.407	31
902.556	32
903.705	34
904.854	34
906.001	33
907.149	35
908.298	32
909.446	28
910.592	30
911.74	33
912.888	32
914.034	30
915.181	33
916.328	28
917.473	22
918.62	26
919.766	30
920.911	31
922.058	26
923.204	32
924.348	32
925.494	28
926.638	33
927.783	28
928.928	34
930.072	31
931.216	33
932.36	30
933.504	30
934.647	30
935.791	27
936.933	27
938.077	30
939.219	36
940.363	34
941.504	26
942.647	32
943.789	33
944.932	24
946.073	28
947.215	30
948.356	32
949.498	34
950.638	29
951.778	31
952.92	34
954.06	28
955.199	34
956.34	30
957.479	25
958.62	30
959.759	33
960.898	26
962.038	30
963.176	32
964.315	36
965.453	34
966.592	32
967.73	30
968.867	30
970.006	28
971.144	30
972.281	29
973.418	34
974.554	35
975.692	27
976.829	33
977.965	30
979.101	28
980.237	36
981.374	35
982.509	30
983.645	30
984.78	28
985.915	30
987.05	31
988.184	29
989.319	30
990.453	32
991.589	26
992.722	29
993.856	32
994.99	32
996.123	32
997.257	30
998.39	22
999.523	30
1000.66	30
1001.79	28
1002.92	29
1004.05	32
1005.18	34
1006.32	33
1007.45	33
1008.58	32
1009.71	31
1010.84	27
1011.97	35
1013.1	29
1014.23	33
1015.36	33
1016.49	35
1017.62	33
1018.75	32
1019.88	28
1021.01	31
1022.14	33
1023.27	30
1024.4	30
1025.53	31
1026.66	33
1027.79	29
1028.91	33
1030.04	33
1031.17	34
1032.3	37
1033.42	30
1034.55	34
1035.68	31
1036.81	32
1037.93	32
1039.06	32
1040.18	30
1041.31	31
1042.44	27
1043.56	32
1044.69	32
1045.81	29
1046.94	30
1048.06	30
1049.19	22
1050.31	29
1051.44	26
1052.56	30
1053.69	34
1054.81	29
1055.93	30
1057.06	34
1058.18	31
1059.3	30
1060.43	28
1061.55	32
1062.67	33
1063.79	27
1064.92	31
1066.04	28
1067.16	30
1068.28	32
1069.4	31
1070.52	30
1071.65	28
1072.77	32
1073.89	32
1075.01	35
1076.13	27
1077.25	30
1078.37	32
1079.49	31
1080.61	26
1081.73	26
1082.85	34
1083.97	34
1085.09	29
1086.2	31
1087.32	35
1088.44	32
1089.56	28
1090.68	32
1091.8	28
1092.91	30
1094.03	24
1095.15	28
1096.26	28
1097.38	27
1098.5	28
1099.61	30
1100.73	25
1101.85	32
1102.96	29
1104.08	24
1105.19	31
1106.31	26
1107.43	24
1108.54	30
1109.66	30
1110.77	27
1111.88	31
1113	29
1114.11	30
1115.23	28
1116.34	31
1117.46	32
1118.57	29
1119.68	30
1120.8	24
1121.91	30
1123.02	27
1124.13	24
1125.25	31
1126.36	32
1127.47	26
1128.58	30
1129.69	32
1130.8	32
1131.92	28
1133.03	32
1134.14	28
1135.25	28
1136.36	29
1137.47	26
1138.58	28
1139.69	26
1140.8	28
1141.91	29
1143.02	29
1144.13	22
1145.24	29
1146.35	29
1147.46	31
1148.56	24
1149.67	34
1150.78	28
1151.89	30
1153	31
1154.1	24
1155.21	30
1156.32	29
1157.43	30
1158.53	30
1159.64	25
1160.75	31
1161.85	24
1162.96	34
1164.07	37
1165.17	30
1166.28	29
1167.38	30
1168.49	30
1169.59	34
1170.7	28
1171.8	28
1172.91	28
1174.01	30
1175.12	28
1176.22	28
1177.32	28
1178.43	28
1179.53	29
1180.64	26
1181.74	28
1182.84	28
1183.94	32
1185.05	34
1186.15	30
1187.25	27
1188.35	28
1189.46	29
1190.56	30
1191.66	28
1192.76	24
1193.86	27
1194.96	25
1196.06	32.9853
1197.16	27.0275
1198.26	29.9236
1199.37	31.9084
1200.47	26.1434
1201.57	27.0882
1202.67	26.117
1203.77	19.4359
1204.86	24.0885
1205.96	25.8036
1207.06	25.8568
1208.16	24.2799
1209.26	27.0029
1210.36	27.7312
1211.46	28.6467
1212.56	26.3802
1213.65	28
1214.75	26.3431
1215.85	28.0878
1216.95	26.7568
1218.04	31.7037
1219.14	29.8024
1220.24	26.1341
1221.33	28.5018
1222.43	27.3712
1223.53	28.4121
1224.62	28.1921
1225.72	27.1366
1226.82	28.4953
1227.91	32.0153
1229.01	26.1275
1230.1	31.708
1231.2	28.7255
1232.29	27.6132
1233.39	23.7545
1234.48	29.0272
1235.58	27.5736
1236.67	29.4089
1237.77	27.9386
1238.86	29.212
1239.95	28.6587
1241.05	26.897
1242.14	29.1667
1243.23	29.829
1244.33	27.8186
1245.42	28.2425
1246.51	28.862
1247.61	29.6797
1248.7	25.902
1249.79	26.3235
1250.88	28.3478
1251.97	29.1635
1253.07	29.1861
1254.16	27.4858
1255.25	28.5813
1256.34	28.4151
1257.43	26.6107
1258.52	30.6275
1259.61	28.0543
1260.7	30.7488
1261.79	25.4645
1262.88	27.7838
1263.97	29.7828
1265.06	26.7549
1266.15	27.3937
1267.24	30.3578
1268.33	30.6756
1269.42	28.6425
1270.51	28.1704
1271.6	27.8756
1272.68	28.6706
1273.77	26.8121
1274.86	29.3393
1275.95	30.5526
1277.04	28.6865
1278.12	25.4725
1279.21	24.2032
1280.3	25.7598
1281.39	27.8256
1282.47	28.4907
1283.56	26.9163
1284.65	32.4902
1285.73	28.6342
1286.82	26.1362
1287.91	28.8818
1288.99	31.4135
1290.08	30.3039
1291.16	30
1292.25	29.6377
1293.33	26.4852
1294.42	26.9532
1295.5	22.8682
1296.59	26.0208
1297.67	23.3051
1298.76	30.1086
1299.84	26.2647
1300.92	28.14
1302.01	29.9118
1303.09	30.0606
1304.17	32.717
1305.26	30
1306.34	30.0725
1307.34	31
1308.43	27
1309.52	32
1310.61	34
1311.7	31
1312.78	29
1313.87	25
1314.96	26
1316.04	22
1317.13	30
1318.22	27
1319.3	32
1320.39	28
1321.48	30
1322.56	29
1323.65	29
1324.73	26
1325.82	30
1326.9	26
1327.99	29
1329.07	28
1330.16	27
1331.24	28
1332.33	25
1333.41	24
1334.5	26
1335.58	26
1336.66	30
1337.75	26
1338.83	28
1339.91	28
1341	31
1342.08	28
1343.16	29
1344.24	33
1345.33	30
1346.41	30
1347.49	26
1348.57	29
1349.65	26
1350.74	26
1351.82	30
1352.9	30
1353.98	28
1355.06	28
1356.14	24
1357.22	28
1358.3	28
1359.38	31
1360.46	24
1361.54	33
1362.62	30
1363.7	26
1364.78	32
1365.86	30
1366.94	30
1368.02	28
1369.09	30
1370.17	31
1371.25	31
1372.33	24
1373.41	27
1374.48	26
1375.56	26
1376.64	29
1377.72	26
1378.79	27
1379.87	29
1380.95	32
1382.02	26
1383.1	31
1384.17	33
1385.25	30
1386.33	28
1387.4	27
1388.48	24
1389.55	28
1390.63	31
1391.7	28
1392.78	32
1393.85	30
1394.93	30
1396	27
1397.07	32
1398.15	30
1399.22	28
1400.3	28
1401.37	34
1402.44	31
1403.52	35
1404.59	35
1405.66	28
1406.73	29
1407.81	31
1408.88	34
1409.95	32
1411.02	32
1412.09	32
1413.17	26
1414.24	32
1415.31	34
1416.38	34
1417.45	30
1418.52	33
1419.59	29
1420.66	33
1421.73	32
1422.8	28
1423.87	31
1424.94	24
1426.01	30
1427.08	30
1428.15	26
1429.22	32
1430.29	29
1431.35	30
1432.42	31
1433.49	29
1434.56	29
1435.63	29
1436.69	30
1437.76	33
1438.83	30
1439.9	28
1440.96	29
1442.03	33
1443.1	30
1444.17	28
1445.23	30
1446.3	28
1447.36	29
1448.43	33
1449.49	32
1450.56	28
1451.63	28
1452.69	30
1453.76	29
1454.82	22
1455.89	31
1456.95	29
1458.01	30
1459.08	28
1460.14	30
1461.21	24
1462.27	28
1463.34	30
1464.4	27
1465.46	29
1466.52	26
1467.59	31
1468.65	24
1469.71	30
1470.77	28
1471.84	28
1472.9	32
1473.96	33
1475.02	28
1476.08	24
1477.15	30
1478.21	27
1479.27	20
1480.33	28
1481.39	29
1482.45	30
1483.51	29
1484.57	30
1485.63	26
1486.69	34
1487.75	27
1488.81	31
1489.87	28
1490.93	27
1491.99	33
1493.05	31
1494.1	27
1495.16	27
1496.22	34
1497.28	35
1498.34	27
1499.4	24
1500.45	24
1501.51	28
1502.57	31
1503.63	24
1504.68	29
1505.74	28
1506.8	28
1507.85	33
1508.91	26
1509.97	26
1511.02	30
1512.08	32
1513.13	30
1514.19	31
1515.24	28
1516.3	31
1517.35	28
1518.41	29
1519.46	26
1520.52	28
1521.57	31
1522.63	30
1523.68	29
1524.73	24
1525.79	31
1526.84	28
1527.9	33
1528.95	30
1530	29
1531.05	27
1532.11	32
1533.16	30
1534.21	28
1535.26	33
1536.32	29
1537.37	28
1538.42	31
1539.47	26
1540.52	30
1541.57	30
1542.63	34
1543.68	30
1544.73	31
1545.78	30
1546.83	30
1547.88	32
1548.93	25
1549.98	29
1551.03	30
1552.08	28
1553.13	30
1554.18	30
1555.23	30
1556.27	27
1557.32	29
1558.37	31
1559.42	28
1560.47	24
1561.52	27
1562.56	29
1563.61	33
1564.66	24
1565.71	28
1566.75	32
1567.8	27
1568.85	29
1569.9	29
1570.94	29
1571.99	33
1573.03	30
1574.08	29
1575.13	24
1576.17	31
1577.22	27
1578.26	30
1579.31	31
1580.35	30
1581.4	29
1582.44	32
1583.49	29
1584.53	24
1585.58	29
1586.62	28
1587.66	30
1588.71	28
1589.75	26
1590.8	28
1591.84	29
1592.88	28
1593.92	26
1594.97	28
1596.01	28
1597.05	31
1598.1	28
1599.14	29
1600.18	26
1601.22	30
1602.26	30
1603.3	22
1604.35	28
1605.39	29
1606.43	28
1607.47	34
1608.51	31
1609.55	30
1610.59	26
1611.63	29
1612.67	32
1613.71	28
1614.75	28
1615.79	32
1616.83	28
1617.87	31
1618.91	30
1619.95	25
1620.99	33
1622.02	26
1623.06	29
1624.1	29
1625.14	29
1626.18	31
1627.21	29
1628.25	30
1629.29	30
1630.33	29
1631.36	30
1632.4	28
1633.44	26
1634.48	22
1635.51	30
1636.55	24
1637.58	27
1638.62	24
1639.66	28
1640.69	29
1641.73	27
1642.76	26
1643.8	28
1644.83	28
1645.87	30
1646.9	27
1647.94	28
1648.97	26
1650	31
1651.04	32
1652.07	30
1653.11	31
1654.14	33
1655.17	26
1656.21	28
1657.24	30
1658.27	31
1659.31	30
1660.34	26
1661.37	24
1662.4	27
1663.43	27
1664.47	26
1665.5	29
1666.53	32
1667.56	29
1668.59	30
1669.62	28
1670.66	28
1671.69	32
1672.72	29
1673.75	24
1674.78	20
1675.81	28
1676.84	24
1677.87	26
1678.9	26
1679.93	30
1680.96	29
1681.98	28
1683.01	31
1684.04	31
1685.07	29
1686.1	30
1687.13	31
1688.16	32
1689.18	27
1690.21	30
1691.24	30
1692.27	32
1693.3	24
1694.32	30
1695.35	30
1696.38	32
1697.4	30
1698.43	29
1699.46	29
1700.48	30
1701.51	31
1702.54	22
1703.56	32
1704.59	29
1705.61	28
1706.64	31
1707.66	25
1708.69	26
1709.71	26
1710.74	32
1711.76	33
1712.79	31
1713.81	30
1714.83	28
1715.86	29
1716.88	29
1717.91	29
1718.93	33
1719.95	30
1720.98	32
1722	30
1723.02	29
1724.04	31
1725.07	31
1726.09	28
1727.11	26
1728.13	32
1729.15	28
1730.18	30
1731.2	22
1732.22	33
1733.24	26
1734.26	34
1735.28	28
1736.3	30
1737.32	29
1738.34	29
1739.36	28
1740.38	27
1741.4	32
1742.42	28
1743.44	31
1744.46	28
1745.48	26
1746.5	32
1747.52	24
1748.54	32
1749.56	28
1750.58	24
1751.6	28
1752.61	27
1753.63	29
1754.65	32
1755.67	30
1756.68	32
1757.7	26
1758.72	28
1759.74	32
1760.75	24
1761.77	26
1762.79	30
1763.8	24
1764.82	32
1765.83	29
1766.85	28
1767.87	31
1768.88	30
1769.9	26
1770.91	35
1771.93	31
1772.94	28
1773.96	28
1774.97	29
1775.99	28
1777	26
1778.02	24
1779.03	30
1780.04	32
1781.06	30
1782.07	28
1783.09	27
1784.1	22
1785.11	29
1786.13	29
1787.14	28
1788.15	28
1789.16	25
1790.18	26
1791.19	25
1792.2	24
1793.21	30
1794.22	30
1795.23	26
1796.25	27
1797.26	28
1798.27	28
1799.28	25
1800.29	26
1801.3	30
1802.31	30
1803.32	29
1804.33	26
1805.34	27
1806.35	30
1807.36	27
1808.37	28
1809.38	26
1810.39	29
1811.4	26
1812.41	26
1813.42	30
1814.42	32
1815.43	27
1816.44	26
1817.45	28
1818.46	24
1819.47	28
1820.47	29
1821.48	26
1822.49	27
1823.49	33
1824.5	26
1825.51	26
1826.52	28
1827.52	28
1828.53	23
1829.53	30
1830.54	24
1831.55	25
1832.55	27
1833.56	27
1834.56	24
1835.57	26
1836.57	31
1837.58	24
1838.58	30
1839.59	31
1840.59	33
1841.6	27
1842.6	31
1843.61	26
1844.61	28
1845.61	26
1846.62	32
1847.62	32
1848.62	25
1849.63	26
1850.63	26
1851.63	27
1852.64	28
1853.64	29
1854.64	34
1855.64	28
1856.64	28
1857.65	33
1858.65	22
1859.65	27
1860.65	28
1861.65	24
1862.65	29
1863.65	30
1864.66	28
1865.66	20
1866.66	22
1867.66	31
1868.66	28
1869.66	30
1870.66	27
1871.66	26
1872.66	32
1873.66	24
1874.66	32
1875.65	31
1876.65	30
1877.65	31
1878.65	24
1879.65	30
1880.65	27
1881.65	30
1882.64	30
1883.64	27
1884.64	24
1885.64	29
1886.63	28
1887.63	29
1888.63	27
1889.63	24
1890.62	26
1891.62	23
1892.62	30
1893.61	28
1894.61	26
1895.6	25
1896.6	28
1897.6	28
1898.59	28
1899.59	29
1900.58	30
1901.58	30
1902.57	24
1903.57	28
1904.56	32
1905.56	29
1906.55	21
1907.54	27
1908.54	20
1909.53	25
1910.53	28
1911.52	26
1912.51	24
1913.51	26
1914.5	22
1915.49	22
1916.49	28
1917.48	30
1918.47	27
1919.46	22
1920.46	26
1921.45	26
1922.44	29
1923.43	27
1924.42	29
1925.41	28
1926.41	24
1927.4	32
1928.39	25
1929.38	31
1930.37	24
1931.36	28
1932.35	24
1933.34	26
1934.33	33
1935.32	22
1936.31	27
1937.3	29
1938.29	29
1939.28	28
1940.27	29
1941.26	29
1942.24	26
1943.23	30
1944.22	26
1945.21	29
1946.2	28
1947.19	30
1948.17	22
1949.16	25
1950.15	28
1951.14	31
1952.12	29
1953.11	27
1954.1	25
1955.09	30
1956.07	24
1957.06	28
1958.05	32
1959.03	28
1960.02	30
1961	32
1961.99	27
1962.98	28
1963.96	26
1964.95	29
1965.93	32
1966.92	32
1967.9	24
1968.89	23
1969.87	30
1970.85	29
1971.84	24
1972.82	28
1973.81	26
1974.79	29
1975.78	29
1976.76	28
1977.74	24
1978.73	28
1979.71	29
1980.69	30
1981.67	26
1982.66	31
1983.64	26
1984.62	30
1985.6	26
1986.59	24
1987.57	27
1988.55	20
1989.53	26
1990.51	30
1991.49	28
1992.47	32
1993.45	27
1994.44	31
1995.42	28
1996.4	33
1997.38	29
1998.36	28
1999.34	33
2000.32	29
2001.3	27
2002.28	28
2003.26	24
2004.24	26
2005.22	22
2006.19	28
2007.17	28
2008.15	28
2009.13	31
2010.11	28
2011.09	24
2012.06	26
2013.04	26
2014.02	26
2015	24
2015.98	29
2016.95	16
2017.93	28
2018.91	26
2019.88	29
2020.86	25
2021.84	28
2022.81	28
2023.79	28
2024.77	30
2025.74	26
2026.72	24
2027.69	26
2028.67	31
2029.65	28
2030.62	30
2031.6	30
2032.57	29
2033.55	24
2034.52	24
2035.5	20
2036.47	32
2037.44	26
2038.42	27
2039.39	25
2040.36	30
2041.34	28
2042.31	32
2043.29	23
2044.26	27
2045.23	22
2046.2	25
2047.18	26
2048.15	29
2049.12	30
2050.09	26
2051.07	21
2052.04	28
2053.01	24
2053.98	27
2054.95	28
2055.93	23
2056.9	29
2057.87	27
2058.84	26
2059.81	28
2060.78	29
2061.75	26
2062.72	25
2063.69	28
2064.66	28
2065.63	22
2066.6	28
2067.57	28
2068.54	31
2069.51	27
2070.48	28
2071.45	27
2072.42	28
2073.38	29
2074.35	20
2075.32	29
2076.29	24
2077.26	28
2078.23	26
2079.19	29
2080.16	24
2081.13	29
2082.1	24
2083.06	28
2084.03	26
2085	20
2085.96	26
2086.93	23
2087.9	26
2088.86	26
2089.83	29
2090.8	27
2091.76	29
2092.73	31
2093.69	24
2094.66	25
2095.62	27
2096.59	24
2097.55	26
2098.52	28
2099.48	24
2100.45	28
2101.41	24
2102.38	29
2103.34	22
2104.31	24
2105.27	30
2106.23	27
2107.2	28
2108.16	27
2109.12	22
2110.09	30
2111.05	30
2112.01	22
2112.98	29
2113.94	26
2114.9	27
2115.86	24
2116.82	30
2117.79	30
2118.75	30
2119.71	22
2120.67	28
2121.63	23
2122.59	28
2123.55	28
2124.52	18
2125.48	24
2126.44	29
2127.4	29
2128.36	26
2129.32	26
2130.28	24
2131.24	26
2132.2	26
2133.16	27
2134.12	21
2135.08	28
2136.04	31
2136.99	28
2137.95	26
2138.91	28
2139.87	27
2140.83	24
2141.79	29
2142.75	24
2143.7	33
2144.66	30
2145.62	25.0109
2146.58	28.8784
2147.53	25.0735
2148.49	24.126
2149.45	29.7421
2150.41	29.7805
2151.36	24.0511
2152.32	22.0133
2153.27	25.912
2154.23	24.8875
2155.19	25.4061
2156.14	29.4223
2157.1	25.5188
2158.06	27.4869
2159.01	29.7083
2159.97	24.3007
2160.92	28.3554
2161.88	24.3431
2162.83	25.1857
2163.79	30
2164.74	25.4048
2165.7	26.002
2166.65	22.6649
2167.61	24.7742
2168.56	27.5077
2169.51	27.5
2170.47	25.4982
2171.42	26.9675
2172.38	29.0818
2173.33	24
2174.28	26.8039
2175.24	27.3451
2176.19	24.6373
2177.14	25.3284
2178.09	28.9601
2179.05	24.7237
2180	26.9565
2180.95	26.2647
2181.9	26.5264
2182.86	24
2183.81	25.2059
2184.76	25.5484
2185.71	23.6183
2186.66	26.75
2187.61	24.4183
2188.57	26.6087
2189.52	26.1861
2190.47	26
2191.42	25.1886
2192.37	23.3824
2193.32	23.2418
2194.27	26.8696
2195.22	23.6577
2196.17	23.738
2197.12	29.5944
2198.07	26.0509
2199.02	25.4461
2199.97	27.6364
2200.92	29.5803
2201.87	26.0763
2202.82	25.6275
2203.76	21.9373
2204.71	21.6556
2205.66	26.542
2206.61	28.2232
2207.56	25.5853
2208.51	27.2907
2209.45	26.8214
2210.4	24.8238
2211.35	27.1773
2212.3	27.0494
2213.24	26.0526
2214.19	24.1189
2215.14	26.3229
2216.09	29.4527
2217.03	27.9026
2217.98	27.75
2218.93	27.2248
2219.87	29.0756
2220.82	28.0366
2221.77	25.1026
2222.71	26.6396
2223.66	27.8088
2224.6	26.3605
2225.55	25.8941
2226.49	25.6251
2227.44	24.058
2228.38	28.9968
2229.33	28.8532
2230.27	26.686
2231.22	25.3053
2232.16	25.3376
2233.11	24.7701
2234.05	23.5971
2235	24.3609
2235.94	23.1553
2236.88	24.5626
2237.83	26.9706
2238.77	23.2677
2239.71	23.4739
2240.66	25.9412
2241.6	24.842
2242	24
2242.95	26
2243.9	24
2244.84	26
2245.79	26
2246.74	27
2247.69	28
2248.63	24
2249.58	23
2250.53	24
2251.47	26
2252.42	26
2253.37	24
2254.31	26
2255.26	24
2256.2	28
2257.15	25
2258.1	22
2259.04	26
2259.99	29
2260.93	27
2261.88	29
2262.82	19
2263.77	24
2264.71	25
2265.65	26
2266.6	25
2267.54	29
2268.49	28
2269.43	26
2270.38	24
2271.32	29
2272.26	28
2273.21	28
2274.15	30
2275.09	26
2276.04	27
2276.98	26
2277.92	26
2278.86	22
2279.81	28
2280.75	27
2281.69	24
2282.63	27
2283.57	27
2284.52	26
2285.46	27
2286.4	31
2287.34	22
2288.28	28
2289.22	28
2290.16	29
2291.1	29
2292.04	32
2292.98	26
2293.93	28
2294.86	24
2295.8	25
2296.74	26
2297.69	25
2298.62	27
2299.56	32
2300.5	26
2301.44	27
2302.38	30
2303.32	29
2304.26	25
2305.2	30
2306.14	26
2307.07	25
2308.01	24
2308.95	21
2309.89	28
2310.83	30
2311.76	28
2312.7	33
2313.64	31
2314.58	20
2315.51	28
2316.45	28
2317.39	26
2318.32	26
2319.26	27
2320.2	24
2321.13	29
2322.07	28
2323	26
2323.94	27
2324.88	27
2325.81	28
2326.75	28
2327.68	24
2328.62	26
2329.55	28
2330.49	24
2331.42	27
2332.36	28
2333.29	27
2334.22	27
2335.16	24
2336.09	28
2337.03	29
2337.96	28
2338.89	24
2339.83	26
2340.76	26
2341.69	28
2342.63	28
2343.56	28
2344.49	28
2345.43	28
2346.36	20
2347.29	27
2348.22	27
2349.15	29
2350.09	25
2351.02	23
2351.95	23
2352.88	28
2353.81	26
2354.74	26
2355.67	28
2356.61	27
2357.54	25
2358.47	26
2359.4	26
2360.33	30
2361.26	29
2362.19	27
2363.12	26
2364.05	27
2364.98	25
2365.91	26
2366.84	24
2367.77	22
2368.7	25
2369.62	25
2370.55	27
2371.48	22
2372.41	27
2373.34	22
2374.27	26
2375.2	29
2376.12	24
2377.05	28
2377.98	30
2378.91	24
2379.83	26
2380.76	26
2381.69	25
2382.62	26
2383.54	28
2384.47	24
2385.4	26
2386.32	26
2387.25	28
2388.18	25
2389.1	20
2390.03	28
2390.95	18
2391.88	26
2392.81	27
2393.73	28
2394.66	30
2395.58	26
2396.51	18
2397.43	27
2398.36	26
2399.28	27
2400.2	28
2401.13	32
2402.05	27
2402.98	34
2403.9	24
2404.83	30
2405.75	29
2406.67	25
2407.6	30
2408.52	26
2409.44	22
2410.37	24
2411.29	28
2412.21	26
2413.13	27
2414.06	26
2414.98	25
2415.9	23
2416.82	22
2417.74	28
2418.67	27
2419.59	32
2420.51	22
2421.43	26
2422.35	28
2423.27	26
2424.19	27
2425.11	22
2426.03	28
2426.96	24
2427.88	26
2428.8	30
2429.72	24
2430.64	26
2431.56	30
2432.48	22
2433.39	27
2434.31	14
2435.23	25
2436.15	26
2437.07	26
2437.99	26
2438.91	26
2439.83	32
2440.75	27
2441.67	28
2442.58	27
2443.5	26
2444.42	26
2445.34	28
2446.26	29
2447.17	24
2448.09	24
2449.01	29
2449.92	28
2450.84	26
2451.76	29
2452.68	20
2453.59	29
2454.51	30
2455.42	22
2456.34	30
2457.26	27
2458.17	24
2459.09	27
2460	26
2460.92	24
2461.83	29
2462.75	26
2463.66	27
2464.58	30
2465.49	29
2466.41	28
2467.32	31
2468.24	26
2469.15	29
2470.07	26
2470.98	26
2471.89	28
2472.81	26
2473.72	27
2474.64	29
2475.55	24
2476.46	29
2477.37	24
2478.29	28
2479.2	26
2480.11	25
2481.03	30
2481.94	26
2482.85	26
2483.76	24
2484.67	28
2485.59	27
2486.5	26
2487.41	30
2488.32	26
2489.23	24
2490.14	27
2491.05	22
2491.97	24
2492.88	26
2493.79	31
2494.7	26
2495.61	28
2496.52	26
2497.43	32
2498.34	31
2499.25	29
2500.16	20
2501.07	24
2501.98	32
2502.89	24
2503.79	33
2504.7	29
2505.61	24
2506.52	20
2507.43	24
2508.34	30
2509.25	27
2510.16	30
2511.06	29
2511.97	30
2512.88	30
2513.79	27
2514.69	26
2515.6	26
2516.51	35
2517.42	22
2518.32	28
2519.23	28
2520.14	28
2521.04	26
2521.95	28
2522.86	24
2523.76	26
2524.67	26
2525.57	25
2526.48	20
2527.39	28
2528.29	31
2529.2	31
2530.1	28
2531.01	28
2531.91	28
2532.82	27
2533.72	32
2534.63	24
2535.53	27
2536.44	28
2537.34	22
2538.24	26
2539.15	29
2540.05	28
2540.96	27
2541.86	29
2542.76	29
2543.67	26
2544.57	30
2545.47	22
2546.37	26
2547.28	26
2548.18	32
2549.08	28
2549.99	23
2550.89	28
2551.79	26
2552.69	28
2553.59	26
2554.49	30
2555.4	26
2556.3	30
2557.2	28
2558.1	26
2559	29
2559.9	24
2560.8	31
2561.7	29
2562.6	28
2563.5	27
2564.4	26
2565.3	22
2566.2	29
2567.1	28
2568	24
2568.9	24
2569.8	27
2570.7	26
2571.6	28
2572.5	31
2573.4	32
2574.3	26
2575.2	30
2576.1	28
2576.99	30
2577.89	28
2578.79	24
2579.69	28
2580.59	29
2581.48	30
2582.38	22
2583.28	28
2584.18	26
2585.07	26
2585.97	26
2586.87	25
2587.76	22
2588.66	24
2589.56	24
2590.45	28
2591.35	28
2592.25	30
2593.14	31
2594.04	24
2594.93	32
2595.83	31
2596.73	25
2597.62	28
2598.52	29
2599.41	32
2600.31	23
2601.2	32
2602.1	26
2602.99	28
2603.88	29
2604.78	27
2605.67	24
2606.57	26
2607.46	30
2608.35	30
2609.25	32
2610.14	29
2611.03	26
2611.93	26
2612.82	30
2613.71	28
2614.61	28
2615.5	34
2616.39	28
2617.29	25
2618.18	22
2619.07	24
2619.96	28
2620.85	26
2621.75	29
2622.64	28
2623.53	26
2624.42	26
2625.31	28
2626.2	24
2627.09	23
2627.98	26
2628.88	30
2629.77	28
2630.66	30
2631.55	27
2632.44	30
2633.33	30
2634.22	29
2635.11	24
2636	29
2636.89	26
2637.78	25
2638.66	27
2639.55	27
2640.44	30
2641.33	34
2642.22	30
2643.11	24
2644	30
2644.89	27
2645.78	28
2646.66	27
2647.55	25
2648.44	33
2649.33	28
2650.21	23
2651.1	30
2651.99	28
2652.88	27
2653.76	29
2654.65	26
2655.54	28
2656.42	28
2657.31	26
2658.2	22
2659.08	27
2659.97	28
2660.86	30
2661.74	26
2662.63	22
2663.51	27
2664.4	26
2665.29	26
2666.17	24
2667.06	31
2667.94	24
2668.83	26
2669.71	27
2670.6	27
2671.48	25
2672.36	28
2673.25	29
2674.13	30
2675.02	30
2675.9	27
2676.78	30
2677.67	28
2678.55	20
2679.43	30
2680.32	31
2681.2	29
2682.08	29
2682.97	25
2683.85	25
2684.73	28
2685.61	30
2686.5	27
2687.38	26
2688.26	25
2689.14	25
2690.03	31
2690.91	24
2691.79	22
2692.67	24
2693.55	29
2694.43	20
2695.31	29
2696.19	31
2697.08	30
2697.96	28
2698.84	31
2699.72	28
2700.6	26
2701.48	29
2702.36	26
2703.24	24
2704.12	24
2705	27
2705.88	27
2706.76	26
2707.64	30
2708.51	26
2709.39	24
2710.27	32
2711.15	22
2712.03	27
2712.91	30
2713.79	28
2714.67	30
2715.54	30
2716.42	22
2717.3	27
2718.18	26
2719.05	25
2719.93	29
2720.81	27
2721.69	28
2722.56	30
2723.44	24
2724.32	26
2725.19	26
2726.07	28
2726.95	23
2727.82	32
2728.7	28
2729.58	27
2730.45	28
2731.33	26
2732.2	26
2733.08	33
2733.95	26
2734.83	24
2735.7	28
2736.58	26
2737.45	24
2738.33	27
2739.2	30
2740.08	27
2740.95	28
2741.83	24
2742.7	30
2743.58	32
2744.45	26
2745.32	25
2746.2	26
2747.07	22
2747.94	29
2748.82	27
2749.69	26
2750.56	29
2751.44	26
2752.31	22
2753.18	28
2754.05	30
2754.93	27
2755.8	26
2756.67	26
2757.54	24
2758.42	29
2759.29	26
2760.16	22
2761.03	29
2761.9	29
2762.77	29
2763.64	26
2764.51	22
2765.38	32
2766.26	25
2767.13	30
2768	30
2768.87	30
2769.74	28
2770.61	30
2771.48	27
2772.35	30
2773.22	22
2774.09	26
2774.96	26
2775.83	24
2776.7	27
2777.56	20
2778.43	25
2779.3	27
2780.17	27
2781.04	20
2781.91	29
2782.78	25
2783.64	24
2784.51	28
2785.38	28
2786.25	26
2787.12	24
2787.98	28
2788.85	30
2789.72	26
2790.59	26
2791.45	28
2792.32	29
2793.19	26
2794.05	28
2794.92	28
2795.79	28
2796.65	29
2797.52	24
2798.38	22
2799.25	28
2800.12	30
2800.98	16
2801.85	31
2802.71	26
2803.58	26
2804.44	26
2805.31	28
2806.17	33
2807.04	29
2807.9	31
2808.77	26
2809.63	26
2810.5	33
2811.36	27
2812.22	22
2813.09	26
2813.95	18
2814.82	20
2815.68	27
2816.54	26
2817.41	28
2818.27	29
2819.13	31
2820	26
2820.86	32
2821.72	29
2822.58	30
2823.45	32
2824.31	29
2825.17	30
2826.03	24
2826.9	28
2827.76	27
2828.62	30
2829.48	30
2830.34	31
2831.2	26
2832.06	30
2832.92	25
2833.79	26
2834.65	28
2835.51	30
2836.37	26
2837.23	26
2838.09	28
2838.95	20
2839.81	32
2840.67	29
2841.53	29
2842.39	30
2843.25	26
2844.11	30
2844.97	31
2845.83	28
2846.68	28
2847.54	26
2848.4	28
2849.26	30
2850.12	30
2850.98	30
2851.84	29
2852.69	34
2853.55	29
2854.41	30
2855.27	28
2856.13	30
2856.98	30
2857.84	26
2858.7	24
2859.56	29
2860.41	28
2861.27	28
2862.13	28
2862.98	24
2863.84	33
2864.7	24
2865.55	28
2866.41	26
2867.27	33
2868.12	26
2868.98	25
2869.83	33
2870.69	32
2871.54	26
2872.4	32
2873.25	25
2874.11	30
2874.96	26
2875.82	30
2876.68	29
2877.53	29
2878.38	28
2879.24	31
2880.09	30
2880.95	30
2881.8	31
2882.65	34
2883.51	33
2884.36	31
2885.22	30
2886.07	31
2886.92	34
2887.77	33
2888.63	38
2889.48	32
2890.33	30
2891.19	37
2892.04	42
2892.89	40
2893.74	38
2894.6	40
2895.45	44
2896.3	42
2897.15	41
2898	48
2898.85	45
2899.71	44
2900.56	46
2901.41	58
2902.26	53
2903.11	48
2903.96	55
2904.81	58
2905.66	63
2906.51	60
2907.36	63
2908.21	58
2909.06	59
2909.91	59
2910.76	61
2911.61	54
2912.46	48
2913.31	48
2914.16	45
2915.01	43
2915.86	44
2916.71	42
2917.56	43
2918.41	37
2919.26	38
2920.1	30
2920.95	32
2921.8	34
2922.65	36
2923.5	38
2924.34	32
2925.19	32
2926.04	31
2926.89	31
2927.74	31
2928.58	30
2929.43	29
2930.28	31
2931.12	30
2931.97	31
2932.82	26
2933.66	29
2934.51	30
2935.36	31
2936.2	31
2937.05	26
2937.89	29
2938.74	28
2939.59	33
2940.43	28
2941.28	33
2942.12	31
2942.97	24
2943.81	32
2944.66	26
2945.5	30
2946.35	30
2947.19	33
2948.04	28
2948.88	29
2949.72	30
2950.57	33
2951.41	32
2952.26	28
2953.1	30
2953.94	32
2954.79	31
2955.63	32
2956.47	30
2957.32	34
2958.16	40
2959	38
2959.85	36
2960.69	38
2961.53	39
2962.37	35
2963.22	40
2964.06	41
2964.9	39
2965.74	42
2966.58	38
2967.42	40
2968.27	40
2969.11	35
2969.95	36
2970.79	34
2971.63	37
2972.47	37
2973.31	28
2974.15	30
2974.99	29
2975.83	36
2976.68	34
2977.52	36
2978.36	30
2979.2	30
2980.04	32
2980.88	30
2981.71	31
2982.55	32
2983.39	32
2984.23	30
2985.07	25
2985.91	30
2986.75	32
2987.59	26
2988.43	29
2989.27	30
2990.1	26
2990.94	26
2991.78	33
2992.62	28
2993.46	26
2994.3	26
2995.13	24
2995.97	26
2996.81	27
2997.64	28
2998.48	32
2999.32	25
