#Acq. time (s)=	3
#Accumulations=	3
#Range (cm-¹)=	100...3000
#Windows=	3
#Autofocus=	Off
#AutoExposure=	Off
#Spike filter=	Multiple accum.
#Delay time (s)=	0
#Binning=	1
#Readout mode=	Signal
#DeNoise=	Off
#ICS correction=	Off
#Dark correction=	Off
#Inst. Process=	Off
#Instrument=	LabRAM HR Evol
#Detector=	Syncerity OE
#Objective=	x100_VIS_LWD
#Grating=	600 (500nm)
#ND Filter=	25%
#Laser=	633nm_Edge
#Hole=	100.021
#Range=	Visible
#Project=	Bolus
#Sample=	A3
#Site=	stripside
#Title=	m09
#Remark=	
#Date=	03.11.2025 18:20
#Acquired=	03.11.2025 18:20:05
100.969	33
102.252	35
103.535	34
104.818	32
106.101	36
107.384	30
108.666	34
109.948	34
111.232	32
112.514	33
113.795	30
115.077	32
116.358	38
117.639	37
118.919	26
120.2	30
121.48	36
122.76	36
124.04	33
125.32	24
126.599	41
127.879	38
129.158	33
130.436	37
131.715	40
132.992	39
134.27	34
135.548	34
136.826	36
138.104	38
139.381	33
140.658	40
141.935	33
143.212	39
144.489	43
145.763	44
147.04	31
148.315	36
149.591	30
150.867	39
152.142	39
153.416	34
154.691	42
155.965	38
157.24	41
158.514	38
159.786	44
161.06	36
162.334	43
163.607	42
164.881	38
166.152	40
167.425	45
168.698	39
169.969	35
171.241	39
172.513	42
173.785	40
175.055	38
176.326	34
177.597	38
178.867	40
180.137	39
181.408	40
182.677	44
183.947	41
185.217	42
186.485	40
187.755	48
189.022	42
190.291	43
191.56	44
192.828	38
194.096	40
195.363	40
196.631	39
197.899	42
199.165	38
200.432	40
201.698	38
202.965	42
204.23	40
205.497	42
206.762	40
208.028	38
209.293	41
210.559	33
211.823	33
213.088	38
214.352	37
215.617	37
216.88	31
218.145	37
219.408	36
220.672	33
221.934	38
223.196	24
224.46	38
225.722	36
226.985	32
228.246	30
229.508	35
230.77	34
232.031	32
233.292	30
234.554	36
235.814	33
237.074	38
238.335	33
239.595	35
240.854	32
242.115	38
243.374	29
244.633	36
245.893	28
247.151	32
248.409	30
249.667	33
250.927	27
252.184	40
253.442	30
254.699	36
255.957	29
257.214	36
258.47	34
259.727	29
260.983	34
262.24	34
263.496	30
264.752	30
266.007	37
267.262	38
268.517	32
269.773	37
271.028	33
272.282	31
273.536	34
274.79	32
276.044	33
277.297	28
278.551	36
279.804	34
281.057	28
282.31	35
283.564	33
284.816	27
286.068	31
287.32	32
288.572	28
289.823	29
291.074	26
292.325	31
293.576	33
294.827	31
296.077	29
297.328	32
298.578	28
299.828	34
301.077	28
302.325	34
303.575	27
304.824	29
306.073	33
307.321	38
308.57	26
309.818	31
311.066	34
312.314	26
313.562	36
314.808	31
316.055	29
317.302	28
318.549	31
319.796	32
321.042	31
322.288	32
323.533	32
324.779	32
326.024	30
327.27	34
328.515	37
329.759	33
331.004	34
332.248	29
333.493	29
334.736	30
335.98	32
337.223	36
338.466	32
339.709	31
340.952	30
342.195	28
343.437	32
344.68	30
345.922	34
347.163	31
348.405	32
349.647	26
350.887	29
352.128	33
353.37	34
354.609	37
355.85	35
357.089	38
358.33	31
359.57	30
360.809	31
362.049	30
363.287	38
364.526	26
365.764	30
367.003	28
368.241	36
369.479	30
370.718	29
371.955	32
373.193	28
374.429	30
375.667	31
376.903	28
378.139	34
379.376	38
380.611	29
381.848	26
383.083	30
384.319	32
385.554	31
386.79	35
388.024	28
389.258	29
390.493	32
391.727	28
392.962	30
394.195	31
395.428	33
396.663	28
397.895	28
399.128	32
400.361	35
401.593	30
402.825	30
404.058	34
405.29	32
406.521	34
407.752	30
408.985	30
410.215	28
411.446	31
412.678	36
413.908	28
415.138	28
416.367	30
417.597	32
418.828	34
420.057	22
421.286	37
422.514	34
423.743	32
424.973	33
426.201	30
427.429	32
428.657	37
429.884	28
431.112	35
432.34	35
433.567	28
434.794	28
436.02	30
437.247	32
438.473	32
439.699	33
440.925	31
442.15	36
443.376	32
444.601	28
445.826	32
447.051	30
448.275	33
449.5	33
450.724	29
451.948	39
453.172	30
454.396	35
455.619	32
456.842	36
458.065	34
459.288	31
460.511	36
461.733	31
462.956	30
464.178	39
465.4	34
466.621	32
467.843	35
469.064	36
470.285	30
471.505	39
472.726	37
473.946	33
475.166	39
476.387	36
477.606	34
478.825	37
480.044	44
481.264	42
482.483	50
483.702	50
484.921	53
486.138	48
487.356	57
488.574	52
489.792	58
491.009	54
492.226	62
493.444	53
494.661	49
495.877	54
497.094	50
498.31	42
499.525	46
500.741	48
501.958	46
503.172	36
504.388	39
505.603	42
506.817	35
508.032	41
509.247	37
510.46	36
511.675	37
512.888	33
514.102	38
515.316	37
516.528	38
517.742	34
518.954	38
520.167	34
521.378	40
522.591	30
523.802	36
525.015	32
526.226	30
527.438	35
528.648	34
529.86	29
531.07	36
532.281	36
533.491	32
534.702	35
535.911	30
537.121	32
538.33	26
539.54	30
540.749	34
541.957	31
543.167	31
544.375	34
545.584	32
546.791	28
547.999	34
549.207	35
550.414	28
551.621	32
552.829	34
554.035	24
555.241	28
556.449	34
557.655	30
558.86	33
560.066	28
561.272	32
562.477	34
563.682	34
564.888	30
566.093	28
567.297	32
568.501	36
569.705	27
570.91	30
572.114	33
573.317	32
574.52	31
575.723	31
576.927	34
578.13	35
579.332	30
580.535	33
581.737	33
582.938	32
584.14	35
585.343	29
586.544	30
587.745	34
588.946	32
590.147	32
591.347	31
592.548	24
593.748	31
594.948	29
596.147	32
597.347	30
598.546	33
599.745	33
600.944	32
602.143	30
603.342	34
604.54	22
605.738	37
606.937	32
608.134	22
609.332	34
610.529	34
611.727	28
612.924	27
614.121	28
615.317	33
616.513	28
617.709	28
618.905	29
620.101	28
621.297	32
622.492	32
623.688	39
624.883	28
626.077	24
627.271	28
628.466	28
629.66	36
630.855	30
632.047	30
633.241	31
634.435	34
635.629	35
636.82	32
638.014	26
639.207	26
640.399	33
641.59	28
642.783	35
643.975	28
645.166	34
646.357	33
647.549	31
648.741	30
649.93	29
651.122	32
652.311	33
653.502	35
654.692	35
655.881	24
657.071	32
658.261	27
659.45	33
660.639	39
661.827	28
663.016	37
664.204	33
665.393	38
666.581	28
667.769	22
668.957	38
670.143	34
671.331	28
672.518	39
673.705	32
674.891	30
676.078	34
677.264	40
678.451	37
679.636	32
680.821	33
682.007	34
683.192	36
684.378	40
685.562	36
686.747	36
687.931	41
689.115	40
690.3	40
691.483	36
692.666	42
693.851	41
695.034	38
696.216	35
697.4	34
698.582	42
699.764	37
700.948	36
702.129	39
703.311	36
704.493	39
705.674	48
706.855	48
708.036	45
709.218	48
710.399	51
711.579	50
712.759	48
713.939	42
715.12	40
716.299	39
717.478	36
718.657	26
719.836	26
721.015	34
722.195	29
723.373	34
724.552	30
725.729	33
726.907	32
728.085	30
729.262	34
730.44	30
731.617	30
732.795	34
733.972	30
735.148	26
736.324	34
737.501	35
738.677	31
739.852	34
741.028	36
742.203	30
743.379	30
744.554	33
745.729	25
746.903	35
748.078	31
749.252	36
750.426	39
751.599	33
752.772	32
753.946	29
755.119	29
756.293	33
757.466	35
758.639	33
759.811	32
760.984	30
762.155	34
763.327	28
764.499	34
765.67	36
766.842	33
768.013	35
769.183	27
770.354	34
771.525	28
772.696	26
773.865	30
775.035	32
776.205	32
777.375	32
778.544	32
779.713	31
780.882	33
782.052	29
783.219	30
784.388	28
785.557	32
786.724	32
787.892	34
789.06	37
790.227	37
791.395	31
792.562	32
793.728	26
794.895	32
796.061	35
797.228	32
798.395	33
799.56	30
800.726	30
801.891	33
803.057	30
804.221	32
805.387	28
806.551	32
807.716	35
808.879	31
810.044	36
811.208	28
812.372	31
813.535	36
814.699	37
815.862	32
817.025	32
818.188	30
819.351	31
820.513	26
821.675	28
822.837	24
823.999	34
825.161	30
826.322	32
827.483	31
828.645	34
829.805	26
830.966	28
832.127	34
833.287	30
834.447	34
835.607	34
836.767	32
837.926	26
839.085	22
840.245	28
841.404	28
842.562	32
843.72	33
844.88	31
846.038	32
847.195	29
848.353	32
849.512	33
850.669	30
851.826	28
852.983	28
854.139	32
855.296	26
856.453	28
857.609	33
858.765	30
859.921	30
861.077	36
862.232	30
863.387	35
864.542	38
865.697	32
866.852	32
868.008	32
869.162	33
870.316	32
871.47	34
872.624	30
873.778	35
874.931	32
876.084	31
877.237	32
878.39	27
879.543	30
880.695	35
881.846	32
882.999	33
884.151	34
885.302	32
886.454	30
887.606	30
888.757	30
889.908	34
891.059	30
892.21	29
893.359	33
894.509	31
895.659	31
896.81	33
897.959	34
899.109	30
900.257	28
901.407	33
902.556	29
903.705	32
904.854	27
906.001	32
907.149	33
908.298	28
909.446	28
910.592	28
911.74	30
912.888	29
914.034	35
915.181	32
916.328	33
917.473	34
918.62	27
919.766	32
920.911	34
922.058	33
923.204	28
924.348	31
925.494	34
926.638	37
927.783	33
928.928	26
930.072	28
931.216	31
932.36	30
933.504	26
934.647	34
935.791	32
936.933	30
938.077	30
939.219	30
940.363	30
941.504	32
942.647	30
943.789	26
944.932	28
946.073	30
947.215	33
948.356	22
949.498	26
950.638	26
951.778	31
952.92	30
954.06	28
955.199	30
956.34	32
957.479	31
958.62	30
959.759	28
960.898	26
962.038	25
963.176	30
964.315	29
965.453	32
966.592	28
967.73	28
968.867	26
970.006	31
971.144	31
972.281	30
973.418	31
974.554	32
975.692	31
976.829	34
977.965	22
979.101	29
980.237	30
981.374	28
982.509	35
983.645	28
984.78	24
985.915	26
987.05	32
988.184	28
989.319	32
990.453	26
991.589	29
992.722	27
993.856	34
994.99	32
996.123	31
997.257	32
998.39	29
999.523	26
1000.66	31
1001.79	30
1002.92	28
1004.05	28
1005.18	26
1006.32	30
1007.45	25
1008.58	36
1009.71	30
1010.84	32
1011.97	24
1013.1	32
1014.23	38
1015.36	28
1016.49	26
1017.62	29
1018.75	30
1019.88	22
1021.01	29
1022.14	30
1023.27	30
1024.4	28
1025.53	26
1026.66	35
1027.79	27
1028.91	32
1030.04	28
1031.17	30
1032.3	28
1033.42	24
1034.55	31
1035.68	26
1036.81	24
1037.93	28
1039.06	36
1040.18	28
1041.31	29
1042.44	31
1043.56	30
1044.69	29
1045.81	31
1046.94	29
1048.06	26
1049.19	27
1050.31	33
1051.44	33
1052.56	30
1053.69	31
1054.81	31
1055.93	22
1057.06	31
1058.18	30
1059.3	28
1060.43	26
1061.55	27
1062.67	33
1063.79	28
1064.92	30
1066.04	24
1067.16	31
1068.28	29
1069.4	30
1070.52	30
1071.65	26
1072.77	30
1073.89	31
1075.01	26
1076.13	30
1077.25	32
1078.37	31
1079.49	28
1080.61	30
1081.73	28
1082.85	28
1083.97	31
1085.09	30
1086.2	32
1087.32	32
1088.44	30
1089.56	24
1090.68	34
1091.8	33
1092.91	27
1094.03	31
1095.15	24
1096.26	29
1097.38	26
1098.5	26
1099.61	26
1100.73	32
1101.85	34
1102.96	28
1104.08	35
1105.19	31
1106.31	26
1107.43	33
1108.54	28
1109.66	20
1110.77	32
1111.88	26
1113	27
1114.11	28
1115.23	29
1116.34	28
1117.46	33
1118.57	30
1119.68	30
1120.8	26
1121.91	22
1123.02	22
1124.13	28
1125.25	31
1126.36	28
1127.47	26
1128.58	26
1129.69	24
1130.8	30
1131.92	32
1133.03	29
1134.14	24
1135.25	27
1136.36	25
1137.47	30
1138.58	29
1139.69	32
1140.8	30
1141.91	30
1143.02	20
1144.13	30
1145.24	22
1146.35	26
1147.46	30
1148.56	31
1149.67	32
1150.78	30
1151.89	31
1153	24
1154.1	28
1155.21	32
1156.32	31
1157.43	31
1158.53	28
1159.64	26
1160.75	33
1161.85	30
1162.96	28
1164.07	24
1165.17	32
1166.28	26
1167.38	32
1168.49	34
1169.59	28
1170.7	26
1171.8	32
1172.91	30
1174.01	28
1175.12	26
1176.22	28
1177.32	28
1178.43	29
1179.53	24
1180.64	28
1181.74	26
1182.84	30
1183.94	30
1185.05	26
1186.15	28
1187.25	24
1188.35	32
1189.46	29
1190.56	29
1191.66	30
1192.76	24
1193.86	30
1194.96	32
1196.06	24.0049
1197.16	27.9642
1198.26	28.0058
1199.37	32.8399
1200.47	28.936
1201.57	26.049
1202.67	27.976
1203.77	28.1129
1204.86	33.4896
1205.96	31.5884
1207.06	27.1522
1208.16	26.1089
1209.26	22.8665
1210.36	26.3238
1211.46	26.2153
1212.56	27.8497
1213.65	24.1595
1214.75	26.251
1215.85	25.0825
1216.95	26.3304
1218.04	30.1265
1219.14	26.5204
1220.24	29.4723
1221.33	27.8567
1222.43	25.3102
1223.53	26.6621
1224.62	27.3932
1225.72	29.3503
1226.82	30.4453
1227.91	29.0077
1229.01	25.554
1230.1	29.6829
1231.2	25.8141
1232.29	25.7335
1233.39	25.9661
1234.48	28.3452
1235.58	27.9945
1236.67	28.6703
1237.77	29.4288
1238.86	25.9092
1239.95	27.9032
1241.05	29.1519
1242.14	29.2319
1243.23	24.5815
1244.33	27.5961
1245.42	28.9234
1246.51	26.6324
1247.61	25.8546
1248.7	25.2657
1249.79	26
1250.88	27.8401
1251.97	27.496
1253.07	30.1025
1254.16	28.4561
1255.25	27.3593
1256.34	28.6214
1257.43	28.6673
1258.52	26.0637
1259.61	27.3931
1260.7	28.7503
1261.79	27.8737
1262.88	27.6279
1263.97	28.213
1265.06	29.6225
1266.15	28.6447
1267.24	27.1319
1268.33	27.9528
1269.42	27.1528
1270.51	30.1892
1271.6	26.008
1272.68	27.8073
1273.77	25.5131
1274.86	24.5795
1275.95	28.7143
1277.04	28.9253
1278.12	31.9058
1279.21	26.8489
1280.3	27.2717
1281.39	23.8046
1282.47	20.7865
1283.56	25.499
1284.65	25.9736
1285.73	25.4091
1286.82	29.4559
1287.91	29.0943
1288.99	23.517
1290.08	33.9196
1291.16	27.3319
1292.25	24.6705
1293.33	24.693
1294.42	30.9799
1295.5	30.0177
1296.59	25.8526
1297.67	24.3978
1298.76	28.4853
1299.84	29.0367
1300.92	29.4826
1302.01	28.1376
1303.09	28.7678
1304.17	26.1225
1305.26	26.244
1306.34	28.9373
1307.34	28
1308.43	30
1309.52	22
1310.61	28
1311.7	27
1312.78	26
1313.87	24
1314.96	25
1316.04	28
1317.13	28
1318.22	28
1319.3	26
1320.39	24
1321.48	24
1322.56	28
1323.65	31
1324.73	31
1325.82	27
1326.9	23
1327.99	24
1329.07	27
1330.16	28
1331.24	32
1332.33	26
1333.41	30
1334.5	27
1335.58	26
1336.66	30
1337.75	28
1338.83	26
1339.91	35
1341	32
1342.08	26
1343.16	23
1344.24	31
1345.33	29
1346.41	24
1347.49	33
1348.57	29
1349.65	26
1350.74	28
1351.82	28
1352.9	27
1353.98	29
1355.06	26
1356.14	30
1357.22	29
1358.3	33
1359.38	28
1360.46	28
1361.54	32
1362.62	26
1363.7	30
1364.78	29
1365.86	26
1366.94	26
1368.02	30
1369.09	24
1370.17	29
1371.25	27
1372.33	28
1373.41	30
1374.48	27
1375.56	27
1376.64	25
1377.72	34
1378.79	22
1379.87	29
1380.95	28
1382.02	33
1383.1	28
1384.17	26
1385.25	28
1386.33	32
1387.4	29
1388.48	30
1389.55	24
1390.63	24
1391.7	28
1392.78	24
1393.85	27
1394.93	30
1396	27
1397.07	29
1398.15	34
1399.22	32
1400.3	32
1401.37	34
1402.44	25
1403.52	30
1404.59	32
1405.66	30
1406.73	32
1407.81	29
1408.88	29
1409.95	32
1411.02	30
1412.09	37
1413.17	32
1414.24	33
1415.31	32
1416.38	37
1417.45	29
1418.52	35
1419.59	26
1420.66	35
1421.73	32
1422.8	26
1423.87	34
1424.94	33
1426.01	30
1427.08	35
1428.15	26
1429.22	28
1430.29	24
1431.35	32
1432.42	29
1433.49	30
1434.56	32
1435.63	30
1436.69	33
1437.76	31
1438.83	36
1439.9	30
1440.96	28
1442.03	30
1443.1	29
1444.17	26
1445.23	26
1446.3	31
1447.36	32
1448.43	26
1449.49	29
1450.56	29
1451.63	32
1452.69	28
1453.76	26
1454.82	22
1455.89	32
1456.95	26
1458.01	25
1459.08	30
1460.14	28
1461.21	28
1462.27	30
1463.34	29
1464.4	27
1465.46	26
1466.52	31
1467.59	28
1468.65	28
1469.71	27
1470.77	32
1471.84	30
1472.9	28
1473.96	28
1475.02	24
1476.08	26
1477.15	28
1478.21	30
1479.27	25
1480.33	29
1481.39	26
1482.45	28
1483.51	30
1484.57	22
1485.63	24
1486.69	30
1487.75	27
1488.81	30
1489.87	31
1490.93	29
1491.99	34
1493.05	27
1494.1	30
1495.16	24
1496.22	23
1497.28	28
1498.34	31
1499.4	27
1500.45	26
1501.51	31
1502.57	34
1503.63	28
1504.68	26
1505.74	32
1506.8	26
1507.85	30
1508.91	28
1509.97	28
1511.02	28
1512.08	24
1513.13	24
1514.19	29
1515.24	28
1516.3	32
1517.35	34
1518.41	28
1519.46	30
1520.52	35
1521.57	25
1522.63	29
1523.68	28
1524.73	30
1525.79	28
1526.84	26
1527.9	31
1528.95	31
1530	31
1531.05	30
1532.11	31
1533.16	32
1534.21	28
1535.26	25
1536.32	30
1537.37	32
1538.42	27
1539.47	29
1540.52	34
1541.57	30
1542.63	29
1543.68	29
1544.73	26
1545.78	32
1546.83	29
1547.88	33
1548.93	26
1549.98	28
1551.03	31
1552.08	26
1553.13	32
1554.18	26
1555.23	27
1556.27	30
1557.32	34
1558.37	26
1559.42	27
1560.47	29
1561.52	30
1562.56	28
1563.61	29
1564.66	32
1565.71	24
1566.75	28
1567.8	28
1568.85	29
1569.9	28
1570.94	32
1571.99	23
1573.03	33
1574.08	26
1575.13	30
1576.17	27
1577.22	33
1578.26	32
1579.31	33
1580.35	25
1581.4	32
1582.44	28
1583.49	32
1584.53	28
1585.58	30
1586.62	24
1587.66	26
1588.71	27
1589.75	22
1590.8	30
1591.84	26
1592.88	29
1593.92	30
1594.97	27
1596.01	24
1597.05	26
1598.1	32
1599.14	24
1600.18	28
1601.22	28
1602.26	26
1603.3	28
1604.35	29
1605.39	30
1606.43	28
1607.47	32
1608.51	26
1609.55	29
1610.59	24
1611.63	28
1612.67	30
1613.71	26
1614.75	26
1615.79	29
1616.83	27
1617.87	28
1618.91	26
1619.95	26
1620.99	28
1622.02	26
1623.06	24
1624.1	32
1625.14	24
1626.18	30
1627.21	30
1628.25	29
1629.29	29
1630.33	28
1631.36	24
1632.4	33
1633.44	25
1634.48	25
1635.51	32
1636.55	26
1637.58	26
1638.62	26
1639.66	26
1640.69	26
1641.73	29
1642.76	30
1643.8	28
1644.83	30
1645.87	22
1646.9	25
1647.94	32
1648.97	32
1650	26
1651.04	27
1652.07	27
1653.11	28
1654.14	29
1655.17	28
1656.21	32
1657.24	26
1658.27	23
1659.31	29
1660.34	32
1661.37	28
1662.4	26
1663.43	27
1664.47	26
1665.5	34
1666.53	28
1667.56	31
1668.59	27
1669.62	28
1670.66	28
1671.69	22
1672.72	26
1673.75	28
1674.78	31
1675.81	26
1676.84	28
1677.87	27
1678.9	24
1679.93	31
1680.96	28
1681.98	27
1683.01	27
1684.04	32
1685.07	27
1686.1	26
1687.13	28
1688.16	30
1689.18	29
1690.21	26
1691.24	28
1692.27	28
1693.3	30
1694.32	31
1695.35	32
1696.38	29
1697.4	28
1698.43	29
1699.46	27
1700.48	28
1701.51	29
1702.54	29
1703.56	26
1704.59	22
1705.61	28
1706.64	35
1707.66	31
1708.69	28
1709.71	26
1710.74	32
1711.76	25
1712.79	26
1713.81	29
1714.83	27
1715.86	30
1716.88	30
1717.91	30
1718.93	34
1719.95	32
1720.98	26
1722	27
1723.02	27
1724.04	33
1725.07	31
1726.09	26
1727.11	34
1728.13	30
1729.15	32
1730.18	28
1731.2	28
1732.22	28
1733.24	28
1734.26	26
1735.28	30
1736.3	26
1737.32	29
1738.34	30
1739.36	27
1740.38	24
1741.4	27
1742.42	27
1743.44	27
1744.46	31
1745.48	30
1746.5	32
1747.52	25
1748.54	32
1749.56	26
1750.58	30
1751.6	28
1752.61	26
1753.63	30
1754.65	24
1755.67	35
1756.68	27
1757.7	28
1758.72	33
1759.74	28
1760.75	26
1761.77	32
1762.79	30
1763.8	25
1764.82	26
1765.83	26
1766.85	26
1767.87	30
1768.88	27
1769.9	32
1770.91	30
1771.93	30
1772.94	28
1773.96	28
1774.97	31
1775.99	31
1777	31
1778.02	28
1779.03	27
1780.04	34
1781.06	22
1782.07	22
1783.09	34
1784.1	31
1785.11	29
1786.13	26
1787.14	24
1788.15	29
1789.16	32
1790.18	32
1791.19	30
1792.2	28
1793.21	26
1794.22	28
1795.23	29
1796.25	26
1797.26	28
1798.27	30
1799.28	28
1800.29	26
1801.3	28
1802.31	31
1803.32	26
1804.33	22
1805.34	31
1806.35	26
1807.36	28
1808.37	31
1809.38	30
1810.39	33
1811.4	28
1812.41	31
1813.42	26
1814.42	29
1815.43	30
1816.44	33
1817.45	32
1818.46	30
1819.47	25
1820.47	29
1821.48	26
1822.49	26
1823.49	30
1824.5	30
1825.51	22
1826.52	26
1827.52	25
1828.53	28
1829.53	28
1830.54	30
1831.55	33
1832.55	24
1833.56	30
1834.56	32
1835.57	26
1836.57	24
1837.58	26
1838.58	34
1839.59	32
1840.59	30
1841.6	30
1842.6	24
1843.61	31
1844.61	27
1845.61	30
1846.62	29
1847.62	28
1848.62	21
1849.63	29
1850.63	32
1851.63	28
1852.64	27
1853.64	30
1854.64	30
1855.64	26
1856.64	26
1857.65	28
1858.65	31
1859.65	26
1860.65	27
1861.65	32
1862.65	26
1863.65	32
1864.66	33
1865.66	28
1866.66	24
1867.66	27
1868.66	29
1869.66	32
1870.66	28
1871.66	31
1872.66	31
1873.66	24
1874.66	34
1875.65	26
1876.65	30
1877.65	23
1878.65	28
1879.65	28
1880.65	30
1881.65	28
1882.64	28
1883.64	28
1884.64	25
1885.64	29
1886.63	31
1887.63	32
1888.63	24
1889.63	27
1890.62	26
1891.62	28
1892.62	28
1893.61	22
1894.61	29
1895.6	29
1896.6	26
1897.6	32
1898.59	28
1899.59	31
1900.58	29
1901.58	29
1902.57	27
1903.57	27
1904.56	27
1905.56	28
1906.55	25
1907.54	27
1908.54	30
1909.53	30
1910.53	28
1911.52	28
1912.51	24
1913.51	28
1914.5	31
1915.49	27
1916.49	32
1917.48	28
1918.47	18
1919.46	29
1920.46	26
1921.45	26
1922.44	28
1923.43	28
1924.42	20
1925.41	29
1926.41	32
1927.4	29
1928.39	29
1929.38	29
1930.37	26
1931.36	22
1932.35	32
1933.34	25
1934.33	28
1935.32	30
1936.31	25
1937.3	26
1938.29	26
1939.28	32
1940.27	28
1941.26	27
1942.24	25
1943.23	24
1944.22	25
1945.21	20
1946.2	26
1947.19	33
1948.17	34
1949.16	36
1950.15	31.5
1951.14	26
1952.12	22
1953.11	30
1954.1	29
1955.09	28
1956.07	26
1957.06	29
1958.05	30
1959.03	26
1960.02	31
1961	28
1961.99	29
1962.98	24
1963.96	32
1964.95	31
1965.93	27
1966.92	29
1967.9	26
1968.89	26
1969.87	32
1970.85	29
1971.84	28
1972.82	25
1973.81	25
1974.79	26
1975.78	33
1976.76	26
1977.74	29
1978.73	31
1979.71	21
1980.69	26
1981.67	27
1982.66	36
1983.64	26
1984.62	26
1985.6	23
1986.59	28
1987.57	28
1988.55	30
1989.53	28
1990.51	30
1991.49	18
1992.47	26
1993.45	26
1994.44	28
1995.42	30
1996.4	31
1997.38	22
1998.36	26
1999.34	28
2000.32	30
2001.3	23
2002.28	27
2003.26	33
2004.24	26
2005.22	26
2006.19	26
2007.17	23
2008.15	22
2009.13	28
2010.11	31
2011.09	27
2012.06	26
2013.04	29
2014.02	30
2015	31
2015.98	30
2016.95	18
2017.93	28
2018.91	29
2019.88	28
2020.86	28
2021.84	24
2022.81	28
2023.79	28
2024.77	20
2025.74	28
2026.72	28
2027.69	27
2028.67	28
2029.65	30
2030.62	30
2031.6	28
2032.57	32
2033.55	28
2034.52	27
2035.5	26
2036.47	20
2037.44	27
2038.42	32
2039.39	30
2040.36	24
2041.34	29
2042.31	28
2043.29	26
2044.26	28
2045.23	27
2046.2	28
2047.18	28
2048.15	28
2049.12	25
2050.09	25
2051.07	28
2052.04	26
2053.01	25
2053.98	26
2054.95	26
2055.93	24
2056.9	26
2057.87	29
2058.84	26
2059.81	32
2060.78	22
2061.75	26
2062.72	32
2063.69	27
2064.66	26
2065.63	30
2066.6	29
2067.57	28
2068.54	28
2069.51	27
2070.48	24
2071.45	26
2072.42	29
2073.38	27
2074.35	29
2075.32	24
2076.29	22
2077.26	26
2078.23	24
2079.19	30
2080.16	26
2081.13	25
2082.1	27
2083.06	23
2084.03	29
2085	28
2085.96	26
2086.93	24
2087.9	28
2088.86	26
2089.83	27
2090.8	30
2091.76	25
2092.73	28
2093.69	31
2094.66	30
2095.62	27
2096.59	28
2097.55	28
2098.52	25
2099.48	24
2100.45	23
2101.41	28
2102.38	22
2103.34	28
2104.31	27
2105.27	24
2106.23	26
2107.2	29
2108.16	26
2109.12	27
2110.09	32
2111.05	28
2112.01	24
2112.98	22
2113.94	30
2114.9	30
2115.86	28
2116.82	25
2117.79	25
2118.75	29
2119.71	22
2120.67	25
2121.63	27
2122.59	27
2123.55	31
2124.52	26
2125.48	28
2126.44	27
2127.4	28
2128.36	27
2129.32	31
2130.28	23
2131.24	25
2132.2	24
2133.16	24
2134.12	26
2135.08	24
2136.04	28
2136.99	29
2137.95	26
2138.91	28
2139.87	23
2140.83	29
2141.79	29
2142.75	24
2143.7	28
2144.66	26
2145.62	25.9839
2146.58	23.9505
2147.53	27.0021
2148.49	22.2087
2149.45	28.0136
2150.41	23.7996
2151.36	25.8894
2152.32	25.194
2153.27	24.7685
2154.23	26.0048
2155.19	26.0982
2156.14	22.451
2157.1	27.7729
2158.06	23.9183
2159.01	25.4154
2159.97	26.6961
2160.92	24.99
2161.88	26.8008
2162.83	21.1857
2163.79	28.4265
2164.74	22.4017
2165.7	26.3517
2166.65	27.1176
2167.61	24.903
2168.56	23.087
2169.51	26.7278
2170.47	24.9946
2171.42	23.1001
2172.38	27.815
2173.33	27.0892
2174.28	25.271
2175.24	27.5795
2176.19	25.5517
2177.14	26.8009
2178.09	20.7269
2179.05	23.9337
2180	28.5954
2180.95	24.3088
2181.9	24.7796
2182.86	24.6187
2183.81	24.0836
2184.76	29.0072
2185.71	24.4083
2186.66	20.9044
2187.61	24.6708
2188.57	27.1171
2189.52	28.0882
2190.47	26.3309
2191.42	28.4057
2192.37	23.7498
2193.32	25.6231
2194.27	20.9044
2195.22	25.4847
2196.17	26.951
2197.12	23.3108
2198.07	21.1101
2199.02	24.9368
2199.97	24.2888
2200.92	25.019
2201.87	24.7153
2202.82	24.8137
2203.76	25.8206
2204.71	25.8382
2205.66	23.6628
2206.61	24.3676
2207.56	22.7489
2208.51	23.6763
2209.45	25.3235
2210.4	24.0294
2211.35	28.2905
2212.3	26.9759
2213.24	25.7839
2214.19	23.6134
2215.14	23.4412
2216.09	24
2217.03	25.0392
2217.98	25.2825
2218.93	25.6442
2219.87	27.1559
2220.82	24.8746
2221.77	24.6327
2222.71	27.9852
2223.66	26.4679
2224.6	25.086
2225.55	22.5784
2226.49	26.2908
2227.44	27.9861
2228.38	28.6923
2229.33	28.0846
2230.27	29.6904
2231.22	26.5959
2232.16	23.5595
2233.11	22.8973
2234.05	25.0143
2235	26.2093
2235.94	24.7914
2236.88	22.8535
2237.83	26.1912
2238.77	26.6682
2239.71	25.5504
2240.66	26.0441
2241.6	27.7345
2242	29
2242.95	26
2243.9	33
2244.84	28
2245.79	28
2246.74	24
2247.69	30
2248.63	26
2249.58	27
2250.53	24
2251.47	24
2252.42	28
2253.37	24
2254.31	24
2255.26	28
2256.2	22
2257.15	24
2258.1	23
2259.04	23
2259.99	33
2260.93	27
2261.88	24
2262.82	30
2263.77	21
2264.71	28
2265.65	22
2266.6	27
2267.54	23
2268.49	24
2269.43	33
2270.38	25
2271.32	34
2272.26	30
2273.21	23
2274.15	24
2275.09	22
2276.04	26
2276.98	23
2277.92	26
2278.86	24
2279.81	29
2280.75	24
2281.69	31
2282.63	26
2283.57	26
2284.52	28
2285.46	26
2286.4	27
2287.34	27
2288.28	29
2289.22	23
2290.16	30
2291.1	22
2292.04	28
2292.98	24
2293.93	23
2294.86	25
2295.8	30
2296.74	28
2297.69	27
2298.62	27
2299.56	24
2300.5	28
2301.44	28
2302.38	26
2303.32	25
2304.26	28
2305.2	26
2306.14	23
2307.07	26
2308.01	26
2308.95	26
2309.89	28
2310.83	28
2311.76	28
2312.7	28
2313.64	27
2314.58	22
2315.51	27
2316.45	29
2317.39	28
2318.32	24
2319.26	32
2320.2	25
2321.13	20
2322.07	27
2323	24
2323.94	25
2324.88	28
2325.81	22
2326.75	27
2327.68	27
2328.62	22
2329.55	30
2330.49	27
2331.42	26
2332.36	27
2333.29	25
2334.22	25
2335.16	23
2336.09	27
2337.03	34
2337.96	29
2338.89	31
2339.83	29
2340.76	28
2341.69	20
2342.63	24
2343.56	24
2344.49	26
2345.43	26
2346.36	29
2347.29	25
2348.22	25
2349.15	28
2350.09	22
2351.02	27
2351.95	30
2352.88	26
2353.81	24
2354.74	28
2355.67	28
2356.61	31
2357.54	28
2358.47	28
2359.4	31
2360.33	30
2361.26	26
2362.19	28
2363.12	30
2364.05	27
2364.98	26
2365.91	25
2366.84	32
2367.77	27
2368.7	26
2369.62	28
2370.55	26
2371.48	25
2372.41	29
2373.34	24
2374.27	32
2375.2	26
2376.12	27
2377.05	26
2377.98	26
2378.91	29
2379.83	28
2380.76	24
2381.69	30
2382.62	26
2383.54	30
2384.47	23
2385.4	23
2386.32	31
2387.25	20
2388.18	31
2389.1	28
2390.03	25
2390.95	25
2391.88	29
2392.81	24
2393.73	24
2394.66	23
2395.58	26
2396.51	26
2397.43	32
2398.36	24
2399.28	29
2400.2	25
2401.13	28
2402.05	25
2402.98	25
2403.9	24
2404.83	31
2405.75	27
2406.67	27
2407.6	22
2408.52	29
2409.44	26
2410.37	27
2411.29	28
2412.21	18
2413.13	28
2414.06	26
2414.98	30
2415.9	24
2416.82	26
2417.74	30
2418.67	28
2419.59	25
2420.51	31
2421.43	26
2422.35	27
2423.27	26
2424.19	25
2425.11	27
2426.03	22
2426.96	26
2427.88	27
2428.8	25
2429.72	24
2430.64	26
2431.56	22
2432.48	25
2433.39	25
2434.31	22
2435.23	26
2436.15	21
2437.07	29
2437.99	29
2438.91	29
2439.83	26
2440.75	26
2441.67	24
2442.58	24
2443.5	27
2444.42	20
2445.34	23
2446.26	29
2447.17	29
2448.09	26
2449.01	31
2449.92	27
2450.84	26
2451.76	24
2452.68	30
2453.59	25
2454.51	28
2455.42	24
2456.34	29
2457.26	24
2458.17	28
2459.09	23
2460	30
2460.92	28
2461.83	24
2462.75	22
2463.66	26
2464.58	32
2465.49	26
2466.41	29
2467.32	22
2468.24	27
2469.15	29
2470.07	31
2470.98	32
2471.89	26
2472.81	29
2473.72	29
2474.64	26
2475.55	30
2476.46	23
2477.37	24
2478.29	29
2479.2	31
2480.11	27
2481.03	23
2481.94	26
2482.85	30
2483.76	20
2484.67	26
2485.59	26
2486.5	26
2487.41	30
2488.32	22
2489.23	26
2490.14	29
2491.05	28
2491.97	22
2492.88	26
2493.79	27
2494.7	26
2495.61	26
2496.52	34
2497.43	26
2498.34	30
2499.25	28
2500.16	23
2501.07	27
2501.98	29
2502.89	26
2503.79	32
2504.7	28
2505.61	33
2506.52	31
2507.43	30
2508.34	28
2509.25	26
2510.16	26
2511.06	22
2511.97	30
2512.88	30
2513.79	32
2514.69	32
2515.6	25
2516.51	29
2517.42	21
2518.32	24
2519.23	27
2520.14	26
2521.04	28
2521.95	26
2522.86	26
2523.76	28
2524.67	30
2525.57	29
2526.48	28
2527.39	26
2528.29	24
2529.2	28
2530.1	30
2531.01	29
2531.91	29
2532.82	29
2533.72	24
2534.63	20
2535.53	30
2536.44	29
2537.34	27
2538.24	28
2539.15	27
2540.05	24
2540.96	29
2541.86	26
2542.76	24
2543.67	29
2544.57	26
2545.47	24
2546.37	32
2547.28	30
2548.18	27
2549.08	27
2549.99	26
2550.89	22
2551.79	28
2552.69	28
2553.59	24
2554.49	22
2555.4	26
2556.3	31
2557.2	27
2558.1	28
2559	29
2559.9	22
2560.8	30
2561.7	31
2562.6	24
2563.5	28
2564.4	30
2565.3	29
2566.2	27
2567.1	29
2568	26
2568.9	28
2569.8	29
2570.7	30
2571.6	28
2572.5	25
2573.4	28
2574.3	26
2575.2	26
2576.1	25
2576.99	22
2577.89	28
2578.79	29
2579.69	25
2580.59	26
2581.48	27
2582.38	28
2583.28	32
2584.18	26
2585.07	29
2585.97	25
2586.87	26
2587.76	26
2588.66	25
2589.56	28
2590.45	22
2591.35	24
2592.25	29
2593.14	27
2594.04	32
2594.93	30
2595.83	24
2596.73	22
2597.62	30
2598.52	26
2599.41	28
2600.31	28
2601.2	28
2602.1	22
2602.99	24
2603.88	25
2604.78	28
2605.67	28
2606.57	22
2607.46	26
2608.35	29
2609.25	24
2610.14	26
2611.03	31
2611.93	27
2612.82	26
2613.71	30
2614.61	27
2615.5	27
2616.39	26
2617.29	28
2618.18	30
2619.07	28
2619.96	30
2620.85	29
2621.75	26
2622.64	30
2623.53	27
2624.42	27
2625.31	27
2626.2	26
2627.09	22
2627.98	28
2628.88	30
2629.77	29
2630.66	31
2631.55	27
2632.44	26
2633.33	22
2634.22	26
2635.11	24
2636	29
2636.89	26
2637.78	34
2638.66	22
2639.55	26
2640.44	27
2641.33	30
2642.22	27
2643.11	27
2644	24
2644.89	30
2645.78	29
2646.66	24
2647.55	27
2648.44	22
2649.33	29
2650.21	26
2651.1	28
2651.99	27
2652.88	25
2653.76	24
2654.65	24
2655.54	20
2656.42	24
2657.31	22
2658.2	28
2659.08	25
2659.97	26
2660.86	28
2661.74	21
2662.63	29
2663.51	28
2664.4	32
2665.29	27
2666.17	33
2667.06	25
2667.94	26
2668.83	28
2669.71	28
2670.6	29
2671.48	24
2672.36	23
2673.25	26
2674.13	29
2675.02	20
2675.9	28
2676.78	27
2677.67	24
2678.55	26
2679.43	25
2680.32	27
2681.2	30
2682.08	25
2682.97	31
2683.85	22
2684.73	28
2685.61	26
2686.5	32
2687.38	26
2688.26	24
2689.14	26
2690.03	28
2690.91	24
2691.79	31
2692.67	30
2693.55	26
2694.43	32
2695.31	28
2696.19	28
2697.08	27
2697.96	29
2698.84	24
2699.72	31
2700.6	26
2701.48	28
2702.36	26
2703.24	28
2704.12	30
2705	29
2705.88	27
2706.76	26
2707.64	22
2708.51	30
2709.39	27
2710.27	30
2711.15	28
2712.03	25
2712.91	24
2713.79	27
2714.67	22
2715.54	28
2716.42	26
2717.3	28
2718.18	30
2719.05	24
2719.93	26
2720.81	25
2721.69	29
2722.56	24
2723.44	25
2724.32	28
2725.19	26
2726.07	29
2726.95	31
2727.82	26
2728.7	26
2729.58	27
2730.45	20
2731.33	24
2732.2	24
2733.08	26
2733.95	26
2734.83	28
2735.7	28
2736.58	28
2737.45	29
2738.33	23
2739.2	32
2740.08	22
2740.95	29
2741.83	31
2742.7	28
2743.58	26
2744.45	26
2745.32	24
2746.2	26
2747.07	31
2747.94	29
2748.82	24
2749.69	22
2750.56	28
2751.44	24
2752.31	24
2753.18	28
2754.05	26
2754.93	25
2755.8	29
2756.67	23
2757.54	22
2758.42	26
2759.29	27
2760.16	25
2761.03	24
2761.9	29
2762.77	28
2763.64	23
2764.51	27
2765.38	30
2766.26	28
2767.13	27
2768	29
2768.87	24
2769.74	28
2770.61	29
2771.48	28
2772.35	24
2773.22	30
2774.09	29
2774.96	24
2775.83	28
2776.7	28
2777.56	24
2778.43	28
2779.3	26
2780.17	30
2781.04	22
2781.91	24
2782.78	29
2783.64	28
2784.51	26
2785.38	25
2786.25	30
2787.12	30
2787.98	33
2788.85	20
2789.72	24
2790.59	22
2791.45	28
2792.32	27
2793.19	27
2794.05	29
2794.92	28
2795.79	26
2796.65	26
2797.52	28
2798.38	30
2799.25	30
2800.12	29
2800.98	26
2801.85	28
2802.71	28
2803.58	30.5
2804.44	31
2805.31	25
2806.17	30
2807.04	32
2807.9	26
2808.77	30
2809.63	24
2810.5	30
2811.36	28
2812.22	32
2813.09	27
2813.95	30
2814.82	29
2815.68	29
2816.54	28
2817.41	26
2818.27	28
2819.13	25
2820	26
2820.86	31
2821.72	32
2822.58	28
2823.45	31
2824.31	30
2825.17	28
2826.03	26
2826.9	30
2827.76	28
2828.62	29
2829.48	25
2830.34	30
2831.2	27
2832.06	31
2832.92	28
2833.79	29
2834.65	27
2835.51	26
2836.37	28
2837.23	27
2838.09	26
2838.95	28
2839.81	30
2840.67	30
2841.53	28
2842.39	31
2843.25	29
2844.11	34
2844.97	26
2845.83	26
2846.68	26
2847.54	31
2848.4	30
2849.26	32
2850.12	27
2850.98	31
2851.84	28
2852.69	25
2853.55	25
2854.41	29
2855.27	28
2856.13	26
2856.98	28
2857.84	39
2858.7	26
2859.56	24
2860.41	28
2861.27	30
2862.13	29
2862.98	26
2863.84	25
2864.7	26
2865.55	31
2866.41	24
2867.27	22
2868.12	28
2868.98	32
2869.83	26
2870.69	30
2871.54	31
2872.4	28
2873.25	34
2874.11	30
2874.96	26
2875.82	30
2876.68	32
2877.53	26
2878.38	31
2879.24	24
2880.09	31
2880.95	30
2881.8	35
2882.65	34
2883.51	32
2884.36	30
2885.22	29
2886.07	36
2886.92	37
2887.77	30
2888.63	33
2889.48	30
2890.33	40
2891.19	34
2892.04	38
2892.89	40
2893.74	42
2894.6	44
2895.45	41
2896.3	47
2897.15	43
2898	44
2898.85	48
2899.71	50
2900.56	48
2901.41	54
2902.26	54
2903.11	58
2903.96	60
2904.81	59
2905.66	60
2906.51	67
2907.36	62
2908.21	57
2909.06	60
2909.91	60
2910.76	63
2911.61	52
2912.46	49
2913.31	52
2914.16	51
2915.01	52
2915.86	45
2916.71	46
2917.56	42
2918.41	40
2919.26	32
2920.1	38
2920.95	28
2921.8	41
2922.65	32
2923.5	28
2924.34	36
2925.19	42
2926.04	28
2926.89	30
2927.74	26
2928.58	36
2929.43	38
2930.28	31
2931.12	30
2931.97	32
2932.82	29
2933.66	34
2934.51	28
2935.36	32
2936.2	32
2937.05	32
2937.89	29
2938.74	26
2939.59	29
2940.43	31
2941.28	32
2942.12	31
2942.97	26
2943.81	30
2944.66	30
2945.5	26
2946.35	26
2947.19	32
2948.04	28
2948.88	27
2949.72	32
2950.57	35
2951.41	34
2952.26	33
2953.1	33
2953.94	37
2954.79	31
2955.63	34
2956.47	34
2957.32	34
2958.16	34
2959	33
2959.85	38
2960.69	34
2961.53	37
2962.37	34
2963.22	44
2964.06	41
2964.9	41
2965.74	42
2966.58	44
2967.42	44
2968.27	36
2969.11	40
2969.95	43
2970.79	41
2971.63	38
2972.47	40
2973.31	36
2974.15	41
2974.99	32
2975.83	35
2976.68	26
2977.52	26
2978.36	33
2979.2	38
2980.04	28
2980.88	33
2981.71	30
2982.55	26
2983.39	33
2984.23	29
2985.07	26
2985.91	32
2986.75	26
2987.59	33
2988.43	22
2989.27	22
2990.1	31
2990.94	36
2991.78	27
2992.62	32
2993.46	23
2994.3	26
2995.13	26
2995.97	31
2996.81	28
2997.64	26
2998.48	36
2999.32	24
