#Acq. time (s)=	5
#Accumulations=	5
#Range (cm-¹)=	100...2000
#Windows=	2
#Autofocus=	Off
#AutoExposure=	Off
#Spike filter=	Multiple accum.
#Delay time (s)=	0
#Binning=	1
#Readout mode=	Signal
#DeNoise=	Off
#ICS correction=	Off
#Dark correction=	Off
#Inst. Process=	Off
#Instrument=	LabRAM HR Evol
#Detector=	Syncerity OE
#Objective=	x100_VIS_LWD
#Grating=	600 (500nm)
#ND Filter=	25%
#Laser=	633nm_Edge
#Hole=	100.021
#Range=	Visible
#Project=	bolus
#Sample=	B3
#Site=	r
#Title=	bolusb
#Remark=	
#Date=	18.06.2025 14:01
#Acquired=	18.06.2025 14:01:40
101.021	36.5
102.305	34
103.588	32
104.871	37.5
106.154	36
107.436	40
108.72	35
110.002	34
111.284	34.5
112.566	34
113.848	30.5
115.129	31.5
116.41	33
117.691	36
118.972	40
120.252	37.5
121.533	42
122.813	37
124.093	34.5
125.372	36.5
126.652	35.5
127.931	35
129.21	36.5
130.489	38
131.768	40
133.046	41
134.324	45
135.602	36
136.879	40
138.156	43
139.433	42
140.711	43.5
141.988	50
143.264	43
144.541	48
145.817	43.5
147.093	46.5
148.368	48
149.644	51
150.919	53.5
152.194	47
153.469	47.5
154.744	52.5
156.017	49
157.292	50.5
158.566	50
159.84	47
161.114	48
162.386	54
163.66	50
164.933	46
166.206	43.5
167.477	48
168.75	44.5
170.022	47
171.294	48.5
172.565	42.5
173.837	52.5
175.108	50.5
176.378	41.5
177.649	42
178.92	50
180.189	51.5
181.46	48.5
182.73	50
183.999	46
185.269	47
186.539	51
187.807	49.5
189.076	51
190.344	48.5
191.612	49
192.881	42
194.148	47
195.416	47
196.683	49
197.951	43
199.218	48.5
200.484	46.5
201.752	48.5
203.017	45.5
204.284	41
205.549	49
206.815	40.5
208.08	43
209.346	48
210.611	43.5
211.876	44
213.14	37.5
214.405	40.5
215.669	42
216.933	41
218.197	38.5
219.461	40
220.724	36.5
221.986	36
223.25	42.5
224.512	38
225.775	37.5
227.037	37
228.298	38
229.561	33
230.822	42
232.084	32
233.345	35
234.605	35.5
235.867	34
237.127	32
238.387	38
239.648	33.5
240.907	35
242.167	35
243.426	36
244.686	33
245.944	34
247.203	34.5
248.462	35
249.72	36
250.978	35
252.236	35.5
253.495	35
254.752	36
256.009	37.5
257.266	33
258.524	34
259.78	35
261.036	35.5
262.292	32.5
263.548	38
264.803	34.5
266.06	32.5
267.315	36.5
268.57	37
269.825	35.5
271.079	29
272.334	33.5
273.588	35.5
274.843	31.5
276.097	29
277.35	28.5
278.604	30.5
279.857	34.5
281.11	37
282.362	32.5
283.615	31
284.867	34
286.119	32.5
287.371	32
288.623	33.5
289.874	33.5
291.126	35
292.377	30
293.628	28
294.878	30.5
296.129	33
297.379	34
298.629	32.5
299.879	33
301.129	27.5
302.378	27.5
303.627	34
304.877	35
306.125	32
307.374	34
308.623	35
309.871	32.5
311.119	33.5
312.365	30.5
313.613	33.5
314.86	29
316.108	34
317.355	28
318.602	32.5
319.848	34.5
321.093	34
322.339	31.5
323.586	37
324.831	39.5
326.077	33.5
327.321	28
328.566	35
329.811	31
331.056	36.5
332.301	34
333.544	34.5
334.788	34
336.032	33
337.276	31
338.518	34
339.762	32.5
341.005	35
342.246	36.5
343.489	31.5
344.732	33
345.973	28
347.215	29
348.457	34
349.698	32
350.939	33
352.181	33.5
353.421	34.5
354.662	35
355.903	38
357.142	33.5
358.382	32.5
359.621	31
360.861	36.5
362.101	34
363.339	36.5
364.579	33
365.816	29.5
367.055	30.5
368.293	31
369.532	34
370.769	33.5
372.007	36.5
373.243	35
374.481	33
375.718	30.5
376.955	33.5
378.191	35
379.428	34.5
380.663	37
381.9	31.5
383.135	34
384.371	30.5
385.606	34
386.84	30
388.076	29
389.31	34.5
390.546	28.5
391.779	33.5
393.013	30
394.247	30.5
395.48	34
396.715	32
397.947	33
399.18	31.5
400.414	27.5
401.646	34.5
402.877	32
404.111	33
405.342	34.5
406.573	32.5
407.804	32
409.037	33
410.267	34.5
411.498	31
412.728	35.5
413.96	33.5
415.19	30.5
416.419	33
417.649	30.5
418.88	32.5
420.109	32.5
421.338	32
422.566	33
423.795	36
425.025	29
426.253	34
427.481	32
428.709	29
429.936	30
431.163	30
432.392	33
433.619	35.5
434.846	30.5
436.072	33
437.299	32.5
438.525	32.5
439.751	37
440.977	30.5
442.202	30.5
443.428	32.5
444.653	29
445.878	32
447.104	33
448.329	34
449.553	30.5
450.777	33.5
452.001	34
453.225	33.5
454.449	35
455.672	29.5
456.896	32.5
458.117	34
459.34	33.5
460.563	35.5
461.785	37.5
463.007	34.5
464.23	35
465.451	38.5
466.673	35.5
467.895	40.5
469.116	35
470.337	40
471.558	44.5
472.777	39
473.998	45
475.218	42.5
476.438	49.5
477.658	48.5
478.878	52
480.096	62.5
481.315	57.5
482.534	67
483.753	65.5
484.972	67
486.189	71
487.408	77.5
488.626	74
489.844	78.5
491.062	80
492.278	78.5
493.495	62.5
494.713	65
495.928	63.5
497.145	63
498.362	62.5
499.578	57
500.793	48.5
502.009	51.5
503.225	45
504.439	49.5
505.655	51.5
506.87	46.5
508.084	48
509.298	43.5
510.512	41
511.726	41
512.941	39.5
514.153	38.5
515.367	40.5
516.58	40
517.793	40.5
519.007	35
520.218	43
521.431	38
522.643	31
523.855	36.5
525.066	38
526.278	37.5
527.489	36.5
528.701	36
529.911	36
531.122	33
532.332	36
533.543	35
534.753	37.5
535.963	33.5
537.172	32.5
538.381	33
539.591	35
540.8	35.5
542.01	31.5
543.218	35
544.426	29
545.635	37
546.842	31
548.051	38
549.258	37
550.465	36
551.673	38
552.88	31
554.086	34
555.294	36
556.5	32
557.706	32
558.913	32
560.118	32
561.323	33
562.529	35
563.735	37
564.939	35
566.144	31.5
567.348	37
568.554	32.5
569.758	28
570.961	32.5
572.165	32
573.368	33.5
574.573	34.5
575.776	30
576.978	35
578.181	29.5
579.383	33
580.586	33
581.789	28.5
582.991	33
584.192	30.5
585.394	33.5
586.595	32
587.796	35
588.997	31
590.198	33
591.398	29
592.6	33
593.8	30.5
595	33.5
596.2	31
597.399	29
598.599	35
599.798	32.5
600.997	26.5
602.195	30
603.394	36
604.592	32
605.791	29.5
606.989	30.5
608.186	30
609.384	32.5
610.582	32.5
611.777	34
612.975	33.5
614.171	35
615.368	34
616.565	33
617.761	34
618.957	34
620.153	32.5
621.349	29.5
622.543	33
623.738	35
624.934	34
626.129	36
627.323	30.5
628.518	30.5
629.711	30.5
630.905	37
632.099	29
633.293	31
634.487	32
635.679	35.5
636.872	34
638.065	31
639.258	31.5
640.45	26.5
641.642	32.5
642.835	33
644.026	33
645.218	35
646.409	35.5
647.601	32
648.791	34.5
649.982	33.5
651.173	32
652.363	35
653.554	31.5
654.743	35.5
655.933	35.5
657.123	29.5
658.312	30
659.501	34
660.691	37
661.879	36.5
663.068	30
664.256	32
665.445	33.5
666.632	33
667.82	35
669.007	38
670.195	35.5
671.382	34.5
672.569	33.5
673.755	37
674.943	38.5
676.129	36
677.316	38.5
678.501	38
679.688	40
680.873	45
682.059	42
683.243	39
684.429	43.5
685.614	38.5
686.798	41.5
687.983	35
689.167	43
690.352	42
691.535	39
692.718	36.5
693.902	39
695.085	44
696.268	39.5
697.451	43
698.634	42
699.816	45.5
700.999	45
702.181	49
703.362	54
704.543	51.5
705.726	49
706.907	62
708.088	66
709.268	57
710.45	62
711.63	53
712.81	51.5
713.99	50
715.171	44
716.35	41
717.53	41.5
718.709	37.5
719.888	40.5
721.066	30
722.246	36.5
723.425	33.5
724.603	28
725.781	34
726.959	34
728.136	32.5
729.314	34.5
730.491	35
731.668	32
732.846	28.5
734.023	34.5
735.199	27.5
736.376	34
737.552	29
738.728	35.5
739.904	33.5
741.079	35
742.255	31.5
743.43	35
744.605	27.5
745.78	30.5
746.954	34.5
748.129	29
749.303	29.5
750.477	32
751.651	29
752.824	34
753.997	33
755.171	31
756.344	36.5
757.517	29
758.69	32
759.862	31
761.035	28
762.207	26
763.378	30
764.55	29.5
765.721	34
766.893	33
768.064	31.5
769.236	31.5
770.405	27
771.576	35.5
772.747	27.5
773.917	31.5
775.086	30.5
776.256	33
777.426	34.5
778.596	32.5
779.764	31.5
780.933	33.5
782.103	31.5
783.27	35
784.439	35
785.608	36
786.776	36.5
787.943	33
789.111	37
790.279	35.5
791.445	36.5
792.613	38
793.779	36.5
794.946	30
796.113	37
797.279	32.5
798.445	36
799.61	35.5
800.777	34.5
801.943	34
803.107	31
804.273	32.5
805.437	29
806.603	31
807.767	33
808.932	34
810.095	29.5
811.26	31
812.423	29
813.587	33.5
814.75	35
815.914	34.5
817.076	35
818.238	32
819.402	28.5
820.564	28
821.727	29
822.888	34.5
824.051	31
825.212	31
826.373	31.5
827.535	28.5
828.696	32
829.856	36
831.018	32.5
832.178	32.5
833.337	30.5
834.499	31.5
835.658	31
836.817	34
837.978	32
839.137	30.5
840.296	30
841.454	30
842.614	33
843.772	30
844.93	32
846.088	32
847.247	35.5
848.405	31
849.562	33
850.719	31.5
851.876	34.5
853.034	33
854.191	33
855.348	31.5
856.504	35
857.66	27.5
858.816	31.5
859.972	36.5
861.129	34.5
862.284	32
863.439	40
864.594	37
865.749	33.5
866.904	30.5
868.058	31
869.212	33
870.367	31
871.521	31
872.674	32
873.828	30
874.981	33
876.135	34.5
877.288	32.5
878.44	35
879.593	31.5
880.746	31.5
881.898	29
883.05	34
884.202	30
885.354	30.5
886.506	34
887.657	30.5
888.808	24.5
889.958	32
891.109	32
892.26	33.5
893.41	34
894.561	30
895.711	31
896.861	32
898.01	30
899.159	29
900.309	28.5
901.458	28.5
902.607	27.5
903.755	28.5
904.904	33
906.052	35.5
907.201	31
908.348	25
909.496	28.5
910.644	32
911.791	31
912.938	29
914.085	31
915.232	29
916.378	29.5
917.525	29
918.671	32
919.817	30
920.963	29.5
922.109	29
923.254	30
924.399	26.5
925.545	32
926.689	34
927.834	28
928.978	30.5
930.123	31.5
931.268	27.5
932.411	28
933.555	31.5
934.698	32.5
935.842	28.5
936.985	29.5
938.128	27
939.271	31.5
940.414	33
941.556	29
942.699	33
943.84	30
944.983	30.5
946.124	28
947.266	29.5
948.407	33.5
949.547	31
950.689	30
951.829	36.5
952.971	29.5
954.111	33
955.25	31.5
956.391	30
957.531	30.5
958.67	32
959.81	29
960.949	31.5
962.088	29
963.227	24
964.366	26
965.504	31.5
966.643	27.5
967.781	30
968.919	28
970.056	32.5
971.195	27.5
972.332	31
973.469	32
974.605	31.5
975.743	33
976.88	29
978.016	32
979.152	32
980.288	30.5
981.423	34
982.56	27
983.696	26.5
984.831	30
985.966	30
987.101	30
988.235	32.5
989.37	31
990.504	26.5
991.639	27.5
992.773	27.5
993.907	28
995.041	27
996.174	30.5
997.307	30
998.44	29
999.573	28.5
1000.71	32
1001.84	28.5
1002.97	32.5
1004.1	26
1005.24	29.5
1006.37	30
1007.5	32
1008.63	32
1009.76	30.5
1010.89	31.5
1012.02	32.5
1013.15	26
1014.28	28
1015.41	33
1016.54	30.5
1017.67	28
1018.8	29.5
1019.93	27
1021.06	30
1022.19	32
1023.32	28
1024.45	30
1025.58	30.5
1026.71	29
1027.84	30
1028.96	27.5
1030.09	25
1031.22	32.5
1032.35	27.5
1033.47	32.5
1034.6	27.5
1035.73	30
1036.86	28.5
1037.98	30
1039.11	32.5
1040.23	28.5
1041.36	26.5
1042.49	25
1043.61	30
1044.74	29.5
1045.86	31
1046.99	31.5
1048.11	32.5
1049.24	31.5
1050.36	24.5
1051.49	29
1052.61	32.5
1053.74	28.5
1054.86	31
1055.98	29
1057.11	29.5
1058.23	33
1059.35	32.5
1060.48	26.5
1061.6	27
1062.72	30.5
1063.85	29.5
1064.97	27
1066.09	30.5
1067.21	28
1068.33	29
1069.45	29
1070.57	30
1071.7	26
1072.82	32.5
1073.94	28
1075.06	27.5
1076.18	28
1077.3	30
1078.42	28
1079.54	31.5
1080.66	29.5
1081.78	31
1082.9	31
1084.02	30
1085.14	30.5
1086.26	32.5
1087.37	30
1088.49	30
1089.61	27
1090.73	30.5
1091.85	31
1092.96	27.5
1094.08	29
1095.2	31
1096.32	30
1097.43	28
1098.55	29.5
1099.67	26.5
1100.78	24
1101.9	28
1103.01	24
1104.13	28.5
1105.25	32
1106.36	30.5
1107.48	31.5
1108.59	29
1109.71	26
1110.82	32.5
1111.94	29
1113.05	27
1114.16	27.5
1115.28	32
1116.39	30
1117.51	28
1118.62	26
1119.73	29.5
1120.85	25.5
1121.96	28.5
1123.07	26.5
1124.18	28
1125.3	28.5
1126.41	28
1127.52	28.5
1128.63	34
1129.74	27.5
1130.86	29
1131.97	32.5
1133.08	28
1134.19	29
1135.3	28.5
1136.41	23.5
1137.52	27.5
1138.63	26.5
1139.74	28
1140.85	30
1141.96	29
1143.07	30
1144.18	28.5
1145.29	29.5
1146.4	27.5
1147.51	30
1148.62	31
1149.72	29
1150.83	28
1151.94	29
1153.05	27
1154.15	28
1155.26	28.5
1156.37	28
1157.48	27
1158.58	27.5
1159.69	29.5
1160.8	25
1161.9	30.5
1163.01	29
1164.12	28
1165.22	30.5
1166.33	29.5
1167.43	29
1168.54	30
1169.64	30
1170.75	27.5
1171.85	29
1172.96	24
1174.06	31
1175.17	28
1176.27	26.5
1177.37	27
1178.48	31.5
1179.58	30.5
1180.69	28.5
1181.79	30
1182.89	30.5
1183.99	24
1185.1	25
1186.2	26.5
1187.3	30.5
1188.4	32
1189.51	27
1190.61	28.5
1191.71	29.5
1192.81	27.5
1193.91	26.5
1195.01	28
1196.11	28
1197.22	28.5
1198.32	29.5
1199.42	25.995
1200.52	26.9527
1201.62	27.0143
1202.72	26.1254
1203.82	27.0422
1204.91	29.3287
1206.02	28.9342
1207.11	26.1152
1208.21	27.8798
1209.31	26.3649
1210.41	24.5384
1211.51	26.0271
1212.61	24.7858
1213.7	26.4827
1214.8	29.2136
1215.9	28.193
1217	28.4574
1218.09	31.3184
1219.19	25.8133
1220.29	27.4464
1221.39	26.4628
1222.48	27.37
1223.58	29.5659
1224.68	26.6057
1225.77	26.0018
1226.87	28.2348
1227.96	27.4328
1229.06	27.7591
1230.15	25.8152
1231.25	26.8448
1232.34	27.3516
1233.44	30.2867
1234.53	27.2195
1235.63	29.7358
1236.72	27.7241
1237.82	25.1587
1238.91	30.7496
1240	27.2335
1241.1	27.9984
1242.19	27.3945
1243.28	30.2177
1244.38	31.1527
1245.47	28.5276
1246.56	29.1353
1247.66	29.6283
1248.75	27.3282
1249.84	28.7675
1250.93	28.5099
1252.02	27.6817
1253.12	28.4008
1254.21	27.414
1255.3	26.2197
1256.39	29.9519
1257.48	29.7694
1258.57	30.2357
1259.66	29.9808
1260.75	30.4125
1261.84	31.8581
1262.93	29.6877
1264.02	31.1958
1265.11	30.844
1266.2	28.3403
1267.29	26.9816
1268.38	28.5471
1269.47	28.4203
1270.56	26.5894
1271.65	26.1118
1272.74	27.5656
1273.82	27.3368
1274.91	28.8799
1276	25.7123
1277.09	28.8886
1278.18	28.4934
1279.26	29.2726
1280.35	26.3317
1281.44	28.406
1282.52	26.8391
1283.61	29.6587
1284.7	27.0502
1285.78	24.1191
1286.87	27.2135
1287.96	28.4128
1289.04	29.7319
1290.13	26.698
1291.21	27.9804
1292.3	26.2891
1293.38	26.5576
1294.47	25.8453
1295.55	27.5103
1296.64	27.7514
1297.72	28.7126
1298.81	30.1844
1299.89	27.6038
1300.97	26.0451
1302.06	28.549
1303.14	31.7176
1304.22	26.8909
1305.31	26.2319
1306.39	27.1877
1307.47	24.4382
1308.45	28.5
1309.54	27
1310.63	27
1311.72	27
1312.81	26.5
1313.89	31
1314.98	26
1316.07	27.5
1317.15	27.5
1318.24	28
1319.33	31
1320.41	25
1321.5	29
1322.59	29
1323.67	23.5
1324.76	25
1325.84	27
1326.93	27.5
1328.01	28.5
1329.1	28.5
1330.18	30.5
1331.27	26.5
1332.35	27.5
1333.44	25.5
1334.52	26.5
1335.6	28
1336.69	25
1337.77	26.5
1338.85	25.5
1339.94	25
1341.02	28
1342.1	28.5
1343.18	21.5
1344.27	28.5
1345.35	25.5
1346.43	28.5
1347.51	28
1348.6	30
1349.68	30.5
1350.76	25
1351.84	26
1352.92	31
1354	27
1355.08	30
1356.16	32
1357.24	24.5
1358.32	27.5
1359.4	26.5
1360.48	30.5
1361.56	28.5
1362.64	29
1363.72	29.5
1364.8	29.5
1365.88	28.5
1366.96	28.5
1368.04	31.5
1369.12	29
1370.19	27
1371.27	33.5
1372.35	24
1373.43	29
1374.51	24
1375.58	31.5
1376.66	28
1377.74	29.5
1378.82	32
1379.89	23.5
1380.97	31.5
1382.05	27
1383.12	30
1384.2	29.5
1385.27	29.5
1386.35	31.5
1387.43	28
1388.5	31
1389.58	26.5
1390.65	30.5
1391.73	28
1392.8	27
1393.87	31
1394.95	31.5
1396.02	28
1397.1	35
1398.17	37
1399.25	35
1400.32	32
1401.39	30.5
1402.47	34
1403.54	36
1404.61	39
1405.69	37.5
1406.76	38.5
1407.83	36
1408.9	33
1409.97	34.5
1411.05	37
1412.12	41
1413.19	34.5
1414.26	37.5
1415.33	36
1416.4	35.5
1417.47	36
1418.54	33.5
1419.61	37.5
1420.68	33
1421.76	33
1422.83	30.5
1423.89	31
1424.96	27.5
1426.03	30.5
1427.1	30.5
1428.17	28
1429.24	27
1430.31	32
1431.38	33.5
1432.45	30
1433.52	31.5
1434.58	27.5
1435.65	32
1436.72	28
1437.79	30
1438.85	31.5
1439.92	29
1440.99	31.5
1442.06	29
1443.12	29.5
1444.19	29
1445.26	26
1446.32	32
1447.39	30
1448.45	26.5
1449.52	30
1450.58	31
1451.65	29.5
1452.72	29.5
1453.78	26.5
1454.85	28
1455.91	27
1456.97	29
1458.04	27
1459.1	31
1460.17	30.5
1461.23	30
1462.3	30
1463.36	30
1464.42	29.5
1465.49	27
1466.55	30.5
1467.61	25.5
1468.67	30
1469.74	29.5
1470.8	29.5
1471.86	32
1472.92	31
1473.99	30
1475.05	26
1476.11	29.5
1477.17	25
1478.23	29.5
1479.29	30.5
1480.35	27.5
1481.41	28
1482.47	27
1483.54	31
1484.6	32
1485.66	33
1486.72	28.5
1487.78	31
1488.83	27.5
1489.89	32
1490.95	30
1492.01	31
1493.07	31
1494.13	29.5
1495.19	29
1496.25	29
1497.31	26
1498.36	30
1499.42	26
1500.48	29
1501.54	26.5
1502.59	25.5
1503.65	28.5
1504.71	30.5
1505.77	22.5
1506.82	30.5
1507.88	27
1508.93	29.5
1509.99	30
1511.05	30
1512.1	29
1513.16	30
1514.21	26.5
1515.27	27
1516.32	29.5
1517.38	31.5
1518.43	29.5
1519.49	29.5
1520.54	30.5
1521.6	27
1522.65	25
1523.71	23.5
1524.76	30.5
1525.81	26
1526.87	27
1527.92	30
1528.97	26
1530.03	29.5
1531.08	31
1532.13	25
1533.18	31.5
1534.24	30
1535.29	29
1536.34	28.5
1537.39	34
1538.45	27
1539.5	30
1540.55	28
1541.6	34
1542.65	28.5
1543.7	29.5
1544.75	28
1545.8	32
1546.85	31.5
1547.9	29.5
1548.95	28.5
1550	25.5
1551.05	29.5
1552.1	27
1553.15	31
1554.2	26.5
1555.25	32
1556.3	28
1557.35	30.5
1558.4	29.5
1559.45	24.5
1560.49	28
1561.54	29.5
1562.59	29
1563.64	32.5
1564.68	31
1565.73	27
1566.78	28
1567.83	32.5
1568.87	28.5
1569.92	30
1570.97	26
1572.01	25.5
1573.06	29
1574.11	28
1575.15	29
1576.2	30.5
1577.24	30
1578.29	32
1579.33	30
1580.38	29
1581.42	28
1582.47	29
1583.51	26.5
1584.56	23
1585.6	32
1586.65	27.5
1587.69	27
1588.73	30
1589.78	23
1590.82	28.5
1591.87	26.5
1592.91	27.5
1593.95	24.5
1594.99	28
1596.04	26
1597.08	30.5
1598.12	29.5
1599.16	29.5
1600.21	31.5
1601.25	30
1602.29	29
1603.33	26.5
1604.37	28
1605.41	28
1606.45	30
1607.5	32
1608.54	28
1609.58	29.5
1610.62	27.5
1611.66	29.5
1612.7	28.5
1613.74	24.5
1614.78	28
1615.82	29
1616.86	27.5
1617.89	28.5
1618.93	27
1619.97	28
1621.01	33.5
1622.05	23.5
1623.09	29.5
1624.13	30
1625.16	31.5
1626.2	27.5
1627.24	26.5
1628.28	28
1629.32	28.5
1630.35	30.5
1631.39	23
1632.43	27.5
1633.46	28
1634.5	26
1635.54	32
1636.57	27.5
1637.61	31.5
1638.65	27.5
1639.68	30.5
1640.72	29.5
1641.75	28
1642.79	30
1643.82	30.5
1644.86	27
1645.89	30.5
1646.93	29
1647.96	26
1649	26.5
1650.03	28
1651.07	30
1652.1	28
1653.13	28
1654.17	27.5
1655.2	29
1656.23	27
1657.27	26.5
1658.3	27
1659.33	25.5
1660.36	27
1661.4	28
1662.43	30
1663.46	26
1664.49	29
1665.53	30
1666.56	30.5
1667.59	23.5
1668.62	27.5
1669.65	31
1670.68	25
1671.71	25
1672.74	28
1673.77	30
1674.8	28.5
1675.83	24
1676.86	30
1677.89	22
1678.92	27
1679.95	29.5
1680.98	29.5
1682.01	28
1683.04	31
1684.07	29
1685.1	29
1686.13	30
1687.15	26
1688.18	27.5
1689.21	30
1690.24	29
1691.27	33
1692.29	28.5
1693.32	30
1694.35	27.5
1695.38	28.5
1696.4	23.5
1697.43	29.5
1698.46	29
1699.48	25
1700.51	26.5
1701.54	24
1702.56	28
1703.59	28.5
1704.61	30.5
1705.64	25
1706.66	27.5
1707.69	29.5
1708.71	25.5
1709.74	26
1710.76	28.5
1711.79	26
1712.81	31
1713.84	25
1714.86	30.5
1715.89	27.5
1716.91	26.5
1717.93	30
1718.96	26
1719.98	28
1721	28
1722.03	29
1723.05	25
1724.07	27
1725.09	26.5
1726.12	30
1727.14	28.5
1728.16	29.5
1729.18	26.5
1730.2	27
1731.23	28.5
1732.25	29.5
1733.27	28.5
1734.29	28
1735.31	26.5
1736.33	26.5
1737.35	26.5
1738.37	29
1739.39	28
1740.41	31.5
1741.43	29.5
1742.45	30
1743.47	28
1744.49	27.5
1745.51	23
1746.53	29.5
1747.55	29
1748.57	26
1749.59	28
1750.6	28
1751.62	26
1752.64	30.5
1753.66	30.5
1754.68	27
1755.69	24
1756.71	25.5
1757.73	27
1758.75	30
1759.76	30
1760.78	30
1761.8	27.5
1762.81	28.5
1763.83	26
1764.85	28
1765.86	25
1766.88	27
1767.89	25
1768.91	30.5
1769.93	28
1770.94	29
1771.96	31.5
1772.97	30
1773.99	28
1775	29.5
1776.02	29
1777.03	25
1778.04	25
1779.06	27
1780.07	26.5
1781.09	26.5
1782.1	29.5
1783.11	29.5
1784.13	25.5
1785.14	31
1786.15	27
1787.17	24
1788.18	23
1789.19	29
1790.2	29
1791.22	28.5
1792.23	30
1793.24	29
1794.25	24.5
1795.26	28
1796.27	29.5
1797.29	29
1798.3	26
1799.31	31.5
1800.32	23
1801.33	27
1802.34	28
1803.35	28
1804.36	22.5
1805.37	30
1806.38	25.5
1807.39	30
1808.4	26.5
1809.41	24
1810.42	29
1811.43	28.5
1812.44	25
1813.44	27
1814.45	26
1815.46	29
1816.47	28
1817.48	28
1818.49	27
1819.49	30.5
1820.5	29
1821.51	30.5
1822.52	25.5
1823.52	24.5
1824.53	27.5
1825.54	27
1826.54	27.5
1827.55	26.5
1828.56	27
1829.56	29
1830.57	29
1831.58	30
1832.58	27
1833.59	27
1834.59	30
1835.6	27
1836.6	26
1837.61	26
1838.61	28.5
1839.62	26
1840.62	26.5
1841.63	29
1842.63	26
1843.63	24
1844.64	31
1845.64	27.5
1846.65	26
1847.65	27
1848.65	26.5
1849.66	26.5
1850.66	27
1851.66	30.5
1852.66	27
1853.67	29
1854.67	28
1855.67	29
1856.67	28
1857.68	23.5
1858.68	25
1859.68	31.5
1860.68	24
1861.68	23.5
1862.68	26.5
1863.68	29
1864.68	26
1865.69	31
1866.69	27
1867.69	27.5
1868.69	27.5
1869.69	27.5
1870.69	28.5
1871.69	27
1872.69	30.5
1873.69	20
1874.69	28.5
1875.68	27
1876.68	25
1877.68	28
1878.68	28
1879.68	30.5
1880.68	25
1881.68	31
1882.67	28.5
1883.67	28
1884.67	27
1885.67	30.5
1886.66	29.5
1887.66	28.5
1888.66	25
1889.65	28
1890.65	28.5
1891.65	29
1892.65	29.5
1893.64	31
1894.64	27
1895.63	29.5
1896.63	27
1897.62	29
1898.62	26.5
1899.62	26.5
1900.61	29.5
1901.61	26.5
1902.6	29.5
1903.6	27.5
1904.59	27.5
1905.59	27
1906.58	28.5
1907.57	25
1908.57	30
1909.56	28.5
1910.56	27.5
1911.55	24
1912.54	29
1913.54	24.5
1914.53	29
1915.52	28.5
1916.51	28
1917.51	23.5
1918.5	22
1919.49	28.5
1920.48	26.5
1921.48	27.5
1922.47	28
1923.46	27
1924.45	27.5
1925.44	27
1926.43	27.5
1927.43	27
1928.42	28.5
1929.41	27
1930.4	25
1931.39	29.5
1932.38	26
1933.37	27
1934.36	25.5
1935.35	25
1936.34	33
1937.33	25.5
1938.32	29
1939.31	26
1940.3	26.5
1941.29	26.5
1942.28	28
1943.26	24.5
1944.25	28.5
1945.24	26.5
1946.23	28.5
1947.22	25
1948.2	27
1949.19	24.5
1950.18	31
1951.17	27.5
1952.15	23.5
1953.14	25.25
1954.13	27
1955.12	25
1956.1	25
1957.09	30
1958.08	30.5
1959.06	27.5
1960.05	27.5
1961.03	24.5
1962.02	31.5
1963.01	24
1963.99	23
1964.98	27
1965.96	30
1966.95	29
1967.93	26
1968.92	27.5
1969.9	25
1970.89	25.5
1971.87	29.5
1972.85	27.5
1973.84	28
1974.82	24.5
1975.81	26
1976.79	25
1977.77	26
1978.76	26
1979.74	28.5
1980.72	29.5
1981.7	28.5
1982.69	26
1983.67	30.5
1984.65	27
1985.63	30
1986.62	27.5
1987.6	28.5
1988.58	26
1989.56	26.5
1990.54	30
1991.52	23
1992.51	25.5
1993.49	30
1994.47	26
1995.45	26.5
1996.43	30
1997.41	26
1998.39	27.5
1999.37	25
