#Acq. time (s)=	5
#Accumulations=	5
#Range (cm-ｹ)=	100...3500
#Windows=	4
#Autofocus=	Off
#AutoExposure=	Off
#Spike filter=	Multiple accum.
#Delay time (s)=	0
#Binning=	1
#Readout mode=	Signal
#DeNoise=	Off
#ICS correction=	Off
#Dark correction=	Off
#Inst. Process=	Off
#Instrument=	LabRAM HR Evol
#Detector=	Syncerity OE
#Objective=	x100_VIS
#Grating=	600 (500nm)
#ND Filter=	25%
#Laser=	633nm_Edge
#Hole=	100.021
#Range=	Visible
#Project=	verificaciones
#Sample=	at4
#Site=	plain
#Title=	bolusat4plain
#Remark=	com
#Date=	16.01.2026 18:03
#Acquired=	16.01.2026 18:03:06
100.564	33
101.847	26
103.131	32
104.414	29
105.697	32
106.979	30
108.262	30.5
109.544	35
110.826	30
112.109	32
113.391	28.5
114.672	28
115.954	30.5
117.235	32.5
118.515	32.5
119.796	30
121.076	33
122.357	31
123.637	33
124.916	27.5
126.196	32
127.475	31.5
128.754	32
130.033	33.5
131.31	31
132.589	32
133.867	36
135.145	31.5
136.423	34.5
137.701	37.5
138.978	32.5
140.256	37
141.533	32.5
142.809	34.5
144.086	39.5
145.361	37
146.637	44
147.913	35
149.189	40.5
150.464	38.5
151.74	40
153.014	39
154.288	39.5
155.563	40
156.838	43.5
158.112	37.5
159.385	41
160.659	40
161.932	38
163.206	41.5
164.479	38
165.751	36.5
167.024	43
168.296	38
169.567	41
170.84	35
172.112	42
173.383	38.5
174.654	34
175.925	33.5
177.196	36
178.466	40
179.737	39.5
181.007	34
182.276	40
183.546	38
184.816	38
186.085	38.5
187.354	44.5
188.624	39.5
189.891	39.5
191.16	42
192.427	40
193.696	38
194.964	40
196.231	36.5
197.499	39.5
198.765	38
200.033	39.5
201.298	35
202.566	36
203.831	36
205.098	35
206.363	34.5
207.629	38
208.894	35.5
210.159	34
211.424	34.5
212.689	31
213.953	33
215.218	37.5
216.481	36.5
217.746	34
219.009	33
220.273	34
221.536	32.5
222.798	33.5
224.062	34
225.323	37
226.587	31
227.848	29.5
229.109	27
230.372	32.5
231.633	32.5
232.894	32
234.156	30
235.416	30
236.678	27.5
237.937	32.5
239.197	29
240.457	29.5
241.717	32
242.976	33
244.235	25.5
245.495	31
246.754	26.5
248.012	28.5
249.27	29
250.529	26.5
251.787	24.5
253.045	29.5
254.302	30.5
255.56	29
256.817	29
258.074	30.5
259.33	29
260.586	26
261.844	27
263.1	28.5
264.355	29.5
265.611	28.5
266.866	31
268.121	28
269.377	29
270.632	30
271.886	27.5
273.14	28
274.394	32.5
275.648	30
276.902	36
278.155	31
279.408	29
280.663	29.5
281.915	30.5
283.168	26
284.42	26
285.673	26.5
286.925	28.5
288.176	30
289.428	29.5
290.679	30.5
291.93	26
293.181	28
294.432	29.5
295.683	28
296.933	27.5
298.183	27
299.433	27
300.683	29
301.932	28
303.182	26
304.429	25.5
305.678	29.5
306.927	25.5
308.176	24.5
309.424	25.5
310.672	26.5
311.92	24.5
313.168	26
314.415	26
315.661	24
316.908	27
318.155	28.5
319.402	26.5
320.648	28.5
321.895	28
323.139	27.5
324.385	26
325.631	33.5
326.877	25
328.122	24
329.366	27
330.611	28.5
331.855	27
333.1	30
334.343	30
335.587	29.5
336.831	28
338.074	28.5
339.317	29
340.56	30
341.803	27.5
343.044	30
344.287	25.5
345.53	24.5
346.771	31.5
348.013	28.5
349.255	28
350.495	24.5
351.736	28
352.978	25
354.217	33
355.458	28.5
356.699	29
357.938	30.5
359.178	28
360.417	29.5
361.657	25.5
362.895	27.5
364.135	28
365.374	25
366.612	29.5
367.851	28.5
369.088	27
370.327	29
371.564	29
372.802	26
374.038	30.5
375.276	30
376.512	25.5
377.749	29.5
378.985	28.5
380.222	27.5
381.457	25
382.692	31
383.929	26
385.164	26
386.4	30
387.634	28.5
388.869	26.5
390.103	27
391.337	25
392.572	28.5
393.805	24.5
395.038	25
396.273	28.5
397.506	27.5
398.74	28
399.972	28.5
401.204	27.5
402.437	34.5
403.669	29
404.901	27
406.132	24.5
407.365	27
408.596	28
409.826	24
411.058	30
412.289	27
413.519	28
414.749	25
415.98	30
417.21	26
418.439	26
419.668	24
420.897	27.5
422.128	30.5
423.356	29.5
424.585	23.5
425.813	28.5
427.041	32.5
428.269	30
429.498	29
430.725	26
431.952	24
433.179	26
434.406	24.5
435.633	31
436.859	25
438.085	34
439.312	27.5
440.537	27
441.764	27.5
442.99	26.5
444.215	26
445.44	30
446.665	24.5
447.89	32
449.114	29
450.339	26
451.563	27.5
452.787	29
454.01	27
455.234	26.5
456.457	28
457.68	28
458.903	27
460.126	28
461.348	29.5
462.569	28.5
463.792	35
465.013	29.5
466.235	31
467.457	30
468.678	32.5
469.899	32.5
471.12	37
472.341	30.5
473.56	35
474.781	38
476.001	38
477.221	37
478.441	38.5
479.66	46
480.878	44
482.098	47
483.317	57.5
484.535	55.5
485.754	55
486.971	57
488.189	59
489.407	62
490.625	60
491.842	60.5
493.059	53.5
494.276	49.5
495.493	52.5
496.709	48.5
497.926	43
499.142	44.5
500.357	44
501.573	38.5
502.789	36.5
504.003	39.5
505.219	41
506.434	30
507.648	36
508.863	38
510.078	34
511.291	36
512.505	35
513.718	30.5
514.932	34
516.145	31.5
517.358	33.5
518.572	29
519.783	31.5
520.997	27
522.208	33
523.421	30
524.632	31.5
525.844	30
527.055	28.5
528.266	29.5
529.477	30
530.688	30.5
531.898	29.5
533.109	26
534.319	32.5
535.53	28.5
536.739	32
537.948	31.5
539.158	26
540.366	27.5
541.576	26
542.784	27.5
543.994	31.5
545.201	27.5
546.409	33
547.618	28
548.825	26.5
550.032	27.5
551.24	26
552.447	28
553.654	26.5
554.861	27
556.067	29
557.273	24
558.48	30
559.686	30
560.891	29
562.096	28
563.302	28.5
564.507	29.5
565.712	26
566.916	22
568.122	30
569.326	29.5
570.529	28
571.733	29
572.936	30
574.141	26.5
575.344	28
576.547	27
577.75	27.5
578.952	26
580.154	28.5
581.358	28
582.56	29
583.761	33
584.963	27
586.164	30
587.365	28
588.566	25
589.767	27
590.967	31
592.168	27.5
593.369	31
594.569	25.5
595.769	26.5
596.969	27.5
598.168	25.5
599.367	30
600.566	27
601.765	27.5
602.964	30.5
604.162	28.5
605.361	32
606.559	29.5
607.757	28.5
608.953	27
610.151	26
611.348	27
612.545	26.5
613.742	29
614.939	25
616.135	27
617.332	29.5
618.528	28.5
619.724	29
620.918	28.5
622.114	26
623.309	29.5
624.505	31.5
625.7	24.5
626.895	31.5
628.088	30
629.282	23
630.477	31
631.671	29.5
632.865	26
634.057	27.5
635.251	28
636.444	28
637.637	27
638.829	23
640.022	27.5
641.214	27
642.407	27.5
643.598	29
644.79	29.5
645.982	26.5
647.172	28.5
648.364	28
649.555	28
650.745	26
651.936	30
653.126	31
654.315	28.5
655.506	26
656.696	31.5
657.885	30
659.074	31
660.263	29
661.452	27.5
662.64	25.5
663.829	25.5
665.018	28.5
666.205	28.5
667.394	30.5
668.581	25.5
669.769	30
670.955	27
672.143	33
673.329	28
674.517	30.5
675.703	36
676.89	29
678.075	30.5
679.262	29.5
680.447	32.5
681.632	30
682.818	32.5
684.002	35.5
685.188	34
686.372	35.5
687.556	35.5
688.741	34
689.925	34
691.11	29.5
692.293	32.5
693.476	33
694.66	31
695.843	34
697.025	34
698.209	34.5
699.391	34.5
700.573	36.5
701.756	35
702.938	41
704.119	40
705.3	41
706.483	44.5
707.664	46.5
708.844	55
710.025	45
711.206	44
712.386	42.5
713.566	39.5
714.746	37
715.925	35.5
717.106	33.5
718.285	31
719.464	29.5
720.643	32
721.822	28
723	30.5
724.178	31
725.358	29
726.536	24.5
727.713	26.5
728.891	29
730.068	28.5
731.245	27
732.422	26
733.599	27
734.775	28.5
735.952	26
737.128	28
738.304	28.5
739.48	26
740.656	27
741.831	27
743.006	27
744.181	28
745.356	25.5
746.531	29.5
747.706	32
748.88	28
750.054	25
751.228	26
752.402	27.5
753.576	24.5
754.749	23
755.922	27.5
757.095	26.5
758.267	24.5
759.44	27.5
760.612	24
761.785	25.5
762.957	27
764.129	29
765.301	29.5
766.471	28
767.642	26
768.814	27.5
769.985	25.5
771.156	29
772.325	29
773.495	24
774.666	23
775.836	27
777.005	30
778.174	28.5
779.344	27.5
780.513	29.5
781.681	27
782.85	30
784.019	28
785.187	31
786.355	32
787.523	28
788.69	27
789.858	32.5
791.026	31
792.192	30.5
793.36	32.5
794.526	30.5
795.693	25
796.86	28.5
798.025	33
799.191	31
800.356	29
801.523	33
802.689	29
803.853	32
805.019	29
806.183	28
807.348	28
808.512	29.5
809.677	26.5
810.84	30
812.005	24
813.167	29
814.332	28.5
815.494	28
816.657	30
817.82	27
818.982	28
820.146	22
821.307	25.5
822.47	27
823.632	24.5
824.793	26
825.955	27.5
827.116	28
828.277	27.5
829.439	23
830.599	27
831.759	30
832.92	23
834.08	22
835.24	29
836.4	32
837.56	28
838.719	26
839.877	31.5
841.037	28.5
842.196	29.5
843.354	26
844.512	29
845.672	29
846.83	26
847.987	29.5
849.145	26.5
850.302	29.5
851.46	30.5
852.617	27.5
853.774	28
854.93	26.5
856.087	30.5
857.243	29
858.4	29
859.556	29
860.712	26
861.867	31.5
863.022	32.5
864.177	28
865.332	28.5
866.487	27
867.642	28
868.796	28
869.95	23
871.104	28
872.258	25.5
873.412	30.5
874.565	30
875.718	29.5
876.872	23.5
878.024	28
879.177	31
880.33	31
881.482	30.5
882.635	27
883.787	29
884.938	27.5
886.09	28
887.242	23.5
888.393	26.5
889.544	25.5
890.695	24
891.845	23
892.995	25
894.146	30
895.296	31.5
896.446	27.5
897.596	23
898.744	24
899.894	26
901.043	25.5
902.193	26
903.342	26
904.489	24.5
905.638	21
906.786	24
907.935	25
909.081	27.5
910.229	28
911.377	23
912.525	25.5
913.671	21
914.818	22
915.965	26.5
917.111	25
918.258	27
919.404	25.5
920.549	25
921.695	28
922.84	28
923.986	29.5
925.132	29.5
926.276	26
927.421	28.5
928.565	25.5
929.71	27
930.855	31.5
931.998	24
933.142	25
934.285	28.5
935.429	25.5
936.572	25
937.716	24.5
938.858	24
940.001	26
941.143	28
942.286	26
943.428	30
944.57	27.5
945.712	24.5
946.854	26
947.995	28
949.135	27
950.277	25.5
951.418	25
952.559	25
953.699	21
954.839	23
955.98	28
957.119	23
958.258	24.5
959.399	28
960.538	25
961.676	29
962.816	28.5
963.955	24.5
965.093	23
966.232	28.5
967.37	24
968.508	28.5
969.645	24.5
970.784	25
971.921	25.5
973.058	24.5
974.195	26
975.333	27
976.469	23.5
977.605	31
978.741	25
979.877	25
981.013	24
982.15	26
983.285	25
984.421	22.5
985.556	24
986.691	23
987.825	26.5
988.96	29
990.094	29.5
991.228	23
992.364	24.5
993.497	25
994.631	28.5
995.765	23.5
996.898	24.5
998.031	25
999.164	24
1000.3	24
1001.43	25
1002.56	27.5
1003.69	27
1004.83	27
1005.96	25.5
1007.09	27
1008.22	26.5
1009.35	27.5
1010.48	25
1011.61	23
1012.74	24
1013.88	25.5
1015.01	24.5
1016.14	26.5
1017.27	21.5
1018.4	26.5
1019.53	28
1020.65	23.5
1021.78	22
1022.91	24.5
1024.04	26
1025.17	25
1026.3	25.5
1027.43	22.5
1028.56	23.5
1029.68	26
1030.81	26
1031.94	25
1033.07	26.5
1034.19	25
1035.32	24
1036.45	28
1037.58	27.5
1038.7	26
1039.83	23.5
1040.95	24
1042.08	28
1043.21	23.5
1044.33	25.5
1045.46	24
1046.58	28
1047.71	25
1048.83	24
1049.96	23.5
1051.08	21
1052.21	25
1053.33	25.5
1054.45	25
1055.58	27.5
1056.7	28.5
1057.82	25.5
1058.95	22
1060.07	25
1061.19	23.5
1062.32	22
1063.44	23
1064.56	25
1065.68	24.5
1066.81	24.5
1067.93	24.5
1069.05	25.5
1070.17	24
1071.29	24
1072.41	25
1073.53	26
1074.65	27.5
1075.77	24.5
1076.89	27
1078.01	26
1079.13	30.5
1080.25	23.5
1081.37	26.5
1082.49	23
1083.61	25.5
1084.73	23
1085.85	23
1086.97	26.5
1088.09	24
1089.2	22
1090.32	23.5
1091.44	22
1092.56	27
1093.68	24
1094.79	26.5
1095.91	26
1097.03	26.5
1098.14	25.5
1099.26	27
1100.38	24.5
1101.49	25
1102.61	22.5
1103.73	24
1104.84	24
1105.96	23.5
1107.07	23
1108.19	21.5
1109.3	24
1110.42	29
1111.53	23
1112.65	23.5
1113.76	24
1114.88	26
1115.99	27
1117.1	27.5
1118.22	24
1119.33	21
1120.44	25.5
1121.56	27.5
1122.67	19.5
1123.78	25
1124.89	20.5
1126.01	22
1127.12	24
1128.23	26
1129.34	27
1130.45	24.5
1131.56	27
1132.67	24
1133.79	25
1134.9	27.5
1136.01	27.5
1137.12	25.5
1138.23	27
1139.34	24
1140.45	22.5
1141.56	25.5
1142.67	22
1143.78	25
1144.89	25
1145.99	26.5
1147.1	25.5
1148.21	23.5
1149.32	25
1150.43	24.5
1151.54	24
1152.65	25.5
1153.75	24.5
1154.86	27
1155.97	24.5
1157.08	25.5
1158.18	23.5
1159.29	25.5
1160.4	22
1161.5	23.5
1162.61	29
1163.72	24.5
1164.82	27.5
1165.93	24.5
1167.03	25
1168.14	29
1169.24	26
1170.35	20
1171.45	24
1172.56	24.5
1173.66	26.5
1174.77	25
1175.87	24.5
1176.98	25
1178.08	26
1179.18	22
1180.29	22
1181.39	26
1182.49	25.5
1183.6	23.5
1184.7	23
1185.8	21.5
1186.9	24
1188	22.5
1189.11	27
1190.21	25.5
1191.31	24
1192.41	24
1193.51	21
1194.61	21.5092
1195.72	24.8835
1196.82	27.4267
1197.92	23.1424
1199.02	23.415
1200.12	25.9859
1201.22	23.5192
1202.32	24.1469
1203.42	23.3577
1204.52	24.0461
1205.62	26.2583
1206.71	23.5491
1207.81	25.6854
1208.91	25.2335
1210.01	22.1721
1211.11	23.0802
1212.21	24.3902
1213.31	24.2477
1214.4	22.8445
1215.5	20.9135
1216.6	21.7117
1217.7	23.2053
1218.79	22.6499
1219.89	25.1441
1220.99	23.6692
1222.08	23.0101
1223.18	25.7289
1224.28	25.0983
1225.37	23.2588
1226.47	27.1255
1227.56	22.3409
1228.66	23.7556
1229.76	25.7646
1230.85	23.0848
1231.95	23.3712
1233.04	24.966
1234.14	23.476
1235.23	22.1244
1236.32	24.5706
1237.42	21.2803
1238.51	23.017
1239.61	23.2247
1240.7	22.5722
1241.79	22.5453
1242.89	24.6688
1243.98	24.924
1245.07	26.6438
1246.17	23.9842
1247.26	23.0527
1248.35	24.7402
1249.44	24.8977
1250.53	25.3751
1251.63	24.0823
1252.72	24.3701
1253.81	24.4566
1254.9	23.4356
1255.99	26.4065
1257.08	22.5339
1258.17	26.3301
1259.27	26.0777
1260.36	25.5498
1261.45	25.9056
1262.54	25.3769
1263.63	25.8323
1264.72	26.3231
1265.81	26.4355
1266.89	27.0293
1267.98	23.5461
1269.07	24.1076
1270.16	22.6074
1271.25	23.5471
1272.34	21.215
1273.43	23.7943
1274.52	24.195
1275.6	23.2479
1276.69	23.6101
1277.78	24
1278.87	23.7146
1279.95	21.947
1281.04	22.0941
1282.13	24.3885
1283.22	21.1807
1284.3	24.4065
1285.39	24.7206
1286.48	23.1324
1287.56	22.2451
1288.65	22.2003
1289.73	21.2487
1290.82	24.1221
1291.9	25.2791
1292.99	26.1834
1294.07	22.4385
1295.16	23.4695
1296.24	24.6459
1297.33	23.3258
1298.41	24.1125
1299.5	24.1578
1300.58	24.2052
1301.66	21.8616
1302.75	22.6607
1303.83	22.0667
1304.91	23.8018
1306	23.9119
1306.4	23
1307.48	23.5
1308.57	26
1309.66	18
1310.75	25.5
1311.84	22.5
1312.92	24
1314.01	25
1315.1	23
1316.18	24.5
1317.27	21
1318.36	22
1319.44	24
1320.53	27
1321.62	24
1322.7	27
1323.79	24
1324.87	24
1325.96	23.5
1327.04	25
1328.13	27
1329.21	20.5
1330.3	19.5
1331.38	25
1332.47	21
1333.55	24
1334.64	22.5
1335.72	23.5
1336.8	28
1337.89	26.5
1338.97	26
1340.05	26
1341.14	21
1342.22	23.5
1343.3	26
1344.38	22
1345.47	24
1346.55	24
1347.63	25
1348.71	23
1349.79	27
1350.87	26.5
1351.96	24
1353.04	23
1354.12	24
1355.2	21.5
1356.28	22.5
1357.36	26
1358.44	29.5
1359.52	24
1360.6	20.5
1361.68	28.5
1362.76	21.5
1363.84	24
1364.92	24
1366	24
1367.07	26
1368.15	24.5
1369.23	25
1370.31	24
1371.39	27
1372.47	26.5
1373.54	25
1374.62	27
1375.7	23
1376.78	25.5
1377.85	27
1378.93	25.5
1380.01	25
1381.08	25.5
1382.16	25
1383.24	26.5
1384.31	26.5
1385.39	25
1386.46	28.5
1387.54	27
1388.61	23
1389.69	25.5
1390.76	27
1391.84	20
1392.91	22
1393.99	26
1395.06	22
1396.14	25.5
1397.21	25
1398.29	30
1399.36	27
1400.43	28
1401.51	28
1402.58	30
1403.65	24.5
1404.72	27.5
1405.8	28.5
1406.87	28.5
1407.94	29.5
1409.02	29.5
1410.09	30.5
1411.16	30
1412.23	31
1413.3	28
1414.37	36
1415.44	29
1416.51	29.5
1417.59	32.5
1418.66	28
1419.73	24.5
1420.8	23.5
1421.87	25.5
1422.94	27
1424.01	29
1425.08	26.5
1426.15	30.5
1427.22	30
1428.28	24.5
1429.35	26
1430.42	26.5
1431.49	25.5
1432.56	27
1433.63	24
1434.7	25
1435.76	24
1436.83	25.5
1437.9	25
1438.97	27.5
1440.03	27
1441.1	27.5
1442.17	23.5
1443.23	22.5
1444.3	25
1445.37	26
1446.43	24.5
1447.5	25.5
1448.57	23.5
1449.63	25
1450.7	24
1451.76	28
1452.83	24.5
1453.89	26
1454.96	25
1456.02	24.5
1457.09	27
1458.15	22.5
1459.22	26
1460.28	24
1461.34	25
1462.41	27
1463.47	23.5
1464.53	23.5
1465.6	28
1466.66	24
1467.72	25
1468.78	24
1469.85	26
1470.91	24
1471.97	28
1473.03	26
1474.1	28
1475.16	23.5
1476.22	23
1477.28	25
1478.34	26
1479.4	25
1480.46	28
1481.52	23.5
1482.58	29
1483.65	24.5
1484.71	23
1485.77	21
1486.82	24.5
1487.89	25
1488.94	23.5
1490	28
1491.06	23.5
1492.12	24.5
1493.18	25
1494.24	20.5
1495.3	22
1496.36	27.5
1497.41	21.5
1498.47	25.5
1499.53	25.5
1500.59	27.5
1501.65	29.5
1502.7	25.5
1503.76	26
1504.82	25
1505.87	21
1506.93	22
1507.99	22
1509.04	28
1510.1	24
1511.16	22
1512.21	26.5
1513.27	26.5
1514.32	24
1515.38	26
1516.43	25
1517.49	23.5
1518.54	23.5
1519.6	26.5
1520.65	26
1521.71	24
1522.76	26
1523.81	23.5
1524.87	25.5
1525.92	24.5
1526.98	26.5
1528.03	25
1529.08	26
1530.14	22.5
1531.19	24
1532.24	27.5
1533.29	27
1534.35	24.5
1535.4	25.5
1536.45	27
1537.5	25.5
1538.55	27
1539.61	21
1540.66	23
1541.71	27.5
1542.76	26.5
1543.81	23
1544.86	23
1545.91	22.5
1546.96	24.5
1548.01	25
1549.06	26.5
1550.11	25
1551.16	25.5
1552.21	26
1553.26	25.5
1554.31	25.5
1555.36	25
1556.41	25.5
1557.46	23.5
1558.5	26
1559.55	27.5
1560.6	22
1561.65	26
1562.7	28
1563.74	21.5
1564.79	24.5
1565.84	20
1566.89	23
1567.93	24
1568.98	26.5
1570.03	20.5
1571.07	24
1572.12	26.5
1573.17	24
1574.21	24
1575.26	21
1576.3	28.5
1577.35	28
1578.4	19.5
1579.44	24
1580.49	29
1581.53	24
1582.58	27
1583.62	25
1584.66	25.5
1585.71	26
1586.75	20
1587.8	24
1588.84	26
1589.88	25
1590.93	24.5
1591.97	25.5
1593.01	23
1594.06	25.5
1595.1	25.5
1596.14	24.5
1597.18	24
1598.23	26.5
1599.27	23.5
1600.31	25.5
1601.35	23.5
1602.39	24
1603.44	25
1604.48	26.5
1605.52	26.5
1606.56	24
1607.6	26
1608.64	21.5
1609.68	26.5
1610.72	24
1611.76	23
1612.8	24.5
1613.84	27
1614.88	24
1615.92	27
1616.96	24.5
1618	25
1619.04	26.5
1620.08	24
1621.12	24
1622.16	27.5
1623.19	30
1624.23	24
1625.27	26.5
1626.31	19
1627.35	26.5
1628.38	22
1629.42	27.5
1630.46	22.5
1631.49	25.5
1632.53	22
1633.57	22.5
1634.6	24.5
1635.64	27
1636.68	22
1637.71	27
1638.75	25.5
1639.79	22
1640.82	24.5
1641.86	26
1642.89	24
1643.93	24
1644.96	29
1646	26.5
1647.03	23.5
1648.07	25.5
1649.1	23
1650.13	25.5
1651.17	27
1652.2	23.5
1653.24	22.5
1654.27	24
1655.3	24.5
1656.34	24.5
1657.37	23.5
1658.4	29
1659.43	24.5
1660.47	24
1661.5	23
1662.53	25
1663.56	22.5
1664.6	25
1665.63	23.5
1666.66	26.5
1667.69	26
1668.72	25
1669.75	29.5
1670.78	28
1671.81	21.5
1672.85	26.5
1673.88	24.5
1674.91	22
1675.94	27
1676.97	24
1678	26
1679.03	20.5
1680.06	26.5
1681.09	25
1682.11	24
1683.14	22.5
1684.17	21
1685.2	24.5
1686.23	24.5
1687.26	23.5
1688.29	23.5
1689.31	24
1690.34	24
1691.37	24
1692.4	24.5
1693.42	19
1694.45	22.5
1695.48	24
1696.51	25
1697.53	23.5
1698.56	25
1699.59	26.5
1700.61	20.5
1701.64	24
1702.66	25
1703.69	23
1704.72	26.5
1705.74	24.5
1706.77	24.5
1707.79	25
1708.82	25.5
1709.84	26
1710.87	23.5
1711.89	27.5
1712.91	25
1713.94	26
1714.96	26.5
1715.99	25
1717.01	25.5
1718.03	25.5
1719.06	24
1720.08	25
1721.1	26.5
1722.13	25
1723.15	28
1724.17	25.5
1725.19	25
1726.22	24.5
1727.24	26.5
1728.26	26.5
1729.28	23.5
1730.3	24.5
1731.33	27
1732.35	23.5
1733.37	24.5
1734.39	24.5
1735.41	24
1736.43	20.5
1737.45	26.5
1738.47	21.5
1739.49	26
1740.51	26.5
1741.53	20.5
1742.55	22
1743.57	25
1744.59	26
1745.61	22
1746.63	25
1747.65	24.5
1748.67	25.5
1749.69	25.5
1750.7	29
1751.72	25
1752.74	23
1753.76	27
1754.78	25
1755.79	26
1756.81	26
1757.83	26.5
1758.85	29
1759.86	26
1760.88	24.5
1761.9	26
1762.91	24
1763.93	25.5
1764.95	24
1765.96	28.5
1766.98	25.5
1767.99	26.5
1769.01	29
1770.02	24
1771.04	24.5
1772.06	22.5
1773.07	26
1774.09	23.5
1775.1	24.5
1776.11	24
1777.13	27
1778.14	23
1779.16	27
1780.17	26
1781.18	23
1782.2	24.5
1783.21	25
1784.22	25.5
1785.24	24.5
1786.25	27
1787.26	26
1788.28	25.5
1789.29	27
1790.3	21.5
1791.31	21.5
1792.33	23
1793.34	25.5
1794.35	27
1795.36	22.5
1796.37	25.5
1797.38	23.5
1798.39	26
1799.4	25.5
1800.42	25.5
1801.43	26
1802.44	28
1803.45	22
1804.46	28
1805.47	27
1806.48	27
1807.49	26
1808.5	24
1809.51	24
1810.51	26.5
1811.52	23.5
1812.53	26
1813.54	22
1814.55	23
1815.56	24
1816.57	25
1817.57	23.5
1818.58	25.5
1819.59	27.5
1820.6	25
1821.61	23
1822.61	26.5
1823.62	26
1824.63	24
1825.63	23.5
1826.64	24
1827.65	24.5
1828.65	19
1829.66	28
1830.67	24
1831.67	22
1832.68	26
1833.68	19
1834.69	24
1835.69	26
1836.7	25.5
1837.7	21.5
1838.71	24
1839.71	24
1840.72	24
1841.72	24
1842.73	27.5
1843.73	24
1844.73	21.5
1845.74	24.5
1846.74	26.5
1847.74	25
1848.75	25
1849.75	20
1850.75	20.5
1851.76	26
1852.76	29.5
1853.76	23
1854.76	26
1855.77	27
1856.77	22.5
1857.77	27.5
1858.77	25
1859.77	26
1860.77	26.5
1861.78	24.5
1862.78	22
1863.78	25.5
1864.78	30
1865.78	23
1866.78	25
1867.78	25.5
1868.78	23.5
1869.78	24
1870.78	27
1871.78	26
1872.78	28
1873.78	24
1874.78	27
1875.78	27.5
1876.78	24
1877.78	23
1878.77	23
1879.77	24.5
1880.77	25
1881.77	26.5
1882.77	23
1883.77	28.5
1884.76	21.5
1885.76	25
1886.76	24.5
1887.75	26
1888.75	25.5
1889.75	26
1890.75	26.5
1891.74	28.5
1892.74	24.5
1893.73	26
1894.73	23
1895.73	27
1896.72	24.5
1897.72	24
1898.71	21
1899.71	24
1900.7	24
1901.7	26
1902.69	25
1903.69	25
1904.68	22
1905.68	19.5
1906.67	24
1907.67	27.5
1908.66	27.5
1909.65	24
1910.65	26
1911.64	20
1912.63	26
1913.63	28.5
1914.62	24
1915.61	24
1916.61	23
1917.6	21
1918.59	25
1919.58	23.5
1920.58	23
1921.57	26
1922.56	21.5
1923.55	26.5
1924.54	24
1925.54	24.5
1926.53	23
1927.52	23.5
1928.51	22
1929.5	22.5
1930.49	23
1931.48	19.5
1932.47	25.5
1933.46	24
1934.45	25.5
1935.44	21.5
1936.43	26
1937.42	22
1938.41	24
1939.4	22
1940.39	25
1941.38	22
1942.37	25
1943.35	22.5
1944.34	23.5
1945.33	23
1946.32	23
1947.31	23.5
1948.3	23.75
1949.28	20
1950.27	23
1951.26	21
1952.25	24.5
1953.23	27
1954.22	24.5
1955.21	29
1956.19	24.5
1957.18	23.5
1958.17	28
1959.15	23
1960.14	21
1961.12	24.5
1962.11	23.5
1963.1	25
1964.08	23
1965.07	26
1966.05	23
1967.04	24
1968.02	21
1969.01	23.5
1969.99	25.5
1970.98	27
1971.96	26.5
1972.94	26
1973.93	20
1974.91	23
1975.9	23.5
1976.88	21
1977.86	25
1978.85	25.5
1979.83	22.5
1980.81	22.5
1981.79	26
1982.78	20
1983.76	19
1984.74	20
1985.72	24.5
1986.71	21.5
1987.69	28.5
1988.67	25.5
1989.65	21
1990.63	23
1991.61	23.5
1992.59	17.5
1993.57	27.5
1994.56	28
1995.54	24
1996.52	24.5
1997.5	23
1998.48	20
1999.46	23.5
2000.44	24.5
2001.42	23
2002.4	24
2003.38	23.5
2004.36	24
2005.33	22
2006.31	24
2007.29	26
2008.27	23
2009.25	22.5
2010.23	24
2011.21	24
2012.18	26.5
2013.16	24.5
2014.14	24
2015.12	20
2016.09	28
2017.07	23
2018.05	24.5
2019.03	24.5
2020	22.5
2020.98	21
2021.96	24
2022.93	25.5
2023.91	23.5
2024.89	19
2025.86	22
2026.84	25.5
2027.81	24.5
2028.79	21
2029.76	22
2030.74	21.5
2031.71	22.5
2032.69	21.5
2033.66	25.5
2034.64	27.5
2035.61	24.5
2036.59	19.5
2037.56	25.5
2038.54	22
2039.51	24.5
2040.48	23.5
2041.46	21
2042.43	29
2043.4	22.5
2044.38	23
2045.35	22
2046.32	22.5
2047.29	22
2048.27	23.5
2049.24	25
2050.21	22
2051.18	24
2052.16	25
2053.13	24
2054.1	26.5
2055.07	24
2056.04	21
2057.01	24
2057.98	24.5
2058.96	21
2059.93	23.5
2060.9	22.5
2061.87	25
2062.84	23
2063.81	25
2064.78	27
2065.75	21.5
2066.72	19.5
2067.69	21
2068.66	24.5
2069.63	22
2070.6	22
2071.56	20
2072.53	25.5
2073.5	25.5
2074.47	22.5
2075.44	26
2076.41	21.5
2077.38	24.5
2078.34	24
2079.31	23.5
2080.28	23
2081.25	24.5
2082.21	23
2083.18	21.5
2084.15	25
2085.11	24
2086.08	20.5
2087.05	24.5
2088.01	20.5
2088.98	22
2089.95	23.5
2090.91	25.5
2091.88	22
2092.84	20
2093.81	22.5
2094.78	22.5
2095.74	21.5
2096.71	27
2097.67	21
2098.64	25
2099.6	23.5
2100.57	21.5
2101.53	22
2102.49	23
2103.46	24
2104.42	21.5
2105.39	23.5
2106.35	21
2107.31	20.5
2108.28	23.5
2109.24	22
2110.2	24
2111.17	23
2112.13	21
2113.09	24
2114.05	22
2115.02	24.5
2115.98	23
2116.94	25
2117.9	23
2118.86	26
2119.83	29
2120.79	25
2121.75	21.5
2122.71	26
2123.67	22.5
2124.63	23.5
2125.59	27
2126.55	22.5
2127.51	23.5
2128.47	28.5
2129.43	23
2130.39	22.5
2131.35	25.5
2132.31	24.5
2133.27	25
2134.23	24.5
2135.19	24.5
2136.15	26.5
2137.11	23
2138.07	21.5
2139.03	22
2139.99	24
2140.94	25.5
2141.9	24
2142.86	21.9859
2143.82	22.4706
2144.78	23.5312
2145.73	25.4791
2146.69	24.3271
2147.65	23.9419
2148.61	22.473
2149.56	23.7148
2150.52	18.2129
2151.48	24.6239
2152.43	20.9873
2153.39	23.8721
2154.35	25.9368
2155.3	23.6336
2156.26	22.0057
2157.21	22.9266
2158.17	23.5538
2159.13	22.8535
2160.08	22.8798
2161.04	25.1979
2161.99	22.3981
2162.95	23.5944
2163.9	22.7479
2164.86	23.0023
2165.81	21.1763
2166.77	25.2709
2167.72	24.3141
2168.67	22.1983
2169.63	20.6767
2170.58	22.8047
2171.54	22.9225
2172.49	19.0016
2173.44	22.2556
2174.4	23.331
2175.35	24.1328
2176.3	23.6471
2177.26	23.638
2178.21	19.8184
2179.16	24.9739
2180.11	23.0404
2181.07	22.8206
2182.02	22.8858
2182.97	20.3143
2183.92	23.0707
2184.87	26.1129
2185.82	23.3892
2186.78	21.3784
2187.73	22.7367
2188.68	23.9394
2189.63	21.9778
2190.58	24.903
2191.53	21.3067
2192.48	22.5571
2193.43	23.3968
2194.38	22.0463
2195.33	22.682
2196.28	21.9199
2197.23	23.6871
2198.18	22.3609
2199.13	23.4284
2200.08	23.4113
2201.03	20.7921
2201.98	21.983
2202.93	23.9127
2203.88	23.7919
2204.83	24.5687
2205.77	23.1134
2206.72	19.0976
2207.67	22.185
2208.62	24.1101
2209.57	22.8938
2210.52	22.1807
2211.46	19.2593
2212.41	23.9232
2213.36	20.7682
2214.31	24.3743
2215.25	22.6462
2216.2	21.5521
2217.15	23.7952
2218.09	22.9296
2219.04	23.9194
2219.99	23.5817
2220.93	23.4592
2221.88	22.6844
2222.82	20.8306
2223.77	25.0154
2224.72	25.0547
2225.66	22.6379
2226.61	23.3618
2227.55	21.1422
2228.5	23.2678
2229.44	23.4211
2230.39	24.6969
2231.33	22.0578
2232.28	22.6113
2233.22	24.2913
2234.16	25.7466
2235.11	23.362
2236.05	22.3344
2237	22.8359
2237.94	23.0485
2238.88	21.5645
2239.83	23.3574
2240.13	24.5
2241.08	20.5
2242.03	22.5
2242.98	26
2243.92	24.5
2244.87	22
2245.82	23
2246.76	24
2247.71	20
2248.66	26
2249.61	20
2250.55	21
2251.5	23.5
2252.45	23
2253.39	24
2254.34	21
2255.28	23
2256.23	21.5
2257.18	24
2258.12	23
2259.07	21.5
2260.01	22
2260.96	23.5
2261.9	23.5
2262.85	23
2263.79	27.5
2264.74	23
2265.68	21
2266.63	22.5
2267.57	23.5
2268.51	24.5
2269.46	24
2270.4	24
2271.35	27
2272.29	25
2273.23	22
2274.18	23
2275.12	17.5
2276.06	20.5
2277	22.5
2277.95	21.5
2278.89	20.5
2279.83	26
2280.78	24
2281.72	24.5
2282.66	20.5
2283.6	22
2284.54	19
2285.48	24
2286.43	23
2287.37	23
2288.31	20
2289.25	22.5
2290.19	21
2291.13	21.5
2292.07	23.5
2293.01	24.5
2293.95	20.5
2294.89	23.5
2295.83	17.5
2296.77	21
2297.71	22.5
2298.65	23
2299.59	21
2300.53	22.5
2301.47	23
2302.41	25.5
2303.35	22
2304.29	23
2305.22	23
2306.16	20.5
2307.1	22.5
2308.04	23
2308.98	22
2309.91	24
2310.85	24
2311.79	22.5
2312.73	24.5
2313.66	26
2314.6	24
2315.54	22
2316.48	23.5
2317.41	22.5
2318.35	28
2319.29	24.5
2320.22	25.5
2321.16	24
2322.09	27
2323.03	25.5
2323.97	27
2324.9	21
2325.84	26.5
2326.77	21
2327.71	20.5
2328.64	22
2329.58	21
2330.51	19.5
2331.45	25.5
2332.38	23
2333.32	26
2334.25	25.5
2335.18	26.5
2336.12	23
2337.05	26
2337.99	23
2338.92	25
2339.85	24
2340.79	25.5
2341.72	22
2342.65	24
2343.59	26.5
2344.52	22
2345.45	23
2346.38	22
2347.32	23.5
2348.25	23
2349.18	23
2350.11	21
2351.04	24
2351.98	23
2352.91	24.5
2353.84	24
2354.77	19.5
2355.7	24
2356.63	21
2357.56	22
2358.49	23
2359.42	21.5
2360.35	23
2361.28	23.5
2362.21	26
2363.14	23
2364.07	22
2365	21
2365.93	24.5
2366.86	25.5
2367.79	20.5
2368.72	22.5
2369.65	24
2370.58	23.5
2371.51	22
2372.44	24.5
2373.36	25.5
2374.29	20.5
2375.22	22
2376.15	21
2377.08	24.5
2378	21
2378.93	24
2379.86	24
2380.79	24.5
2381.71	21
2382.64	21.5
2383.57	24.5
2384.49	23.5
2385.42	25.5
2386.35	23
2387.27	24.5
2388.2	22
2389.13	26
2390.05	26
2390.98	26
2391.9	28
2392.83	20.5
2393.76	21.5
2394.68	22.5
2395.61	21
2396.53	23
2397.46	25
2398.38	21
2399.3	24.5
2400.23	25.5
2401.15	20
2402.08	24
2403	24
2403.93	27.5
2404.85	22
2405.77	23
2406.7	22
2407.62	22
2408.54	26
2409.47	22.5
2410.39	21
2411.31	21
2412.24	24
2413.16	21
2414.08	25.5
2415	25
2415.92	21
2416.85	23
2417.77	23
2418.69	20.5
2419.61	25
2420.53	23
2421.45	24
2422.38	24
2423.3	25.5
2424.22	26.5
2425.14	21
2426.06	20
2426.98	24
2427.9	22.5
2428.82	27.5
2429.74	26
2430.66	27
2431.58	26.5
2432.5	19.5
2433.42	22
2434.34	23
2435.26	25
2436.18	26.5
2437.1	25
2438.01	25
2438.93	27.5
2439.85	26
2440.77	31
2441.69	21
2442.61	23.5
2443.52	23
2444.44	25.5
2445.36	24
2446.28	21
2447.2	27
2448.11	26
2449.03	26.5
2449.95	21
2450.86	26
2451.78	26
2452.7	25
2453.61	22
2454.53	23.5
2455.45	26
2456.36	21
2457.28	21.5
2458.2	24.5
2459.11	21
2460.03	23.5
2460.94	25.5
2461.86	22
2462.77	21
2463.69	25.5
2464.6	20
2465.52	25.5
2466.43	24
2467.35	23
2468.26	24
2469.18	23.5
2470.09	27
2471	24.5
2471.92	22
2472.83	26.5
2473.74	22.5
2474.66	23.5
2475.57	24
2476.48	23
2477.4	24
2478.31	20
2479.22	24.5
2480.14	25.5
2481.05	23.5
2481.96	25
2482.87	24.5
2483.79	24.5
2484.7	25.5
2485.61	22
2486.52	25.5
2487.43	23
2488.34	27.5
2489.25	25.5
2490.17	23
2491.08	23
2491.99	26.5
2492.9	21.5
2493.81	22
2494.72	28.5
2495.63	29
2496.54	24
2497.45	24
2498.36	22
2499.27	28.5
2500.18	26
2501.09	26.5
2502	26
2502.91	25
2503.82	23
2504.73	24.5
2505.63	24
2506.54	25.5
2507.45	23.5
2508.36	19
2509.27	26.5
2510.18	24.5
2511.09	26.5
2511.99	25
2512.9	23.5
2513.81	24
2514.72	25
2515.62	26
2516.53	21.5
2517.44	24
2518.34	23.5
2519.25	24
2520.16	24.5
2521.06	26
2521.97	25
2522.88	26.5
2523.78	26
2524.69	27.5
2525.6	23.5
2526.5	23.5
2527.41	24
2528.31	23.5
2529.22	27.5
2530.12	24.5
2531.03	27
2531.93	22.5
2532.84	26
2533.74	19.5
2534.65	25
2535.55	25.5
2536.46	26.5
2537.36	23
2538.27	22
2539.17	25
2540.07	25
2540.98	24.5
2541.88	22.5
2542.78	24.5
2543.69	26.5
2544.59	23.5
2545.49	22.5
2546.4	22
2547.3	25.5
2548.2	23
2549.1	24.5
2550.01	21
2550.91	26.5
2551.81	25.5
2552.71	24.5
2553.61	25
2554.52	22.5
2555.42	25
2556.32	25
2557.22	20.5
2558.12	27
2559.02	25
2559.92	24
2560.82	25.5
2561.72	26
2562.62	24
2563.53	23.5
2564.43	24
2565.33	24.5
2566.23	22
2567.13	25
2568.03	24
2568.92	22
2569.82	26
2570.72	25
2571.62	27
2572.52	25.5
2573.42	24
2574.32	23.5
2575.22	25.5
2576.12	23.5
2577.02	25.5
2577.91	26
2578.81	25.5
2579.71	28
2580.61	28.5
2581.5	25.5
2582.4	23.5
2583.3	24.5
2584.2	21
2585.09	25.5
2585.99	23
2586.89	24
2587.78	23.5
2588.68	24
2589.58	18
2590.47	24.5
2591.37	26
2592.27	24
2593.16	24.5
2594.06	25
2594.95	24
2595.85	27
2596.75	23
2597.64	26
2598.54	24.5
2599.43	28.5
2600.33	24
2601.22	25
2602.12	25
2603.01	27.5
2603.9	25
2604.8	24.5
2605.69	26
2606.59	20.5
2607.48	27.5
2608.37	23
2609.27	21.5
2610.16	21.5
2611.05	21.5
2611.95	23.5
2612.84	22
2613.73	24
2614.63	24
2615.52	22.5
2616.41	25
2617.3	26
2618.2	27.5
2619.09	22.5
2619.98	24
2620.87	22.5
2621.76	26
2622.66	24
2623.55	22
2624.44	25.5
2625.33	26
2626.22	27
2627.11	20
2628	24
2628.9	21.5
2629.79	26
2630.68	25
2631.57	22
2632.46	23.5
2633.35	23
2634.24	26
2635.13	27.5
2636.02	26.5
2636.91	26
2637.8	24
2638.68	23.5
2639.57	24
2640.46	27.5
2641.35	23.5
2642.24	25
2643.13	24.5
2644.02	20
2644.91	26.5
2645.79	21
2646.68	25
2647.57	23.5
2648.46	22.5
2649.35	26
2650.23	25
2651.12	25.5
2652.01	24
2652.9	23.5
2653.78	24
2654.67	25
2655.56	21.5
2656.44	25.5
2657.33	24
2658.22	24.5
2659.1	25
2659.99	24
2660.88	23
2661.76	24.5
2662.65	23
2663.53	27
2664.42	20.5
2665.3	25.5
2666.19	20
2667.07	23
2667.96	25.5
2668.84	27.5
2669.73	22
2670.61	23.5
2671.5	26
2672.38	26
2673.27	23
2674.15	24.5
2675.04	27.5
2675.92	27
2676.8	22.5
2677.69	24
2678.57	26.5
2679.45	21.5
2680.34	24.5
2681.22	24.5
2682.1	20
2682.99	27.5
2683.87	25.5
2684.75	22.5
2685.63	22.5
2686.52	28.5
2687.4	24
2688.28	22.5
2689.16	22.5
2690.04	18.5
2690.93	23
2691.81	22
2692.69	19.5
2693.57	27.5
2694.45	25
2695.33	24.5
2696.21	27
2697.09	25
2697.97	22
2698.85	22.5
2699.74	22.5
2700.62	24
2701.5	22.5
2702.38	25.5
2703.26	25.5
2704.14	21
2705.02	26
2705.89	24
2706.77	25.5
2707.65	22.5
2708.53	26
2709.41	26
2710.29	21
2711.17	28.5
2712.05	25
2712.93	19
2713.8	22
2714.68	21
2715.56	18.5
2716.44	25
2717.32	24.5
2718.19	26.5
2719.07	26
2719.95	24
2720.83	24.5
2721.7	27.5
2722.58	21
2723.46	27
2724.33	22
2725.21	21
2726.09	22
2726.97	24.5
2727.84	26.5
2728.72	23
2729.59	18
2730.47	26
2731.35	24.5
2732.22	24.5
2733.1	24
2733.97	24.5
2734.85	24
2735.72	23
2736.6	24
2737.47	22.5
2738.35	24.5
2739.22	22
2740.1	24.5
2740.97	23
2741.84	21
2742.72	21.5
2743.59	26.5
2744.47	22.5
2745.34	18
2746.21	24
2747.09	25
2747.96	23
2748.83	22.5
2749.71	23.5
2750.58	24.5
2751.45	22.5
2752.33	24
2753.2	29.5
2754.07	23.5
2754.94	27
2755.82	26
2756.69	24.5
2757.56	27
2758.43	26
2759.3	22.5
2760.18	24
2761.05	27.5
2761.92	25
2762.79	23.5
2763.66	24
2764.53	27
2765.4	26.5
2766.27	27.5
2767.14	22.5
2768.01	25
2768.88	24
2769.75	26.5
2770.62	24.5
2771.49	21.5
2772.36	24
2773.23	26.5
2774.1	29.5
2774.97	27
2775.84	24.5
2776.71	25.5
2777.58	25
2778.45	24.5
2779.32	30
2780.19	22.5
2781.06	27
2781.92	23
2782.79	26
2783.66	22
2784.53	23.5
2785.4	26
2786.26	25
2787.13	26.5
2788	23.5
2788.87	25.5
2789.73	25
2790.6	26.5
2791.47	25
2792.34	28.5
2793.2	23
2794.07	27.5
2794.94	26
2795.8	27
2796.67	26
2797.53	26
2798.4	25
2799.27	27.5
2800.13	23
2801	25.5
2801.86	25.5
2802.73	24.5
2803.59	24.5
2804.46	26.5
2805.32	25.5
2806.19	27.5
2807.05	22
2807.92	22.5
2808.78	26.5
2809.65	29
2810.51	27.5
2811.38	27.5
2812.24	28
2813.1	26
2813.97	27
2814.83	25
2815.7	24.5
2816.56	24.5
2817.42	24
2818.29	26
2819.15	27.5
2820.01	25.5
2820.87	25.5
2821.74	28.5
2822.6	21
2823.46	26.5
2824.32	26
2825.19	29.5
2826.05	27
2826.91	25
2827.77	22
2828.63	28
2829.5	31
2830.36	25.5
2831.22	26.5
2832.08	28.5
2832.94	25
2833.8	23
2834.66	27
2835.52	26.5
2836.38	24
2837.24	28
2838.1	23.5
2838.96	27.5
2839.82	26
2840.68	29
2841.54	26
2842.4	26
2843.26	26.5
2844.12	25
2844.98	25
2845.84	24.5
2846.7	24.5
2847.56	22
2848.42	22
2849.28	26
2850.14	24.5
2850.99	26.5
2851.85	21
2852.71	26
2853.57	22.5
2854.43	25
2855.28	22
2856.14	28
2857	28.5
2857.86	26
2858.71	26
2859.57	27
2860.43	24.5
2861.28	24
2862.14	27
2863	29.5
2863.86	24
2864.71	24
2865.57	26
2866.42	28.5
2867.28	26.5
2868.14	28
2868.99	25
2869.85	28.5
2870.7	26.5
2871.56	28
2872.41	31
2873.27	27.5
2874.13	31
2874.98	26
2875.83	29
2876.69	30
2877.54	31
2878.4	30.5
2879.25	28
2880.11	32
2880.96	33
2881.81	32
2882.67	27
2883.52	31
2884.38	33
2885.23	33.5
2886.08	32
2886.94	34.5
2887.79	34.5
2888.64	29.5
2889.5	36
2890.35	40
2891.2	35
2892.05	44.5
2892.91	45
2893.76	41.5
2894.61	40
2895.46	46
2896.31	48
2897.17	54
2898.02	50
2898.87	47
2899.72	56.5
2900.57	60.5
2901.42	57.5
2902.27	59
2903.12	66.5
2903.98	64.5
2904.83	68.5
2905.68	72.5
2906.53	64
2907.38	69
2908.23	63
2909.08	62.5
2909.93	63.5
2910.78	61
2911.63	58.5
2912.48	49
2913.33	48.5
2914.18	53.5
2915.02	45.5
2915.87	44.5
2916.72	42
2917.57	42
2918.42	37.5
2919.27	37
2920.12	36
2920.97	33
2921.81	34
2922.66	35.5
2923.51	32
2924.36	32.5
2925.21	28
2926.05	29.5
2926.9	31
2927.75	28.5
2928.59	29
2929.44	30
2930.29	30.5
2931.14	27
2931.98	25
2932.83	26
2933.68	27
2934.52	25
2935.37	28
2936.21	30.5
2937.06	30
2937.91	30
2938.75	27
2939.6	24
2940.44	28
2941.29	28
2942.14	29
2942.98	29
2943.82	28.5
2944.67	30
2945.51	31
2946.36	23.5
2947.2	25
2948.05	34.5
2948.89	29
2949.74	29.5
2950.58	32.5
2951.43	33.5
2952.27	26
2953.11	23.5
2953.96	28.5
2954.8	33
2955.64	32.5
2956.49	37.5
2957.33	33
2958.17	36.5
2959.02	40
2959.86	41
2960.7	41
2961.54	40
2962.39	36.5
2963.23	43
2964.07	44.5
2964.91	45
2965.75	42
2966.6	39.5
2967.44	42
2968.28	38
2969.12	39.5
2969.96	37
2970.8	39.5
2971.64	35.9782
2972.48	38.4399
2973.33	34.4422
2974.17	36.0249
2975.01	30.3264
2975.85	32.4918
2976.69	33.2877
2977.53	34.6697
2978.37	31.1489
2979.21	30.2655
2980.05	29.1568
2980.89	28.0293
2981.73	24.8192
2982.57	27.548
2983.41	27.2495
2984.25	28.6064
2985.08	27.7573
2985.92	24.8194
2986.76	26.6951
2987.6	25.9871
2988.44	25.3175
2989.28	29.0419
2990.12	26.4112
2990.96	25.9313
2991.79	27.9812
2992.63	25.9326
2993.47	23.0155
2994.31	21.4997
2995.14	25.7597
2995.98	23.849
2996.82	24.8891
2997.66	23.826
2998.49	23.037
2999.33	26.2246
3000.17	24.5927
3001	23.7318
3001.84	21.6424
3002.68	21.1424
3003.51	21.708
3004.35	20.4467
3005.19	24.4102
3006.02	24.5414
3006.86	24.6672
3007.7	21.9121
3008.53	20.7789
3009.37	22.7209
3010.2	24.5842
3011.04	23.3465
3011.87	24.6467
3012.71	23.2448
3013.54	24.3167
3014.38	21.8469
3015.21	23.4797
3016.05	23.2546
3016.88	24.3696
3017.72	24.7758
3018.55	22.0136
3019.39	22.3881
3020.22	23.0041
3021.05	22.7435
3021.89	24.7063
3022.72	23.9389
3023.55	21.9008
3024.39	22.5433
3025.22	22.0573
3026.05	22.7909
3026.89	22.0295
3027.72	22.7684
3028.55	22.4574
3029.39	22.9164
3030.22	23.0962
3031.05	21.6224
3031.88	20.5188
3032.72	23.8012
3033.55	24.2411
3034.38	22.1226
3035.21	20.301
3036.04	20.2825
3036.88	22.5294
3037.71	22.0944
3038.54	23.0837
3039.37	23.8706
3040.2	23.1661
3041.03	22.7623
3041.86	23.5087
3042.69	24.2236
3043.52	23.1423
3044.36	22.4222
3045.19	23.3521
3046.02	24.4373
3046.85	24.2021
3047.68	23.1116
3048.51	23.3269
3049.34	23.1171
3050.17	23.2293
3051	24.8394
3051.83	23.2269
3052.66	22.2117
3053.48	21.7963
3054.31	24.1528
3055.14	25.9482
3055.97	22.4042
3056.8	20.7282
3057.29	22.5
3058.12	23.5
3058.95	27.5
3059.79	26.5
3060.62	25
3061.45	23.5
3062.29	20.5
3063.12	21.5
3063.95	24.5
3064.78	25
3065.62	24.5
3066.45	22
3067.28	22
3068.11	21.5
3068.94	24
3069.77	24
3070.61	18
3071.44	21.5
3072.27	22.5
3073.1	26
3073.93	26.5
3074.76	23.5
3075.59	22.5
3076.42	22.5
3077.25	24
3078.08	20
3078.92	20.5
3079.74	25.5
3080.57	21.5
3081.41	26.5
3082.24	25
3083.06	22.5
3083.89	25
3084.72	25
3085.55	22
3086.38	24
3087.21	25.5
3088.04	22.5
3088.87	19
3089.7	26.5
3090.53	26
3091.36	26
3092.18	22
3093.01	23.5
3093.84	22.5
3094.67	22.5
3095.5	20.5
3096.32	19.5
3097.15	22.5
3097.98	22
3098.81	22
3099.64	23.5
3100.46	20.5
3101.29	25.5
3102.12	22
3102.94	21
3103.77	21.5
3104.6	27
3105.42	21.5
3106.25	21
3107.08	21.5
3107.9	20.5
3108.73	24.5
3109.56	21
3110.38	22
3111.21	26
3112.03	23.5
3112.86	24
3113.68	24
3114.51	28
3115.33	21
3116.16	26.5
3116.98	21.5
3117.81	23
3118.63	24
3119.46	22
3120.28	26
3121.11	22.5
3121.93	25
3122.76	20.5
3123.58	23
3124.4	21.5
3125.23	20
3126.05	25.5
3126.87	22.5
3127.7	23
3128.52	27
3129.34	28
3130.17	24
3130.99	21.5
3131.81	25
3132.64	23
3133.46	23.5
3134.28	22.5
3135.1	22
3135.93	20.5
3136.75	22
3137.57	21.5
3138.39	24.5
3139.21	27.5
3140.04	25
3140.86	21.5
3141.68	20.5
3142.5	19
3143.32	22.5
3144.14	22
3144.96	25
3145.78	24
3146.61	25
3147.43	25.5
3148.25	23.5
3149.07	26
3149.89	22
3150.71	22.5
3151.53	21.5
3152.35	22
3153.17	21
3153.99	23
3154.81	23
3155.63	24
3156.45	23
3157.27	24.5
3158.08	19
3158.9	23.5
3159.72	24.5
3160.54	23.5
3161.36	23.5
3162.18	25
3163	25
3163.82	22.5
3164.63	20.5
3165.45	24
3166.27	27
3167.09	27
3167.91	23
3168.72	23.5
3169.54	21.5
3170.36	23.5
3171.18	25.5
3171.99	25.5
3172.81	27
3173.63	22.5
3174.44	25
3175.26	21
3176.08	22.5
3176.89	23.5
3177.71	23
3178.53	27.5
3179.34	23.5
3180.16	23
3180.97	22
3181.79	20.5
3182.61	23.5
3183.42	20
3184.24	22.5
3185.05	25
3185.87	23
3186.68	21
3187.5	21.5
3188.31	24
3189.13	21.5
3189.94	21.5
3190.76	27
3191.57	20
3192.39	23
3193.2	23
3194.02	24
3194.83	25.5
3195.64	22
3196.46	24.5
3197.27	19.5
3198.08	23
3198.9	24
3199.71	24
3200.52	21.5
3201.34	24.5
3202.15	21
3202.96	23
3203.78	19.5
3204.59	21
3205.4	23
3206.21	23
3207.03	25.5
3207.84	23.5
3208.65	26
3209.46	23
3210.27	19
3211.09	25
3211.9	25.5
3212.71	27
3213.52	23.5
3214.33	26
3215.14	23.5
3215.95	18.5
3216.77	26
3217.58	23
3218.39	23
3219.2	23.5
3220.01	21.5
3220.82	26.5
3221.63	20.5
3222.44	22.5
3223.25	26
3224.06	25
3224.87	21
3225.68	28.5
3226.49	23
3227.3	22
3228.11	24.5
3228.92	24
3229.73	28
3230.53	26.5
3231.34	24
3232.15	21
3232.96	28
3233.77	28
3234.58	22
3235.39	23.5
3236.19	25
3237	27
3237.81	28
3238.62	22
3239.43	24
3240.23	27.5
3241.04	22.5
3241.85	22.5
3242.66	21.5
3243.46	27
3244.27	29
3245.08	21
3245.89	24
3246.69	24.5
3247.5	27
3248.31	21
3249.11	25
3249.92	23.5
3250.72	20
3251.53	25.5
3252.34	24.5
3253.14	23
3253.95	23
3254.75	24.5
3255.56	23.5
3256.36	24
3257.17	21.5
3257.98	25.5
3258.78	25
3259.59	26
3260.39	24
3261.19	25
3262	27.5
3262.8	22
3263.61	20.5
3264.41	24
3265.22	23
3266.02	23
3266.83	22
3267.63	25
3268.43	26
3269.24	19
3270.04	23.5
3270.84	20.5
3271.65	21
3272.45	25
3273.25	20
3274.06	24
3274.86	24
3275.66	21.5
3276.46	23
3277.27	25
3278.07	21
3278.87	25
3279.67	25.5
3280.48	23
3281.28	21.5
3282.08	19
3282.88	25.5
3283.68	24
3284.48	23.5
3285.29	23
3286.09	26.5
3286.89	26.5
3287.69	23
3288.49	20.5
3289.29	22
3290.09	26
3290.89	22
3291.69	24
3292.49	25
3293.29	23
3294.09	25
3294.89	25.5
3295.69	24
3296.49	23
3297.29	21
3298.09	23
3298.89	26
3299.69	23.5
3300.49	26
3301.29	21
3302.09	22
3302.89	23.5
3303.69	24.5
3304.49	26
3305.28	24.5
3306.08	27
3306.88	24.5
3307.68	22
3308.48	21
3309.28	22
3310.07	26
3310.87	23
3311.67	26
3312.47	23.5
3313.26	20.5
3314.06	25.5
3314.86	19.5
3315.66	24
3316.45	26.5
3317.25	23
3318.05	21
3318.84	24
3319.64	19
3320.44	28.5
3321.23	24
3322.03	24
3322.83	25
3323.62	23.5
3324.42	23
3325.21	23
3326.01	23
3326.81	26
3327.6	23.5
3328.4	23
3329.19	23.5
3329.99	25
3330.78	22.5
3331.58	21.5
3332.37	26
3333.17	29.5
3333.96	22.5
3334.76	22.5
3335.55	22.5
3336.34	17.5
3337.14	23
3337.93	22.5
3338.73	25.5
3339.52	25.5
3340.31	23
3341.11	22
3341.9	21
3342.69	22
3343.49	25
3344.28	19.5
3345.07	25.5
3345.87	25
3346.66	21.5
3347.45	25
3348.25	20.5
3349.04	25
3349.83	23
3350.62	23.5
3351.42	23.5
3352.21	23
3353	26.5
3353.79	23.5
3354.58	22.5
3355.37	24.5
3356.17	27
3356.96	27.5
3357.75	23
3358.54	25
3359.33	24.5
3360.12	25
3360.91	21.5
3361.7	27
3362.49	21
3363.29	26
3364.08	22.5
3364.87	27.5
3365.66	22
3366.45	27
3367.24	23
3368.03	25
3368.82	19
3369.61	26
3370.4	23
3371.19	26.5
3371.97	25
3372.76	22
3373.55	23.5
3374.34	22
3375.13	25
3375.92	24
3376.71	24
3377.5	22.5
3378.29	21.5
3379.07	26
3379.86	25.5
3380.65	24.5
3381.44	27
3382.23	22.5
3383.01	25
3383.8	23
3384.59	23
3385.38	23
3386.16	25.5
3386.95	26
3387.74	29
3388.53	27
3389.31	26
3390.1	21.5
3390.89	23.5
3391.67	27
3392.46	22
3393.25	23
3394.03	24.5
3394.82	25
3395.6	25
3396.39	22.5
3397.18	20.5
3397.96	23
3398.75	23.5
3399.53	23.5
3400.32	26.5
3401.1	20
3401.89	21
3402.67	25
3403.46	22.5
3404.24	24
3405.03	22.5
3405.81	21
3406.6	27
3407.38	24.5
3408.17	23.5
3408.95	23
3409.74	22
3410.52	28.5
3411.3	24
3412.09	27
3412.87	24
3413.65	26
3414.44	22.5
3415.22	23.5
3416	24
3416.79	26.5
3417.57	23.5
3418.35	26.5
3419.14	23.5
3419.92	26
3420.7	22.5
3421.48	23.5
3422.27	23.5
3423.05	20.5
3423.83	22.5
3424.61	24.5
3425.4	26.5
3426.18	27
3426.96	26
3427.74	21
3428.52	23
3429.3	25
3430.08	24
3430.87	22
3431.65	24.5
3432.43	24.5
3433.21	21
3433.99	24
3434.77	21.5
3435.55	25.5
3436.33	25
3437.11	20
3437.89	21
3438.67	24
3439.45	23.5
3440.23	25.5
3441.01	22.5
3441.79	23
3442.57	27.5
3443.35	26.5
3444.13	26
3444.91	28.5
3445.69	27
3446.47	22
3447.25	22
3448.03	23
3448.8	21
3449.58	26
3450.36	25.5
3451.14	22
3451.92	22
3452.7	21.5
3453.47	23.5
3454.25	21.5
3455.03	24
3455.81	27.5
3456.59	24
3457.36	24
3458.14	22.5
3458.92	22
3459.69	23
3460.47	21
3461.25	20.5
3462.03	21.5
3462.8	21
3463.58	26.5
3464.36	24
3465.13	22
3465.91	22
3466.69	23
3467.46	22.5
3468.24	26
3469.01	26
3469.79	23
3470.57	24.5
3471.34	20
3472.12	24.5
3472.89	24.5
3473.67	20
3474.44	19
3475.22	24.5
3475.99	25
3476.77	21.5
3477.54	23
3478.32	25
3479.09	26
3479.87	25
3480.64	23.5
3481.41	27
3482.19	21.5
3482.96	21
3483.74	21
3484.51	19
3485.28	27.5
3486.06	24
3486.83	23
3487.6	22.5
3488.38	24.5
3489.15	23
3489.92	25
3490.7	22.5
3491.47	31
3492.24	21
3493.01	25
3493.79	22
3494.56	24.5
3495.33	23.5
3496.1	26.5
3496.88	23
3497.65	24.5
3498.42	26
3499.19	24.5
3499.96	20.5
