#Acq. time (s)=	5
#Accumulations=	5
#Range (cm-¹)=	100...3500
#Windows=	4
#Autofocus=	Off
#AutoExposure=	Off
#Spike filter=	Multiple accum.
#Delay time (s)=	0
#Binning=	1
#Readout mode=	Signal
#DeNoise=	Off
#ICS correction=	Off
#Dark correction=	Off
#Inst. Process=	Off
#Instrument=	LabRAM HR Evol
#Detector=	Syncerity OE
#Objective=	x100_VIS
#Grating=	600 (500nm)
#ND Filter=	25%
#Laser=	633nm_Edge
#Hole=	100.021
#Range=	Visible
#Project=	verificaciones
#Sample=	at4
#Site=	lined
#Title=	bolusat4lined
#Remark=	
#Date=	14.01.2026 14:22
#Acquired=	14.01.2026 14:22:30
100.618	28
101.901	33
103.185	36
104.468	30
105.751	30.5
107.033	32
108.316	29
109.598	29.5
110.88	34
112.162	37.5
113.445	31.5
114.727	31
116.008	30
117.289	33.5
118.57	34
119.85	29
121.13	31.5
122.411	30
123.691	37
124.97	32
126.25	37.5
127.529	31.5
128.808	38
130.086	30
131.364	34.5
132.643	36
133.921	35.5
135.199	35.5
136.477	40.5
137.755	37.5
139.032	40
140.309	40.5
141.586	40.5
142.863	33.5
144.14	39
145.415	36.5
146.691	33
147.967	42
149.243	38
150.518	43
151.794	43
153.067	42
154.342	44.5
155.617	45.5
156.892	44
158.166	38.5
159.439	43.5
160.712	39.5
161.986	41
163.26	45
164.531	39
165.805	40.5
167.077	41
168.35	42
169.621	38
170.893	40.5
172.165	39.5
173.437	42.5
174.707	42
175.979	39.5
177.25	41.5
178.519	44
179.79	39.5
181.061	40.5
182.33	41.5
183.6	44
184.87	40
186.138	43.5
187.408	45.5
188.676	42
189.945	37.5
191.214	45
192.481	40.5
193.75	43.5
195.016	37
196.285	39
197.552	39
198.819	41.5
200.086	44.5
201.352	42
202.619	40
203.884	37
205.151	40
206.416	39.5
207.682	39
208.947	34.5
210.213	34
211.477	39.5
212.742	32
214.006	39.5
215.271	37
216.535	38
217.799	38
219.062	35.5
220.326	40
221.589	36.5
222.851	34.5
224.115	33.5
225.377	39.5
226.64	37
227.901	31
229.163	33.5
230.425	34.5
231.686	33
232.947	33
234.209	33.5
235.469	34
236.729	37
237.991	34
239.25	34
240.51	35.5
241.771	31.5
243.03	33
244.288	30.5
245.549	30
246.807	29.5
248.065	31.5
249.323	33
250.583	35.5
251.84	36.5
253.098	35.5
254.355	30.5
255.613	33.5
256.87	31.5
258.127	32
259.383	28
260.639	29
261.897	31
263.153	32
264.408	31.5
265.664	33.5
266.919	31.5
268.174	27.5
269.43	27
270.685	31
271.939	29
273.193	28
274.447	32
275.701	32.5
276.955	33
278.208	32
279.461	33
280.714	30.5
281.968	30
283.221	29.5
284.473	32
285.726	31.5
286.977	24.5
288.229	31
289.481	31.5
290.732	26
291.983	31
293.234	30
294.485	31.5
295.736	29.5
296.986	35
298.236	31.5
299.486	30
300.736	32.5
301.985	35
303.233	33
304.482	34.5
305.731	32
306.98	32.5
308.228	32.5
309.477	32.5
310.725	32
311.973	31.5
313.22	31.5
314.468	35
315.714	26.5
316.961	35
318.208	33
319.455	33
320.701	34
321.947	31.5
323.192	35
324.438	32.5
325.684	32.5
326.929	31.5
328.175	32
329.418	32
330.663	31
331.908	31.5
333.152	27.5
334.395	31
335.639	31.5
336.883	35
338.127	33
339.369	33
340.612	32.5
341.855	30.5
343.097	31.5
344.34	32.5
345.582	32.5
346.823	30.5
348.065	33.5
349.307	30.5
350.547	33.5
351.789	28.5
353.03	34
354.27	35.5
355.511	35
356.75	29.5
357.991	32
359.231	34
360.47	29.5
361.709	32
362.948	30
364.187	34
365.427	30.5
366.664	35.5
367.903	33
369.14	27
370.379	30
371.616	29.5
372.854	27
374.091	28.5
375.328	25
376.564	35.5
377.802	29.5
379.037	34.5
380.274	29.5
381.51	30.5
382.745	30
383.981	31.5
385.216	29
386.452	29.5
387.686	32.5
388.922	31.5
390.155	30.5
391.389	32.5
392.624	35.5
393.857	29
395.091	31.5
396.325	28
397.558	30
398.79	35
400.024	30
401.256	32.5
402.488	34.5
403.721	33.5
404.953	34.5
406.184	34
407.417	29
408.648	31.5
409.878	32
411.109	35
412.341	30.5
413.571	34.5
414.801	31.5
416.031	32
417.262	29
418.491	31
419.72	28
420.949	32
422.178	34.5
423.408	32
424.637	31
425.865	30.5
427.093	34
428.32	29.5
429.548	33
430.777	31.5
432.004	35.5
433.231	30
434.458	31
435.685	30
436.911	34.5
438.137	28
439.363	30.5
440.589	31
441.815	33
443.042	30
444.267	32
445.492	36.5
446.717	31
447.942	34
449.166	33.5
450.39	33.5
451.615	35.5
452.838	32
454.062	31.5
455.286	30.5
456.509	33
457.732	34.5
458.955	38
460.178	33.5
461.399	33.5
462.621	33
463.843	35.5
465.065	34.5
466.287	33.5
467.508	32.5
468.73	38
469.951	35
471.172	36
472.393	39
473.612	42.5
474.832	39.5
476.052	43.5
477.272	47
478.492	46.5
479.712	47
480.93	53
482.149	51
483.368	58.5
484.587	55.5
485.806	56.5
487.023	64
488.241	63.5
489.459	63.5
490.677	59
491.893	58
493.111	58
494.328	52
495.543	60.5
496.76	54
497.977	54
499.194	48
500.409	46.5
501.625	44
502.841	46.5
504.055	41
505.27	42
506.486	42
507.699	40
508.914	42
510.128	37
511.342	42
512.557	43.5
513.77	37
514.984	38
516.196	40
517.41	30.5
518.623	36
519.835	35
521.048	35.5
522.259	37
523.472	33.5
524.683	37
525.895	34
527.106	31
528.318	37.5
529.528	38
530.74	34.5
531.949	32
533.161	33
534.37	35
535.581	33
536.79	30.5
537.999	33
539.209	34
540.418	30.5
541.627	35
542.835	34
544.043	32
545.253	30.5
546.46	33
547.669	35
548.876	33
550.083	30.5
551.292	33
552.498	35.5
553.705	34.5
554.912	29
556.118	34
557.324	32.5
558.53	28
559.737	34
560.942	35
562.147	33.5
563.353	35
564.558	31.5
565.763	28.5
566.967	32
568.173	32.5
569.377	31.5
570.58	36
571.784	30
572.987	36.5
574.192	35.5
575.395	33.5
576.598	32
577.8	33.5
579.003	31
580.205	30
581.407	35.5
582.61	34.5
583.812	31
585.014	31
586.215	28.5
587.416	34
588.617	35.5
589.818	33.5
591.018	32
592.219	30
593.419	36
594.619	32
595.819	31
597.02	33.5
598.219	34
599.418	31.5
600.617	31.5
601.816	30.5
603.015	32.5
604.213	32.5
605.41	35.5
606.608	32.5
607.806	34
609.004	29
610.201	31.5
611.399	34
612.596	29
613.793	30.5
614.989	34.5
616.186	30.5
617.382	37
618.579	31.5
619.775	33
620.969	33.5
622.165	29
623.36	35.5
624.555	31.5
625.75	30
626.945	32
628.139	35.5
629.333	34.5
630.527	31.5
631.721	31
632.915	31
634.108	29
635.301	36
636.495	29
637.688	32
638.88	31
640.072	34
641.265	33.5
642.456	30.5
643.648	29.5
644.84	32.5
646.032	33
647.222	32.5
648.414	30
649.605	31
650.795	33
651.986	34
653.177	32
654.366	34
655.556	30.5
656.745	33
657.935	34
659.125	37
660.313	35.5
661.503	34
662.69	33.5
663.879	30
665.067	35
666.256	30
667.444	33
668.631	37.5
669.819	38
671.006	35.5
672.194	30.5
673.38	32
674.567	34
675.753	34
676.94	33.5
678.125	34
679.311	36.5
680.497	38.5
681.682	39
682.868	40
684.053	43
685.238	39.5
686.422	41.5
687.606	34
688.792	38
689.975	36.5
691.159	34.5
692.343	37
693.526	35
694.71	34
695.893	38
697.076	38.5
698.259	36.5
699.441	39
700.623	41
701.805	39.5
702.988	44
704.169	43
705.35	47
706.533	51.5
707.714	50
708.894	58
710.075	52
711.255	51.5
712.436	50
713.616	45.5
714.796	40
715.975	44
717.155	34.5
718.335	39
719.514	35.5
720.693	36
721.872	32.5
723.05	35
724.228	32
725.406	33.5
726.585	33
727.763	32
728.941	31.5
730.118	36
731.295	31.5
732.472	30
733.649	30
734.825	30.5
736.002	30.5
737.178	32
738.354	32
739.53	31.5
740.705	32.5
741.881	32.5
743.056	32
744.231	27.5
745.406	35.5
746.581	31
747.755	38
748.93	32.5
750.104	31
751.278	34
752.452	30.5
753.625	30.5
754.799	29
755.972	33.5
757.144	31.5
758.317	32.5
759.489	33
760.662	30.5
761.834	30
763.006	31
764.178	33.5
765.349	33
766.521	29.5
767.692	31
768.863	29
770.034	31
771.204	31
772.374	33.5
773.545	31.5
774.715	33.5
775.885	26.5
777.054	34
778.224	33.5
779.393	28
780.562	34
781.731	33.5
782.9	32.5
784.069	30
785.236	37
786.405	33
787.573	36
788.74	38.5
789.908	36
791.074	34
792.242	40.5
793.409	33.5
794.575	39
795.742	34
796.909	31
798.074	31
799.241	35
800.406	30
801.572	37.5
802.737	34
803.902	32
805.067	31
806.232	32
807.396	29.5
808.561	33
809.725	30.5
810.889	31
812.052	32
813.217	30.5
814.38	30.5
815.544	32
816.706	31
817.87	31
819.032	30
820.195	31.5
821.357	33.5
822.518	31
823.681	30.5
824.842	32
826.005	28
827.165	31
828.326	30
829.488	33
830.648	32.5
831.808	35
832.97	30.5
834.129	31
835.289	31
836.45	30.5
837.609	32.5
838.768	30.5
839.927	32
841.087	30.5
842.245	27.5
843.404	37
844.562	32
845.721	33
846.879	35
848.036	31
849.194	29
850.351	31
851.509	31.5
852.666	35.5
853.823	33
854.979	30
856.136	32
857.292	32.5
858.448	30.5
859.605	30
860.761	31.5
861.916	33.5
863.071	30
864.226	40.5
865.381	34
866.536	28
867.691	31.5
868.845	32.5
869.999	31.5
871.153	34
872.307	36.5
873.461	32
874.614	33.5
875.767	34.5
876.92	30
878.073	32
879.226	24
880.379	32.5
881.531	34.5
882.683	34
883.835	30
884.987	30.5
886.139	33
887.291	30
888.442	33
889.593	26
890.743	29
891.893	31
893.044	29
894.195	27
895.345	30
896.495	33
897.643	32.5
898.793	29
899.943	30
901.092	31
902.241	30
903.389	31.5
904.538	29.5
905.687	26.5
906.835	27.5
907.982	32.5
909.13	32
910.278	31.5
911.426	29
912.572	28.5
913.72	35.5
914.867	29.5
916.013	31.5
917.16	28
918.306	30
919.451	26.5
920.598	30
921.744	30.5
922.889	29.5
924.035	30
925.18	32.5
926.324	26
927.47	30
928.614	28
929.758	30
930.902	24.5
932.047	30.5
933.191	28.5
934.334	26.5
935.478	31
936.621	31
937.764	27
938.906	30
940.05	30
941.192	28.5
942.335	28.5
943.476	34.5
944.619	29.5
945.76	33
946.901	27
948.043	29.5
949.184	27
950.326	30
951.466	26.5
952.606	28
953.747	28
954.887	29.5
956.028	28
957.167	24.5
958.307	29
959.447	29
960.586	29.5
961.725	26.5
962.865	28.5
964.003	24
965.141	32.5
966.279	31
967.418	29
968.556	28.5
969.693	32
970.831	32
971.969	32
973.106	29
974.243	30
975.38	31.5
976.517	26
977.654	27.5
978.79	26.5
979.926	27
981.061	30.5
982.197	31
983.334	27.5
984.469	25.5
985.604	27.5
986.739	30.5
987.873	28
989.008	29
990.142	30.5
991.277	29
992.411	25.5
993.544	30
994.679	29
995.813	32
996.946	29
998.079	32
999.212	32
1000.35	31
1001.48	27
1002.61	31.5
1003.74	25
1004.87	26
1006.01	30
1007.14	29
1008.27	31
1009.4	28
1010.53	29
1011.66	30.5
1012.79	29
1013.92	32.5
1015.05	33
1016.18	26.5
1017.31	28
1018.44	28.5
1019.57	31.5
1020.7	29
1021.83	31
1022.96	29
1024.09	30.5
1025.22	31
1026.35	29
1027.48	28.5
1028.6	32
1029.73	27
1030.86	26
1031.99	30.5
1033.12	26
1034.24	31
1035.37	33.5
1036.5	28.5
1037.62	35
1038.75	29
1039.88	27
1041	28.5
1042.13	25.5
1043.25	29
1044.38	32
1045.5	28.5
1046.63	32
1047.76	29.5
1048.88	29
1050	26
1051.13	31
1052.25	28.5
1053.38	27
1054.5	29.5
1055.63	32
1056.75	28
1057.87	29
1058.99	29
1060.12	33
1061.24	30.5
1062.36	29.5
1063.49	33
1064.61	28
1065.73	28.5
1066.85	27.5
1067.97	26
1069.1	29
1070.22	32
1071.34	30.5
1072.46	29.5
1073.58	29
1074.7	25.5
1075.82	28.5
1076.94	26
1078.06	27.5
1079.18	25
1080.3	27.5
1081.42	26.5
1082.54	32.5
1083.66	31.5
1084.78	28.5
1085.9	32.5
1087.02	27.5
1088.13	27
1089.25	31
1090.37	24
1091.49	26
1092.61	30.5
1093.72	29.5
1094.84	24.5
1095.96	29
1097.08	30.5
1098.19	26
1099.31	29.5
1100.42	24
1101.54	26
1102.66	30.5
1103.77	26
1104.89	28
1106	26
1107.12	26
1108.23	27
1109.35	26
1110.46	29
1111.58	32
1112.69	29.5
1113.81	29.5
1114.92	28
1116.04	26
1117.15	26.5
1118.26	29.5
1119.38	28.5
1120.49	28.5
1121.6	29
1122.72	28
1123.83	25
1124.94	23.5
1126.05	28
1127.17	30
1128.28	28.5
1129.39	31
1130.5	30.5
1131.61	26.5
1132.72	30.5
1133.83	25
1134.94	28
1136.06	27
1137.17	31
1138.27	30
1139.39	28
1140.5	26.5
1141.61	29.5
1142.72	28.5
1143.82	31
1144.93	27
1146.04	27.5
1147.15	26.5
1148.26	28
1149.37	29
1150.48	24.5
1151.58	28.5
1152.69	25
1153.8	27
1154.91	29.5
1156.02	28.5
1157.12	29.5
1158.23	29
1159.34	29
1160.44	30
1161.55	26.5
1162.66	29
1163.76	30
1164.87	27.5
1165.97	27.5
1167.08	25.5
1168.18	31
1169.29	28.5
1170.39	31
1171.5	27.5
1172.6	29
1173.71	27
1174.81	27
1175.92	29
1177.02	28.5
1178.13	26
1179.23	25
1180.33	29
1181.44	29
1182.54	30
1183.64	25
1184.74	26
1185.85	27
1186.95	29
1188.05	27.5
1189.15	27.5
1190.26	25
1191.36	23
1192.46	25
1193.56	29.5
1194.66	27.9907
1195.76	27.4153
1196.86	26.5955
1197.96	26.1075
1199.06	28.7816
1200.16	27.32
1201.26	24.1578
1202.36	27.4364
1203.46	27.6635
1204.56	29.0015
1205.66	26.7943
1206.76	25.9442
1207.86	25.4943
1208.96	27.353
1210.06	26.2072
1211.16	29.1741
1212.25	29.9393
1213.35	27.1614
1214.45	26.6417
1215.55	27.9307
1216.65	27.3949
1217.74	29.6675
1218.84	27.321
1219.94	24.8742
1221.03	28.1964
1222.13	25.3865
1223.23	28.3168
1224.32	25.3961
1225.42	26.8852
1226.52	30.6909
1227.61	27.8155
1228.71	28.2179
1229.8	23.7277
1230.9	24.0601
1231.99	25.6385
1233.09	26.7597
1234.18	29.7486
1235.28	25.6014
1236.37	26.5829
1237.47	26.0431
1238.56	26.3705
1239.65	25.4513
1240.75	26.3154
1241.84	25.034
1242.93	27.0519
1244.03	26.0491
1245.12	25.9027
1246.21	28.9408
1247.31	28.1381
1248.4	29.0952
1249.49	30.3699
1250.58	28.2132
1251.67	24.3431
1252.77	26.5555
1253.86	26.4041
1254.95	27.4324
1256.04	29.2129
1257.13	29.1135
1258.22	27.462
1259.31	27.0428
1260.4	27.38
1261.49	27.5694
1262.58	28.0449
1263.67	28.1883
1264.76	26.6487
1265.85	27.8653
1266.94	26.1772
1268.03	27.528
1269.12	28.0861
1270.21	25.067
1271.3	25.2825
1272.39	26.4555
1273.47	27.5205
1274.56	26.8226
1275.65	27.4388
1276.74	26.5423
1277.83	26.8593
1278.91	24.4806
1280	25.7708
1281.09	24.2027
1282.17	25.6033
1283.26	26.041
1284.35	24.4673
1285.43	25.9354
1286.52	26.2177
1287.61	25.5514
1288.69	26.4735
1289.78	27.3306
1290.86	26.8847
1291.95	26.4113
1293.03	27.0013
1294.12	27.8965
1295.2	27.4199
1296.29	27.6816
1297.37	29.8798
1298.46	28.8145
1299.54	26.0642
1300.63	25.913
1301.71	27.1614
1302.79	28.5982
1303.88	28.8635
1304.96	26.9862
1306.04	27.7349
1306.5	29
1307.59	24.5
1308.68	30.5
1309.76	27.5
1310.85	22
1311.94	27
1313.03	30
1314.11	29.5
1315.2	24
1316.29	27
1317.37	26.5
1318.46	24.5
1319.55	26
1320.63	29
1321.72	28.5
1322.81	24.5
1323.89	26
1324.98	30.5
1326.06	25
1327.15	24
1328.23	25
1329.32	22
1330.4	24.5
1331.49	27
1332.57	25.5
1333.66	27
1334.74	30.5
1335.82	25.5
1336.91	25.5
1337.99	23.5
1339.07	27.5
1340.16	22.5
1341.24	28
1342.32	28.5
1343.4	25.5
1344.49	28
1345.57	25.5
1346.65	25
1347.73	29.5
1348.82	28.5
1349.9	25
1350.98	27
1352.06	26.5
1353.14	22.5
1354.22	29
1355.3	30
1356.38	24.5
1357.46	27
1358.54	28
1359.62	29.5
1360.7	26.5
1361.78	29.5
1362.86	24
1363.94	26
1365.02	25
1366.1	27.5
1367.18	26.5
1368.26	27.5
1369.34	31
1370.41	26
1371.49	26.5
1372.57	24
1373.65	26.5
1374.72	24
1375.8	25.5
1376.88	29.5
1377.96	30
1379.03	28
1380.11	27
1381.19	31.5
1382.26	25
1383.34	29
1384.42	29
1385.49	26.5
1386.57	28
1387.64	31
1388.72	28
1389.79	30
1390.87	28.5
1391.94	29
1393.02	29.5
1394.09	29
1395.17	30
1396.24	27.5
1397.31	29
1398.39	28
1399.46	31
1400.54	28
1401.61	34
1402.68	32
1403.76	31
1404.83	30.5
1405.9	28.5
1406.97	28.5
1408.05	31
1409.12	28
1410.19	33.5
1411.26	32
1412.33	35
1413.4	36
1414.48	37
1415.55	29
1416.62	33
1417.69	29
1418.76	32
1419.83	27
1420.9	29
1421.97	25.5
1423.04	28.5
1424.11	26.5
1425.18	32
1426.25	26
1427.32	27.5
1428.39	26
1429.46	32
1430.52	26
1431.59	29.5
1432.66	27
1433.73	30.5
1434.8	25
1435.87	26.5
1436.93	29.5
1438	29.5
1439.07	30
1440.14	25.5
1441.2	28
1442.27	29
1443.34	28
1444.4	31
1445.47	27
1446.54	24.5
1447.6	26.5
1448.67	29.5
1449.73	28
1450.8	26.5
1451.86	25
1452.93	27.5
1453.99	26.5
1455.06	25
1456.12	26.5
1457.19	27.5
1458.25	25
1459.32	28
1460.38	27.5
1461.45	28.5
1462.51	27
1463.57	25
1464.64	29
1465.7	28
1466.76	27
1467.82	24
1468.89	27.5
1469.95	29.5
1471.01	26
1472.07	26
1473.14	30.5
1474.2	25.5
1475.26	26.5
1476.32	32
1477.38	30
1478.44	25
1479.5	26
1480.57	29
1481.63	28
1482.69	25.5
1483.75	28.5
1484.81	26
1485.87	28
1486.93	22
1487.99	32
1489.05	25
1490.1	28
1491.17	26
1492.22	28.5
1493.28	28
1494.34	26.5
1495.4	25
1496.46	29
1497.52	26
1498.57	25.5
1499.63	27.5
1500.69	27.5
1501.75	26
1502.8	24
1503.86	26
1504.92	30
1505.98	28.5
1507.03	24
1508.09	32
1509.15	26
1510.2	30.5
1511.26	25.5
1512.31	28
1513.37	25
1514.42	28
1515.48	27.5
1516.53	28
1517.59	25.5
1518.64	26.5
1519.7	28.5
1520.75	26
1521.81	24
1522.86	25.5
1523.92	28
1524.97	27.5
1526.02	28
1527.08	28.5
1528.13	30
1529.18	29.5
1530.24	25.5
1531.29	26
1532.34	27.5
1533.39	27.5
1534.45	25
1535.5	24.5
1536.55	28
1537.6	30
1538.65	20
1539.71	29.5
1540.76	27.5
1541.81	22
1542.86	27.5
1543.91	25
1544.96	26
1546.01	27
1547.06	29
1548.11	24
1549.16	28.5
1550.21	22
1551.26	26
1552.31	25
1553.36	27.5
1554.41	22
1555.46	31.5
1556.51	28
1557.56	27
1558.6	28
1559.65	33
1560.7	28
1561.75	31.5
1562.8	30.5
1563.84	24.5
1564.89	26
1565.94	28.5
1566.99	27.5
1568.03	29
1569.08	26
1570.13	28
1571.17	26.5
1572.22	27
1573.27	24
1574.31	27
1575.36	29
1576.4	27
1577.45	21
1578.5	28.5
1579.54	24
1580.59	28
1581.63	29.5
1582.68	24.5
1583.72	28.5
1584.76	28
1585.81	24
1586.85	31
1587.9	25
1588.94	25.5
1589.98	25.5
1591.03	26
1592.07	28
1593.11	25.5
1594.16	26
1595.2	26.5
1596.24	26.5
1597.29	23.5
1598.33	30.5
1599.37	25
1600.41	23.5
1601.45	23
1602.49	26
1603.54	23.5
1604.58	22
1605.62	25.5
1606.66	27.5
1607.7	31.5
1608.74	28
1609.78	26.5
1610.82	25.5
1611.86	27
1612.9	30
1613.94	25.5
1614.98	27.5
1616.02	28
1617.06	31.5
1618.1	31.5
1619.14	24
1620.18	31
1621.22	29.5
1622.25	24.5
1623.29	28.5
1624.33	25
1625.37	25
1626.41	28
1627.45	24.5
1628.48	29
1629.52	28
1630.56	30.5
1631.59	28.5
1632.63	28
1633.67	22
1634.7	30
1635.74	29
1636.78	24
1637.81	31
1638.85	27.5
1639.88	28.5
1640.92	24
1641.96	25
1642.99	26.5
1644.03	28.5
1645.06	26
1646.1	28
1647.13	24
1648.17	26
1649.2	30.5
1650.23	24.5
1651.27	28
1652.3	27
1653.33	26.5
1654.37	25.5
1655.4	23
1656.44	22
1657.47	28.5
1658.5	25.5
1659.53	30
1660.57	24
1661.6	28
1662.63	28
1663.66	27
1664.69	27.5
1665.73	23
1666.76	27
1667.79	29.5
1668.82	26
1669.85	26.5
1670.88	26
1671.91	30
1672.94	27
1673.97	28
1675.01	28.5
1676.03	29.5
1677.07	24.5
1678.1	30
1679.12	24
1680.15	27.5
1681.18	23.5
1682.21	32
1683.24	25
1684.27	28.5
1685.3	25
1686.33	26.5
1687.36	25
1688.38	25
1689.41	25.5
1690.44	26
1691.47	27.5
1692.5	30
1693.52	25
1694.55	28.5
1695.58	27.5
1696.6	29
1697.63	26.5
1698.66	25.5
1699.68	24.5
1700.71	26.5
1701.74	27.5
1702.76	24.5
1703.79	26.5
1704.81	25
1705.84	25
1706.86	27
1707.89	25.5
1708.91	25.5
1709.94	26
1710.96	25
1711.99	27
1713.01	21.5
1714.04	27
1715.06	28
1716.08	26.5
1717.11	29
1718.13	28.5
1719.16	24
1720.18	27
1721.2	29
1722.22	31
1723.25	28
1724.27	25
1725.29	26.5
1726.31	27.5
1727.34	26
1728.36	26
1729.38	24
1730.4	26.5
1731.42	27
1732.44	26.5
1733.47	27.5
1734.49	26.5
1735.51	24
1736.53	24.5
1737.55	24.5
1738.57	29
1739.59	24
1740.61	25
1741.63	29
1742.65	27
1743.67	28
1744.69	28
1745.71	27
1746.73	24.5
1747.75	27
1748.76	23
1749.78	30
1750.8	27.5
1751.82	21.5
1752.84	27.5
1753.86	27.5
1754.87	26
1755.89	28
1756.91	27.5
1757.93	29
1758.94	25
1759.96	29
1760.98	25.5
1761.99	24.5
1763.01	25
1764.03	28
1765.04	29
1766.06	24.5
1767.08	27
1768.09	29
1769.11	26.5
1770.12	30
1771.14	26
1772.15	25
1773.17	25
1774.18	27
1775.2	25
1776.21	30
1777.23	22
1778.24	27.5
1779.25	23.5
1780.27	28
1781.28	25
1782.3	23
1783.31	28
1784.32	27
1785.34	24
1786.35	26.5
1787.36	23
1788.37	24
1789.39	25
1790.4	24
1791.41	25.5
1792.42	25.5
1793.43	27.5
1794.45	20
1795.46	26.5
1796.47	29
1797.48	24
1798.49	26.5
1799.5	27.5
1800.51	26
1801.52	25
1802.53	22
1803.54	29
1804.55	25.5
1805.56	25.5
1806.57	24
1807.58	28
1808.59	23
1809.6	26
1810.61	26
1811.62	26
1812.63	27
1813.64	27.5
1814.65	22.5
1815.66	27
1816.66	28
1817.67	27
1818.68	26.5
1819.69	22
1820.69	25.5
1821.7	23
1822.71	24.5
1823.72	26
1824.72	25.5
1825.73	24
1826.74	27.5
1827.74	29
1828.75	23.5
1829.76	26
1830.76	22.5
1831.77	28
1832.77	25.5
1833.78	25
1834.79	26.5
1835.79	19.5
1836.8	25
1837.8	29.5
1838.81	28
1839.81	20
1840.81	24
1841.82	26
1842.82	30.5
1843.83	27.5
1844.83	30
1845.83	25.5
1846.84	21.5
1847.84	28
1848.84	27.5
1849.85	29.5
1850.85	28
1851.85	27.5
1852.86	27
1853.86	25.5
1854.86	29.5
1855.86	22.5
1856.86	29.5
1857.87	28
1858.87	26
1859.87	24
1860.87	31
1861.87	26
1862.87	23.5
1863.88	26
1864.88	30
1865.88	26.5
1866.88	25.5
1867.88	25.5
1868.88	28
1869.88	28.5
1870.88	23
1871.88	25
1872.88	28.5
1873.88	28.5
1874.87	24.5
1875.87	23.5
1876.87	26.5
1877.87	22.5
1878.87	27
1879.87	25.5
1880.87	25
1881.86	30.5
1882.86	26
1883.86	24
1884.86	21.5
1885.86	26
1886.85	30.5
1887.85	28.5
1888.85	24.5
1889.84	27
1890.84	27
1891.84	27
1892.83	25.5
1893.83	22.5
1894.83	26.5
1895.82	23.5
1896.82	25.5
1897.81	28
1898.81	30
1899.81	24.5
1900.8	27
1901.8	25
1902.79	24
1903.78	26
1904.78	28.5
1905.77	24
1906.77	26.5
1907.76	26.5
1908.76	26.5
1909.75	24.5
1910.74	28
1911.74	26
1912.73	28.5
1913.72	27
1914.72	25
1915.71	26.5
1916.7	25
1917.7	26
1918.69	26.5
1919.68	26
1920.67	25
1921.66	26
1922.66	25
1923.65	23
1924.64	27.5
1925.63	25.5
1926.62	24
1927.61	26.5
1928.6	25
1929.59	27
1930.59	26
1931.58	21.5
1932.57	23
1933.56	25.5
1934.55	24
1935.54	24.5
1936.53	29
1937.52	26
1938.51	24
1939.49	21.5
1940.48	25.5
1941.47	25.5
1942.46	27.5
1943.45	24
1944.44	24
1945.43	26
1946.42	25.5
1947.4	29.5
1948.39	26.5
1949.38	23
1950.37	30
1951.35	23.5
1952.34	23.5
1953.33	28
1954.31	25
1955.3	24
1956.29	26
1957.27	22
1958.26	28.5
1959.25	25
1960.23	26
1961.22	26
1962.21	23
1963.19	23.5
1964.18	27
1965.16	22
1966.15	26.5
1967.13	25.5
1968.12	29.5
1969.1	27
1970.09	25.5
1971.07	23.5
1972.05	28
1973.04	22
1974.02	21
1975.01	23
1975.99	28
1976.97	28.5
1977.96	27
1978.94	26
1979.92	29
1980.91	28
1981.89	22
1982.87	27.5
1983.85	22.5
1984.84	29
1985.82	27
1986.8	21
1987.78	25
1988.76	25
1989.74	28
1990.73	24
1991.71	27
1992.69	25
1993.67	26.5
1994.65	28
1995.63	23
1996.61	28
1997.59	24
1998.57	25.5
1999.55	23
2000.53	24
2001.51	26.5
2002.49	24
2003.47	24
2004.45	26.5
2005.43	28
2006.41	24
2007.39	23
2008.37	24.5
2009.34	22.5
2010.32	27
2011.3	24
2012.28	25
2013.26	25.5
2014.23	26.5
2015.21	28
2016.19	26.5
2017.17	23
2018.14	27.5
2019.12	23.5
2020.1	27.5
2021.07	26
2022.05	24.5
2023.03	23.5
2024	25
2024.98	26
2025.96	25
2026.93	23.5
2027.91	26
2028.88	23.5
2029.86	24
2030.83	20
2031.81	23
2032.78	26.5
2033.76	21
2034.73	22
2035.71	25.5
2036.68	24
2037.66	29.5
2038.63	24
2039.6	23
2040.58	26
2041.55	24
2042.52	25
2043.5	26
2044.47	23.5
2045.44	25.5
2046.42	23
2047.39	26
2048.36	26
2049.33	25.5
2050.31	24.5
2051.28	22
2052.25	28
2053.22	23.5
2054.19	23.5
2055.17	22
2056.14	23.5
2057.11	27
2058.08	23.5
2059.05	24.5
2060.02	25
2060.99	25.5
2061.96	23
2062.93	23
2063.9	25.5
2064.87	23
2065.84	25
2066.81	22.5
2067.78	22
2068.75	27.5
2069.72	24
2070.69	29.5
2071.66	26.5
2072.63	25.5
2073.6	26
2074.56	26.5
2075.53	24.5
2076.5	26
2077.47	23
2078.44	27
2079.4	23
2080.37	25.5
2081.34	26
2082.31	22
2083.27	25.5
2084.24	26
2085.21	26
2086.18	23.5
2087.14	24
2088.11	27.5
2089.07	22
2090.04	22.5
2091.01	26
2091.97	22
2092.94	28
2093.9	25.5
2094.87	26
2095.83	26
2096.8	28
2097.76	24
2098.73	22.5
2099.69	26.5
2100.66	25.5
2101.62	23.5
2102.59	25
2103.55	25
2104.52	24.5
2105.48	29.5
2106.44	20.5
2107.41	22
2108.37	28
2109.33	20.5
2110.3	28.5
2111.26	23.5
2112.22	19
2113.18	22.5
2114.15	22
2115.11	24
2116.07	28
2117.03	24
2118	28
2118.96	25
2119.92	21.5
2120.88	24.5
2121.84	26.5
2122.8	24.5
2123.76	21
2124.72	24
2125.68	26
2126.65	19
2127.61	24
2128.57	27
2129.53	22
2130.49	25
2131.45	25
2132.41	19.5
2133.36	24
2134.32	25
2135.28	25
2136.24	25
2137.2	22.5
2138.16	21
2139.12	22
2140.08	25
2141.04	25.5
2141.99	27.5
2142.95	24.4754
2143.91	27.3937
2144.87	25.4709
2145.83	21.1433
2146.78	26.849
2147.74	23.5629
2148.7	24.0742
2149.66	21.766
2150.61	21.7335
2151.57	26.0828
2152.53	22.2783
2153.48	24.4282
2154.44	24.1947
2155.4	22.2558
2156.35	22.9048
2157.31	22.3241
2158.26	26.4787
2159.22	24.9053
2160.17	26.1282
2161.13	23.6618
2162.08	23.4183
2163.04	25.9345
2163.99	28.6565
2164.95	25.2148
2165.9	23.1986
2166.86	22.9446
2167.81	23.0169
2168.77	24.1322
2169.72	22.5984
2170.67	26.1985
2171.63	23.056
2172.58	25.532
2173.54	26.6598
2174.49	22.4565
2175.44	23.9925
2176.39	26.0203
2177.35	22.7087
2178.3	23.3996
2179.25	24.8131
2180.2	23.7766
2181.16	22.7322
2182.11	21.5168
2183.06	23.45
2184.01	27.1444
2184.96	22.5111
2185.92	23.2158
2186.87	23.1772
2187.82	20.2931
2188.77	24.4545
2189.72	24.9546
2190.67	24.6152
2191.62	25.8127
2192.57	25.2646
2193.52	26.0596
2194.47	25.1481
2195.42	22.8424
2196.37	22.3663
2197.32	23.767
2198.27	22.828
2199.22	18.7694
2200.17	23.0466
2201.12	24.762
2202.07	21.8204
2203.02	24.1702
2203.97	24.5071
2204.92	25.5
2205.87	25.8849
2206.81	25.5825
2207.76	24.2382
2208.71	25.8639
2209.66	19.5933
2210.61	24.7824
2211.55	23.9071
2212.5	24.0746
2213.45	24.5798
2214.4	24.9345
2215.34	22.9709
2216.29	24.0013
2217.24	23.6109
2218.18	23.6845
2219.13	22.5631
2220.08	24.3605
2221.02	23.2181
2221.97	24.4837
2222.92	23.6267
2223.86	26.0026
2224.81	22.7141
2225.75	23.1959
2226.7	23.5
2227.64	20.8713
2228.59	21.5392
2229.53	22.2221
2230.48	25.1141
2231.42	27.0557
2232.37	24.8952
2233.31	23.4074
2234.26	23.9307
2235.2	20.1975
2236.14	24.7983
2237.09	25.0085
2238.03	26.1777
2238.97	22.5792
2239.92	24.5855
2240.05	25
2241	21
2241.95	24
2242.89	24
2243.84	25
2244.79	25
2245.74	20
2246.68	25.5
2247.63	22.5
2248.58	25.5
2249.53	22.5
2250.47	22
2251.42	25
2252.36	24
2253.31	22
2254.26	21.5
2255.2	23.5
2256.15	24
2257.1	29.5
2258.04	21.5
2258.99	25.5
2259.93	23.5
2260.88	23
2261.82	24.5
2262.77	20.5
2263.71	20.5
2264.66	21.5
2265.6	27.5
2266.55	26.5
2267.49	24
2268.43	29.5
2269.38	21.5
2270.32	26
2271.26	29
2272.21	23
2273.15	25
2274.09	24
2275.04	24
2275.98	27
2276.92	22.5
2277.87	24
2278.81	22
2279.75	22
2280.69	24
2281.64	26
2282.58	22
2283.52	19
2284.46	24
2285.4	23
2286.34	20
2287.29	21
2288.23	27.5
2289.17	24.5
2290.11	22
2291.05	26
2291.99	22.5
2292.93	19.5
2293.87	25
2294.81	24
2295.75	21
2296.69	24
2297.63	28
2298.57	26
2299.51	25
2300.45	22.5
2301.39	24.5
2302.33	21
2303.27	22.5
2304.2	21
2305.14	23
2306.08	24
2307.02	23
2307.96	23.5
2308.9	23
2309.83	25
2310.77	23.5
2311.71	25
2312.65	25.5
2313.58	24.5
2314.52	23.5
2315.46	26
2316.39	22
2317.33	30
2318.27	25
2319.21	21
2320.14	26.5
2321.08	25.5
2322.01	22.5
2322.95	27
2323.89	23
2324.82	23.5
2325.76	23
2326.69	23
2327.63	24
2328.56	25.5
2329.5	25
2330.43	22.5
2331.37	23.5
2332.3	24
2333.24	22
2334.17	27.5
2335.1	26.5
2336.04	24
2336.97	24.5
2337.91	23
2338.84	21.5
2339.77	24
2340.71	24.5
2341.64	23.5
2342.57	22.5
2343.51	24.5
2344.44	25
2345.37	22
2346.3	23
2347.24	25.5
2348.17	21
2349.1	24
2350.03	24
2350.96	21.5
2351.89	25
2352.83	26.5
2353.76	19.5
2354.69	24.5
2355.62	25
2356.55	19
2357.48	25
2358.41	24
2359.34	26.5
2360.27	24.5
2361.2	23.5
2362.13	23.5
2363.06	24
2363.99	26
2364.92	25.5
2365.85	27
2366.78	26
2367.71	24
2368.64	27
2369.57	23.5
2370.5	25
2371.43	22
2372.36	21.5
2373.28	18
2374.21	25.5
2375.14	27.5
2376.07	27.5
2377	22.5
2377.93	25
2378.85	23.5
2379.78	25
2380.71	23
2381.63	19
2382.56	24
2383.49	22.5
2384.42	25.5
2385.34	25
2386.27	23.5
2387.2	25.5
2388.12	23.5
2389.05	26
2389.97	24
2390.9	22.5
2391.82	23
2392.75	25.5
2393.68	26.5
2394.6	23.5
2395.53	24.5
2396.45	26
2397.38	25
2398.3	25
2399.23	23.5
2400.15	28.5
2401.07	26
2402	24.5
2402.92	25
2403.85	25.5
2404.77	24
2405.69	26.5
2406.62	26
2407.54	24.5
2408.46	26.5
2409.39	24
2410.31	24
2411.23	24
2412.16	26.5
2413.08	25
2414	24.5
2414.92	26.5
2415.85	23
2416.77	21
2417.69	26
2418.61	19.5
2419.53	26
2420.45	22
2421.38	24.5
2422.3	22.5
2423.22	23.5
2424.14	25
2425.06	20
2425.98	23.5
2426.9	26
2427.82	25
2428.74	23.5
2429.66	26
2430.58	25
2431.5	24
2432.42	25
2433.34	26
2434.26	25
2435.18	23
2436.1	25
2437.02	27
2437.94	23.5
2438.85	28
2439.77	25.5
2440.69	26
2441.61	25.5
2442.53	26
2443.45	25.5
2444.36	25
2445.28	19.5
2446.2	26.5
2447.12	21
2448.03	24
2448.95	21.5
2449.87	24
2450.79	26
2451.7	25
2452.62	23.5
2453.54	26.5
2454.45	20
2455.37	25
2456.28	21.5
2457.2	22
2458.12	25.5
2459.03	25
2459.95	25
2460.86	27
2461.78	25
2462.69	28.5
2463.61	27.5
2464.52	23
2465.44	28
2466.35	23.5
2467.27	26
2468.18	28
2469.1	24.5
2470.01	22.5
2470.93	21.5
2471.84	22
2472.75	26.5
2473.67	28
2474.58	25
2475.49	24.5
2476.41	23
2477.32	24
2478.23	21.5
2479.15	26.5
2480.06	20
2480.97	24.5
2481.88	23
2482.79	23
2483.71	30.5
2484.62	23
2485.53	25
2486.44	26
2487.35	25
2488.26	23.5
2489.18	22.5
2490.09	25.5
2491	26.5
2491.91	27.5
2492.82	27
2493.73	26
2494.64	28
2495.55	26
2496.46	21
2497.37	27
2498.28	21.5
2499.19	26
2500.1	24
2501.01	26
2501.92	25
2502.83	24.5
2503.74	24
2504.65	26.5
2505.56	22.5
2506.47	24
2507.37	27
2508.28	26
2509.19	22.5
2510.1	24
2511.01	25.5
2511.92	28
2512.82	23.5
2513.73	24.5
2514.64	24
2515.55	28.5
2516.45	21
2517.36	25.5
2518.27	24
2519.17	23
2520.08	25.5
2520.99	24.5
2521.89	25
2522.8	24.5
2523.71	25.5
2524.61	25
2525.52	25
2526.42	24.5
2527.33	26
2528.24	29.5
2529.14	25.5
2530.05	22.5
2530.95	27
2531.86	24
2532.76	27
2533.67	26.5
2534.57	25.5
2535.48	22
2536.38	24
2537.28	27.5
2538.19	24.5
2539.09	30
2540	25.5
2540.9	26.5
2541.8	26.5
2542.71	21.5
2543.61	21.5
2544.51	24
2545.42	26
2546.32	24.5
2547.22	24.5
2548.12	25
2549.03	20.5
2549.93	25.5
2550.83	27
2551.73	23.5
2552.63	23
2553.54	23.5
2554.44	26
2555.34	22
2556.24	23
2557.14	23
2558.04	27
2558.94	25
2559.85	24
2560.75	23.5
2561.65	24
2562.55	23.5
2563.45	23.5
2564.35	24
2565.25	25
2566.15	23
2567.05	24.5
2567.95	21
2568.85	27
2569.75	23
2570.65	23.5
2571.55	26.5
2572.44	26.5
2573.34	26.5
2574.24	26.5
2575.14	24
2576.04	23.5
2576.94	29.5
2577.84	26.5
2578.73	19.5
2579.63	23.5
2580.53	23
2581.43	22.5
2582.33	23
2583.22	24
2584.12	20
2585.02	23.5
2585.91	24
2586.81	24
2587.71	27
2588.6	25.5
2589.5	26
2590.4	26
2591.29	23.5
2592.19	23
2593.09	24.5
2593.98	24.5
2594.88	23
2595.77	26
2596.67	26.5
2597.56	22
2598.46	26
2599.35	28.5
2600.25	25
2601.14	22
2602.04	28
2602.93	27
2603.83	27.5
2604.72	22.5
2605.62	26.5
2606.51	24.5
2607.4	23.5
2608.3	25
2609.19	22.5
2610.09	26.5
2610.98	24
2611.87	23.5
2612.76	23
2613.66	27
2614.55	25
2615.44	25
2616.34	23
2617.23	27
2618.12	27.5
2619.01	23.5
2619.9	22
2620.8	23
2621.69	26
2622.58	25
2623.47	26.5
2624.36	26
2625.25	23
2626.15	22.5
2627.04	23.5
2627.93	25.5
2628.82	25.5
2629.71	23
2630.6	25
2631.49	29
2632.38	24.5
2633.27	23
2634.16	26
2635.05	26.5
2635.94	21
2636.83	26
2637.72	22
2638.61	25.5
2639.5	25
2640.39	24
2641.28	23
2642.16	27
2643.05	24.5
2643.94	26
2644.83	24
2645.72	22
2646.61	24
2647.49	25
2648.38	24
2649.27	27
2650.16	25.5
2651.05	23
2651.93	26
2652.82	25
2653.71	24
2654.59	24.5
2655.48	25.5
2656.37	25.5
2657.25	25.5
2658.14	24
2659.03	24.5
2659.91	24.5
2660.8	22
2661.69	20
2662.57	26
2663.46	27
2664.34	26.5
2665.23	25
2666.11	26.5
2667	23.5
2667.88	27
2668.77	23.5
2669.65	25.5
2670.54	22.5
2671.42	24.5
2672.31	27
2673.19	23.5
2674.08	28
2674.96	24
2675.84	26.5
2676.73	24.5
2677.61	25.5
2678.49	24.5
2679.38	27
2680.26	25
2681.14	24
2682.03	26
2682.91	27
2683.79	25
2684.68	21
2685.56	26.5
2686.44	25
2687.32	24.5
2688.2	21
2689.09	24
2689.97	27.5
2690.85	22.5
2691.73	21.5
2692.61	23.5
2693.49	26
2694.38	25.5
2695.26	26
2696.14	25
2697.02	24
2697.9	25.5
2698.78	26.5
2699.66	22.5
2700.54	23
2701.42	24
2702.3	25
2703.18	22
2704.06	28
2704.94	23
2705.82	24.5
2706.7	28
2707.58	23
2708.46	26
2709.34	27
2710.21	21
2711.09	22
2711.97	23
2712.85	24.5
2713.73	26
2714.61	22
2715.49	25
2716.36	26
2717.24	23.5
2718.12	23.5
2719	26
2719.87	20.5
2720.75	23.5
2721.63	22
2722.51	25
2723.38	25.5
2724.26	21
2725.14	26
2726.01	23
2726.89	24
2727.77	24
2728.64	24.5
2729.52	26
2730.39	26.5
2731.27	25.5
2732.15	19.5
2733.02	26
2733.9	23
2734.77	27
2735.65	21.5
2736.52	26.5
2737.4	24
2738.27	22.5
2739.15	21
2740.02	22.5
2740.89	24.5
2741.77	30.5
2742.64	24.5
2743.52	24
2744.39	28
2745.27	29
2746.14	25
2747.01	24
2747.89	25
2748.76	24
2749.63	22.5
2750.51	26.5
2751.38	24
2752.25	25
2753.12	23.5
2754	23
2754.87	26
2755.74	23
2756.61	26.5
2757.48	20.5
2758.36	31
2759.23	24.5
2760.1	27.5
2760.97	26
2761.84	22
2762.71	24
2763.59	23.5
2764.46	22.5
2765.33	27
2766.2	26
2767.07	26.5
2767.94	19
2768.81	29.5
2769.68	24
2770.55	20
2771.42	27.5
2772.29	22.5
2773.16	23
2774.03	25.5
2774.9	25
2775.77	28
2776.64	22.5
2777.51	27
2778.37	24.5
2779.24	22.5
2780.11	23.5
2780.98	22.5
2781.85	25
2782.72	26.5
2783.59	28.5
2784.45	23.5
2785.32	25
2786.19	27.5
2787.06	28
2787.92	23
2788.79	27
2789.66	26.5
2790.53	27
2791.39	30.5
2792.26	32
2793.13	24.5
2793.99	26.5
2794.86	28.5
2795.73	23
2796.59	26
2797.46	22.5
2798.33	24.5
2799.19	26.5
2800.06	30
2800.92	28.25
2801.79	26
2802.65	20.5
2803.52	26
2804.39	29
2805.25	25
2806.11	29
2806.98	26
2807.84	28
2808.71	25.5
2809.57	31.5
2810.44	25.5
2811.3	28.5
2812.17	27
2813.03	26
2813.89	23
2814.76	24.5
2815.62	23.5
2816.49	23
2817.35	26
2818.21	29
2819.07	22
2819.94	24
2820.8	25.5
2821.66	25
2822.53	25
2823.39	23.5
2824.25	26
2825.11	24.5
2825.97	24.5
2826.84	25
2827.7	28.5
2828.56	28
2829.42	30
2830.28	24
2831.14	27
2832.01	23
2832.87	27
2833.73	23.5
2834.59	28
2835.45	24
2836.31	29
2837.17	26
2838.03	25.5
2838.89	24
2839.75	23
2840.61	23
2841.47	23
2842.33	27.5
2843.19	24
2844.05	22
2844.91	27.5
2845.77	27.5
2846.63	24
2847.48	19
2848.34	27
2849.2	25.5
2850.06	28
2850.92	26.5
2851.78	25.5
2852.64	22.5
2853.49	24.5
2854.35	26
2855.21	24
2856.07	24
2856.93	26.5
2857.78	23
2858.64	28.5
2859.5	25.5
2860.35	29.5
2861.21	22
2862.07	26
2862.93	27.5
2863.78	28
2864.64	30
2865.49	28.5
2866.35	28
2867.21	28.5
2868.06	28.5
2868.92	24.5
2869.77	28.5
2870.63	29
2871.49	27
2872.34	29
2873.2	26.5
2874.05	27.5
2874.91	28
2875.76	23.5
2876.62	26
2877.47	30.5
2878.32	29
2879.18	30
2880.03	36.5
2880.89	30.5
2881.74	32.5
2882.6	31.5
2883.45	31.5
2884.3	35
2885.16	31
2886.01	28.5
2886.86	29
2887.72	38
2888.57	31.5
2889.42	35
2890.27	39.5
2891.13	43
2891.98	40
2892.83	40
2893.68	46
2894.54	45
2895.39	46
2896.24	41
2897.09	52.5
2897.94	48.5
2898.8	56
2899.65	50.5
2900.5	59.5
2901.35	58.5
2902.2	68
2903.05	66.5
2903.9	70.5
2904.75	68.5
2905.6	68
2906.45	69.5
2907.3	69.5
2908.15	71
2909.01	61
2909.85	61
2910.7	55
2911.55	56
2912.4	57.5
2913.25	53
2914.1	44
2914.95	48.5
2915.8	43
2916.65	41
2917.5	36
2918.35	39
2919.2	36
2920.04	37.5
2920.89	37.5
2921.74	34.5
2922.59	35.5
2923.44	34.5
2924.29	32.5
2925.13	31
2925.98	28
2926.83	30
2927.68	28
2928.52	30
2929.37	32.5
2930.22	27
2931.06	31
2931.91	30.5
2932.76	29
2933.6	28
2934.45	30
2935.3	26
2936.14	20.5
2936.99	31
2937.83	27
2938.68	28
2939.53	25.5
2940.37	27.5
2941.22	30
2942.06	27
2942.91	26
2943.75	28
2944.6	30
2945.44	28.5
2946.29	27
2947.13	27
2947.98	24.5
2948.82	30
2949.66	29.5
2950.51	25.5
2951.35	30
2952.2	26.5
2953.04	32
2953.88	31.5
2954.73	32
2955.57	28
2956.41	35
2957.26	41.5
2958.1	40
2958.94	37.5
2959.79	38
2960.63	38
2961.47	37.5
2962.31	40
2963.15	38.5
2964	37.5
2964.84	43.5
2965.68	44.5
2966.52	41
2967.37	38
2968.21	38
2969.05	41
2969.89	37.5
2970.73	33.5
2971.57	34.4903
2972.41	37.9463
2973.25	39.0981
2974.09	32.6629
2974.93	35.8666
2975.77	32.8789
2976.62	33.4216
2977.46	30.5184
2978.3	30.9587
2979.14	31.6864
2979.98	26.7395
2980.81	32.2041
2981.65	30.6177
2982.49	27.6412
2983.33	30.1914
2984.17	24.6536
2985.01	26.353
2985.85	28.6439
2986.69	26.0841
2987.53	23.7267
2988.37	24.1365
2989.21	26.624
2990.04	26.4551
2990.88	26.7058
2991.72	26.9228
2992.56	24.7158
2993.4	25.0119
2994.23	25.987
2995.07	27.3616
2995.91	25.4957
2996.75	21.7394
2997.58	22.9955
2998.42	26.6794
2999.26	24.0732
3000.1	23.4524
3000.93	23.483
3001.77	23.3244
3002.61	23.6612
3003.44	24.8838
3004.28	26.7898
3005.11	24.1492
3005.95	26.512
3006.79	23.129
3007.62	23.7206
3008.46	23.9256
3009.29	26.2683
3010.13	23.8771
3010.97	24.3083
3011.8	23.0372
3012.64	25.2246
3013.47	25.6386
3014.31	24.9518
3015.14	22.7891
3015.98	22.0388
3016.81	24.6972
3017.64	22.7201
3018.48	24.3228
3019.31	23.3304
3020.15	24.2863
3020.98	24.2564
3021.82	22.1856
3022.65	23.8091
3023.48	24.6479
3024.32	23.4535
3025.15	20.452
3025.98	21.1731
3026.82	22.606
3027.65	22.8096
3028.48	23.2759
3029.31	23.1624
3030.15	22.6606
3030.98	21.6401
3031.81	21.6656
3032.64	22.16
3033.48	22.6647
3034.31	22.9337
3035.14	23.7626
3035.97	22.5632
3036.8	23.9502
3037.64	23.5237
3038.47	23.1348
3039.3	22.2289
3040.13	21.4984
3040.96	24.9721
3041.79	23.8613
3042.62	23.1325
3043.45	22.7638
3044.28	21.4614
3045.12	23.8404
3045.95	21.8029
3046.78	20.7427
3047.61	23.4754
3048.44	23.3905
3049.27	24.1238
3050.1	26.6819
3050.92	23.6126
3051.75	23.6096
3052.58	24.6562
3053.41	23.5655
3054.24	23.6998
3055.07	23.4414
3055.9	22.797
3056.73	22.2271
3057.26	20
3058.09	27
3058.93	24
3059.76	21.5
3060.59	21
3061.43	23
3062.26	24
3063.09	26.5
3063.92	21.5
3064.76	20
3065.59	20
3066.42	24.5
3067.25	23
3068.08	20
3068.92	24
3069.75	24.5
3070.58	23.5
3071.41	22
3072.24	25.5
3073.07	24.5
3073.9	24
3074.73	20
3075.57	22
3076.4	24
3077.23	25
3078.06	23
3078.89	22.5
3079.72	27
3080.55	23
3081.38	23
3082.21	23.5
3083.04	25
3083.87	23.5
3084.7	27
3085.53	26.5
3086.36	24
3087.19	23.5
3088.01	28
3088.84	26
3089.67	25
3090.5	21
3091.33	24
3092.16	24.5
3092.99	23
3093.81	24
3094.64	25
3095.47	26
3096.3	23.5
3097.13	25
3097.95	22.5
3098.78	25
3099.61	23
3100.44	21
3101.26	23
3102.09	26.5
3102.92	20.5
3103.74	23
3104.57	22
3105.4	22.5
3106.22	23
3107.05	22
3107.88	21.5
3108.7	24.5
3109.53	22
3110.35	19
3111.18	24.5
3112.01	20.5
3112.83	22
3113.66	23
3114.48	26
3115.31	25
3116.13	25
3116.96	23
3117.78	20
3118.61	29
3119.43	24
3120.26	27.5
3121.08	25
3121.9	24
3122.73	17
3123.55	26.5
3124.38	22
3125.2	24.5
3126.02	20.5
3126.85	22.5
3127.67	26
3128.49	25.5
3129.32	22.5
3130.14	26
3130.96	26
3131.79	23.5
3132.61	24
3133.43	24.5
3134.25	24
3135.08	23
3135.9	22.5
3136.72	25
3137.54	21.5
3138.37	23.5
3139.19	27
3140.01	26.5
3140.83	23.5
3141.65	25.5
3142.47	25
3143.29	26
3144.12	25
3144.94	23
3145.76	20
3146.58	24.5
3147.4	24.5
3148.22	27
3149.04	23.5
3149.86	26
3150.68	25
3151.5	23.5
3152.32	27.5
3153.14	27.5
3153.96	24
3154.78	20
3155.6	19.5
3156.42	23.5
3157.24	24
3158.06	25.5
3158.88	24.5
3159.7	24
3160.51	26
3161.33	25
3162.15	23
3162.97	21.5
3163.79	23.5
3164.61	25.5
3165.42	23.5
3166.24	30.5
3167.06	26
3167.88	26
3168.7	23
3169.51	20
3170.33	22
3171.15	22
3171.97	26.5
3172.78	23.5
3173.6	27
3174.42	26
3175.23	27.5
3176.05	20
3176.87	26.5
3177.68	26
3178.5	24.5
3179.32	24.5
3180.13	22
3180.95	25
3181.76	24
3182.58	22
3183.4	26
3184.21	24.5
3185.03	25.5
3185.84	22.5
3186.66	26.5
3187.47	26.5
3188.29	24
3189.1	24
3189.92	25
3190.73	22.5
3191.55	21
3192.36	23
3193.17	24.5
3193.99	27
3194.8	22
3195.62	22.5
3196.43	26
3197.24	27.5
3198.06	24
3198.87	23.5
3199.68	25
3200.5	23
3201.31	22.5
3202.12	20
3202.94	27
3203.75	24
3204.56	22
3205.38	26.5
3206.19	26
3207	24
3207.81	26.5
3208.62	26
3209.44	22.5
3210.25	23.5
3211.06	24.5
3211.87	19
3212.68	21.5
3213.49	23
3214.31	27.5
3215.12	23
3215.93	29
3216.74	29
3217.55	26
3218.36	25.5
3219.17	24
3219.98	25
3220.79	23.5
3221.6	22
3222.41	23
3223.22	22
3224.03	23
3224.84	26
3225.65	26
3226.46	24
3227.27	25.5
3228.08	20
3228.89	20
3229.7	26.5
3230.51	24
3231.32	23.5
3232.13	23.5
3232.94	25.5
3233.74	26
3234.55	24
3235.36	24.5
3236.17	24
3236.98	22
3237.78	23.5
3238.59	24.5
3239.4	26.5
3240.21	26
3241.02	24.5
3241.82	25
3242.63	25.5
3243.44	22.5
3244.25	21.5
3245.05	26
3245.86	22.5
3246.67	22
3247.47	24
3248.28	23
3249.09	24
3249.89	19.5
3250.7	22.5
3251.5	21.5
3252.31	20.5
3253.12	29
3253.92	24
3254.73	22.5
3255.53	24
3256.34	21.5
3257.14	22.5
3257.95	28.5
3258.75	23.5
3259.56	25.5
3260.36	25
3261.17	23
3261.97	24
3262.78	24
3263.58	24
3264.39	25.5
3265.19	23
3265.99	25
3266.8	24.5
3267.6	25.5
3268.41	27.5
3269.21	21
3270.01	27
3270.82	23
3271.62	25
3272.42	26
3273.23	25.5
3274.03	23
3274.83	23.5
3275.64	24
3276.44	24.5
3277.24	26
3278.04	24.5
3278.85	25
3279.65	24
3280.45	26
3281.25	26
3282.05	25.5
3282.85	23
3283.66	21.5
3284.46	26
3285.26	23.5
3286.06	22.5
3286.86	23.5
3287.66	27.5
3288.46	20
3289.27	23
3290.07	23
3290.87	25
3291.67	27
3292.47	26
3293.27	20.5
3294.07	22.5
3294.87	22.5
3295.67	26
3296.47	22.5
3297.27	21.5
3298.07	25.5
3298.87	21.5
3299.67	24.5
3300.47	23.5
3301.26	25
3302.06	24
3302.86	25.5
3303.66	25
3304.46	25
3305.26	21
3306.06	28
3306.86	21.5
3307.65	23.5
3308.45	24.5
3309.25	27.5
3310.05	27
3310.85	22
3311.64	27
3312.44	26.5
3313.24	24
3314.04	24
3314.83	27.5
3315.63	26
3316.43	25
3317.22	23
3318.02	24.5
3318.82	27
3319.62	25
3320.41	22.5
3321.21	27
3322	24
3322.8	20.5
3323.6	27
3324.39	20.5
3325.19	26
3325.98	21
3326.78	25
3327.58	24
3328.37	23
3329.17	26
3329.96	24
3330.76	23.5
3331.55	25
3332.35	23.5
3333.14	24.5
3333.94	26
3334.73	24
3335.52	26
3336.32	24.5
3337.11	26.5
3337.91	23
3338.7	23
3339.5	22
3340.29	26
3341.08	25
3341.88	24.5
3342.67	28
3343.46	27.5
3344.26	26
3345.05	23
3345.84	23
3346.63	23
3347.43	24.5
3348.22	23.5
3349.01	27.5
3349.8	24.5
3350.6	23
3351.39	24
3352.18	23
3352.97	20
3353.77	21.5
3354.56	25
3355.35	25
3356.14	24.5
3356.93	21
3357.72	21
3358.51	22
3359.31	24.5
3360.1	22.5
3360.89	23
3361.68	25.5
3362.47	24
3363.26	26
3364.05	21
3364.84	23
3365.63	25
3366.42	21
3367.21	25
3368	24.5
3368.79	25
3369.58	25.5
3370.37	26
3371.16	25
3371.95	25
3372.74	25
3373.53	26
3374.32	23
3375.1	28
3375.89	23
3376.68	27
3377.47	26
3378.26	28
3379.05	27.5
3379.84	20.5
3380.62	28.5
3381.41	25.5
3382.2	25
3382.99	28
3383.78	27
3384.56	24
3385.35	24
3386.14	25.5
3386.93	24
3387.71	25
3388.5	23
3389.29	25.5
3390.07	29
3390.86	26.5
3391.65	25
3392.43	26
3393.22	23.5
3394.01	27
3394.79	21
3395.58	24
3396.36	26.5
3397.15	23.5
3397.94	23.5
3398.72	24.5
3399.51	24
3400.29	25.5
3401.08	26
3401.86	22.5
3402.65	28
3403.43	26
3404.22	24
3405	25
3405.79	25.5
3406.57	29.5
3407.36	24.5
3408.14	22.5
3408.93	24.5
3409.71	24.5
3410.49	23.5
3411.28	26.5
3412.06	21.5
3412.84	24
3413.63	22
3414.41	23
3415.2	25
3415.98	23.5
3416.76	22.5
3417.54	24.5
3418.33	27
3419.11	25
3419.89	23.5
3420.68	24
3421.46	25
3422.24	25.5
3423.02	20.5
3423.81	24.5
3424.59	26
3425.37	27
3426.15	21.5
3426.93	21.5
3427.71	22
3428.5	24.5
3429.28	23.5
3430.06	25
3430.84	21.5
3431.62	23.5
3432.4	20
3433.18	27.5
3433.96	23
3434.75	22
3435.53	26
3436.31	26
3437.09	27.5
3437.87	21.5
3438.65	23
3439.43	23.5
3440.21	23.5
3440.99	25
3441.77	22.5
3442.55	23
3443.33	22.5
3444.1	22.5
3444.88	27
3445.66	28.5
3446.44	23
3447.22	23.5
3448	24
3448.78	19
3449.56	22.5
3450.34	27
3451.11	23.5
3451.89	21
3452.67	24.5
3453.45	21
3454.23	25
3455	20.5
3455.78	22.5
3456.56	24
3457.34	22
3458.11	24.5
3458.89	23
3459.67	30
3460.45	19
3461.22	27.5
3462	21.5
3462.78	24.5
3463.55	23
3464.33	20.5
3465.11	21
3465.88	25
3466.66	23.5
3467.44	26
3468.21	25
3468.99	20.5
3469.76	22
3470.54	27
3471.32	27.5
3472.09	23
3472.87	24.5
3473.64	24
3474.42	28.5
3475.19	24
3475.97	25.5
3476.74	25
3477.52	23.5
3478.29	25
3479.07	29
3479.84	19
3480.61	23.5
3481.39	25.5
3482.16	24.5
3482.94	27
3483.71	24
3484.48	24
3485.26	25
3486.03	23.5
3486.81	25
3487.58	25.5
3488.35	21
3489.13	25.5
3489.9	30.5
3490.67	25
3491.44	20
3492.22	20.5
3492.99	25.5
3493.76	25.5
3494.54	21.5
3495.31	25
3496.08	22
3496.85	26
3497.62	22
3498.4	21.5
3499.17	21
3499.94	24
