#Acq. time (s)=	5
#Accumulations=	5
#Range (cm-¹)=	100...3500
#Windows=	4
#Autofocus=	Off
#AutoExposure=	Off
#Spike filter=	Multiple accum.
#Delay time (s)=	0
#Binning=	1
#Readout mode=	Signal
#DeNoise=	Off
#ICS correction=	Off
#Dark correction=	Off
#Inst. Process=	Off
#Instrument=	LabRAM HR Evol
#Detector=	Syncerity OE
#Objective=	x100_VIS
#Grating=	600 (500nm)
#ND Filter=	25%
#Laser=	633nm_Edge
#Hole=	100.021
#Range=	Visible
#Project=	verificaciones
#Sample=	at4
#Site=	plain
#Title=	bolusat4plain
#Remark=	
#Date=	14.01.2026 13:48
#Acquired=	14.01.2026 13:48:00
100.618	28
101.901	34.5
103.185	30.5
104.468	33.5
105.751	34
107.033	30.5
108.316	28
109.598	26.5
110.88	31
112.162	29
113.445	30.5
114.727	27.5
116.008	32
117.289	30
118.57	33.5
119.85	28
121.13	30.5
122.411	31
123.691	33
124.97	29
126.25	33.5
127.529	31
128.808	33
130.086	31.5
131.364	34.5
132.643	34
133.921	35
135.199	35.5
136.477	38
137.755	35
139.032	34.5
140.309	33
141.586	36
142.863	38
144.14	40
145.415	35
146.691	37
147.967	34
149.243	43.5
150.518	41
151.794	39
153.067	38.5
154.342	40.5
155.617	43
156.892	36.5
158.166	43
159.439	34
160.712	39.5
161.986	39
163.26	42.5
164.531	34.5
165.805	33
167.077	39
168.35	38
169.621	38.5
170.893	40
172.165	41
173.437	41
174.707	41
175.979	38
177.25	41.5
178.519	40.5
179.79	41
181.061	46.5
182.33	41.5
183.6	40.5
184.87	41
186.138	39.5
187.408	38.5
188.676	34.5
189.945	45
191.214	40.5
192.481	39
193.75	43
195.016	39.5
196.285	37
197.552	39.5
198.819	39
200.086	36.5
201.352	38.5
202.619	37
203.884	37
205.151	41
206.416	34
207.682	35
208.947	36
210.213	34
211.477	36.5
212.742	32.5
214.006	35
215.271	29
216.535	36
217.799	33
219.062	33.5
220.326	37
221.589	37
222.851	34.5
224.115	33.5
225.377	29.5
226.64	34
227.901	32
229.163	33
230.425	32
231.686	35
232.947	29
234.209	33
235.469	32
236.729	30.5
237.991	34.5
239.25	32
240.51	27
241.771	31.5
243.03	32
244.288	29.5
245.549	31.5
246.807	29
248.065	30.5
249.323	32.5
250.583	30
251.84	33
253.098	27
254.355	32
255.613	32
256.87	33
258.127	27.5
259.383	28
260.639	29.5
261.897	30
263.153	29.5
264.408	27.5
265.664	29.5
266.919	32.5
268.174	30.5
269.43	29.5
270.685	29.5
271.939	24.5
273.193	29.5
274.447	26
275.701	30.5
276.955	27
278.208	24
279.461	28.5
280.714	28
281.968	27.5
283.221	27.5
284.473	29
285.726	28.5
286.977	28
288.229	27
289.481	24
290.732	32.5
291.983	31.5
293.234	31.5
294.485	27
295.736	33
296.986	30
298.236	28.5
299.486	29.5
300.736	25
301.985	27.5
303.233	31.5
304.482	31.5
305.731	29
306.98	29
308.228	27
309.477	32
310.725	27
311.973	29
313.22	30.5
314.468	31.5
315.714	27
316.961	27
318.208	26
319.455	28.5
320.701	28
321.947	30
323.192	36.5
324.438	29.5
325.684	31
326.929	29.5
328.175	27
329.418	32
330.663	28
331.908	28
333.152	29
334.395	28
335.639	31.5
336.883	28.5
338.127	29.5
339.369	29
340.612	30.5
341.855	26
343.097	26
344.34	30
345.582	28
346.823	31
348.065	29
349.307	29.5
350.547	29.5
351.789	28
353.03	33
354.27	35.5
355.511	32
356.75	30
357.991	30
359.231	31.5
360.47	29
361.709	26.5
362.948	30
364.187	23
365.427	29
366.664	32.5
367.903	29
369.14	31
370.379	31
371.616	26
372.854	30
374.091	25
375.328	26
376.564	26.5
377.802	22
379.037	30
380.274	30
381.51	28
382.745	28
383.981	28.5
385.216	30
386.452	26
387.686	28
388.922	25
390.155	23
391.389	28
392.624	25
393.857	31.5
395.091	26.5
396.325	27.5
397.558	32
398.79	27
400.024	30
401.256	31.5
402.488	26
403.721	25
404.953	27.5
406.184	28
407.417	24
408.648	30
409.878	27.5
411.109	29
412.341	25
413.571	31.5
414.801	28.5
416.031	27
417.262	24.5
418.491	29.5
419.72	25
420.949	31
422.178	29.5
423.408	25
424.637	27
425.865	31.5
427.093	29
428.32	28
429.548	30
430.777	31.5
432.004	27.5
433.231	28
434.458	30.5
435.685	24.5
436.911	31
438.137	27
439.363	31
440.589	31.5
441.815	27
443.042	29
444.267	29.5
445.492	27
446.717	26.5
447.942	28.5
449.166	29
450.39	30
451.615	32.5
452.838	26
454.062	31.5
455.286	25
456.509	27.5
457.732	31
458.955	27
460.178	28
461.399	29.5
462.621	33.5
463.843	29
465.065	30
466.287	35
467.508	34.5
468.73	32.5
469.951	32.5
471.172	33.5
472.393	31
473.612	35
474.832	38
476.052	42.5
477.272	43
478.492	45
479.712	46.5
480.93	49.5
482.149	50
483.368	53.5
484.587	57
485.806	50
487.023	56.5
488.241	59.5
489.459	64
490.677	62
491.893	59
493.111	52.5
494.328	51.5
495.543	57
496.76	53
497.977	47.5
499.194	45
500.409	48
501.625	44.5
502.841	42.5
504.055	35
505.27	35.5
506.486	42
507.699	34.5
508.914	40.5
510.128	35
511.342	36.5
512.557	32
513.77	33.5
514.984	32
516.196	33
517.41	33
518.623	31
519.835	31
521.048	31
522.259	30
523.472	30
524.683	30.5
525.895	31
527.106	32
528.318	29.5
529.528	30.5
530.74	26.5
531.949	32
533.161	28.5
534.37	26.5
535.581	31
536.79	25.5
537.999	30
539.209	26.5
540.418	33
541.627	27
542.835	29
544.043	32
545.253	30.5
546.46	27.5
547.669	28.5
548.876	28
550.083	29.5
551.292	30
552.498	29
553.705	31.5
554.912	27
556.118	28.5
557.324	25.5
558.53	32.5
559.737	26.5
560.942	25
562.147	25.5
563.353	32
564.558	33.5
565.763	26
566.967	28
568.173	27
569.377	29.5
570.58	25
571.784	27.5
572.987	33.5
574.192	27.5
575.395	31
576.598	31
577.8	29
579.003	26
580.205	29
581.407	29
582.61	27
583.812	25.5
585.014	29.5
586.215	28
587.416	28.5
588.617	27
589.818	30
591.018	31
592.219	25
593.419	28.5
594.619	28
595.819	31.5
597.02	28.5
598.219	28
599.418	26
600.617	25.5
601.816	27
603.015	30
604.213	28
605.41	25.5
606.608	28.5
607.806	28.5
609.004	23
610.201	32
611.399	28
612.596	26.5
613.793	24.5
614.989	25
616.186	29
617.382	31
618.579	25.5
619.775	27
620.969	29.5
622.165	28
623.36	28.5
624.555	29.5
625.75	27.5
626.945	29.5
628.139	28.5
629.333	30.5
630.527	29
631.721	27.5
632.915	29
634.108	26
635.301	32.5
636.495	27.5
637.688	28
638.88	28
640.072	26.5
641.265	27
642.456	30
643.648	26
644.84	25.5
646.032	30
647.222	29
648.414	29.5
649.605	27
650.795	29.5
651.986	23
653.177	28
654.366	26.5
655.556	28.5
656.745	30
657.935	29.5
659.125	30.5
660.313	29
661.503	29.5
662.69	28
663.879	29
665.067	30.5
666.256	29.5
667.444	32
668.631	29.5
669.819	31.5
671.006	33
672.194	25.5
673.38	32.5
674.567	27
675.753	33
676.94	29.5
678.125	28
679.311	32.5
680.497	35.5
681.682	36
682.868	31.5
684.053	33
685.238	37
686.422	34
687.606	37.5
688.792	34.5
689.975	31
691.159	36
692.343	34.5
693.526	34.5
694.71	36
695.893	34
697.076	37.5
698.259	33
699.441	37
700.623	36
701.805	37.5
702.988	38
704.169	40.5
705.35	45
706.533	52.5
707.714	51
708.894	53
710.075	52
711.255	49
712.436	43.5
713.616	43
714.796	35.5
715.975	30
717.155	30.5
718.335	33
719.514	33
720.693	31
721.872	28
723.05	29
724.228	30.5
725.406	29
726.585	29.5
727.763	30.5
728.941	27.5
730.118	35
731.295	28
732.472	34.5
733.649	27
734.825	28
736.002	27
737.178	32
738.354	25
739.53	32
740.705	27.5
741.881	28
743.056	25
744.231	31.5
745.406	30
746.581	30.5
747.755	27.5
748.93	33.5
750.104	30.5
751.278	27.5
752.452	28.5
753.625	25.5
754.799	33.5
755.972	27
757.144	29.5
758.317	25
759.489	30.5
760.662	24
761.834	22
763.006	30.5
764.178	21
765.349	28.5
766.521	29
767.692	27.5
768.863	29
770.034	28
771.204	31.5
772.374	28
773.545	25.5
774.715	28
775.885	25.5
777.054	27.5
778.224	30
779.393	31
780.562	24.5
781.731	27.5
782.9	25
784.069	34
785.236	33
786.405	32
787.573	32
788.74	28.5
789.908	28.5
791.074	34
792.242	27
793.409	31
794.575	28
795.742	30
796.909	30.5
798.074	30.5
799.241	29
800.406	28
801.572	26
802.737	29
803.902	29
805.067	27
806.232	28
807.396	27
808.561	30.5
809.725	25.5
810.889	28
812.052	31.5
813.217	32
814.38	29.5
815.544	30.5
816.706	28.5
817.87	26
819.032	28
820.195	33.5
821.357	24.5
822.518	25
823.681	30.5
824.842	27.5
826.005	24.5
827.165	28.5
828.326	29.5
829.488	25.5
830.648	27
831.808	30
832.97	28.5
834.129	30
835.289	26
836.45	25.5
837.609	28.5
838.768	24.5
839.927	29.5
841.087	30
842.245	30
843.404	30
844.562	31
845.721	24
846.879	30.5
848.036	27.5
849.194	30.5
850.351	28
851.509	27.5
852.666	27
853.823	29
854.979	30
856.136	27.5
857.292	30.5
858.448	28.5
859.605	32.5
860.761	31
861.916	31
863.071	29
864.226	32
865.381	28
866.536	29.5
867.691	31.5
868.845	33
869.999	28
871.153	29
872.307	28
873.461	26
874.614	30
875.767	27
876.92	26
878.073	31
879.226	30.5
880.379	29.5
881.531	29.5
882.683	28
883.835	28
884.987	28
886.139	24
887.291	27.5
888.442	27.5
889.593	26.5
890.743	25
891.893	28.5
893.044	26
894.195	29
895.345	26.5
896.495	29
897.643	26
898.793	26
899.943	25
901.092	30
902.241	23
903.389	25.5
904.538	30
905.687	25.5
906.835	27
907.982	26
909.13	25.5
910.278	23.5
911.426	26.5
912.572	25
913.72	26.5
914.867	26.5
916.013	27
917.16	28
918.306	27
919.451	22
920.598	25
921.744	27.5
922.889	30
924.035	30.5
925.18	27.5
926.324	26.5
927.47	24
928.614	27
929.758	28
930.902	27
932.047	27.5
933.191	26
934.334	25.5
935.478	28
936.621	30
937.764	25
938.906	26
940.05	26
941.192	26.5
942.335	26.5
943.476	25
944.619	27.5
945.76	28
946.901	23
948.043	27
949.184	25.5
950.326	24
951.466	24
952.606	27.5
953.747	23.5
954.887	27.5
956.028	26
957.167	25
958.307	29
959.447	26
960.586	21.5
961.725	25
962.865	26
964.003	26.5
965.141	26.5
966.279	28
967.418	27
968.556	29
969.693	28.5
970.831	27.25
971.969	25
973.106	27
974.243	25
975.38	28
976.517	27
977.654	26.5
978.79	27.5
979.926	26
981.061	27
982.197	27.5
983.334	29
984.469	22
985.604	29
986.739	25
987.873	25
989.008	27
990.142	25.5
991.277	25.5
992.411	26
993.544	28.5
994.679	31
995.813	23.5
996.946	25.5
998.079	26
999.212	25
1000.35	26
1001.48	27.5
1002.61	24
1003.74	24.5
1004.87	23
1006.01	26.5
1007.14	28.5
1008.27	24.5
1009.4	26.5
1010.53	24
1011.66	25.5
1012.79	25
1013.92	24
1015.05	27.5
1016.18	24
1017.31	27.5
1018.44	26.5
1019.57	27
1020.7	27.5
1021.83	25.5
1022.96	28
1024.09	24
1025.22	23
1026.35	26.5
1027.48	26
1028.6	31
1029.73	27.5
1030.86	24
1031.99	28
1033.12	25
1034.24	23.5
1035.37	25.5
1036.5	26.5
1037.62	25.5
1038.75	21.5
1039.88	25
1041	27.5
1042.13	26.5
1043.25	25
1044.38	24.5
1045.5	28.5
1046.63	22.5
1047.76	24
1048.88	24
1050	24
1051.13	29
1052.25	23
1053.38	23.5
1054.5	22
1055.63	21
1056.75	23.5
1057.87	27
1058.99	22.5
1060.12	25.5
1061.24	26.5
1062.36	28
1063.49	26.5
1064.61	27.5
1065.73	25.5
1066.85	25.5
1067.97	23.5
1069.1	23.5
1070.22	25.5
1071.34	25
1072.46	25
1073.58	27.5
1074.7	27
1075.82	28.5
1076.94	24
1078.06	23.5
1079.18	28
1080.3	22.5
1081.42	27
1082.54	23.5
1083.66	26.5
1084.78	25.5
1085.9	25.5
1087.02	25
1088.13	29
1089.25	22
1090.37	28
1091.49	23.5
1092.61	24
1093.72	28
1094.84	27
1095.96	27
1097.08	25.5
1098.19	25
1099.31	23
1100.42	24
1101.54	22
1102.66	24.5
1103.77	26
1104.89	27.5
1106	22
1107.12	25
1108.23	25.5
1109.35	25
1110.46	23
1111.58	24
1112.69	27
1113.81	25
1114.92	29
1116.04	28
1117.15	24.5
1118.26	25.5
1119.38	25
1120.49	27.5
1121.6	27
1122.72	22.5
1123.83	25
1124.94	25.5
1126.05	24
1127.17	25.5
1128.28	24
1129.39	27
1130.5	24
1131.61	27
1132.72	25
1133.83	22.5
1134.94	24.5
1136.06	21.5
1137.17	24.5
1138.27	23.5
1139.39	24.5
1140.5	24.5
1141.61	23.5
1142.72	24.5
1143.82	27
1144.93	22
1146.04	29
1147.15	25.5
1148.26	24
1149.37	20
1150.48	19
1151.58	27
1152.69	25.5
1153.8	25
1154.91	22.5
1156.02	23
1157.12	29
1158.23	25
1159.34	23
1160.44	27
1161.55	27.5
1162.66	24
1163.76	28
1164.87	29
1165.97	22.5
1167.08	24
1168.18	26.5
1169.29	29
1170.39	21
1171.5	25.5
1172.6	26.5
1173.71	27.5
1174.81	23
1175.92	28
1177.02	21
1178.13	24
1179.23	25.5
1180.33	28
1181.44	21.5
1182.54	28.5
1183.64	23.5
1184.74	27.5
1185.85	22.5
1186.95	22
1188.05	27
1189.15	27
1190.26	27.5
1191.36	24
1192.46	23
1193.56	24
1194.66	22.0082
1195.76	28.3851
1196.86	24.1068
1197.96	26.516
1199.06	24.5812
1200.16	22.0999
1201.26	25.7234
1202.36	22.1518
1203.46	26.9081
1204.56	27.5464
1205.66	23.2275
1206.76	20.012
1207.86	25.9046
1208.96	26.0609
1210.06	24.8586
1211.16	28.5978
1212.25	24.5
1213.35	24.085
1214.45	22.449
1215.55	23.2199
1216.65	23.9391
1217.74	26.1719
1218.84	26.682
1219.94	25.6656
1221.03	25.8718
1222.13	24.8107
1223.23	22.8568
1224.32	25.0571
1225.42	25.1859
1226.52	25.9886
1227.61	24.1415
1228.71	25.076
1229.8	28.0922
1230.9	21.1829
1231.99	23.8542
1233.09	24.1858
1234.18	24.9198
1235.28	23.3272
1236.37	24.271
1237.47	24.8726
1238.56	25.6512
1239.65	25.5242
1240.75	27.1033
1241.84	26.8698
1242.93	24.8199
1244.03	23.3681
1245.12	24.2893
1246.21	24.8767
1247.31	23.8045
1248.4	27.318
1249.49	26.021
1250.58	25.2579
1251.67	23.6073
1252.77	25.7791
1253.86	26.0675
1254.95	24.5893
1256.04	25.208
1257.13	25.227
1258.22	26.9162
1259.31	27.4264
1260.4	25.0112
1261.49	26.2976
1262.58	26.7139
1263.67	25
1264.76	25.8011
1265.85	25.8629
1266.94	25.9369
1268.03	25.4433
1269.12	26.4895
1270.21	25.1049
1271.3	24.4733
1272.39	25.8851
1273.47	24.9746
1274.56	23.2465
1275.65	24.0135
1276.74	24.4142
1277.83	24.8738
1278.91	23.3253
1280	23.0659
1281.09	23.4236
1282.17	23.1477
1283.26	23.2262
1284.35	24.2859
1285.43	25.1889
1286.52	23.63
1287.61	25.0247
1288.69	25.7597
1289.78	24.616
1290.86	24.1581
1291.95	24.1542
1293.03	25.8679
1294.12	25.9894
1295.2	24.2525
1296.29	25.8388
1297.37	26.3314
1298.46	24.6744
1299.54	25.1329
1300.63	24.8665
1301.71	25.0874
1302.79	24.3914
1303.88	25.4516
1304.96	24.7344
1306.04	22.6301
1306.5	22
1307.59	24.5
1308.68	28
1309.76	23.5
1310.85	24.5
1311.94	23
1313.03	25
1314.11	22
1315.2	21.5
1316.29	22
1317.37	25.5
1318.46	24.5
1319.55	21.5
1320.63	26
1321.72	25.5
1322.81	22.5
1323.89	19
1324.98	21
1326.06	26
1327.15	22.5
1328.23	23.5
1329.32	24.5
1330.4	23
1331.49	25
1332.57	24.5
1333.66	25.5
1334.74	25
1335.82	22
1336.91	27.5
1337.99	24
1339.07	27
1340.16	26.5
1341.24	30.5
1342.32	28
1343.4	26.5
1344.49	24
1345.57	25
1346.65	23.5
1347.73	24
1348.82	25.5
1349.9	26
1350.98	25
1352.06	27
1353.14	22.5
1354.22	23.5
1355.3	28
1356.38	27
1357.46	24.5
1358.54	27.5
1359.62	25.5
1360.7	25
1361.78	25
1362.86	24
1363.94	28.5
1365.02	27.5
1366.1	24
1367.18	22
1368.26	26
1369.34	23
1370.41	24.5
1371.49	25
1372.57	27.5
1373.65	25.5
1374.72	26.5
1375.8	27
1376.88	25
1377.96	26.5
1379.03	24.5
1380.11	21.5
1381.19	24
1382.26	25
1383.34	27.5
1384.42	24.5
1385.49	27.5
1386.57	23
1387.64	29.5
1388.72	24
1389.79	29
1390.87	23
1391.94	26
1393.02	28
1394.09	26
1395.17	27.5
1396.24	28
1397.31	27
1398.39	29
1399.46	24.5
1400.54	31
1401.61	25
1402.68	28
1403.76	28.5
1404.83	30
1405.9	36
1406.97	26
1408.05	28.5
1409.12	30.5
1410.19	31
1411.26	30
1412.33	31
1413.4	31
1414.48	33.5
1415.55	28.5
1416.62	29.5
1417.69	31
1418.76	27.5
1419.83	27.5
1420.9	28
1421.97	27.5
1423.04	26
1424.11	26.5
1425.18	30.5
1426.25	27.5
1427.32	28
1428.39	30
1429.46	26.5
1430.52	24.5
1431.59	26.5
1432.66	24
1433.73	28
1434.8	25
1435.87	25.5
1436.93	25.5
1438	24
1439.07	24
1440.14	28
1441.2	26.5
1442.27	27.5
1443.34	25.5
1444.4	25.5
1445.47	23
1446.54	28.5
1447.6	25
1448.67	30.5
1449.73	24
1450.8	29.5
1451.86	26.5
1452.93	29
1453.99	26
1455.06	29
1456.12	28
1457.19	24.5
1458.25	24
1459.32	24
1460.38	23.5
1461.45	25.5
1462.51	25
1463.57	27
1464.64	27
1465.7	25.5
1466.76	24.5
1467.82	27.5
1468.89	25.5
1469.95	25
1471.01	28.5
1472.07	29.5
1473.14	24.5
1474.2	26
1475.26	23.5
1476.32	27.5
1477.38	29
1478.44	27.5
1479.5	26
1480.57	20
1481.63	27.5
1482.69	24.5
1483.75	29.5
1484.81	29.5
1485.87	27
1486.93	24.5
1487.99	26.5
1489.05	29.5
1490.1	24.5
1491.17	25
1492.22	28
1493.28	27
1494.34	27
1495.4	25
1496.46	27
1497.52	25.5
1498.57	26
1499.63	25
1500.69	29.5
1501.75	26.5
1502.8	24
1503.86	21.5
1504.92	26
1505.98	26
1507.03	25
1508.09	23.5
1509.15	25
1510.2	24
1511.26	27
1512.31	25.5
1513.37	27
1514.42	25.5
1515.48	29
1516.53	29
1517.59	26
1518.64	26
1519.7	28
1520.75	24.5
1521.81	22.5
1522.86	29
1523.92	28.5
1524.97	23
1526.02	28.5
1527.08	26
1528.13	26
1529.18	25.5
1530.24	29
1531.29	25.5
1532.34	25
1533.39	27.5
1534.45	25.5
1535.5	26
1536.55	27.5
1537.6	27.5
1538.65	25
1539.71	26
1540.76	28
1541.81	25.5
1542.86	25.5
1543.91	25
1544.96	25
1546.01	31
1547.06	28
1548.11	20
1549.16	26
1550.21	27.5
1551.26	24.5
1552.31	27
1553.36	24
1554.41	25
1555.46	26
1556.51	21.5
1557.56	24.5
1558.6	22.5
1559.65	25.5
1560.7	23.5
1561.75	28
1562.8	26
1563.84	24
1564.89	26.5
1565.94	28
1566.99	27.5
1568.03	27
1569.08	21.5
1570.13	23
1571.17	26.5
1572.22	26
1573.27	26.5
1574.31	25.5
1575.36	24
1576.4	27.5
1577.45	27
1578.5	26
1579.54	28.5
1580.59	28.5
1581.63	22.5
1582.68	25.5
1583.72	24.5
1584.76	24.5
1585.81	26.5
1586.85	23.5
1587.9	23.5
1588.94	26.5
1589.98	25
1591.03	26
1592.07	25
1593.11	24.5
1594.16	26
1595.2	28
1596.24	25.5
1597.29	28.5
1598.33	25
1599.37	22.5
1600.41	27
1601.45	27.5
1602.49	26
1603.54	27.5
1604.58	26.5
1605.62	28.5
1606.66	26
1607.7	24.5
1608.74	27
1609.78	24.5
1610.82	26
1611.86	25.5
1612.9	25.5
1613.94	25.5
1614.98	24.5
1616.02	26
1617.06	25.5
1618.1	22.5
1619.14	24
1620.18	27
1621.22	27.5
1622.25	25.5
1623.29	26.5
1624.33	25
1625.37	24
1626.41	23.5
1627.45	26.5
1628.48	24.5
1629.52	24
1630.56	26
1631.59	23
1632.63	24
1633.67	25
1634.7	27
1635.74	24
1636.78	27
1637.81	22
1638.85	23
1639.88	26
1640.92	26.5
1641.96	21.5
1642.99	26.5
1644.03	24.5
1645.06	22.5
1646.1	27
1647.13	25
1648.17	29
1649.2	28
1650.23	24.5
1651.27	27
1652.3	26
1653.33	28
1654.37	24.5
1655.4	26.5
1656.44	25
1657.47	25
1658.5	27
1659.53	29
1660.57	25
1661.6	26.5
1662.63	25
1663.66	26.5
1664.69	22
1665.73	25.5
1666.76	30
1667.79	22.5
1668.82	28
1669.85	26
1670.88	27
1671.91	26.5
1672.94	27.5
1673.97	26
1675.01	25.5
1676.03	23.5
1677.07	21.5
1678.1	28.5
1679.12	24
1680.15	25
1681.18	26.5
1682.21	24
1683.24	27
1684.27	26
1685.3	23
1686.33	25.5
1687.36	25
1688.38	27.5
1689.41	21.5
1690.44	24
1691.47	25
1692.5	27
1693.52	25.5
1694.55	25
1695.58	26.5
1696.6	24
1697.63	27.5
1698.66	21.5
1699.68	27
1700.71	24
1701.74	26.5
1702.76	28.5
1703.79	27.5
1704.81	28
1705.84	23
1706.86	25
1707.89	20.5
1708.91	23.5
1709.94	26
1710.96	22.5
1711.99	25
1713.01	22.5
1714.04	26
1715.06	24.5
1716.08	26.5
1717.11	27
1718.13	26
1719.16	25.5
1720.18	23.5
1721.2	28
1722.22	24
1723.25	24
1724.27	26
1725.29	29
1726.31	25
1727.34	27.5
1728.36	30
1729.38	24.5
1730.4	24
1731.42	26.5
1732.44	24
1733.47	25.5
1734.49	23.5
1735.51	23
1736.53	24.5
1737.55	24
1738.57	25
1739.59	22
1740.61	21
1741.63	27
1742.65	21
1743.67	24.5
1744.69	24.5
1745.71	23
1746.73	26.5
1747.75	24
1748.76	23.5
1749.78	27
1750.8	26
1751.82	25.5
1752.84	23.5
1753.86	23
1754.87	26
1755.89	24
1756.91	22
1757.93	30.5
1758.94	22
1759.96	25
1760.98	29.5
1761.99	26
1763.01	23.5
1764.03	28
1765.04	26
1766.06	28.5
1767.08	21
1768.09	26.5
1769.11	26.5
1770.12	24
1771.14	23.5
1772.15	24
1773.17	26.5
1774.18	23
1775.2	24.5
1776.21	28
1777.23	26
1778.24	25.5
1779.25	24
1780.27	25.5
1781.28	22
1782.3	24
1783.31	23.5
1784.32	27
1785.34	22.5
1786.35	23
1787.36	24
1788.37	25
1789.39	26
1790.4	25
1791.41	28.5
1792.42	24.5
1793.43	27.5
1794.45	25
1795.46	26
1796.47	23
1797.48	25
1798.49	25
1799.5	26
1800.51	25
1801.52	25
1802.53	25.5
1803.54	24.5
1804.55	24
1805.56	27
1806.57	24
1807.58	27
1808.59	28
1809.6	26
1810.61	26.5
1811.62	28.5
1812.63	25.5
1813.64	26.5
1814.65	29
1815.66	27.5
1816.66	26
1817.67	24
1818.68	25.5
1819.69	22
1820.69	26.5
1821.7	29.5
1822.71	25.5
1823.72	28
1824.72	24
1825.73	23
1826.74	28.5
1827.74	22.5
1828.75	26.5
1829.76	25
1830.76	26
1831.77	23.5
1832.77	27
1833.78	25.5
1834.79	22.5
1835.79	25
1836.8	21.5
1837.8	23.5
1838.81	24.5
1839.81	24.5
1840.81	21
1841.82	26
1842.82	23.5
1843.83	24
1844.83	25
1845.83	22.5
1846.84	27
1847.84	26
1848.84	23
1849.85	24
1850.85	23.5
1851.85	26.5
1852.86	27.5
1853.86	25
1854.86	27.5
1855.86	27
1856.86	21.5
1857.87	27
1858.87	25
1859.87	25
1860.87	26
1861.87	28
1862.87	24.5
1863.88	25
1864.88	25
1865.88	24
1866.88	24.5
1867.88	27
1868.88	29
1869.88	24.5
1870.88	26.5
1871.88	29
1872.88	23
1873.88	25
1874.87	24.5
1875.87	23
1876.87	24
1877.87	25
1878.87	22
1879.87	20.5
1880.87	23
1881.86	22
1882.86	24.5
1883.86	23
1884.86	21.5
1885.86	24
1886.85	25
1887.85	25.5
1888.85	29
1889.84	22.5
1890.84	26
1891.84	21.5
1892.83	24.5
1893.83	27.5
1894.83	24
1895.82	26
1896.82	24.5
1897.81	24.5
1898.81	23.5
1899.81	26
1900.8	25.5
1901.8	25
1902.79	25
1903.78	26
1904.78	24
1905.77	24.5
1906.77	25.5
1907.76	25
1908.76	27.5
1909.75	22
1910.74	24
1911.74	25.5
1912.73	26.5
1913.72	26
1914.72	25
1915.71	23
1916.7	29.5
1917.7	23
1918.69	25.5
1919.68	21
1920.67	26.5
1921.66	24
1922.66	27
1923.65	24.5
1924.64	25
1925.63	21
1926.62	28.5
1927.61	25
1928.6	26
1929.59	26
1930.59	23
1931.58	18
1932.57	20
1933.56	24
1934.55	23.5
1935.54	20.5
1936.53	27
1937.52	22.5
1938.51	23
1939.49	21.5
1940.48	26
1941.47	26.5
1942.46	19.5
1943.45	22.5
1944.44	25
1945.43	25
1946.42	25
1947.4	23.5
1948.39	26.25
1949.38	27.5
1950.37	28
1951.35	23.5
1952.34	26.5
1953.33	25.5
1954.31	25
1955.3	24
1956.29	24.5
1957.27	23.5
1958.26	28.5
1959.25	26
1960.23	22.5
1961.22	25.5
1962.21	24
1963.19	26.5
1964.18	26
1965.16	24.5
1966.15	22
1967.13	24.5
1968.12	25
1969.1	29
1970.09	23.5
1971.07	24
1972.05	22.5
1973.04	25.5
1974.02	25.5
1975.01	25.5
1975.99	25.5
1976.97	24.5
1977.96	25
1978.94	26.5
1979.92	26.5
1980.91	25.5
1981.89	20
1982.87	19
1983.85	26
1984.84	24.5
1985.82	23
1986.8	28
1987.78	25.5
1988.76	24
1989.74	25.5
1990.73	26.5
1991.71	23.5
1992.69	23
1993.67	22.5
1994.65	23.5
1995.63	19
1996.61	22
1997.59	23.5
1998.57	26
1999.55	27
2000.53	23
2001.51	25.5
2002.49	27.5
2003.47	23
2004.45	26
2005.43	24
2006.41	22
2007.39	21
2008.37	24.5
2009.34	26.5
2010.32	26.5
2011.3	23.5
2012.28	25.5
2013.26	23.5
2014.23	25
2015.21	29
2016.19	25.5
2017.17	26
2018.14	26
2019.12	23
2020.1	22
2021.07	24
2022.05	24
2023.03	26.5
2024	27.5
2024.98	21.5
2025.96	20.5
2026.93	24
2027.91	24
2028.88	22.5
2029.86	24
2030.83	22.5
2031.81	25.5
2032.78	26.5
2033.76	24.5
2034.73	25
2035.71	25
2036.68	24
2037.66	26.5
2038.63	24.5
2039.6	27
2040.58	26
2041.55	23.5
2042.52	25.5
2043.5	20.5
2044.47	28.5
2045.44	20.5
2046.42	23.5
2047.39	26
2048.36	28
2049.33	21.5
2050.31	24.5
2051.28	27.5
2052.25	26.5
2053.22	21
2054.19	25.5
2055.17	23.5
2056.14	21.5
2057.11	22.5
2058.08	27
2059.05	20.5
2060.02	19
2060.99	24.5
2061.96	25.5
2062.93	24.5
2063.9	21.5
2064.87	26
2065.84	22
2066.81	21.5
2067.78	27
2068.75	21.5
2069.72	24
2070.69	25.5
2071.66	22
2072.63	25
2073.6	25
2074.56	27
2075.53	23.5
2076.5	24.5
2077.47	23
2078.44	18
2079.4	24
2080.37	25
2081.34	24
2082.31	18
2083.27	24.5
2084.24	20
2085.21	24
2086.18	24.5
2087.14	21.5
2088.11	21.5
2089.07	24
2090.04	25
2091.01	19
2091.97	23.5
2092.94	23
2093.9	25.5
2094.87	22
2095.83	22.5
2096.8	19
2097.76	26.5
2098.73	23
2099.69	23.5
2100.66	24.5
2101.62	26
2102.59	25
2103.55	21
2104.52	23
2105.48	23
2106.44	23
2107.41	25.5
2108.37	24
2109.33	25
2110.3	24
2111.26	22
2112.22	23
2113.18	25.5
2114.15	21
2115.11	22.5
2116.07	26.5
2117.03	29.5
2118	25.5
2118.96	20
2119.92	21.5
2120.88	23.5
2121.84	18
2122.8	25
2123.76	24.5
2124.72	23
2125.68	23
2126.65	18.5
2127.61	24.5
2128.57	22
2129.53	26
2130.49	21
2131.45	24
2132.41	24.5
2133.36	22
2134.32	25.5
2135.28	21.5
2136.24	20
2137.2	22.5
2138.16	21
2139.12	24
2140.08	22
2141.04	25
2141.99	24
2142.95	22.9802
2143.91	24.4273
2144.87	24.4619
2145.83	22.085
2146.78	26.9066
2147.74	23.1049
2148.7	22.1485
2149.66	25
2150.61	23.1227
2151.57	22.4522
2152.53	24.0748
2153.48	25.2209
2154.44	23.9961
2155.4	21.5514
2156.35	23.566
2157.31	22.83
2158.26	22.7645
2159.22	20.815
2160.17	25.0111
2161.13	24.4596
2162.08	25.3164
2163.04	23.8956
2163.99	23.4703
2164.95	23.7718
2165.9	22.5567
2166.86	22.5352
2167.81	21.8033
2168.77	22.2999
2169.72	22.4818
2170.67	25.5882
2171.63	20.1607
2172.58	23.0279
2173.54	25.3422
2174.49	24.7183
2175.44	21.6296
2176.39	24.2113
2177.35	23.5784
2178.3	24.1503
2179.25	22.1319
2180.2	22.8615
2181.16	20.2152
2182.11	24.0726
2183.06	23.0906
2184.01	23.8161
2184.96	23.9199
2185.92	20.8937
2186.87	22.5076
2187.82	22.4142
2188.77	21.8341
2189.72	22.1687
2190.67	25.3109
2191.62	22.345
2192.57	25.0528
2193.52	22.2516
2194.47	23.7063
2195.42	24.1249
2196.37	23.006
2197.32	23.5
2198.27	22.8915
2199.22	21.1529
2200.17	23.2844
2201.12	24.1387
2202.07	25.1511
2203.02	23.9445
2203.97	23.4194
2204.92	19.7395
2205.87	25.4714
2206.81	23.852
2207.76	24.148
2208.71	23.5912
2209.66	20.1764
2210.61	22.0782
2211.55	21.8336
2212.5	24.184
2213.45	21.8532
2214.4	24.2964
2215.34	23.9071
2216.29	24.1192
2217.24	21.2624
2218.18	23.3057
2219.13	22.7791
2220.08	21.9052
2221.02	22.5451
2221.97	23.6834
2222.92	20.9312
2223.86	21.3939
2224.81	22.0528
2225.75	22.0261
2226.7	25.1105
2227.64	21.9125
2228.59	20.3027
2229.53	22.7424
2230.48	22.7913
2231.42	21.3144
2232.37	20.6688
2233.31	24.0857
2234.26	21.1245
2235.2	20.8661
2236.14	21.2403
2237.09	25.2016
2238.03	21.3136
2238.97	25.2379
2239.92	19.9922
2240.05	19
2241	22
2241.95	21.5
2242.89	26
2243.84	23
2244.79	21
2245.74	23
2246.68	23.5
2247.63	23
2248.58	27.5
2249.53	22.5
2250.47	22.5
2251.42	23
2252.36	24
2253.31	24
2254.26	22
2255.2	24.5
2256.15	21
2257.1	25
2258.04	21.5
2258.99	22
2259.93	25.5
2260.88	24
2261.82	24.5
2262.77	23
2263.71	22
2264.66	21
2265.6	25.5
2266.55	25.5
2267.49	23
2268.43	24.5
2269.38	25
2270.32	26.5
2271.26	24.5
2272.21	26
2273.15	21.5
2274.09	24
2275.04	23.5
2275.98	23
2276.92	20.5
2277.87	25.5
2278.81	23.5
2279.75	24.5
2280.69	24
2281.64	26.5
2282.58	22
2283.52	26
2284.46	18.5
2285.4	24
2286.34	24.5
2287.29	23
2288.23	24.5
2289.17	23.5
2290.11	24
2291.05	23.5
2291.99	26.5
2292.93	24
2293.87	20.5
2294.81	23.5
2295.75	23
2296.69	21
2297.63	22.5
2298.57	23.5
2299.51	24.5
2300.45	27
2301.39	22
2302.33	25
2303.27	21
2304.2	20
2305.14	25.5
2306.08	21
2307.02	21.5
2307.96	24
2308.9	26
2309.83	23
2310.77	24.5
2311.71	21.5
2312.65	25
2313.58	22
2314.52	18
2315.46	24
2316.39	20
2317.33	24
2318.27	22.5
2319.21	24.5
2320.14	24
2321.08	26
2322.01	23
2322.95	22
2323.89	19
2324.82	24
2325.76	23.5
2326.69	23
2327.63	26
2328.56	21
2329.5	25.5
2330.43	26.5
2331.37	20.5
2332.3	25
2333.24	24.5
2334.17	30
2335.1	28
2336.04	22.5
2336.97	26
2337.91	26
2338.84	24
2339.77	26
2340.71	24.5
2341.64	25.5
2342.57	25
2343.51	24
2344.44	28.5
2345.37	22.5
2346.3	22
2347.24	23.5
2348.17	20
2349.1	22.5
2350.03	26
2350.96	25
2351.89	24.5
2352.83	23.5
2353.76	24.5
2354.69	21
2355.62	26.5
2356.55	25.5
2357.48	25
2358.41	27.5
2359.34	25
2360.27	20.5
2361.2	23.5
2362.13	21.5
2363.06	25.5
2363.99	23
2364.92	23.5
2365.85	23.5
2366.78	24
2367.71	21
2368.64	24
2369.57	26.5
2370.5	26
2371.43	21.5
2372.36	22.5
2373.28	21
2374.21	17
2375.14	25
2376.07	21.5
2377	24.5
2377.93	22
2378.85	23.5
2379.78	23.5
2380.71	26.5
2381.63	25
2382.56	20.5
2383.49	25
2384.42	25
2385.34	24
2386.27	23
2387.2	27
2388.12	24.5
2389.05	21.5
2389.97	26.5
2390.9	22.5
2391.82	24.5
2392.75	23
2393.68	23.5
2394.6	22.5
2395.53	23.5
2396.45	19
2397.38	23
2398.3	22.5
2399.23	26.5
2400.15	25.5
2401.07	22.5
2402	21.5
2402.92	26.5
2403.85	26
2404.77	24.5
2405.69	23.5
2406.62	24.5
2407.54	24
2408.46	24.5
2409.39	24
2410.31	22
2411.23	23.5
2412.16	23
2413.08	24
2414	23
2414.92	24.5
2415.85	21.5
2416.77	24.5
2417.69	26
2418.61	25.5
2419.53	25
2420.45	24.5
2421.38	24.5
2422.3	26.5
2423.22	23.5
2424.14	22
2425.06	25
2425.98	20.5
2426.9	24
2427.82	26
2428.74	22
2429.66	21.5
2430.58	24.5
2431.5	23
2432.42	22
2433.34	25.5
2434.26	24
2435.18	28
2436.1	27
2437.02	26
2437.94	23
2438.85	28
2439.77	21
2440.69	24.5
2441.61	25
2442.53	24.5
2443.45	25
2444.36	24.5
2445.28	22
2446.2	23.5
2447.12	26
2448.03	22
2448.95	26.5
2449.87	25
2450.79	23.5
2451.7	23
2452.62	24.5
2453.54	22.5
2454.45	25.5
2455.37	28.5
2456.28	22
2457.2	21
2458.12	27
2459.03	23
2459.95	27
2460.86	22.5
2461.78	23.5
2462.69	24
2463.61	23.5
2464.52	28
2465.44	22.5
2466.35	21
2467.27	25
2468.18	27
2469.1	24
2470.01	24
2470.93	24
2471.84	26
2472.75	26
2473.67	24
2474.58	24.5
2475.49	23.5
2476.41	24
2477.32	21.5
2478.23	26
2479.15	28.5
2480.06	20.5
2480.97	24
2481.88	26
2482.79	28
2483.71	24.5
2484.62	22
2485.53	23
2486.44	23.5
2487.35	24.5
2488.26	25
2489.18	25
2490.09	25
2491	22
2491.91	23.5
2492.82	24.5
2493.73	24
2494.64	27
2495.55	28
2496.46	26.5
2497.37	25.5
2498.28	22
2499.19	25
2500.1	23.5
2501.01	23
2501.92	21
2502.83	26
2503.74	25
2504.65	24
2505.56	24.5
2506.47	24.5
2507.37	24
2508.28	23.5
2509.19	25.5
2510.1	20
2511.01	22.5
2511.92	22
2512.82	26
2513.73	25.5
2514.64	23.5
2515.55	23.5
2516.45	27
2517.36	24
2518.27	23
2519.17	27
2520.08	19.5
2520.99	21
2521.89	22.5
2522.8	28.5
2523.71	23
2524.61	26.5
2525.52	22.5
2526.42	23
2527.33	26
2528.24	26.5
2529.14	28
2530.05	27.5
2530.95	24
2531.86	25.5
2532.76	26.5
2533.67	27
2534.57	22.5
2535.48	23
2536.38	21
2537.28	28.5
2538.19	25
2539.09	27.5
2540	21
2540.9	28.5
2541.8	23.5
2542.71	25
2543.61	22.5
2544.51	21
2545.42	23.5
2546.32	27.5
2547.22	21
2548.12	25.5
2549.03	23
2549.93	24.5
2550.83	25
2551.73	24.5
2552.63	25.5
2553.54	25
2554.44	26.5
2555.34	22.5
2556.24	21.5
2557.14	24.5
2558.04	25
2558.94	23.5
2559.85	24
2560.75	25.5
2561.65	26.5
2562.55	23
2563.45	25
2564.35	23.5
2565.25	21
2566.15	24.5
2567.05	29.5
2567.95	27.5
2568.85	27
2569.75	29.5
2570.65	23
2571.55	26
2572.44	23
2573.34	22.5
2574.24	27
2575.14	25
2576.04	26
2576.94	24
2577.84	25.5
2578.73	25
2579.63	27.5
2580.53	28
2581.43	22.5
2582.33	25
2583.22	22
2584.12	28
2585.02	24
2585.91	26
2586.81	27
2587.71	23
2588.6	24.5
2589.5	25
2590.4	25
2591.29	26
2592.19	25.5
2593.09	25
2593.98	21.5
2594.88	23
2595.77	21.5
2596.67	25
2597.56	24
2598.46	24.5
2599.35	25
2600.25	22.5
2601.14	25
2602.04	24
2602.93	24
2603.83	26
2604.72	24
2605.62	27.5
2606.51	27
2607.4	25.5
2608.3	23
2609.19	25.5
2610.09	25.5
2610.98	23
2611.87	28.5
2612.76	28
2613.66	21.5
2614.55	26.5
2615.44	25.5
2616.34	28.5
2617.23	25.5
2618.12	26.5
2619.01	23.5
2619.9	24
2620.8	25.5
2621.69	22
2622.58	23.5
2623.47	26
2624.36	23.5
2625.25	25.5
2626.15	26.5
2627.04	25
2627.93	26
2628.82	22.5
2629.71	24.5
2630.6	27
2631.49	25
2632.38	22.5
2633.27	25.5
2634.16	23.5
2635.05	21
2635.94	26
2636.83	24
2637.72	26
2638.61	24
2639.5	25
2640.39	25.5
2641.28	28.5
2642.16	24
2643.05	26
2643.94	25.5
2644.83	23.5
2645.72	26
2646.61	22
2647.49	20.5
2648.38	23.5
2649.27	23
2650.16	22
2651.05	28
2651.93	27
2652.82	26
2653.71	24.5
2654.59	27.5
2655.48	21.5
2656.37	23
2657.25	25.5
2658.14	26
2659.03	27
2659.91	23
2660.8	26
2661.69	28
2662.57	25.5
2663.46	26.5
2664.34	25
2665.23	27
2666.11	25.5
2667	23.5
2667.88	25
2668.77	24.5
2669.65	25.5
2670.54	22
2671.42	24.5
2672.31	19.5
2673.19	22
2674.08	27.5
2674.96	24.5
2675.84	24.5
2676.73	22
2677.61	22.5
2678.49	22
2679.38	25
2680.26	25
2681.14	22
2682.03	22.5
2682.91	28
2683.79	28
2684.68	24.5
2685.56	26
2686.44	24.5
2687.32	25
2688.2	24.5
2689.09	23.5
2689.97	24.5
2690.85	24
2691.73	24
2692.61	21.5
2693.49	25.5
2694.38	27
2695.26	24.5
2696.14	27
2697.02	28.5
2697.9	22.5
2698.78	25.5
2699.66	23
2700.54	25.5
2701.42	24
2702.3	27
2703.18	25
2704.06	25
2704.94	23.5
2705.82	24.5
2706.7	23.5
2707.58	24
2708.46	24
2709.34	23
2710.21	22
2711.09	22.5
2711.97	27
2712.85	27
2713.73	22
2714.61	25.5
2715.49	23.5
2716.36	26.5
2717.24	24.5
2718.12	25.5
2719	27
2719.87	21.5
2720.75	22.5
2721.63	28
2722.51	26
2723.38	25.5
2724.26	29
2725.14	28
2726.01	27.5
2726.89	28
2727.77	26.5
2728.64	23
2729.52	27
2730.39	25
2731.27	20
2732.15	24
2733.02	27.5
2733.9	25.5
2734.77	26
2735.65	23
2736.52	25.5
2737.4	25
2738.27	26.5
2739.15	23
2740.02	24.5
2740.89	25
2741.77	28.5
2742.64	24
2743.52	25
2744.39	22.5
2745.27	24
2746.14	20
2747.01	24
2747.89	26.5
2748.76	28
2749.63	25.5
2750.51	19
2751.38	25
2752.25	22
2753.12	22
2754	27
2754.87	25.5
2755.74	24
2756.61	25
2757.48	24.5
2758.36	21
2759.23	26
2760.1	25.5
2760.97	29
2761.84	27.5
2762.71	25.5
2763.59	24.5
2764.46	25
2765.33	24.5
2766.2	25
2767.07	24
2767.94	21
2768.81	29
2769.68	23.5
2770.55	21.5
2771.42	26
2772.29	25
2773.16	25.5
2774.03	26
2774.9	26.5
2775.77	27.5
2776.64	24
2777.51	22.5
2778.37	23.5
2779.24	21.5
2780.11	24
2780.98	25.5
2781.85	27
2782.72	26.5
2783.59	23.5
2784.45	26.5
2785.32	26
2786.19	27
2787.06	23
2787.92	24.5
2788.79	22
2789.66	26.5
2790.53	25
2791.39	28
2792.26	25.5
2793.13	26.5
2793.99	26.5
2794.86	23.5
2795.73	23.5
2796.59	27
2797.46	23
2798.33	29
2799.19	22
2800.06	27.5
2800.92	27.5
2801.79	27.5
2802.65	26.5
2803.52	28.5
2804.39	28
2805.25	28.5
2806.11	29.5
2806.98	27
2807.84	28.5
2808.71	24.5
2809.57	28
2810.44	24.5
2811.3	26
2812.17	25
2813.03	24.5
2813.89	27.5
2814.76	27.5
2815.62	26.5
2816.49	27.5
2817.35	25
2818.21	26
2819.07	24
2819.94	26.5
2820.8	25.5
2821.66	27.5
2822.53	28
2823.39	27
2824.25	26
2825.11	25
2825.97	31
2826.84	27.5
2827.7	26.5
2828.56	27
2829.42	25.5
2830.28	25
2831.14	24
2832.01	25
2832.87	26.5
2833.73	26.5
2834.59	25.5
2835.45	26
2836.31	26
2837.17	26.5
2838.03	26
2838.89	26.5
2839.75	26
2840.61	26
2841.47	25
2842.33	27.5
2843.19	27
2844.05	27
2844.91	25.5
2845.77	24
2846.63	27
2847.48	25
2848.34	23
2849.2	28
2850.06	31
2850.92	26
2851.78	25.5
2852.64	27
2853.49	21
2854.35	28.5
2855.21	24
2856.07	26.5
2856.93	27
2857.78	29
2858.64	26.5
2859.5	27.5
2860.35	27.5
2861.21	29
2862.07	25
2862.93	25
2863.78	26
2864.64	25
2865.49	28
2866.35	24
2867.21	31
2868.06	29.5
2868.92	24.5
2869.77	26
2870.63	31
2871.49	30.5
2872.34	31
2873.2	25
2874.05	27.5
2874.91	23.5
2875.76	28.5
2876.62	33
2877.47	30
2878.32	32
2879.18	32.5
2880.03	32.5
2880.89	31
2881.74	30
2882.6	30.5
2883.45	30
2884.3	30
2885.16	32
2886.01	35
2886.86	34
2887.72	34
2888.57	36
2889.42	34.5
2890.27	32.5
2891.13	32.5
2891.98	39.5
2892.83	40
2893.68	40
2894.54	48
2895.39	44.5
2896.24	48
2897.09	53
2897.94	50
2898.8	51
2899.65	54
2900.5	63
2901.35	62.5
2902.2	66
2903.05	67
2903.9	63
2904.75	66
2905.6	66.5
2906.45	67
2907.3	67.5
2908.15	70
2909.01	61.5
2909.85	65
2910.7	66
2911.55	54.5
2912.4	53.5
2913.25	50
2914.1	48.5
2914.95	45.5
2915.8	42.5
2916.65	45.5
2917.5	41
2918.35	36.5
2919.2	37
2920.04	40.5
2920.89	37
2921.74	39
2922.59	36
2923.44	34
2924.29	31
2925.13	33
2925.98	31.5
2926.83	28.5
2927.68	31
2928.52	31.5
2929.37	27.5
2930.22	32
2931.06	27.5
2931.91	30
2932.76	26
2933.6	26
2934.45	31.5
2935.3	28
2936.14	28
2936.99	27
2937.83	29.5
2938.68	24.5
2939.53	27.5
2940.37	29.5
2941.22	29.5
2942.06	28
2942.91	27
2943.75	26
2944.6	31
2945.44	28
2946.29	23
2947.13	30
2947.98	34
2948.82	29.5
2949.66	33
2950.51	30.5
2951.35	29
2952.2	31.5
2953.04	30
2953.88	28
2954.73	33.5
2955.57	34
2956.41	37
2957.26	33
2958.1	39
2958.94	35.5
2959.79	40
2960.63	41
2961.47	37
2962.31	45.5
2963.15	46
2964	45
2964.84	47.5
2965.68	41
2966.52	43.5
2967.37	44
2968.21	42
2969.05	45.5
2969.89	39.5
2970.73	37
2971.57	40.4782
2972.41	39.3897
2973.25	37.9404
2974.09	36.0304
2974.93	36.3278
2975.77	35.8572
2976.62	31.4599
2977.46	32.3544
2978.3	28.9088
2979.14	33.7747
2979.98	32.5999
2980.81	31.2292
2981.65	28.6634
2982.49	29.8897
2983.33	27.4583
2984.17	28.238
2985.01	27.1275
2985.85	24.379
2986.69	27.1006
2987.53	27.2017
2988.37	27.6645
2989.21	27.7506
2990.04	27.3327
2990.88	26.5033
2991.72	24.7781
2992.56	27.6329
2993.4	28.3478
2994.23	24.7743
2995.07	25.1766
2995.91	28.929
2996.75	20.6841
2997.58	23.004
2998.42	27.7098
2999.26	23.5985
3000.1	24.0666
3000.93	22.1231
3001.77	28.1504
3002.61	23.4738
3003.44	23.4334
3004.28	24.0506
3005.11	18.3657
3005.95	24.7881
3006.79	24.6923
3007.62	24.3308
3008.46	24.2738
3009.29	24.2454
3010.13	23.7232
3010.97	22.673
3011.8	25.3687
3012.64	22.6743
3013.47	23.9545
3014.31	21.8826
3015.14	22.7451
3015.98	21.1352
3016.81	23.7886
3017.64	22.6273
3018.48	23.9961
3019.31	22.2545
3020.15	21.7664
3020.98	22.7783
3021.82	23.1189
3022.65	22.2985
3023.48	23.618
3024.32	22.346
3025.15	21.5171
3025.98	19.4219
3026.82	22.0951
3027.65	23.6314
3028.48	22.5665
3029.31	23.3416
3030.15	22.736
3030.98	24.3694
3031.81	23.9984
3032.64	23.4895
3033.48	22.2978
3034.31	22.7749
3035.14	24.9709
3035.97	22.8324
3036.8	20.4415
3037.64	20.7303
3038.47	23.1553
3039.3	22.8773
3040.13	23.5102
3040.96	23.6599
3041.79	26.2306
3042.62	24.6029
3043.45	24.0717
3044.28	25.5579
3045.12	24.3887
3045.95	24.2298
3046.78	23.251
3047.61	22.6364
3048.44	24.5641
3049.27	22.8239
3050.1	22.2392
3050.92	22
3051.75	21.9794
3052.58	23.3118
3053.41	22.6383
3054.24	23.0833
3055.07	23.7508
3055.9	25.2604
3056.73	24.1707
3057.26	24.5
3058.09	23
3058.93	23
3059.76	23
3060.59	21
3061.43	24
3062.26	23.5
3063.09	21
3063.92	24
3064.76	23.5
3065.59	23
3066.42	23.5
3067.25	22
3068.08	22.5
3068.92	23
3069.75	24
3070.58	24
3071.41	22
3072.24	23
3073.07	23.5
3073.9	24.5
3074.73	24.5
3075.57	24
3076.4	24.5
3077.23	23.5
3078.06	24
3078.89	25
3079.72	26
3080.55	23
3081.38	24.5
3082.21	27
3083.04	23
3083.87	24
3084.7	24.5
3085.53	22
3086.36	23.5
3087.19	22.5
3088.01	24.5
3088.84	25
3089.67	21
3090.5	26
3091.33	25.5
3092.16	23
3092.99	27.5
3093.81	24
3094.64	23
3095.47	22
3096.3	22
3097.13	24.5
3097.95	24
3098.78	24.5
3099.61	21
3100.44	23.5
3101.26	25.5
3102.09	24.5
3102.92	21
3103.74	19.5
3104.57	21
3105.4	24
3106.22	21.5
3107.05	23
3107.88	22
3108.7	23
3109.53	22
3110.35	19.5
3111.18	23.5
3112.01	21.5
3112.83	22
3113.66	22
3114.48	20
3115.31	20
3116.13	24.5
3116.96	25
3117.78	19
3118.61	19.5
3119.43	22
3120.26	24
3121.08	25
3121.9	26.5
3122.73	23
3123.55	25
3124.38	21
3125.2	24
3126.02	23
3126.85	20.5
3127.67	22
3128.49	26.5
3129.32	24
3130.14	21
3130.96	26.5
3131.79	27.5
3132.61	23
3133.43	25.5
3134.25	23.5
3135.08	23
3135.9	25
3136.72	24
3137.54	22.5
3138.37	22
3139.19	20
3140.01	27
3140.83	26
3141.65	25.5
3142.47	21.5
3143.29	20
3144.12	21.5
3144.94	24.5
3145.76	24.5
3146.58	25.5
3147.4	24
3148.22	25
3149.04	23
3149.86	22
3150.68	26.5
3151.5	25
3152.32	25.5
3153.14	25
3153.96	26.5
3154.78	22.5
3155.6	23.5
3156.42	26
3157.24	25.5
3158.06	22.5
3158.88	25
3159.7	23
3160.51	23.5
3161.33	28
3162.15	22
3162.97	22
3163.79	22
3164.61	23
3165.42	25
3166.24	27
3167.06	23.5
3167.88	25
3168.7	22
3169.51	27.5
3170.33	23.5
3171.15	25.5
3171.97	23.5
3172.78	25
3173.6	20
3174.42	22.5
3175.23	23
3176.05	24.5
3176.87	22
3177.68	25
3178.5	20.5
3179.32	27
3180.13	21.5
3180.95	25.5
3181.76	26
3182.58	24.5
3183.4	22.5
3184.21	25
3185.03	22.5
3185.84	27
3186.66	24.5
3187.47	22.5
3188.29	23.5
3189.1	24
3189.92	22
3190.73	20.5
3191.55	24.5
3192.36	22.5
3193.17	21.5
3193.99	23
3194.8	23
3195.62	23
3196.43	24
3197.24	24
3198.06	25.5
3198.87	21.5
3199.68	25.5
3200.5	27
3201.31	24.5
3202.12	23.5
3202.94	26
3203.75	25.5
3204.56	27.5
3205.38	24.5
3206.19	25
3207	22
3207.81	27.5
3208.62	23
3209.44	20.5
3210.25	23.5
3211.06	20.5
3211.87	22.5
3212.68	21
3213.49	22.5
3214.31	26.5
3215.12	24
3215.93	22
3216.74	22
3217.55	24.5
3218.36	18.5
3219.17	22.5
3219.98	25
3220.79	25
3221.6	25
3222.41	23.5
3223.22	27.5
3224.03	25
3224.84	23
3225.65	26
3226.46	25.5
3227.27	25.5
3228.08	23.5
3228.89	26
3229.7	26
3230.51	24.5
3231.32	27
3232.13	24
3232.94	24.5
3233.74	27
3234.55	22
3235.36	23
3236.17	24
3236.98	24
3237.78	26.5
3238.59	26
3239.4	22
3240.21	22.5
3241.02	22.5
3241.82	25.5
3242.63	24.5
3243.44	23
3244.25	24.5
3245.05	24
3245.86	23.5
3246.67	23.5
3247.47	25
3248.28	21
3249.09	23.5
3249.89	25
3250.7	24.5
3251.5	23
3252.31	23
3253.12	27
3253.92	26.5
3254.73	27
3255.53	24.5
3256.34	22
3257.14	25.5
3257.95	27
3258.75	24.5
3259.56	22.5
3260.36	24
3261.17	23
3261.97	24
3262.78	22
3263.58	23.5
3264.39	25.5
3265.19	25
3265.99	23.5
3266.8	21.5
3267.6	24.5
3268.41	22
3269.21	26
3270.01	24
3270.82	24
3271.62	28
3272.42	27
3273.23	25.5
3274.03	22
3274.83	25
3275.64	20.5
3276.44	24
3277.24	24.5
3278.04	25.5
3278.85	24.5
3279.65	23
3280.45	24.5
3281.25	24
3282.05	28.5
3282.85	25
3283.66	21
3284.46	23
3285.26	26
3286.06	21
3286.86	24
3287.66	24
3288.46	24
3289.27	25.5
3290.07	27
3290.87	23.5
3291.67	25
3292.47	23.5
3293.27	24.5
3294.07	24.5
3294.87	25
3295.67	28
3296.47	21.5
3297.27	23.5
3298.07	25.5
3298.87	26
3299.67	22.5
3300.47	25
3301.26	23.5
3302.06	27
3302.86	25.5
3303.66	21
3304.46	26.5
3305.26	24.5
3306.06	22.5
3306.86	22.5
3307.65	24
3308.45	27
3309.25	26
3310.05	22
3310.85	21.5
3311.64	24.5
3312.44	27
3313.24	20
3314.04	21
3314.83	25
3315.63	27
3316.43	21
3317.22	22.5
3318.02	24
3318.82	24.5
3319.62	23.5
3320.41	25.5
3321.21	26.5
3322	23.5
3322.8	23
3323.6	22.5
3324.39	25.5
3325.19	21
3325.98	24.5
3326.78	28
3327.58	25
3328.37	21
3329.17	26.5
3329.96	25
3330.76	32
3331.55	22.5
3332.35	20.5
3333.14	22.5
3333.94	21
3334.73	25.5
3335.52	26.5
3336.32	25
3337.11	23.5
3337.91	25.5
3338.7	24.5
3339.5	21
3340.29	20
3341.08	25
3341.88	25.5
3342.67	25.5
3343.46	26
3344.26	28
3345.05	20.5
3345.84	22
3346.63	25
3347.43	21.5
3348.22	27.5
3349.01	24
3349.8	26.5
3350.6	26
3351.39	27
3352.18	26
3352.97	25.5
3353.77	22.5
3354.56	24
3355.35	23.5
3356.14	26
3356.93	21.5
3357.72	25.5
3358.51	25
3359.31	24.5
3360.1	26
3360.89	22
3361.68	21.5
3362.47	23
3363.26	25
3364.05	25.5
3364.84	31
3365.63	24
3366.42	24
3367.21	23
3368	27
3368.79	29
3369.58	20
3370.37	22.5
3371.16	25.5
3371.95	25.5
3372.74	26.5
3373.53	22
3374.32	28.5
3375.1	22
3375.89	22
3376.68	25
3377.47	26
3378.26	23.5
3379.05	27
3379.84	24.5
3380.62	23.5
3381.41	22
3382.2	23
3382.99	25.5
3383.78	25
3384.56	22.5
3385.35	22.5
3386.14	21
3386.93	21.5
3387.71	25
3388.5	25
3389.29	27.5
3390.07	25
3390.86	22
3391.65	21.5
3392.43	21
3393.22	26
3394.01	26
3394.79	24
3395.58	26
3396.36	25.5
3397.15	22
3397.94	24.5
3398.72	22.5
3399.51	25.5
3400.29	20
3401.08	29
3401.86	23.5
3402.65	20
3403.43	25.5
3404.22	26
3405	25
3405.79	27
3406.57	24.5
3407.36	23
3408.14	22
3408.93	26
3409.71	22.5
3410.49	25
3411.28	27.5
3412.06	26
3412.84	25
3413.63	24.5
3414.41	24
3415.2	24.5
3415.98	22.5
3416.76	23.5
3417.54	26.5
3418.33	26.5
3419.11	25.5
3419.89	26
3420.68	24
3421.46	22.5
3422.24	27
3423.02	25
3423.81	23
3424.59	22
3425.37	23
3426.15	23.5
3426.93	23.5
3427.71	28.5
3428.5	27.5
3429.28	22.5
3430.06	25.5
3430.84	28
3431.62	22
3432.4	25.5
3433.18	26
3433.96	22.5
3434.75	24.5
3435.53	24
3436.31	26
3437.09	27
3437.87	22
3438.65	26
3439.43	27
3440.21	25.5
3440.99	25.5
3441.77	20
3442.55	22
3443.33	25
3444.1	24.5
3444.88	30
3445.66	25
3446.44	25
3447.22	23
3448	22
3448.78	23.5
3449.56	24
3450.34	24.5
3451.11	25.5
3451.89	24
3452.67	21
3453.45	26.5
3454.23	25
3455	23
3455.78	26
3456.56	26.5
3457.34	23
3458.11	23
3458.89	23.5
3459.67	22
3460.45	24
3461.22	25
3462	22.5
3462.78	24.5
3463.55	24
3464.33	20
3465.11	23
3465.88	25
3466.66	26
3467.44	24
3468.21	26
3468.99	26.5
3469.76	21.5
3470.54	21.5
3471.32	24.5
3472.09	25
3472.87	23.5
3473.64	26.5
3474.42	21
3475.19	27
3475.97	27
3476.74	25.5
3477.52	25.5
3478.29	24.5
3479.07	27
3479.84	22
3480.61	25.5
3481.39	22
3482.16	24.5
3482.94	25
3483.71	24
3484.48	25.5
3485.26	21
3486.03	26
3486.81	24
3487.58	23.5
3488.35	20
3489.13	23
3489.9	28.5
3490.67	24.5
3491.44	27
3492.22	21
3492.99	20
3493.76	25.5
3494.54	24.5
3495.31	25.5
3496.08	23
3496.85	24
3497.62	22
3498.4	23.5
3499.17	19
3499.94	24
