#Acq. time (s)=	5
#Accumulations=	5
#Range (cm-¹)=	100...3500
#Windows=	4
#Autofocus=	Off
#AutoExposure=	Off
#Spike filter=	Multiple accum.
#Delay time (s)=	0
#Binning=	1
#Readout mode=	Signal
#DeNoise=	Off
#ICS correction=	Off
#Dark correction=	Off
#Inst. Process=	Off
#Instrument=	LabRAM HR Evol
#Detector=	Syncerity OE
#Objective=	x100_VIS
#Grating=	600 (500nm)
#ND Filter=	25%
#Laser=	633nm_Edge
#Hole=	100.021
#Range=	Visible
#Project=	verificaciones
#Sample=	at4
#Site=	plain
#Title=	bolusat4plain
#Remark=	com
#Date=	16.01.2026 17:46
#Acquired=	16.01.2026 17:46:44
100.564	23
101.847	33
103.131	30
104.414	30
105.697	33
106.979	30
108.262	32.5
109.544	26.5
110.826	31
112.109	26.5
113.391	30
114.672	31
115.954	30.5
117.235	30
118.515	34.5
119.796	28.5
121.076	30
122.357	29
123.637	36.5
124.916	34
126.196	29.5
127.475	31
128.754	35
130.033	34.5
131.31	33
132.589	34
133.867	38
135.145	33
136.423	33.5
137.701	34.5
138.978	37
140.256	39.5
141.533	32
142.809	42
144.086	36
145.361	40
146.637	36.5
147.913	39.5
149.189	37
150.464	40
151.74	39
153.014	37.5
154.288	43.5
155.563	43.5
156.838	41
158.112	43.5
159.385	37.5
160.659	41
161.932	41
163.206	40
164.479	36
165.751	41.5
167.024	40.5
168.296	37
169.567	41
170.84	38
172.112	40
173.383	40
174.654	39.5
175.925	36.5
177.196	41.5
178.466	38.5
179.737	39
181.007	41.5
182.276	36
183.546	39.5
184.816	42
186.085	42
187.354	42
188.624	42.5
189.891	42
191.16	39
192.427	36
193.696	36.5
194.964	38.5
196.231	42
197.499	37.5
198.765	36.5
200.033	39
201.298	37
202.566	39.5
203.831	35
205.098	39.5
206.363	39
207.629	34
208.894	36.5
210.159	33.5
211.424	36
212.689	36.5
213.953	35.5
215.218	33
216.481	32.5
217.746	30
219.009	33
220.273	30.5
221.536	32.5
222.798	33
224.062	37
225.323	30.5
226.587	31
227.848	34
229.109	32
230.372	32
231.633	34
232.894	30
234.156	37
235.416	37
236.678	28.5
237.937	30
239.197	29.5
240.457	28
241.717	27.5
242.976	33
244.235	31
245.495	27
246.754	28.5
248.012	29.5
249.27	29.5
250.529	31
251.787	25.5
253.045	29
254.302	30
255.56	27
256.817	29.5
258.074	33.5
259.33	28.5
260.586	28.5
261.844	26
263.1	28.5
264.355	29
265.611	31
266.866	29
268.121	26
269.377	31
270.632	30
271.886	29.5
273.14	29
274.394	28.5
275.648	28.5
276.902	29
278.155	26
279.408	29
280.663	25
281.915	30
283.168	27
284.42	30.5
285.673	29
286.925	28.5
288.176	30
289.428	29.5
290.679	26.5
291.93	30
293.181	28
294.432	26
295.683	28
296.933	27
298.183	27
299.433	30
300.683	30.5
301.932	32.5
303.182	28.5
304.429	28
305.678	27
306.927	28.5
308.176	30
309.424	29
310.672	29
311.92	30.5
313.168	25.5
314.415	27
315.661	31
316.908	28.5
318.155	32
319.402	28.5
320.648	24
321.895	29
323.139	29
324.385	28
325.631	27.5
326.877	25.5
328.122	28.5
329.366	25
330.611	26.5
331.855	28.5
333.1	28
334.343	30.5
335.587	27
336.831	30
338.074	26.5
339.317	27
340.56	27
341.803	24.5
343.044	29
344.287	28.5
345.53	26
346.771	28.5
348.013	27.5
349.255	30.5
350.495	29
351.736	27
352.978	28
354.217	30.5
355.458	24.5
356.699	33
357.938	28
359.178	29
360.417	26.5
361.657	29
362.895	28
364.135	27.5
365.374	26
366.612	32
367.851	32
369.088	26.5
370.327	27
371.564	29.5
372.802	26
374.038	29.5
375.276	28.5
376.512	28
377.749	25
378.985	28
380.222	26.5
381.457	29.5
382.692	28
383.929	27
385.164	24
386.4	25
387.634	27.5
388.869	25.5
390.103	33
391.337	24.5
392.572	28.5
393.805	27.5
395.038	26.5
396.273	29.5
397.506	28.5
398.74	28
399.972	24
401.204	26.5
402.437	27.5
403.669	28
404.901	28
406.132	28
407.365	30
408.596	27.5
409.826	27.5
411.058	25.5
412.289	26
413.519	30.5
414.749	27.5
415.98	27.5
417.21	28
418.439	29
419.668	22
420.897	31.5
422.128	25
423.356	29.5
424.585	24.5
425.813	27
427.041	24.5
428.269	29.5
429.498	25
430.725	28
431.952	29.5
433.179	31
434.406	31.5
435.633	22.5
436.859	26
438.085	29.5
439.312	30
440.537	26.5
441.764	26.5
442.99	30
444.215	28
445.44	31.5
446.665	28
447.89	28.5
449.114	31.5
450.339	28
451.563	26
452.787	29
454.01	30.5
455.234	27.5
456.457	34
457.68	30.5
458.903	30
460.126	30.5
461.348	31
462.569	31
463.792	30
465.013	28.5
466.235	31.5
467.457	30
468.678	32.5
469.899	35
471.12	36
472.341	34.5
473.56	35.5
474.781	38.5
476.001	42
477.221	42.5
478.441	43.5
479.66	49
480.878	45
482.098	48
483.317	51.5
484.535	57
485.754	56
486.971	57
488.189	59
489.407	58.5
490.625	63
491.842	60.5
493.059	59
494.276	49
495.493	61
496.709	47.5
497.926	53.5
499.142	47
500.357	47.5
501.573	43.5
502.789	44
504.003	42.5
505.219	41
506.434	36.5
507.648	37
508.863	37.5
510.078	34.5
511.291	34
512.505	38
513.718	33
514.932	36
516.145	34.5
517.358	32
518.572	31
519.783	31.5
520.997	30.5
522.208	31
523.421	31
524.632	30.5
525.844	31
527.055	31
528.266	31.5
529.477	31.5
530.688	32
531.898	27.5
533.109	29
534.319	28
535.53	32
536.739	30
537.948	33
539.158	29
540.366	30
541.576	27.5
542.784	29
543.994	30
545.201	31
546.409	26
547.618	30
548.825	30.5
550.032	29.5
551.24	26.5
552.447	24.5
553.654	29
554.861	23
556.067	28.5
557.273	30
558.48	22.5
559.686	30.5
560.891	22
562.096	29
563.302	25
564.507	28
565.712	28
566.916	29
568.122	31.5
569.326	30
570.529	29.5
571.733	27.5
572.936	28
574.141	25.5
575.344	27.5
576.547	29
577.75	28.5
578.952	26.5
580.154	28
581.358	24.5
582.56	24
583.761	31
584.963	27.5
586.164	32
587.365	31
588.566	27
589.767	27
590.967	26
592.168	27
593.369	28
594.569	30
595.769	28
596.969	30
598.168	31
599.367	27.5
600.566	27.5
601.765	24
602.964	30
604.162	28.5
605.361	28.5
606.559	28.5
607.757	30
608.953	28
610.151	28
611.348	26.5
612.545	27.5
613.742	29
614.939	29.5
616.135	26
617.332	26
618.528	29
619.724	28
620.918	28
622.114	29.5
623.309	28.5
624.505	23
625.7	32.5
626.895	26
628.088	28
629.282	29
630.477	30.5
631.671	30
632.865	27.5
634.057	28.5
635.251	27
636.444	28
637.637	32.5
638.829	32.5
640.022	28.5
641.214	30
642.407	30
643.598	25
644.79	26
645.982	28.5
647.172	30
648.364	30.5
649.555	26.5
650.745	28
651.936	29
653.126	32
654.315	27.5
655.506	28
656.696	28
657.885	30
659.074	28.5
660.263	31
661.452	27
662.64	26.5
663.829	25
665.018	31
666.205	29.5
667.394	30.5
668.581	28
669.769	25.5
670.955	33.5
672.143	34
673.329	34
674.517	28.5
675.703	29
676.89	30
678.075	31.5
679.262	30
680.447	29
681.632	32.5
682.818	36
684.002	35.5
685.188	37
686.372	34.5
687.556	34
688.741	34.5
689.925	30
691.11	35
692.293	34.5
693.476	37.5
694.66	32
695.843	32
697.025	37
698.209	30
699.391	35.5
700.573	39
701.756	37
702.938	41
704.119	43.5
705.3	37
706.483	38.5
707.664	50.5
708.844	53
710.025	53
711.206	50
712.386	45
713.566	44
714.746	37
715.925	39.5
717.106	35
718.285	35
719.464	32
720.643	29
721.822	29.5
723	31.5
724.178	28
725.358	31
726.536	27.5
727.713	30
728.891	27
730.068	30.5
731.245	29
732.422	27
733.599	27
734.775	28
735.952	26
737.128	24
738.304	30.5
739.48	26
740.656	30
741.831	30
743.006	27.5
744.181	26
745.356	28.5
746.531	27
747.706	29.5
748.88	28.5
750.054	28
751.228	29.5
752.402	32
753.576	32
754.749	23
755.922	25.5
757.095	25.5
758.267	28
759.44	26.5
760.612	21
761.785	27
762.957	27
764.129	31
765.301	26.5
766.471	23
767.642	26.5
768.814	26.5
769.985	27.5
771.156	28
772.325	29
773.495	30
774.666	28
775.836	29
777.005	28.5
778.174	29
779.344	32
780.513	29
781.681	30
782.85	29
784.019	33
785.187	28
786.355	33.5
787.523	32
788.69	30
789.858	27
791.026	32
792.192	29
793.36	30.5
794.526	29
795.693	25.5
796.86	31
798.025	33
799.191	27
800.356	24.5
801.523	32
802.689	28.5
803.853	29.5
805.019	27.5
806.183	25
807.348	28.5
808.512	29.5
809.677	28
810.84	30
812.005	29.5
813.167	27.5
814.332	31
815.494	29.5
816.657	26
817.82	25.5
818.982	31
820.146	27
821.307	27
822.47	26.5
823.632	27
824.793	29
825.955	26
827.116	27
828.277	27
829.439	29
830.599	28.5
831.759	27.5
832.92	26
834.08	30
835.24	26
836.4	29.5
837.56	30.5
838.719	26.5
839.877	26.5
841.037	26.5
842.196	30
843.354	26
844.512	30
845.672	28
846.83	21
847.987	24.5
849.145	26
850.302	26
851.46	28.5
852.617	28.5
853.774	24
854.93	29
856.087	28
857.243	24
858.4	29
859.556	30
860.712	27.5
861.867	23
863.022	30
864.177	26
865.332	31
866.487	27.5
867.642	26.5
868.796	27
869.95	30.5
871.104	29
872.258	27.5
873.412	27.5
874.565	31
875.718	28
876.872	26.5
878.024	25.5
879.177	28
880.33	26
881.482	32
882.635	30.5
883.787	25
884.938	29.5
886.09	27
887.242	26
888.393	28.5
889.544	29.5
890.695	23.5
891.845	24.5
892.995	24.5
894.146	26
895.296	28
896.446	24.5
897.596	24.5
898.744	27
899.894	25.5
901.043	24.5
902.193	26.5
903.342	28
904.489	27
905.638	25.5
906.786	27.5
907.935	26.5
909.081	28
910.229	26.5
911.377	25
912.525	25.5
913.671	23.5
914.818	29.5
915.965	26
917.111	27.5
918.258	26.5
919.404	28.5
920.549	27
921.695	25.5
922.84	26
923.986	28
925.132	27.5
926.276	25.5
927.421	24
928.565	29
929.71	28
930.855	29
931.998	21
933.142	25
934.285	26
935.429	23.5
936.572	27
937.716	29
938.858	29
940.001	26
941.143	22.5
942.286	21
943.428	25
944.57	25
945.712	27
946.854	25
947.995	27
949.135	25.5
950.277	25
951.418	23.5
952.559	25
953.699	24
954.839	30.5
955.98	22.5
957.119	29.5
958.258	23.5
959.399	23
960.538	22
961.676	21.5
962.816	24.5
963.955	26
965.093	27.5
966.232	24.5
967.37	23.5
968.508	22
969.645	27
970.784	27
971.921	26
973.058	23.5
974.195	27
975.333	28.5
976.469	26.5
977.605	23.5
978.741	25.5
979.877	27
981.013	23.5
982.15	27
983.285	25.5
984.421	25.5
985.556	27.5
986.691	26
987.825	24
988.96	28
990.094	25
991.228	26
992.364	24
993.497	27
994.631	28
995.765	22
996.898	29
998.031	22
999.164	23.5
1000.3	25
1001.43	26.5
1002.56	28.5
1003.69	27
1004.83	27
1005.96	26.5
1007.09	22
1008.22	27.5
1009.35	27
1010.48	25.5
1011.61	29
1012.74	25
1013.88	26
1015.01	24.5
1016.14	24.5
1017.27	26
1018.4	25
1019.53	22.5
1020.65	23
1021.78	25.5
1022.91	29.5
1024.04	25.5
1025.17	25.5
1026.3	23.5
1027.43	28.5
1028.56	24.5
1029.68	26
1030.81	28
1031.94	23.5
1033.07	28
1034.19	27.5
1035.32	24
1036.45	20.5
1037.58	30
1038.7	26
1039.83	25
1040.95	23.5
1042.08	24
1043.21	27
1044.33	27.5
1045.46	26
1046.58	24
1047.71	29.5
1048.83	28
1049.96	25
1051.08	22
1052.21	27
1053.33	23
1054.45	24
1055.58	29.5
1056.7	29.5
1057.82	29.5
1058.95	24
1060.07	27
1061.19	27
1062.32	25
1063.44	26
1064.56	27
1065.68	26.5
1066.81	23.5
1067.93	26.5
1069.05	24.5
1070.17	20
1071.29	25
1072.41	28.5
1073.53	23.5
1074.65	25
1075.77	25
1076.89	22
1078.01	23.5
1079.13	22
1080.25	24
1081.37	28
1082.49	28.5
1083.61	26
1084.73	20
1085.85	24.5
1086.97	24
1088.09	24.5
1089.2	24
1090.32	27
1091.44	26.5
1092.56	19
1093.68	24.5
1094.79	25
1095.91	26.5
1097.03	26
1098.14	21
1099.26	22
1100.38	24.5
1101.49	27
1102.61	23
1103.73	27
1104.84	25.5
1105.96	26.5
1107.07	23.5
1108.19	26.5
1109.3	22
1110.42	21.5
1111.53	25
1112.65	27
1113.76	26.5
1114.88	23
1115.99	28
1117.1	23
1118.22	24
1119.33	21.5
1120.44	23
1121.56	23.5
1122.67	28.5
1123.78	26
1124.89	25
1126.01	21.5
1127.12	24.5
1128.23	29
1129.34	24.5
1130.45	26
1131.56	23.5
1132.67	23.5
1133.79	25
1134.9	26.5
1136.01	26
1137.12	26
1138.23	24
1139.34	25.5
1140.45	23.5
1141.56	29.5
1142.67	27
1143.78	27
1144.89	21.5
1145.99	24
1147.1	25
1148.21	23
1149.32	22
1150.43	25
1151.54	24.5
1152.65	23
1153.75	25
1154.86	24
1155.97	26.5
1157.08	25.5
1158.18	21
1159.29	25.5
1160.4	25
1161.5	24
1162.61	21.5
1163.72	21.5
1164.82	24.5
1165.93	23.5
1167.03	22.5
1168.14	28
1169.24	26
1170.35	25.5
1171.45	25.5
1172.56	26
1173.66	24
1174.77	20
1175.87	24.5
1176.98	26
1178.08	24.5
1179.18	24
1180.29	24.5
1181.39	23.5
1182.49	23.5
1183.6	25
1184.7	25
1185.8	22.5
1186.9	21.5
1188	23
1189.11	24.5
1190.21	24
1191.31	23.5
1192.41	20
1193.51	25
1194.61	23.5072
1195.72	22.9809
1196.82	26.9102
1197.92	25.9497
1199.02	26.6066
1200.12	21.2387
1201.22	25.6941
1202.32	25.2816
1203.42	24.7937
1204.52	25.6812
1205.62	27.0287
1206.71	21.0645
1207.81	24.7184
1208.91	24.5831
1210.01	24.3418
1211.11	22.2736
1212.21	23.9181
1213.31	20.5917
1214.4	23.3794
1215.5	23.9578
1216.6	25.801
1217.7	23.8162
1218.79	25.4919
1219.89	24.3814
1220.99	25.6708
1222.08	23.9895
1223.18	23.7159
1224.28	22.5997
1225.37	21.2762
1226.47	27.2099
1227.56	26.6591
1228.66	22.3557
1229.76	24.6355
1230.85	21.4381
1231.95	24.1215
1233.04	22.491
1234.14	25.2672
1235.23	23.7515
1236.32	24.6176
1237.42	23.3525
1238.51	25.1352
1239.61	23.2556
1240.7	26.2959
1241.79	23.4593
1242.89	21.9824
1243.98	22.962
1245.07	27.59
1246.17	20.7472
1247.26	24.1231
1248.35	26.6338
1249.44	23.8794
1250.53	25.3269
1251.63	23.6934
1252.72	25.1364
1253.81	26.0446
1254.9	25
1255.99	25.955
1257.08	24.5752
1258.17	25.466
1259.27	26.7988
1260.36	27.4247
1261.45	26.4993
1262.54	29.1589
1263.63	27.1187
1264.72	25.6819
1265.81	25.6885
1266.89	25.9338
1267.98	25.6436
1269.07	24.8635
1270.16	24.2822
1271.25	25.3894
1272.34	25.1382
1273.43	23.9583
1274.52	23.2016
1275.6	24.2862
1276.69	24.986
1277.78	25.7359
1278.87	23.7926
1279.95	25.0987
1281.04	23.8523
1282.13	23.7816
1283.22	24.8765
1284.3	25.699
1285.39	25.0046
1286.48	23.1048
1287.56	24.6405
1288.65	24.181
1289.73	22.8983
1290.82	23.5345
1291.9	25.5173
1292.99	26.2587
1294.07	23.1595
1295.16	24.7131
1296.24	22.0742
1297.33	23.1926
1298.41	25.2659
1299.5	22.6993
1300.58	23.5589
1301.66	23.7219
1302.75	25.0844
1303.83	23.7405
1304.91	22.5146
1306	24.7122
1306.4	26
1307.48	23.5
1308.57	22.5
1309.66	24.5
1310.75	21
1311.84	22
1312.92	21
1314.01	24
1315.1	23.5
1316.18	24
1317.27	24
1318.36	22
1319.44	22.5
1320.53	23
1321.62	24.5
1322.7	19.5
1323.79	24.5
1324.87	23
1325.96	26
1327.04	22
1328.13	25
1329.21	25
1330.3	22.5
1331.38	25
1332.47	25
1333.55	23.5
1334.64	26
1335.72	22
1336.8	24
1337.89	24
1338.97	22
1340.05	25.5
1341.14	22
1342.22	23
1343.3	20.5
1344.38	21.5
1345.47	26.5
1346.55	25.5
1347.63	23.5
1348.71	23
1349.79	23.5
1350.87	25
1351.96	22
1353.04	22.5
1354.12	24.5
1355.2	24
1356.28	18
1357.36	28.5
1358.44	22
1359.52	24.5
1360.6	25.5
1361.68	23
1362.76	22.5
1363.84	26
1364.92	28
1366	25.5
1367.07	25.5
1368.15	23
1369.23	22.5
1370.31	22.5
1371.39	25.5
1372.47	26
1373.54	26
1374.62	27
1375.7	24
1376.78	23
1377.85	25.5
1378.93	25
1380.01	22.5
1381.08	26
1382.16	27
1383.24	27.5
1384.31	24.5
1385.39	25
1386.46	27
1387.54	22
1388.61	25.5
1389.69	25
1390.76	27.5
1391.84	23
1392.91	29
1393.99	26
1395.06	27.5
1396.14	22.5
1397.21	28.5
1398.29	25.5
1399.36	29
1400.43	32.5
1401.51	30.5
1402.58	28
1403.65	29.5
1404.72	29.5
1405.8	34
1406.87	27
1407.94	31.5
1409.02	31
1410.09	28
1411.16	30.5
1412.23	31.5
1413.3	30
1414.37	29.5
1415.44	30
1416.51	30
1417.59	29
1418.66	30.5
1419.73	31
1420.8	27.5
1421.87	27
1422.94	31.5
1424.01	29.5
1425.08	24.5
1426.15	27
1427.22	26.5
1428.28	27
1429.35	27
1430.42	25.5
1431.49	27.5
1432.56	27
1433.63	30
1434.7	28.5
1435.76	23.5
1436.83	27
1437.9	25.5
1438.97	25
1440.03	22.5
1441.1	27
1442.17	25
1443.23	26
1444.3	24.5
1445.37	27.5
1446.43	25
1447.5	23
1448.57	24.5
1449.63	27
1450.7	27.5
1451.76	25
1452.83	25.5
1453.89	27
1454.96	27
1456.02	24.5
1457.09	25
1458.15	27
1459.22	28.5
1460.28	27
1461.34	22
1462.41	29.5
1463.47	26
1464.53	25
1465.6	28
1466.66	27
1467.72	26
1468.78	25.5
1469.85	26
1470.91	23.5
1471.97	27
1473.03	24.5
1474.1	26.5
1475.16	22.5
1476.22	25.5
1477.28	24
1478.34	25
1479.4	26.5
1480.46	24.5
1481.52	25
1482.58	26
1483.65	27
1484.71	26
1485.77	28.5
1486.82	27.5
1487.89	24
1488.94	25.5
1490	24
1491.06	25
1492.12	23
1493.18	26.5
1494.24	24
1495.3	26.5
1496.36	28
1497.41	28.5
1498.47	25
1499.53	24
1500.59	25
1501.65	26.5
1502.7	24.5
1503.76	24
1504.82	24
1505.87	26.5
1506.93	21.5
1507.99	24
1509.04	26
1510.1	26.5
1511.16	23
1512.21	21.5
1513.27	23
1514.32	22.5
1515.38	25.5
1516.43	27.5
1517.49	25
1518.54	26
1519.6	25.5
1520.65	24
1521.71	30.5
1522.76	27
1523.81	25
1524.87	24.5
1525.92	26
1526.98	23
1528.03	24
1529.08	26.5
1530.14	23
1531.19	25
1532.24	29.5
1533.29	29
1534.35	25
1535.4	30
1536.45	26
1537.5	25.5
1538.55	22
1539.61	24.5
1540.66	27
1541.71	25.5
1542.76	28
1543.81	28
1544.86	25
1545.91	27
1546.96	23.5
1548.01	24
1549.06	27
1550.11	23.5
1551.16	24
1552.21	22
1553.26	25.5
1554.31	25.5
1555.36	24.5
1556.41	22
1557.46	22.5
1558.5	24.5
1559.55	23
1560.6	25
1561.65	24
1562.7	25
1563.74	25
1564.79	27
1565.84	27
1566.89	25
1567.93	25
1568.98	25.5
1570.03	25.5
1571.07	23
1572.12	24
1573.17	28.5
1574.21	26
1575.26	26
1576.3	27
1577.35	25.5
1578.4	28
1579.44	22.5
1580.49	28
1581.53	21.5
1582.58	24
1583.62	28.5
1584.66	25.5
1585.71	25.5
1586.75	22
1587.8	26
1588.84	23.5
1589.88	28.5
1590.93	26.5
1591.97	27
1593.01	23
1594.06	24
1595.1	29.5
1596.14	26
1597.18	26.5
1598.23	25
1599.27	25
1600.31	23.5
1601.35	23.5
1602.39	26.5
1603.44	26
1604.48	28
1605.52	29
1606.56	21
1607.6	26
1608.64	26
1609.68	27
1610.72	27.5
1611.76	29
1612.8	25
1613.84	23.5
1614.88	25.5
1615.92	24.5
1616.96	23
1618	28.5
1619.04	23.5
1620.08	26.5
1621.12	25
1622.16	23
1623.19	25.5
1624.23	23.5
1625.27	27
1626.31	24.5
1627.35	20
1628.38	29
1629.42	23.5
1630.46	26
1631.49	26
1632.53	28.5
1633.57	23
1634.6	23
1635.64	24.5
1636.68	25.5
1637.71	24.5
1638.75	23.5
1639.79	27.5
1640.82	22
1641.86	25
1642.89	27
1643.93	26.5
1644.96	24
1646	28
1647.03	29
1648.07	24.5
1649.1	25.5
1650.13	25.5
1651.17	22
1652.2	24.5
1653.24	22.5
1654.27	25
1655.3	23
1656.34	24
1657.37	25
1658.4	22.5
1659.43	22
1660.47	24
1661.5	26.5
1662.53	24
1663.56	29
1664.6	24
1665.63	27.5
1666.66	22
1667.69	24.5
1668.72	27
1669.75	28
1670.78	25
1671.81	29
1672.85	27
1673.88	26.5
1674.91	24
1675.94	24.5
1676.97	26
1678	23
1679.03	26.5
1680.06	27
1681.09	27
1682.11	23
1683.14	30
1684.17	25.5
1685.2	25
1686.23	28
1687.26	28
1688.29	23
1689.31	24
1690.34	26.5
1691.37	24.5
1692.4	24
1693.42	24
1694.45	26.5
1695.48	26
1696.51	26
1697.53	24
1698.56	26
1699.59	21.5
1700.61	24
1701.64	26.5
1702.66	26
1703.69	24
1704.72	25
1705.74	29.5
1706.77	23.5
1707.79	25.5
1708.82	27
1709.84	26.5
1710.87	21.5
1711.89	27.5
1712.91	25
1713.94	28
1714.96	27.5
1715.99	26.5
1717.01	22.5
1718.03	25.5
1719.06	22.5
1720.08	24.5
1721.1	22
1722.13	27.5
1723.15	30.5
1724.17	23
1725.19	25.5
1726.22	29.5
1727.24	24.5
1728.26	25.5
1729.28	23
1730.3	25
1731.33	22
1732.35	25
1733.37	24
1734.39	25.5
1735.41	26
1736.43	21
1737.45	23
1738.47	25
1739.49	26.5
1740.51	22.5
1741.53	27
1742.55	25.5
1743.57	24
1744.59	26.5
1745.61	26
1746.63	26.5
1747.65	28
1748.67	24
1749.69	24
1750.7	20
1751.72	26
1752.74	25
1753.76	26.5
1754.78	26
1755.79	25.5
1756.81	24
1757.83	28.5
1758.85	25
1759.86	24.5
1760.88	26.5
1761.9	24
1762.91	23
1763.93	28
1764.95	27.5
1765.96	25
1766.98	24
1767.99	23.5
1769.01	23.5
1770.02	26
1771.04	21.5
1772.06	28.5
1773.07	25
1774.09	24.5
1775.1	24
1776.11	23
1777.13	27
1778.14	24
1779.16	25.5
1780.17	22
1781.18	20
1782.2	25.5
1783.21	27
1784.22	22.5
1785.24	25
1786.25	25.5
1787.26	26.5
1788.28	22
1789.29	27
1790.3	20
1791.31	24.5
1792.33	20
1793.34	24
1794.35	29
1795.36	23.5
1796.37	21
1797.38	25
1798.39	25
1799.4	22.5
1800.42	25
1801.43	22.5
1802.44	25
1803.45	25
1804.46	23
1805.47	24
1806.48	22.5
1807.49	22
1808.5	24
1809.51	25.5
1810.51	23.5
1811.52	23.5
1812.53	22
1813.54	25
1814.55	28
1815.56	26
1816.57	28
1817.57	25
1818.58	26
1819.59	20.5
1820.6	24.5
1821.61	21.5
1822.61	24.5
1823.62	22
1824.63	26.5
1825.63	26
1826.64	24
1827.65	26
1828.65	25
1829.66	23
1830.67	26
1831.67	24
1832.68	25
1833.68	23
1834.69	25.5
1835.69	25
1836.7	26.5
1837.7	23
1838.71	22
1839.71	22.5
1840.72	25
1841.72	28
1842.73	24.5
1843.73	24
1844.73	23.5
1845.74	23.5
1846.74	26
1847.74	24
1848.75	21
1849.75	24.5
1850.75	29
1851.76	19
1852.76	22
1853.76	22
1854.76	22
1855.77	23
1856.77	21.5
1857.77	28.5
1858.77	22
1859.77	24
1860.77	25
1861.78	27
1862.78	21
1863.78	26
1864.78	22.5
1865.78	25
1866.78	23
1867.78	24
1868.78	19.5
1869.78	27
1870.78	33
1871.78	27.5
1872.78	25.5
1873.78	28.5
1874.78	27
1875.78	28
1876.78	22
1877.78	21
1878.77	25.5
1879.77	28
1880.77	25.5
1881.77	26
1882.77	25
1883.77	25
1884.76	22
1885.76	25
1886.76	25
1887.75	26.5
1888.75	24
1889.75	24
1890.75	27
1891.74	21.5
1892.74	20
1893.73	24.5
1894.73	26.5
1895.73	23.5
1896.72	23
1897.72	21
1898.71	27
1899.71	25
1900.7	20
1901.7	23.5
1902.69	27
1903.69	20
1904.68	22
1905.68	27.5
1906.67	22.5
1907.67	28.5
1908.66	27.5
1909.65	24.5
1910.65	24
1911.64	20
1912.63	23.5
1913.63	19
1914.62	27
1915.61	26.5
1916.61	22.5
1917.6	25.5
1918.59	25
1919.58	27.5
1920.58	24
1921.57	23.5
1922.56	21.5
1923.55	24
1924.54	25
1925.54	26
1926.53	26
1927.52	26
1928.51	24.5
1929.5	23.5
1930.49	22.5
1931.48	25
1932.47	27.5
1933.46	22.5
1934.45	28
1935.44	23
1936.43	24.5
1937.42	25.5
1938.41	27.5
1939.4	22.5
1940.39	26.5
1941.38	23
1942.37	25
1943.35	22.5
1944.34	22
1945.33	26
1946.32	24
1947.31	24
1948.3	23
1949.28	22
1950.27	21
1951.26	27.5
1952.25	27
1953.23	25
1954.22	23.5
1955.21	25
1956.19	24
1957.18	21.5
1958.17	22
1959.15	23
1960.14	24
1961.12	25
1962.11	24
1963.1	23.5
1964.08	25
1965.07	22
1966.05	21
1967.04	26
1968.02	24.5
1969.01	23
1969.99	22.5
1970.98	26
1971.96	23
1972.94	24
1973.93	23
1974.91	24.5
1975.9	24.5
1976.88	25.5
1977.86	25
1978.85	29
1979.83	26
1980.81	25.5
1981.79	20
1982.78	25.5
1983.76	23
1984.74	24
1985.72	24.5
1986.71	24
1987.69	21.5
1988.67	23.5
1989.65	26.5
1990.63	18
1991.61	26.5
1992.59	24
1993.57	21
1994.56	28.5
1995.54	25
1996.52	23.5
1997.5	23.5
1998.48	20.5
1999.46	22.5
2000.44	23.5
2001.42	21.5
2002.4	27
2003.38	23
2004.36	24
2005.33	27.5
2006.31	21
2007.29	24.5
2008.27	24
2009.25	24
2010.23	25
2011.21	24.5
2012.18	26.5
2013.16	25
2014.14	25
2015.12	26.5
2016.09	21
2017.07	21.5
2018.05	22.5
2019.03	22.5
2020	26
2020.98	24.5
2021.96	24
2022.93	25.5
2023.91	22
2024.89	24
2025.86	20.5
2026.84	20
2027.81	26.5
2028.79	23
2029.76	23.5
2030.74	26.5
2031.71	25
2032.69	21.5
2033.66	24
2034.64	23.5
2035.61	25
2036.59	23.5
2037.56	25
2038.54	26.5
2039.51	24.5
2040.48	20
2041.46	23
2042.43	22.5
2043.4	26.5
2044.38	24
2045.35	22
2046.32	22.5
2047.29	25
2048.27	24
2049.24	24
2050.21	24
2051.18	26
2052.16	22.5
2053.13	22
2054.1	22.5
2055.07	21.5
2056.04	21
2057.01	23
2057.98	22.5
2058.96	22.5
2059.93	23.5
2060.9	25
2061.87	21.5
2062.84	26
2063.81	24.5
2064.78	22.5
2065.75	22
2066.72	20.5
2067.69	22.5
2068.66	21.5
2069.63	22.5
2070.6	23.5
2071.56	25
2072.53	24.5
2073.5	25
2074.47	22
2075.44	23.5
2076.41	22
2077.38	22.5
2078.34	22.5
2079.31	24
2080.28	22.5
2081.25	23
2082.21	25.5
2083.18	23
2084.15	23.5
2085.11	21.5
2086.08	21.5
2087.05	26.5
2088.01	22.5
2088.98	21.5
2089.95	27
2090.91	26.5
2091.88	24
2092.84	24.5
2093.81	22
2094.78	21
2095.74	24.5
2096.71	23.5
2097.67	21.5
2098.64	22
2099.6	22
2100.57	22
2101.53	24
2102.49	23
2103.46	19.5
2104.42	26.5
2105.39	17.5
2106.35	24.5
2107.31	21.5
2108.28	26.5
2109.24	25
2110.2	23
2111.17	23
2112.13	23
2113.09	25
2114.05	23.5
2115.02	21
2115.98	26
2116.94	23.5
2117.9	23
2118.86	16
2119.83	28
2120.79	23.5
2121.75	25.5
2122.71	21
2123.67	23
2124.63	24.5
2125.59	23.5
2126.55	24
2127.51	26
2128.47	19.5
2129.43	24
2130.39	25.5
2131.35	24.5
2132.31	20
2133.27	22.5
2134.23	20.5
2135.19	25
2136.15	25
2137.11	22
2138.07	24
2139.03	25.5
2139.99	24.5
2140.94	20.5
2141.9	20
2142.86	19.9947
2143.82	23.0056
2144.78	20.1537
2145.73	21.0723
2146.69	25.8192
2147.65	26.3538
2148.61	22.6145
2149.56	20.103
2150.52	23.9322
2151.48	23.3155
2152.43	26.9113
2153.39	21.2477
2154.35	24.4573
2155.3	23.3034
2156.26	22.4111
2157.21	23.5863
2158.17	23.4006
2159.13	21.644
2160.08	20.8585
2161.04	26.2427
2161.99	23.4005
2162.95	24.1769
2163.9	22.8613
2164.86	22.9782
2165.81	24.243
2166.77	24.0325
2167.72	22.4786
2168.67	23.8847
2169.63	26.0182
2170.58	24.9481
2171.54	22.4779
2172.49	19.646
2173.44	24.4886
2174.4	23.2048
2175.35	22.345
2176.3	24.1512
2177.26	22.3503
2178.21	18.3822
2179.16	22.5053
2180.11	24.3083
2181.07	21.2694
2182.02	17.4209
2182.97	21.4516
2183.92	22.761
2184.87	19.0121
2185.82	23.9886
2186.78	22.0556
2187.73	23.8859
2188.68	20.1945
2189.63	20.1543
2190.58	21.6758
2191.53	22.9574
2192.48	24.0285
2193.43	23.2365
2194.38	22.7364
2195.33	22.2759
2196.28	21.6483
2197.23	23.1756
2198.18	21.9257
2199.13	21.9214
2200.08	21.7601
2201.03	19.2198
2201.98	22.1655
2202.93	24.7078
2203.88	21.0607
2204.83	22.514
2205.77	25.4144
2206.72	23.143
2207.67	22.569
2208.62	21.0287
2209.57	21.2367
2210.52	21.3329
2211.46	20.3796
2212.41	20.5728
2213.36	23.1755
2214.31	20.9295
2215.25	20.8629
2216.2	20.8094
2217.15	23.2511
2218.09	23.6166
2219.04	21.0814
2219.99	21.8754
2220.93	24.3953
2221.88	22.9436
2222.82	22.9121
2223.77	23.1078
2224.72	22.6796
2225.66	23.397
2226.61	24.7623
2227.55	25.8062
2228.5	23.6274
2229.44	23.2233
2230.39	24.4381
2231.33	22.9157
2232.28	24.5624
2233.22	23.3125
2234.16	23.0083
2235.11	25.4496
2236.05	22.981
2237	22.5927
2237.94	19.5612
2238.88	20.4175
2239.83	22.5207
2240.13	23
2241.08	23.5
2242.03	26
2242.98	23.5
2243.92	24.5
2244.87	21
2245.82	21.5
2246.76	22.5
2247.71	24
2248.66	25
2249.61	19.5
2250.55	23
2251.5	24.5
2252.45	25.5
2253.39	23.5
2254.34	20.5
2255.28	21
2256.23	21
2257.18	24
2258.12	19
2259.07	21.5
2260.01	25
2260.96	20.5
2261.9	21
2262.85	24
2263.79	21
2264.74	22.5
2265.68	22.5
2266.63	23
2267.57	23
2268.51	26.5
2269.46	19
2270.4	23
2271.35	22.5
2272.29	21
2273.23	22.5
2274.18	25
2275.12	22
2276.06	23
2277	21.5
2277.95	28
2278.89	17.5
2279.83	22.5
2280.78	23.5
2281.72	22
2282.66	24.5
2283.6	22.5
2284.54	23
2285.48	24
2286.43	21
2287.37	23.5
2288.31	22
2289.25	22.5
2290.19	23.5
2291.13	23
2292.07	22
2293.01	23.5
2293.95	24
2294.89	22.5
2295.83	26
2296.77	21
2297.71	27
2298.65	20
2299.59	22.5
2300.53	25.5
2301.47	21
2302.41	22.5
2303.35	24
2304.29	22
2305.22	24
2306.16	19
2307.1	23
2308.04	20
2308.98	23
2309.91	21.5
2310.85	27
2311.79	21
2312.73	22.5
2313.66	24.5
2314.6	21
2315.54	21
2316.48	22
2317.41	22
2318.35	19
2319.29	21
2320.22	22
2321.16	26.5
2322.09	20
2323.03	23
2323.97	22
2324.9	24.5
2325.84	23
2326.77	21
2327.71	24
2328.64	22
2329.58	23
2330.51	23
2331.45	24
2332.38	26
2333.32	24
2334.25	25
2335.18	25
2336.12	26
2337.05	26
2337.99	25
2338.92	21
2339.85	15.5
2340.79	25
2341.72	24.5
2342.65	23.5
2343.59	22
2344.52	21.5
2345.45	25
2346.38	26.5
2347.32	24
2348.25	24
2349.18	25
2350.11	24.5
2351.04	20
2351.98	22.5
2352.91	21.5
2353.84	21
2354.77	24.5
2355.7	24
2356.63	21.5
2357.56	24.5
2358.49	25.5
2359.42	25.5
2360.35	24
2361.28	22
2362.21	22.5
2363.14	22
2364.07	24.5
2365	24.5
2365.93	20.5
2366.86	24
2367.79	24
2368.72	24.5
2369.65	24
2370.58	26
2371.51	26
2372.44	22
2373.36	23.5
2374.29	27
2375.22	27.5
2376.15	18.5
2377.08	22.5
2378	27
2378.93	23.5
2379.86	21.5
2380.79	24.5
2381.71	24
2382.64	25.5
2383.57	24.5
2384.49	26.5
2385.42	21
2386.35	24
2387.27	24.5
2388.2	23
2389.13	25
2390.05	25.5
2390.98	25.5
2391.9	24
2392.83	25
2393.76	28
2394.68	21
2395.61	21
2396.53	24.5
2397.46	27
2398.38	21
2399.3	23.5
2400.23	27.5
2401.15	23
2402.08	24
2403	22.5
2403.93	21
2404.85	19
2405.77	26
2406.7	23
2407.62	21
2408.54	24
2409.47	24.5
2410.39	25
2411.31	25.5
2412.24	23
2413.16	21
2414.08	22.5
2415	23
2415.92	22
2416.85	23
2417.77	19
2418.69	24.5
2419.61	24.5
2420.53	22
2421.45	24
2422.38	27
2423.3	23
2424.22	23.5
2425.14	20.5
2426.06	26.5
2426.98	26.5
2427.9	24
2428.82	20.5
2429.74	26
2430.66	23
2431.58	23
2432.5	22.5
2433.42	21.5
2434.34	21
2435.26	22.5
2436.18	29
2437.1	28.5
2438.01	26
2438.93	23
2439.85	23
2440.77	28.5
2441.69	23.5
2442.61	19.5
2443.52	23.5
2444.44	26
2445.36	24.5
2446.28	24.5
2447.2	24
2448.11	22
2449.03	21.5
2449.95	22.5
2450.86	25.5
2451.78	23.5
2452.7	21.5
2453.61	21
2454.53	26.5
2455.45	23.5
2456.36	20.5
2457.28	26.5
2458.2	25.5
2459.11	24
2460.03	20.5
2460.94	23.5
2461.86	23.5
2462.77	21.5
2463.69	25
2464.6	24.5
2465.52	23.5
2466.43	23
2467.35	24
2468.26	26
2469.18	24
2470.09	21.5
2471	24
2471.92	25.5
2472.83	25
2473.74	24
2474.66	24.5
2475.57	26
2476.48	24
2477.4	24.5
2478.31	22
2479.22	23
2480.14	25
2481.05	24.5
2481.96	23
2482.87	23.5
2483.79	30.5
2484.7	26
2485.61	21
2486.52	23
2487.43	27
2488.34	25
2489.25	21
2490.17	27
2491.08	24
2491.99	25
2492.9	21
2493.81	23
2494.72	24.5
2495.63	25
2496.54	25
2497.45	19.5
2498.36	22.5
2499.27	23.5
2500.18	25.5
2501.09	31
2502	25.5
2502.91	23
2503.82	20.5
2504.73	27.5
2505.63	26.5
2506.54	20
2507.45	25
2508.36	23
2509.27	25.5
2510.18	23
2511.09	25
2511.99	22
2512.9	23
2513.81	23.5
2514.72	25
2515.62	24
2516.53	25.5
2517.44	23
2518.34	20.5
2519.25	24
2520.16	22.5
2521.06	24.5
2521.97	25.5
2522.88	26
2523.78	28.5
2524.69	25
2525.6	22.5
2526.5	26.5
2527.41	26.5
2528.31	23
2529.22	26.5
2530.12	28.5
2531.03	27.5
2531.93	24
2532.84	27
2533.74	23.5
2534.65	22
2535.55	24
2536.46	24.5
2537.36	24.5
2538.27	22
2539.17	27
2540.07	23
2540.98	26.5
2541.88	25
2542.78	25.5
2543.69	22.5
2544.59	27
2545.49	25.5
2546.4	24.5
2547.3	23
2548.2	24
2549.1	21.5
2550.01	25.5
2550.91	20.5
2551.81	24.5
2552.71	24
2553.61	21.5
2554.52	23
2555.42	23.5
2556.32	25
2557.22	24.5
2558.12	24.5
2559.02	24
2559.92	26.5
2560.82	23.5
2561.72	26.5
2562.62	24.5
2563.53	28
2564.43	27.5
2565.33	26.5
2566.23	26
2567.13	20
2568.03	24.5
2568.92	29
2569.82	26
2570.72	27.5
2571.62	24.5
2572.52	21.5
2573.42	20
2574.32	21
2575.22	23.5
2576.12	23
2577.02	23
2577.91	19
2578.81	28
2579.71	27.5
2580.61	22
2581.5	23
2582.4	24
2583.3	22
2584.2	23.5
2585.09	22
2585.99	23.5
2586.89	24.5
2587.78	25
2588.68	23
2589.58	23.5
2590.47	24.5
2591.37	27.5
2592.27	24
2593.16	23.5
2594.06	22
2594.95	27
2595.85	25
2596.75	28
2597.64	24.5
2598.54	26
2599.43	20
2600.33	25.5
2601.22	25
2602.12	25
2603.01	24.5
2603.9	30.5
2604.8	25
2605.69	24
2606.59	26
2607.48	24
2608.37	22
2609.27	26.5
2610.16	21.5
2611.05	22
2611.95	25.5
2612.84	23
2613.73	25.5
2614.63	24.5
2615.52	23.5
2616.41	22
2617.3	25
2618.2	26.5
2619.09	24
2619.98	25
2620.87	22
2621.76	25.5
2622.66	23.5
2623.55	26.5
2624.44	26.5
2625.33	23.5
2626.22	26
2627.11	24.5
2628	26
2628.9	25
2629.79	23.5
2630.68	25
2631.57	24
2632.46	24
2633.35	22.5
2634.24	24.5
2635.13	23
2636.02	22
2636.91	26
2637.8	25
2638.68	24
2639.57	21.5
2640.46	22
2641.35	24
2642.24	21
2643.13	25
2644.02	25.5
2644.91	24.5
2645.79	23
2646.68	25.5
2647.57	24
2648.46	19
2649.35	26.5
2650.23	26
2651.12	24.5
2652.01	26
2652.9	25
2653.78	24
2654.67	22.5
2655.56	26.5
2656.44	25.5
2657.33	23
2658.22	25
2659.1	26
2659.99	26
2660.88	23.5
2661.76	23.5
2662.65	22
2663.53	26
2664.42	24
2665.3	26.5
2666.19	25
2667.07	25
2667.96	19.5
2668.84	24
2669.73	25
2670.61	25
2671.5	23.5
2672.38	27
2673.27	26
2674.15	25.5
2675.04	22
2675.92	23.5
2676.8	21
2677.69	23
2678.57	23
2679.45	25
2680.34	28
2681.22	29
2682.1	26
2682.99	27
2683.87	23
2684.75	27
2685.63	23
2686.52	24
2687.4	24.5
2688.28	23
2689.16	25
2690.04	26
2690.93	25
2691.81	24
2692.69	28
2693.57	25.5
2694.45	21.5
2695.33	24.5
2696.21	24
2697.09	22.5
2697.97	27
2698.85	24.5
2699.74	21.5
2700.62	24.5
2701.5	25.5
2702.38	20
2703.26	23
2704.14	26
2705.02	28
2705.89	21.5
2706.77	22
2707.65	26.5
2708.53	21.5
2709.41	23
2710.29	24.5
2711.17	23.5
2712.05	26
2712.93	21.5
2713.8	26.5
2714.68	24.5
2715.56	23
2716.44	25
2717.32	23
2718.19	26
2719.07	27
2719.95	26
2720.83	24
2721.7	23
2722.58	24
2723.46	24
2724.33	25
2725.21	22.5
2726.09	22
2726.97	23
2727.84	23.5
2728.72	27.5
2729.59	23
2730.47	22
2731.35	27
2732.22	23
2733.1	29.5
2733.97	23
2734.85	24
2735.72	26
2736.6	23.5
2737.47	23.5
2738.35	25
2739.22	23
2740.1	26
2740.97	18.5
2741.84	27
2742.72	24
2743.59	21.5
2744.47	21
2745.34	28.5
2746.21	24
2747.09	24.5
2747.96	22
2748.83	19
2749.71	24
2750.58	25.5
2751.45	26
2752.33	24.5
2753.2	23
2754.07	23
2754.94	22
2755.82	22.5
2756.69	22.5
2757.56	26.5
2758.43	21.5
2759.3	24.5
2760.18	24.5
2761.05	25
2761.92	28
2762.79	25
2763.66	23
2764.53	24.5
2765.4	26
2766.27	21
2767.14	25.5
2768.01	26.5
2768.88	23
2769.75	23.5
2770.62	26.5
2771.49	20.5
2772.36	27
2773.23	23.5
2774.1	25
2774.97	23.5
2775.84	24
2776.71	25
2777.58	23
2778.45	24
2779.32	25
2780.19	26.5
2781.06	28
2781.92	26
2782.79	25
2783.66	24.5
2784.53	25
2785.4	24
2786.26	28
2787.13	25.5
2788	25
2788.87	22
2789.73	25.5
2790.6	25.5
2791.47	26.5
2792.34	23.5
2793.2	28
2794.07	27
2794.94	25
2795.8	25
2796.67	27.5
2797.53	28
2798.4	24
2799.27	26.5
2800.13	26.5
2801	25
2801.86	23
2802.73	21
2803.59	26.5
2804.46	22
2805.32	28.5
2806.19	31
2807.05	27
2807.92	24
2808.78	28
2809.65	31
2810.51	25.5
2811.38	25.5
2812.24	26
2813.1	26
2813.97	25
2814.83	25
2815.7	24.5
2816.56	23.5
2817.42	24.5
2818.29	25.5
2819.15	28.5
2820.01	23.5
2820.87	22.5
2821.74	28.5
2822.6	28
2823.46	24
2824.32	22
2825.19	27
2826.05	27.5
2826.91	27.5
2827.77	24
2828.63	26.5
2829.5	25
2830.36	27.5
2831.22	25
2832.08	24
2832.94	26
2833.8	26.5
2834.66	27
2835.52	25.5
2836.38	26.5
2837.24	27.5
2838.1	24
2838.96	26
2839.82	25
2840.68	24.5
2841.54	25.5
2842.4	23
2843.26	28.5
2844.12	28
2844.98	27.5
2845.84	20
2846.7	25.5
2847.56	26.5
2848.42	28
2849.28	26.5
2850.14	25.5
2850.99	27.5
2851.85	26.5
2852.71	21.5
2853.57	24.5
2854.43	25.5
2855.28	24
2856.14	28.5
2857	23
2857.86	25
2858.71	27
2859.57	25.5
2860.43	24
2861.28	26.5
2862.14	25
2863	25
2863.86	28
2864.71	28.5
2865.57	22
2866.42	28.5
2867.28	27
2868.14	26.5
2868.99	25
2869.85	29.5
2870.7	30
2871.56	30.5
2872.41	27
2873.27	28.5
2874.13	35
2874.98	30.5
2875.83	31
2876.69	34
2877.54	31
2878.4	31.5
2879.25	33
2880.11	35.5
2880.96	34
2881.81	31
2882.67	33.5
2883.52	35
2884.38	32.5
2885.23	36
2886.08	35
2886.94	32
2887.79	36.5
2888.64	37
2889.5	36.5
2890.35	33
2891.2	39
2892.05	42.5
2892.91	41.5
2893.76	40.5
2894.61	47
2895.46	47.5
2896.31	49
2897.17	54
2898.02	47
2898.87	51
2899.72	59
2900.57	59
2901.42	60.5
2902.27	60.5
2903.12	65
2903.98	65
2904.83	71
2905.68	64.5
2906.53	70
2907.38	69.5
2908.23	72.5
2909.08	67.5
2909.93	61.5
2910.78	59.5
2911.63	60.5
2912.48	58.5
2913.33	52.5
2914.18	53
2915.02	49
2915.87	44.5
2916.72	47
2917.57	38
2918.42	42.5
2919.27	42
2920.12	40
2920.97	39.5
2921.81	38.5
2922.66	35.5
2923.51	34
2924.36	33.5
2925.21	31
2926.05	27
2926.9	29.5
2927.75	30
2928.59	31.5
2929.44	29.5
2930.29	27
2931.14	25.5
2931.98	27
2932.83	31
2933.68	28
2934.52	29.5
2935.37	30.5
2936.21	32.5
2937.06	30
2937.91	31
2938.75	26
2939.6	28.5
2940.44	25
2941.29	23.5
2942.14	31.5
2942.98	28
2943.82	28.5
2944.67	29.5
2945.51	28.5
2946.36	23
2947.2	31
2948.05	25
2948.89	30
2949.74	31
2950.58	29.5
2951.43	30.5
2952.27	27
2953.11	31
2953.96	31.5
2954.8	36.5
2955.64	34
2956.49	36.5
2957.33	36.5
2958.17	36.5
2959.02	42
2959.86	38.5
2960.7	36
2961.54	42.5
2962.39	39
2963.23	40
2964.07	41.5
2964.91	48.5
2965.75	42
2966.6	42.5
2967.44	44.5
2968.28	40
2969.12	45
2969.96	34
2970.8	40
2971.64	39.9733
2972.48	37.956
2973.33	35.4879
2974.17	36.6099
2975.01	40.2313
2975.85	38.683
2976.69	34.8444
2977.53	31.9015
2978.37	30.9968
2979.21	27.8962
2980.05	30.5413
2980.89	30.144
2981.73	31.8933
2982.57	29.1274
2983.41	30.8674
2984.25	27.7771
2985.08	29.7791
2985.92	28.9053
2986.76	24.2813
2987.6	22.254
2988.44	26.3153
2989.28	24.5859
2990.12	24.2798
2990.96	26.5318
2991.79	25.7231
2992.63	26.6077
2993.47	26.349
2994.31	26
2995.14	26.4283
2995.98	25.2605
2996.82	25.5298
2997.66	25.9191
2998.49	25.5846
2999.33	22.081
3000.17	22.4524
3001	24.715
3001.84	20.6424
3002.68	24.2625
3003.51	23.5578
3004.35	23.5173
3005.19	23.9591
3006.02	25.8443
3006.86	23.9498
3007.7	24.7769
3008.53	21.039
3009.37	22.2791
3010.2	21.502
3011.04	23.8527
3011.87	20.7063
3012.71	22.3697
3013.54	22.9659
3014.38	23.827
3015.21	22.6275
3016.05	22.2357
3016.88	23.4417
3017.72	22.9113
3018.55	24.9019
3019.39	25.4954
3020.22	24.4816
3021.05	19.2869
3021.89	20.1527
3022.72	24.2879
3023.55	23
3024.39	23.3875
3025.22	23.6098
3026.05	21.3191
3026.89	21.4799
3027.72	22.034
3028.55	22.7343
3029.39	23.5718
3030.22	23.9466
3031.05	23.356
3031.88	22.3887
3032.72	22.7072
3033.55	22.0672
3034.38	22.2212
3035.21	21.366
3036.04	20.3668
3036.88	20.7979
3037.71	23.3791
3038.54	22.8416
3039.37	22.1146
3040.2	20.939
3041.03	20.641
3041.86	22.3903
3042.69	21.9936
3043.52	22.3438
3044.36	23.9829
3045.19	25.9857
3046.02	23.69
3046.85	21.4365
3047.68	20.8334
3048.51	20.1837
3049.34	21.4477
3050.17	24.1347
3051	23.6722
3051.83	22.3193
3052.66	22.7148
3053.48	22.4615
3054.31	22.949
3055.14	23.7831
3055.97	25.2074
3056.8	24.8458
3057.29	24
3058.12	22
3058.95	19
3059.79	22.5
3060.62	24
3061.45	23
3062.29	22
3063.12	26
3063.95	23
3064.78	24.5
3065.62	25.5
3066.45	23
3067.28	21.5
3068.11	23
3068.94	21
3069.77	22.5
3070.61	23
3071.44	25
3072.27	20
3073.1	26
3073.93	23
3074.76	23.5
3075.59	26
3076.42	23.5
3077.25	20.5
3078.08	27
3078.92	24.5
3079.74	23
3080.57	24.5
3081.41	24
3082.24	28
3083.06	24
3083.89	21.5
3084.72	26
3085.55	20.5
3086.38	23
3087.21	24
3088.04	23.5
3088.87	22
3089.7	23
3090.53	23.5
3091.36	23
3092.18	25
3093.01	20
3093.84	22
3094.67	20
3095.5	25
3096.32	20
3097.15	26
3097.98	24
3098.81	23
3099.64	19.5
3100.46	19
3101.29	24
3102.12	23
3102.94	17
3103.77	26
3104.6	23.5
3105.42	23.5
3106.25	23
3107.08	21
3107.9	26
3108.73	21
3109.56	23
3110.38	23.5
3111.21	19.5
3112.03	24
3112.86	22.5
3113.68	23.5
3114.51	26.5
3115.33	24
3116.16	24
3116.98	26
3117.81	23
3118.63	23
3119.46	22
3120.28	24
3121.11	27
3121.93	22.5
3122.76	23
3123.58	23.5
3124.4	25.5
3125.23	21.5
3126.05	21.5
3126.87	25
3127.7	23.5
3128.52	27
3129.34	28
3130.17	23
3130.99	22.5
3131.81	21
3132.64	25
3133.46	24
3134.28	23.5
3135.1	23.5
3135.93	23.5
3136.75	23
3137.57	24
3138.39	21.5
3139.21	21
3140.04	28
3140.86	24.5
3141.68	25.5
3142.5	25
3143.32	22.5
3144.14	23
3144.96	26.5
3145.78	20.5
3146.61	23.5
3147.43	24
3148.25	26.5
3149.07	25.5
3149.89	23
3150.71	22
3151.53	22.5
3152.35	23
3153.17	21
3153.99	23.5
3154.81	23
3155.63	25
3156.45	24
3157.27	21
3158.08	22
3158.9	23
3159.72	26
3160.54	24
3161.36	21
3162.18	23
3163	21.5
3163.82	26
3164.63	24
3165.45	21
3166.27	26.5
3167.09	23.5
3167.91	19
3168.72	23
3169.54	22
3170.36	26.5
3171.18	23
3171.99	22
3172.81	21
3173.63	25
3174.44	25.5
3175.26	18.5
3176.08	25.5
3176.89	22.5
3177.71	20.5
3178.53	22
3179.34	21
3180.16	20
3180.97	18.5
3181.79	23
3182.61	24
3183.42	26
3184.24	24
3185.05	24
3185.87	24
3186.68	26
3187.5	22
3188.31	23.5
3189.13	22
3189.94	22
3190.76	24
3191.57	18.5
3192.39	23.5
3193.2	22
3194.02	23
3194.83	24.5
3195.64	23
3196.46	24
3197.27	23
3198.08	22
3198.9	22.5
3199.71	24.5
3200.52	26
3201.34	23
3202.15	22.5
3202.96	26
3203.78	23.5
3204.59	22
3205.4	25
3206.21	24
3207.03	24.5
3207.84	23.5
3208.65	24
3209.46	21
3210.27	24.5
3211.09	20
3211.9	23
3212.71	24
3213.52	25
3214.33	21.5
3215.14	20
3215.95	23
3216.77	25.5
3217.58	23
3218.39	21
3219.2	25.5
3220.01	23
3220.82	21
3221.63	23
3222.44	22.5
3223.25	22.5
3224.06	22.5
3224.87	20
3225.68	25
3226.49	22.5
3227.3	22.5
3228.11	24.5
3228.92	24.5
3229.73	25.5
3230.53	30
3231.34	23
3232.15	23
3232.96	21.5
3233.77	23.5
3234.58	21.5
3235.39	19
3236.19	24.5
3237	21
3237.81	24
3238.62	22
3239.43	20
3240.23	24
3241.04	23
3241.85	23
3242.66	25
3243.46	23
3244.27	25.5
3245.08	25
3245.89	26.5
3246.69	25
3247.5	22
3248.31	19.5
3249.11	27
3249.92	24.5
3250.72	24
3251.53	21.5
3252.34	27
3253.14	21.5
3253.95	24.5
3254.75	21
3255.56	25.5
3256.36	24.5
3257.17	23.5
3257.98	24.5
3258.78	24
3259.59	24.5
3260.39	20.5
3261.19	22
3262	22.5
3262.8	22
3263.61	25.5
3264.41	24
3265.22	23
3266.02	24.5
3266.83	27
3267.63	24
3268.43	24
3269.24	18.5
3270.04	25
3270.84	23.5
3271.65	25.5
3272.45	22.5
3273.25	24.5
3274.06	22.5
3274.86	23
3275.66	26
3276.46	25
3277.27	21
3278.07	27.5
3278.87	24.5
3279.67	23.5
3280.48	22.5
3281.28	20
3282.08	24
3282.88	21
3283.68	22.5
3284.48	24.5
3285.29	27.5
3286.09	23.5
3286.89	21
3287.69	28
3288.49	23
3289.29	23.5
3290.09	27.5
3290.89	21
3291.69	22.5
3292.49	23.5
3293.29	27
3294.09	23.5
3294.89	22
3295.69	20
3296.49	24
3297.29	21
3298.09	24
3298.89	25
3299.69	21.5
3300.49	27.5
3301.29	22.5
3302.09	22
3302.89	25.5
3303.69	24.5
3304.49	21
3305.28	24.5
3306.08	26
3306.88	22.5
3307.68	24
3308.48	28
3309.28	24.5
3310.07	27
3310.87	22.5
3311.67	25.5
3312.47	24
3313.26	22
3314.06	22
3314.86	28.5
3315.66	26.5
3316.45	19
3317.25	24
3318.05	22.5
3318.84	22
3319.64	24
3320.44	20.5
3321.23	21
3322.03	22.5
3322.83	25
3323.62	23
3324.42	22
3325.21	20.5
3326.01	25.5
3326.81	29.5
3327.6	24.5
3328.4	25.5
3329.19	22
3329.99	21
3330.78	24
3331.58	23.5
3332.37	26.5
3333.17	26
3333.96	20
3334.76	23.5
3335.55	25
3336.34	23
3337.14	23.5
3337.93	24
3338.73	21
3339.52	23.5
3340.31	22
3341.11	21
3341.9	24
3342.69	23
3343.49	24
3344.28	22.5
3345.07	24.5
3345.87	26
3346.66	23
3347.45	26
3348.25	22
3349.04	25.5
3349.83	25
3350.62	27
3351.42	24
3352.21	22.5
3353	23.5
3353.79	25.5
3354.58	28
3355.37	23
3356.17	26
3356.96	25.5
3357.75	26
3358.54	24
3359.33	22
3360.12	27
3360.91	22
3361.7	23.5
3362.49	25.5
3363.29	24
3364.08	22.5
3364.87	23.5
3365.66	20.5
3366.45	24
3367.24	21.5
3368.03	20.5
3368.82	23
3369.61	23
3370.4	25.5
3371.19	19
3371.97	24.5
3372.76	25.5
3373.55	22.5
3374.34	26.5
3375.13	21
3375.92	25
3376.71	23
3377.5	27
3378.29	28.5
3379.07	26
3379.86	27.5
3380.65	28.5
3381.44	23.5
3382.23	22
3383.01	26.5
3383.8	25
3384.59	24
3385.38	25.5
3386.16	24.5
3386.95	26
3387.74	23.5
3388.53	24.5
3389.31	25.5
3390.1	21.5
3390.89	25.5
3391.67	25.5
3392.46	23
3393.25	21
3394.03	25
3394.82	22
3395.6	24
3396.39	19
3397.18	22
3397.96	24.5
3398.75	26
3399.53	21
3400.32	26.5
3401.1	22.5
3401.89	23.5
3402.67	22
3403.46	24
3404.24	25.5
3405.03	24.5
3405.81	26
3406.6	24.5
3407.38	21
3408.17	26
3408.95	24
3409.74	27.5
3410.52	21.5
3411.3	22
3412.09	26
3412.87	25
3413.65	22.5
3414.44	23.5
3415.22	19
3416	22
3416.79	22
3417.57	24
3418.35	23
3419.14	26.5
3419.92	24.5
3420.7	25.5
3421.48	26.5
3422.27	20
3423.05	24.5
3423.83	21
3424.61	24
3425.4	22.5
3426.18	23
3426.96	26
3427.74	22
3428.52	21
3429.3	25
3430.08	23.5
3430.87	27.5
3431.65	24
3432.43	23
3433.21	28
3433.99	24.5
3434.77	24
3435.55	25
3436.33	23.5
3437.11	19
3437.89	25.5
3438.67	22.5
3439.45	22.5
3440.23	25
3441.01	22.5
3441.79	22.5
3442.57	25
3443.35	23.5
3444.13	24.5
3444.91	23
3445.69	25.5
3446.47	26.5
3447.25	24
3448.03	26
3448.8	25
3449.58	28.5
3450.36	22
3451.14	24
3451.92	26
3452.7	25.5
3453.47	26.5
3454.25	21
3455.03	19.5
3455.81	23.5
3456.59	24
3457.36	18.5
3458.14	24.5
3458.92	27
3459.69	23
3460.47	28
3461.25	22
3462.03	24.5
3462.8	27.5
3463.58	23
3464.36	23
3465.13	21.5
3465.91	20
3466.69	24.5
3467.46	22
3468.24	23.5
3469.01	23
3469.79	23
3470.57	23.5
3471.34	28.5
3472.12	21.5
3472.89	21.5
3473.67	25
3474.44	23
3475.22	24
3475.99	25
3476.77	27.5
3477.54	22
3478.32	24
3479.09	25.5
3479.87	25
3480.64	26
3481.41	24
3482.19	23
3482.96	22.5
3483.74	24
3484.51	22
3485.28	22
3486.06	24.5
3486.83	26
3487.6	24
3488.38	26.5
3489.15	25
3489.92	18.5
3490.7	24.5
3491.47	26.5
3492.24	25.5
3493.01	24
3493.79	23
3494.56	22.5
3495.33	22
3496.1	21.5
3496.88	23
3497.65	22
3498.42	20.5
3499.19	23.5
3499.96	20
