#Acq. time (s)=	5
#Accumulations=	5
#Range (cm-¹)=	100...3500
#Windows=	4
#Autofocus=	Off
#AutoExposure=	Off
#Spike filter=	Multiple accum.
#Delay time (s)=	0
#Binning=	1
#Readout mode=	Signal
#DeNoise=	Off
#ICS correction=	Off
#Dark correction=	Off
#Inst. Process=	Off
#Instrument=	LabRAM HR Evol
#Detector=	Syncerity OE
#Objective=	x100_VIS
#Grating=	600 (500nm)
#ND Filter=	25%
#Laser=	633nm_Edge
#Hole=	100.021
#Range=	Visible
#Project=	verificaciones
#Sample=	at4
#Site=	plain
#Title=	bolusat4plain
#Remark=	
#Date=	14.01.2026 13:38
#Acquired=	14.01.2026 13:38:43
100.618	30
101.901	34
103.185	36
104.468	29.5
105.751	30.5
107.033	31
108.316	32.5
109.598	33
110.88	28
112.162	31.5
113.445	29
114.727	32.5
116.008	29.5
117.289	36.5
118.57	29.5
119.85	32.5
121.13	30.5
122.411	33.5
123.691	33
124.97	34.5
126.25	35.5
127.529	33
128.808	33
130.086	31.5
131.364	34
132.643	38.5
133.921	32.5
135.199	34
136.477	37
137.755	38.5
139.032	35
140.309	33.5
141.586	34
142.863	35.5
144.14	37
145.415	38.5
146.691	40
147.967	40
149.243	40
150.518	38.5
151.794	39
153.067	38.5
154.342	39.5
155.617	39
156.892	44.5
158.166	37
159.439	41
160.712	43.5
161.986	45.5
163.26	42
164.531	40
165.805	40
167.077	38.5
168.35	39
169.621	38.5
170.893	39
172.165	41.5
173.437	41
174.707	39
175.979	42
177.25	42.5
178.519	40
179.79	41.5
181.061	39
182.33	39
183.6	40.5
184.87	41
186.138	41.5
187.408	38.5
188.676	44.5
189.945	42.5
191.214	43.5
192.481	38.5
193.75	41
195.016	37
196.285	36
197.552	38.5
198.819	41.5
200.086	43
201.352	37.5
202.619	36
203.884	38.5
205.151	41.5
206.416	34.5
207.682	40
208.947	35.5
210.213	36
211.477	37
212.742	31
214.006	33.5
215.271	35
216.535	38
217.799	39
219.062	31.5
220.326	33.5
221.589	36.5
222.851	32.5
224.115	30.5
225.377	32.5
226.64	34
227.901	32.5
229.163	31
230.425	36.5
231.686	32.5
232.947	31
234.209	30.5
235.469	26
236.729	32
237.991	33
239.25	31
240.51	31.5
241.771	30
243.03	34.5
244.288	33
245.549	32
246.807	33
248.065	27
249.323	32
250.583	30
251.84	32
253.098	28.5
254.355	26
255.613	24.5
256.87	27.5
258.127	30
259.383	34
260.639	29
261.897	31.5
263.153	28
264.408	31
265.664	26.5
266.919	31
268.174	33
269.43	29
270.685	28.5
271.939	29
273.193	26
274.447	28
275.701	27
276.955	33.5
278.208	29
279.461	31
280.714	28.5
281.968	27
283.221	32.5
284.473	34
285.726	31
286.977	27
288.229	28
289.481	29
290.732	28.5
291.983	32.5
293.234	27
294.485	24
295.736	31
296.986	29
298.236	34
299.486	29
300.736	30
301.985	28.5
303.233	31
304.482	32
305.731	28
306.98	29.5
308.228	31
309.477	27.5
310.725	28.5
311.973	30.5
313.22	31.5
314.468	32.5
315.714	30
316.961	32
318.208	28.5
319.455	27
320.701	29
321.947	29
323.192	29
324.438	29
325.684	25.5
326.929	27.5
328.175	31.5
329.418	30.5
330.663	26
331.908	26.5
333.152	27
334.395	27
335.639	32
336.883	35
338.127	30
339.369	31.5
340.612	30
341.855	28.5
343.097	31.5
344.34	30.5
345.582	30
346.823	25.5
348.065	29
349.307	28
350.547	31.5
351.789	28
353.03	31
354.27	32
355.511	27
356.75	30.5
357.991	26.5
359.231	29
360.47	27.5
361.709	30.5
362.948	29
364.187	28
365.427	31.5
366.664	27.5
367.903	32.5
369.14	29
370.379	28
371.616	31
372.854	31.5
374.091	29
375.328	31
376.564	30
377.802	30
379.037	27
380.274	30.5
381.51	26.5
382.745	29
383.981	28
385.216	29.5
386.452	32
387.686	30
388.922	28
390.155	28.5
391.389	24.5
392.624	25.5
393.857	29
395.091	31.5
396.325	27
397.558	29.5
398.79	31.5
400.024	32.5
401.256	29
402.488	28.5
403.721	29
404.953	26.5
406.184	30.5
407.417	31
408.648	32
409.878	30
411.109	24
412.341	29.5
413.571	28
414.801	27
416.031	28
417.262	29
418.491	29
419.72	28.5
420.949	28.5
422.178	29.5
423.408	26.5
424.637	27
425.865	31
427.093	30
428.32	31
429.548	26.5
430.777	31.5
432.004	30.5
433.231	29
434.458	28
435.685	29
436.911	30.5
438.137	29.5
439.363	30
440.589	30
441.815	29.5
443.042	31.5
444.267	25.5
445.492	32.5
446.717	33
447.942	34.5
449.166	33
450.39	27
451.615	26
452.838	31.5
454.062	32
455.286	29
456.509	31.5
457.732	27
458.955	32.5
460.178	33
461.399	32.5
462.621	29.5
463.843	34
465.065	33
466.287	31
467.508	33.5
468.73	32
469.951	36.5
471.172	38
472.393	36.5
473.612	40
474.832	33
476.052	44
477.272	43
478.492	44
479.712	46
480.93	48.5
482.149	53
483.368	52
484.587	50.5
485.806	57
487.023	58.5
488.241	57.5
489.459	61
490.677	57
491.893	59.5
493.111	56
494.328	52
495.543	49.5
496.76	48.5
497.977	50
499.194	47.5
500.409	43.5
501.625	43
502.841	40
504.055	36.5
505.27	41
506.486	38
507.699	40
508.914	39
510.128	34
511.342	32
512.557	35.5
513.77	34.5
514.984	36
516.196	31
517.41	37.5
518.623	34.5
519.835	38
521.048	30.5
522.259	32
523.472	33
524.683	32.5
525.895	32
527.106	28
528.318	33.5
529.528	34.5
530.74	33.5
531.949	31
533.161	31.5
534.37	30.5
535.581	31
536.79	28.5
537.999	26.5
539.209	33
540.418	25
541.627	30
542.835	31.5
544.043	32
545.253	26.5
546.46	29
547.669	30
548.876	35.5
550.083	29.5
551.292	28
552.498	29
553.705	32
554.912	28.5
556.118	28
557.324	31
558.53	31
559.737	25
560.942	29
562.147	32
563.353	28.5
564.558	28.5
565.763	25
566.967	27.5
568.173	26.5
569.377	29
570.58	28
571.784	35
572.987	30
574.192	27
575.395	29
576.598	28.5
577.8	26.5
579.003	27
580.205	30.5
581.407	29
582.61	29.5
583.812	33.5
585.014	31
586.215	32.5
587.416	24
588.617	29
589.818	28.5
591.018	27
592.219	29
593.419	31.5
594.619	25
595.819	27
597.02	30
598.219	25
599.418	28
600.617	29.5
601.816	32
603.015	29
604.213	30
605.41	28
606.608	27
607.806	27.5
609.004	32
610.201	26
611.399	28
612.596	29.5
613.793	29.5
614.989	30
616.186	34
617.382	29
618.579	27.5
619.775	29
620.969	27
622.165	30
623.36	30.5
624.555	28
625.75	30.5
626.945	28.5
628.139	27
629.333	31
630.527	28.5
631.721	28
632.915	32
634.108	24.5
635.301	27
636.495	28.5
637.688	28.5
638.88	35.5
640.072	30
641.265	26
642.456	31
643.648	28
644.84	29
646.032	28.5
647.222	28.5
648.414	27.5
649.605	30.5
650.795	27.5
651.986	26
653.177	29
654.366	30
655.556	31
656.745	30
657.935	28
659.125	30.5
660.313	30
661.503	30.5
662.69	30
663.879	31.5
665.067	27.5
666.256	30.5
667.444	29
668.631	33
669.819	31.5
671.006	32.5
672.194	28.5
673.38	34
674.567	33.5
675.753	33.5
676.94	36
678.125	30
679.311	29
680.497	31.5
681.682	35
682.868	35.5
684.053	34
685.238	32.5
686.422	30
687.606	30
688.792	36
689.975	34
691.159	35
692.343	33.5
693.526	34.5
694.71	36.5
695.893	35.5
697.076	32
698.259	36.5
699.441	34.5
700.623	36
701.805	36
702.988	41.5
704.169	45.5
705.35	48.5
706.533	48
707.714	53
708.894	46
710.075	46
711.255	43.5
712.436	43
713.616	42
714.796	37.5
715.975	29
717.155	32
718.335	32
719.514	32
720.693	25
721.872	28.5
723.05	30
724.228	33
725.406	32.5
726.585	31
727.763	27.5
728.941	27.5
730.118	28
731.295	32.5
732.472	27
733.649	26
734.825	24.5
736.002	29
737.178	30
738.354	25
739.53	32.5
740.705	26
741.881	30.5
743.056	27
744.231	28.5
745.406	27.5
746.581	29.5
747.755	32
748.93	30
750.104	29.5
751.278	33
752.452	32
753.625	26
754.799	26.5
755.972	31
757.144	27
758.317	29
759.489	29
760.662	29
761.834	26
763.006	29
764.178	28.5
765.349	32.5
766.521	27
767.692	27
768.863	25
770.034	28.5
771.204	29.5
772.374	31
773.545	29.5
774.715	31
775.885	25.5
777.054	27.5
778.224	30.5
779.393	31.5
780.562	30
781.731	32.5
782.9	33
784.069	32.5
785.236	31
786.405	35
787.573	28.5
788.74	30
789.908	29
791.074	30.5
792.242	29.5
793.409	29
794.575	29
795.742	29.5
796.909	33
798.074	31.5
799.241	30
800.406	30
801.572	33
802.737	31
803.902	31
805.067	31
806.232	30.5
807.396	31
808.561	29
809.725	26.5
810.889	30.5
812.052	31.5
813.217	29
814.38	32
815.544	28.5
816.706	27.5
817.87	27
819.032	28
820.195	25.5
821.357	27.5
822.518	29
823.681	26.5
824.842	24.5
826.005	27.5
827.165	25
828.326	28.5
829.488	31.5
830.648	27.5
831.808	27.5
832.97	31
834.129	27.5
835.289	25
836.45	26
837.609	26.5
838.768	29.5
839.927	28
841.087	26
842.245	27
843.404	29.5
844.562	31
845.721	24
846.879	26
848.036	31.5
849.194	30.5
850.351	26.5
851.509	35.5
852.666	28
853.823	25
854.979	32
856.136	28.5
857.292	30.5
858.448	28.5
859.605	29.5
860.761	32
861.916	29.5
863.071	30.5
864.226	30.5
865.381	29
866.536	32
867.691	27
868.845	31
869.999	29.5
871.153	28.5
872.307	26
873.461	27.5
874.614	30.5
875.767	30.5
876.92	28.5
878.073	28
879.226	29
880.379	27.5
881.531	33
882.683	30
883.835	29.5
884.987	26.5
886.139	27
887.291	24
888.442	25.5
889.593	27
890.743	26
891.893	25
893.044	26
894.195	22.5
895.345	29.5
896.495	28.5
897.643	27
898.793	32
899.943	29.5
901.092	31.5
902.241	28
903.389	29.5
904.538	26.5
905.687	29
906.835	27.5
907.982	28.5
909.13	29
910.278	29.5
911.426	25
912.572	26
913.72	31
914.867	30.5
916.013	27.5
917.16	26
918.306	23
919.451	27
920.598	27.5
921.744	29
922.889	28.5
924.035	27
925.18	28
926.324	30
927.47	24
928.614	27.5
929.758	29
930.902	26
932.047	29.5
933.191	26.5
934.334	26
935.478	26.5
936.621	28.5
937.764	26.5
938.906	25.5
940.05	28
941.192	31
942.335	25
943.476	23.5
944.619	29
945.76	26.5
946.901	30.5
948.043	27
949.184	23
950.326	27
951.466	24
952.606	26.5
953.747	27
954.887	26
956.028	27.5
957.167	29
958.307	26
959.447	28
960.586	22
961.725	28
962.865	26.5
964.003	27.5
965.141	27
966.279	27.5
967.418	23.5
968.556	29.5
969.693	24.5
970.831	25.25
971.969	24
973.106	29.5
974.243	29.5
975.38	25
976.517	27
977.654	31
978.79	23.5
979.926	26.5
981.061	24
982.197	29.5
983.334	29.5
984.469	25.5
985.604	31.5
986.739	26
987.873	26
989.008	27.5
990.142	27
991.277	24.5
992.411	24.5
993.544	29
994.679	31
995.813	23.5
996.946	24.5
998.079	26
999.212	27.5
1000.35	25.5
1001.48	26.5
1002.61	30
1003.74	28
1004.87	26
1006.01	28
1007.14	27
1008.27	31
1009.4	26
1010.53	26
1011.66	25
1012.79	27.5
1013.92	27.5
1015.05	29.5
1016.18	23
1017.31	25.5
1018.44	27.5
1019.57	26
1020.7	24
1021.83	23.5
1022.96	29.5
1024.09	29
1025.22	28
1026.35	26
1027.48	22.5
1028.6	26
1029.73	24
1030.86	27.5
1031.99	26.5
1033.12	29.5
1034.24	28
1035.37	28.5
1036.5	26
1037.62	24
1038.75	25
1039.88	23.5
1041	25.5
1042.13	27
1043.25	24
1044.38	27
1045.5	27
1046.63	26.5
1047.76	24.5
1048.88	30
1050	27.5
1051.13	26
1052.25	23.5
1053.38	27.5
1054.5	22.5
1055.63	26
1056.75	26
1057.87	24.5
1058.99	28.5
1060.12	26
1061.24	28.5
1062.36	26
1063.49	25.5
1064.61	28.5
1065.73	26.5
1066.85	23
1067.97	21.5
1069.1	26
1070.22	25.5
1071.34	27
1072.46	25
1073.58	25
1074.7	28.5
1075.82	25.5
1076.94	26
1078.06	28.5
1079.18	25
1080.3	24.5
1081.42	22
1082.54	28.5
1083.66	26.5
1084.78	26
1085.9	25.5
1087.02	29.5
1088.13	26
1089.25	23.5
1090.37	23
1091.49	25
1092.61	27
1093.72	27.5
1094.84	23.5
1095.96	28
1097.08	22
1098.19	27.5
1099.31	22
1100.42	26
1101.54	28
1102.66	23
1103.77	26
1104.89	22
1106	26
1107.12	25
1108.23	29
1109.35	28
1110.46	25
1111.58	26.5
1112.69	24.5
1113.81	22
1114.92	23.5
1116.04	25
1117.15	25
1118.26	26
1119.38	23
1120.49	28
1121.6	25.5
1122.72	25.5
1123.83	25
1124.94	25.5
1126.05	23
1127.17	27.5
1128.28	28
1129.39	27
1130.5	27.5
1131.61	25
1132.72	26
1133.83	32
1134.94	26
1136.06	26
1137.17	28
1138.27	24
1139.39	27.5
1140.5	29
1141.61	26
1142.72	28
1143.82	25.5
1144.93	31
1146.04	25
1147.15	27
1148.26	23
1149.37	28.5
1150.48	25
1151.58	24.5
1152.69	24.5
1153.8	30.5
1154.91	26.5
1156.02	29
1157.12	29.5
1158.23	27.5
1159.34	25
1160.44	23
1161.55	22.5
1162.66	24
1163.76	28
1164.87	24.5
1165.97	27
1167.08	26
1168.18	24
1169.29	27
1170.39	22
1171.5	28.5
1172.6	25.5
1173.71	24.5
1174.81	23
1175.92	29
1177.02	25.5
1178.13	25.5
1179.23	26.5
1180.33	27
1181.44	24.5
1182.54	22.5
1183.64	24.5
1184.74	29
1185.85	24.5
1186.95	22.5
1188.05	23.5
1189.15	22.5
1190.26	27.5
1191.36	26
1192.46	26
1193.56	28
1194.66	26.4802
1195.76	23.9693
1196.86	23.5818
1197.96	26.9362
1199.06	24.6092
1200.16	23.2081
1201.26	23.1203
1202.36	22.5426
1203.46	31.4083
1204.56	24.1417
1205.66	24.9024
1206.76	23.287
1207.86	24.0954
1208.96	23.9354
1210.06	24.8645
1211.16	24.1743
1212.25	22.3204
1213.35	25.3297
1214.45	26.4073
1215.55	25.6267
1216.65	25.7873
1217.74	23.6311
1218.84	24.4764
1219.94	28.6742
1221.03	23.8662
1222.13	22.2152
1223.23	22.6286
1224.32	26.4377
1225.42	26.7788
1226.52	26.7994
1227.61	22.4376
1228.71	24.076
1229.8	28.7525
1230.9	27.3617
1231.99	24.4344
1233.09	26.204
1234.18	24.8993
1235.28	24.7166
1236.37	25.7092
1237.47	24.4125
1238.56	24.5604
1239.65	24.2163
1240.75	22.7992
1241.84	23.7101
1242.93	26.6558
1244.03	23.27
1245.12	25.6595
1246.21	25.6141
1247.31	25.6755
1248.4	24.2389
1249.49	23.6595
1250.58	25.4552
1251.67	24.9563
1252.77	22.6265
1253.86	24.7915
1254.95	26.5116
1256.04	26.6594
1257.13	26.4297
1258.22	26.3971
1259.31	28.1853
1260.4	26.632
1261.49	26.2913
1262.58	26.4388
1263.67	27.6776
1264.76	26.9513
1265.85	26.3617
1266.94	26.5569
1268.03	23.9782
1269.12	21.9897
1270.21	25.0639
1271.3	26.332
1272.39	25.4108
1273.47	25.3519
1274.56	25.9015
1275.65	25.099
1276.74	25.7193
1277.83	26.4186
1278.91	24.67
1280	24.8325
1281.09	25.6432
1282.17	25.7307
1283.26	24.1266
1284.35	22.5441
1285.43	24.578
1286.52	22.584
1287.61	24.9368
1288.69	25.8227
1289.78	25.7515
1290.86	24.5483
1291.95	22.7016
1293.03	20.6782
1294.12	21.8671
1295.2	25.1978
1296.29	24.729
1297.37	23.9764
1298.46	24.5669
1299.54	23.5709
1300.63	25.3192
1301.71	27.5303
1302.79	25.2444
1303.88	24.3515
1304.96	25.5618
1306.04	26.865
1306.5	27.5
1307.59	21.5
1308.68	27
1309.76	22
1310.85	26.5
1311.94	23.5
1313.03	27
1314.11	26.5
1315.2	24
1316.29	25.5
1317.37	24.5
1318.46	21.5
1319.55	22.5
1320.63	22.5
1321.72	27
1322.81	27.5
1323.89	26.5
1324.98	23
1326.06	24.5
1327.15	20.5
1328.23	25
1329.32	27.5
1330.4	22.5
1331.49	21.5
1332.57	26
1333.66	26
1334.74	26
1335.82	26
1336.91	25
1337.99	27.5
1339.07	26
1340.16	25.5
1341.24	23.5
1342.32	25.5
1343.4	25
1344.49	20
1345.57	24
1346.65	27.5
1347.73	25.5
1348.82	24
1349.9	23
1350.98	26.5
1352.06	23.5
1353.14	23
1354.22	25
1355.3	25.5
1356.38	26
1357.46	22.5
1358.54	27.5
1359.62	27
1360.7	22
1361.78	27
1362.86	23.5
1363.94	26
1365.02	25.5
1366.1	25.5
1367.18	24.5
1368.26	21
1369.34	27
1370.41	23.5
1371.49	26
1372.57	27.5
1373.65	21.5
1374.72	25
1375.8	27.5
1376.88	26.5
1377.96	23
1379.03	26.5
1380.11	28
1381.19	25.5
1382.26	26
1383.34	24
1384.42	25.5
1385.49	22
1386.57	28.5
1387.64	27.5
1388.72	30
1389.79	25.5
1390.87	28
1391.94	27
1393.02	25
1394.09	22
1395.17	24.5
1396.24	28
1397.31	27
1398.39	27
1399.46	29
1400.54	29
1401.61	27
1402.68	29
1403.76	29
1404.83	29.5
1405.9	26
1406.97	30.5
1408.05	32
1409.12	32
1410.19	31
1411.26	33
1412.33	29
1413.4	32.5
1414.48	32
1415.55	28.5
1416.62	26
1417.69	33
1418.76	27
1419.83	26
1420.9	29.5
1421.97	27
1423.04	28
1424.11	26.5
1425.18	28
1426.25	24.5
1427.32	26
1428.39	25
1429.46	25
1430.52	28.5
1431.59	26
1432.66	25
1433.73	25
1434.8	26
1435.87	28
1436.93	29
1438	25
1439.07	25.5
1440.14	27.5
1441.2	26
1442.27	27.5
1443.34	28.5
1444.4	27.5
1445.47	26.5
1446.54	26
1447.6	25
1448.67	23.5
1449.73	24
1450.8	25
1451.86	28.5
1452.93	26.5
1453.99	26
1455.06	27.5
1456.12	28.5
1457.19	25.5
1458.25	25.5
1459.32	25.5
1460.38	26
1461.45	27.5
1462.51	23.5
1463.57	27.5
1464.64	26.5
1465.7	28.5
1466.76	28.5
1467.82	24
1468.89	23.5
1469.95	26
1471.01	24.5
1472.07	23
1473.14	25
1474.2	28
1475.26	23.5
1476.32	28.5
1477.38	27.5
1478.44	24.5
1479.5	26
1480.57	28
1481.63	30.5
1482.69	28.5
1483.75	25.5
1484.81	26
1485.87	26
1486.93	28
1487.99	26.5
1489.05	28
1490.1	27
1491.17	25
1492.22	27
1493.28	21.5
1494.34	26.5
1495.4	23
1496.46	28
1497.52	25
1498.57	24.5
1499.63	27.5
1500.69	23.5
1501.75	24.5
1502.8	25
1503.86	24.5
1504.92	25
1505.98	26.5
1507.03	29
1508.09	26
1509.15	26.5
1510.2	25.5
1511.26	26
1512.31	28
1513.37	27
1514.42	26.5
1515.48	28
1516.53	25.5
1517.59	26
1518.64	25
1519.7	28
1520.75	23.5
1521.81	25
1522.86	26
1523.92	25
1524.97	23.5
1526.02	25
1527.08	26.5
1528.13	24.5
1529.18	21
1530.24	27.5
1531.29	26.5
1532.34	28.5
1533.39	26.5
1534.45	24
1535.5	23
1536.55	25.5
1537.6	25
1538.65	25.5
1539.71	24.5
1540.76	24.5
1541.81	25
1542.86	25
1543.91	23.5
1544.96	22
1546.01	28
1547.06	25
1548.11	22.5
1549.16	28
1550.21	33
1551.26	23.5
1552.31	27
1553.36	21.5
1554.41	26
1555.46	29
1556.51	26
1557.56	24
1558.6	24
1559.65	25
1560.7	29
1561.75	27.5
1562.8	26.5
1563.84	28
1564.89	25
1565.94	24
1566.99	25
1568.03	31
1569.08	26.5
1570.13	22
1571.17	23.5
1572.22	26.5
1573.27	24
1574.31	24.5
1575.36	27.5
1576.4	26
1577.45	24.5
1578.5	23
1579.54	23.5
1580.59	26
1581.63	27
1582.68	26.5
1583.72	29
1584.76	22
1585.81	26.5
1586.85	24
1587.9	26
1588.94	22
1589.98	23.5
1591.03	26.5
1592.07	25
1593.11	28
1594.16	26.5
1595.2	27
1596.24	24.5
1597.29	28
1598.33	24
1599.37	25
1600.41	23
1601.45	27.5
1602.49	24
1603.54	22
1604.58	27
1605.62	28
1606.66	22
1607.7	24
1608.74	27.5
1609.78	27
1610.82	27
1611.86	25
1612.9	24.5
1613.94	24
1614.98	28.5
1616.02	23
1617.06	28.5
1618.1	29.5
1619.14	25
1620.18	22.5
1621.22	26.5
1622.25	26
1623.29	24.5
1624.33	23
1625.37	24.5
1626.41	26
1627.45	26.5
1628.48	24.5
1629.52	24
1630.56	25.5
1631.59	28.5
1632.63	27
1633.67	25
1634.7	28.5
1635.74	27
1636.78	27.5
1637.81	29
1638.85	26.5
1639.88	25
1640.92	23
1641.96	24
1642.99	26
1644.03	25
1645.06	24.5
1646.1	27.5
1647.13	29
1648.17	26.5
1649.2	23
1650.23	24
1651.27	29.5
1652.3	26
1653.33	24
1654.37	29
1655.4	26
1656.44	20
1657.47	24
1658.5	28.5
1659.53	22
1660.57	23.5
1661.6	26
1662.63	25.5
1663.66	26
1664.69	25
1665.73	29
1666.76	27.5
1667.79	23.5
1668.82	27
1669.85	25.5
1670.88	22
1671.91	27.5
1672.94	25.5
1673.97	28.5
1675.01	26
1676.03	28.5
1677.07	24
1678.1	25
1679.12	24
1680.15	24.5
1681.18	25
1682.21	29.5
1683.24	24.5
1684.27	30
1685.3	25.5
1686.33	25.5
1687.36	26.5
1688.38	28
1689.41	28
1690.44	27
1691.47	26.5
1692.5	27
1693.52	28
1694.55	22
1695.58	25
1696.6	20
1697.63	25
1698.66	25
1699.68	23
1700.71	27
1701.74	26
1702.76	22.5
1703.79	26
1704.81	24.5
1705.84	25.5
1706.86	25
1707.89	27
1708.91	24
1709.94	27
1710.96	27.5
1711.99	24
1713.01	25
1714.04	29.5
1715.06	24.5
1716.08	25.5
1717.11	26
1718.13	23.5
1719.16	20
1720.18	26.5
1721.2	23.5
1722.22	25
1723.25	25
1724.27	25.5
1725.29	22
1726.31	28
1727.34	27
1728.36	27
1729.38	25
1730.4	25
1731.42	28
1732.44	23.5
1733.47	29
1734.49	25.5
1735.51	27.5
1736.53	21
1737.55	26.5
1738.57	23.5
1739.59	27.5
1740.61	24.5
1741.63	24.5
1742.65	26
1743.67	27
1744.69	26.5
1745.71	28
1746.73	23
1747.75	27
1748.76	22
1749.78	20
1750.8	28
1751.82	28
1752.84	26.5
1753.86	24
1754.87	24.5
1755.89	24.5
1756.91	27.5
1757.93	25
1758.94	28
1759.96	26
1760.98	27.5
1761.99	23.5
1763.01	29.5
1764.03	28.5
1765.04	28
1766.06	23.5
1767.08	28
1768.09	27
1769.11	28
1770.12	25.5
1771.14	24
1772.15	22
1773.17	25.5
1774.18	27
1775.2	25
1776.21	28.5
1777.23	22
1778.24	24.5
1779.25	26.5
1780.27	27
1781.28	24
1782.3	28
1783.31	26.5
1784.32	24
1785.34	27
1786.35	22.5
1787.36	27
1788.37	25
1789.39	23
1790.4	28
1791.41	24.5
1792.42	23
1793.43	24.5
1794.45	28
1795.46	24.5
1796.47	27.5
1797.48	27.5
1798.49	27
1799.5	25
1800.51	29
1801.52	28
1802.53	25.5
1803.54	26
1804.55	23.5
1805.56	25
1806.57	26.5
1807.58	24
1808.59	27.5
1809.6	27.5
1810.61	27.5
1811.62	24.5
1812.63	26.5
1813.64	23.5
1814.65	26.5
1815.66	24.5
1816.66	26.5
1817.67	20
1818.68	21.5
1819.69	24.5
1820.69	29
1821.7	23.5
1822.71	28.5
1823.72	22
1824.72	26.5
1825.73	23
1826.74	26
1827.74	23
1828.75	25.5
1829.76	23.5
1830.76	26
1831.77	24.5
1832.77	23
1833.78	21.5
1834.79	28.5
1835.79	23.5
1836.8	26
1837.8	26
1838.81	27.5
1839.81	25
1840.81	22
1841.82	24
1842.82	25
1843.83	26.5
1844.83	25.5
1845.83	25
1846.84	24
1847.84	27
1848.84	24
1849.85	30
1850.85	30.5
1851.85	25.5
1852.86	23.5
1853.86	24.5
1854.86	26.5
1855.86	26
1856.86	23
1857.87	27.5
1858.87	24.5
1859.87	26
1860.87	21
1861.87	26.5
1862.87	26
1863.88	28.5
1864.88	29
1865.88	25
1866.88	25.5
1867.88	29
1868.88	23
1869.88	27
1870.88	25.5
1871.88	28.5
1872.88	21
1873.88	28.5
1874.87	23
1875.87	27
1876.87	26
1877.87	25
1878.87	25
1879.87	22.5
1880.87	23.5
1881.86	27.5
1882.86	25.5
1883.86	23.5
1884.86	23.5
1885.86	25
1886.85	29
1887.85	27
1888.85	25
1889.84	23.5
1890.84	29.5
1891.84	25.5
1892.83	22.5
1893.83	24.5
1894.83	23
1895.82	24
1896.82	24.5
1897.81	25.5
1898.81	24.5
1899.81	24.5
1900.8	29.5
1901.8	29.5
1902.79	25
1903.78	27
1904.78	23
1905.77	24
1906.77	27.5
1907.76	25
1908.76	26
1909.75	28
1910.74	25
1911.74	26.5
1912.73	22.5
1913.72	22.5
1914.72	23
1915.71	21.5
1916.7	27.5
1917.7	22
1918.69	28.5
1919.68	22.5
1920.67	27
1921.66	26
1922.66	24.5
1923.65	22.5
1924.64	23
1925.63	27.5
1926.62	28
1927.61	24
1928.6	26.5
1929.59	24.5
1930.59	25.5
1931.58	29
1932.57	25.5
1933.56	22.5
1934.55	25
1935.54	26
1936.53	27.5
1937.52	24.5
1938.51	22.5
1939.49	29
1940.48	26
1941.47	24.5
1942.46	30
1943.45	25
1944.44	24.5
1945.43	23
1946.42	28
1947.4	27.5
1948.39	26.75
1949.38	23.5
1950.37	23.5
1951.35	26
1952.34	24.5
1953.33	24
1954.31	24
1955.3	25.5
1956.29	25
1957.27	26
1958.26	26.5
1959.25	28
1960.23	22
1961.22	26
1962.21	26.5
1963.19	28.5
1964.18	26.5
1965.16	25.5
1966.15	25
1967.13	22.5
1968.12	29
1969.1	27.5
1970.09	23.5
1971.07	21
1972.05	24
1973.04	24
1974.02	25.5
1975.01	23.5
1975.99	25
1976.97	23
1977.96	24
1978.94	25
1979.92	22.5
1980.91	25
1981.89	25
1982.87	25
1983.85	28
1984.84	23.5
1985.82	24.5
1986.8	23.5
1987.78	26
1988.76	24
1989.74	24
1990.73	23
1991.71	26
1992.69	26
1993.67	23
1994.65	25
1995.63	25.5
1996.61	24
1997.59	24
1998.57	24
1999.55	24.5
2000.53	24
2001.51	27.5
2002.49	21.5
2003.47	24.5
2004.45	25
2005.43	23.5
2006.41	26
2007.39	26.5
2008.37	25
2009.34	21
2010.32	23
2011.3	23
2012.28	23.5
2013.26	23.5
2014.23	22.5
2015.21	24
2016.19	25.5
2017.17	22.5
2018.14	26.5
2019.12	22
2020.1	20.5
2021.07	25
2022.05	29
2023.03	23
2024	26
2024.98	24
2025.96	25
2026.93	22
2027.91	27.5
2028.88	25
2029.86	23
2030.83	23
2031.81	28
2032.78	24
2033.76	23.5
2034.73	25
2035.71	28
2036.68	26
2037.66	25
2038.63	23
2039.6	23
2040.58	22.5
2041.55	21.5
2042.52	26
2043.5	24.5
2044.47	21
2045.44	25.5
2046.42	23
2047.39	25
2048.36	26
2049.33	23
2050.31	24.5
2051.28	25
2052.25	25
2053.22	25
2054.19	26
2055.17	25
2056.14	21
2057.11	24
2058.08	24.5
2059.05	23.5
2060.02	22.5
2060.99	26.5
2061.96	24.5
2062.93	21
2063.9	24
2064.87	19.5
2065.84	25
2066.81	26
2067.78	23
2068.75	26
2069.72	22.5
2070.69	24
2071.66	23
2072.63	26
2073.6	27
2074.56	25
2075.53	23.5
2076.5	25.5
2077.47	21.5
2078.44	28
2079.4	22.5
2080.37	26
2081.34	18
2082.31	22
2083.27	22.5
2084.24	23
2085.21	25
2086.18	23.5
2087.14	23.5
2088.11	25
2089.07	23.5
2090.04	25
2091.01	23.5
2091.97	25
2092.94	26
2093.9	24
2094.87	23.5
2095.83	25
2096.8	23.5
2097.76	24.5
2098.73	23.5
2099.69	23
2100.66	24.5
2101.62	22
2102.59	21
2103.55	27.5
2104.52	22
2105.48	22
2106.44	25.5
2107.41	24.5
2108.37	21.5
2109.33	22
2110.3	27.5
2111.26	26
2112.22	27.5
2113.18	22
2114.15	21.5
2115.11	24.5
2116.07	24
2117.03	29
2118	24
2118.96	26
2119.92	27
2120.88	24.5
2121.84	24
2122.8	22.5
2123.76	21
2124.72	24
2125.68	26.5
2126.65	23.5
2127.61	23.5
2128.57	23.5
2129.53	29
2130.49	21
2131.45	22
2132.41	28
2133.36	23
2134.32	26
2135.28	27.5
2136.24	21
2137.2	24.5
2138.16	25
2139.12	25.5
2140.08	25
2141.04	18.5
2141.99	26
2142.95	26.4741
2143.91	22.4765
2144.87	24.4969
2145.83	23.5198
2146.78	23.4247
2147.74	18.6449
2148.7	20.2134
2149.66	25.8007
2150.61	22.696
2151.57	24.4321
2152.53	24.5582
2153.48	26.4395
2154.44	23.0822
2155.4	22.0895
2156.35	23.3108
2157.31	24.0603
2158.26	23.5208
2159.22	23.2801
2160.17	23.333
2161.13	22.5817
2162.08	24.9902
2163.04	26.0854
2163.99	20.3266
2164.95	25.014
2165.9	23.1771
2166.86	22.0568
2167.81	21.0666
2168.77	24.8028
2169.72	21.2099
2170.67	24.8391
2171.63	23.0002
2172.58	22.7486
2173.54	27.168
2174.49	24.4621
2175.44	22.1677
2176.39	23.9124
2177.35	25.0315
2178.3	21.1062
2179.25	24.1901
2180.2	21.6838
2181.16	22.2136
2182.11	26.2652
2183.06	24.7653
2184.01	22.0164
2184.96	21.6515
2185.92	22.3749
2186.87	23.5099
2187.82	20.5044
2188.77	22.4089
2189.72	22.8375
2190.67	23.9898
2191.62	21.7509
2192.57	23.2757
2193.52	21.0998
2194.47	20.8228
2195.42	22.5173
2196.37	23.615
2197.32	23.6063
2198.27	23.3893
2199.22	23.7233
2200.17	21.485
2201.12	21.9789
2202.07	23.2957
2203.02	22.3908
2203.97	23.1736
2204.92	24.4318
2205.87	24.8911
2206.81	23.1912
2207.76	26.0162
2208.71	21.0216
2209.66	22.6497
2210.61	23.298
2211.55	23.3883
2212.5	23.077
2213.45	23.6892
2214.4	22.0995
2215.34	23.4005
2216.29	24.7359
2217.24	20.1408
2218.18	23.2474
2219.13	21.3544
2220.08	23.1853
2221.02	23.5735
2221.97	24.105
2222.92	19.293
2223.86	24.0128
2224.81	22.1168
2225.75	23.3687
2226.7	23.5497
2227.64	20.3058
2228.59	21.3648
2229.53	23.8718
2230.48	25.3349
2231.42	22.7933
2232.37	23.4099
2233.31	22.6673
2234.26	24.2429
2235.2	25.492
2236.14	24.1829
2237.09	21.9162
2238.03	23.6368
2238.97	22.7052
2239.92	25.0467
2240.05	25.5
2241	22.5
2241.95	24.5
2242.89	25
2243.84	23
2244.79	21.5
2245.74	28
2246.68	23
2247.63	20
2248.58	23
2249.53	26.5
2250.47	25.5
2251.42	21
2252.36	22.5
2253.31	23
2254.26	26
2255.2	23
2256.15	25
2257.1	25
2258.04	21
2258.99	25
2259.93	20.5
2260.88	23
2261.82	25
2262.77	24
2263.71	23.5
2264.66	24
2265.6	24
2266.55	23
2267.49	23
2268.43	25
2269.38	25
2270.32	18
2271.26	24
2272.21	21
2273.15	23
2274.09	23.5
2275.04	25
2275.98	22
2276.92	21.5
2277.87	24
2278.81	20
2279.75	22
2280.69	24
2281.64	27
2282.58	22.5
2283.52	26
2284.46	25
2285.4	23
2286.34	22.5
2287.29	20
2288.23	24
2289.17	23.5
2290.11	27
2291.05	26.5
2291.99	23
2292.93	21.5
2293.87	21.5
2294.81	25.5
2295.75	23
2296.69	23.5
2297.63	20
2298.57	22
2299.51	23.5
2300.45	21
2301.39	22
2302.33	24.5
2303.27	25
2304.2	21
2305.14	27.5
2306.08	21.5
2307.02	24
2307.96	24
2308.9	23
2309.83	22
2310.77	22
2311.71	26.5
2312.65	25
2313.58	22.5
2314.52	21.5
2315.46	23.5
2316.39	23.5
2317.33	23.5
2318.27	24.5
2319.21	24
2320.14	20.5
2321.08	25
2322.01	23
2322.95	28
2323.89	25
2324.82	24
2325.76	22.5
2326.69	19
2327.63	21
2328.56	23.5
2329.5	19.5
2330.43	22.5
2331.37	23.5
2332.3	25
2333.24	24.5
2334.17	26.5
2335.1	22.5
2336.04	22
2336.97	22.5
2337.91	22
2338.84	24
2339.77	25.5
2340.71	23.5
2341.64	21
2342.57	20.5
2343.51	27.5
2344.44	24
2345.37	28
2346.3	24
2347.24	25
2348.17	21.5
2349.1	26
2350.03	24
2350.96	23
2351.89	21
2352.83	24
2353.76	25
2354.69	23.5
2355.62	22.5
2356.55	24.5
2357.48	24.5
2358.41	24.5
2359.34	27
2360.27	24.5
2361.2	26.5
2362.13	25
2363.06	21
2363.99	27
2364.92	22.5
2365.85	22
2366.78	24
2367.71	23
2368.64	20
2369.57	25.5
2370.5	22
2371.43	24
2372.36	26
2373.28	26
2374.21	20.5
2375.14	21
2376.07	22.5
2377	26
2377.93	23
2378.85	21
2379.78	24.5
2380.71	22.5
2381.63	24
2382.56	23
2383.49	27.5
2384.42	25
2385.34	23
2386.27	21
2387.2	24
2388.12	22
2389.05	24
2389.97	23.5
2390.9	26.5
2391.82	21
2392.75	21
2393.68	26
2394.6	23.5
2395.53	25
2396.45	23.5
2397.38	24
2398.3	24
2399.23	27
2400.15	26
2401.07	22
2402	29
2402.92	23.5
2403.85	25
2404.77	24
2405.69	24.5
2406.62	23
2407.54	25
2408.46	27
2409.39	21
2410.31	24.5
2411.23	24.5
2412.16	22
2413.08	22
2414	26
2414.92	26.5
2415.85	24.5
2416.77	23
2417.69	25
2418.61	25
2419.53	22.5
2420.45	25
2421.38	25
2422.3	25
2423.22	24
2424.14	21.5
2425.06	23
2425.98	23
2426.9	24.5
2427.82	27
2428.74	22.5
2429.66	27.5
2430.58	22
2431.5	19.5
2432.42	25.5
2433.34	23
2434.26	23.5
2435.18	21.5
2436.1	24.5
2437.02	23
2437.94	23.5
2438.85	23.5
2439.77	23.5
2440.69	22.5
2441.61	24.5
2442.53	22
2443.45	22
2444.36	27
2445.28	24.5
2446.2	23
2447.12	24
2448.03	23
2448.95	22
2449.87	25.5
2450.79	25
2451.7	25
2452.62	26
2453.54	25
2454.45	26.5
2455.37	22
2456.28	22.5
2457.2	21.5
2458.12	27
2459.03	26
2459.95	25.5
2460.86	25
2461.78	25
2462.69	25.5
2463.61	24.5
2464.52	24
2465.44	26.5
2466.35	25
2467.27	23
2468.18	25
2469.1	26
2470.01	23
2470.93	23.5
2471.84	24.5
2472.75	23.5
2473.67	27
2474.58	25
2475.49	25.5
2476.41	25
2477.32	22
2478.23	26
2479.15	23
2480.06	21.5
2480.97	21
2481.88	22.5
2482.79	23
2483.71	22.5
2484.62	25
2485.53	24.5
2486.44	24.5
2487.35	27
2488.26	23.5
2489.18	25
2490.09	25.5
2491	19.5
2491.91	24.5
2492.82	28
2493.73	24.5
2494.64	23
2495.55	23.5
2496.46	28
2497.37	25
2498.28	27
2499.19	20
2500.1	26
2501.01	27
2501.92	25
2502.83	24
2503.74	25
2504.65	23.5
2505.56	27
2506.47	25.5
2507.37	26
2508.28	26
2509.19	22
2510.1	24.5
2511.01	24
2511.92	26
2512.82	21
2513.73	25
2514.64	26
2515.55	21.5
2516.45	24
2517.36	28
2518.27	23.5
2519.17	27
2520.08	23
2520.99	21.5
2521.89	27.5
2522.8	24
2523.71	22
2524.61	26
2525.52	24
2526.42	24.5
2527.33	23
2528.24	25.5
2529.14	22.5
2530.05	26.5
2530.95	24
2531.86	27
2532.76	23
2533.67	28
2534.57	22.5
2535.48	22
2536.38	23.5
2537.28	27.5
2538.19	23
2539.09	25.5
2540	25
2540.9	25.5
2541.8	20.5
2542.71	28
2543.61	24
2544.51	25
2545.42	23.5
2546.32	26.5
2547.22	24.5
2548.12	26.5
2549.03	27
2549.93	24.5
2550.83	23
2551.73	25.5
2552.63	26.5
2553.54	26
2554.44	23.5
2555.34	25
2556.24	26
2557.14	24
2558.04	24
2558.94	27
2559.85	22.5
2560.75	24
2561.65	23
2562.55	28.5
2563.45	21
2564.35	27
2565.25	21.5
2566.15	28.5
2567.05	23.5
2567.95	22
2568.85	22
2569.75	23.5
2570.65	24.5
2571.55	25
2572.44	25
2573.34	27
2574.24	24
2575.14	26.5
2576.04	25
2576.94	25
2577.84	26.5
2578.73	21.5
2579.63	25.5
2580.53	24.5
2581.43	28.5
2582.33	23.5
2583.22	22
2584.12	27
2585.02	21
2585.91	24.5
2586.81	25
2587.71	25.5
2588.6	24
2589.5	26.5
2590.4	28.5
2591.29	26.5
2592.19	26
2593.09	23
2593.98	24.5
2594.88	24
2595.77	25.5
2596.67	24.5
2597.56	24.5
2598.46	28
2599.35	24
2600.25	23.5
2601.14	23
2602.04	26
2602.93	26.5
2603.83	26
2604.72	28
2605.62	26.5
2606.51	23
2607.4	26.5
2608.3	21
2609.19	25
2610.09	22.5
2610.98	24.5
2611.87	25.5
2612.76	28
2613.66	25.5
2614.55	26
2615.44	24.5
2616.34	24.5
2617.23	23
2618.12	22.5
2619.01	24.5
2619.9	26
2620.8	22
2621.69	26.5
2622.58	25
2623.47	27
2624.36	26
2625.25	24
2626.15	26.5
2627.04	24.5
2627.93	30
2628.82	26.5
2629.71	24
2630.6	28.5
2631.49	22
2632.38	25
2633.27	25.5
2634.16	24
2635.05	27
2635.94	24.5
2636.83	20.5
2637.72	23.5
2638.61	24
2639.5	30
2640.39	26
2641.28	23
2642.16	25
2643.05	19
2643.94	26
2644.83	25.5
2645.72	22.5
2646.61	25
2647.49	24
2648.38	21
2649.27	23
2650.16	26.5
2651.05	29.5
2651.93	23
2652.82	22.5
2653.71	29
2654.59	23
2655.48	26
2656.37	24
2657.25	25.5
2658.14	24.5
2659.03	24
2659.91	24.5
2660.8	23
2661.69	29
2662.57	23
2663.46	26.5
2664.34	25
2665.23	24.5
2666.11	28
2667	21
2667.88	21
2668.77	24
2669.65	24
2670.54	22
2671.42	21
2672.31	24.5
2673.19	23
2674.08	24.5
2674.96	20.5
2675.84	25
2676.73	25
2677.61	25
2678.49	23
2679.38	23.5
2680.26	29.5
2681.14	29.5
2682.03	24.5
2682.91	24.5
2683.79	22
2684.68	27.5
2685.56	24
2686.44	25
2687.32	25
2688.2	26.5
2689.09	25
2689.97	24.5
2690.85	28.5
2691.73	20.5
2692.61	24.5
2693.49	29
2694.38	22
2695.26	22.5
2696.14	28.5
2697.02	21.5
2697.9	25
2698.78	25
2699.66	26
2700.54	25
2701.42	21
2702.3	23.5
2703.18	22
2704.06	23.5
2704.94	25
2705.82	27
2706.7	26.5
2707.58	22.5
2708.46	25.5
2709.34	28.5
2710.21	25
2711.09	25.5
2711.97	22
2712.85	25
2713.73	18.5
2714.61	24.5
2715.49	24.5
2716.36	25.5
2717.24	27
2718.12	23.5
2719	28.5
2719.87	22
2720.75	24
2721.63	25
2722.51	23
2723.38	25.5
2724.26	24
2725.14	26
2726.01	23.5
2726.89	28.5
2727.77	25.5
2728.64	25.5
2729.52	24
2730.39	25
2731.27	23.5
2732.15	24
2733.02	24.5
2733.9	24.5
2734.77	25.5
2735.65	20
2736.52	24
2737.4	26
2738.27	19
2739.15	27
2740.02	26
2740.89	24
2741.77	23.5
2742.64	27
2743.52	25.5
2744.39	28
2745.27	22
2746.14	24
2747.01	25
2747.89	26.5
2748.76	25.5
2749.63	23.5
2750.51	24
2751.38	25.5
2752.25	23.5
2753.12	22
2754	25
2754.87	20
2755.74	26
2756.61	24
2757.48	26
2758.36	25
2759.23	24.5
2760.1	25
2760.97	25
2761.84	23.5
2762.71	23
2763.59	24.5
2764.46	26
2765.33	24
2766.2	28
2767.07	24.5
2767.94	27.5
2768.81	23.5
2769.68	23
2770.55	25
2771.42	22.5
2772.29	26
2773.16	25
2774.03	26
2774.9	28.5
2775.77	22
2776.64	26.5
2777.51	26
2778.37	23.5
2779.24	26
2780.11	25
2780.98	26
2781.85	26.5
2782.72	27
2783.59	26
2784.45	20
2785.32	27
2786.19	21
2787.06	23.5
2787.92	26
2788.79	21
2789.66	27
2790.53	26
2791.39	20
2792.26	23
2793.13	23
2793.99	28
2794.86	26
2795.73	22.5
2796.59	25
2797.46	27.5
2798.33	24.5
2799.19	25.5
2800.06	29.5
2800.92	29.25
2801.79	28
2802.65	25.5
2803.52	25.5
2804.39	27.5
2805.25	28
2806.11	22
2806.98	25.5
2807.84	26
2808.71	25.5
2809.57	27
2810.44	24.5
2811.3	23.5
2812.17	23
2813.03	28.5
2813.89	22
2814.76	28
2815.62	24.5
2816.49	28.5
2817.35	27
2818.21	25.5
2819.07	26
2819.94	25.5
2820.8	26
2821.66	23.5
2822.53	25.5
2823.39	25.5
2824.25	24
2825.11	23
2825.97	29
2826.84	26.5
2827.7	28
2828.56	27.5
2829.42	25
2830.28	27.5
2831.14	22.5
2832.01	27
2832.87	26
2833.73	25
2834.59	27.5
2835.45	22.5
2836.31	27
2837.17	28.5
2838.03	23.5
2838.89	28.5
2839.75	23.5
2840.61	19.5
2841.47	28
2842.33	25
2843.19	31
2844.05	21.5
2844.91	26.5
2845.77	22
2846.63	28
2847.48	28
2848.34	24.5
2849.2	24.5
2850.06	26
2850.92	25
2851.78	22
2852.64	28
2853.49	25
2854.35	24.5
2855.21	23
2856.07	32.5
2856.93	25.5
2857.78	23
2858.64	25
2859.5	25.5
2860.35	25.5
2861.21	25.5
2862.07	27
2862.93	22.5
2863.78	27.5
2864.64	26.5
2865.49	24
2866.35	30
2867.21	24
2868.06	30.5
2868.92	32
2869.77	27
2870.63	29
2871.49	30
2872.34	30.5
2873.2	29
2874.05	28
2874.91	26.5
2875.76	32
2876.62	29.5
2877.47	30.5
2878.32	30.5
2879.18	28
2880.03	27.5
2880.89	28
2881.74	36
2882.6	33.5
2883.45	33.5
2884.3	31.5
2885.16	31.5
2886.01	29
2886.86	34
2887.72	39
2888.57	34.5
2889.42	33.5
2890.27	35.5
2891.13	36
2891.98	41.5
2892.83	42.5
2893.68	40
2894.54	39.5
2895.39	47
2896.24	43.5
2897.09	49
2897.94	50.5
2898.8	53
2899.65	58.5
2900.5	57
2901.35	56.5
2902.2	62
2903.05	62
2903.9	61
2904.75	67.5
2905.6	67
2906.45	66
2907.3	72
2908.15	64.5
2909.01	65
2909.85	63.5
2910.7	63
2911.55	60.5
2912.4	55
2913.25	51
2914.1	47.5
2914.95	47.5
2915.8	45.5
2916.65	41.5
2917.5	37
2918.35	35
2919.2	39.5
2920.04	37
2920.89	31
2921.74	33.5
2922.59	34
2923.44	34
2924.29	30
2925.13	29
2925.98	29
2926.83	30.5
2927.68	27
2928.52	30.5
2929.37	27.5
2930.22	33
2931.06	32
2931.91	26.5
2932.76	28.5
2933.6	29.5
2934.45	29
2935.3	29
2936.14	27.5
2936.99	27.5
2937.83	31
2938.68	25
2939.53	25
2940.37	24
2941.22	30
2942.06	25
2942.91	26
2943.75	25
2944.6	26
2945.44	30.5
2946.29	26
2947.13	22.5
2947.98	29
2948.82	24
2949.66	31
2950.51	31
2951.35	32.5
2952.2	31
2953.04	32
2953.88	31
2954.73	31
2955.57	33.5
2956.41	34
2957.26	30.5
2958.1	38
2958.94	41.5
2959.79	37.5
2960.63	35
2961.47	41
2962.31	41
2963.15	40.5
2964	44
2964.84	42
2965.68	46
2966.52	39.5
2967.37	43.5
2968.21	38.5
2969.05	40.5
2969.89	37.5
2970.73	41.5
2971.57	36.4854
2972.41	36.4563
2973.25	37.9781
2974.09	37.9526
2974.93	33.5728
2975.77	36.6809
2976.62	31.9053
2977.46	31.109
2978.3	33.5135
2979.14	30.2757
2979.98	30.2451
2980.81	29.6816
2981.65	30.7714
2982.49	28.2518
2983.33	26.757
2984.17	28.1745
2985.01	24.056
2985.85	29.3925
2986.69	27.3288
2987.53	26.8732
2988.37	27.684
2989.21	26.4162
2990.04	24.5418
2990.88	24.3695
2991.72	22.8047
2992.56	23.3024
2993.4	25.6259
2994.23	22.9034
2995.07	26.2686
2995.91	28.8867
2996.75	25.019
2997.58	25.5071
2998.42	25.0534
2999.26	24.85
3000.1	25.3801
3000.93	26.0314
3001.77	26.0146
3002.61	24.0665
3003.44	22.9838
3004.28	25.469
3005.11	23.7136
3005.95	24.1708
3006.79	22.4684
3007.62	23.8883
3008.46	25.2514
3009.29	25.0772
3010.13	25.1229
3010.97	22.8979
3011.8	23.0353
3012.64	22.9766
3013.47	23.684
3014.31	23.5
3015.14	23.9806
3015.98	23.2498
3016.81	22.3565
3017.64	22.2443
3018.48	21.5369
3019.31	23.0743
3020.15	22.6559
3020.98	24.6055
3021.82	23.1954
3022.65	22.419
3023.48	22.4044
3024.32	22.1774
3025.15	22.6527
3025.98	24.4972
3026.82	25.0114
3027.65	24.5421
3028.48	23.101
3029.31	22.7643
3030.15	22.655
3030.98	22.8376
3031.81	22.2958
3032.64	22.6882
3033.48	22.7396
3034.31	22.8735
3035.14	24.0731
3035.97	24.7515
3036.8	23.5828
3037.64	22.2994
3038.47	20.6227
3039.3	22.1354
3040.13	23.8112
3040.96	24.2557
3041.79	24.6826
3042.62	24.3676
3043.45	24.5947
3044.28	25.0208
3045.12	24.0589
3045.95	22.9836
3046.78	21.5021
3047.61	21.7315
3048.44	21.307
3049.27	21.1113
3050.1	21.7231
3050.92	24.1325
3051.75	26.2831
3052.58	24.8144
3053.41	23.6909
3054.24	23.2184
3055.07	22.0664
3055.9	25.0146
3056.73	24.3687
3057.26	21.5
3058.09	25
3058.93	22
3059.76	28.5
3060.59	19.5
3061.43	25.5
3062.26	23.5
3063.09	22
3063.92	19.5
3064.76	22
3065.59	18
3066.42	22.5
3067.25	22
3068.08	22.5
3068.92	24
3069.75	26
3070.58	23
3071.41	23
3072.24	22
3073.07	23.5
3073.9	26
3074.73	20.5
3075.57	25
3076.4	25
3077.23	26
3078.06	24.5
3078.89	22
3079.72	21.5
3080.55	20
3081.38	20.5
3082.21	28
3083.04	22
3083.87	26
3084.7	25.5
3085.53	22.5
3086.36	23
3087.19	24.5
3088.01	23.5
3088.84	22.5
3089.67	22
3090.5	19.5
3091.33	23
3092.16	24
3092.99	20
3093.81	23
3094.64	20.5
3095.47	25.5
3096.3	22
3097.13	25.5
3097.95	26
3098.78	25.5
3099.61	22.5
3100.44	25
3101.26	21
3102.09	26
3102.92	22
3103.74	22.5
3104.57	22
3105.4	25.5
3106.22	23
3107.05	21
3107.88	21
3108.7	22.5
3109.53	22
3110.35	25
3111.18	22
3112.01	23
3112.83	24.5
3113.66	25.5
3114.48	23.5
3115.31	21
3116.13	22
3116.96	25
3117.78	25
3118.61	20
3119.43	24
3120.26	25
3121.08	27
3121.9	23
3122.73	24.5
3123.55	18.5
3124.38	27
3125.2	26
3126.02	27.5
3126.85	22.5
3127.67	26.5
3128.49	24.5
3129.32	23
3130.14	22.5
3130.96	23
3131.79	24.5
3132.61	25
3133.43	21
3134.25	26.5
3135.08	22.5
3135.9	25.5
3136.72	21.5
3137.54	25
3138.37	24
3139.19	24.5
3140.01	28
3140.83	25
3141.65	25
3142.47	24
3143.29	24.5
3144.12	26.5
3144.94	24
3145.76	21.5
3146.58	19.5
3147.4	25
3148.22	25
3149.04	26
3149.86	25
3150.68	24.5
3151.5	23
3152.32	24
3153.14	24.5
3153.96	22.5
3154.78	22.5
3155.6	22.5
3156.42	28.5
3157.24	21.5
3158.06	25.5
3158.88	25
3159.7	26
3160.51	21.5
3161.33	25
3162.15	23
3162.97	26.5
3163.79	20.5
3164.61	23.5
3165.42	23.5
3166.24	27.5
3167.06	21
3167.88	23
3168.7	21.5
3169.51	22.5
3170.33	22
3171.15	23.5
3171.97	22.5
3172.78	20.5
3173.6	26
3174.42	23.5
3175.23	22
3176.05	25.5
3176.87	21
3177.68	24.5
3178.5	23
3179.32	19
3180.13	20
3180.95	24
3181.76	27.5
3182.58	23.5
3183.4	21
3184.21	23
3185.03	27
3185.84	25.5
3186.66	23
3187.47	22
3188.29	18.5
3189.1	20
3189.92	22.5
3190.73	25.5
3191.55	23
3192.36	21
3193.17	25
3193.99	24.5
3194.8	21
3195.62	25.5
3196.43	23.5
3197.24	24
3198.06	21.5
3198.87	24
3199.68	24
3200.5	24.5
3201.31	23.5
3202.12	23.5
3202.94	24
3203.75	23
3204.56	26
3205.38	21
3206.19	25.5
3207	23.5
3207.81	26
3208.62	24.5
3209.44	22
3210.25	25.5
3211.06	25
3211.87	24
3212.68	29
3213.49	25
3214.31	24.5
3215.12	26
3215.93	24.5
3216.74	20
3217.55	25.5
3218.36	23.5
3219.17	23.5
3219.98	22.5
3220.79	23.5
3221.6	21.5
3222.41	21.5
3223.22	23
3224.03	22.5
3224.84	23
3225.65	22.5
3226.46	24
3227.27	23
3228.08	24.5
3228.89	23.5
3229.7	27
3230.51	28.5
3231.32	26
3232.13	27
3232.94	26
3233.74	26.5
3234.55	22
3235.36	26
3236.17	23.5
3236.98	23
3237.78	27.5
3238.59	24
3239.4	21
3240.21	23.5
3241.02	23
3241.82	21
3242.63	23
3243.44	25
3244.25	26.5
3245.05	25.5
3245.86	22.5
3246.67	19
3247.47	22
3248.28	22
3249.09	21
3249.89	23.5
3250.7	24.5
3251.5	22
3252.31	24
3253.12	22
3253.92	26.5
3254.73	22
3255.53	25
3256.34	24
3257.14	25.5
3257.95	23.5
3258.75	24.5
3259.56	20
3260.36	27.5
3261.17	23.5
3261.97	24
3262.78	22
3263.58	26.5
3264.39	26
3265.19	18.5
3265.99	23
3266.8	23.5
3267.6	24.5
3268.41	18.5
3269.21	22.5
3270.01	24.5
3270.82	24.5
3271.62	20.5
3272.42	28
3273.23	24
3274.03	21.5
3274.83	22.5
3275.64	25.5
3276.44	21.5
3277.24	22
3278.04	19.5
3278.85	21.5
3279.65	21.5
3280.45	23.5
3281.25	22.5
3282.05	26.5
3282.85	23.5
3283.66	23.5
3284.46	23.5
3285.26	21
3286.06	21.5
3286.86	25
3287.66	26.5
3288.46	24.5
3289.27	23
3290.07	23
3290.87	26.5
3291.67	25
3292.47	22
3293.27	24
3294.07	23.5
3294.87	28.5
3295.67	20.5
3296.47	24
3297.27	23
3298.07	22.5
3298.87	23.5
3299.67	23.5
3300.47	24.5
3301.26	21.5
3302.06	23
3302.86	24
3303.66	25.5
3304.46	23.5
3305.26	28
3306.06	24
3306.86	23
3307.65	28
3308.45	22
3309.25	25
3310.05	26.5
3310.85	24
3311.64	25
3312.44	25
3313.24	28
3314.04	29
3314.83	27.5
3315.63	24
3316.43	22.5
3317.22	20
3318.02	27
3318.82	24.5
3319.62	24.5
3320.41	23
3321.21	23
3322	25.5
3322.8	26
3323.6	20
3324.39	22
3325.19	23
3325.98	24.5
3326.78	24
3327.58	22
3328.37	26
3329.17	24
3329.96	26
3330.76	26.5
3331.55	24.5
3332.35	21
3333.14	23.5
3333.94	25
3334.73	25
3335.52	27
3336.32	24.5
3337.11	22.5
3337.91	28
3338.7	24.5
3339.5	20.5
3340.29	25.5
3341.08	25
3341.88	23
3342.67	24.5
3343.46	26
3344.26	26
3345.05	22
3345.84	28.5
3346.63	25.5
3347.43	25.5
3348.22	24
3349.01	23.5
3349.8	26.5
3350.6	23.5
3351.39	28
3352.18	21.5
3352.97	25.5
3353.77	26.5
3354.56	22.5
3355.35	25
3356.14	25
3356.93	22
3357.72	25
3358.51	22
3359.31	26.5
3360.1	27.5
3360.89	24.5
3361.68	22
3362.47	22
3363.26	24
3364.05	24
3364.84	22.5
3365.63	24
3366.42	25.5
3367.21	26.5
3368	24
3368.79	22
3369.58	25
3370.37	23
3371.16	22
3371.95	25.5
3372.74	24
3373.53	25.5
3374.32	25.5
3375.1	28.5
3375.89	22.5
3376.68	22
3377.47	26.5
3378.26	26
3379.05	28.5
3379.84	24
3380.62	23
3381.41	28.5
3382.2	24.5
3382.99	20
3383.78	24
3384.56	25
3385.35	25
3386.14	25
3386.93	23
3387.71	20
3388.5	25.5
3389.29	21
3390.07	21
3390.86	23
3391.65	20
3392.43	27
3393.22	21.5
3394.01	22.5
3394.79	26
3395.58	26.5
3396.36	22
3397.15	27
3397.94	29
3398.72	22
3399.51	25.5
3400.29	24
3401.08	22
3401.86	24
3402.65	22.5
3403.43	24
3404.22	23.5
3405	23.5
3405.79	23
3406.57	26.5
3407.36	19
3408.14	23
3408.93	25.5
3409.71	24
3410.49	21.5
3411.28	20.5
3412.06	21.5
3412.84	24
3413.63	27
3414.41	24
3415.2	24
3415.98	25
3416.76	22
3417.54	24.5
3418.33	24
3419.11	23
3419.89	21.5
3420.68	25.5
3421.46	24
3422.24	24
3423.02	26
3423.81	25
3424.59	26
3425.37	23.5
3426.15	24
3426.93	27
3427.71	23.5
3428.5	26.5
3429.28	26
3430.06	21
3430.84	25
3431.62	26.5
3432.4	25.5
3433.18	26
3433.96	26.5
3434.75	24
3435.53	23
3436.31	21
3437.09	25
3437.87	20
3438.65	23.5
3439.43	24
3440.21	27
3440.99	25
3441.77	23.5
3442.55	24
3443.33	24
3444.1	22.5
3444.88	24
3445.66	27.5
3446.44	21
3447.22	28.5
3448	26
3448.78	23.5
3449.56	23
3450.34	23.5
3451.11	27
3451.89	26
3452.67	25
3453.45	24
3454.23	27
3455	24.5
3455.78	28
3456.56	26
3457.34	19
3458.11	23
3458.89	20.5
3459.67	24
3460.45	23
3461.22	25
3462	28
3462.78	20
3463.55	24.5
3464.33	26
3465.11	21.5
3465.88	25.5
3466.66	24.5
3467.44	21
3468.21	24
3468.99	25
3469.76	20.5
3470.54	28
3471.32	20.5
3472.09	27
3472.87	22
3473.64	28.5
3474.42	24.5
3475.19	26
3475.97	24.5
3476.74	25
3477.52	22
3478.29	25
3479.07	29
3479.84	25.5
3480.61	22.5
3481.39	19
3482.16	24.5
3482.94	24.5
3483.71	25.5
3484.48	26
3485.26	25
3486.03	26.5
3486.81	25
3487.58	24.5
3488.35	28
3489.13	23.5
3489.9	26.5
3490.67	24
3491.44	25
3492.22	26
3492.99	27.5
3493.76	21
3494.54	25.5
3495.31	26.5
3496.08	21
3496.85	26.5
3497.62	24
3498.4	21
3499.17	25.5
3499.94	21.5
