#Acq. time (s)=	5
#Accumulations=	5
#Range (cm-¹)=	100...3500
#Windows=	4
#Autofocus=	Off
#AutoExposure=	Off
#Spike filter=	Multiple accum.
#Delay time (s)=	0
#Binning=	1
#Readout mode=	Signal
#DeNoise=	Off
#ICS correction=	Off
#Dark correction=	Off
#Inst. Process=	Off
#Instrument=	LabRAM HR Evol
#Detector=	Syncerity OE
#Objective=	x100_VIS
#Grating=	600 (500nm)
#ND Filter=	25%
#Laser=	633nm_Edge
#Hole=	100.021
#Range=	Visible
#Project=	verificaciones
#Sample=	at4
#Site=	lined
#Title=	bolusat4lined
#Remark=	
#Date=	14.01.2026 14:26
#Acquired=	14.01.2026 14:26:31
100.618	27
101.901	37
103.185	33.5
104.468	29
105.751	29
107.033	31.5
108.316	29.5
109.598	33
110.88	33
112.162	30
113.445	31
114.727	33
116.008	33
117.289	34
118.57	34
119.85	34.5
121.13	34.5
122.411	31
123.691	33
124.97	31
126.25	36.5
127.529	32
128.808	36
130.086	32.5
131.364	38
132.643	36.5
133.921	34.5
135.199	34
136.477	37
137.755	36.5
139.032	34.5
140.309	36.5
141.586	39
142.863	36
144.14	35.5
145.415	40
146.691	35
147.967	40.5
149.243	41.5
150.518	41
151.794	38
153.067	42
154.342	43.5
155.617	45
156.892	38.5
158.166	37
159.439	48
160.712	39
161.986	37.5
163.26	43.5
164.531	38
165.805	40
167.077	43
168.35	40
169.621	38
170.893	35.5
172.165	39
173.437	38
174.707	45.5
175.979	37.5
177.25	41.5
178.519	38
179.79	43
181.061	38
182.33	41.5
183.6	40
184.87	40.5
186.138	42.5
187.408	45
188.676	41.5
189.945	42
191.214	39
192.481	38
193.75	37.5
195.016	35.5
196.285	42.5
197.552	40.5
198.819	39
200.086	38
201.352	38
202.619	35
203.884	37
205.151	34.5
206.416	36.5
207.682	39
208.947	36
210.213	29
211.477	36.5
212.742	32.5
214.006	31.5
215.271	35
216.535	34.5
217.799	34
219.062	37.5
220.326	38
221.589	34
222.851	35
224.115	35
225.377	35
226.64	32.5
227.901	33
229.163	30.5
230.425	34
231.686	32.5
232.947	30.5
234.209	30.5
235.469	35.5
236.729	34
237.991	33.5
239.25	31
240.51	33.5
241.771	36
243.03	30
244.288	31
245.549	30
246.807	34.5
248.065	32.5
249.323	30.5
250.583	31.5
251.84	30.5
253.098	28.5
254.355	35.5
255.613	31
256.87	30
258.127	33.5
259.383	36
260.639	33.5
261.897	29
263.153	29
264.408	32
265.664	33.5
266.919	32.5
268.174	34.5
269.43	34.5
270.685	33.5
271.939	29
273.193	28
274.447	27
275.701	30
276.955	30.5
278.208	30
279.461	32.5
280.714	37.5
281.968	29
283.221	33
284.473	31
285.726	26
286.977	29
288.229	33
289.481	26
290.732	34
291.983	31
293.234	29.5
294.485	32.5
295.736	31.5
296.986	32
298.236	29.5
299.486	28.5
300.736	29
301.985	28.5
303.233	32
304.482	30.5
305.731	31.5
306.98	29
308.228	33.5
309.477	31.5
310.725	29.5
311.973	31.5
313.22	32.5
314.468	28
315.714	31
316.961	30
318.208	30
319.455	30
320.701	33
321.947	32
323.192	32
324.438	29.5
325.684	34
326.929	27.5
328.175	30
329.418	30
330.663	32
331.908	29
333.152	31
334.395	34
335.639	29
336.883	33
338.127	29
339.369	28.5
340.612	33.5
341.855	31
343.097	29.5
344.34	32.5
345.582	31
346.823	30.5
348.065	26.5
349.307	31.5
350.547	32.5
351.789	27
353.03	32.5
354.27	36
355.511	30
356.75	34
357.991	29.5
359.231	33.5
360.47	32
361.709	25.5
362.948	29
364.187	33
365.427	30.5
366.664	32
367.903	29.5
369.14	32
370.379	32.5
371.616	32
372.854	33.5
374.091	30
375.328	32
376.564	27.5
377.802	29
379.037	30.5
380.274	30.5
381.51	27.5
382.745	30
383.981	30
385.216	30
386.452	28.5
387.686	34.5
388.922	29
390.155	31.5
391.389	27
392.624	33.5
393.857	27
395.091	28
396.325	32
397.558	35
398.79	31
400.024	34
401.256	30
402.488	29
403.721	30
404.953	31.5
406.184	30
407.417	31
408.648	28.5
409.878	30
411.109	30.5
412.341	32
413.571	29.5
414.801	26.5
416.031	33.5
417.262	29
418.491	28.5
419.72	29.5
420.949	30
422.178	30.5
423.408	31
424.637	29.5
425.865	32
427.093	31
428.32	30
429.548	30
430.777	33
432.004	28
433.231	33.5
434.458	32
435.685	33
436.911	31.5
438.137	30
439.363	29.5
440.589	27
441.815	33
443.042	27
444.267	30
445.492	30.5
446.717	32
447.942	33
449.166	33.5
450.39	28.5
451.615	32
452.838	32
454.062	30
455.286	31
456.509	31
457.732	26
458.955	34.5
460.178	30
461.399	35.5
462.621	34
463.843	36
465.065	33
466.287	33
467.508	37.5
468.73	38
469.951	36
471.172	34.5
472.393	41
473.612	38
474.832	42.5
476.052	38
477.272	44.5
478.492	43.5
479.712	48.5
480.93	49
482.149	50
483.368	56
484.587	51.5
485.806	51
487.023	56
488.241	51
489.459	61.5
490.677	62
491.893	50
493.111	58
494.328	52
495.543	49
496.76	47
497.977	47.5
499.194	47.5
500.409	42.5
501.625	46.5
502.841	42.5
504.055	44
505.27	41
506.486	39
507.699	41
508.914	34.5
510.128	36.5
511.342	36.5
512.557	32
513.77	36
514.984	38
516.196	35
517.41	38.5
518.623	40.5
519.835	28.5
521.048	34.5
522.259	35
523.472	32
524.683	37
525.895	32
527.106	32.5
528.318	34.5
529.528	28
530.74	29.5
531.949	33.5
533.161	31.5
534.37	31.5
535.581	35.5
536.79	31.5
537.999	32
539.209	34
540.418	32.5
541.627	33.5
542.835	30
544.043	30.5
545.253	29.5
546.46	33.5
547.669	32.5
548.876	32
550.083	30.5
551.292	27
552.498	30.5
553.705	29
554.912	33
556.118	26.5
557.324	30
558.53	36
559.737	28.5
560.942	31
562.147	30.5
563.353	27.5
564.558	33
565.763	32.5
566.967	31
568.173	30
569.377	32
570.58	26
571.784	35
572.987	26
574.192	31
575.395	27
576.598	26.5
577.8	30.5
579.003	31
580.205	31
581.407	32
582.61	32.5
583.812	33
585.014	32
586.215	32
587.416	32.5
588.617	33
589.818	31
591.018	31.5
592.219	31.5
593.419	26.5
594.619	30
595.819	27
597.02	33.5
598.219	31.5
599.418	26
600.617	28.5
601.816	31.5
603.015	29
604.213	31
605.41	30
606.608	30
607.806	29
609.004	28.5
610.201	27
611.399	34
612.596	33
613.793	29.5
614.989	32
616.186	27.5
617.382	31.5
618.579	28
619.775	30.5
620.969	26
622.165	29.5
623.36	35.5
624.555	32.5
625.75	33
626.945	27.5
628.139	31
629.333	30.5
630.527	34.5
631.721	33
632.915	28
634.108	28.5
635.301	31
636.495	34
637.688	31
638.88	31.5
640.072	31.5
641.265	28
642.456	33.5
643.648	31.5
644.84	29.5
646.032	28
647.222	33
648.414	28
649.605	32
650.795	27
651.986	29.5
653.177	32
654.366	31
655.556	26.5
656.745	35
657.935	31
659.125	31.5
660.313	33
661.503	33
662.69	33.5
663.879	31
665.067	31
666.256	31.5
667.444	31
668.631	32
669.819	37
671.006	31.5
672.194	32.5
673.38	37
674.567	35
675.753	31
676.94	33.5
678.125	35.5
679.311	31
680.497	37
681.682	31
682.868	38
684.053	36
685.238	39
686.422	36.5
687.606	37
688.792	35.5
689.975	38.5
691.159	38
692.343	32.5
693.526	32
694.71	38
695.893	37.5
697.076	36.5
698.259	37.5
699.441	32
700.623	44
701.805	38
702.988	45.5
704.169	48.5
705.35	47
706.533	50
707.714	56
708.894	51
710.075	51
711.255	48
712.436	45.5
713.616	41.5
714.796	38.5
715.975	35.5
717.155	33.5
718.335	35
719.514	33.5
720.693	34.5
721.872	35.5
723.05	33.5
724.228	34
725.406	32
726.585	32.5
727.763	34
728.941	32
730.118	32
731.295	33.5
732.472	27.5
733.649	33.5
734.825	32.5
736.002	32.5
737.178	30.5
738.354	29
739.53	29.5
740.705	33.5
741.881	31.5
743.056	33.5
744.231	30
745.406	31
746.581	32.5
747.755	26
748.93	28
750.104	33
751.278	26
752.452	29.5
753.625	30
754.799	35.5
755.972	31
757.144	30.5
758.317	32
759.489	31
760.662	27.5
761.834	31
763.006	30
764.178	28.5
765.349	32
766.521	31
767.692	28.5
768.863	26.5
770.034	29
771.204	27.5
772.374	33
773.545	27
774.715	32
775.885	29.5
777.054	30
778.224	32
779.393	32
780.562	28
781.731	36.5
782.9	32.5
784.069	37.5
785.236	34
786.405	35.5
787.573	32.5
788.74	32
789.908	33
791.074	32.5
792.242	34.5
793.409	33
794.575	30
795.742	30
796.909	28.5
798.074	32
799.241	28.5
800.406	31
801.572	32.5
802.737	29
803.902	34
805.067	32
806.232	26
807.396	30.5
808.561	29.5
809.725	28
810.889	28.5
812.052	28
813.217	31
814.38	32
815.544	34
816.706	27
817.87	31
819.032	29.5
820.195	29.5
821.357	28.5
822.518	31
823.681	31.5
824.842	28.5
826.005	29.5
827.165	33.5
828.326	28
829.488	28
830.648	31
831.808	29.5
832.97	28
834.129	31
835.289	29.5
836.45	33
837.609	25.5
838.768	34.5
839.927	34
841.087	27.5
842.245	33
843.404	30.5
844.562	31
845.721	34.5
846.879	32
848.036	28
849.194	28
850.351	31
851.509	32
852.666	30.5
853.823	27
854.979	29.5
856.136	32.5
857.292	31
858.448	32.5
859.605	28
860.761	30.5
861.916	32
863.071	35
864.226	30.5
865.381	26
866.536	35
867.691	30.5
868.845	30
869.999	30.5
871.153	27
872.307	31
873.461	30.5
874.614	32
875.767	35
876.92	31.5
878.073	27.5
879.226	28.5
880.379	28.5
881.531	31.5
882.683	32
883.835	24.5
884.987	26.5
886.139	27.5
887.291	26.5
888.442	33.5
889.593	29
890.743	31.5
891.893	27.5
893.044	29.5
894.195	25
895.345	25.5
896.495	28
897.643	28.5
898.793	30
899.943	32.5
901.092	27.5
902.241	27
903.389	28
904.538	27.5
905.687	29.5
906.835	29
907.982	30.5
909.13	29
910.278	30
911.426	30
912.572	28
913.72	25
914.867	31
916.013	27.5
917.16	30
918.306	31
919.451	27
920.598	25
921.744	26
922.889	27
924.035	35.5
925.18	31.5
926.324	30.5
927.47	33
928.614	31
929.758	29
930.902	33.5
932.047	30
933.191	29.5
934.334	30
935.478	25
936.621	32
937.764	25
938.906	25
940.05	24
941.192	28
942.335	29
943.476	27.5
944.619	32
945.76	31.5
946.901	31
948.043	26
949.184	28.5
950.326	32
951.466	29.5
952.606	27
953.747	29
954.887	30
956.028	30.5
957.167	26.5
958.307	29
959.447	29
960.586	25
961.725	30
962.865	31
964.003	31
965.141	28
966.279	28
967.418	27.5
968.556	26
969.693	29.5
970.831	29.75
971.969	28.5
973.106	27.5
974.243	30
975.38	29.5
976.517	31.5
977.654	28
978.79	29
979.926	25
981.061	30
982.197	28
983.334	25
984.469	26
985.604	27
986.739	23.5
987.873	24
989.008	25
990.142	26
991.277	31
992.411	30
993.544	32
994.679	30.5
995.813	27
996.946	29
998.079	27.5
999.212	29.5
1000.35	29
1001.48	28
1002.61	30.5
1003.74	30
1004.87	29.5
1006.01	26.5
1007.14	29.5
1008.27	25
1009.4	32
1010.53	30.5
1011.66	27.5
1012.79	25
1013.92	29
1015.05	29
1016.18	29
1017.31	29
1018.44	28
1019.57	32
1020.7	27.5
1021.83	30
1022.96	30
1024.09	28
1025.22	28
1026.35	27
1027.48	31.5
1028.6	25.5
1029.73	32
1030.86	29.5
1031.99	30
1033.12	26.5
1034.24	30
1035.37	25.5
1036.5	30
1037.62	28.5
1038.75	30
1039.88	30.5
1041	27
1042.13	26
1043.25	30
1044.38	28
1045.5	26.5
1046.63	27
1047.76	26.5
1048.88	27.5
1050	26
1051.13	29
1052.25	27.5
1053.38	27
1054.5	28.5
1055.63	27
1056.75	28.5
1057.87	29
1058.99	29.5
1060.12	27
1061.24	26.5
1062.36	29.5
1063.49	29
1064.61	30.5
1065.73	29.5
1066.85	25
1067.97	32
1069.1	29.5
1070.22	26
1071.34	29.5
1072.46	30.5
1073.58	30.5
1074.7	25.5
1075.82	29
1076.94	28.5
1078.06	30
1079.18	28.5
1080.3	26
1081.42	27.5
1082.54	22.5
1083.66	25.5
1084.78	29
1085.9	27.5
1087.02	30
1088.13	26.5
1089.25	25.5
1090.37	29
1091.49	29
1092.61	30.5
1093.72	26.5
1094.84	28
1095.96	28
1097.08	31
1098.19	26.5
1099.31	25
1100.42	28.5
1101.54	26
1102.66	28
1103.77	24
1104.89	26.5
1106	24.5
1107.12	29.5
1108.23	23.5
1109.35	27
1110.46	26.5
1111.58	32
1112.69	26.5
1113.81	25.5
1114.92	29.5
1116.04	29
1117.15	28
1118.26	27
1119.38	26.5
1120.49	23.5
1121.6	27.5
1122.72	28
1123.83	27
1124.94	29
1126.05	29.5
1127.17	28
1128.28	27.5
1129.39	26.5
1130.5	28.5
1131.61	28
1132.72	29.5
1133.83	29.5
1134.94	28
1136.06	28.5
1137.17	28.5
1138.27	29
1139.39	25
1140.5	31
1141.61	28.5
1142.72	28
1143.82	33
1144.93	26
1146.04	29
1147.15	26
1148.26	27
1149.37	27.5
1150.48	27
1151.58	26.5
1152.69	26
1153.8	30.5
1154.91	26
1156.02	26
1157.12	27.5
1158.23	28.5
1159.34	30.5
1160.44	27
1161.55	29
1162.66	28.5
1163.76	27
1164.87	33
1165.97	23
1167.08	30
1168.18	27
1169.29	27.5
1170.39	27
1171.5	26.5
1172.6	26.5
1173.71	26.5
1174.81	25
1175.92	26
1177.02	29
1178.13	25
1179.23	28.5
1180.33	26.5
1181.44	28
1182.54	26.5
1183.64	24
1184.74	27.5
1185.85	27
1186.95	26
1188.05	28.5
1189.15	26.5
1190.26	27.5
1191.36	26.5
1192.46	24
1193.56	24.5
1194.66	24.5065
1195.76	26.9615
1196.86	25.5801
1197.96	26.4851
1199.06	32.7354
1200.16	26.465
1201.26	24.4202
1202.36	27.0636
1203.46	25.0093
1204.56	25.7321
1205.66	28.9346
1206.76	23.9521
1207.86	23.427
1208.96	24.4606
1210.06	29.3526
1211.16	25.2019
1212.25	27.9199
1213.35	27.6691
1214.45	25.1844
1215.55	26.0321
1216.65	26.0024
1217.74	23.8202
1218.84	26.4699
1219.94	23.8937
1221.03	26.8914
1222.13	28.5583
1223.23	23.6541
1224.32	26.1438
1225.42	27.2603
1226.52	25.7225
1227.61	26.8221
1228.71	26.8471
1229.8	27.8621
1230.9	24.3466
1231.99	24.165
1233.09	26.405
1234.18	24.7205
1235.28	27.3364
1236.37	27.3588
1237.47	25.0212
1238.56	25.6068
1239.65	26.8472
1240.75	24.0116
1241.84	27.7352
1242.93	26.7489
1244.03	26.822
1245.12	25.0161
1246.21	27.0253
1247.31	26.3727
1248.4	27.6159
1249.49	25.0401
1250.58	27.9552
1251.67	26.6421
1252.77	27.5341
1253.86	27.6481
1254.95	29.6428
1256.04	28.4381
1257.13	26.3866
1258.22	26.8954
1259.31	28.5914
1260.4	31.2017
1261.49	28.6185
1262.58	28.7578
1263.67	26.6603
1264.76	26.8926
1265.85	27.9102
1266.94	27.6878
1268.03	26.4433
1269.12	25.5861
1270.21	27.155
1271.3	26.2968
1272.39	30.9869
1273.47	28.1738
1274.56	27.8259
1275.65	27.2114
1276.74	26.3325
1277.83	26.2221
1278.91	26.8883
1280	26.0485
1281.09	26.0073
1282.17	26.0584
1283.26	26.3546
1284.35	26.2745
1285.43	26.3686
1286.52	24.4073
1287.61	25.5917
1288.69	28.4211
1289.78	26.7255
1290.86	22.9551
1291.95	23.3831
1293.03	23.6201
1294.12	25.9287
1295.2	24.8763
1296.29	23.3055
1297.37	26.0354
1298.46	26.3928
1299.54	25.111
1300.63	26.9259
1301.71	27.7949
1302.79	26.2319
1303.88	24.3484
1304.96	24.091
1306.04	27.0878
1306.5	29
1307.59	28.5
1308.68	29
1309.76	27.5
1310.85	29.5
1311.94	24
1313.03	26.5
1314.11	27
1315.2	26.5
1316.29	27
1317.37	24
1318.46	26
1319.55	27
1320.63	26.5
1321.72	26.5
1322.81	28
1323.89	21
1324.98	23.5
1326.06	25.5
1327.15	26.5
1328.23	23
1329.32	22
1330.4	24
1331.49	29
1332.57	24.5
1333.66	25.5
1334.74	27
1335.82	25.5
1336.91	26.5
1337.99	24.5
1339.07	29.5
1340.16	29.5
1341.24	26.5
1342.32	26
1343.4	26
1344.49	27
1345.57	21.5
1346.65	24.5
1347.73	27
1348.82	26
1349.9	29
1350.98	28.5
1352.06	23
1353.14	28
1354.22	29.5
1355.3	25.5
1356.38	23
1357.46	25.5
1358.54	27
1359.62	25.5
1360.7	27
1361.78	30
1362.86	25
1363.94	25
1365.02	24.5
1366.1	27
1367.18	26
1368.26	28.5
1369.34	19
1370.41	25
1371.49	27
1372.57	26
1373.65	28
1374.72	27.5
1375.8	31
1376.88	27
1377.96	24.5
1379.03	23
1380.11	26.5
1381.19	26
1382.26	28
1383.34	25.5
1384.42	28.5
1385.49	26.5
1386.57	25.5
1387.64	25
1388.72	27
1389.79	25
1390.87	28
1391.94	28
1393.02	26
1394.09	32
1395.17	29
1396.24	27.5
1397.31	29
1398.39	26.5
1399.46	28
1400.54	31.5
1401.61	31
1402.68	31
1403.76	30
1404.83	33.5
1405.9	29
1406.97	30
1408.05	28
1409.12	34
1410.19	34
1411.26	32
1412.33	30
1413.4	26.5
1414.48	34.5
1415.55	29.5
1416.62	32
1417.69	31
1418.76	30.5
1419.83	28
1420.9	26
1421.97	29
1423.04	30
1424.11	28
1425.18	27
1426.25	28
1427.32	31.5
1428.39	31.5
1429.46	31
1430.52	30
1431.59	27
1432.66	26
1433.73	29
1434.8	31
1435.87	29.5
1436.93	28
1438	26.5
1439.07	27
1440.14	27.5
1441.2	31
1442.27	26.5
1443.34	29
1444.4	28.5
1445.47	24.5
1446.54	27
1447.6	29
1448.67	28
1449.73	30
1450.8	24
1451.86	29.5
1452.93	23
1453.99	26
1455.06	29
1456.12	28.5
1457.19	29.5
1458.25	25.5
1459.32	28
1460.38	26
1461.45	26.5
1462.51	26
1463.57	25
1464.64	25.5
1465.7	28
1466.76	27
1467.82	24
1468.89	29.5
1469.95	26.5
1471.01	27
1472.07	29
1473.14	31
1474.2	31.5
1475.26	28
1476.32	26
1477.38	27
1478.44	26.5
1479.5	31.5
1480.57	29.5
1481.63	30.5
1482.69	31
1483.75	27.5
1484.81	29
1485.87	26
1486.93	27.5
1487.99	31
1489.05	28
1490.1	27.5
1491.17	24
1492.22	28.5
1493.28	26.5
1494.34	30
1495.4	25.5
1496.46	28
1497.52	29.5
1498.57	23
1499.63	30
1500.69	29
1501.75	27
1502.8	28.5
1503.86	28
1504.92	23
1505.98	27
1507.03	30.5
1508.09	30
1509.15	26.5
1510.2	26
1511.26	26
1512.31	28
1513.37	25
1514.42	26
1515.48	29.5
1516.53	27
1517.59	24
1518.64	29.5
1519.7	24.5
1520.75	27.5
1521.81	26.5
1522.86	29
1523.92	28.5
1524.97	27
1526.02	26
1527.08	28.5
1528.13	21
1529.18	25
1530.24	27
1531.29	30
1532.34	27.5
1533.39	29
1534.45	30.5
1535.5	22.5
1536.55	31
1537.6	25.5
1538.65	27.5
1539.71	27.5
1540.76	20.5
1541.81	28
1542.86	25
1543.91	28
1544.96	25.5
1546.01	26
1547.06	25.5
1548.11	23.5
1549.16	26
1550.21	27
1551.26	27.5
1552.31	24
1553.36	27
1554.41	26
1555.46	29
1556.51	23.5
1557.56	25
1558.6	24
1559.65	32
1560.7	28
1561.75	31
1562.8	25
1563.84	27.5
1564.89	29.5
1565.94	24.5
1566.99	25.5
1568.03	28
1569.08	24
1570.13	24.5
1571.17	26
1572.22	26
1573.27	28
1574.31	24
1575.36	28.5
1576.4	25
1577.45	29
1578.5	28
1579.54	28
1580.59	28.5
1581.63	28
1582.68	29
1583.72	27
1584.76	26
1585.81	27.5
1586.85	27
1587.9	29.5
1588.94	25.5
1589.98	21.5
1591.03	26
1592.07	27.5
1593.11	29
1594.16	30
1595.2	26
1596.24	25.5
1597.29	27.5
1598.33	28
1599.37	27
1600.41	27
1601.45	21
1602.49	24.5
1603.54	28.5
1604.58	25
1605.62	26
1606.66	29.5
1607.7	29
1608.74	25.5
1609.78	24.5
1610.82	28
1611.86	27.5
1612.9	25.5
1613.94	23.5
1614.98	25.5
1616.02	27.5
1617.06	27.5
1618.1	28.5
1619.14	26
1620.18	27
1621.22	29
1622.25	26
1623.29	29
1624.33	28
1625.37	25.5
1626.41	27.5
1627.45	27
1628.48	23.5
1629.52	25
1630.56	27.5
1631.59	25.5
1632.63	28
1633.67	28
1634.7	28
1635.74	28.5
1636.78	26
1637.81	28
1638.85	30.5
1639.88	27
1640.92	27
1641.96	28.5
1642.99	25
1644.03	27
1645.06	24
1646.1	29
1647.13	30.5
1648.17	29.5
1649.2	29
1650.23	24
1651.27	25.5
1652.3	26
1653.33	29.5
1654.37	25
1655.4	25.5
1656.44	27
1657.47	26.5
1658.5	23
1659.53	29
1660.57	26
1661.6	24.5
1662.63	27
1663.66	28.5
1664.69	25.5
1665.73	24.5
1666.76	26.5
1667.79	29.5
1668.82	24
1669.85	27.5
1670.88	26.5
1671.91	28
1672.94	29
1673.97	25
1675.01	26
1676.03	28.5
1677.07	27.5
1678.1	30.5
1679.12	29.5
1680.15	24.5
1681.18	27
1682.21	28.5
1683.24	27
1684.27	28
1685.3	21
1686.33	24
1687.36	26
1688.38	26.5
1689.41	28.5
1690.44	29.5
1691.47	29
1692.5	27.5
1693.52	25.5
1694.55	27
1695.58	28
1696.6	26
1697.63	28
1698.66	28.5
1699.68	26
1700.71	23
1701.74	29
1702.76	24.5
1703.79	23.5
1704.81	22
1705.84	22
1706.86	27
1707.89	28
1708.91	26.5
1709.94	25.5
1710.96	24
1711.99	24
1713.01	26.5
1714.04	22.5
1715.06	28
1716.08	28
1717.11	29
1718.13	28.5
1719.16	26
1720.18	29
1721.2	25.5
1722.22	29.5
1723.25	26.5
1724.27	26.5
1725.29	26
1726.31	25.5
1727.34	25
1728.36	25.5
1729.38	26
1730.4	27
1731.42	26
1732.44	29
1733.47	28
1734.49	24.5
1735.51	27
1736.53	26
1737.55	23
1738.57	27
1739.59	28.5
1740.61	28
1741.63	29.5
1742.65	29.5
1743.67	24
1744.69	27
1745.71	27.5
1746.73	28
1747.75	29.5
1748.76	29
1749.78	23.5
1750.8	27
1751.82	20.5
1752.84	25
1753.86	23.5
1754.87	28.5
1755.89	25
1756.91	27
1757.93	23.5
1758.94	24
1759.96	26.5
1760.98	27
1761.99	24
1763.01	28.5
1764.03	24
1765.04	24
1766.06	25.5
1767.08	27
1768.09	26.5
1769.11	25
1770.12	25
1771.14	23.5
1772.15	25
1773.17	25
1774.18	24
1775.2	24.5
1776.21	27
1777.23	28
1778.24	28.5
1779.25	26.5
1780.27	25
1781.28	26
1782.3	29.5
1783.31	28.5
1784.32	27
1785.34	25
1786.35	26.5
1787.36	26
1788.37	27
1789.39	27
1790.4	28
1791.41	28.5
1792.42	25.5
1793.43	28.5
1794.45	28
1795.46	26.5
1796.47	22.5
1797.48	29.5
1798.49	24.5
1799.5	26.5
1800.51	28
1801.52	30.5
1802.53	26.5
1803.54	26
1804.55	23
1805.56	23
1806.57	29
1807.58	23
1808.59	26.5
1809.6	25.5
1810.61	29.5
1811.62	25.5
1812.63	23.5
1813.64	28
1814.65	27
1815.66	23.5
1816.66	22.5
1817.67	27
1818.68	25
1819.69	24.5
1820.69	27.5
1821.7	26
1822.71	23.5
1823.72	27
1824.72	27.5
1825.73	27.5
1826.74	25
1827.74	29
1828.75	27
1829.76	23
1830.76	27
1831.77	27
1832.77	29
1833.78	23
1834.79	25
1835.79	23.5
1836.8	30
1837.8	24.5
1838.81	25.5
1839.81	26.5
1840.81	23
1841.82	26.5
1842.82	24
1843.83	25
1844.83	23.5
1845.83	26.5
1846.84	27
1847.84	24
1848.84	26.5
1849.85	26.5
1850.85	22
1851.85	26.5
1852.86	29
1853.86	25
1854.86	29
1855.86	29
1856.86	24.5
1857.87	26
1858.87	24
1859.87	26.5
1860.87	23
1861.87	24.5
1862.87	27.5
1863.88	25.5
1864.88	27
1865.88	26
1866.88	23.5
1867.88	27.5
1868.88	25
1869.88	23.5
1870.88	28
1871.88	29
1872.88	33.5
1873.88	27.5
1874.87	27
1875.87	25.5
1876.87	27
1877.87	28.5
1878.87	27.5
1879.87	24
1880.87	24.5
1881.86	28
1882.86	23.5
1883.86	27.5
1884.86	21.5
1885.86	23.5
1886.85	26.5
1887.85	25
1888.85	26
1889.84	29
1890.84	21.5
1891.84	23.5
1892.83	25.5
1893.83	27
1894.83	28.5
1895.82	24.5
1896.82	23
1897.81	30
1898.81	24
1899.81	25
1900.8	23
1901.8	24
1902.79	27
1903.78	24.5
1904.78	27.5
1905.77	26.5
1906.77	27.5
1907.76	26.5
1908.76	25
1909.75	26
1910.74	27
1911.74	28.5
1912.73	25.5
1913.72	23.5
1914.72	23
1915.71	24
1916.7	24
1917.7	28
1918.69	28
1919.68	29
1920.67	24
1921.66	25.5
1922.66	25
1923.65	26.5
1924.64	27
1925.63	23
1926.62	22
1927.61	21.5
1928.6	25.5
1929.59	25.5
1930.59	29
1931.58	27
1932.57	28.5
1933.56	26
1934.55	26
1935.54	22
1936.53	25.5
1937.52	25
1938.51	22.5
1939.49	26
1940.48	22
1941.47	24
1942.46	26
1943.45	25
1944.44	25
1945.43	23.5
1946.42	25.5
1947.4	29.5
1948.39	27.75
1949.38	26
1950.37	28
1951.35	25
1952.34	27
1953.33	25
1954.31	27
1955.3	24
1956.29	26
1957.27	24.5
1958.26	31
1959.25	22.5
1960.23	22.5
1961.22	27.5
1962.21	24
1963.19	28
1964.18	25
1965.16	22
1966.15	26
1967.13	26
1968.12	24
1969.1	24.5
1970.09	26.5
1971.07	23.5
1972.05	27
1973.04	27
1974.02	28
1975.01	27.5
1975.99	26.5
1976.97	23.5
1977.96	23.5
1978.94	28.5
1979.92	25
1980.91	27.5
1981.89	26
1982.87	25.5
1983.85	28
1984.84	28
1985.82	24.5
1986.8	24
1987.78	20
1988.76	25.5
1989.74	24.5
1990.73	21.5
1991.71	28
1992.69	19.5
1993.67	24
1994.65	27
1995.63	24.5
1996.61	24.5
1997.59	24.5
1998.57	27.5
1999.55	26.5
2000.53	23
2001.51	25
2002.49	25.5
2003.47	25.5
2004.45	23.5
2005.43	27
2006.41	27.5
2007.39	26
2008.37	23.5
2009.34	24
2010.32	26
2011.3	25.5
2012.28	26
2013.26	23
2014.23	26
2015.21	26.5
2016.19	27
2017.17	25.5
2018.14	23
2019.12	22
2020.1	23
2021.07	20.5
2022.05	25.5
2023.03	22.5
2024	25.5
2024.98	24.5
2025.96	26
2026.93	25
2027.91	29.5
2028.88	24.5
2029.86	25.5
2030.83	23.5
2031.81	24.5
2032.78	25
2033.76	25.5
2034.73	23.5
2035.71	24
2036.68	26
2037.66	27
2038.63	28
2039.6	26
2040.58	24
2041.55	24.5
2042.52	30
2043.5	24
2044.47	24
2045.44	22
2046.42	24
2047.39	23.5
2048.36	26.5
2049.33	26
2050.31	25
2051.28	23
2052.25	22
2053.22	21
2054.19	25.5
2055.17	26
2056.14	27
2057.11	28
2058.08	27
2059.05	29
2060.02	26
2060.99	22.5
2061.96	22
2062.93	24
2063.9	27
2064.87	25.5
2065.84	23
2066.81	23.5
2067.78	25
2068.75	24.5
2069.72	24.5
2070.69	26
2071.66	21.5
2072.63	22.5
2073.6	26.5
2074.56	26
2075.53	20
2076.5	19
2077.47	27
2078.44	24.5
2079.4	26
2080.37	24.5
2081.34	29
2082.31	20.5
2083.27	24
2084.24	24.5
2085.21	20
2086.18	26.5
2087.14	22.5
2088.11	27.5
2089.07	26
2090.04	23
2091.01	22.5
2091.97	21
2092.94	26
2093.9	24
2094.87	24
2095.83	24
2096.8	22
2097.76	26
2098.73	26
2099.69	21
2100.66	24
2101.62	21
2102.59	21
2103.55	24
2104.52	26
2105.48	27.5
2106.44	27
2107.41	21
2108.37	26
2109.33	24
2110.3	25.5
2111.26	23.5
2112.22	24
2113.18	24.5
2114.15	20
2115.11	25
2116.07	24.5
2117.03	24
2118	24
2118.96	21
2119.92	25
2120.88	23.5
2121.84	26
2122.8	24.5
2123.76	23.5
2124.72	23.5
2125.68	23.5
2126.65	23.5
2127.61	25
2128.57	24.5
2129.53	25.5
2130.49	21.5
2131.45	26.5
2132.41	24
2133.36	29.5
2134.32	23
2135.28	23.5
2136.24	22
2137.2	21.5
2138.16	21.5
2139.12	25
2140.08	23.5
2141.04	24
2141.99	21.5
2142.95	24.4927
2143.91	26.46
2144.87	24.9684
2145.83	25.3516
2146.78	24.843
2147.74	20.1602
2148.7	24.0037
2149.66	23.0919
2150.61	24.2817
2151.57	21.7
2152.53	24.7965
2153.48	23.7745
2154.44	22.6429
2155.4	23.2494
2156.35	25.2112
2157.31	22.5518
2158.26	25.2237
2159.22	25.5273
2160.17	22.5438
2161.13	21.6751
2162.08	23.2977
2163.04	21.5925
2163.99	24.1252
2164.95	23.3652
2165.9	23.85
2166.86	20.6156
2167.81	21.3714
2168.77	22.0945
2169.72	23.6678
2170.67	22.2034
2171.63	25.2833
2172.58	23.7926
2173.54	23.4375
2174.49	27.0895
2175.44	19.1922
2176.39	24.0467
2177.35	24.1456
2178.3	22.7219
2179.25	22.3755
2180.2	24.1697
2181.16	24.9798
2182.11	24.3058
2183.06	22.7969
2184.01	22.361
2184.96	24.735
2185.92	22.2979
2186.87	22.3958
2187.82	23.5379
2188.77	24.8522
2189.72	23.2791
2190.67	23.1054
2191.62	24.5618
2192.57	22.4999
2193.52	25.4702
2194.47	24.7354
2195.42	24.0669
2196.37	26.615
2197.32	21.9682
2198.27	22.8893
2199.22	23.2791
2200.17	24.7213
2201.12	24.5993
2202.07	25.3997
2203.02	23.3852
2203.97	24.306
2204.92	22.357
2205.87	21.8839
2206.81	22.7518
2207.76	22.8594
2208.71	23.4677
2209.66	22.4733
2210.61	22.788
2211.55	23.8086
2212.5	24.0831
2213.45	25.28
2214.4	21.7049
2215.34	24.6181
2216.29	23.0133
2217.24	23.0485
2218.18	25.7426
2219.13	24.0922
2220.08	27.1167
2221.02	22.654
2221.97	22.4733
2222.92	24.3504
2223.86	25.8653
2224.81	20.4383
2225.75	22.6932
2226.7	23.0419
2227.64	22.793
2228.59	24.3648
2229.53	24.0926
2230.48	20.3083
2231.42	22.799
2232.37	25.1097
2233.31	18.9998
2234.26	20.8551
2235.2	21.0534
2236.14	25.4335
2237.09	25.5934
2238.03	24.638
2238.97	24.066
2239.92	24.4378
2240.05	24.5
2241	25
2241.95	23.5
2242.89	20
2243.84	23.5
2244.79	18
2245.74	23.5
2246.68	21
2247.63	21
2248.58	22
2249.53	22
2250.47	21.5
2251.42	21.5
2252.36	25
2253.31	24.5
2254.26	23.5
2255.2	26
2256.15	24
2257.1	23.5
2258.04	22
2258.99	22
2259.93	23.5
2260.88	23
2261.82	24
2262.77	20
2263.71	22.5
2264.66	21
2265.6	23.5
2266.55	23.5
2267.49	21.5
2268.43	25.5
2269.38	21
2270.32	22
2271.26	26.5
2272.21	26.5
2273.15	24
2274.09	22
2275.04	23.5
2275.98	23
2276.92	20
2277.87	26.5
2278.81	25.5
2279.75	22
2280.69	20
2281.64	27.5
2282.58	26.5
2283.52	22
2284.46	27
2285.4	24
2286.34	22.5
2287.29	24
2288.23	28
2289.17	28.5
2290.11	26
2291.05	22
2291.99	22.5
2292.93	22
2293.87	24
2294.81	24
2295.75	25.5
2296.69	17
2297.63	26
2298.57	23.5
2299.51	28
2300.45	24.5
2301.39	23
2302.33	27.5
2303.27	25
2304.2	23.5
2305.14	22
2306.08	23.5
2307.02	23
2307.96	25.5
2308.9	24.5
2309.83	23
2310.77	20.5
2311.71	23
2312.65	25
2313.58	26
2314.52	24
2315.46	22.5
2316.39	22
2317.33	23.5
2318.27	22
2319.21	20.5
2320.14	24
2321.08	23
2322.01	21.5
2322.95	23.5
2323.89	25.5
2324.82	23
2325.76	23
2326.69	26
2327.63	24
2328.56	22.5
2329.5	22
2330.43	22.5
2331.37	24
2332.3	25.5
2333.24	25
2334.17	30
2335.1	26
2336.04	20
2336.97	24
2337.91	29
2338.84	22.5
2339.77	25.5
2340.71	22
2341.64	26
2342.57	26
2343.51	23.5
2344.44	24
2345.37	23.5
2346.3	21.5
2347.24	27
2348.17	22.5
2349.1	25
2350.03	23
2350.96	29
2351.89	21.5
2352.83	26
2353.76	23
2354.69	22
2355.62	22.5
2356.55	26
2357.48	26
2358.41	24.5
2359.34	23
2360.27	25.5
2361.2	23
2362.13	21.5
2363.06	28.5
2363.99	25.5
2364.92	25
2365.85	26
2366.78	28.5
2367.71	24
2368.64	20.5
2369.57	26
2370.5	26.5
2371.43	25
2372.36	25
2373.28	20
2374.21	23.5
2375.14	23.5
2376.07	19.5
2377	23
2377.93	24
2378.85	25
2379.78	24.5
2380.71	26.5
2381.63	21.5
2382.56	24
2383.49	21
2384.42	24
2385.34	22
2386.27	25.5
2387.2	24
2388.12	26.5
2389.05	27
2389.97	23
2390.9	26.5
2391.82	24
2392.75	25.5
2393.68	22
2394.6	27.5
2395.53	21
2396.45	23.5
2397.38	22
2398.3	29
2399.23	24.5
2400.15	22
2401.07	21
2402	21.5
2402.92	19
2403.85	23.5
2404.77	27.5
2405.69	27
2406.62	26
2407.54	25
2408.46	24.5
2409.39	23
2410.31	24.5
2411.23	24
2412.16	25
2413.08	26.5
2414	26
2414.92	24
2415.85	25
2416.77	24.5
2417.69	25
2418.61	21.5
2419.53	23.5
2420.45	24
2421.38	25
2422.3	28.5
2423.22	26
2424.14	24
2425.06	26
2425.98	21.5
2426.9	23
2427.82	24
2428.74	26.5
2429.66	22
2430.58	25
2431.5	23.5
2432.42	22
2433.34	25.5
2434.26	24
2435.18	20
2436.1	26
2437.02	25.5
2437.94	27
2438.85	26
2439.77	23
2440.69	26
2441.61	22
2442.53	28.5
2443.45	22.5
2444.36	30
2445.28	24
2446.2	24
2447.12	27.5
2448.03	22.5
2448.95	22
2449.87	25
2450.79	25
2451.7	21
2452.62	29
2453.54	25.5
2454.45	22
2455.37	25
2456.28	21.5
2457.2	26.5
2458.12	25
2459.03	27.5
2459.95	23
2460.86	24.5
2461.78	26
2462.69	25
2463.61	22.5
2464.52	27
2465.44	27
2466.35	26
2467.27	26.5
2468.18	22
2469.1	25
2470.01	26
2470.93	24.5
2471.84	23
2472.75	23.5
2473.67	21.5
2474.58	22
2475.49	26.5
2476.41	22
2477.32	22
2478.23	25
2479.15	21.5
2480.06	26
2480.97	26
2481.88	23.5
2482.79	26
2483.71	21.5
2484.62	24
2485.53	24.5
2486.44	26
2487.35	22
2488.26	26
2489.18	29
2490.09	21.5
2491	26
2491.91	25
2492.82	25.5
2493.73	21
2494.64	22
2495.55	26
2496.46	23.5
2497.37	24.5
2498.28	25.5
2499.19	27.5
2500.1	28.5
2501.01	26
2501.92	24
2502.83	23
2503.74	27
2504.65	23.5
2505.56	28
2506.47	27
2507.37	24
2508.28	23.5
2509.19	22.5
2510.1	21.5
2511.01	25
2511.92	25
2512.82	26.5
2513.73	25
2514.64	24.5
2515.55	25
2516.45	25.5
2517.36	25.5
2518.27	21
2519.17	25
2520.08	26
2520.99	24.5
2521.89	26.5
2522.8	23
2523.71	21
2524.61	23
2525.52	24
2526.42	27
2527.33	25
2528.24	27
2529.14	25.5
2530.05	27
2530.95	23.5
2531.86	23
2532.76	26
2533.67	24.5
2534.57	22.5
2535.48	27
2536.38	26.5
2537.28	24.5
2538.19	26.5
2539.09	23.5
2540	27
2540.9	18.5
2541.8	26.5
2542.71	23
2543.61	24
2544.51	27.5
2545.42	26
2546.32	27
2547.22	24
2548.12	23.5
2549.03	26
2549.93	26.5
2550.83	28
2551.73	24
2552.63	25.5
2553.54	29.5
2554.44	25.5
2555.34	22
2556.24	19
2557.14	23.5
2558.04	25.5
2558.94	24
2559.85	24
2560.75	26
2561.65	23.5
2562.55	29.5
2563.45	20
2564.35	23.5
2565.25	26.5
2566.15	24
2567.05	23
2567.95	24
2568.85	23
2569.75	20
2570.65	19.5
2571.55	22.5
2572.44	25.5
2573.34	24
2574.24	21
2575.14	26.5
2576.04	24
2576.94	22
2577.84	24.5
2578.73	21
2579.63	23.5
2580.53	27
2581.43	23
2582.33	23.5
2583.22	23
2584.12	21.5
2585.02	24
2585.91	25
2586.81	26
2587.71	24.5
2588.6	26.5
2589.5	31
2590.4	24
2591.29	22
2592.19	24.5
2593.09	25.5
2593.98	22
2594.88	24.5
2595.77	25.5
2596.67	25.5
2597.56	25
2598.46	22.5
2599.35	23.5
2600.25	23.5
2601.14	24
2602.04	24
2602.93	27
2603.83	25
2604.72	26.5
2605.62	27
2606.51	24
2607.4	23
2608.3	24
2609.19	22
2610.09	23
2610.98	24
2611.87	26.5
2612.76	27.5
2613.66	25
2614.55	24
2615.44	25
2616.34	26.5
2617.23	28
2618.12	25
2619.01	25.5
2619.9	22.5
2620.8	23
2621.69	24
2622.58	25.5
2623.47	27
2624.36	23.5
2625.25	20
2626.15	25.5
2627.04	23.5
2627.93	24.5
2628.82	23.5
2629.71	24
2630.6	22.5
2631.49	24
2632.38	24.5
2633.27	25.5
2634.16	26
2635.05	23
2635.94	22.5
2636.83	25
2637.72	25
2638.61	25.5
2639.5	24
2640.39	25.5
2641.28	22
2642.16	27.5
2643.05	27
2643.94	25
2644.83	23
2645.72	24
2646.61	25
2647.49	21.5
2648.38	20.5
2649.27	24.5
2650.16	23
2651.05	22
2651.93	25
2652.82	25
2653.71	25
2654.59	27
2655.48	23
2656.37	25
2657.25	25.5
2658.14	24
2659.03	21
2659.91	25.5
2660.8	24.5
2661.69	26
2662.57	23.5
2663.46	23.5
2664.34	25.5
2665.23	28.5
2666.11	25
2667	24
2667.88	23.5
2668.77	27
2669.65	27
2670.54	27
2671.42	23
2672.31	24
2673.19	25
2674.08	26
2674.96	23.5
2675.84	28.5
2676.73	25
2677.61	26
2678.49	23.5
2679.38	22.5
2680.26	26.5
2681.14	27
2682.03	24.5
2682.91	22.5
2683.79	21.5
2684.68	24.5
2685.56	22
2686.44	22
2687.32	25
2688.2	25
2689.09	23.5
2689.97	25.5
2690.85	22.5
2691.73	23
2692.61	24
2693.49	27.5
2694.38	23.5
2695.26	26
2696.14	22
2697.02	25.5
2697.9	26.5
2698.78	25.5
2699.66	24
2700.54	28.5
2701.42	26.5
2702.3	26.5
2703.18	27
2704.06	27
2704.94	26
2705.82	24
2706.7	24
2707.58	20.5
2708.46	26.5
2709.34	28.5
2710.21	26
2711.09	27.5
2711.97	25.5
2712.85	24
2713.73	28
2714.61	27
2715.49	21
2716.36	25
2717.24	22
2718.12	24.5
2719	26.5
2719.87	26.5
2720.75	23
2721.63	23.5
2722.51	26.5
2723.38	28.5
2724.26	23.5
2725.14	26.5
2726.01	20.5
2726.89	26.5
2727.77	24
2728.64	24.5
2729.52	26
2730.39	25
2731.27	23.5
2732.15	28
2733.02	25.5
2733.9	23.5
2734.77	25.5
2735.65	23
2736.52	20.5
2737.4	23.5
2738.27	22.5
2739.15	27
2740.02	24
2740.89	29
2741.77	23
2742.64	25
2743.52	27
2744.39	19.5
2745.27	22
2746.14	25
2747.01	25.5
2747.89	28.5
2748.76	21
2749.63	25.5
2750.51	26.5
2751.38	24.5
2752.25	24
2753.12	26.5
2754	23
2754.87	21
2755.74	24
2756.61	22
2757.48	24
2758.36	25.5
2759.23	22
2760.1	25.5
2760.97	24.5
2761.84	22
2762.71	23.5
2763.59	22
2764.46	24
2765.33	24.5
2766.2	25
2767.07	25.5
2767.94	22
2768.81	28
2769.68	24.5
2770.55	23
2771.42	22.5
2772.29	25.5
2773.16	25
2774.03	22
2774.9	28
2775.77	23
2776.64	25.5
2777.51	25
2778.37	28
2779.24	25.5
2780.11	27
2780.98	26.5
2781.85	25
2782.72	27
2783.59	23
2784.45	27
2785.32	27
2786.19	28.5
2787.06	27
2787.92	20.5
2788.79	22.5
2789.66	23.5
2790.53	26
2791.39	28
2792.26	31.5
2793.13	28
2793.99	27.5
2794.86	25.5
2795.73	30.5
2796.59	26
2797.46	25
2798.33	26
2799.19	23
2800.06	28.5
2800.92	30
2801.79	29.5
2802.65	27
2803.52	26.5
2804.39	27
2805.25	27
2806.11	24
2806.98	26.5
2807.84	22.5
2808.71	30.5
2809.57	26
2810.44	30
2811.3	22.5
2812.17	28
2813.03	23
2813.89	22.5
2814.76	24.5
2815.62	28
2816.49	22.5
2817.35	30.5
2818.21	23.5
2819.07	27
2819.94	24
2820.8	26.5
2821.66	27
2822.53	26
2823.39	24.5
2824.25	27.5
2825.11	25.5
2825.97	23.5
2826.84	27.5
2827.7	24
2828.56	24
2829.42	29
2830.28	25
2831.14	28
2832.01	24
2832.87	26
2833.73	24.5
2834.59	29.5
2835.45	26.5
2836.31	27
2837.17	26.5
2838.03	24
2838.89	24.5
2839.75	24
2840.61	28.5
2841.47	27.5
2842.33	29
2843.19	26.5
2844.05	27.5
2844.91	25.5
2845.77	27
2846.63	22.5
2847.48	26.5
2848.34	24
2849.2	23.5
2850.06	26.5
2850.92	28
2851.78	26
2852.64	26.5
2853.49	29
2854.35	29
2855.21	26
2856.07	23
2856.93	23
2857.78	25
2858.64	27.5
2859.5	26
2860.35	28.5
2861.21	27.5
2862.07	27.5
2862.93	26.5
2863.78	26.5
2864.64	25
2865.49	27
2866.35	26.5
2867.21	25.5
2868.06	28.5
2868.92	26
2869.77	28
2870.63	30
2871.49	29
2872.34	29.5
2873.2	31.5
2874.05	28
2874.91	28
2875.76	34
2876.62	32
2877.47	30
2878.32	31
2879.18	28.5
2880.03	29
2880.89	32.5
2881.74	29
2882.6	30.5
2883.45	33
2884.3	32.5
2885.16	33.5
2886.01	32
2886.86	36
2887.72	32.5
2888.57	37
2889.42	35
2890.27	37
2891.13	40.5
2891.98	40
2892.83	44
2893.68	42.5
2894.54	47
2895.39	44
2896.24	47
2897.09	53
2897.94	52.5
2898.8	55
2899.65	50
2900.5	53
2901.35	57
2902.2	56.5
2903.05	59
2903.9	61
2904.75	66.5
2905.6	63
2906.45	62
2907.3	67.5
2908.15	67.5
2909.01	54.5
2909.85	63.5
2910.7	57.5
2911.55	55.5
2912.4	53
2913.25	52
2914.1	46
2914.95	49
2915.8	43
2916.65	40.5
2917.5	43
2918.35	39
2919.2	36.5
2920.04	37
2920.89	36
2921.74	38
2922.59	35.5
2923.44	33
2924.29	32.5
2925.13	29
2925.98	26.5
2926.83	32
2927.68	29
2928.52	31.5
2929.37	31
2930.22	31
2931.06	32
2931.91	27.5
2932.76	32.5
2933.6	29
2934.45	29
2935.3	26
2936.14	31.5
2936.99	26.5
2937.83	29
2938.68	27.5
2939.53	29.5
2940.37	28
2941.22	27.5
2942.06	25.5
2942.91	27.5
2943.75	27.5
2944.6	25.5
2945.44	28
2946.29	27
2947.13	24
2947.98	23.5
2948.82	30.5
2949.66	27
2950.51	30.5
2951.35	33
2952.2	28.5
2953.04	34.5
2953.88	30.5
2954.73	31
2955.57	33
2956.41	30
2957.26	34.5
2958.1	35
2958.94	34
2959.79	42
2960.63	41.5
2961.47	41
2962.31	39
2963.15	41
2964	40.5
2964.84	42.5
2965.68	44.5
2966.52	37.5
2967.37	38
2968.21	39
2969.05	41.5
2969.89	42.5
2970.73	36
2971.57	36.0073
2972.41	37.4209
2973.25	32.9963
2974.09	33.0912
2974.93	31.102
2975.77	34.846
2976.62	31.174
2977.46	31.7638
2978.3	27.1183
2979.14	33.1981
2979.98	30.9053
2980.81	30.5556
2981.65	27.7666
2982.49	29.3654
2983.33	27.5434
2984.17	27.1269
2985.01	27.2877
2985.85	26
2986.69	25.4872
2987.53	27.9229
2988.37	26.6239
2989.21	26.7488
2990.04	27.6723
2990.88	26.5
2991.72	24.1038
2992.56	24.4262
2993.4	24.4269
2994.23	22.556
2995.07	27.5383
2995.91	29.2849
2996.75	25.9255
2997.58	27.0116
2998.42	21.9822
2999.26	22.356
3000.1	25.8194
3000.93	24.4084
3001.77	23.8216
3002.61	21.9559
3003.44	25.2822
3004.28	24.5169
3005.11	24.5459
3005.95	24.7061
3006.79	21.9925
3007.62	23.3458
3008.46	24.3584
3009.29	22.4207
3010.13	23.0743
3010.97	21.047
3011.8	20.6543
3012.64	21.986
3013.47	23.4861
3014.31	24.9518
3015.14	26.6229
3015.98	24.3656
3016.81	23.2661
3017.64	24.2804
3018.48	22.7612
3019.31	23.7494
3020.15	24.0494
3020.98	22.9218
3021.82	22.4707
3022.65	23.0597
3023.48	23.4942
3024.32	22.1862
3025.15	22.3864
3025.98	22.7108
3026.82	23.1456
3027.65	23.3458
3028.48	23.9532
3029.31	23.2032
3030.15	24.3155
3030.98	23.4141
3031.81	24.3341
3032.64	23.4679
3033.48	25.0853
3034.31	25.1641
3035.14	22.4938
3035.97	22.5079
3036.8	24.5791
3037.64	22.1163
3038.47	21.7405
3039.3	23.1904
3040.13	22.4565
3040.96	22.6073
3041.79	22.6643
3042.62	23.3212
3043.45	25.2367
3044.28	24.0882
3045.12	22.5222
3045.95	24.0167
3046.78	25.3786
3047.61	23.2356
3048.44	21.5271
3049.27	21.9185
3050.1	24.2476
3050.92	23.8874
3051.75	21.3396
3052.58	19.4499
3053.41	22.58
3054.24	22.5525
3055.07	20.9328
3055.9	23.1812
3056.73	22.7758
3057.26	21.5
3058.09	25.5
3058.93	25
3059.76	22
3060.59	21.5
3061.43	24.5
3062.26	23
3063.09	23
3063.92	25
3064.76	21.5
3065.59	23
3066.42	20.5
3067.25	24
3068.08	21.5
3068.92	25
3069.75	21.5
3070.58	22
3071.41	23.5
3072.24	31
3073.07	22
3073.9	25.5
3074.73	22.5
3075.57	24
3076.4	25.5
3077.23	25
3078.06	22.5
3078.89	24.5
3079.72	24
3080.55	20
3081.38	23.5
3082.21	26
3083.04	25
3083.87	22
3084.7	24.5
3085.53	24.5
3086.36	22.5
3087.19	17.5
3088.01	23
3088.84	22
3089.67	25
3090.5	22
3091.33	25
3092.16	23.5
3092.99	23
3093.81	24
3094.64	24
3095.47	21.5
3096.3	21
3097.13	25.5
3097.95	24
3098.78	19.5
3099.61	24
3100.44	25
3101.26	24.5
3102.09	22.5
3102.92	23.5
3103.74	22
3104.57	24.5
3105.4	21
3106.22	22.5
3107.05	22
3107.88	25.5
3108.7	22.5
3109.53	22
3110.35	22.5
3111.18	22.5
3112.01	21.5
3112.83	28
3113.66	25
3114.48	24
3115.31	22
3116.13	21.5
3116.96	25
3117.78	24.5
3118.61	25.5
3119.43	19
3120.26	23
3121.08	21
3121.9	28.5
3122.73	25
3123.55	25.5
3124.38	26.5
3125.2	27.5
3126.02	23
3126.85	23
3127.67	26.5
3128.49	25.5
3129.32	21.5
3130.14	28
3130.96	23.5
3131.79	25.5
3132.61	25
3133.43	24
3134.25	25.5
3135.08	22.5
3135.9	23.5
3136.72	24.5
3137.54	23.5
3138.37	23.5
3139.19	24.5
3140.01	27
3140.83	24.5
3141.65	27
3142.47	20.5
3143.29	20.5
3144.12	24
3144.94	29
3145.76	24
3146.58	23.5
3147.4	25
3148.22	25.5
3149.04	23.5
3149.86	21.5
3150.68	26.5
3151.5	27.5
3152.32	23
3153.14	25
3153.96	25
3154.78	27
3155.6	22.5
3156.42	24.5
3157.24	27
3158.06	23
3158.88	22
3159.7	23
3160.51	21
3161.33	24
3162.15	22
3162.97	25.5
3163.79	23.5
3164.61	26
3165.42	22
3166.24	22
3167.06	23
3167.88	24.5
3168.7	26
3169.51	26.5
3170.33	23
3171.15	20
3171.97	25.5
3172.78	24
3173.6	23.5
3174.42	22
3175.23	22
3176.05	26
3176.87	25.5
3177.68	23
3178.5	27
3179.32	25
3180.13	25.5
3180.95	22.5
3181.76	21.5
3182.58	21.5
3183.4	22.5
3184.21	22.5
3185.03	26.5
3185.84	24
3186.66	26
3187.47	21.5
3188.29	26.5
3189.1	27.5
3189.92	24
3190.73	22
3191.55	24.5
3192.36	20
3193.17	24
3193.99	23.5
3194.8	23
3195.62	23.5
3196.43	24
3197.24	22.5
3198.06	25.5
3198.87	20
3199.68	23.5
3200.5	22.5
3201.31	23
3202.12	23
3202.94	26.5
3203.75	22
3204.56	23.5
3205.38	26
3206.19	22
3207	25
3207.81	21.5
3208.62	26
3209.44	25.5
3210.25	23
3211.06	27
3211.87	25
3212.68	25
3213.49	22.5
3214.31	25.5
3215.12	27
3215.93	22.5
3216.74	20
3217.55	23
3218.36	21
3219.17	22
3219.98	25.5
3220.79	23
3221.6	23.5
3222.41	21.5
3223.22	27
3224.03	25
3224.84	22
3225.65	21
3226.46	26
3227.27	24
3228.08	24
3228.89	22
3229.7	27
3230.51	26
3231.32	26.5
3232.13	18.5
3232.94	20
3233.74	23.5
3234.55	21.5
3235.36	25.5
3236.17	22.5
3236.98	25.5
3237.78	26.5
3238.59	23
3239.4	27
3240.21	23.5
3241.02	25.5
3241.82	23
3242.63	26.5
3243.44	23
3244.25	24.5
3245.05	24.5
3245.86	26
3246.67	23.5
3247.47	24
3248.28	24
3249.09	23
3249.89	24
3250.7	25
3251.5	24
3252.31	21
3253.12	22.5
3253.92	23
3254.73	23
3255.53	25.5
3256.34	27.5
3257.14	21
3257.95	26
3258.75	26
3259.56	25.5
3260.36	21.5
3261.17	23.5
3261.97	22.5
3262.78	23
3263.58	26
3264.39	24.5
3265.19	28
3265.99	20
3266.8	22
3267.6	25
3268.41	24
3269.21	23.5
3270.01	23.5
3270.82	20.5
3271.62	27
3272.42	25
3273.23	24
3274.03	24.5
3274.83	22.5
3275.64	24.5
3276.44	26
3277.24	24
3278.04	22.5
3278.85	24
3279.65	22.5
3280.45	26
3281.25	22
3282.05	21
3282.85	24.5
3283.66	22.5
3284.46	23
3285.26	24.5
3286.06	26
3286.86	22
3287.66	22
3288.46	22
3289.27	26
3290.07	26.5
3290.87	25
3291.67	23
3292.47	24
3293.27	23
3294.07	26.5
3294.87	23
3295.67	25.5
3296.47	23.5
3297.27	23.5
3298.07	26
3298.87	22.5
3299.67	23.5
3300.47	22.5
3301.26	22.5
3302.06	26.5
3302.86	25
3303.66	24.5
3304.46	21.5
3305.26	22.5
3306.06	24
3306.86	18
3307.65	26
3308.45	25
3309.25	24
3310.05	21.5
3310.85	19.5
3311.64	24.5
3312.44	27.5
3313.24	23.5
3314.04	24
3314.83	24
3315.63	27
3316.43	24
3317.22	26.5
3318.02	21.5
3318.82	28.5
3319.62	25
3320.41	24.5
3321.21	23.5
3322	23.5
3322.8	22
3323.6	21
3324.39	23.5
3325.19	21.5
3325.98	25.5
3326.78	23.5
3327.58	25.5
3328.37	18
3329.17	25
3329.96	21
3330.76	22
3331.55	25
3332.35	23
3333.14	25
3333.94	26
3334.73	24
3335.52	25.5
3336.32	24
3337.11	23.5
3337.91	23.5
3338.7	24
3339.5	24
3340.29	26.5
3341.08	24
3341.88	23
3342.67	27.5
3343.46	23.5
3344.26	25
3345.05	26
3345.84	26
3346.63	26
3347.43	22
3348.22	27
3349.01	24.5
3349.8	21.5
3350.6	28.5
3351.39	21
3352.18	26.5
3352.97	23
3353.77	23
3354.56	27.5
3355.35	23.5
3356.14	24.5
3356.93	22.5
3357.72	23.5
3358.51	22.5
3359.31	23.5
3360.1	26
3360.89	25.5
3361.68	24.5
3362.47	26.5
3363.26	25
3364.05	20.5
3364.84	23
3365.63	24.5
3366.42	19.5
3367.21	23.5
3368	25
3368.79	28.5
3369.58	25.5
3370.37	23
3371.16	26
3371.95	25.5
3372.74	28
3373.53	25.5
3374.32	24
3375.1	26
3375.89	30
3376.68	23
3377.47	23.5
3378.26	25.5
3379.05	26.5
3379.84	23
3380.62	19
3381.41	26
3382.2	20.5
3382.99	25.5
3383.78	23
3384.56	22.5
3385.35	28
3386.14	26.5
3386.93	20
3387.71	22
3388.5	22
3389.29	21.5
3390.07	28
3390.86	24.5
3391.65	24
3392.43	21.5
3393.22	26.5
3394.01	26
3394.79	22
3395.58	30
3396.36	26
3397.15	21
3397.94	24.5
3398.72	25
3399.51	23
3400.29	22.5
3401.08	25
3401.86	25.5
3402.65	20.5
3403.43	25
3404.22	26
3405	23.5
3405.79	25.5
3406.57	27.5
3407.36	23.5
3408.14	26
3408.93	22.5
3409.71	25
3410.49	24
3411.28	24.5
3412.06	22.5
3412.84	24.5
3413.63	24.5
3414.41	24
3415.2	22.5
3415.98	23
3416.76	26
3417.54	25
3418.33	25
3419.11	23.5
3419.89	22
3420.68	26
3421.46	24.5
3422.24	27.5
3423.02	20.5
3423.81	20.5
3424.59	25
3425.37	25
3426.15	23
3426.93	23.5
3427.71	21.5
3428.5	22.5
3429.28	24
3430.06	22.5
3430.84	22
3431.62	24.5
3432.4	25.5
3433.18	24
3433.96	24
3434.75	23
3435.53	24
3436.31	26
3437.09	24.5
3437.87	26
3438.65	19
3439.43	24.5
3440.21	24
3440.99	24.5
3441.77	22
3442.55	21.5
3443.33	25
3444.1	28.5
3444.88	22
3445.66	25.5
3446.44	24
3447.22	22.5
3448	23
3448.78	19
3449.56	19.5
3450.34	26
3451.11	24
3451.89	24
3452.67	23
3453.45	23
3454.23	25.5
3455	21.5
3455.78	21
3456.56	24.5
3457.34	21.5
3458.11	26
3458.89	22
3459.67	24
3460.45	26.5
3461.22	20.5
3462	21
3462.78	21
3463.55	22.5
3464.33	24.5
3465.11	25
3465.88	24.5
3466.66	29.5
3467.44	26.5
3468.21	27
3468.99	24.5
3469.76	26
3470.54	24.5
3471.32	26
3472.09	23.5
3472.87	23.5
3473.64	23
3474.42	21.5
3475.19	23
3475.97	24.5
3476.74	22.5
3477.52	23.5
3478.29	25.5
3479.07	29
3479.84	26.5
3480.61	27.5
3481.39	26
3482.16	24
3482.94	23.5
3483.71	23.5
3484.48	26
3485.26	25.5
3486.03	26
3486.81	23.5
3487.58	24.5
3488.35	23.5
3489.13	22
3489.9	23.5
3490.67	26.5
3491.44	26.5
3492.22	20
3492.99	20.5
3493.76	27
3494.54	21
3495.31	23
3496.08	21.5
3496.85	24.5
3497.62	27
3498.4	25.5
3499.17	25
3499.94	23
