#Acq. time (s)=	5
#Accumulations=	5
#Range (cm-¹)=	100...3500
#Windows=	4
#Autofocus=	Off
#AutoExposure=	Off
#Spike filter=	Multiple accum.
#Delay time (s)=	0
#Binning=	1
#Readout mode=	Signal
#DeNoise=	Off
#ICS correction=	Off
#Dark correction=	Off
#Inst. Process=	Off
#Instrument=	LabRAM HR Evol
#Detector=	Syncerity OE
#Objective=	x100_VIS
#Grating=	600 (500nm)
#ND Filter=	25%
#Laser=	633nm_Edge
#Hole=	100.021
#Range=	Visible
#Project=	verificaciones
#Sample=	at4
#Site=	lined
#Title=	bolusat4lined
#Remark=	
#Date=	14.01.2026 14:29
#Acquired=	14.01.2026 14:29:23
100.618	29
101.901	35.5
103.185	39
104.468	32
105.751	29
107.033	27
108.316	31.5
109.598	33.5
110.88	33
112.162	33.5
113.445	33
114.727	34
116.008	28
117.289	33
118.57	37
119.85	34.5
121.13	33
122.411	33
123.691	31
124.97	33.5
126.25	33.5
127.529	32
128.808	35
130.086	35
131.364	37.5
132.643	40.5
133.921	37
135.199	40.5
136.477	38
137.755	41
139.032	39
140.309	38.5
141.586	38
142.863	36
144.14	40
145.415	39
146.691	38.5
147.967	38
149.243	41
150.518	39.5
151.794	41
153.067	46
154.342	44.5
155.617	43.5
156.892	40.5
158.166	43
159.439	44
160.712	44.5
161.986	39.5
163.26	46
164.531	41
165.805	41
167.077	48.5
168.35	42.5
169.621	42
170.893	40.5
172.165	41.5
173.437	41
174.707	43
175.979	42
177.25	42
178.519	43.5
179.79	44.5
181.061	44
182.33	39
183.6	49
184.87	44.5
186.138	47.5
187.408	48
188.676	44
189.945	46
191.214	41.5
192.481	46
193.75	40.5
195.016	45.5
196.285	41.5
197.552	45
198.819	41
200.086	41.5
201.352	41
202.619	41
203.884	38
205.151	37
206.416	38
207.682	43
208.947	40
210.213	41
211.477	39.5
212.742	42
214.006	40.5
215.271	36.5
216.535	34
217.799	38
219.062	35
220.326	34
221.589	34
222.851	35
224.115	39
225.377	33.5
226.64	34
227.901	34.5
229.163	28
230.425	32
231.686	33
232.947	30.5
234.209	35.5
235.469	31
236.729	36
237.991	33
239.25	30.5
240.51	32.5
241.771	32
243.03	33.5
244.288	32
245.549	33.5
246.807	33.5
248.065	32
249.323	37
250.583	35
251.84	33
253.098	35.5
254.355	32.5
255.613	32.5
256.87	30
258.127	29
259.383	30
260.639	35
261.897	33
263.153	35
264.408	33
265.664	32.5
266.919	36.5
268.174	30.5
269.43	30
270.685	34.5
271.939	32.5
273.193	29.5
274.447	31
275.701	33.5
276.955	29.5
278.208	31.5
279.461	26.5
280.714	30
281.968	32.5
283.221	31
284.473	31
285.726	30
286.977	30
288.229	32
289.481	30.5
290.732	33
291.983	32
293.234	28.5
294.485	30
295.736	35
296.986	32
298.236	31
299.486	33
300.736	33.5
301.985	31.5
303.233	31
304.482	34
305.731	29
306.98	29.5
308.228	29.5
309.477	34
310.725	28.5
311.973	31.5
313.22	30.5
314.468	28.5
315.714	28.5
316.961	32.5
318.208	30.5
319.455	33
320.701	29.5
321.947	29.5
323.192	32
324.438	30
325.684	31
326.929	29
328.175	30
329.418	29.5
330.663	28.5
331.908	27.5
333.152	31
334.395	34.5
335.639	29.5
336.883	29.5
338.127	28
339.369	31.5
340.612	29.5
341.855	28
343.097	30
344.34	29
345.582	33
346.823	32
348.065	30.5
349.307	32
350.547	31
351.789	31.5
353.03	29
354.27	36
355.511	34.5
356.75	31
357.991	29
359.231	27.5
360.47	34
361.709	29
362.948	32.5
364.187	29
365.427	30.5
366.664	34
367.903	34
369.14	28.5
370.379	32.5
371.616	31.5
372.854	33
374.091	27.5
375.328	31.5
376.564	24.5
377.802	28.5
379.037	35.5
380.274	27
381.51	25
382.745	28.5
383.981	31.5
385.216	28
386.452	30.5
387.686	29.5
388.922	31.5
390.155	23.5
391.389	32
392.624	34
393.857	30
395.091	31.5
396.325	28
397.558	26.5
398.79	31
400.024	30.5
401.256	31.5
402.488	30
403.721	30.5
404.953	30.5
406.184	28.5
407.417	30.5
408.648	22.5
409.878	31.5
411.109	31
412.341	31
413.571	29.5
414.801	30.5
416.031	32
417.262	28
418.491	32.5
419.72	32.5
420.949	34
422.178	25.5
423.408	29.5
424.637	33.5
425.865	31.5
427.093	27.5
428.32	27
429.548	31
430.777	32
432.004	29
433.231	29
434.458	34
435.685	32.5
436.911	28
438.137	29
439.363	33
440.589	28.5
441.815	33
443.042	29
444.267	30
445.492	30
446.717	35
447.942	32.5
449.166	32.5
450.39	31
451.615	32
452.838	28.5
454.062	32
455.286	32.5
456.509	32
457.732	34
458.955	33.5
460.178	33.5
461.399	33
462.621	35.5
463.843	35
465.065	32
466.287	32
467.508	33
468.73	34
469.951	35.5
471.172	39.5
472.393	39.5
473.612	42
474.832	38
476.052	42
477.272	46
478.492	49
479.712	52
480.93	53
482.149	54.5
483.368	55.5
484.587	60.5
485.806	66.5
487.023	64
488.241	60.5
489.459	65
490.677	67
491.893	67.5
493.111	58.5
494.328	60
495.543	54
496.76	54.5
497.977	50
499.194	48
500.409	47.5
501.625	40.5
502.841	43.5
504.055	44
505.27	46.5
506.486	43.5
507.699	40.5
508.914	41.5
510.128	43.5
511.342	33
512.557	40.5
513.77	36
514.984	38.5
516.196	33
517.41	31.5
518.623	33
519.835	34
521.048	35.5
522.259	35
523.472	35
524.683	34
525.895	34.5
527.106	32
528.318	32.5
529.528	29
530.74	31
531.949	37
533.161	33
534.37	32
535.581	31.5
536.79	34.5
537.999	31.5
539.209	31.5
540.418	30
541.627	30
542.835	32
544.043	30.5
545.253	27.5
546.46	30
547.669	31.5
548.876	31
550.083	30
551.292	23.5
552.498	31
553.705	33.5
554.912	34.5
556.118	36
557.324	28
558.53	29.5
559.737	30.5
560.942	29
562.147	34
563.353	33
564.558	33
565.763	29.5
566.967	29
568.173	28
569.377	30
570.58	28.5
571.784	33.5
572.987	31
574.192	32.5
575.395	32.5
576.598	30
577.8	33
579.003	29.5
580.205	31
581.407	34
582.61	30
583.812	28
585.014	32
586.215	26
587.416	29.5
588.617	33
589.818	32
591.018	30.5
592.219	31
593.419	32.5
594.619	27
595.819	35
597.02	31
598.219	30.5
599.418	33
600.617	26
601.816	32
603.015	29.5
604.213	33.5
605.41	30.5
606.608	30
607.806	28.5
609.004	31
610.201	24.5
611.399	28.5
612.596	33
613.793	32
614.989	27
616.186	31
617.382	28.5
618.579	33
619.775	28.5
620.969	32
622.165	25.5
623.36	36.5
624.555	30
625.75	32.5
626.945	29
628.139	25
629.333	33.5
630.527	34.5
631.721	27
632.915	30
634.108	27.5
635.301	33.5
636.495	30
637.688	32.5
638.88	31
640.072	30.5
641.265	32.5
642.456	33.5
643.648	33
644.84	33
646.032	34
647.222	32.5
648.414	33
649.605	32.5
650.795	32.5
651.986	29.5
653.177	31
654.366	32
655.556	33
656.745	32
657.935	34
659.125	32
660.313	32.5
661.503	28
662.69	29.5
663.879	31.5
665.067	31
666.256	32.5
667.444	33
668.631	33.5
669.819	34
671.006	32
672.194	36
673.38	34
674.567	31.5
675.753	37.5
676.94	38
678.125	37
679.311	38.5
680.497	39.5
681.682	35.5
682.868	34
684.053	37.5
685.238	37.5
686.422	36.5
687.606	38.5
688.792	33
689.975	38.5
691.159	38
692.343	34
693.526	33
694.71	39
695.893	34
697.076	43
698.259	40
699.441	40
700.623	40.5
701.805	43
702.988	42.5
704.169	50
705.35	49
706.533	54.5
707.714	51.5
708.894	60
710.075	51
711.255	51
712.436	49
713.616	40
714.796	38
715.975	37
717.155	34
718.335	33.5
719.514	34
720.693	35
721.872	33.5
723.05	35
724.228	32
725.406	32.5
726.585	33.5
727.763	32
728.941	33
730.118	31.5
731.295	30.5
732.472	25
733.649	34.5
734.825	31
736.002	31.5
737.178	30
738.354	34
739.53	31.5
740.705	27
741.881	31.5
743.056	33.5
744.231	32
745.406	27
746.581	32.5
747.755	32.5
748.93	30
750.104	30.5
751.278	31
752.452	32
753.625	31.5
754.799	31.5
755.972	32.5
757.144	31.5
758.317	33.5
759.489	32.5
760.662	32
761.834	30.5
763.006	32.5
764.178	32
765.349	30.5
766.521	29
767.692	32.5
768.863	29.5
770.034	35.5
771.204	32
772.374	31.5
773.545	30.5
774.715	31
775.885	35
777.054	34
778.224	34
779.393	34
780.562	30.5
781.731	35
782.9	31
784.069	34.5
785.236	30.5
786.405	32
787.573	32
788.74	33.5
789.908	35.5
791.074	35
792.242	36
793.409	29
794.575	35
795.742	30
796.909	32
798.074	32.5
799.241	30
800.406	30
801.572	34
802.737	31.5
803.902	29
805.067	29
806.232	27
807.396	34.5
808.561	27.5
809.725	29.5
810.889	27
812.052	30
813.217	31
814.38	28.5
815.544	32
816.706	33
817.87	28.5
819.032	27
820.195	30
821.357	30.5
822.518	28.5
823.681	29.5
824.842	27.5
826.005	30.5
827.165	33.5
828.326	28
829.488	31.5
830.648	36
831.808	37
832.97	29.5
834.129	30
835.289	29.5
836.45	28.5
837.609	31
838.768	31.5
839.927	26.5
841.087	28.5
842.245	34
843.404	32
844.562	30.5
845.721	30.5
846.879	32
848.036	28
849.194	29
850.351	31
851.509	30
852.666	30
853.823	31
854.979	30.5
856.136	32
857.292	31
858.448	35.5
859.605	33.5
860.761	30
861.916	33.5
863.071	34
864.226	30.5
865.381	30
866.536	29.5
867.691	31.5
868.845	30.5
869.999	26
871.153	28
872.307	34
873.461	31
874.614	32
875.767	29.5
876.92	33.5
878.073	28.5
879.226	35
880.379	35
881.531	32.5
882.683	30
883.835	29
884.987	31
886.139	29.5
887.291	31
888.442	30
889.593	32
890.743	27
891.893	30.5
893.044	29.5
894.195	30
895.345	29.5
896.495	29
897.643	28.5
898.793	30
899.943	29.5
901.092	34
902.241	28
903.389	26
904.538	27.5
905.687	29
906.835	27
907.982	29
909.13	29.5
910.278	27
911.426	29
912.572	34
913.72	31
914.867	29
916.013	28
917.16	24.5
918.306	29.5
919.451	25.5
920.598	30.5
921.744	29
922.889	29
924.035	31
925.18	29
926.324	29
927.47	29
928.614	25
929.758	29.5
930.902	30
932.047	26
933.191	27
934.334	28.5
935.478	28
936.621	29.5
937.764	26
938.906	27.5
940.05	28
941.192	30
942.335	29
943.476	26.5
944.619	30
945.76	27
946.901	32
948.043	29.5
949.184	28
950.326	29
951.466	27
952.606	26
953.747	29.5
954.887	27
956.028	29.5
957.167	25.5
958.307	30
959.447	28.5
960.586	25
961.725	30
962.865	29.5
964.003	26.5
965.141	27.5
966.279	28.5
967.418	26.5
968.556	28
969.693	30.5
970.831	30.5
971.969	30.5
973.106	26
974.243	30.5
975.38	29.5
976.517	30.5
977.654	31
978.79	27
979.926	27.5
981.061	23.5
982.197	30.5
983.334	27
984.469	27.5
985.604	29.5
986.739	24.5
987.873	29
989.008	29
990.142	30
991.277	25.5
992.411	29.5
993.544	28
994.679	32.5
995.813	28.5
996.946	32
998.079	26.5
999.212	25
1000.35	27
1001.48	29.5
1002.61	31
1003.74	28
1004.87	29.5
1006.01	26
1007.14	30
1008.27	33.5
1009.4	29
1010.53	32.5
1011.66	29.5
1012.79	27
1013.92	31.5
1015.05	27
1016.18	30
1017.31	29.5
1018.44	29.5
1019.57	28
1020.7	28
1021.83	26
1022.96	31
1024.09	25.5
1025.22	30.5
1026.35	29
1027.48	26.5
1028.6	29
1029.73	28.5
1030.86	29
1031.99	29.5
1033.12	29
1034.24	25.5
1035.37	26.5
1036.5	30
1037.62	25
1038.75	25.5
1039.88	25.5
1041	27
1042.13	27
1043.25	31.5
1044.38	27
1045.5	32
1046.63	27.5
1047.76	25.5
1048.88	27
1050	27.5
1051.13	29.5
1052.25	27
1053.38	29
1054.5	27.5
1055.63	29
1056.75	28.5
1057.87	32
1058.99	29
1060.12	24.5
1061.24	27
1062.36	25.5
1063.49	30
1064.61	27
1065.73	27
1066.85	29
1067.97	25
1069.1	27
1070.22	27
1071.34	29.5
1072.46	31.5
1073.58	27
1074.7	28
1075.82	31
1076.94	31
1078.06	30
1079.18	27
1080.3	29.5
1081.42	31
1082.54	27
1083.66	28.5
1084.78	29
1085.9	28.5
1087.02	24.5
1088.13	30
1089.25	31.5
1090.37	27.5
1091.49	28.5
1092.61	31.5
1093.72	26.5
1094.84	26.5
1095.96	27.5
1097.08	27
1098.19	25
1099.31	25
1100.42	26.5
1101.54	29
1102.66	30
1103.77	25
1104.89	29.5
1106	26
1107.12	25.5
1108.23	23.5
1109.35	26.5
1110.46	29.5
1111.58	27
1112.69	23
1113.81	26
1114.92	28.5
1116.04	28
1117.15	32
1118.26	26
1119.38	28
1120.49	27
1121.6	25
1122.72	28.5
1123.83	24
1124.94	27
1126.05	25
1127.17	28
1128.28	27
1129.39	29
1130.5	28
1131.61	28.5
1132.72	30
1133.83	27
1134.94	25.5
1136.06	29.5
1137.17	26.5
1138.27	24.5
1139.39	24
1140.5	32
1141.61	26
1142.72	24.5
1143.82	27.5
1144.93	31
1146.04	29.5
1147.15	26
1148.26	29.5
1149.37	27.5
1150.48	27.5
1151.58	29
1152.69	26
1153.8	29.5
1154.91	24
1156.02	25.5
1157.12	28
1158.23	28
1159.34	28
1160.44	24.5
1161.55	24
1162.66	22
1163.76	26
1164.87	30
1165.97	26
1167.08	26.5
1168.18	28
1169.29	30.5
1170.39	29.5
1171.5	27
1172.6	31.5
1173.71	25.5
1174.81	25
1175.92	27
1177.02	27.5
1178.13	23
1179.23	31.5
1180.33	26
1181.44	28
1182.54	24
1183.64	24
1184.74	24
1185.85	30
1186.95	22
1188.05	27.5
1189.15	26.5
1190.26	23.5
1191.36	27.5
1192.46	27.5
1193.56	26.5
1194.66	25.4727
1195.76	22.0369
1196.86	28.4223
1197.96	28.0458
1199.06	26.5194
1200.16	26.9452
1201.26	27.8407
1202.36	25.9303
1203.46	28.7447
1204.56	25.7801
1205.66	27.4447
1206.76	26.3897
1207.86	24.6763
1208.96	25.6696
1210.06	27.162
1211.16	27.8477
1212.25	25.7597
1213.35	26.1525
1214.45	28.652
1215.55	27.2067
1216.65	26.2151
1217.74	24.4027
1218.84	27.2451
1219.94	24.4446
1221.03	28.5913
1222.13	24
1223.23	24.2524
1224.32	26.3483
1225.42	27.1274
1226.52	27.5309
1227.61	26.4338
1228.71	26.4296
1229.8	27.4663
1230.9	26.688
1231.99	23.9514
1233.09	26.8752
1234.18	26.3453
1235.28	22.9102
1236.37	25.5817
1237.47	26.4047
1238.56	25.5237
1239.65	22.83
1240.75	25.9644
1241.84	27.6827
1242.93	26.2229
1244.03	27.8158
1245.12	29.259
1246.21	24.9908
1247.31	23.8758
1248.4	24.3958
1249.49	28.51
1250.58	29.4184
1251.67	27.9174
1252.77	28.0575
1253.86	25.7422
1254.95	27.4128
1256.04	26.3901
1257.13	25.8344
1258.22	26.9058
1259.31	25.3593
1260.4	28.3207
1261.49	26.5607
1262.58	29.0212
1263.67	27.9256
1264.76	28.5225
1265.85	27.3026
1266.94	26.2657
1268.03	26.017
1269.12	27.6722
1270.21	28.7431
1271.3	27.7591
1272.39	28.0319
1273.47	25.5745
1274.56	26.3478
1275.65	27.6777
1276.74	27.3201
1277.83	23.7382
1278.91	24.6236
1280	26.2951
1281.09	27.4563
1282.17	27.3353
1283.26	24.2712
1284.35	23.6436
1285.43	25.4521
1286.52	26.8204
1287.61	29.5456
1288.69	27.0376
1289.78	26.8195
1290.86	27.5804
1291.95	25.2106
1293.03	25.8297
1294.12	27.1785
1295.2	24.0183
1296.29	25.6516
1297.37	27.5095
1298.46	27.7126
1299.54	27.0795
1300.63	27.2066
1301.71	25.4691
1302.79	23.8146
1303.88	25.2759
1304.96	25.9163
1306.04	24.6568
1306.5	24
1307.59	25
1308.68	30
1309.76	26.5
1310.85	25
1311.94	27
1313.03	25
1314.11	21
1315.2	24
1316.29	29.5
1317.37	24.5
1318.46	27.5
1319.55	27.5
1320.63	25.5
1321.72	27
1322.81	26
1323.89	24
1324.98	26.5
1326.06	26
1327.15	26
1328.23	28.5
1329.32	34.5
1330.4	29.5
1331.49	26.5
1332.57	22.5
1333.66	27
1334.74	25
1335.82	25.5
1336.91	21
1337.99	28
1339.07	29
1340.16	28
1341.24	26
1342.32	30.5
1343.4	27.5
1344.49	30.5
1345.57	24
1346.65	27.5
1347.73	26
1348.82	30
1349.9	26
1350.98	28.5
1352.06	27
1353.14	26
1354.22	25.5
1355.3	23.5
1356.38	24
1357.46	27
1358.54	25.5
1359.62	25.5
1360.7	25.5
1361.78	26
1362.86	23
1363.94	28
1365.02	25
1366.1	28
1367.18	26
1368.26	27
1369.34	26.5
1370.41	26.5
1371.49	30
1372.57	26
1373.65	29
1374.72	30
1375.8	30.5
1376.88	24.5
1377.96	25.5
1379.03	23.5
1380.11	25
1381.19	25.5
1382.26	25
1383.34	29.5
1384.42	27
1385.49	28
1386.57	28.5
1387.64	29.5
1388.72	26
1389.79	26
1390.87	29
1391.94	25
1393.02	27
1394.09	26.5
1395.17	26.5
1396.24	27.5
1397.31	31.5
1398.39	26
1399.46	33
1400.54	32
1401.61	30.5
1402.68	29.5
1403.76	28
1404.83	29.5
1405.9	32
1406.97	32.5
1408.05	33.5
1409.12	36
1410.19	33
1411.26	34
1412.33	30
1413.4	35.5
1414.48	35.5
1415.55	33
1416.62	34.5
1417.69	30
1418.76	28.5
1419.83	28
1420.9	31
1421.97	31
1423.04	28
1424.11	32
1425.18	29.5
1426.25	29
1427.32	29.5
1428.39	26
1429.46	33.5
1430.52	31.5
1431.59	29
1432.66	27.5
1433.73	28
1434.8	28.5
1435.87	26.5
1436.93	26
1438	28.5
1439.07	28
1440.14	27.5
1441.2	25
1442.27	27
1443.34	28
1444.4	28.5
1445.47	23.5
1446.54	26
1447.6	29
1448.67	24
1449.73	27.5
1450.8	32
1451.86	28
1452.93	30.5
1453.99	26
1455.06	29
1456.12	29
1457.19	27
1458.25	28.5
1459.32	30.5
1460.38	26
1461.45	26.5
1462.51	30
1463.57	28
1464.64	24.5
1465.7	27.5
1466.76	26
1467.82	25
1468.89	27
1469.95	29.5
1471.01	24
1472.07	26.5
1473.14	25
1474.2	30
1475.26	26
1476.32	23
1477.38	30
1478.44	26
1479.5	29.5
1480.57	30
1481.63	26
1482.69	27
1483.75	26.5
1484.81	25.5
1485.87	31
1486.93	26
1487.99	27
1489.05	27
1490.1	30
1491.17	27.5
1492.22	27
1493.28	25
1494.34	24.5
1495.4	28
1496.46	27
1497.52	24.5
1498.57	28
1499.63	29.5
1500.69	27.5
1501.75	23.5
1502.8	29.5
1503.86	30
1504.92	28
1505.98	26
1507.03	25.5
1508.09	28.5
1509.15	26
1510.2	23.5
1511.26	27
1512.31	27.5
1513.37	30
1514.42	29
1515.48	24
1516.53	25.5
1517.59	30.5
1518.64	29
1519.7	27
1520.75	26
1521.81	26.5
1522.86	28.5
1523.92	27.5
1524.97	29
1526.02	23.5
1527.08	24
1528.13	28
1529.18	26.5
1530.24	26
1531.29	29.5
1532.34	31
1533.39	25
1534.45	22
1535.5	28
1536.55	29.5
1537.6	24
1538.65	27
1539.71	27
1540.76	27
1541.81	30
1542.86	27.5
1543.91	24
1544.96	27
1546.01	29
1547.06	26.5
1548.11	29
1549.16	26
1550.21	28
1551.26	28
1552.31	27.5
1553.36	26.5
1554.41	25
1555.46	27.5
1556.51	26.5
1557.56	25
1558.6	30
1559.65	28
1560.7	29
1561.75	31
1562.8	25.5
1563.84	30.5
1564.89	26
1565.94	28
1566.99	29
1568.03	27.5
1569.08	23.5
1570.13	27
1571.17	26
1572.22	29
1573.27	29.5
1574.31	28
1575.36	27
1576.4	28
1577.45	26
1578.5	26
1579.54	27
1580.59	29
1581.63	28
1582.68	25
1583.72	26
1584.76	23
1585.81	31.5
1586.85	33
1587.9	27.5
1588.94	25
1589.98	29
1591.03	29
1592.07	24
1593.11	28
1594.16	27
1595.2	29
1596.24	26
1597.29	23.5
1598.33	24
1599.37	25
1600.41	29
1601.45	24
1602.49	26
1603.54	25
1604.58	25.5
1605.62	27.5
1606.66	23.5
1607.7	27
1608.74	26
1609.78	25
1610.82	27.5
1611.86	24
1612.9	28.5
1613.94	27
1614.98	28.5
1616.02	29.5
1617.06	29
1618.1	28.5
1619.14	26
1620.18	26.5
1621.22	25
1622.25	25.5
1623.29	30
1624.33	28.5
1625.37	26.5
1626.41	25
1627.45	27
1628.48	24
1629.52	26
1630.56	26
1631.59	27.5
1632.63	27
1633.67	27.5
1634.7	25
1635.74	22.5
1636.78	31
1637.81	28
1638.85	25
1639.88	28.5
1640.92	26.5
1641.96	28
1642.99	23
1644.03	27.5
1645.06	22.5
1646.1	26.5
1647.13	31.5
1648.17	31
1649.2	27
1650.23	28.5
1651.27	24.5
1652.3	23.5
1653.33	26
1654.37	22
1655.4	30.5
1656.44	31
1657.47	25
1658.5	23
1659.53	26
1660.57	24
1661.6	28.5
1662.63	29.5
1663.66	29.5
1664.69	24.5
1665.73	27.5
1666.76	23
1667.79	27.5
1668.82	28
1669.85	28
1670.88	26
1671.91	29.5
1672.94	30
1673.97	28
1675.01	26.5
1676.03	29
1677.07	25.5
1678.1	28
1679.12	27
1680.15	23.5
1681.18	22.5
1682.21	26.5
1683.24	25.5
1684.27	24
1685.3	26
1686.33	27.5
1687.36	27
1688.38	24
1689.41	28
1690.44	25.5
1691.47	28
1692.5	26
1693.52	26
1694.55	26.5
1695.58	24
1696.6	25.5
1697.63	23
1698.66	31
1699.68	25
1700.71	25.5
1701.74	28.5
1702.76	25.5
1703.79	26
1704.81	20.5
1705.84	27
1706.86	26
1707.89	23
1708.91	31
1709.94	26.5
1710.96	29
1711.99	25.5
1713.01	24.5
1714.04	25
1715.06	23
1716.08	26.5
1717.11	27
1718.13	26
1719.16	27.5
1720.18	28
1721.2	24.5
1722.22	29
1723.25	30.5
1724.27	28
1725.29	27
1726.31	28
1727.34	27
1728.36	27
1729.38	27.5
1730.4	26.5
1731.42	24.5
1732.44	26
1733.47	25
1734.49	27
1735.51	25.5
1736.53	27.5
1737.55	27
1738.57	25
1739.59	26
1740.61	27.5
1741.63	25.5
1742.65	24
1743.67	25.5
1744.69	28
1745.71	26.5
1746.73	24.5
1747.75	28.5
1748.76	25
1749.78	27
1750.8	26
1751.82	24
1752.84	28.5
1753.86	23.5
1754.87	27
1755.89	27
1756.91	27
1757.93	30
1758.94	25
1759.96	25.5
1760.98	25
1761.99	27
1763.01	27
1764.03	26
1765.04	32
1766.06	27
1767.08	27.5
1768.09	29.5
1769.11	28.5
1770.12	26.5
1771.14	24
1772.15	24
1773.17	27
1774.18	29.5
1775.2	24.5
1776.21	29
1777.23	22
1778.24	26
1779.25	23.5
1780.27	24.5
1781.28	24.5
1782.3	28.5
1783.31	23
1784.32	27
1785.34	22.5
1786.35	24
1787.36	22.5
1788.37	25.5
1789.39	25.5
1790.4	28.5
1791.41	27.5
1792.42	26
1793.43	24.5
1794.45	22.5
1795.46	26.5
1796.47	25
1797.48	22
1798.49	26
1799.5	28
1800.51	26.5
1801.52	26
1802.53	25.5
1803.54	27
1804.55	29
1805.56	25.5
1806.57	25
1807.58	27.5
1808.59	23.5
1809.6	25.5
1810.61	28
1811.62	30
1812.63	20.5
1813.64	27
1814.65	24.5
1815.66	25.5
1816.66	25
1817.67	25
1818.68	25
1819.69	28.5
1820.69	26.5
1821.7	29.5
1822.71	28.5
1823.72	22
1824.72	25
1825.73	25
1826.74	22.5
1827.74	25.5
1828.75	27.5
1829.76	28.5
1830.76	28.5
1831.77	25
1832.77	25
1833.78	25.5
1834.79	24
1835.79	27.5
1836.8	25
1837.8	22.5
1838.81	27.5
1839.81	25
1840.81	26
1841.82	25
1842.82	25.5
1843.83	26
1844.83	30.5
1845.83	26.5
1846.84	26
1847.84	25
1848.84	27
1849.85	22
1850.85	28
1851.85	29.5
1852.86	25
1853.86	25.5
1854.86	25
1855.86	23.5
1856.86	24
1857.87	28.5
1858.87	26.5
1859.87	26.5
1860.87	25.5
1861.87	24.5
1862.87	25.5
1863.88	24.5
1864.88	24
1865.88	24
1866.88	24.5
1867.88	24.5
1868.88	20
1869.88	30
1870.88	27.5
1871.88	26
1872.88	27.5
1873.88	23.5
1874.87	21
1875.87	25.5
1876.87	28.5
1877.87	29
1878.87	21
1879.87	28
1880.87	23
1881.86	28
1882.86	21
1883.86	25
1884.86	28.5
1885.86	23
1886.85	30
1887.85	29
1888.85	26
1889.84	26.5
1890.84	24.5
1891.84	26
1892.83	26
1893.83	24
1894.83	24.5
1895.82	24.5
1896.82	26
1897.81	24
1898.81	23
1899.81	24.5
1900.8	24
1901.8	24
1902.79	23
1903.78	25.5
1904.78	27
1905.77	23
1906.77	21.5
1907.76	24.5
1908.76	29
1909.75	26.5
1910.74	22.5
1911.74	27
1912.73	24.5
1913.72	21.5
1914.72	26
1915.71	27
1916.7	28.5
1917.7	29.5
1918.69	23.5
1919.68	25.5
1920.67	23
1921.66	23
1922.66	25.5
1923.65	25.5
1924.64	24.5
1925.63	26
1926.62	25.5
1927.61	21
1928.6	26.5
1929.59	22
1930.59	26.5
1931.58	27
1932.57	27
1933.56	23
1934.55	27
1935.54	28
1936.53	21.5
1937.52	27.5
1938.51	28
1939.49	25.5
1940.48	26
1941.47	26.5
1942.46	28
1943.45	26
1944.44	22.5
1945.43	27
1946.42	24
1947.4	28
1948.39	26.75
1949.38	25
1950.37	27
1951.35	28
1952.34	24.5
1953.33	24
1954.31	23.5
1955.3	28
1956.29	25
1957.27	29
1958.26	29
1959.25	28.5
1960.23	25.5
1961.22	28
1962.21	23
1963.19	25.5
1964.18	27.5
1965.16	29.5
1966.15	25
1967.13	26
1968.12	20
1969.1	25
1970.09	25
1971.07	30
1972.05	22.5
1973.04	30.5
1974.02	24
1975.01	29.5
1975.99	26
1976.97	27.5
1977.96	25
1978.94	26.5
1979.92	23.5
1980.91	24.5
1981.89	26
1982.87	26.5
1983.85	26
1984.84	24.5
1985.82	26.5
1986.8	20
1987.78	24
1988.76	22
1989.74	22
1990.73	26
1991.71	27.5
1992.69	25
1993.67	24
1994.65	26
1995.63	27
1996.61	27.5
1997.59	21
1998.57	25.5
1999.55	27
2000.53	23
2001.51	22.5
2002.49	24.5
2003.47	22.5
2004.45	26.5
2005.43	24
2006.41	25.5
2007.39	26
2008.37	29
2009.34	27.5
2010.32	23.5
2011.3	23
2012.28	23
2013.26	19.5
2014.23	23.5
2015.21	22
2016.19	21.5
2017.17	25
2018.14	21.5
2019.12	30.5
2020.1	28.5
2021.07	27
2022.05	23
2023.03	27
2024	24.5
2024.98	23.5
2025.96	21.5
2026.93	24.5
2027.91	23.5
2028.88	28
2029.86	25
2030.83	23.5
2031.81	25.5
2032.78	22.5
2033.76	24
2034.73	24
2035.71	26
2036.68	24
2037.66	26
2038.63	24.5
2039.6	22.5
2040.58	22
2041.55	23
2042.52	27.5
2043.5	24.5
2044.47	23
2045.44	23
2046.42	24.5
2047.39	21.5
2048.36	22.5
2049.33	23.5
2050.31	25.5
2051.28	26.5
2052.25	25
2053.22	24
2054.19	23
2055.17	24
2056.14	25
2057.11	22
2058.08	25.5
2059.05	25.5
2060.02	24.5
2060.99	25.5
2061.96	26
2062.93	28
2063.9	23
2064.87	24
2065.84	27
2066.81	24
2067.78	25.5
2068.75	22
2069.72	22.5
2070.69	25
2071.66	23
2072.63	26
2073.6	26
2074.56	25.5
2075.53	24.5
2076.5	20.5
2077.47	21.5
2078.44	28.5
2079.4	24
2080.37	25.5
2081.34	23.5
2082.31	27
2083.27	21
2084.24	22.5
2085.21	24
2086.18	23.5
2087.14	19
2088.11	25
2089.07	23.5
2090.04	27.5
2091.01	25.5
2091.97	26
2092.94	24.5
2093.9	24
2094.87	22
2095.83	26
2096.8	23
2097.76	24
2098.73	24
2099.69	22.5
2100.66	26
2101.62	23
2102.59	25.5
2103.55	24
2104.52	22.5
2105.48	22
2106.44	23
2107.41	21.5
2108.37	24.5
2109.33	25.5
2110.3	26
2111.26	24
2112.22	24.5
2113.18	25
2114.15	24.5
2115.11	25
2116.07	26.5
2117.03	26
2118	25.5
2118.96	25
2119.92	24
2120.88	24.5
2121.84	20
2122.8	22
2123.76	27.5
2124.72	21.5
2125.68	26.5
2126.65	30
2127.61	25.5
2128.57	22
2129.53	22
2130.49	24.5
2131.45	22.5
2132.41	23.5
2133.36	24.5
2134.32	24.5
2135.28	26.5
2136.24	27.5
2137.2	26
2138.16	24
2139.12	21
2140.08	22
2141.04	21
2141.99	21
2142.95	19.0148
2143.91	21.5184
2144.87	25.5198
2145.83	22.6189
2146.78	25.0358
2147.74	22.1774
2148.7	24.9666
2149.66	21.2073
2150.61	22.0793
2151.57	23.6933
2152.53	24.2113
2153.48	19.2962
2154.44	22.1605
2155.4	23.1726
2156.35	21.8608
2157.31	21.714
2158.26	28.3592
2159.22	23.2893
2160.17	22.6645
2161.13	22.9462
2162.08	24.7043
2163.04	22.0225
2163.99	23.0164
2164.95	22.9259
2165.9	22.0636
2166.86	23.092
2167.81	24.4531
2168.77	22.27
2169.72	22.5221
2170.67	25.5315
2171.63	23.3628
2172.58	22.7832
2173.54	24.9302
2174.49	22.58
2175.44	22.1443
2176.39	23.6537
2177.35	24.7872
2178.3	23.0461
2179.25	22.2638
2180.2	23.249
2181.16	22.3034
2182.11	22.4051
2183.06	22.7604
2184.01	25.3263
2184.96	24.1359
2185.92	22.8578
2186.87	23.4279
2187.82	19.2128
2188.77	20.5947
2189.72	23.4801
2190.67	21.8335
2191.62	23.4068
2192.57	25.1441
2193.52	24.8925
2194.47	23
2195.42	23.9784
2196.37	22.3032
2197.32	26.9194
2198.27	23.1733
2199.22	23.6165
2200.17	25.4827
2201.12	21.0657
2202.07	22.625
2203.02	24.9589
2203.97	22.6577
2204.92	22.3518
2205.87	23.6772
2206.81	23.3556
2207.76	24.4024
2208.71	23.5134
2209.66	24.936
2210.61	22.2925
2211.55	20.8267
2212.5	22.6925
2213.45	21.8912
2214.4	21.9996
2215.34	21.7586
2216.29	25.0989
2217.24	22.5082
2218.18	25.558
2219.13	24.6578
2220.08	22.5804
2221.02	23.5686
2221.97	22.4216
2222.92	22.5325
2223.86	26.5762
2224.81	23.5913
2225.75	25.6889
2226.7	20.9337
2227.64	22.6079
2228.59	22.7235
2229.53	24.9252
2230.48	23.2452
2231.42	22.1268
2232.37	23.12
2233.31	23.7963
2234.26	21.7129
2235.2	23.3646
2236.14	25.5638
2237.09	23.8142
2238.03	23.4393
2238.97	25.1997
2239.92	25.0549
2240.05	25
2241	26
2241.95	26.5
2242.89	21
2243.84	24
2244.79	26
2245.74	24.5
2246.68	23.5
2247.63	27
2248.58	21.5
2249.53	24
2250.47	26.5
2251.42	26
2252.36	25.5
2253.31	22.5
2254.26	21
2255.2	20.5
2256.15	25
2257.1	23.5
2258.04	22
2258.99	21
2259.93	24.5
2260.88	23
2261.82	24
2262.77	24
2263.71	26
2264.66	19.5
2265.6	23.5
2266.55	24
2267.49	24
2268.43	25.5
2269.38	25
2270.32	25.5
2271.26	23.5
2272.21	23
2273.15	21
2274.09	25.5
2275.04	26
2275.98	20
2276.92	25
2277.87	22.5
2278.81	25.5
2279.75	26
2280.69	28
2281.64	25
2282.58	24
2283.52	22.5
2284.46	24
2285.4	21.5
2286.34	20
2287.29	23
2288.23	27.5
2289.17	21.5
2290.11	22.5
2291.05	26.5
2291.99	24
2292.93	22
2293.87	22.5
2294.81	24
2295.75	22.5
2296.69	26.5
2297.63	26.5
2298.57	21.5
2299.51	25
2300.45	20
2301.39	24.5
2302.33	23
2303.27	24.5
2304.2	23
2305.14	24
2306.08	25.5
2307.02	23
2307.96	19
2308.9	27
2309.83	20.5
2310.77	25.5
2311.71	24
2312.65	25.5
2313.58	24
2314.52	23
2315.46	30
2316.39	24
2317.33	21.5
2318.27	26.5
2319.21	23
2320.14	23.5
2321.08	26.5
2322.01	25.5
2322.95	21.5
2323.89	24.5
2324.82	23
2325.76	23
2326.69	24
2327.63	23
2328.56	26
2329.5	25
2330.43	20
2331.37	23
2332.3	27
2333.24	25
2334.17	25
2335.1	25
2336.04	22
2336.97	20
2337.91	23.5
2338.84	25.5
2339.77	21.5
2340.71	26
2341.64	25
2342.57	24
2343.51	22.5
2344.44	26.5
2345.37	24
2346.3	26.5
2347.24	23.5
2348.17	23
2349.1	28.5
2350.03	26
2350.96	23
2351.89	25
2352.83	24
2353.76	23
2354.69	29
2355.62	26.5
2356.55	23.5
2357.48	25.5
2358.41	23.5
2359.34	21
2360.27	25.5
2361.2	26
2362.13	23
2363.06	23
2363.99	24
2364.92	24.5
2365.85	24.5
2366.78	22
2367.71	22
2368.64	25
2369.57	24
2370.5	22.5
2371.43	26.5
2372.36	20.5
2373.28	21
2374.21	23
2375.14	26.5
2376.07	25
2377	21
2377.93	19
2378.85	22
2379.78	24.5
2380.71	21.5
2381.63	24
2382.56	23
2383.49	22.5
2384.42	24
2385.34	27
2386.27	24.5
2387.2	26
2388.12	25
2389.05	26
2389.97	24
2390.9	25
2391.82	24
2392.75	21.5
2393.68	21
2394.6	27
2395.53	26
2396.45	25
2397.38	22
2398.3	25
2399.23	26.5
2400.15	22.5
2401.07	26.5
2402	23
2402.92	25
2403.85	23.5
2404.77	24.5
2405.69	25
2406.62	18
2407.54	23.5
2408.46	22.5
2409.39	22
2410.31	23
2411.23	23.5
2412.16	24
2413.08	24
2414	24
2414.92	25
2415.85	26
2416.77	25
2417.69	22
2418.61	25.5
2419.53	26
2420.45	24.5
2421.38	23.5
2422.3	26
2423.22	24.5
2424.14	27
2425.06	25.5
2425.98	27.5
2426.9	24.5
2427.82	23.5
2428.74	24.5
2429.66	26
2430.58	25
2431.5	24
2432.42	27.5
2433.34	27
2434.26	25
2435.18	24.5
2436.1	24.5
2437.02	27
2437.94	24
2438.85	23
2439.77	26.5
2440.69	22
2441.61	28
2442.53	26
2443.45	24.5
2444.36	21.5
2445.28	26.5
2446.2	25.5
2447.12	23
2448.03	22
2448.95	25
2449.87	23
2450.79	19.5
2451.7	24.5
2452.62	23
2453.54	27
2454.45	22
2455.37	26.5
2456.28	23
2457.2	23.5
2458.12	26
2459.03	28.5
2459.95	25.5
2460.86	25
2461.78	25.5
2462.69	28
2463.61	26.5
2464.52	27
2465.44	24
2466.35	20
2467.27	23
2468.18	25
2469.1	24
2470.01	24
2470.93	26.5
2471.84	26
2472.75	25
2473.67	28.5
2474.58	25.5
2475.49	30
2476.41	24
2477.32	25.5
2478.23	23.5
2479.15	24
2480.06	26.5
2480.97	25
2481.88	23.5
2482.79	26.5
2483.71	22
2484.62	28
2485.53	23.5
2486.44	29
2487.35	26.5
2488.26	25.5
2489.18	26
2490.09	23.5
2491	29.5
2491.91	26
2492.82	24.5
2493.73	28
2494.64	23
2495.55	25.5
2496.46	24
2497.37	27
2498.28	28.5
2499.19	24.5
2500.1	25
2501.01	26
2501.92	23
2502.83	20.5
2503.74	23
2504.65	23.5
2505.56	26.5
2506.47	23.5
2507.37	23
2508.28	24
2509.19	27
2510.1	23.5
2511.01	25.5
2511.92	22
2512.82	24
2513.73	21.5
2514.64	25
2515.55	26.5
2516.45	26.5
2517.36	27
2518.27	24
2519.17	27
2520.08	24.5
2520.99	27
2521.89	23
2522.8	26.5
2523.71	24.5
2524.61	24
2525.52	24
2526.42	26
2527.33	27.5
2528.24	26.5
2529.14	26
2530.05	23
2530.95	27.5
2531.86	27
2532.76	22.5
2533.67	32.5
2534.57	28
2535.48	22.5
2536.38	24.5
2537.28	26.5
2538.19	24
2539.09	25
2540	25
2540.9	21
2541.8	24.5
2542.71	20.5
2543.61	23
2544.51	26
2545.42	23.5
2546.32	29
2547.22	25
2548.12	22
2549.03	26
2549.93	24
2550.83	22
2551.73	24
2552.63	23
2553.54	24.5
2554.44	25.5
2555.34	26
2556.24	24
2557.14	21.5
2558.04	27
2558.94	22.5
2559.85	24
2560.75	22
2561.65	21
2562.55	26
2563.45	25.5
2564.35	24.5
2565.25	26.5
2566.15	27.5
2567.05	26.5
2567.95	24.5
2568.85	24.5
2569.75	25.5
2570.65	26.5
2571.55	23.5
2572.44	22
2573.34	20
2574.24	25.5
2575.14	23
2576.04	25
2576.94	26
2577.84	24
2578.73	26.5
2579.63	26.5
2580.53	27.5
2581.43	26.5
2582.33	20.5
2583.22	24
2584.12	25
2585.02	27
2585.91	24
2586.81	23
2587.71	26.5
2588.6	21.5
2589.5	23.5
2590.4	26.5
2591.29	25
2592.19	21
2593.09	27
2593.98	22.5
2594.88	21
2595.77	26
2596.67	26.5
2597.56	26
2598.46	24
2599.35	23
2600.25	24.5
2601.14	24.5
2602.04	28
2602.93	27.5
2603.83	27.5
2604.72	26
2605.62	29.5
2606.51	25.5
2607.4	28.5
2608.3	21
2609.19	28.5
2610.09	25
2610.98	27
2611.87	26
2612.76	24.5
2613.66	24
2614.55	25
2615.44	24
2616.34	24
2617.23	23.5
2618.12	29
2619.01	26.5
2619.9	22.5
2620.8	23.5
2621.69	25
2622.58	24
2623.47	28.5
2624.36	25
2625.25	26.5
2626.15	26
2627.04	20
2627.93	22.5
2628.82	22.5
2629.71	25
2630.6	24.5
2631.49	21
2632.38	26
2633.27	24.5
2634.16	26.5
2635.05	25
2635.94	27
2636.83	22
2637.72	26
2638.61	26.5
2639.5	24
2640.39	27
2641.28	25
2642.16	23.5
2643.05	19
2643.94	22
2644.83	27.5
2645.72	30
2646.61	23
2647.49	23
2648.38	24.5
2649.27	24
2650.16	27
2651.05	25.5
2651.93	23.5
2652.82	27
2653.71	21.5
2654.59	24.5
2655.48	26.5
2656.37	27
2657.25	24
2658.14	23
2659.03	23
2659.91	25
2660.8	25
2661.69	22.5
2662.57	22
2663.46	27.5
2664.34	25
2665.23	28.5
2666.11	24
2667	29
2667.88	24
2668.77	28
2669.65	22.5
2670.54	23
2671.42	24
2672.31	24.5
2673.19	23
2674.08	21.5
2674.96	26.5
2675.84	24.5
2676.73	22
2677.61	23
2678.49	24.5
2679.38	22
2680.26	28
2681.14	30.5
2682.03	27.5
2682.91	24.5
2683.79	28
2684.68	25
2685.56	22
2686.44	27
2687.32	24.5
2688.2	21
2689.09	26.5
2689.97	24
2690.85	22
2691.73	25
2692.61	27.5
2693.49	24.5
2694.38	27.5
2695.26	23.5
2696.14	23
2697.02	21.5
2697.9	23
2698.78	24
2699.66	23.5
2700.54	26.5
2701.42	27
2702.3	26
2703.18	22.5
2704.06	22.5
2704.94	24.5
2705.82	27.5
2706.7	26
2707.58	25.5
2708.46	23
2709.34	21
2710.21	24.5
2711.09	24.5
2711.97	23.5
2712.85	22.5
2713.73	22
2714.61	29.5
2715.49	25.5
2716.36	25
2717.24	27.5
2718.12	23
2719	27.5
2719.87	25
2720.75	23.5
2721.63	23.5
2722.51	24.5
2723.38	25
2724.26	25.5
2725.14	25
2726.01	24
2726.89	20
2727.77	28.5
2728.64	24.5
2729.52	25.5
2730.39	22.5
2731.27	26
2732.15	28
2733.02	28
2733.9	25
2734.77	26
2735.65	25
2736.52	23
2737.4	28.5
2738.27	18.5
2739.15	24
2740.02	25.5
2740.89	26
2741.77	27
2742.64	27
2743.52	23.5
2744.39	24
2745.27	25
2746.14	25
2747.01	26
2747.89	25.5
2748.76	20.5
2749.63	22
2750.51	27
2751.38	20.5
2752.25	24
2753.12	24.5
2754	24
2754.87	25
2755.74	16.5
2756.61	22.5
2757.48	23.5
2758.36	23.5
2759.23	22.5
2760.1	25
2760.97	28
2761.84	24
2762.71	26
2763.59	21
2764.46	23
2765.33	24.5
2766.2	25.5
2767.07	26
2767.94	26
2768.81	27.5
2769.68	21.5
2770.55	24.5
2771.42	21
2772.29	29
2773.16	27
2774.03	28
2774.9	24.5
2775.77	28
2776.64	21.5
2777.51	22
2778.37	28.5
2779.24	25
2780.11	27.5
2780.98	25
2781.85	22.5
2782.72	24
2783.59	24
2784.45	27
2785.32	25.5
2786.19	25
2787.06	24.5
2787.92	29
2788.79	25
2789.66	26.5
2790.53	23
2791.39	27.5
2792.26	29.5
2793.13	26
2793.99	26
2794.86	28
2795.73	27
2796.59	30.5
2797.46	26.5
2798.33	31
2799.19	22.5
2800.06	25.5
2800.92	27
2801.79	25
2802.65	21
2803.52	25.5
2804.39	27
2805.25	31
2806.11	28
2806.98	25.5
2807.84	24.5
2808.71	25
2809.57	24.5
2810.44	27.5
2811.3	24
2812.17	30
2813.03	26.5
2813.89	25
2814.76	26.5
2815.62	28
2816.49	29.5
2817.35	27.5
2818.21	26
2819.07	30
2819.94	28.5
2820.8	27.5
2821.66	28
2822.53	24
2823.39	24.5
2824.25	22
2825.11	26.5
2825.97	30.5
2826.84	27
2827.7	29.5
2828.56	27
2829.42	22.5
2830.28	26
2831.14	24.5
2832.01	29
2832.87	24
2833.73	25
2834.59	25
2835.45	33
2836.31	28
2837.17	26
2838.03	23
2838.89	26
2839.75	23
2840.61	25
2841.47	26.5
2842.33	29
2843.19	27.5
2844.05	24
2844.91	28
2845.77	24.5
2846.63	25
2847.48	31
2848.34	25.5
2849.2	26.5
2850.06	24.5
2850.92	25
2851.78	26.5
2852.64	24
2853.49	28
2854.35	30
2855.21	22
2856.07	27.5
2856.93	26
2857.78	27.5
2858.64	27
2859.5	24.5
2860.35	26.5
2861.21	25.5
2862.07	27.5
2862.93	26.5
2863.78	28.5
2864.64	29
2865.49	30
2866.35	22.5
2867.21	28.5
2868.06	27.5
2868.92	32
2869.77	25
2870.63	25.5
2871.49	29
2872.34	31
2873.2	28.5
2874.05	30.5
2874.91	23.5
2875.76	31
2876.62	27.5
2877.47	29.5
2878.32	31.5
2879.18	33
2880.03	32
2880.89	31.5
2881.74	32
2882.6	29.5
2883.45	28
2884.3	33
2885.16	35
2886.01	36
2886.86	35.5
2887.72	35.5
2888.57	37
2889.42	41
2890.27	37.5
2891.13	44.5
2891.98	43.5
2892.83	46
2893.68	46.5
2894.54	43
2895.39	45
2896.24	52
2897.09	50
2897.94	51
2898.8	53.5
2899.65	59.5
2900.5	59
2901.35	60
2902.2	64.5
2903.05	65
2903.9	71
2904.75	71.5
2905.6	70.5
2906.45	64.5
2907.3	73.5
2908.15	75
2909.01	69
2909.85	63.5
2910.7	68
2911.55	57.5
2912.4	57
2913.25	58.5
2914.1	53.5
2914.95	47
2915.8	48
2916.65	40.5
2917.5	43
2918.35	40
2919.2	38
2920.04	35
2920.89	35
2921.74	35
2922.59	31
2923.44	35
2924.29	28
2925.13	27.5
2925.98	29.5
2926.83	28
2927.68	32
2928.52	34
2929.37	32
2930.22	35.5
2931.06	29
2931.91	29.5
2932.76	29.5
2933.6	33.5
2934.45	26
2935.3	26
2936.14	27
2936.99	29.5
2937.83	32
2938.68	27.5
2939.53	24.5
2940.37	29.5
2941.22	30.5
2942.06	32
2942.91	30.5
2943.75	27
2944.6	28
2945.44	28.5
2946.29	26.5
2947.13	30
2947.98	30
2948.82	26.5
2949.66	27
2950.51	31
2951.35	33
2952.2	31.5
2953.04	29
2953.88	30
2954.73	32.5
2955.57	38
2956.41	34.5
2957.26	37.5
2958.1	37
2958.94	41
2959.79	38
2960.63	40.5
2961.47	43
2962.31	42.5
2963.15	42
2964	41.5
2964.84	51
2965.68	43.5
2966.52	45
2967.37	48.5
2968.21	41
2969.05	40
2969.89	40.5
2970.73	36
2971.57	32.517
2972.41	34.4823
2973.25	38.0641
2974.09	34.4492
2974.93	35.7864
2975.77	33.508
2976.62	36.2591
2977.46	33.859
2978.3	33.2329
2979.14	29.8009
2979.98	23.2399
2980.81	29.6794
2981.65	28.3786
2982.49	25.6035
2983.33	24.1622
2984.17	28.2139
2985.01	28.3157
2985.85	28.3845
2986.69	28.0878
2987.53	27.514
2988.37	26.0804
2989.21	24.1454
2990.04	26.017
2990.88	25.0857
2991.72	26.5743
2992.56	26.3261
2993.4	22.8947
2994.23	25.5872
2995.07	27.6303
2995.91	22.3169
2996.75	26.1125
2997.58	23.2304
2998.42	27.2735
2999.26	22.7146
3000.1	24.5296
3000.93	21.6596
3001.77	25.7711
3002.61	23.1899
3003.44	25.2649
3004.28	21.7793
3005.11	21.761
3005.95	23.2455
3006.79	25.0686
3007.62	25.0877
3008.46	23.5301
3009.29	22.5685
3010.13	25.4462
3010.97	24.3476
3011.8	24.7058
3012.64	22.986
3013.47	23.3906
3014.31	24.7982
3015.14	22.4366
3015.98	22.4508
3016.81	26.1069
3017.64	25.4106
3018.48	26.0369
3019.31	21.6502
3020.15	22.8436
3020.98	25.2222
3021.82	23.7184
3022.65	24.6076
3023.48	24.395
3024.32	23.8457
3025.15	21.7908
3025.98	23.3491
3026.82	23.0514
3027.65	24.44
3028.48	24.4655
3029.31	23.2601
3030.15	22.5248
3030.98	23.5541
3031.81	23.1301
3032.64	23.8295
3033.48	22.9789
3034.31	23.6118
3035.14	25.1432
3035.97	23.3174
3036.8	23.3375
3037.64	22.1088
3038.47	22.8248
3039.3	22.3533
3040.13	22.6304
3040.96	23.7164
3041.79	23.7969
3042.62	25.6889
3043.45	26.1559
3044.28	22.3223
3045.12	21.9947
3045.95	24.7867
3046.78	21.2344
3047.61	22.3786
3048.44	23.5696
3049.27	22.955
3050.1	24.7727
3050.92	23.4636
3051.75	22.5504
3052.58	24.4193
3053.41	24.1926
3054.24	22.5656
3055.07	22.4314
3055.9	22.5083
3056.73	25.6148
3057.26	25
3058.09	20
3058.93	27.5
3059.76	20
3060.59	22
3061.43	20
3062.26	28
3063.09	25
3063.92	20.5
3064.76	20
3065.59	26.5
3066.42	24.5
3067.25	22
3068.08	22
3068.92	22.5
3069.75	20
3070.58	27
3071.41	23
3072.24	21.5
3073.07	19
3073.9	24
3074.73	23.5
3075.57	23
3076.4	24
3077.23	23
3078.06	19
3078.89	26.5
3079.72	21
3080.55	24
3081.38	25
3082.21	20
3083.04	23.5
3083.87	27
3084.7	21
3085.53	23
3086.36	22.5
3087.19	25.5
3088.01	21.5
3088.84	22
3089.67	25.5
3090.5	23.5
3091.33	25
3092.16	22
3092.99	23.5
3093.81	24.5
3094.64	20
3095.47	23
3096.3	26.5
3097.13	26
3097.95	21.5
3098.78	21.5
3099.61	24
3100.44	23
3101.26	24
3102.09	24.5
3102.92	27
3103.74	21.5
3104.57	25
3105.4	22
3106.22	24.5
3107.05	24
3107.88	22
3108.7	21
3109.53	24
3110.35	21
3111.18	23.5
3112.01	20
3112.83	24.5
3113.66	26
3114.48	22.5
3115.31	25.5
3116.13	20
3116.96	25.5
3117.78	22.5
3118.61	25
3119.43	23
3120.26	18
3121.08	22
3121.9	20
3122.73	25.5
3123.55	19.5
3124.38	24
3125.2	20.5
3126.02	21.5
3126.85	23.5
3127.67	25
3128.49	24.5
3129.32	24
3130.14	25
3130.96	19.5
3131.79	26.5
3132.61	22
3133.43	23.5
3134.25	22.5
3135.08	23.5
3135.9	25
3136.72	23
3137.54	20.5
3138.37	29
3139.19	23
3140.01	28
3140.83	28
3141.65	25.5
3142.47	22
3143.29	24.5
3144.12	25
3144.94	22.5
3145.76	24
3146.58	24
3147.4	23
3148.22	21
3149.04	24.5
3149.86	23.5
3150.68	22.5
3151.5	24.5
3152.32	27
3153.14	19
3153.96	23
3154.78	24.5
3155.6	23.5
3156.42	23.5
3157.24	23
3158.06	22.5
3158.88	22
3159.7	22
3160.51	26
3161.33	24.5
3162.15	23
3162.97	22
3163.79	20
3164.61	21
3165.42	24
3166.24	23
3167.06	24.5
3167.88	24.5
3168.7	25
3169.51	23.5
3170.33	23
3171.15	27
3171.97	25
3172.78	19
3173.6	25
3174.42	22.5
3175.23	24.5
3176.05	24
3176.87	26.5
3177.68	27
3178.5	21
3179.32	22.5
3180.13	24
3180.95	25
3181.76	24.5
3182.58	25.5
3183.4	23
3184.21	24.5
3185.03	22.5
3185.84	21.5
3186.66	26.5
3187.47	24.5
3188.29	22
3189.1	19.5
3189.92	21
3190.73	28.5
3191.55	24
3192.36	26.5
3193.17	23
3193.99	26.5
3194.8	21.5
3195.62	22.5
3196.43	24.5
3197.24	21
3198.06	21
3198.87	23.5
3199.68	24
3200.5	22.5
3201.31	24
3202.12	27
3202.94	23
3203.75	28
3204.56	26
3205.38	26
3206.19	24.5
3207	23
3207.81	24.5
3208.62	23
3209.44	25
3210.25	29
3211.06	20.5
3211.87	24
3212.68	24
3213.49	24
3214.31	23.5
3215.12	22.5
3215.93	22.5
3216.74	26.5
3217.55	25.5
3218.36	26.5
3219.17	24.5
3219.98	24.5
3220.79	22.5
3221.6	24
3222.41	21.5
3223.22	22
3224.03	20
3224.84	25.5
3225.65	24.5
3226.46	21
3227.27	24
3228.08	22.5
3228.89	23.5
3229.7	22.5
3230.51	27
3231.32	23.5
3232.13	24
3232.94	22
3233.74	27.5
3234.55	26
3235.36	20
3236.17	22.5
3236.98	25
3237.78	20.5
3238.59	26
3239.4	20.5
3240.21	21
3241.02	25.5
3241.82	24.5
3242.63	23
3243.44	25.5
3244.25	22.5
3245.05	24
3245.86	23
3246.67	23.5
3247.47	22
3248.28	27
3249.09	25
3249.89	23
3250.7	21.5
3251.5	25
3252.31	24
3253.12	22.5
3253.92	23
3254.73	18
3255.53	23
3256.34	23
3257.14	22.5
3257.95	25
3258.75	23
3259.56	22.5
3260.36	22
3261.17	26
3261.97	24.5
3262.78	23
3263.58	26.5
3264.39	24
3265.19	24.5
3265.99	28
3266.8	24
3267.6	22
3268.41	24
3269.21	22
3270.01	19
3270.82	28
3271.62	22
3272.42	24
3273.23	26
3274.03	23
3274.83	23
3275.64	25
3276.44	22.5
3277.24	25
3278.04	23.5
3278.85	19
3279.65	23.5
3280.45	19
3281.25	25.5
3282.05	20
3282.85	23
3283.66	23
3284.46	21.5
3285.26	24.5
3286.06	22.5
3286.86	21
3287.66	24.5
3288.46	26
3289.27	26
3290.07	26
3290.87	20.5
3291.67	22.5
3292.47	23
3293.27	20.5
3294.07	23.5
3294.87	25.5
3295.67	20
3296.47	25
3297.27	24
3298.07	24
3298.87	26.5
3299.67	27
3300.47	23.5
3301.26	21.5
3302.06	21.5
3302.86	28.5
3303.66	22
3304.46	22
3305.26	26
3306.06	25
3306.86	24
3307.65	24.5
3308.45	21
3309.25	20.5
3310.05	23
3310.85	25
3311.64	23.5
3312.44	26
3313.24	25.5
3314.04	26.5
3314.83	23.5
3315.63	25.5
3316.43	19
3317.22	21
3318.02	27.5
3318.82	28
3319.62	26.5
3320.41	20.5
3321.21	23
3322	22
3322.8	28
3323.6	25
3324.39	20.5
3325.19	21.5
3325.98	22
3326.78	23
3327.58	25.5
3328.37	24
3329.17	26
3329.96	24
3330.76	26
3331.55	24.5
3332.35	23.5
3333.14	25
3333.94	30
3334.73	24
3335.52	23.5
3336.32	26.5
3337.11	25
3337.91	27
3338.7	26.5
3339.5	27.5
3340.29	24.5
3341.08	25.5
3341.88	20
3342.67	28.5
3343.46	28.5
3344.26	23
3345.05	26
3345.84	22.5
3346.63	22
3347.43	25.5
3348.22	26
3349.01	24
3349.8	28.5
3350.6	20
3351.39	21
3352.18	19.5
3352.97	24.5
3353.77	26
3354.56	23
3355.35	23
3356.14	26.5
3356.93	26.5
3357.72	20.5
3358.51	29.5
3359.31	21
3360.1	21
3360.89	26.5
3361.68	22.5
3362.47	22.5
3363.26	24
3364.05	22.5
3364.84	25.5
3365.63	24.5
3366.42	25.5
3367.21	25
3368	27.5
3368.79	23
3369.58	25.5
3370.37	23
3371.16	24
3371.95	22.5
3372.74	25.5
3373.53	22.5
3374.32	23
3375.1	26
3375.89	24.5
3376.68	22
3377.47	21.5
3378.26	23.5
3379.05	24
3379.84	23.5
3380.62	25
3381.41	23
3382.2	28.5
3382.99	24
3383.78	26
3384.56	19.5
3385.35	24.5
3386.14	26.5
3386.93	21
3387.71	24.5
3388.5	26
3389.29	24
3390.07	19
3390.86	23
3391.65	24
3392.43	23
3393.22	22.5
3394.01	26
3394.79	26
3395.58	26
3396.36	25.5
3397.15	22
3397.94	26
3398.72	28.5
3399.51	25
3400.29	23
3401.08	24
3401.86	27
3402.65	25
3403.43	24
3404.22	21.5
3405	23
3405.79	23
3406.57	27
3407.36	23.5
3408.14	25.5
3408.93	26
3409.71	27.5
3410.49	23
3411.28	21.5
3412.06	22
3412.84	24
3413.63	22
3414.41	25
3415.2	24.5
3415.98	22.5
3416.76	27
3417.54	25
3418.33	23
3419.11	26.5
3419.89	26
3420.68	25.5
3421.46	28.5
3422.24	25.5
3423.02	23.5
3423.81	21
3424.59	26
3425.37	24
3426.15	24.5
3426.93	22
3427.71	27
3428.5	26
3429.28	26
3430.06	28
3430.84	25.5
3431.62	25.5
3432.4	27
3433.18	22.5
3433.96	22
3434.75	27
3435.53	24.5
3436.31	23
3437.09	23
3437.87	24.5
3438.65	23.5
3439.43	25.5
3440.21	25
3440.99	25
3441.77	27
3442.55	25.5
3443.33	26
3444.1	16
3444.88	23.5
3445.66	23.5
3446.44	25
3447.22	25.5
3448	21
3448.78	21
3449.56	26
3450.34	24.5
3451.11	22
3451.89	24
3452.67	22
3453.45	23.5
3454.23	28
3455	27.5
3455.78	25.5
3456.56	23
3457.34	20.5
3458.11	21.5
3458.89	23
3459.67	22.5
3460.45	24
3461.22	22
3462	22.5
3462.78	25.5
3463.55	24
3464.33	24
3465.11	20
3465.88	22.5
3466.66	20
3467.44	23
3468.21	24
3468.99	24
3469.76	22.5
3470.54	26
3471.32	25.5
3472.09	28
3472.87	25
3473.64	26.5
3474.42	20.5
3475.19	24
3475.97	23.5
3476.74	21
3477.52	25.5
3478.29	25
3479.07	26
3479.84	22
3480.61	19
3481.39	25
3482.16	26
3482.94	25.5
3483.71	25
3484.48	25.5
3485.26	25.5
3486.03	24.5
3486.81	27.5
3487.58	23
3488.35	22
3489.13	20.5
3489.9	25
3490.67	26
3491.44	27.5
3492.22	24
3492.99	22
3493.76	25.5
3494.54	23.5
3495.31	25.5
3496.08	24
3496.85	25
3497.62	22.5
3498.4	22.5
3499.17	23.5
3499.94	24.5
