#Acq. time (s)=	5
#Accumulations=	5
#Range (cm-¹)=	100...3500
#Windows=	4
#Autofocus=	Off
#AutoExposure=	Off
#Spike filter=	Multiple accum.
#Delay time (s)=	0
#Binning=	1
#Readout mode=	Signal
#DeNoise=	Off
#ICS correction=	Off
#Dark correction=	Off
#Inst. Process=	Off
#Instrument=	LabRAM HR Evol
#Detector=	Syncerity OE
#Objective=	x100_VIS
#Grating=	600 (500nm)
#ND Filter=	25%
#Laser=	633nm_Edge
#Hole=	100.021
#Range=	Visible
#Project=	verificaciones
#Sample=	at4
#Site=	lined
#Title=	bolusat4lined
#Remark=	
#Date=	14.01.2026 14:19
#Acquired=	14.01.2026 14:19:49
100.618	27
101.901	30.5
103.185	35.5
104.468	35
105.751	30
107.033	33
108.316	29
109.598	29.5
110.88	35
112.162	30
113.445	31
114.727	28
116.008	29
117.289	31
118.57	31.5
119.85	34.5
121.13	36
122.411	35.5
123.691	35
124.97	32
126.25	33
127.529	34.5
128.808	36.5
130.086	31.5
131.364	33.5
132.643	36
133.921	37
135.199	35
136.477	34.5
137.755	34.5
139.032	37
140.309	40.5
141.586	33
142.863	36
144.14	36
145.415	36.5
146.691	36
147.967	37
149.243	38.5
150.518	35
151.794	38.5
153.067	43
154.342	44
155.617	36.5
156.892	39.5
158.166	42.5
159.439	38
160.712	38
161.986	39.5
163.26	35
164.531	41
165.805	40.5
167.077	40.5
168.35	36.5
169.621	41
170.893	39.5
172.165	40.5
173.437	38
174.707	32.5
175.979	39
177.25	39
178.519	39
179.79	38
181.061	34.5
182.33	38.5
183.6	37
184.87	42
186.138	44.5
187.408	43
188.676	38.5
189.945	40
191.214	41
192.481	40.5
193.75	33
195.016	42.5
196.285	40.5
197.552	36.5
198.819	38.5
200.086	36
201.352	36
202.619	37.5
203.884	35
205.151	41
206.416	36
207.682	41.5
208.947	38.5
210.213	39
211.477	34
212.742	37
214.006	36
215.271	31.5
216.535	36
217.799	33.5
219.062	37.5
220.326	36
221.589	36
222.851	30.5
224.115	31.5
225.377	35
226.64	34
227.901	34.5
229.163	37.5
230.425	31.5
231.686	31.5
232.947	34
234.209	36.5
235.469	34.5
236.729	30
237.991	33.5
239.25	32
240.51	35
241.771	32
243.03	33.5
244.288	30
245.549	29.5
246.807	36
248.065	31
249.323	29
250.583	26
251.84	35
253.098	27.5
254.355	25.5
255.613	30
256.87	33
258.127	30.5
259.383	30
260.639	30.5
261.897	33.5
263.153	27.5
264.408	34
265.664	30.5
266.919	37
268.174	29.5
269.43	30
270.685	35
271.939	32.5
273.193	33
274.447	27.5
275.701	31
276.955	32.5
278.208	31
279.461	34
280.714	35.5
281.968	28
283.221	32
284.473	30
285.726	34
286.977	31.5
288.229	34.5
289.481	28.5
290.732	30
291.983	29
293.234	31.5
294.485	30.5
295.736	32
296.986	30.5
298.236	34
299.486	30.5
300.736	29
301.985	32
303.233	30
304.482	31
305.731	30
306.98	29
308.228	31
309.477	30.5
310.725	28.5
311.973	26.5
313.22	31
314.468	30.5
315.714	28.5
316.961	31
318.208	32
319.455	30.5
320.701	33
321.947	32.5
323.192	29.5
324.438	29
325.684	25.5
326.929	32
328.175	32
329.418	29
330.663	32
331.908	30.5
333.152	30.5
334.395	30.5
335.639	31.5
336.883	29
338.127	30.5
339.369	29.5
340.612	31
341.855	29.5
343.097	34
344.34	29
345.582	29.5
346.823	30
348.065	31.5
349.307	33.5
350.547	28.5
351.789	27
353.03	32.5
354.27	35
355.511	30.5
356.75	31.5
357.991	32.5
359.231	32
360.47	29.5
361.709	28
362.948	32
364.187	32
365.427	29.5
366.664	32
367.903	28.5
369.14	33
370.379	30.5
371.616	28
372.854	30
374.091	28
375.328	29
376.564	27
377.802	28.5
379.037	29
380.274	27
381.51	32.5
382.745	28
383.981	32.5
385.216	30
386.452	29.5
387.686	31
388.922	31
390.155	33
391.389	32
392.624	36
393.857	26
395.091	30.5
396.325	30
397.558	32
398.79	29
400.024	29
401.256	32
402.488	31
403.721	30.5
404.953	30.5
406.184	34
407.417	32.5
408.648	32.5
409.878	33
411.109	31.5
412.341	28
413.571	35
414.801	31.5
416.031	33
417.262	28
418.491	28
419.72	31
420.949	32.5
422.178	31
423.408	31.5
424.637	34.5
425.865	31.5
427.093	30.5
428.32	27
429.548	30
430.777	35.5
432.004	33
433.231	32
434.458	31
435.685	28
436.911	34.5
438.137	28
439.363	31.5
440.589	30
441.815	35
443.042	29.5
444.267	29.5
445.492	35
446.717	33
447.942	33
449.166	28.5
450.39	27.5
451.615	30.5
452.838	31.5
454.062	33
455.286	33.5
456.509	35
457.732	33
458.955	28
460.178	35
461.399	35.5
462.621	36
463.843	33.5
465.065	27.5
466.287	34.5
467.508	30
468.73	37
469.951	35
471.172	33.5
472.393	35
473.612	42
474.832	37.5
476.052	36
477.272	42
478.492	40.5
479.712	48
480.93	48.5
482.149	52.5
483.368	53
484.587	53
485.806	55
487.023	50
488.241	55.5
489.459	57.5
490.677	57
491.893	52
493.111	53.5
494.328	51
495.543	53
496.76	47.5
497.977	46.5
499.194	44
500.409	45
501.625	41.5
502.841	44
504.055	42
505.27	39
506.486	36.5
507.699	43.5
508.914	39.5
510.128	38
511.342	38
512.557	34
513.77	36
514.984	35
516.196	37
517.41	35.5
518.623	33
519.835	36.5
521.048	32
522.259	33.5
523.472	31
524.683	32.5
525.895	33
527.106	32.5
528.318	31.5
529.528	32.5
530.74	31
531.949	31.5
533.161	32
534.37	31
535.581	33.5
536.79	35
537.999	31.5
539.209	33
540.418	33
541.627	32
542.835	32
544.043	32
545.253	32
546.46	32
547.669	31
548.876	27
550.083	33
551.292	35
552.498	34
553.705	32.5
554.912	32
556.118	32
557.324	32.5
558.53	30
559.737	31
560.942	34
562.147	29
563.353	34
564.558	30
565.763	34
566.967	31
568.173	32
569.377	32
570.58	30
571.784	33.5
572.987	32.5
574.192	32
575.395	33
576.598	34.5
577.8	31
579.003	37.5
580.205	34.5
581.407	26.5
582.61	35
583.812	31.5
585.014	29
586.215	32
587.416	35
588.617	31.5
589.818	32
591.018	29
592.219	32
593.419	32
594.619	34
595.819	28
597.02	30.5
598.219	32.5
599.418	32.5
600.617	31.5
601.816	28
603.015	31
604.213	32
605.41	36
606.608	31.5
607.806	31.5
609.004	30.5
610.201	37
611.399	34
612.596	33.5
613.793	32
614.989	33
616.186	30.5
617.382	32.5
618.579	28.5
619.775	30
620.969	32.5
622.165	34.5
623.36	29
624.555	32.5
625.75	32.5
626.945	30.5
628.139	33.5
629.333	32.5
630.527	30.5
631.721	30
632.915	26
634.108	31
635.301	33
636.495	29.5
637.688	30.5
638.88	31.5
640.072	29
641.265	32.5
642.456	34.5
643.648	32
644.84	33
646.032	37
647.222	36.5
648.414	31
649.605	35
650.795	30.5
651.986	34.5
653.177	29
654.366	29
655.556	33.5
656.745	31.5
657.935	27.5
659.125	35.5
660.313	31.5
661.503	31
662.69	36.5
663.879	32.5
665.067	34
666.256	35
667.444	32.5
668.631	36.5
669.819	37
671.006	34.5
672.194	30
673.38	35.5
674.567	35
675.753	35.5
676.94	38
678.125	31
679.311	38
680.497	34
681.682	36.5
682.868	36
684.053	41.5
685.238	38.5
686.422	39
687.606	37
688.792	43
689.975	36
691.159	37
692.343	35
693.526	40
694.71	37.5
695.893	36
697.076	36
698.259	33
699.441	34
700.623	40
701.805	38
702.988	41
704.169	44.5
705.35	51.5
706.533	49.5
707.714	54.5
708.894	46.5
710.075	50
711.255	47.5
712.436	44
713.616	43
714.796	34.5
715.975	37.5
717.155	37
718.335	35
719.514	36
720.693	34
721.872	29
723.05	36
724.228	37
725.406	30
726.585	32
727.763	32.5
728.941	34
730.118	34
731.295	34
732.472	33
733.649	33.5
734.825	32
736.002	31
737.178	31
738.354	30
739.53	32.5
740.705	32
741.881	32
743.056	30
744.231	29
745.406	32
746.581	31.5
747.755	30.5
748.93	32
750.104	31.5
751.278	32
752.452	33
753.625	33.5
754.799	32.5
755.972	31
757.144	34.5
758.317	30.5
759.489	28
760.662	28.5
761.834	33
763.006	30
764.178	28.5
765.349	34.5
766.521	32.5
767.692	32
768.863	29
770.034	34
771.204	28
772.374	33
773.545	29
774.715	29.5
775.885	31
777.054	33.5
778.224	34.5
779.393	34.5
780.562	30
781.731	37
782.9	33
784.069	33
785.236	32.5
786.405	36.5
787.573	31.5
788.74	32
789.908	35
791.074	36
792.242	34.5
793.409	29
794.575	34.5
795.742	33
796.909	35.5
798.074	34.5
799.241	35
800.406	31
801.572	30
802.737	35
803.902	28
805.067	32
806.232	32
807.396	31.5
808.561	29.5
809.725	32
810.889	27.5
812.052	30
813.217	30
814.38	31
815.544	32
816.706	30
817.87	29.5
819.032	29
820.195	29
821.357	35.5
822.518	31
823.681	27
824.842	33
826.005	34
827.165	34
828.326	29
829.488	27.5
830.648	27.5
831.808	29.5
832.97	35.5
834.129	30.5
835.289	29
836.45	31
837.609	28
838.768	30
839.927	33.5
841.087	35.5
842.245	29
843.404	35
844.562	32.5
845.721	34
846.879	30
848.036	33.5
849.194	31
850.351	30.5
851.509	31.5
852.666	31
853.823	32
854.979	30
856.136	32.5
857.292	30.5
858.448	29
859.605	26.5
860.761	29.5
861.916	28
863.071	35.5
864.226	33
865.381	32.5
866.536	31
867.691	29
868.845	30
869.999	33
871.153	26
872.307	29
873.461	28
874.614	34
875.767	30.5
876.92	36
878.073	36
879.226	31
880.379	30
881.531	31
882.683	32.5
883.835	28
884.987	31
886.139	30
887.291	28.5
888.442	28
889.593	29
890.743	31
891.893	29
893.044	32.5
894.195	30.5
895.345	29.5
896.495	29.5
897.643	30
898.793	29.5
899.943	28.5
901.092	31
902.241	26.5
903.389	33
904.538	32
905.687	29
906.835	30.5
907.982	26
909.13	34
910.278	26
911.426	29.5
912.572	30
913.72	29.5
914.867	31
916.013	24
917.16	29.5
918.306	28
919.451	27.5
920.598	30
921.744	28
922.889	30
924.035	32.5
925.18	27.5
926.324	32.5
927.47	28.5
928.614	30
929.758	29
930.902	29.5
932.047	30
933.191	29
934.334	32
935.478	31
936.621	23
937.764	27.5
938.906	28
940.05	30
941.192	30.5
942.335	32
943.476	31
944.619	31.5
945.76	34.5
946.901	25
948.043	30
949.184	32.5
950.326	29.5
951.466	31
952.606	33
953.747	30.5
954.887	30.5
956.028	30
957.167	28
958.307	32
959.447	25
960.586	32
961.725	28
962.865	27.5
964.003	28.5
965.141	26.5
966.279	26
967.418	28.5
968.556	29
969.693	31
970.831	28.5
971.969	26
973.106	27.5
974.243	24.5
975.38	31.5
976.517	26
977.654	31
978.79	27.5
979.926	31
981.061	32.5
982.197	29.5
983.334	31.5
984.469	33
985.604	31
986.739	24
987.873	30.5
989.008	31
990.142	28
991.277	31
992.411	30
993.544	26.5
994.679	29
995.813	31
996.946	29.5
998.079	26.5
999.212	30
1000.35	31
1001.48	28
1002.61	27.5
1003.74	26.5
1004.87	29.5
1006.01	28
1007.14	27
1008.27	33
1009.4	30.5
1010.53	30
1011.66	24
1012.79	29
1013.92	28
1015.05	29
1016.18	28
1017.31	26.5
1018.44	30
1019.57	30.5
1020.7	28
1021.83	29.5
1022.96	29
1024.09	27.5
1025.22	30.5
1026.35	34
1027.48	27
1028.6	27
1029.73	29
1030.86	30
1031.99	29
1033.12	26.5
1034.24	29
1035.37	25
1036.5	26.5
1037.62	28.5
1038.75	27.5
1039.88	29
1041	27
1042.13	28
1043.25	27
1044.38	29.5
1045.5	30.5
1046.63	28.5
1047.76	25
1048.88	26
1050	26
1051.13	32.5
1052.25	33.5
1053.38	30
1054.5	26
1055.63	28.5
1056.75	28
1057.87	25.5
1058.99	32
1060.12	28
1061.24	28
1062.36	31
1063.49	30.5
1064.61	26.5
1065.73	30.5
1066.85	26
1067.97	31
1069.1	29.5
1070.22	29
1071.34	26
1072.46	30
1073.58	33
1074.7	29.5
1075.82	24
1076.94	25
1078.06	29
1079.18	29.5
1080.3	28.5
1081.42	30
1082.54	27
1083.66	25
1084.78	26
1085.9	25
1087.02	27
1088.13	27.5
1089.25	32
1090.37	32
1091.49	28
1092.61	31
1093.72	32.5
1094.84	30
1095.96	29.5
1097.08	30
1098.19	29
1099.31	24
1100.42	30.5
1101.54	23
1102.66	26
1103.77	32
1104.89	26
1106	29
1107.12	30.5
1108.23	29.5
1109.35	26.5
1110.46	27.5
1111.58	24.5
1112.69	27.5
1113.81	28.5
1114.92	34
1116.04	28
1117.15	29.5
1118.26	24
1119.38	31
1120.49	28.5
1121.6	30
1122.72	30.5
1123.83	27.5
1124.94	27
1126.05	27
1127.17	27.5
1128.28	24.5
1129.39	30.5
1130.5	30
1131.61	27.5
1132.72	27.5
1133.83	31
1134.94	29
1136.06	31
1137.17	29
1138.27	27
1139.39	30
1140.5	26
1141.61	25
1142.72	28.5
1143.82	30.5
1144.93	32
1146.04	27.5
1147.15	30
1148.26	24.5
1149.37	28
1150.48	27
1151.58	27.5
1152.69	25.5
1153.8	29.5
1154.91	27
1156.02	30
1157.12	27
1158.23	26
1159.34	30
1160.44	27.5
1161.55	25
1162.66	29
1163.76	30
1164.87	27.5
1165.97	27.5
1167.08	28.5
1168.18	26.5
1169.29	26.5
1170.39	24
1171.5	28.5
1172.6	26.5
1173.71	26.5
1174.81	26.5
1175.92	28.5
1177.02	29
1178.13	26
1179.23	31
1180.33	27.5
1181.44	26
1182.54	27.5
1183.64	30.5
1184.74	27.5
1185.85	31
1186.95	27.5
1188.05	31
1189.15	27.5
1190.26	27
1191.36	27.5
1192.46	29
1193.56	21
1194.66	25.9987
1195.76	23.9829
1196.86	27.4903
1197.96	28.9747
1199.06	24.5
1200.16	22.6109
1201.26	23.6593
1202.36	27.9
1203.46	29.9447
1204.56	28.6311
1205.66	29.4961
1206.76	29.6637
1207.86	29.573
1208.96	26.3736
1210.06	26.7125
1211.16	27.7225
1212.25	23.6602
1213.35	25.9988
1214.45	26.8204
1215.55	27.496
1216.65	27.9104
1217.74	27.4902
1218.84	29.8447
1219.94	25.6806
1221.03	26.552
1222.13	26.2681
1223.23	28.2003
1224.32	26.5014
1225.42	26.6779
1226.52	25.5281
1227.61	26.4342
1228.71	27.1375
1229.8	27.8836
1230.9	27.4808
1231.99	24.9494
1233.09	29.1037
1234.18	27.1654
1235.28	27.6083
1236.37	24.8218
1237.47	26.3417
1238.56	27.0633
1239.65	28.6609
1240.75	28.371
1241.84	27.6586
1242.93	27.571
1244.03	25.7547
1245.12	29.598
1246.21	25.8311
1247.31	24.0959
1248.4	23.6542
1249.49	29.1996
1250.58	25.8816
1251.67	27.5243
1252.77	28.6339
1253.86	26.1587
1254.95	27.1242
1256.04	26.6639
1257.13	27.0613
1258.22	27.1151
1259.31	28.6027
1260.4	27.3605
1261.49	28.5126
1262.58	29.5615
1263.67	28.9712
1264.76	28.4775
1265.85	25.8204
1266.94	26.9539
1268.03	27.0697
1269.12	27.4974
1270.21	28.8267
1271.3	29
1272.39	28.2866
1273.47	25.118
1274.56	28.5744
1275.65	27.0181
1276.74	23.9287
1277.83	23.0995
1278.91	25.0071
1280	25.1102
1281.09	24.8799
1282.17	26.3603
1283.26	26.6039
1284.35	27.1411
1285.43	26.2427
1286.52	27.5489
1287.61	27.3204
1288.69	26.0624
1289.78	24.899
1290.86	26.5121
1291.95	28.9063
1293.03	28.1399
1294.12	25.6035
1295.2	26.3859
1296.29	29.6471
1297.37	25.0777
1298.46	22.8273
1299.54	26.0408
1300.63	26.327
1301.71	25.5874
1302.79	27.1898
1303.88	28.1757
1304.96	25.9681
1306.04	25.651
1306.5	26.5
1307.59	27.5
1308.68	23
1309.76	26
1310.85	28.5
1311.94	25.5
1313.03	29
1314.11	26.5
1315.2	26
1316.29	28
1317.37	27
1318.46	27
1319.55	26.5
1320.63	25
1321.72	28.5
1322.81	27
1323.89	27
1324.98	27
1326.06	27
1327.15	28
1328.23	24
1329.32	24
1330.4	31
1331.49	25
1332.57	23.5
1333.66	31
1334.74	23
1335.82	27
1336.91	31
1337.99	23
1339.07	29
1340.16	28
1341.24	25
1342.32	30
1343.4	20.5
1344.49	25.5
1345.57	27.5
1346.65	30.5
1347.73	26.5
1348.82	27.5
1349.9	28.5
1350.98	30.5
1352.06	26.5
1353.14	25
1354.22	25
1355.3	22.5
1356.38	28
1357.46	25
1358.54	29
1359.62	26
1360.7	25
1361.78	26
1362.86	26
1363.94	26
1365.02	27
1366.1	26.5
1367.18	27
1368.26	27.5
1369.34	27
1370.41	30
1371.49	26
1372.57	28.5
1373.65	26.5
1374.72	27.5
1375.8	25
1376.88	26.5
1377.96	29
1379.03	28
1380.11	28.5
1381.19	29
1382.26	25.5
1383.34	28
1384.42	25
1385.49	24
1386.57	26
1387.64	26
1388.72	26.5
1389.79	28
1390.87	24
1391.94	29.5
1393.02	28
1394.09	30.5
1395.17	30
1396.24	26.5
1397.31	26
1398.39	28.5
1399.46	32
1400.54	29
1401.61	28
1402.68	29
1403.76	30
1404.83	34
1405.9	34
1406.97	32
1408.05	30
1409.12	33
1410.19	33.5
1411.26	31
1412.33	32.5
1413.4	31.5
1414.48	36
1415.55	29
1416.62	26
1417.69	31
1418.76	29
1419.83	27.5
1420.9	30.5
1421.97	28.5
1423.04	30.5
1424.11	28
1425.18	32.5
1426.25	29
1427.32	27
1428.39	28
1429.46	31
1430.52	21
1431.59	27
1432.66	29
1433.73	31.5
1434.8	24
1435.87	28
1436.93	32
1438	29
1439.07	27
1440.14	28.5
1441.2	27
1442.27	26.5
1443.34	27
1444.4	27.5
1445.47	27.5
1446.54	24
1447.6	27
1448.67	29.5
1449.73	24.5
1450.8	28.5
1451.86	28.5
1452.93	29.5
1453.99	28
1455.06	29.5
1456.12	31
1457.19	28.5
1458.25	24.5
1459.32	28.5
1460.38	29
1461.45	24
1462.51	26
1463.57	26
1464.64	32
1465.7	26
1466.76	26
1467.82	25.5
1468.89	25
1469.95	27.5
1471.01	30
1472.07	31
1473.14	25.5
1474.2	27
1475.26	27
1476.32	24.5
1477.38	27
1478.44	29
1479.5	28
1480.57	27
1481.63	23
1482.69	26
1483.75	22.5
1484.81	30.5
1485.87	29.5
1486.93	27
1487.99	29
1489.05	27
1490.1	26.5
1491.17	27
1492.22	22.5
1493.28	27
1494.34	25
1495.4	33.5
1496.46	28
1497.52	27
1498.57	27.5
1499.63	26.5
1500.69	27
1501.75	28.5
1502.8	28
1503.86	28.5
1504.92	21
1505.98	25.5
1507.03	27.5
1508.09	25
1509.15	27.5
1510.2	27
1511.26	30
1512.31	28
1513.37	27
1514.42	27
1515.48	27.5
1516.53	26.5
1517.59	27
1518.64	25.5
1519.7	29
1520.75	27
1521.81	26.5
1522.86	27
1523.92	31.5
1524.97	28
1526.02	24.5
1527.08	28
1528.13	28
1529.18	24
1530.24	25
1531.29	25.5
1532.34	27
1533.39	28.5
1534.45	26
1535.5	32.5
1536.55	29.5
1537.6	24
1538.65	29
1539.71	28
1540.76	31
1541.81	31.5
1542.86	25
1543.91	25
1544.96	29.5
1546.01	26
1547.06	28
1548.11	30.5
1549.16	28.5
1550.21	26
1551.26	24
1552.31	25
1553.36	27.5
1554.41	27.5
1555.46	22.5
1556.51	25.5
1557.56	27.5
1558.6	26.5
1559.65	25
1560.7	28
1561.75	28.5
1562.8	27.5
1563.84	27
1564.89	30
1565.94	27
1566.99	23
1568.03	29
1569.08	26
1570.13	25
1571.17	28
1572.22	29
1573.27	28
1574.31	29.5
1575.36	23
1576.4	20.5
1577.45	26
1578.5	29.5
1579.54	28
1580.59	27
1581.63	29.5
1582.68	23
1583.72	25
1584.76	28
1585.81	25.5
1586.85	27
1587.9	30
1588.94	27.5
1589.98	26.5
1591.03	26
1592.07	27.5
1593.11	25.5
1594.16	28
1595.2	27
1596.24	27.5
1597.29	28
1598.33	26
1599.37	27
1600.41	26.5
1601.45	28.5
1602.49	28
1603.54	28
1604.58	26
1605.62	30.5
1606.66	28
1607.7	25
1608.74	27
1609.78	28
1610.82	30
1611.86	28
1612.9	27.5
1613.94	25.5
1614.98	26
1616.02	31
1617.06	28.5
1618.1	31
1619.14	27
1620.18	29.5
1621.22	27.5
1622.25	26
1623.29	27
1624.33	28.5
1625.37	30
1626.41	25
1627.45	27
1628.48	26.5
1629.52	25.5
1630.56	27
1631.59	20
1632.63	28
1633.67	29
1634.7	28
1635.74	26.5
1636.78	28
1637.81	27
1638.85	28.5
1639.88	26.5
1640.92	28.5
1641.96	28
1642.99	26.5
1644.03	27.5
1645.06	27
1646.1	24
1647.13	31
1648.17	25
1649.2	25.5
1650.23	25
1651.27	27
1652.3	29.5
1653.33	27.5
1654.37	22.5
1655.4	26.5
1656.44	22
1657.47	27
1658.5	26
1659.53	30
1660.57	27
1661.6	25.5
1662.63	27
1663.66	30.5
1664.69	28
1665.73	24
1666.76	26
1667.79	27
1668.82	29.5
1669.85	29.5
1670.88	27.5
1671.91	28
1672.94	26
1673.97	28
1675.01	29.5
1676.03	30
1677.07	27
1678.1	28.5
1679.12	28.5
1680.15	28
1681.18	27.5
1682.21	26.5
1683.24	27
1684.27	25.5
1685.3	30
1686.33	30
1687.36	30
1688.38	29
1689.41	24.5
1690.44	26
1691.47	27.5
1692.5	27.5
1693.52	26
1694.55	26
1695.58	30
1696.6	27
1697.63	27.5
1698.66	27.5
1699.68	24.5
1700.71	26.5
1701.74	22
1702.76	30
1703.79	26
1704.81	27.5
1705.84	27.5
1706.86	32.5
1707.89	24
1708.91	26
1709.94	25.5
1710.96	28
1711.99	27.5
1713.01	24.5
1714.04	26
1715.06	27
1716.08	29.5
1717.11	25.5
1718.13	27.5
1719.16	27.5
1720.18	28.5
1721.2	25
1722.22	26.5
1723.25	24.5
1724.27	29
1725.29	30
1726.31	29
1727.34	27.5
1728.36	27.5
1729.38	23.5
1730.4	28
1731.42	27
1732.44	26
1733.47	28.5
1734.49	27.5
1735.51	28
1736.53	31
1737.55	26
1738.57	26
1739.59	24
1740.61	27
1741.63	25
1742.65	27
1743.67	26.5
1744.69	28.5
1745.71	26
1746.73	26.5
1747.75	26
1748.76	29
1749.78	26
1750.8	27
1751.82	28.5
1752.84	27.5
1753.86	22
1754.87	27
1755.89	28
1756.91	26.5
1757.93	31
1758.94	26
1759.96	30.5
1760.98	26
1761.99	31
1763.01	24.5
1764.03	27
1765.04	28
1766.06	27
1767.08	28
1768.09	25
1769.11	26
1770.12	25
1771.14	25.5
1772.15	23.5
1773.17	26
1774.18	27
1775.2	25
1776.21	28.5
1777.23	27
1778.24	28
1779.25	25.5
1780.27	27.5
1781.28	27
1782.3	29
1783.31	27.5
1784.32	25
1785.34	23
1786.35	28.5
1787.36	26
1788.37	28
1789.39	23.5
1790.4	28.5
1791.41	26
1792.42	25
1793.43	30
1794.45	25
1795.46	28
1796.47	25
1797.48	27.5
1798.49	29.5
1799.5	24.5
1800.51	25
1801.52	25
1802.53	21
1803.54	25.5
1804.55	27
1805.56	26.5
1806.57	29
1807.58	28.5
1808.59	27
1809.6	27
1810.61	28
1811.62	29.5
1812.63	28
1813.64	25.5
1814.65	30
1815.66	28
1816.66	29
1817.67	26
1818.68	25.5
1819.69	29
1820.69	29
1821.7	25.5
1822.71	25
1823.72	26
1824.72	30.5
1825.73	25
1826.74	25.5
1827.74	24.5
1828.75	29
1829.76	25.5
1830.76	24
1831.77	25.5
1832.77	21.5
1833.78	23
1834.79	29
1835.79	29
1836.8	24
1837.8	24
1838.81	28
1839.81	23
1840.81	25
1841.82	23
1842.82	21.5
1843.83	26
1844.83	25
1845.83	27
1846.84	26
1847.84	26
1848.84	25
1849.85	26.5
1850.85	25.5
1851.85	24
1852.86	26.5
1853.86	26.5
1854.86	27.5
1855.86	21.5
1856.86	23
1857.87	24.5
1858.87	24
1859.87	25.5
1860.87	28.5
1861.87	26
1862.87	26
1863.88	23.5
1864.88	27.5
1865.88	23
1866.88	29.5
1867.88	29
1868.88	27.5
1869.88	21.5
1870.88	28
1871.88	26
1872.88	27
1873.88	25
1874.87	29
1875.87	25.5
1876.87	25.5
1877.87	22.5
1878.87	30
1879.87	24
1880.87	29
1881.86	24.5
1882.86	24
1883.86	27.5
1884.86	26.5
1885.86	26.5
1886.85	26
1887.85	27.5
1888.85	29
1889.84	23.5
1890.84	27.5
1891.84	23.5
1892.83	26.5
1893.83	25
1894.83	26.5
1895.82	27.5
1896.82	24
1897.81	28
1898.81	24
1899.81	26
1900.8	23
1901.8	27
1902.79	30
1903.78	27.5
1904.78	25
1905.77	20
1906.77	24.5
1907.76	28.5
1908.76	25
1909.75	27.5
1910.74	26.5
1911.74	24
1912.73	25.5
1913.72	27
1914.72	26
1915.71	26.5
1916.7	25.5
1917.7	24.5
1918.69	27
1919.68	27
1920.67	26.5
1921.66	27
1922.66	29
1923.65	23.5
1924.64	26
1925.63	22
1926.62	31.5
1927.61	22.5
1928.6	27
1929.59	25
1930.59	25.5
1931.58	24
1932.57	27.5
1933.56	25.5
1934.55	26
1935.54	24
1936.53	25
1937.52	26.5
1938.51	23
1939.49	22
1940.48	25.5
1941.47	24.5
1942.46	24.5
1943.45	26.5
1944.44	25.5
1945.43	22
1946.42	23.5
1947.4	28
1948.39	29.5
1949.38	30
1950.37	25.5
1951.35	29
1952.34	29
1953.33	26.5
1954.31	27.5
1955.3	26.5
1956.29	26.5
1957.27	25
1958.26	28
1959.25	28
1960.23	22
1961.22	23
1962.21	23.5
1963.19	22.5
1964.18	24
1965.16	26.5
1966.15	23
1967.13	24.5
1968.12	27.5
1969.1	28
1970.09	25
1971.07	24
1972.05	25
1973.04	27
1974.02	24.5
1975.01	27.5
1975.99	27
1976.97	27.5
1977.96	24.5
1978.94	26
1979.92	23
1980.91	27
1981.89	24
1982.87	24
1983.85	23.5
1984.84	23
1985.82	29
1986.8	22.5
1987.78	23
1988.76	24.5
1989.74	28
1990.73	26.5
1991.71	21.5
1992.69	26
1993.67	28.5
1994.65	29
1995.63	24.5
1996.61	25
1997.59	30
1998.57	22
1999.55	26.5
2000.53	23
2001.51	26.5
2002.49	22
2003.47	28
2004.45	25
2005.43	26
2006.41	31
2007.39	20.5
2008.37	27.5
2009.34	24.5
2010.32	25
2011.3	26
2012.28	24.5
2013.26	25
2014.23	23.5
2015.21	25.5
2016.19	28
2017.17	22
2018.14	24.5
2019.12	26.5
2020.1	24.5
2021.07	25
2022.05	28
2023.03	28
2024	25.5
2024.98	25.5
2025.96	25
2026.93	26.5
2027.91	27.5
2028.88	31
2029.86	24.5
2030.83	26.5
2031.81	26
2032.78	21
2033.76	24.5
2034.73	26
2035.71	28
2036.68	28.5
2037.66	25.5
2038.63	29
2039.6	26
2040.58	22
2041.55	23.5
2042.52	26.5
2043.5	22
2044.47	23.5
2045.44	29
2046.42	27.5
2047.39	25
2048.36	26
2049.33	25.5
2050.31	25.5
2051.28	27
2052.25	25.5
2053.22	25.5
2054.19	26
2055.17	23
2056.14	23
2057.11	25.5
2058.08	25
2059.05	21.5
2060.02	24.5
2060.99	21
2061.96	26.5
2062.93	21
2063.9	24.5
2064.87	26
2065.84	23
2066.81	27
2067.78	26.5
2068.75	23.5
2069.72	22.5
2070.69	21
2071.66	22.5
2072.63	27.5
2073.6	25.5
2074.56	25
2075.53	23.5
2076.5	24
2077.47	27.5
2078.44	24.5
2079.4	25.5
2080.37	24
2081.34	25.5
2082.31	22.5
2083.27	25
2084.24	27
2085.21	26.5
2086.18	23.5
2087.14	25
2088.11	28.5
2089.07	24
2090.04	25.5
2091.01	23.5
2091.97	23.5
2092.94	25
2093.9	25.5
2094.87	26
2095.83	23
2096.8	27
2097.76	23.5
2098.73	23
2099.69	23.5
2100.66	24
2101.62	27
2102.59	25
2103.55	31
2104.52	27
2105.48	27
2106.44	26
2107.41	24.5
2108.37	28.5
2109.33	24.5
2110.3	22.5
2111.26	27
2112.22	22.5
2113.18	21.5
2114.15	25
2115.11	24.5
2116.07	23.5
2117.03	27
2118	24.5
2118.96	29
2119.92	23.5
2120.88	29
2121.84	26.5
2122.8	25
2123.76	26
2124.72	25.5
2125.68	25.5
2126.65	25.5
2127.61	27
2128.57	27
2129.53	29
2130.49	27
2131.45	27
2132.41	23
2133.36	24.5
2134.32	25.5
2135.28	26
2136.24	25
2137.2	22.5
2138.16	23
2139.12	26
2140.08	26.5
2141.04	24
2141.99	26.5
2142.95	20.9966
2143.91	22.4966
2144.87	25.9774
2145.83	25.9587
2146.78	22.57
2147.74	23.3169
2148.7	24.3867
2149.66	23.0222
2150.61	26.6015
2151.57	25.6616
2152.53	24.3467
2153.48	24.8177
2154.44	23.134
2155.4	23.8386
2156.35	25.8416
2157.31	23.9016
2158.26	23.4199
2159.22	22.2456
2160.17	20.8869
2161.13	25.0809
2162.08	22.314
2163.04	22.9245
2163.99	27.6299
2164.95	24.6407
2165.9	22.6487
2166.86	24.4731
2167.81	23.5018
2168.77	23.3758
2169.72	20.5373
2170.67	21.1041
2171.63	26.8029
2172.58	23.5878
2173.54	26.1245
2174.49	20.9661
2175.44	26.2666
2176.39	23.8744
2177.35	22.9644
2178.3	24.4453
2179.25	22.5541
2180.2	23.763
2181.16	20.788
2182.11	23.6521
2183.06	23.097
2184.01	25.2705
2184.96	23.3419
2185.92	23.6079
2186.87	19.9
2187.82	24.9673
2188.77	23.0455
2189.72	23.3894
2190.67	26.0832
2191.62	25.4678
2192.57	21.8365
2193.52	26.2448
2194.47	23.4683
2195.42	24.9309
2196.37	21.8638
2197.32	25.4898
2198.27	25.1634
2199.22	24.852
2200.17	22.9069
2201.12	21.4905
2202.07	21.4272
2203.02	23.7473
2203.97	22.1444
2204.92	24.4097
2205.87	25.3442
2206.81	25.27
2207.76	27.0837
2208.71	20.0714
2209.66	22.785
2210.61	20.1718
2211.55	24.4011
2212.5	21.9194
2213.45	19.8763
2214.4	26.5237
2215.34	21.2106
2216.29	23.0966
2217.24	26.4486
2218.18	24.1069
2219.13	23.9903
2220.08	21.8008
2221.02	25.4598
2221.97	23.5712
2222.92	24.8936
2223.86	26.8327
2224.81	25.6969
2225.75	25.1238
2226.7	22.4107
2227.64	20.1681
2228.59	23.7834
2229.53	22.203
2230.48	22.3058
2231.42	26.7163
2232.37	24.4805
2233.31	24.4528
2234.26	24.1767
2235.2	24.8391
2236.14	24.6003
2237.09	26.5499
2238.03	22.5929
2238.97	20.2493
2239.92	21.7463
2240.05	22
2241	24
2241.95	26
2242.89	18.5
2243.84	19
2244.79	21.5
2245.74	25.5
2246.68	24
2247.63	23
2248.58	25.5
2249.53	22
2250.47	22
2251.42	27
2252.36	24.5
2253.31	25
2254.26	21.5
2255.2	24.5
2256.15	22.5
2257.1	30.5
2258.04	21.5
2258.99	21
2259.93	26
2260.88	23
2261.82	26.5
2262.77	25
2263.71	26
2264.66	21
2265.6	25.5
2266.55	25.5
2267.49	22
2268.43	27.5
2269.38	25
2270.32	21.5
2271.26	26.5
2272.21	23.5
2273.15	25
2274.09	22.5
2275.04	26.5
2275.98	28.5
2276.92	23.5
2277.87	21.5
2278.81	25.5
2279.75	21.5
2280.69	25
2281.64	23.5
2282.58	26
2283.52	25.5
2284.46	23
2285.4	22
2286.34	23.5
2287.29	22
2288.23	25
2289.17	22
2290.11	25.5
2291.05	24
2291.99	24.5
2292.93	22
2293.87	29
2294.81	22
2295.75	24.5
2296.69	22.5
2297.63	22
2298.57	22
2299.51	24.5
2300.45	24.5
2301.39	23
2302.33	21.5
2303.27	25.5
2304.2	22
2305.14	26
2306.08	30
2307.02	19
2307.96	23.5
2308.9	24.5
2309.83	21.5
2310.77	23.5
2311.71	25
2312.65	23
2313.58	24
2314.52	24.5
2315.46	26
2316.39	24.5
2317.33	21.5
2318.27	23
2319.21	25
2320.14	23
2321.08	25
2322.01	24
2322.95	25
2323.89	27
2324.82	23
2325.76	24
2326.69	24.5
2327.63	22
2328.56	23
2329.5	24
2330.43	26
2331.37	26
2332.3	22
2333.24	25
2334.17	24
2335.1	25
2336.04	23.5
2336.97	26.5
2337.91	24
2338.84	27
2339.77	25
2340.71	24
2341.64	27.5
2342.57	24
2343.51	27.5
2344.44	25.5
2345.37	26.5
2346.3	24.5
2347.24	25.5
2348.17	27.5
2349.1	21.5
2350.03	23
2350.96	25
2351.89	22
2352.83	25
2353.76	23.5
2354.69	25
2355.62	24
2356.55	27.5
2357.48	24.5
2358.41	24.5
2359.34	27.5
2360.27	23.5
2361.2	23.5
2362.13	26
2363.06	23.5
2363.99	26.5
2364.92	24
2365.85	25.5
2366.78	22.5
2367.71	21.5
2368.64	25
2369.57	22.5
2370.5	20
2371.43	24.5
2372.36	26
2373.28	23.5
2374.21	25
2375.14	27
2376.07	22.5
2377	26
2377.93	24
2378.85	25.5
2379.78	21
2380.71	22.5
2381.63	26
2382.56	26
2383.49	23
2384.42	26.5
2385.34	25
2386.27	25
2387.2	25
2388.12	27
2389.05	26.5
2389.97	22
2390.9	22
2391.82	27
2392.75	25
2393.68	25
2394.6	26
2395.53	25.5
2396.45	25
2397.38	23
2398.3	29
2399.23	25
2400.15	22
2401.07	21
2402	23
2402.92	22
2403.85	24
2404.77	25
2405.69	24
2406.62	30
2407.54	25.5
2408.46	25.5
2409.39	22.5
2410.31	24
2411.23	23.5
2412.16	23
2413.08	27
2414	28.5
2414.92	21.5
2415.85	28
2416.77	25.5
2417.69	19
2418.61	28
2419.53	27.5
2420.45	26
2421.38	26
2422.3	25.5
2423.22	27
2424.14	25
2425.06	28
2425.98	25.5
2426.9	22.5
2427.82	27
2428.74	20
2429.66	24
2430.58	22
2431.5	23
2432.42	28
2433.34	22.5
2434.26	24.5
2435.18	26.5
2436.1	27
2437.02	29.5
2437.94	29
2438.85	23
2439.77	24
2440.69	26
2441.61	27
2442.53	27.5
2443.45	27
2444.36	26
2445.28	26.5
2446.2	21.5
2447.12	28
2448.03	26.5
2448.95	24
2449.87	25
2450.79	21
2451.7	26
2452.62	29.5
2453.54	22
2454.45	22.5
2455.37	25
2456.28	22
2457.2	24.5
2458.12	25.5
2459.03	28
2459.95	22
2460.86	25
2461.78	27
2462.69	21.5
2463.61	23
2464.52	26
2465.44	24.5
2466.35	21
2467.27	27.5
2468.18	25
2469.1	26
2470.01	24.5
2470.93	20
2471.84	21.5
2472.75	22.5
2473.67	24.5
2474.58	26
2475.49	24
2476.41	20
2477.32	26.5
2478.23	27
2479.15	28.5
2480.06	27
2480.97	25
2481.88	27
2482.79	23.5
2483.71	21
2484.62	27
2485.53	23
2486.44	25.5
2487.35	26.5
2488.26	22.5
2489.18	25
2490.09	27
2491	27.5
2491.91	22
2492.82	27
2493.73	21
2494.64	27
2495.55	30.5
2496.46	26
2497.37	26.5
2498.28	28
2499.19	22
2500.1	24
2501.01	26.5
2501.92	24
2502.83	27
2503.74	24.5
2504.65	25.5
2505.56	26.5
2506.47	25
2507.37	27.5
2508.28	26.5
2509.19	23.5
2510.1	24
2511.01	25.5
2511.92	25
2512.82	22.5
2513.73	25
2514.64	25
2515.55	23
2516.45	28.5
2517.36	26
2518.27	23
2519.17	27.5
2520.08	28.5
2520.99	27.5
2521.89	26
2522.8	26.5
2523.71	24.5
2524.61	27.5
2525.52	30.5
2526.42	22
2527.33	25.5
2528.24	28
2529.14	23.5
2530.05	24.5
2530.95	25
2531.86	27
2532.76	29
2533.67	24.5
2534.57	23
2535.48	25
2536.38	21
2537.28	27.5
2538.19	30
2539.09	21.5
2540	26
2540.9	28
2541.8	23
2542.71	26.5
2543.61	23
2544.51	28
2545.42	22.5
2546.32	23.5
2547.22	27
2548.12	22
2549.03	19.5
2549.93	27
2550.83	25
2551.73	23.5
2552.63	25.5
2553.54	23
2554.44	25
2555.34	24.5
2556.24	25.5
2557.14	24
2558.04	26
2558.94	22
2559.85	24
2560.75	28
2561.65	24
2562.55	25
2563.45	25.5
2564.35	26
2565.25	27
2566.15	26
2567.05	24
2567.95	23
2568.85	24.5
2569.75	29.5
2570.65	29
2571.55	26.5
2572.44	26.5
2573.34	25
2574.24	23
2575.14	26
2576.04	24
2576.94	24.5
2577.84	24
2578.73	26.5
2579.63	22
2580.53	28
2581.43	26
2582.33	22
2583.22	23.5
2584.12	25.5
2585.02	25
2585.91	28.5
2586.81	25.5
2587.71	28.5
2588.6	25.5
2589.5	25
2590.4	23.5
2591.29	24
2592.19	23
2593.09	24.5
2593.98	26
2594.88	22
2595.77	23.5
2596.67	24.5
2597.56	24.5
2598.46	26.5
2599.35	23.5
2600.25	23
2601.14	23
2602.04	30
2602.93	26
2603.83	26
2604.72	22
2605.62	28.5
2606.51	25
2607.4	27
2608.3	27.5
2609.19	22
2610.09	23.5
2610.98	26
2611.87	26.5
2612.76	26.5
2613.66	25.5
2614.55	26
2615.44	26
2616.34	26
2617.23	24.5
2618.12	23
2619.01	25.5
2619.9	24
2620.8	26.5
2621.69	25.5
2622.58	23
2623.47	21.5
2624.36	21.5
2625.25	25
2626.15	29
2627.04	24.5
2627.93	26
2628.82	23.5
2629.71	25
2630.6	23.5
2631.49	24.5
2632.38	26
2633.27	23.5
2634.16	25
2635.05	21
2635.94	25
2636.83	27.5
2637.72	24
2638.61	22
2639.5	27.5
2640.39	29.5
2641.28	25.5
2642.16	29
2643.05	23
2643.94	25.5
2644.83	28
2645.72	21
2646.61	21.5
2647.49	24
2648.38	25
2649.27	25
2650.16	23
2651.05	22.5
2651.93	23
2652.82	23
2653.71	26.5
2654.59	25
2655.48	28.5
2656.37	26.5
2657.25	23
2658.14	28
2659.03	26
2659.91	27
2660.8	26
2661.69	26.5
2662.57	28
2663.46	28.5
2664.34	27
2665.23	22.5
2666.11	26.5
2667	24.5
2667.88	26.5
2668.77	25
2669.65	24
2670.54	29
2671.42	23.5
2672.31	24
2673.19	29.5
2674.08	24
2674.96	27.5
2675.84	30
2676.73	22
2677.61	26.5
2678.49	26
2679.38	25
2680.26	24.5
2681.14	28
2682.03	23
2682.91	27
2683.79	27.5
2684.68	24
2685.56	26.5
2686.44	25.5
2687.32	25
2688.2	23
2689.09	23.5
2689.97	27
2690.85	25.5
2691.73	23.5
2692.61	26
2693.49	23
2694.38	25.5
2695.26	27
2696.14	22
2697.02	24.5
2697.9	25
2698.78	24
2699.66	23.5
2700.54	26.5
2701.42	27
2702.3	26.5
2703.18	28
2704.06	21
2704.94	25
2705.82	27
2706.7	25
2707.58	24
2708.46	26.5
2709.34	26
2710.21	27
2711.09	25
2711.97	24.5
2712.85	25
2713.73	24.5
2714.61	24.5
2715.49	25
2716.36	21
2717.24	26
2718.12	27.5
2719	26
2719.87	27.5
2720.75	25
2721.63	25.5
2722.51	28
2723.38	23
2724.26	21.5
2725.14	20
2726.01	25
2726.89	26.5
2727.77	27.5
2728.64	28.5
2729.52	25.5
2730.39	25.5
2731.27	23.5
2732.15	27
2733.02	23
2733.9	27
2734.77	22
2735.65	19.5
2736.52	20.5
2737.4	25
2738.27	26
2739.15	27.5
2740.02	22
2740.89	23.5
2741.77	22.5
2742.64	25
2743.52	25
2744.39	20
2745.27	28.5
2746.14	26
2747.01	26.5
2747.89	26
2748.76	23
2749.63	23.5
2750.51	26.5
2751.38	25.5
2752.25	23
2753.12	26
2754	30
2754.87	22
2755.74	28.5
2756.61	26
2757.48	25
2758.36	26
2759.23	20
2760.1	23
2760.97	26.5
2761.84	21.5
2762.71	25
2763.59	25
2764.46	23
2765.33	24.5
2766.2	25
2767.07	22
2767.94	23
2768.81	22.5
2769.68	26.5
2770.55	23
2771.42	25
2772.29	26.5
2773.16	26.5
2774.03	21.5
2774.9	23
2775.77	28
2776.64	21
2777.51	26
2778.37	24.5
2779.24	24.5
2780.11	27
2780.98	28.5
2781.85	28
2782.72	26.5
2783.59	29
2784.45	27.5
2785.32	29
2786.19	23
2787.06	24.5
2787.92	27.5
2788.79	23.5
2789.66	24
2790.53	25
2791.39	23
2792.26	27
2793.13	26.5
2793.99	22
2794.86	27.5
2795.73	28
2796.59	27
2797.46	29
2798.33	23
2799.19	23
2800.06	25
2800.92	28
2801.79	26
2802.65	22
2803.52	29
2804.39	24.5
2805.25	26.5
2806.11	25.5
2806.98	25.5
2807.84	25.5
2808.71	28
2809.57	28.5
2810.44	25.5
2811.3	24.5
2812.17	27.5
2813.03	21
2813.89	25.5
2814.76	28.5
2815.62	25.5
2816.49	28
2817.35	25.5
2818.21	25.5
2819.07	28
2819.94	28
2820.8	29
2821.66	28.5
2822.53	26.5
2823.39	28.5
2824.25	24
2825.11	30
2825.97	23.5
2826.84	27.5
2827.7	25
2828.56	25
2829.42	31.5
2830.28	24
2831.14	27.5
2832.01	24.5
2832.87	24.5
2833.73	29
2834.59	29
2835.45	25
2836.31	23
2837.17	27
2838.03	23.5
2838.89	26.5
2839.75	24
2840.61	24
2841.47	24.5
2842.33	24.5
2843.19	29
2844.05	26.5
2844.91	25
2845.77	28.5
2846.63	27
2847.48	27
2848.34	25.5
2849.2	28.5
2850.06	24
2850.92	23
2851.78	25
2852.64	25.5
2853.49	24
2854.35	25
2855.21	23.5
2856.07	27
2856.93	24.5
2857.78	27.5
2858.64	28.5
2859.5	23
2860.35	24.5
2861.21	29
2862.07	28
2862.93	27.5
2863.78	29.5
2864.64	26
2865.49	24
2866.35	24
2867.21	27
2868.06	26
2868.92	31
2869.77	29
2870.63	26.5
2871.49	25
2872.34	26.5
2873.2	26.5
2874.05	30
2874.91	30.5
2875.76	28.5
2876.62	27.5
2877.47	30
2878.32	35.5
2879.18	28.5
2880.03	29
2880.89	30.5
2881.74	27.5
2882.6	28
2883.45	31
2884.3	32
2885.16	31
2886.01	35
2886.86	30
2887.72	35
2888.57	34
2889.42	32.5
2890.27	38
2891.13	39
2891.98	37
2892.83	36.5
2893.68	39
2894.54	44
2895.39	44
2896.24	45
2897.09	43
2897.94	47.5
2898.8	49
2899.65	52.5
2900.5	55.5
2901.35	55
2902.2	60
2903.05	58.5
2903.9	63.5
2904.75	57
2905.6	63.5
2906.45	65.5
2907.3	62
2908.15	65
2909.01	59
2909.85	58.5
2910.7	54
2911.55	52
2912.4	50.5
2913.25	43
2914.1	42
2914.95	43
2915.8	46
2916.65	37
2917.5	40.5
2918.35	40.5
2919.2	35
2920.04	33
2920.89	34.5
2921.74	36
2922.59	33
2923.44	32
2924.29	31.5
2925.13	31.5
2925.98	34
2926.83	27
2927.68	27
2928.52	27.5
2929.37	27.5
2930.22	27.5
2931.06	28.5
2931.91	29.5
2932.76	28.5
2933.6	29.5
2934.45	30
2935.3	28.5
2936.14	28
2936.99	25.5
2937.83	29.5
2938.68	32.5
2939.53	26
2940.37	26
2941.22	29.5
2942.06	29
2942.91	30
2943.75	25.5
2944.6	27.5
2945.44	26
2946.29	27
2947.13	26.5
2947.98	30
2948.82	29
2949.66	26.5
2950.51	28
2951.35	32
2952.2	29
2953.04	27
2953.88	30
2954.73	34
2955.57	31
2956.41	27.5
2957.26	33
2958.1	36
2958.94	38.5
2959.79	33
2960.63	39.5
2961.47	38
2962.31	40
2963.15	41.5
2964	38.5
2964.84	41.5
2965.68	35.5
2966.52	38
2967.37	36
2968.21	41.5
2969.05	33
2969.89	39.5
2970.73	38.5
2971.57	35.4854
2972.41	34.0111
2973.25	30.0559
2974.09	35.8185
2974.93	35.8567
2975.77	32.5267
2976.62	29.8566
2977.46	31.7314
2978.3	26.7009
2979.14	31.6437
2979.98	31.0119
2980.81	31.0368
2981.65	27.4486
2982.49	30.4826
2983.33	26.4854
2984.17	29.685
2985.01	30.8553
2985.85	24.1252
2986.69	26.8974
2987.53	27.4336
2988.37	25.7579
2989.21	27.165
2990.04	24.8683
2990.88	21.7085
2991.72	29.1237
2992.56	25.1236
2993.4	25.5673
2994.23	22.4757
2995.07	24.0067
2995.91	27.4314
2996.75	28.1484
2997.58	23.9175
2998.42	24.2799
2999.26	24.0212
3000.1	25.0189
3000.93	24.4551
3001.77	23.792
3002.61	22.399
3003.44	22.8094
3004.28	25.2344
3005.11	24.525
3005.95	22.39
3006.79	22.7419
3007.62	22.9994
3008.46	25.5661
3009.29	23.0867
3010.13	24.3228
3010.97	24.1203
3011.8	23.2349
3012.64	22.3926
3013.47	20.8292
3014.31	25.5693
3015.14	21.6029
3015.98	22.0864
3016.81	23.6852
3017.64	23.2455
3018.48	21.9776
3019.31	25.3377
3020.15	23.7588
3020.98	22.7899
3021.82	23.3108
3022.65	23.3497
3023.48	21.7641
3024.32	21.9157
3025.15	23.774
3025.98	23.7803
3026.82	22.2685
3027.65	23.426
3028.48	26.0172
3029.31	25.1869
3030.15	24.7926
3030.98	23.5095
3031.81	22.0555
3032.64	21.5005
3033.48	22.3731
3034.31	23.1798
3035.14	24.4622
3035.97	23.565
3036.8	21.7721
3037.64	22.4379
3038.47	23.3773
3039.3	22.5148
3040.13	22.3674
3040.96	23.216
3041.79	24.4438
3042.62	23.8388
3043.45	21.6269
3044.28	21.699
3045.12	22.8968
3045.95	23.0492
3046.78	24.1193
3047.61	24.9811
3048.44	23.8753
3049.27	23.428
3050.1	23.2398
3050.92	23.7782
3051.75	23.0868
3052.58	23.3939
3053.41	23.1165
3054.24	24.2638
3055.07	24.0164
3055.9	22.8698
3056.73	22.5953
3057.26	21
3058.09	19.5
3058.93	27
3059.76	26
3060.59	24
3061.43	22
3062.26	25
3063.09	20.5
3063.92	26
3064.76	28.5
3065.59	24
3066.42	23
3067.25	22
3068.08	25
3068.92	23.5
3069.75	24
3070.58	21.5
3071.41	23
3072.24	25.5
3073.07	23.5
3073.9	23
3074.73	22.5
3075.57	24
3076.4	22.5
3077.23	22
3078.06	24.5
3078.89	24
3079.72	24
3080.55	24
3081.38	21
3082.21	27.5
3083.04	24
3083.87	25.5
3084.7	26
3085.53	22
3086.36	28
3087.19	21.5
3088.01	21.5
3088.84	25
3089.67	23.5
3090.5	22.5
3091.33	24
3092.16	22
3092.99	23.5
3093.81	22.5
3094.64	22.5
3095.47	25
3096.3	27
3097.13	22
3097.95	22.5
3098.78	19
3099.61	29
3100.44	21.5
3101.26	24.5
3102.09	23.5
3102.92	24
3103.74	21.5
3104.57	21.5
3105.4	22.5
3106.22	22.5
3107.05	22
3107.88	26
3108.7	23
3109.53	21.5
3110.35	22
3111.18	25.5
3112.01	21
3112.83	24
3113.66	22.5
3114.48	25
3115.31	23
3116.13	27
3116.96	21.5
3117.78	24
3118.61	24
3119.43	22
3120.26	27
3121.08	20
3121.9	20.5
3122.73	22
3123.55	23.5
3124.38	25
3125.2	19
3126.02	24
3126.85	22.5
3127.67	23
3128.49	24.5
3129.32	22.5
3130.14	21.5
3130.96	24
3131.79	24.5
3132.61	24.5
3133.43	24
3134.25	20
3135.08	23.5
3135.9	23.5
3136.72	25.5
3137.54	25
3138.37	22
3139.19	22
3140.01	29
3140.83	25
3141.65	24.5
3142.47	25
3143.29	21.5
3144.12	22
3144.94	25
3145.76	22.5
3146.58	23.5
3147.4	24
3148.22	25
3149.04	26.5
3149.86	26
3150.68	25
3151.5	26
3152.32	19
3153.14	25
3153.96	22.5
3154.78	23
3155.6	21
3156.42	26
3157.24	22
3158.06	24
3158.88	27.5
3159.7	21
3160.51	24
3161.33	22.5
3162.15	24.5
3162.97	20
3163.79	27.5
3164.61	26.5
3165.42	22
3166.24	28.5
3167.06	22.5
3167.88	24
3168.7	23.5
3169.51	25
3170.33	22
3171.15	25
3171.97	21.5
3172.78	20
3173.6	23.5
3174.42	24.5
3175.23	22
3176.05	23.5
3176.87	25
3177.68	24.5
3178.5	28
3179.32	21.5
3180.13	26.5
3180.95	25.5
3181.76	24.5
3182.58	23
3183.4	23.5
3184.21	25
3185.03	22
3185.84	22
3186.66	22
3187.47	21
3188.29	26.5
3189.1	23
3189.92	27
3190.73	26
3191.55	21.5
3192.36	23
3193.17	24.5
3193.99	25
3194.8	21
3195.62	24
3196.43	23
3197.24	24.5
3198.06	22.5
3198.87	24.5
3199.68	23.5
3200.5	24
3201.31	21
3202.12	25.5
3202.94	23
3203.75	25.5
3204.56	20
3205.38	25
3206.19	23
3207	25.5
3207.81	26
3208.62	23.5
3209.44	23
3210.25	25.5
3211.06	22
3211.87	24
3212.68	22.5
3213.49	27.5
3214.31	23
3215.12	26
3215.93	27
3216.74	23
3217.55	27.5
3218.36	23.5
3219.17	20
3219.98	28.5
3220.79	22
3221.6	21.5
3222.41	23.5
3223.22	25.5
3224.03	22
3224.84	25.5
3225.65	25.5
3226.46	26
3227.27	22.5
3228.08	24.5
3228.89	24.5
3229.7	27
3230.51	29.5
3231.32	24.5
3232.13	26.5
3232.94	24.5
3233.74	26
3234.55	25.5
3235.36	24.5
3236.17	24
3236.98	19
3237.78	26
3238.59	20.5
3239.4	25.5
3240.21	25.5
3241.02	27.5
3241.82	22
3242.63	21
3243.44	24.5
3244.25	22.5
3245.05	26.5
3245.86	26
3246.67	25.5
3247.47	23
3248.28	21.5
3249.09	22
3249.89	22.5
3250.7	22
3251.5	25
3252.31	24.5
3253.12	23
3253.92	23.5
3254.73	24.5
3255.53	21
3256.34	22
3257.14	27.5
3257.95	26
3258.75	25
3259.56	21
3260.36	22
3261.17	23
3261.97	25.5
3262.78	26.5
3263.58	22.5
3264.39	22
3265.19	27
3265.99	27
3266.8	21.5
3267.6	25
3268.41	24.5
3269.21	24
3270.01	24
3270.82	24
3271.62	26.5
3272.42	23
3273.23	23.5
3274.03	21
3274.83	22.5
3275.64	27
3276.44	25.5
3277.24	26
3278.04	25
3278.85	23.5
3279.65	23.5
3280.45	25
3281.25	25
3282.05	23.5
3282.85	25.5
3283.66	26
3284.46	23.5
3285.26	27.5
3286.06	21.5
3286.86	26.5
3287.66	26
3288.46	27
3289.27	22
3290.07	25
3290.87	23
3291.67	22
3292.47	23.5
3293.27	22.5
3294.07	21
3294.87	22.5
3295.67	21
3296.47	26
3297.27	21.5
3298.07	27
3298.87	21.5
3299.67	23
3300.47	25
3301.26	28.5
3302.06	23
3302.86	22
3303.66	25
3304.46	20.5
3305.26	23.5
3306.06	25.5
3306.86	22.5
3307.65	23
3308.45	21.5
3309.25	24
3310.05	27.5
3310.85	29
3311.64	26
3312.44	26
3313.24	23
3314.04	24.5
3314.83	26
3315.63	21
3316.43	25
3317.22	24
3318.02	23.5
3318.82	31.5
3319.62	19
3320.41	22.5
3321.21	24.5
3322	21
3322.8	25
3323.6	26.5
3324.39	23.5
3325.19	20.5
3325.98	24.5
3326.78	23
3327.58	25.5
3328.37	25.5
3329.17	23
3329.96	22
3330.76	24
3331.55	25.5
3332.35	22
3333.14	22.5
3333.94	24
3334.73	26.5
3335.52	26
3336.32	25.5
3337.11	24
3337.91	29
3338.7	22.5
3339.5	23.5
3340.29	22.5
3341.08	27
3341.88	25
3342.67	26
3343.46	24
3344.26	25.5
3345.05	23.5
3345.84	25.5
3346.63	21
3347.43	23
3348.22	25
3349.01	26
3349.8	20
3350.6	29
3351.39	25
3352.18	23
3352.97	23.5
3353.77	23
3354.56	24
3355.35	23.5
3356.14	22
3356.93	24.5
3357.72	27.5
3358.51	24
3359.31	21
3360.1	21
3360.89	25.5
3361.68	24
3362.47	25
3363.26	23.5
3364.05	26
3364.84	26
3365.63	24
3366.42	22.5
3367.21	24.5
3368	23
3368.79	24
3369.58	26.5
3370.37	24.5
3371.16	22.5
3371.95	28
3372.74	27
3373.53	20
3374.32	22
3375.1	24
3375.89	27.5
3376.68	26.5
3377.47	22.5
3378.26	24
3379.05	29
3379.84	28
3380.62	24.5
3381.41	21.5
3382.2	24
3382.99	26.5
3383.78	22
3384.56	25.5
3385.35	27
3386.14	26.5
3386.93	22
3387.71	25.5
3388.5	26
3389.29	25
3390.07	27
3390.86	24.5
3391.65	22
3392.43	23.5
3393.22	25
3394.01	25
3394.79	25
3395.58	25
3396.36	22
3397.15	26
3397.94	24
3398.72	23
3399.51	24
3400.29	24
3401.08	22
3401.86	28.5
3402.65	24.5
3403.43	23.5
3404.22	21.5
3405	26.5
3405.79	23
3406.57	22
3407.36	28
3408.14	24
3408.93	24
3409.71	22
3410.49	20.5
3411.28	22.5
3412.06	26
3412.84	26.5
3413.63	24.5
3414.41	25.5
3415.2	28
3415.98	22
3416.76	25
3417.54	24.5
3418.33	26
3419.11	25.5
3419.89	24.5
3420.68	23.5
3421.46	28.5
3422.24	22.5
3423.02	22
3423.81	20.5
3424.59	26.5
3425.37	21
3426.15	24.5
3426.93	23
3427.71	26.5
3428.5	24
3429.28	22.5
3430.06	26.5
3430.84	23.5
3431.62	27
3432.4	23.5
3433.18	20
3433.96	24
3434.75	25.5
3435.53	24.5
3436.31	25.5
3437.09	23
3437.87	27
3438.65	24
3439.43	25
3440.21	25
3440.99	25.5
3441.77	24.5
3442.55	23.5
3443.33	26
3444.1	24
3444.88	29
3445.66	28
3446.44	24.5
3447.22	24
3448	24
3448.78	24.5
3449.56	19.5
3450.34	26
3451.11	30.5
3451.89	24
3452.67	22.5
3453.45	21
3454.23	23
3455	25
3455.78	23
3456.56	23
3457.34	22
3458.11	22.5
3458.89	21
3459.67	23.5
3460.45	23.5
3461.22	27
3462	21.5
3462.78	26.5
3463.55	26.5
3464.33	26.5
3465.11	25.5
3465.88	24
3466.66	26.5
3467.44	26.5
3468.21	24
3468.99	28
3469.76	21
3470.54	23
3471.32	22.5
3472.09	25.5
3472.87	25
3473.64	25.5
3474.42	21.5
3475.19	24.5
3475.97	22.5
3476.74	19.5
3477.52	26
3478.29	23.5
3479.07	26.5
3479.84	23.5
3480.61	24.5
3481.39	25
3482.16	22
3482.94	22.5
3483.71	25
3484.48	21
3485.26	28
3486.03	28
3486.81	26.5
3487.58	21.5
3488.35	23
3489.13	23.5
3489.9	23.5
3490.67	21.5
3491.44	28.5
3492.22	24
3492.99	20.5
3493.76	25.5
3494.54	22.5
3495.31	22
3496.08	24.5
3496.85	25
3497.62	21.5
3498.4	26
3499.17	22.5
3499.94	26.5
