#Acq. time (s)=	5
#Accumulations=	5
#Range (cm-¹)=	100...3500
#Windows=	4
#Autofocus=	Off
#AutoExposure=	Off
#Spike filter=	Multiple accum.
#Delay time (s)=	0
#Binning=	1
#Readout mode=	Signal
#DeNoise=	Off
#ICS correction=	Off
#Dark correction=	Off
#Inst. Process=	Off
#Instrument=	LabRAM HR Evol
#Detector=	Syncerity OE
#Objective=	x100_VIS
#Grating=	600 (500nm)
#ND Filter=	25%
#Laser=	633nm_Edge
#Hole=	100.021
#Range=	Visible
#Project=	verificaciones
#Sample=	at4
#Site=	plain
#Title=	bolusat4plain
#Remark=	
#Date=	14.01.2026 13:54
#Acquired=	14.01.2026 13:54:47
100.618	27.5
101.901	33.5
103.185	36
104.468	29
105.751	28
107.033	28
108.316	33
109.598	30
110.88	29.5
112.162	31
113.445	30
114.727	30
116.008	31
117.289	33
118.57	31
119.85	34
121.13	35.5
122.411	33
123.691	36.5
124.97	28.5
126.25	30
127.529	31.5
128.808	29
130.086	36
131.364	31.5
132.643	38.5
133.921	35.5
135.199	30
136.477	35
137.755	39
139.032	38
140.309	35
141.586	35
142.863	37.5
144.14	39.5
145.415	41.5
146.691	37
147.967	37
149.243	41
150.518	37.5
151.794	37
153.067	42
154.342	43
155.617	33
156.892	43.5
158.166	39
159.439	42.5
160.712	37.5
161.986	37
163.26	38
164.531	42
165.805	39.5
167.077	40
168.35	38.5
169.621	41.5
170.893	44
172.165	34
173.437	35
174.707	40.5
175.979	40
177.25	39.5
178.519	40.5
179.79	41
181.061	40.5
182.33	33
183.6	37.5
184.87	39
186.138	43.5
187.408	41
188.676	41
189.945	38.5
191.214	39.5
192.481	41
193.75	38.5
195.016	39
196.285	47.5
197.552	40
198.819	41
200.086	44
201.352	42.5
202.619	35.5
203.884	39.5
205.151	38
206.416	33.5
207.682	36.5
208.947	34.5
210.213	36.5
211.477	35
212.742	35.5
214.006	35.5
215.271	33
216.535	34
217.799	30.5
219.062	33.5
220.326	33
221.589	29.5
222.851	33
224.115	30
225.377	38
226.64	34
227.901	31.5
229.163	31.5
230.425	33
231.686	32
232.947	32.5
234.209	30
235.469	32
236.729	27.5
237.991	30
239.25	31.5
240.51	30
241.771	28.5
243.03	30.5
244.288	30
245.549	31
246.807	31
248.065	32.5
249.323	30
250.583	31.5
251.84	29
253.098	29.5
254.355	29.5
255.613	34
256.87	31.5
258.127	30
259.383	29
260.639	27
261.897	28
263.153	28
264.408	28.5
265.664	27.5
266.919	31.5
268.174	30
269.43	28.5
270.685	32
271.939	26
273.193	27
274.447	27
275.701	27.5
276.955	25
278.208	29
279.461	29.5
280.714	28
281.968	28.5
283.221	29.5
284.473	29.5
285.726	25
286.977	26
288.229	31
289.481	26
290.732	27
291.983	30
293.234	27
294.485	30.5
295.736	30
296.986	34
298.236	28
299.486	30.5
300.736	30
301.985	32.5
303.233	29
304.482	27
305.731	30.5
306.98	32
308.228	29
309.477	29
310.725	29
311.973	29
313.22	31.5
314.468	28
315.714	29.5
316.961	29
318.208	28.5
319.455	27.5
320.701	29.5
321.947	25
323.192	28
324.438	26.5
325.684	25
326.929	29
328.175	32
329.418	23.5
330.663	28
331.908	28
333.152	25.5
334.395	27
335.639	29.5
336.883	27
338.127	30.5
339.369	32.5
340.612	30.5
341.855	30.5
343.097	27
344.34	28.5
345.582	27
346.823	27
348.065	28
349.307	30.5
350.547	29
351.789	25.5
353.03	28
354.27	33
355.511	29
356.75	32
357.991	27.5
359.231	27.5
360.47	30.5
361.709	27.5
362.948	27
364.187	25
365.427	28
366.664	30
367.903	30
369.14	30
370.379	26
371.616	30
372.854	31
374.091	27.5
375.328	28
376.564	27
377.802	28
379.037	29.5
380.274	25.5
381.51	30.5
382.745	26.5
383.981	30
385.216	26.5
386.452	28.5
387.686	30.5
388.922	30.5
390.155	26.5
391.389	26
392.624	29
393.857	32
395.091	29
396.325	27.5
397.558	29.5
398.79	29.5
400.024	30
401.256	26.5
402.488	29.5
403.721	27.5
404.953	27
406.184	30
407.417	28.5
408.648	24
409.878	24
411.109	27.5
412.341	26
413.571	30
414.801	29
416.031	25
417.262	28
418.491	33
419.72	27
420.949	28.5
422.178	26
423.408	28.5
424.637	27.5
425.865	25.5
427.093	27.5
428.32	23.5
429.548	27.5
430.777	27
432.004	31.5
433.231	29
434.458	28
435.685	29
436.911	26.5
438.137	26
439.363	25.5
440.589	33
441.815	28.5
443.042	29
444.267	31.5
445.492	25.5
446.717	25
447.942	31
449.166	27
450.39	28
451.615	29
452.838	28.5
454.062	27
455.286	33
456.509	29.5
457.732	29
458.955	28.5
460.178	34.5
461.399	29
462.621	27.5
463.843	35
465.065	32.5
466.287	31.5
467.508	34
468.73	37
469.951	30
471.172	36
472.393	37.5
473.612	36.5
474.832	38.5
476.052	41.5
477.272	37.5
478.492	41
479.712	46.5
480.93	49
482.149	48
483.368	52
484.587	57
485.806	53.5
487.023	59.5
488.241	57
489.459	59
490.677	61
491.893	53
493.111	49.5
494.328	51.5
495.543	56
496.76	42.5
497.977	47
499.194	49.5
500.409	45
501.625	45.5
502.841	38.5
504.055	36
505.27	38
506.486	39
507.699	36.5
508.914	35.5
510.128	31
511.342	37
512.557	32
513.77	32
514.984	36
516.196	30
517.41	32.5
518.623	31
519.835	35
521.048	35
522.259	34
523.472	33
524.683	33
525.895	27
527.106	32
528.318	31
529.528	28
530.74	31
531.949	30
533.161	29.5
534.37	29.5
535.581	29
536.79	28.5
537.999	35
539.209	29.5
540.418	31
541.627	29
542.835	27.5
544.043	30
545.253	27
546.46	29.5
547.669	28
548.876	29
550.083	30
551.292	28
552.498	27.5
553.705	31
554.912	29.5
556.118	28
557.324	26.5
558.53	31
559.737	30.5
560.942	28
562.147	31
563.353	34.5
564.558	25
565.763	27.5
566.967	25
568.173	26
569.377	28.5
570.58	29.5
571.784	27
572.987	32.5
574.192	30
575.395	28
576.598	23
577.8	28
579.003	25
580.205	27.5
581.407	29.5
582.61	30.5
583.812	30.5
585.014	30.5
586.215	25.5
587.416	31.5
588.617	27.5
589.818	28.5
591.018	27.5
592.219	28.5
593.419	26.5
594.619	25
595.819	24.5
597.02	29
598.219	25
599.418	24
600.617	27
601.816	30
603.015	26.5
604.213	28
605.41	29.5
606.608	29.5
607.806	31.5
609.004	33
610.201	25
611.399	28
612.596	28
613.793	29
614.989	29
616.186	27
617.382	30.5
618.579	28
619.775	30.5
620.969	32
622.165	28
623.36	30
624.555	28
625.75	29.5
626.945	31
628.139	29.5
629.333	25
630.527	28
631.721	30
632.915	25
634.108	32.5
635.301	27.5
636.495	33.5
637.688	22
638.88	26.5
640.072	31
641.265	29
642.456	31
643.648	30.5
644.84	30.5
646.032	26
647.222	29.5
648.414	23.5
649.605	26
650.795	25
651.986	29
653.177	29.5
654.366	26
655.556	27
656.745	30.5
657.935	29.5
659.125	26
660.313	28.5
661.503	33
662.69	27.5
663.879	27
665.067	30.5
666.256	27
667.444	29.5
668.631	32
669.819	31.5
671.006	31
672.194	31
673.38	28
674.567	30.5
675.753	29
676.94	33
678.125	35
679.311	35
680.497	30
681.682	36.5
682.868	30
684.053	37.5
685.238	35
686.422	37.5
687.606	32.5
688.792	30
689.975	32.5
691.159	31.5
692.343	34
693.526	37
694.71	35
695.893	35
697.076	33.5
698.259	39
699.441	34
700.623	35.5
701.805	39
702.988	40.5
704.169	43
705.35	44.5
706.533	44
707.714	48.5
708.894	47.5
710.075	51.5
711.255	43.5
712.436	47
713.616	39.5
714.796	37
715.975	37
717.155	35
718.335	27.5
719.514	34
720.693	30.5
721.872	31.5
723.05	28
724.228	25.5
725.406	28
726.585	32
727.763	29
728.941	25
730.118	27.5
731.295	29.5
732.472	30
733.649	28
734.825	24.5
736.002	30.5
737.178	26.5
738.354	30
739.53	30
740.705	26.5
741.881	27
743.056	28.5
744.231	25
745.406	31
746.581	27.5
747.755	26.5
748.93	29
750.104	30
751.278	31.5
752.452	29.5
753.625	28.5
754.799	28
755.972	27
757.144	28
758.317	29.5
759.489	30
760.662	25.5
761.834	29.5
763.006	26
764.178	32
765.349	32
766.521	26.5
767.692	29
768.863	28.5
770.034	23.5
771.204	25.5
772.374	30
773.545	29.5
774.715	27.5
775.885	27.5
777.054	28.5
778.224	29
779.393	30.5
780.562	30
781.731	29
782.9	33
784.069	31.5
785.236	29.5
786.405	33.5
787.573	30
788.74	32.5
789.908	28
791.074	30
792.242	33.5
793.409	27
794.575	30.5
795.742	29.5
796.909	28
798.074	29
799.241	30
800.406	30
801.572	32
802.737	30
803.902	26.5
805.067	33
806.232	28.5
807.396	26.5
808.561	27
809.725	26
810.889	27.5
812.052	28
813.217	31.5
814.38	24.5
815.544	29
816.706	23
817.87	27
819.032	27
820.195	30.5
821.357	27
822.518	28
823.681	26.5
824.842	27
826.005	21
827.165	24.5
828.326	27
829.488	30
830.648	29.5
831.808	27
832.97	25.5
834.129	28.5
835.289	28.5
836.45	28
837.609	24
838.768	27
839.927	28.5
841.087	28.5
842.245	26
843.404	26
844.562	30
845.721	26
846.879	26.5
848.036	26.5
849.194	32.5
850.351	23
851.509	30
852.666	31
853.823	30
854.979	31.5
856.136	30
857.292	26.5
858.448	28.5
859.605	29
860.761	30.5
861.916	25
863.071	33.5
864.226	28.5
865.381	25.5
866.536	27
867.691	27
868.845	27
869.999	31.5
871.153	28.5
872.307	25
873.461	33
874.614	31.5
875.767	30
876.92	30.5
878.073	26
879.226	29.5
880.379	29
881.531	30.5
882.683	31
883.835	26
884.987	27.5
886.139	31
887.291	30
888.442	26.5
889.593	32
890.743	25.5
891.893	29
893.044	22
894.195	27.5
895.345	26.5
896.495	27.5
897.643	27.5
898.793	27
899.943	28
901.092	30.5
902.241	27
903.389	29.5
904.538	26
905.687	30
906.835	23.5
907.982	26
909.13	27
910.278	26
911.426	24.5
912.572	28.5
913.72	26
914.867	25.5
916.013	26
917.16	23
918.306	28
919.451	27
920.598	24
921.744	30.5
922.889	27.5
924.035	29
925.18	24.5
926.324	24
927.47	26
928.614	27.5
929.758	25
930.902	21
932.047	26
933.191	25
934.334	28.5
935.478	28
936.621	27
937.764	28
938.906	26
940.05	29
941.192	22.5
942.335	24
943.476	22
944.619	26.5
945.76	26.5
946.901	28
948.043	28
949.184	26.5
950.326	27
951.466	27.5
952.606	24.5
953.747	25
954.887	25
956.028	26.5
957.167	25
958.307	31.5
959.447	28.5
960.586	24.5
961.725	26
962.865	28
964.003	24
965.141	21
966.279	25
967.418	22
968.556	29.5
969.693	23.5
970.831	24.5
971.969	25.5
973.106	25
974.243	29.5
975.38	25
976.517	24.5
977.654	24.5
978.79	25
979.926	25
981.061	26
982.197	27
983.334	24.5
984.469	25.5
985.604	27.5
986.739	25.5
987.873	23
989.008	28
990.142	22.5
991.277	28
992.411	24
993.544	25.5
994.679	27
995.813	26
996.946	23
998.079	24
999.212	26.5
1000.35	25.5
1001.48	24
1002.61	27
1003.74	28
1004.87	28
1006.01	28
1007.14	26
1008.27	25
1009.4	21.5
1010.53	26
1011.66	25
1012.79	28
1013.92	28
1015.05	24
1016.18	24
1017.31	22.5
1018.44	26
1019.57	27.5
1020.7	20
1021.83	23.5
1022.96	23
1024.09	27.5
1025.22	23.5
1026.35	22.5
1027.48	24
1028.6	31
1029.73	20
1030.86	24
1031.99	21
1033.12	24.5
1034.24	24.5
1035.37	24.5
1036.5	22.5
1037.62	28
1038.75	24.5
1039.88	29
1041	24.5
1042.13	24
1043.25	26
1044.38	32
1045.5	25
1046.63	24.5
1047.76	25.5
1048.88	21
1050	20.5
1051.13	27
1052.25	27
1053.38	25
1054.5	25
1055.63	26.5
1056.75	27.5
1057.87	25
1058.99	25.5
1060.12	27.5
1061.24	28.5
1062.36	24.5
1063.49	23
1064.61	26.5
1065.73	23
1066.85	27
1067.97	27.5
1069.1	25.5
1070.22	25
1071.34	26
1072.46	29
1073.58	26
1074.7	28.5
1075.82	28
1076.94	21
1078.06	25.5
1079.18	26.5
1080.3	21.5
1081.42	26
1082.54	25.5
1083.66	25
1084.78	21.5
1085.9	21
1087.02	22.5
1088.13	27
1089.25	27
1090.37	23.5
1091.49	27.5
1092.61	26
1093.72	23
1094.84	25.5
1095.96	28.5
1097.08	26.5
1098.19	27
1099.31	27.5
1100.42	25
1101.54	23
1102.66	19.5
1103.77	25.5
1104.89	25
1106	25.5
1107.12	23.5
1108.23	22
1109.35	22
1110.46	23.5
1111.58	23
1112.69	23.5
1113.81	25
1114.92	23.5
1116.04	25.5
1117.15	23
1118.26	25.5
1119.38	21
1120.49	27.5
1121.6	27
1122.72	22.5
1123.83	27.5
1124.94	21.5
1126.05	23
1127.17	26
1128.28	27.5
1129.39	23
1130.5	26.5
1131.61	26.5
1132.72	24.5
1133.83	25
1134.94	25
1136.06	24
1137.17	23
1138.27	26.5
1139.39	26.5
1140.5	25
1141.61	26.5
1142.72	23.5
1143.82	22.5
1144.93	25
1146.04	23.5
1147.15	25.5
1148.26	26
1149.37	28
1150.48	26
1151.58	24
1152.69	22.5
1153.8	25.5
1154.91	23
1156.02	25.5
1157.12	28
1158.23	23.5
1159.34	25
1160.44	25
1161.55	23.5
1162.66	27
1163.76	24.5
1164.87	27
1165.97	25
1167.08	25
1168.18	24
1169.29	24
1170.39	22
1171.5	21
1172.6	26
1173.71	24
1174.81	23.5
1175.92	22
1177.02	28
1178.13	27
1179.23	23
1180.33	29.5
1181.44	26.5
1182.54	25
1183.64	19
1184.74	26
1185.85	26
1186.95	25
1188.05	22.5
1189.15	22
1190.26	25
1191.36	23
1192.46	26
1193.56	27.5
1194.66	24.9752
1195.76	22.9433
1196.86	26.0227
1197.96	25.517
1199.06	23.6068
1200.16	26.896
1201.26	25.5301
1202.36	23.179
1203.46	25.4128
1204.56	23.4417
1205.66	22.6138
1206.76	21.6075
1207.86	23.9943
1208.96	22.8089
1210.06	24.0664
1211.16	24.4744
1212.25	20.4806
1213.35	21.6626
1214.45	21.5312
1215.55	22.7519
1216.65	25.9123
1217.74	24.573
1218.84	25.7226
1219.94	21.7874
1221.03	23.1721
1222.13	24.1017
1223.23	23.8581
1224.32	23.4032
1225.42	26.13
1226.52	27.4797
1227.61	22.5364
1228.71	25.6
1229.8	24.2258
1230.9	22.247
1231.99	23.6942
1233.09	23.983
1234.18	24.4433
1235.28	23.4748
1236.37	25.3317
1237.47	26.2561
1238.56	25.0057
1239.65	26.3787
1240.75	24.7202
1241.84	23.3643
1242.93	22.174
1244.03	23.776
1245.12	23.1306
1246.21	23.6143
1247.31	24.7354
1248.4	24.7979
1249.49	24.7549
1250.58	22.6263
1251.67	22.5097
1252.77	24.7081
1253.86	25.8803
1254.95	23.4712
1256.04	25.7351
1257.13	26
1258.22	24.8678
1259.31	25.4361
1260.4	25.9136
1261.49	25.3263
1262.58	24.8253
1263.67	25.5709
1264.76	26.6974
1265.85	27.7718
1266.94	25.9727
1268.03	27.3964
1269.12	27.5864
1270.21	25.9498
1271.3	24.2787
1272.39	22.7964
1273.47	22.8883
1274.56	24.5805
1275.65	24.7598
1276.74	23.425
1277.83	23.9211
1278.91	24.5533
1280	24.1147
1281.09	24.0655
1282.17	23.7197
1283.26	24.5651
1284.35	22.3768
1285.43	22.3408
1286.52	22.8075
1287.61	24.0038
1288.69	24.2232
1289.78	23.0606
1290.86	21.638
1291.95	25.4285
1293.03	25.7073
1294.12	24.0424
1295.2	22.9854
1296.29	23.2594
1297.37	25.664
1298.46	23.0353
1299.54	22.8793
1300.63	23.7402
1301.71	25.4872
1302.79	22.8418
1303.88	22.9396
1304.96	24.9927
1306.04	24.4063
1306.5	24
1307.59	22
1308.68	22
1309.76	27.5
1310.85	24
1311.94	21
1313.03	25
1314.11	24
1315.2	26.5
1316.29	25.5
1317.37	25
1318.46	22.5
1319.55	23
1320.63	22.5
1321.72	22.5
1322.81	22.5
1323.89	24
1324.98	22.5
1326.06	26
1327.15	24.5
1328.23	24
1329.32	23.5
1330.4	23
1331.49	23
1332.57	24.5
1333.66	23.5
1334.74	24.5
1335.82	29.5
1336.91	27
1337.99	24.5
1339.07	27
1340.16	25.5
1341.24	24
1342.32	29.5
1343.4	27.5
1344.49	27
1345.57	24
1346.65	24.5
1347.73	26
1348.82	25.5
1349.9	26
1350.98	24.5
1352.06	25.5
1353.14	23
1354.22	28.5
1355.3	19.5
1356.38	23.5
1357.46	22.5
1358.54	24
1359.62	26.5
1360.7	25
1361.78	20
1362.86	22.5
1363.94	25
1365.02	24
1366.1	23
1367.18	25
1368.26	26
1369.34	27
1370.41	22
1371.49	24
1372.57	24.5
1373.65	26
1374.72	26
1375.8	28
1376.88	24.5
1377.96	27.5
1379.03	26
1380.11	25.5
1381.19	25
1382.26	26
1383.34	27.5
1384.42	24
1385.49	26.5
1386.57	26
1387.64	27.5
1388.72	26
1389.79	26.5
1390.87	27
1391.94	27
1393.02	26
1394.09	25
1395.17	23
1396.24	26.5
1397.31	27
1398.39	30
1399.46	30.5
1400.54	30.5
1401.61	30
1402.68	31.5
1403.76	29
1404.83	33
1405.9	28
1406.97	31
1408.05	33
1409.12	28.5
1410.19	34.5
1411.26	28
1412.33	35
1413.4	33.5
1414.48	34
1415.55	27
1416.62	28.5
1417.69	23
1418.76	33
1419.83	25
1420.9	29
1421.97	25
1423.04	24
1424.11	25
1425.18	32.5
1426.25	28.5
1427.32	25.5
1428.39	27.5
1429.46	23.5
1430.52	26
1431.59	28
1432.66	27
1433.73	26
1434.8	23
1435.87	26
1436.93	25
1438	24.5
1439.07	27.5
1440.14	25
1441.2	28
1442.27	28
1443.34	21.5
1444.4	27.5
1445.47	28
1446.54	29
1447.6	25
1448.67	27.5
1449.73	24
1450.8	27
1451.86	28
1452.93	21
1453.99	25
1455.06	27
1456.12	26.5
1457.19	26
1458.25	27.5
1459.32	28
1460.38	22.5
1461.45	27
1462.51	29
1463.57	30
1464.64	28
1465.7	24
1466.76	25
1467.82	22
1468.89	26.5
1469.95	24
1471.01	23
1472.07	28.5
1473.14	24.5
1474.2	25
1475.26	27
1476.32	22
1477.38	24
1478.44	27.5
1479.5	26
1480.57	23.5
1481.63	24
1482.69	25
1483.75	26.5
1484.81	25.5
1485.87	31.5
1486.93	27
1487.99	28
1489.05	27
1490.1	27.5
1491.17	23
1492.22	24.5
1493.28	25.5
1494.34	23.5
1495.4	26
1496.46	28
1497.52	23.5
1498.57	29
1499.63	24
1500.69	21
1501.75	23
1502.8	22
1503.86	23.5
1504.92	24.5
1505.98	21.5
1507.03	30
1508.09	25.5
1509.15	24.5
1510.2	24.5
1511.26	26.5
1512.31	27
1513.37	26.5
1514.42	26
1515.48	23
1516.53	25.5
1517.59	30.5
1518.64	23
1519.7	25.5
1520.75	25
1521.81	23.5
1522.86	26
1523.92	26
1524.97	26
1526.02	27.5
1527.08	25.5
1528.13	26.5
1529.18	23.5
1530.24	22.5
1531.29	26.5
1532.34	27
1533.39	26
1534.45	26.5
1535.5	25.5
1536.55	26.5
1537.6	26
1538.65	24
1539.71	25
1540.76	25
1541.81	27
1542.86	24
1543.91	20
1544.96	26.5
1546.01	29.5
1547.06	24.5
1548.11	25
1549.16	28
1550.21	29
1551.26	25
1552.31	20.5
1553.36	26.5
1554.41	26
1555.46	25
1556.51	27
1557.56	26
1558.6	25
1559.65	21
1560.7	26.5
1561.75	29.5
1562.8	27
1563.84	28
1564.89	26
1565.94	23.5
1566.99	23
1568.03	25
1569.08	20
1570.13	27
1571.17	25
1572.22	25
1573.27	27.5
1574.31	28
1575.36	27.5
1576.4	30.5
1577.45	28.5
1578.5	25
1579.54	24
1580.59	27
1581.63	24.5
1582.68	23.5
1583.72	26
1584.76	26.5
1585.81	22
1586.85	26
1587.9	22
1588.94	23.5
1589.98	24.5
1591.03	28
1592.07	24.5
1593.11	28
1594.16	23
1595.2	28
1596.24	27.5
1597.29	27
1598.33	25.5
1599.37	25.5
1600.41	26.5
1601.45	24
1602.49	23.5
1603.54	26
1604.58	25
1605.62	25.5
1606.66	26
1607.7	23
1608.74	25
1609.78	24.5
1610.82	22
1611.86	24
1612.9	23
1613.94	24
1614.98	29
1616.02	26
1617.06	25
1618.1	25.5
1619.14	29.5
1620.18	25
1621.22	25.5
1622.25	27.5
1623.29	21
1624.33	23
1625.37	28
1626.41	29
1627.45	29.5
1628.48	26.5
1629.52	27.5
1630.56	25.5
1631.59	23.5
1632.63	25
1633.67	24.5
1634.7	24
1635.74	28
1636.78	28
1637.81	26
1638.85	30.5
1639.88	29
1640.92	25
1641.96	24.5
1642.99	27
1644.03	24
1645.06	25
1646.1	26.5
1647.13	23
1648.17	23.5
1649.2	24.5
1650.23	22
1651.27	26
1652.3	25
1653.33	30
1654.37	19
1655.4	25
1656.44	24.5
1657.47	27.5
1658.5	24.5
1659.53	23
1660.57	26
1661.6	23.5
1662.63	29.5
1663.66	25.5
1664.69	24
1665.73	26.5
1666.76	27.5
1667.79	26
1668.82	23
1669.85	23.5
1670.88	22.5
1671.91	26
1672.94	26
1673.97	26.5
1675.01	23.5
1676.03	25
1677.07	23
1678.1	25
1679.12	25
1680.15	24
1681.18	23
1682.21	24
1683.24	24.5
1684.27	23.5
1685.3	27
1686.33	28.5
1687.36	26.5
1688.38	23
1689.41	27
1690.44	24
1691.47	27
1692.5	23.5
1693.52	26
1694.55	21
1695.58	27
1696.6	21
1697.63	28.5
1698.66	28
1699.68	26
1700.71	28
1701.74	26
1702.76	25.5
1703.79	27
1704.81	26
1705.84	26
1706.86	25
1707.89	26
1708.91	26.5
1709.94	24
1710.96	24.5
1711.99	28.5
1713.01	24.5
1714.04	26.5
1715.06	28
1716.08	25
1717.11	25
1718.13	26
1719.16	24.5
1720.18	24
1721.2	26.5
1722.22	27
1723.25	26.5
1724.27	27.5
1725.29	25.5
1726.31	23
1727.34	26
1728.36	26.5
1729.38	26
1730.4	22
1731.42	25
1732.44	26.5
1733.47	24
1734.49	27
1735.51	26
1736.53	31
1737.55	23.5
1738.57	21
1739.59	26
1740.61	25.5
1741.63	26
1742.65	22.5
1743.67	23
1744.69	25
1745.71	27.5
1746.73	23.5
1747.75	26.5
1748.76	27
1749.78	26
1750.8	27
1751.82	26.5
1752.84	25.5
1753.86	26
1754.87	22.5
1755.89	30.5
1756.91	30.5
1757.93	32
1758.94	23
1759.96	25
1760.98	28
1761.99	24.5
1763.01	23
1764.03	21.5
1765.04	23
1766.06	25.5
1767.08	26
1768.09	25
1769.11	25
1770.12	25.5
1771.14	24
1772.15	22.5
1773.17	29
1774.18	24.5
1775.2	27
1776.21	24.5
1777.23	26
1778.24	30
1779.25	24.5
1780.27	22
1781.28	23
1782.3	24
1783.31	24
1784.32	23
1785.34	30.5
1786.35	20.5
1787.36	29
1788.37	25
1789.39	26.5
1790.4	25.5
1791.41	24
1792.42	25.5
1793.43	22
1794.45	27
1795.46	26
1796.47	24
1797.48	27
1798.49	23
1799.5	22
1800.51	28.5
1801.52	24.5
1802.53	26.5
1803.54	25
1804.55	24
1805.56	25.5
1806.57	23
1807.58	25
1808.59	29
1809.6	26.5
1810.61	27.5
1811.62	28
1812.63	30.5
1813.64	27
1814.65	23
1815.66	24.5
1816.66	26
1817.67	24
1818.68	24
1819.69	26
1820.69	24.5
1821.7	20.5
1822.71	22.5
1823.72	25.5
1824.72	24.5
1825.73	24.5
1826.74	23.5
1827.74	27.5
1828.75	22.5
1829.76	27
1830.76	26.5
1831.77	26
1832.77	27
1833.78	27
1834.79	24.5
1835.79	24.5
1836.8	28
1837.8	27.5
1838.81	22
1839.81	24.5
1840.81	23
1841.82	22.5
1842.82	22.5
1843.83	25
1844.83	25
1845.83	26
1846.84	25.5
1847.84	21.5
1848.84	22.5
1849.85	26
1850.85	30
1851.85	22.5
1852.86	25
1853.86	26
1854.86	26.5
1855.86	27.5
1856.86	25.5
1857.87	28.5
1858.87	24
1859.87	24.5
1860.87	24
1861.87	24.5
1862.87	24
1863.88	25
1864.88	22
1865.88	27
1866.88	22
1867.88	30
1868.88	25
1869.88	21.5
1870.88	24.5
1871.88	28
1872.88	29.5
1873.88	24
1874.87	22.5
1875.87	29.5
1876.87	24
1877.87	23
1878.87	22.5
1879.87	26
1880.87	27
1881.86	21.5
1882.86	27.5
1883.86	23
1884.86	26
1885.86	27
1886.85	24
1887.85	28
1888.85	30
1889.84	25
1890.84	22
1891.84	24
1892.83	24
1893.83	25.5
1894.83	22
1895.82	21.5
1896.82	29.5
1897.81	23
1898.81	27
1899.81	22.5
1900.8	24.5
1901.8	24.5
1902.79	24
1903.78	25
1904.78	23.5
1905.77	18.5
1906.77	26
1907.76	25
1908.76	27
1909.75	26.5
1910.74	22
1911.74	24.5
1912.73	27
1913.72	23
1914.72	23
1915.71	25.5
1916.7	21
1917.7	23.5
1918.69	26
1919.68	25
1920.67	26.5
1921.66	24
1922.66	25.5
1923.65	23
1924.64	28
1925.63	26
1926.62	26
1927.61	27
1928.6	27
1929.59	21.5
1930.59	22.5
1931.58	25
1932.57	25
1933.56	28
1934.55	20.5
1935.54	28
1936.53	20.5
1937.52	28
1938.51	27
1939.49	25
1940.48	23.5
1941.47	24
1942.46	28
1943.45	23
1944.44	28
1945.43	29.5
1946.42	24
1947.4	26
1948.39	25.5
1949.38	24
1950.37	27.5
1951.35	24
1952.34	27
1953.33	23
1954.31	21
1955.3	24
1956.29	25
1957.27	21.5
1958.26	28.5
1959.25	21
1960.23	23
1961.22	22
1962.21	19.5
1963.19	25
1964.18	26.5
1965.16	21
1966.15	25
1967.13	25.5
1968.12	26
1969.1	27.5
1970.09	25.5
1971.07	23.5
1972.05	24.5
1973.04	23
1974.02	20
1975.01	16.5
1975.99	23
1976.97	22
1977.96	27
1978.94	20
1979.92	21
1980.91	28
1981.89	26.5
1982.87	24
1983.85	26.5
1984.84	23
1985.82	21.5
1986.8	25
1987.78	23
1988.76	24
1989.74	25
1990.73	24
1991.71	23
1992.69	24
1993.67	23
1994.65	26.5
1995.63	25
1996.61	25
1997.59	23.5
1998.57	22
1999.55	22
2000.53	19
2001.51	25
2002.49	24
2003.47	23
2004.45	23
2005.43	23.5
2006.41	24
2007.39	24
2008.37	25.5
2009.34	27.5
2010.32	24
2011.3	22.5
2012.28	24.5
2013.26	23
2014.23	23
2015.21	23
2016.19	25.5
2017.17	24.5
2018.14	22
2019.12	24
2020.1	27
2021.07	28
2022.05	25.5
2023.03	20.5
2024	28
2024.98	23.5
2025.96	28
2026.93	23.5
2027.91	25.5
2028.88	23
2029.86	30
2030.83	24
2031.81	23.5
2032.78	25.5
2033.76	25.5
2034.73	26.5
2035.71	30
2036.68	24.5
2037.66	25
2038.63	29.5
2039.6	23
2040.58	24
2041.55	22.5
2042.52	24.5
2043.5	27
2044.47	24
2045.44	25.5
2046.42	23
2047.39	23
2048.36	25.5
2049.33	23.5
2050.31	27.5
2051.28	26
2052.25	25.5
2053.22	21.5
2054.19	22.5
2055.17	22
2056.14	20
2057.11	22
2058.08	23
2059.05	25
2060.02	25.5
2060.99	18
2061.96	24.5
2062.93	23.5
2063.9	24.5
2064.87	24
2065.84	25
2066.81	22.5
2067.78	22.5
2068.75	24.5
2069.72	23
2070.69	20
2071.66	26
2072.63	24.5
2073.6	28
2074.56	24
2075.53	23
2076.5	20
2077.47	24.5
2078.44	23.5
2079.4	22.5
2080.37	22.5
2081.34	24
2082.31	25
2083.27	24
2084.24	22
2085.21	21.5
2086.18	26.5
2087.14	23
2088.11	21
2089.07	22
2090.04	25.5
2091.01	26
2091.97	22
2092.94	20.5
2093.9	26
2094.87	22
2095.83	25
2096.8	19
2097.76	24.5
2098.73	20.5
2099.69	26.5
2100.66	25.5
2101.62	24.5
2102.59	25.5
2103.55	29.5
2104.52	23.5
2105.48	22
2106.44	19.5
2107.41	25.5
2108.37	22.5
2109.33	25
2110.3	23
2111.26	26.5
2112.22	23.5
2113.18	27
2114.15	19.5
2115.11	24
2116.07	23
2117.03	25
2118	24
2118.96	21.5
2119.92	25.5
2120.88	23
2121.84	23.5
2122.8	23
2123.76	23.5
2124.72	24
2125.68	20.5
2126.65	24.5
2127.61	25
2128.57	24
2129.53	23.5
2130.49	23.5
2131.45	25.5
2132.41	22.5
2133.36	25
2134.32	25.5
2135.28	22
2136.24	22
2137.2	27
2138.16	23.5
2139.12	22.5
2140.08	22
2141.04	25.5
2141.99	23.5
2142.95	26.9655
2143.91	22.9603
2144.87	24.0336
2145.83	22.9796
2146.78	22.9382
2147.74	17.3185
2148.7	23.8738
2149.66	22.9272
2150.61	24.2655
2151.57	24.1772
2152.53	24.5584
2153.48	22.2756
2154.44	23.2769
2155.4	21.7734
2156.35	25.701
2157.31	22.3977
2158.26	24.7597
2159.22	21.8398
2160.17	25.167
2161.13	26.3507
2162.08	24.6706
2163.04	22.5572
2163.99	23.8505
2164.95	22.9718
2165.9	23.9053
2166.86	21.8728
2167.81	20.1296
2168.77	21.4363
2169.72	22.4219
2170.67	23.3518
2171.63	22.6804
2172.58	20.3456
2173.54	24.8254
2174.49	20.8131
2175.44	21.5379
2176.39	22.2734
2177.35	20.3503
2178.3	24.4327
2179.25	22.4644
2180.2	24.1578
2181.16	23.7136
2182.11	22.2913
2183.06	18.784
2184.01	21.1022
2184.96	23.2395
2185.92	22.5257
2186.87	22.3907
2187.82	22.3993
2188.77	22.5216
2189.72	21.4606
2190.67	23.0735
2191.62	23.6873
2192.57	21.4585
2193.52	22.6102
2194.47	22.0583
2195.42	23.6356
2196.37	22.1712
2197.32	22.7575
2198.27	23.8335
2199.22	21.0704
2200.17	24.0606
2201.12	24.3037
2202.07	24.9117
2203.02	23.7704
2203.97	25.407
2204.92	23.2333
2205.87	22.4175
2206.81	22.5322
2207.76	25.5528
2208.71	21.8158
2209.66	21.8168
2210.61	24.1898
2211.55	23.3692
2212.5	18.3479
2213.45	23.6976
2214.4	19.9366
2215.34	22.7798
2216.29	21.8714
2217.24	22.6269
2218.18	22.5073
2219.13	23.2087
2220.08	23.3839
2221.02	25.3318
2221.97	22.5195
2222.92	21.7165
2223.86	23.0757
2224.81	24.4494
2225.75	24.3757
2226.7	24.2184
2227.64	18.9149
2228.59	23.5607
2229.53	24.8706
2230.48	23.4636
2231.42	19.6999
2232.37	22.5559
2233.31	23.7855
2234.26	22.2018
2235.2	22.6522
2236.14	26.7498
2237.09	22.3153
2238.03	21.0629
2238.97	20.5951
2239.92	21.3732
2240.05	21.5
2241	21
2241.95	24
2242.89	22
2243.84	21.5
2244.79	21.5
2245.74	22.5
2246.68	22.5
2247.63	21.5
2248.58	24.5
2249.53	21
2250.47	25
2251.42	21.5
2252.36	25.5
2253.31	22
2254.26	19.5
2255.2	24
2256.15	24.5
2257.1	22
2258.04	22
2258.99	22.5
2259.93	20.5
2260.88	24.5
2261.82	27
2262.77	27.5
2263.71	25
2264.66	23.5
2265.6	26.5
2266.55	24
2267.49	24
2268.43	27
2269.38	24.5
2270.32	19
2271.26	26
2272.21	22
2273.15	22.5
2274.09	21.5
2275.04	24.5
2275.98	20
2276.92	26.5
2277.87	21
2278.81	19.5
2279.75	21.5
2280.69	21
2281.64	23
2282.58	23
2283.52	19.5
2284.46	24.5
2285.4	27.5
2286.34	22
2287.29	25
2288.23	25.5
2289.17	24.5
2290.11	19
2291.05	25
2291.99	24
2292.93	24.5
2293.87	22.5
2294.81	21
2295.75	17.5
2296.69	20.5
2297.63	20.5
2298.57	22
2299.51	21
2300.45	21.5
2301.39	26
2302.33	22
2303.27	26
2304.2	25
2305.14	24
2306.08	25.5
2307.02	24.5
2307.96	23.5
2308.9	24
2309.83	25
2310.77	26
2311.71	18
2312.65	24.5
2313.58	22
2314.52	26
2315.46	27
2316.39	21
2317.33	22
2318.27	23.5
2319.21	20
2320.14	23
2321.08	28
2322.01	23
2322.95	22
2323.89	24.5
2324.82	27
2325.76	20.5
2326.69	25
2327.63	22
2328.56	23
2329.5	22.5
2330.43	24
2331.37	23
2332.3	22.5
2333.24	25.5
2334.17	28
2335.1	25
2336.04	25.5
2336.97	26.5
2337.91	22.5
2338.84	21.5
2339.77	22
2340.71	24
2341.64	24
2342.57	28
2343.51	28
2344.44	25
2345.37	24.5
2346.3	23
2347.24	23
2348.17	24.5
2349.1	28.5
2350.03	26.5
2350.96	22.5
2351.89	25.5
2352.83	25
2353.76	20
2354.69	25
2355.62	24.5
2356.55	25.5
2357.48	24.5
2358.41	24.5
2359.34	24
2360.27	29
2361.2	22
2362.13	20
2363.06	23.5
2363.99	20
2364.92	23.5
2365.85	23
2366.78	23
2367.71	24.5
2368.64	24
2369.57	23
2370.5	24
2371.43	23
2372.36	23
2373.28	24
2374.21	20.5
2375.14	25.5
2376.07	26.5
2377	20.5
2377.93	27
2378.85	22.5
2379.78	25
2380.71	20
2381.63	26
2382.56	23.5
2383.49	23
2384.42	26
2385.34	26
2386.27	25
2387.2	21
2388.12	23.5
2389.05	24.5
2389.97	25.5
2390.9	23
2391.82	25
2392.75	26.5
2393.68	26
2394.6	25
2395.53	24.5
2396.45	27
2397.38	21.5
2398.3	24.5
2399.23	24
2400.15	24
2401.07	21
2402	25.5
2402.92	24.5
2403.85	22
2404.77	25
2405.69	26
2406.62	22
2407.54	24
2408.46	23
2409.39	24
2410.31	19.5
2411.23	23
2412.16	28
2413.08	21
2414	25
2414.92	24
2415.85	25.5
2416.77	17.5
2417.69	25
2418.61	22.5
2419.53	25.5
2420.45	24.5
2421.38	23
2422.3	25
2423.22	23.5
2424.14	24
2425.06	27
2425.98	23
2426.9	21.5
2427.82	23
2428.74	27
2429.66	23
2430.58	26.5
2431.5	24
2432.42	24.5
2433.34	26
2434.26	25.5
2435.18	25
2436.1	25.5
2437.02	28
2437.94	26
2438.85	23.5
2439.77	23.5
2440.69	23.5
2441.61	22
2442.53	23
2443.45	24
2444.36	22.5
2445.28	26.5
2446.2	26.5
2447.12	23
2448.03	21
2448.95	24
2449.87	25
2450.79	28.5
2451.7	23
2452.62	26
2453.54	27
2454.45	25.5
2455.37	23
2456.28	25
2457.2	20.5
2458.12	24
2459.03	24
2459.95	21
2460.86	24
2461.78	27.5
2462.69	26
2463.61	26.5
2464.52	23
2465.44	27.5
2466.35	28
2467.27	25
2468.18	26.5
2469.1	26
2470.01	26
2470.93	24.5
2471.84	23
2472.75	24.5
2473.67	22
2474.58	26
2475.49	26
2476.41	25
2477.32	25.5
2478.23	27
2479.15	26
2480.06	25
2480.97	24
2481.88	25
2482.79	24.5
2483.71	25
2484.62	27
2485.53	21
2486.44	23.5
2487.35	21.5
2488.26	21
2489.18	25
2490.09	24
2491	28.5
2491.91	27
2492.82	30
2493.73	24
2494.64	24.5
2495.55	26.5
2496.46	23.5
2497.37	26.5
2498.28	25
2499.19	25
2500.1	27.5
2501.01	20
2501.92	21.5
2502.83	26
2503.74	28
2504.65	20
2505.56	25.5
2506.47	22.5
2507.37	25
2508.28	26
2509.19	27.5
2510.1	24.5
2511.01	22.5
2511.92	27.5
2512.82	23.5
2513.73	23
2514.64	26
2515.55	25
2516.45	27
2517.36	21.5
2518.27	24
2519.17	26
2520.08	21.5
2520.99	19
2521.89	24
2522.8	25.5
2523.71	23.5
2524.61	26
2525.52	24
2526.42	26.5
2527.33	29.5
2528.24	25
2529.14	26.5
2530.05	22
2530.95	27
2531.86	23
2532.76	26.5
2533.67	23
2534.57	23
2535.48	21.5
2536.38	28
2537.28	27
2538.19	27.5
2539.09	22
2540	28
2540.9	20
2541.8	26
2542.71	23
2543.61	23.5
2544.51	24
2545.42	25.5
2546.32	25
2547.22	23.5
2548.12	25.5
2549.03	24
2549.93	22.5
2550.83	22.5
2551.73	24
2552.63	26.5
2553.54	26
2554.44	19
2555.34	26.5
2556.24	26
2557.14	25.5
2558.04	27.5
2558.94	26.5
2559.85	22
2560.75	27
2561.65	26
2562.55	25
2563.45	23
2564.35	25
2565.25	22
2566.15	22
2567.05	23.5
2567.95	26
2568.85	24
2569.75	28
2570.65	26
2571.55	23
2572.44	25
2573.34	26.5
2574.24	25.5
2575.14	26
2576.04	24.5
2576.94	23
2577.84	24
2578.73	24.5
2579.63	25.5
2580.53	27
2581.43	25.5
2582.33	25
2583.22	21.5
2584.12	26
2585.02	22.5
2585.91	26
2586.81	24.5
2587.71	24
2588.6	23
2589.5	24.5
2590.4	28
2591.29	27
2592.19	26.5
2593.09	23.5
2593.98	26.5
2594.88	27
2595.77	23.5
2596.67	28.5
2597.56	21
2598.46	25
2599.35	27
2600.25	24
2601.14	27
2602.04	20.5
2602.93	25.5
2603.83	25.5
2604.72	26.5
2605.62	24.5
2606.51	27
2607.4	26
2608.3	24.5
2609.19	26.5
2610.09	23
2610.98	28
2611.87	26
2612.76	25
2613.66	23
2614.55	25.5
2615.44	25
2616.34	19.5
2617.23	24
2618.12	23
2619.01	26
2619.9	27
2620.8	22
2621.69	25.5
2622.58	23
2623.47	26
2624.36	27
2625.25	24
2626.15	27
2627.04	22
2627.93	24
2628.82	25
2629.71	24
2630.6	20.5
2631.49	24.5
2632.38	23
2633.27	20.5
2634.16	25
2635.05	24.5
2635.94	21.5
2636.83	25
2637.72	28
2638.61	21
2639.5	24.5
2640.39	24.5
2641.28	23
2642.16	22.5
2643.05	20
2643.94	24
2644.83	21.5
2645.72	18
2646.61	25
2647.49	25
2648.38	26
2649.27	26
2650.16	27
2651.05	26
2651.93	19
2652.82	26
2653.71	26
2654.59	23.5
2655.48	22
2656.37	23.5
2657.25	25.5
2658.14	28
2659.03	28.5
2659.91	26
2660.8	26
2661.69	26
2662.57	24
2663.46	23
2664.34	25
2665.23	24.5
2666.11	24.5
2667	23.5
2667.88	23.5
2668.77	21
2669.65	22
2670.54	26.5
2671.42	23
2672.31	22.5
2673.19	25
2674.08	23
2674.96	20
2675.84	25
2676.73	22
2677.61	24.5
2678.49	23
2679.38	23
2680.26	21.5
2681.14	26
2682.03	27
2682.91	26.5
2683.79	23
2684.68	21
2685.56	25
2686.44	23.5
2687.32	21
2688.2	26
2689.09	24.5
2689.97	25
2690.85	24.5
2691.73	26
2692.61	24
2693.49	24
2694.38	25.5
2695.26	26.5
2696.14	26.5
2697.02	27
2697.9	24
2698.78	29.5
2699.66	23.5
2700.54	26
2701.42	24.5
2702.3	25
2703.18	25.5
2704.06	23.5
2704.94	25.5
2705.82	23
2706.7	24.5
2707.58	24.5
2708.46	24.5
2709.34	24.5
2710.21	24.5
2711.09	24
2711.97	26.5
2712.85	25
2713.73	23
2714.61	30
2715.49	25
2716.36	24
2717.24	25
2718.12	27
2719	28
2719.87	20
2720.75	24
2721.63	24.5
2722.51	27
2723.38	24
2724.26	25.5
2725.14	28
2726.01	24
2726.89	23
2727.77	23
2728.64	27.5
2729.52	26.5
2730.39	24
2731.27	24.5
2732.15	25.5
2733.02	26.5
2733.9	26
2734.77	24
2735.65	24.5
2736.52	26.5
2737.4	27.5
2738.27	20.5
2739.15	27.5
2740.02	21.5
2740.89	27
2741.77	26
2742.64	25.5
2743.52	21.5
2744.39	25
2745.27	27.5
2746.14	27
2747.01	26.5
2747.89	25
2748.76	22
2749.63	24
2750.51	23.5
2751.38	22.5
2752.25	24
2753.12	23
2754	25
2754.87	25
2755.74	24
2756.61	26.5
2757.48	26.5
2758.36	24
2759.23	23
2760.1	27
2760.97	25.5
2761.84	28.5
2762.71	26
2763.59	22
2764.46	26.5
2765.33	27
2766.2	18
2767.07	23.5
2767.94	24.5
2768.81	24.5
2769.68	26.5
2770.55	22.5
2771.42	25
2772.29	24.5
2773.16	23
2774.03	25
2774.9	24.5
2775.77	26
2776.64	24.5
2777.51	25.5
2778.37	30.5
2779.24	24
2780.11	25
2780.98	27
2781.85	24
2782.72	30.5
2783.59	25
2784.45	24.5
2785.32	29
2786.19	24
2787.06	21.5
2787.92	24.5
2788.79	25
2789.66	20
2790.53	23.5
2791.39	26
2792.26	25
2793.13	26.5
2793.99	27
2794.86	27.5
2795.73	27
2796.59	23.5
2797.46	27
2798.33	28
2799.19	26.5
2800.06	25.5
2800.92	25.25
2801.79	23
2802.65	27.5
2803.52	23
2804.39	25.5
2805.25	25.5
2806.11	26.5
2806.98	26
2807.84	28
2808.71	25
2809.57	26
2810.44	24
2811.3	27
2812.17	26
2813.03	28
2813.89	24
2814.76	24
2815.62	28.5
2816.49	26
2817.35	24
2818.21	24
2819.07	29.5
2819.94	22.5
2820.8	26.5
2821.66	26.5
2822.53	25
2823.39	27.5
2824.25	28
2825.11	24.5
2825.97	31
2826.84	26.5
2827.7	29
2828.56	26
2829.42	26
2830.28	23
2831.14	23.5
2832.01	27
2832.87	29.5
2833.73	27.5
2834.59	28.5
2835.45	22.5
2836.31	24
2837.17	25
2838.03	24
2838.89	26
2839.75	24.5
2840.61	28.5
2841.47	26
2842.33	24.5
2843.19	25.5
2844.05	24.5
2844.91	28
2845.77	24
2846.63	27.5
2847.48	22.5
2848.34	22
2849.2	27
2850.06	25.5
2850.92	26
2851.78	26.5
2852.64	22
2853.49	24
2854.35	22.5
2855.21	25.5
2856.07	24
2856.93	30
2857.78	28.5
2858.64	29.5
2859.5	21.5
2860.35	24.5
2861.21	27.5
2862.07	28
2862.93	30
2863.78	25.5
2864.64	27.5
2865.49	28.5
2866.35	27
2867.21	27.5
2868.06	28.5
2868.92	27.5
2869.77	28.5
2870.63	26.5
2871.49	30
2872.34	33
2873.2	27
2874.05	27
2874.91	28.5
2875.76	30.5
2876.62	28
2877.47	29
2878.32	32
2879.18	32
2880.03	30.5
2880.89	33
2881.74	32
2882.6	31
2883.45	31
2884.3	32
2885.16	35.5
2886.01	35.5
2886.86	35.5
2887.72	34.5
2888.57	36.5
2889.42	36
2890.27	38.5
2891.13	41.5
2891.98	44
2892.83	40.5
2893.68	41.5
2894.54	43
2895.39	44.5
2896.24	50.5
2897.09	46.5
2897.94	56
2898.8	53.5
2899.65	56.5
2900.5	59
2901.35	57.5
2902.2	61.5
2903.05	59
2903.9	69.5
2904.75	64.5
2905.6	68
2906.45	66.5
2907.3	65
2908.15	66
2909.01	66.5
2909.85	62.5
2910.7	61.5
2911.55	55
2912.4	51.5
2913.25	51.5
2914.1	53.5
2914.95	46
2915.8	42
2916.65	41
2917.5	44
2918.35	34.5
2919.2	38
2920.04	32.5
2920.89	33
2921.74	32
2922.59	30
2923.44	31
2924.29	31
2925.13	26
2925.98	29.5
2926.83	25.5
2927.68	31.5
2928.52	30
2929.37	29
2930.22	30
2931.06	28
2931.91	23.5
2932.76	28.5
2933.6	30.5
2934.45	29
2935.3	29.5
2936.14	23
2936.99	28.5
2937.83	26
2938.68	31
2939.53	28
2940.37	26.5
2941.22	29.5
2942.06	30
2942.91	24.5
2943.75	32.5
2944.6	23.5
2945.44	27
2946.29	25
2947.13	29
2947.98	28
2948.82	29.5
2949.66	30.5
2950.51	30
2951.35	33.5
2952.2	32.5
2953.04	31.5
2953.88	30
2954.73	32
2955.57	34
2956.41	29
2957.26	34
2958.1	34.5
2958.94	35
2959.79	39.5
2960.63	36
2961.47	40.5
2962.31	41.5
2963.15	41
2964	44
2964.84	44.5
2965.68	44.5
2966.52	45
2967.37	47
2968.21	44
2969.05	40
2969.89	36.5
2970.73	36
2971.57	32.0218
2972.41	34.9494
2973.25	34.4478
2974.09	36.9079
2974.93	30.1966
2975.77	33.5534
2976.62	32.9838
2977.46	30.6775
2978.3	32.4696
2979.14	28.0504
2979.98	33.2133
2980.81	30.3779
2981.65	26.6679
2982.49	29.7344
2983.33	28.4453
2984.17	26.7262
2985.01	26.8732
2985.85	24.4726
2986.69	25.6101
2987.53	27.9961
2988.37	28.1028
2989.21	23.4995
2990.04	25.1286
2990.88	25.6141
2991.72	25.1447
2992.56	24.7386
2993.4	27.1668
2994.23	26.957
2995.07	22.8754
2995.91	27.1136
2996.75	23.9051
2997.58	27.6998
2998.42	23.7976
2999.26	24.0248
3000.1	22.0952
3000.93	21.1911
3001.77	26.0616
3002.61	24.448
3003.44	25.114
3004.28	25.7456
3005.11	23.6322
3005.95	25.663
3006.79	25.0833
3007.62	23.6934
3008.46	21.5725
3009.29	23.4945
3010.13	24.1931
3010.97	23.3049
3011.8	23.0745
3012.64	23.2386
3013.47	24.7518
3014.31	22.9037
3015.14	23.0983
3015.98	23.701
3016.81	21.0433
3017.64	24.2555
3018.48	24.8505
3019.31	22.6538
3020.15	23.447
3020.98	23.8112
3021.82	24.6942
3022.65	22.1152
3023.48	22.7306
3024.32	23.812
3025.15	23.5741
3025.98	24
3026.82	23.82
3027.65	22.1123
3028.48	23.6995
3029.31	23.3292
3030.15	23.8155
3030.98	22.787
3031.81	22.7225
3032.64	23.7433
3033.48	23.473
3034.31	22.939
3035.14	22.5462
3035.97	21.9262
3036.8	24.3219
3037.64	24.0537
3038.47	25.1482
3039.3	24.4874
3040.13	21.2448
3040.96	21.513
3041.79	22.1888
3042.62	21.8015
3043.45	22
3044.28	22.6782
3045.12	23.2633
3045.95	23.6065
3046.78	21.3558
3047.61	21.8909
3048.44	23.5727
3049.27	22.0355
3050.1	22.5287
3050.92	22.0034
3051.75	24.1849
3052.58	24.4707
3053.41	25.1925
3054.24	25.7492
3055.07	24.48
3055.9	24.2178
3056.73	24.4932
3057.26	21
3058.09	24
3058.93	23
3059.76	25.5
3060.59	19
3061.43	24
3062.26	26
3063.09	22
3063.92	21.5
3064.76	23
3065.59	24
3066.42	24.5
3067.25	27
3068.08	20.5
3068.92	19.5
3069.75	21.5
3070.58	22
3071.41	21
3072.24	20.5
3073.07	22.5
3073.9	23
3074.73	21
3075.57	24
3076.4	25
3077.23	23.5
3078.06	23
3078.89	25.5
3079.72	23
3080.55	20.5
3081.38	25
3082.21	26.5
3083.04	25.5
3083.87	23
3084.7	23
3085.53	24
3086.36	23.5
3087.19	24
3088.01	22
3088.84	27.5
3089.67	25
3090.5	22
3091.33	21
3092.16	21.5
3092.99	21
3093.81	23
3094.64	20
3095.47	26
3096.3	22
3097.13	27
3097.95	23
3098.78	25.5
3099.61	22
3100.44	24.5
3101.26	25.5
3102.09	22.5
3102.92	23
3103.74	25
3104.57	22.5
3105.4	23.5
3106.22	21
3107.05	19
3107.88	22
3108.7	24
3109.53	25.5
3110.35	25.5
3111.18	22.5
3112.01	25
3112.83	22
3113.66	19
3114.48	23
3115.31	24.5
3116.13	24
3116.96	25.5
3117.78	25
3118.61	25
3119.43	24
3120.26	23.5
3121.08	25.5
3121.9	23.5
3122.73	20
3123.55	24.5
3124.38	19.5
3125.2	20
3126.02	24
3126.85	22.5
3127.67	25
3128.49	25.5
3129.32	24
3130.14	24.5
3130.96	28
3131.79	29.5
3132.61	20
3133.43	23.5
3134.25	21
3135.08	23
3135.9	24
3136.72	26
3137.54	21.5
3138.37	25.5
3139.19	26
3140.01	25
3140.83	24.5
3141.65	19
3142.47	26
3143.29	22.5
3144.12	19.5
3144.94	25
3145.76	23
3146.58	26
3147.4	22
3148.22	24
3149.04	26.5
3149.86	21
3150.68	20
3151.5	25
3152.32	25.5
3153.14	27.5
3153.96	24
3154.78	24
3155.6	26
3156.42	26.5
3157.24	20
3158.06	23
3158.88	24.5
3159.7	23.5
3160.51	23.5
3161.33	23
3162.15	25
3162.97	24.5
3163.79	21
3164.61	23.5
3165.42	23.5
3166.24	22.5
3167.06	21
3167.88	23
3168.7	25.5
3169.51	22.5
3170.33	21
3171.15	25
3171.97	27.5
3172.78	21.5
3173.6	23.5
3174.42	21
3175.23	26
3176.05	24
3176.87	26.5
3177.68	25
3178.5	28
3179.32	22
3180.13	27
3180.95	20.5
3181.76	22.5
3182.58	21
3183.4	18.5
3184.21	24
3185.03	22
3185.84	23.5
3186.66	22
3187.47	21
3188.29	23
3189.1	24
3189.92	26.5
3190.73	23.5
3191.55	24.5
3192.36	21.5
3193.17	25.5
3193.99	25.5
3194.8	23.5
3195.62	22
3196.43	27
3197.24	22
3198.06	24
3198.87	22
3199.68	23.5
3200.5	21
3201.31	22.5
3202.12	23
3202.94	23.5
3203.75	26.5
3204.56	22
3205.38	20.5
3206.19	21
3207	23.5
3207.81	20.5
3208.62	21
3209.44	22
3210.25	26
3211.06	21
3211.87	22.5
3212.68	24
3213.49	26.5
3214.31	24.5
3215.12	25.5
3215.93	22
3216.74	22
3217.55	28.5
3218.36	26.5
3219.17	24
3219.98	25.5
3220.79	28.5
3221.6	23
3222.41	22.5
3223.22	21
3224.03	22
3224.84	21.5
3225.65	21.5
3226.46	22
3227.27	22.5
3228.08	26
3228.89	23
3229.7	24
3230.51	25
3231.32	22.5
3232.13	24
3232.94	23
3233.74	26
3234.55	24
3235.36	22
3236.17	24
3236.98	20.5
3237.78	21.5
3238.59	26
3239.4	22.5
3240.21	23.5
3241.02	24.5
3241.82	22
3242.63	21
3243.44	23
3244.25	23
3245.05	20.5
3245.86	22
3246.67	23.5
3247.47	25.5
3248.28	23
3249.09	26
3249.89	20
3250.7	25
3251.5	28
3252.31	22
3253.12	29
3253.92	23
3254.73	26
3255.53	24
3256.34	25
3257.14	24.5
3257.95	27
3258.75	24
3259.56	24
3260.36	20.5
3261.17	23
3261.97	24.5
3262.78	21.5
3263.58	23.5
3264.39	25
3265.19	20.5
3265.99	21.5
3266.8	24.5
3267.6	25.5
3268.41	26
3269.21	23.5
3270.01	24.5
3270.82	23
3271.62	19
3272.42	23
3273.23	22.5
3274.03	23.5
3274.83	25.5
3275.64	19.5
3276.44	19.5
3277.24	22
3278.04	24
3278.85	27
3279.65	20
3280.45	23.5
3281.25	25.5
3282.05	22.5
3282.85	26
3283.66	21
3284.46	25
3285.26	24.5
3286.06	27.5
3286.86	25.5
3287.66	23
3288.46	24
3289.27	21
3290.07	19.5
3290.87	27
3291.67	24.5
3292.47	27.5
3293.27	26.5
3294.07	26
3294.87	23
3295.67	22
3296.47	23.5
3297.27	24
3298.07	25
3298.87	25
3299.67	24.5
3300.47	23
3301.26	20.5
3302.06	22.5
3302.86	27
3303.66	17.5
3304.46	23.5
3305.26	23
3306.06	25.5
3306.86	25.5
3307.65	21
3308.45	23
3309.25	22.5
3310.05	25.5
3310.85	24.5
3311.64	25
3312.44	24.5
3313.24	23
3314.04	27.5
3314.83	21
3315.63	25
3316.43	20
3317.22	26
3318.02	23
3318.82	22.5
3319.62	23.5
3320.41	27
3321.21	22
3322	25.5
3322.8	27
3323.6	26.5
3324.39	26
3325.19	24
3325.98	22.5
3326.78	29
3327.58	25.5
3328.37	27.5
3329.17	23
3329.96	24
3330.76	23
3331.55	23.5
3332.35	24
3333.14	28
3333.94	22.5
3334.73	23
3335.52	22.5
3336.32	24
3337.11	25
3337.91	23
3338.7	21.5
3339.5	24
3340.29	24
3341.08	27
3341.88	21
3342.67	24.5
3343.46	25.5
3344.26	18
3345.05	25
3345.84	22
3346.63	24.5
3347.43	23
3348.22	28
3349.01	30.5
3349.8	27
3350.6	23
3351.39	24.5
3352.18	20
3352.97	27.5
3353.77	22.5
3354.56	26
3355.35	24
3356.14	24.5
3356.93	22.5
3357.72	23.5
3358.51	23.5
3359.31	23.5
3360.1	24.5
3360.89	26
3361.68	19.5
3362.47	25
3363.26	21.5
3364.05	23
3364.84	24
3365.63	20
3366.42	27
3367.21	27
3368	25.5
3368.79	25
3369.58	22
3370.37	25
3371.16	22.5
3371.95	24.5
3372.74	24.5
3373.53	22
3374.32	26.5
3375.1	26
3375.89	27
3376.68	26
3377.47	27
3378.26	25
3379.05	23.5
3379.84	26
3380.62	23.5
3381.41	24.5
3382.2	24
3382.99	23
3383.78	27.5
3384.56	24
3385.35	26
3386.14	24
3386.93	24.5
3387.71	24
3388.5	23.5
3389.29	26.5
3390.07	25
3390.86	23
3391.65	21
3392.43	24.5
3393.22	26.5
3394.01	26
3394.79	25.5
3395.58	23
3396.36	24.5
3397.15	28
3397.94	20.5
3398.72	26
3399.51	20
3400.29	28
3401.08	24
3401.86	24.5
3402.65	26
3403.43	27
3404.22	23
3405	22
3405.79	23.5
3406.57	24
3407.36	23
3408.14	27.5
3408.93	28
3409.71	22
3410.49	21.5
3411.28	27
3412.06	25
3412.84	26.5
3413.63	30
3414.41	25
3415.2	24.5
3415.98	24.5
3416.76	26
3417.54	24
3418.33	24
3419.11	25
3419.89	29
3420.68	27
3421.46	23.5
3422.24	24.5
3423.02	22
3423.81	28
3424.59	24.5
3425.37	27.5
3426.15	22
3426.93	24
3427.71	25.5
3428.5	26.5
3429.28	22
3430.06	23
3430.84	25.5
3431.62	24
3432.4	25
3433.18	23.5
3433.96	23.5
3434.75	22
3435.53	24
3436.31	25
3437.09	23
3437.87	22
3438.65	28
3439.43	23
3440.21	23.5
3440.99	24
3441.77	24.5
3442.55	24
3443.33	21
3444.1	21.5
3444.88	24.5
3445.66	26
3446.44	24.5
3447.22	25
3448	26
3448.78	18.5
3449.56	24.5
3450.34	22.5
3451.11	23
3451.89	26
3452.67	25.5
3453.45	24.5
3454.23	18
3455	24.5
3455.78	26
3456.56	25
3457.34	24.5
3458.11	24.5
3458.89	23
3459.67	23.5
3460.45	25.5
3461.22	25
3462	22.5
3462.78	23
3463.55	23
3464.33	24.5
3465.11	27.5
3465.88	24.5
3466.66	22
3467.44	24
3468.21	24
3468.99	22
3469.76	21
3470.54	24
3471.32	27
3472.09	25
3472.87	23
3473.64	28
3474.42	25
3475.19	23
3475.97	26
3476.74	22
3477.52	24.5
3478.29	27
3479.07	25.5
3479.84	24
3480.61	22
3481.39	25.5
3482.16	20.5
3482.94	24.5
3483.71	25
3484.48	24
3485.26	26.5
3486.03	23.5
3486.81	26
3487.58	23
3488.35	22
3489.13	22.5
3489.9	22
3490.67	23
3491.44	22.5
3492.22	23
3492.99	26
3493.76	23
3494.54	22
3495.31	22.5
3496.08	22.5
3496.85	24
3497.62	24.5
3498.4	22
3499.17	24.5
3499.94	23
