#Acq. time (s)=	5
#Accumulations=	5
#Range (cm-¹)=	100...3500
#Windows=	4
#Autofocus=	Off
#AutoExposure=	Off
#Spike filter=	Multiple accum.
#Delay time (s)=	0
#Binning=	1
#Readout mode=	Signal
#DeNoise=	Off
#ICS correction=	Off
#Dark correction=	Off
#Inst. Process=	Off
#Instrument=	LabRAM HR Evol
#Detector=	Syncerity OE
#Objective=	x100_VIS
#Grating=	600 (500nm)
#ND Filter=	25%
#Laser=	633nm_Edge
#Hole=	100.021
#Range=	Visible
#Project=	verificaciones
#Sample=	at4
#Site=	plain
#Title=	bolusat4plain
#Remark=	
#Date=	14.01.2026 14:00
#Acquired=	14.01.2026 14:00:48
100.618	26
101.901	36.5
103.185	30.5
104.468	35.5
105.751	32
107.033	29
108.316	28.5
109.598	28
110.88	30.5
112.162	31
113.445	27
114.727	32.5
116.008	31
117.289	33
118.57	29
119.85	28
121.13	29
122.411	31
123.691	32.5
124.97	35
126.25	33.5
127.529	25
128.808	28.5
130.086	34
131.364	28
132.643	32.5
133.921	35.5
135.199	32.5
136.477	38
137.755	38.5
139.032	35
140.309	34
141.586	37.5
142.863	39.5
144.14	38.5
145.415	35
146.691	38
147.967	39.5
149.243	39.5
150.518	37.5
151.794	38
153.067	40.5
154.342	41.5
155.617	41.5
156.892	40.5
158.166	44.5
159.439	38
160.712	45
161.986	36.5
163.26	40.5
164.531	41
165.805	37.5
167.077	40
168.35	44
169.621	40
170.893	33
172.165	36
173.437	41
174.707	41
175.979	41.5
177.25	38
178.519	38.5
179.79	36
181.061	37
182.33	39
183.6	37.5
184.87	39
186.138	42
187.408	40.5
188.676	40
189.945	40.5
191.214	38
192.481	43
193.75	36
195.016	40
196.285	42
197.552	42
198.819	33.5
200.086	37
201.352	33.5
202.619	39
203.884	37
205.151	38
206.416	37
207.682	36
208.947	32.5
210.213	39.5
211.477	33.5
212.742	32
214.006	36
215.271	39
216.535	33
217.799	34.5
219.062	33.5
220.326	33
221.589	33.5
222.851	34.5
224.115	33
225.377	32
226.64	32
227.901	30
229.163	33.5
230.425	31
231.686	27.5
232.947	31
234.209	31.5
235.469	31.5
236.729	31.5
237.991	32.5
239.25	32.5
240.51	29
241.771	34
243.03	26.5
244.288	31
245.549	29
246.807	27
248.065	30
249.323	32.5
250.583	32
251.84	31.5
253.098	34
254.355	30
255.613	32
256.87	28
258.127	29.5
259.383	27.5
260.639	28.5
261.897	30
263.153	29
264.408	33
265.664	27.5
266.919	32
268.174	27
269.43	31
270.685	32.5
271.939	24.5
273.193	31
274.447	29.5
275.701	31
276.955	25.5
278.208	30.5
279.461	27
280.714	29
281.968	28
283.221	27
284.473	29
285.726	29
286.977	26.5
288.229	31.5
289.481	29.5
290.732	27
291.983	32
293.234	30.5
294.485	29
295.736	32
296.986	31.5
298.236	31.5
299.486	29.5
300.736	26
301.985	30.5
303.233	23
304.482	31.5
305.731	33.5
306.98	29.5
308.228	26.5
309.477	29.5
310.725	27
311.973	29
313.22	29
314.468	31
315.714	29
316.961	31
318.208	31
319.455	29
320.701	26
321.947	25
323.192	28
324.438	31
325.684	28
326.929	31.5
328.175	27
329.418	26
330.663	25
331.908	30
333.152	27
334.395	26
335.639	23.5
336.883	28.5
338.127	30.5
339.369	29
340.612	27.5
341.855	29
343.097	28
344.34	30.5
345.582	24
346.823	27
348.065	25.5
349.307	30
350.547	32.5
351.789	32
353.03	23
354.27	32.5
355.511	32.5
356.75	24
357.991	25.5
359.231	26.5
360.47	25.5
361.709	30
362.948	27.5
364.187	27.5
365.427	28
366.664	27
367.903	30.5
369.14	30
370.379	23.5
371.616	29.5
372.854	26
374.091	27
375.328	30.5
376.564	31
377.802	28
379.037	27.5
380.274	25
381.51	29
382.745	23
383.981	28
385.216	25
386.452	28
387.686	30
388.922	26.5
390.155	27.5
391.389	29.5
392.624	28.5
393.857	26
395.091	29.5
396.325	23.5
397.558	28.5
398.79	28.5
400.024	27
401.256	26
402.488	26.5
403.721	25
404.953	29
406.184	26
407.417	26.5
408.648	27.5
409.878	27
411.109	24
412.341	29.5
413.571	27
414.801	29
416.031	27
417.262	24.5
418.491	26
419.72	24
420.949	30
422.178	30
423.408	29.5
424.637	28.5
425.865	31.5
427.093	29.5
428.32	29
429.548	29
430.777	28.5
432.004	30
433.231	28
434.458	27.5
435.685	31.5
436.911	30.5
438.137	31.5
439.363	32
440.589	30.5
441.815	27.5
443.042	27.5
444.267	29
445.492	31
446.717	22
447.942	29
449.166	26.5
450.39	29
451.615	32
452.838	29.5
454.062	28
455.286	29
456.509	26.5
457.732	30
458.955	29.5
460.178	27
461.399	29
462.621	33.5
463.843	28
465.065	33
466.287	32.5
467.508	32
468.73	36.5
469.951	34
471.172	33.5
472.393	35.5
473.612	36
474.832	37.5
476.052	42
477.272	37
478.492	42
479.712	48.5
480.93	44
482.149	55
483.368	50
484.587	56
485.806	59
487.023	57.5
488.241	57.5
489.459	51
490.677	55.5
491.893	59.5
493.111	49.5
494.328	55
495.543	51.5
496.76	52
497.977	42.5
499.194	44
500.409	45
501.625	43.5
502.841	40
504.055	36
505.27	41.5
506.486	34
507.699	35.5
508.914	33.5
510.128	37.5
511.342	35.5
512.557	39
513.77	34
514.984	34
516.196	33.5
517.41	33
518.623	28
519.835	31
521.048	34
522.259	33.5
523.472	36
524.683	33
525.895	33
527.106	31.5
528.318	33
529.528	28.5
530.74	28
531.949	32.5
533.161	33
534.37	32.5
535.581	31.5
536.79	29
537.999	24
539.209	27.5
540.418	30
541.627	26.5
542.835	28
544.043	31
545.253	26.5
546.46	27.5
547.669	31
548.876	24
550.083	30.5
551.292	29
552.498	29
553.705	29
554.912	31.5
556.118	27.5
557.324	23
558.53	26
559.737	26.5
560.942	29
562.147	23
563.353	27.5
564.558	31
565.763	29
566.967	28
568.173	28
569.377	27.5
570.58	25
571.784	30
572.987	31.5
574.192	30.5
575.395	29
576.598	29.5
577.8	30.5
579.003	30.5
580.205	29.5
581.407	26.5
582.61	31.5
583.812	30
585.014	29.5
586.215	29
587.416	28.5
588.617	25
589.818	30
591.018	29.5
592.219	26.5
593.419	26
594.619	31.5
595.819	30
597.02	28
598.219	25.5
599.418	27
600.617	30
601.816	24.5
603.015	30.5
604.213	31.5
605.41	31
606.608	28.5
607.806	28
609.004	29
610.201	32
611.399	32.5
612.596	28.5
613.793	27.5
614.989	28.5
616.186	25
617.382	32
618.579	27.5
619.775	33.5
620.969	27
622.165	28
623.36	29
624.555	31
625.75	27
626.945	28.5
628.139	32
629.333	25
630.527	25
631.721	29.5
632.915	29
634.108	30.5
635.301	26
636.495	31.5
637.688	28.5
638.88	27
640.072	27.5
641.265	26
642.456	29
643.648	31
644.84	29.5
646.032	25.5
647.222	24.5
648.414	26
649.605	26
650.795	30
651.986	28
653.177	27.5
654.366	27
655.556	28
656.745	33
657.935	27.5
659.125	30
660.313	28.5
661.503	31
662.69	27.5
663.879	29.5
665.067	28
666.256	30
667.444	32.5
668.631	29.5
669.819	32
671.006	28
672.194	26
673.38	29
674.567	31.5
675.753	32
676.94	32.5
678.125	33
679.311	27
680.497	35
681.682	29.5
682.868	37
684.053	35
685.238	37
686.422	32
687.606	33.5
688.792	32.5
689.975	39
691.159	33.5
692.343	34.5
693.526	35
694.71	29
695.893	35.5
697.076	38
698.259	37
699.441	36.5
700.623	35.5
701.805	37
702.988	43.5
704.169	45.5
705.35	46.5
706.533	45
707.714	49.5
708.894	50.5
710.075	51
711.255	47
712.436	43
713.616	42.5
714.796	39.5
715.975	32.5
717.155	30
718.335	30
719.514	28
720.693	31.5
721.872	31
723.05	31
724.228	29.5
725.406	25
726.585	30.5
727.763	27.5
728.941	29.5
730.118	30
731.295	29
732.472	28
733.649	27.5
734.825	27
736.002	30
737.178	27.5
738.354	26
739.53	31.5
740.705	28.5
741.881	29.5
743.056	25
744.231	29.5
745.406	27.5
746.581	26
747.755	26
748.93	31
750.104	31.5
751.278	27.5
752.452	27
753.625	29
754.799	27.5
755.972	29
757.144	31
758.317	29
759.489	27.5
760.662	29
761.834	27
763.006	29.5
764.178	28.5
765.349	29
766.521	29.5
767.692	24
768.863	28.5
770.034	27
771.204	30.5
772.374	29
773.545	33
774.715	31.5
775.885	26.5
777.054	30
778.224	30
779.393	25.5
780.562	28
781.731	33.5
782.9	30.5
784.069	32.5
785.236	32
786.405	31.5
787.573	33
788.74	25
789.908	30
791.074	30.5
792.242	28.5
793.409	28.5
794.575	28
795.742	28.5
796.909	26
798.074	30
799.241	28.5
800.406	26.5
801.572	30
802.737	28.5
803.902	25
805.067	28.5
806.232	25
807.396	28
808.561	28
809.725	28.5
810.889	30.5
812.052	30
813.217	29.5
814.38	28
815.544	29
816.706	26
817.87	28
819.032	28.5
820.195	28
821.357	26
822.518	28.5
823.681	30
824.842	31
826.005	27
827.165	24
828.326	23.5
829.488	26.5
830.648	22
831.808	25.5
832.97	30.5
834.129	29.5
835.289	28
836.45	27.5
837.609	25
838.768	25.5
839.927	26
841.087	25.5
842.245	27
843.404	30.5
844.562	30
845.721	27
846.879	29.5
848.036	30.5
849.194	29
850.351	25
851.509	26.5
852.666	26.5
853.823	30.5
854.979	30
856.136	29
857.292	31
858.448	29
859.605	27.5
860.761	27.5
861.916	28.5
863.071	31
864.226	30.5
865.381	28.5
866.536	29
867.691	29.5
868.845	22.5
869.999	32.5
871.153	28.5
872.307	27.5
873.461	34
874.614	31
875.767	29
876.92	26
878.073	25.5
879.226	28.5
880.379	27
881.531	27.5
882.683	29
883.835	25
884.987	29
886.139	26.5
887.291	28
888.442	28
889.593	29
890.743	26.5
891.893	30
893.044	23
894.195	28.5
895.345	28.5
896.495	28.5
897.643	26
898.793	26.5
899.943	25
901.092	26
902.241	28
903.389	28
904.538	24.5
905.687	27.5
906.835	28.5
907.982	27.5
909.13	24.5
910.278	22
911.426	24
912.572	26.5
913.72	26
914.867	28
916.013	28
917.16	25.5
918.306	26.5
919.451	26
920.598	27
921.744	27.5
922.889	28
924.035	23.5
925.18	31
926.324	27
927.47	23.5
928.614	28.5
929.758	24
930.902	24
932.047	24.5
933.191	23
934.334	26
935.478	29
936.621	28.5
937.764	25.5
938.906	28
940.05	24.5
941.192	24.5
942.335	25
943.476	24
944.619	26.5
945.76	30
946.901	24
948.043	27.5
949.184	27
950.326	25
951.466	29.5
952.606	26.5
953.747	24
954.887	24.5
956.028	25.5
957.167	26
958.307	28
959.447	31
960.586	27
961.725	28.5
962.865	27
964.003	26
965.141	24.5
966.279	22.5
967.418	23
968.556	25
969.693	25
970.831	26.25
971.969	26.5
973.106	23.5
974.243	27
975.38	30
976.517	25
977.654	23
978.79	27
979.926	25
981.061	28
982.197	28
983.334	31
984.469	24.5
985.604	25
986.739	22
987.873	26
989.008	27.5
990.142	26.5
991.277	31
992.411	25
993.544	25.5
994.679	32.5
995.813	29
996.946	27
998.079	28.5
999.212	29
1000.35	26
1001.48	29.5
1002.61	27
1003.74	26
1004.87	27
1006.01	23.5
1007.14	25.5
1008.27	24.5
1009.4	23.5
1010.53	23.5
1011.66	23.5
1012.79	23
1013.92	22.5
1015.05	23.5
1016.18	20
1017.31	22
1018.44	27.5
1019.57	26
1020.7	23
1021.83	25.5
1022.96	24
1024.09	25
1025.22	28
1026.35	22.5
1027.48	28
1028.6	25
1029.73	28.5
1030.86	24
1031.99	22.5
1033.12	26
1034.24	26
1035.37	25.5
1036.5	28
1037.62	24
1038.75	30
1039.88	24
1041	26.5
1042.13	24
1043.25	18.5
1044.38	22.5
1045.5	26.5
1046.63	25
1047.76	30.5
1048.88	25
1050	24
1051.13	28.5
1052.25	24.5
1053.38	27
1054.5	24
1055.63	24
1056.75	28.5
1057.87	22.5
1058.99	23.5
1060.12	23
1061.24	28
1062.36	25
1063.49	20
1064.61	27.5
1065.73	25.5
1066.85	30.5
1067.97	27
1069.1	26.5
1070.22	27.5
1071.34	28.5
1072.46	32.5
1073.58	28.5
1074.7	24.5
1075.82	26.5
1076.94	25
1078.06	23.5
1079.18	24.5
1080.3	26.5
1081.42	24
1082.54	25
1083.66	22
1084.78	24
1085.9	22
1087.02	28
1088.13	26
1089.25	25
1090.37	26.5
1091.49	25
1092.61	26
1093.72	23.5
1094.84	29
1095.96	29
1097.08	27.5
1098.19	27
1099.31	25.5
1100.42	25
1101.54	22.5
1102.66	25.5
1103.77	23
1104.89	26
1106	22
1107.12	24
1108.23	27.5
1109.35	20
1110.46	26
1111.58	28.5
1112.69	26.5
1113.81	26
1114.92	30
1116.04	27
1117.15	25
1118.26	25
1119.38	24.5
1120.49	24
1121.6	23.5
1122.72	24
1123.83	26.5
1124.94	19.5
1126.05	26.5
1127.17	27
1128.28	21
1129.39	27.5
1130.5	23
1131.61	27
1132.72	26
1133.83	25
1134.94	25.5
1136.06	28
1137.17	27
1138.27	26.5
1139.39	23
1140.5	25
1141.61	22.5
1142.72	23
1143.82	25.5
1144.93	27
1146.04	24
1147.15	27
1148.26	26.5
1149.37	26
1150.48	26.5
1151.58	26
1152.69	21.5
1153.8	29
1154.91	26.5
1156.02	24.5
1157.12	22
1158.23	25
1159.34	22
1160.44	27.5
1161.55	21.5
1162.66	24.5
1163.76	27
1164.87	28.5
1165.97	25.5
1167.08	23.5
1168.18	24.5
1169.29	26
1170.39	25
1171.5	25
1172.6	24
1173.71	24
1174.81	25
1175.92	22.5
1177.02	23.5
1178.13	24
1179.23	24.5
1180.33	24
1181.44	26
1182.54	28
1183.64	26
1184.74	24.5
1185.85	28
1186.95	23
1188.05	23.5
1189.15	22
1190.26	22.5
1191.36	23
1192.46	26
1193.56	25
1194.66	25.4894
1195.76	22.974
1196.86	24.012
1197.96	27.129
1199.06	23.8302
1200.16	22.9549
1201.26	25.4699
1202.36	22.7107
1203.46	22.5428
1204.56	27.5819
1205.66	24.299
1206.76	27.0547
1207.86	21.8125
1208.96	23.6516
1210.06	24.2802
1211.16	25.8481
1212.25	24.2597
1213.35	23.8378
1214.45	24.0029
1215.55	23.9067
1216.65	22.8943
1217.74	25.585
1218.84	23.1124
1219.94	22.5626
1221.03	24.0046
1222.13	25.247
1223.23	23.9988
1224.32	26.0014
1225.42	28.2469
1226.52	26.6497
1227.61	25.2663
1228.71	25.7794
1229.8	23.2207
1230.9	24.8953
1231.99	23.6723
1233.09	23.7357
1234.18	25.6194
1235.28	24.8709
1236.37	26.0482
1237.47	24.6505
1238.56	26.1078
1239.65	26.6458
1240.75	26.8096
1241.84	27.0274
1242.93	25.4901
1244.03	24.8835
1245.12	26.1933
1246.21	23.9519
1247.31	24.7753
1248.4	24.5466
1249.49	25.0348
1250.58	25.5842
1251.67	26.1569
1252.77	25.573
1253.86	24.2362
1254.95	25.7734
1256.04	25.5614
1257.13	26.7881
1258.22	26.9461
1259.31	25.6909
1260.4	27.2937
1261.49	25.4534
1262.58	26.2924
1263.67	26.6909
1264.76	26.7453
1265.85	26.6808
1266.94	23.8015
1268.03	22.8736
1269.12	24.6444
1270.21	26.0928
1271.3	25.1311
1272.39	24.0924
1273.47	26.0495
1274.56	23.7543
1275.65	23.6096
1276.74	22.9822
1277.83	26.189
1278.91	25.4394
1280	24.967
1281.09	22.2804
1282.17	25.5418
1283.26	26.7716
1284.35	24.1688
1285.43	23.673
1286.52	22.6796
1287.61	21.8427
1288.69	24.4889
1289.78	24.7368
1290.86	23.2285
1291.95	24.0243
1293.03	23.7586
1294.12	23.5982
1295.2	24.284
1296.29	24.3328
1297.37	26.4659
1298.46	21.9
1299.54	22.6513
1300.63	25.6404
1301.71	25
1302.79	24.3065
1303.88	23.1121
1304.96	22.551
1306.04	25.1048
1306.5	27
1307.59	21
1308.68	29
1309.76	27.5
1310.85	22.5
1311.94	27.5
1313.03	28
1314.11	22.5
1315.2	27
1316.29	21
1317.37	27
1318.46	26
1319.55	25.5
1320.63	25.5
1321.72	23
1322.81	26.5
1323.89	25
1324.98	27
1326.06	27
1327.15	25.5
1328.23	24.5
1329.32	22
1330.4	25
1331.49	21.5
1332.57	25
1333.66	21
1334.74	23
1335.82	26.5
1336.91	24.5
1337.99	27.5
1339.07	23
1340.16	24
1341.24	25.5
1342.32	30
1343.4	24
1344.49	25
1345.57	25.5
1346.65	25
1347.73	24
1348.82	21
1349.9	24
1350.98	22.5
1352.06	23
1353.14	25.5
1354.22	28.5
1355.3	22.5
1356.38	24
1357.46	25
1358.54	28
1359.62	26
1360.7	25
1361.78	25
1362.86	24
1363.94	26
1365.02	24
1366.1	21
1367.18	22
1368.26	24.5
1369.34	25
1370.41	25
1371.49	24
1372.57	28.5
1373.65	26.5
1374.72	24.5
1375.8	25
1376.88	26.5
1377.96	27.5
1379.03	26
1380.11	25
1381.19	27
1382.26	26
1383.34	26
1384.42	26
1385.49	24
1386.57	26.5
1387.64	28
1388.72	28.5
1389.79	23
1390.87	31.5
1391.94	23
1393.02	26.5
1394.09	30
1395.17	26
1396.24	29
1397.31	26
1398.39	28.5
1399.46	30.5
1400.54	29
1401.61	30
1402.68	32
1403.76	28
1404.83	27
1405.9	26.5
1406.97	29.5
1408.05	31
1409.12	30
1410.19	30
1411.26	34
1412.33	23
1413.4	30.5
1414.48	33
1415.55	31.5
1416.62	30
1417.69	28
1418.76	30.5
1419.83	27
1420.9	24
1421.97	30
1423.04	27
1424.11	28
1425.18	31
1426.25	23.5
1427.32	26.5
1428.39	28
1429.46	29
1430.52	28
1431.59	26
1432.66	25.5
1433.73	26.5
1434.8	26
1435.87	25
1436.93	24.5
1438	29.5
1439.07	28
1440.14	27
1441.2	27.5
1442.27	30
1443.34	27
1444.4	26
1445.47	28.5
1446.54	27
1447.6	23.5
1448.67	28
1449.73	29.5
1450.8	26
1451.86	29.5
1452.93	26.5
1453.99	26.5
1455.06	24.5
1456.12	24
1457.19	27
1458.25	24
1459.32	26
1460.38	28.5
1461.45	23.5
1462.51	24
1463.57	23
1464.64	25.5
1465.7	26.5
1466.76	28.5
1467.82	25
1468.89	27.5
1469.95	26.5
1471.01	25
1472.07	26.5
1473.14	25
1474.2	25
1475.26	27
1476.32	30.5
1477.38	29
1478.44	29.5
1479.5	23
1480.57	23.5
1481.63	21
1482.69	23
1483.75	27
1484.81	29
1485.87	26
1486.93	27.5
1487.99	29
1489.05	31
1490.1	26.5
1491.17	27
1492.22	23
1493.28	24
1494.34	22
1495.4	22
1496.46	26
1497.52	22.5
1498.57	26.5
1499.63	27
1500.69	26
1501.75	27.5
1502.8	23.5
1503.86	25.5
1504.92	27
1505.98	26.5
1507.03	20
1508.09	23
1509.15	29
1510.2	26.5
1511.26	23.5
1512.31	24.5
1513.37	24
1514.42	25.5
1515.48	24.5
1516.53	26
1517.59	25
1518.64	28.5
1519.7	24.5
1520.75	24.5
1521.81	28.5
1522.86	22
1523.92	27
1524.97	27
1526.02	27.5
1527.08	25.5
1528.13	25.5
1529.18	23
1530.24	26.5
1531.29	28.5
1532.34	25
1533.39	26.5
1534.45	26
1535.5	27
1536.55	25
1537.6	29
1538.65	27
1539.71	25.5
1540.76	24.5
1541.81	28.5
1542.86	27
1543.91	26.5
1544.96	25.5
1546.01	28.5
1547.06	27
1548.11	27.5
1549.16	27.5
1550.21	25
1551.26	26
1552.31	25
1553.36	26
1554.41	28
1555.46	25
1556.51	25.5
1557.56	27.5
1558.6	28.5
1559.65	25
1560.7	22
1561.75	29
1562.8	24.5
1563.84	26
1564.89	26
1565.94	28.5
1566.99	23
1568.03	24
1569.08	25
1570.13	24
1571.17	26.5
1572.22	27.5
1573.27	29
1574.31	26.5
1575.36	25
1576.4	24
1577.45	25
1578.5	26
1579.54	24
1580.59	29
1581.63	24
1582.68	24.5
1583.72	25.5
1584.76	26.5
1585.81	27.5
1586.85	30.5
1587.9	28
1588.94	27
1589.98	27
1591.03	25
1592.07	26.5
1593.11	28
1594.16	28
1595.2	27
1596.24	27.5
1597.29	23
1598.33	21.5
1599.37	20.5
1600.41	24
1601.45	26.5
1602.49	25
1603.54	27
1604.58	28
1605.62	27.5
1606.66	21
1607.7	27.5
1608.74	26.5
1609.78	26
1610.82	20.5
1611.86	19.5
1612.9	29
1613.94	28
1614.98	21.5
1616.02	23
1617.06	29
1618.1	24.5
1619.14	21.5
1620.18	30
1621.22	22.5
1622.25	25.5
1623.29	28
1624.33	26.5
1625.37	24
1626.41	30
1627.45	27
1628.48	25
1629.52	22.5
1630.56	23
1631.59	26.5
1632.63	28.5
1633.67	26
1634.7	27.5
1635.74	24
1636.78	29
1637.81	24.5
1638.85	26.5
1639.88	25
1640.92	27.5
1641.96	29
1642.99	23
1644.03	24
1645.06	26.5
1646.1	26.5
1647.13	24
1648.17	30.5
1649.2	23.5
1650.23	28
1651.27	25
1652.3	29
1653.33	23
1654.37	25
1655.4	26
1656.44	26.5
1657.47	29
1658.5	25
1659.53	26
1660.57	26
1661.6	25.5
1662.63	22
1663.66	24.5
1664.69	28
1665.73	26
1666.76	24.5
1667.79	26.5
1668.82	25
1669.85	25
1670.88	25.5
1671.91	25.5
1672.94	26.5
1673.97	27.5
1675.01	25.5
1676.03	24.5
1677.07	22
1678.1	26
1679.12	25.5
1680.15	27
1681.18	23
1682.21	27.5
1683.24	28
1684.27	23
1685.3	26
1686.33	24.5
1687.36	25
1688.38	26.5
1689.41	27.5
1690.44	25
1691.47	29
1692.5	26
1693.52	27
1694.55	26
1695.58	25.5
1696.6	24
1697.63	26
1698.66	26.5
1699.68	24
1700.71	28
1701.74	25
1702.76	27.5
1703.79	25
1704.81	27
1705.84	25
1706.86	25
1707.89	25.5
1708.91	27.5
1709.94	25.5
1710.96	23
1711.99	24.5
1713.01	22.5
1714.04	26.5
1715.06	26
1716.08	26
1717.11	26.5
1718.13	23
1719.16	26.5
1720.18	28
1721.2	25.5
1722.22	26
1723.25	21
1724.27	26
1725.29	26
1726.31	24.5
1727.34	31
1728.36	27
1729.38	26
1730.4	24.5
1731.42	22
1732.44	26.5
1733.47	26
1734.49	25
1735.51	29
1736.53	24
1737.55	24
1738.57	27
1739.59	26.5
1740.61	24.5
1741.63	28.5
1742.65	27.5
1743.67	22.5
1744.69	26
1745.71	26.5
1746.73	28
1747.75	27.5
1748.76	31.5
1749.78	27.5
1750.8	25
1751.82	28.5
1752.84	23.5
1753.86	23.5
1754.87	27.5
1755.89	26.5
1756.91	22
1757.93	24.5
1758.94	24.5
1759.96	23.5
1760.98	27
1761.99	26
1763.01	26
1764.03	21
1765.04	24
1766.06	24
1767.08	25
1768.09	24
1769.11	24.5
1770.12	27.5
1771.14	24.5
1772.15	23
1773.17	24
1774.18	23
1775.2	21.5
1776.21	25
1777.23	26
1778.24	24
1779.25	29
1780.27	26.5
1781.28	25.5
1782.3	29
1783.31	22
1784.32	27
1785.34	24.5
1786.35	26
1787.36	26
1788.37	25
1789.39	23
1790.4	24.5
1791.41	25.5
1792.42	26
1793.43	27
1794.45	26.5
1795.46	24.5
1796.47	28.5
1797.48	24
1798.49	27
1799.5	24.5
1800.51	25
1801.52	24
1802.53	27.5
1803.54	25.5
1804.55	24.5
1805.56	26.5
1806.57	25
1807.58	25
1808.59	22.5
1809.6	22.5
1810.61	27
1811.62	28
1812.63	26
1813.64	27
1814.65	28
1815.66	26
1816.66	24
1817.67	25.5
1818.68	25.5
1819.69	23.5
1820.69	22.5
1821.7	24
1822.71	25
1823.72	23.5
1824.72	23.5
1825.73	28.5
1826.74	27
1827.74	26
1828.75	24
1829.76	27
1830.76	24.5
1831.77	22.5
1832.77	25.5
1833.78	22
1834.79	25.5
1835.79	27
1836.8	26.5
1837.8	25.5
1838.81	26.5
1839.81	25
1840.81	25
1841.82	27
1842.82	23.5
1843.83	25
1844.83	24
1845.83	25
1846.84	23
1847.84	22.5
1848.84	26.5
1849.85	25.5
1850.85	24
1851.85	23.5
1852.86	25.5
1853.86	27.5
1854.86	26
1855.86	25
1856.86	22
1857.87	26
1858.87	24.5
1859.87	25.5
1860.87	26.5
1861.87	21
1862.87	30.5
1863.88	27.5
1864.88	25
1865.88	23
1866.88	22.5
1867.88	23
1868.88	26
1869.88	26
1870.88	28
1871.88	22.5
1872.88	25
1873.88	24
1874.87	24.5
1875.87	26.5
1876.87	27
1877.87	25
1878.87	24
1879.87	26.5
1880.87	22
1881.86	25.5
1882.86	27
1883.86	24.5
1884.86	23.5
1885.86	26
1886.85	25
1887.85	22
1888.85	24.5
1889.84	26
1890.84	24
1891.84	24.5
1892.83	24.5
1893.83	25
1894.83	22.5
1895.82	27.5
1896.82	24
1897.81	25.5
1898.81	27.5
1899.81	25
1900.8	21.5
1901.8	22
1902.79	27
1903.78	26.5
1904.78	22
1905.77	28
1906.77	25
1907.76	29
1908.76	27
1909.75	25
1910.74	25
1911.74	22
1912.73	22.5
1913.72	26.5
1914.72	22
1915.71	22
1916.7	23.5
1917.7	25.5
1918.69	22.5
1919.68	24
1920.67	27
1921.66	25.5
1922.66	23.5
1923.65	25
1924.64	26.5
1925.63	25.5
1926.62	27.5
1927.61	25
1928.6	25
1929.59	25.5
1930.59	24.5
1931.58	24.5
1932.57	25.5
1933.56	22
1934.55	25.5
1935.54	25
1936.53	27
1937.52	25
1938.51	26
1939.49	25
1940.48	25.5
1941.47	23
1942.46	24.5
1943.45	23.5
1944.44	21
1945.43	25.5
1946.42	21.5
1947.4	21.5
1948.39	26
1949.38	25.5
1950.37	24
1951.35	23.5
1952.34	22.5
1953.33	26.5
1954.31	25.5
1955.3	25
1956.29	25.5
1957.27	23
1958.26	26
1959.25	24.5
1960.23	28
1961.22	27
1962.21	23.5
1963.19	25.5
1964.18	22
1965.16	22
1966.15	21.5
1967.13	20.5
1968.12	24.5
1969.1	25
1970.09	26.5
1971.07	22.5
1972.05	20
1973.04	24.5
1974.02	23
1975.01	22
1975.99	25
1976.97	28
1977.96	23.5
1978.94	26
1979.92	26
1980.91	29
1981.89	27
1982.87	24
1983.85	21.5
1984.84	22
1985.82	23
1986.8	24
1987.78	23
1988.76	25.5
1989.74	22
1990.73	26.5
1991.71	23.5
1992.69	23.5
1993.67	23.5
1994.65	25.5
1995.63	22
1996.61	23
1997.59	27
1998.57	22.5
1999.55	22.5
2000.53	27
2001.51	24
2002.49	23
2003.47	24
2004.45	25
2005.43	25
2006.41	23
2007.39	25
2008.37	23
2009.34	23.5
2010.32	23
2011.3	21.5
2012.28	23
2013.26	23
2014.23	25.5
2015.21	22.5
2016.19	24
2017.17	23
2018.14	25.5
2019.12	28
2020.1	26
2021.07	20
2022.05	25.5
2023.03	25.5
2024	26.5
2024.98	24
2025.96	25
2026.93	26
2027.91	27
2028.88	26.5
2029.86	23
2030.83	24
2031.81	22
2032.78	25.5
2033.76	19.5
2034.73	22
2035.71	24.5
2036.68	22.5
2037.66	21
2038.63	25.5
2039.6	24
2040.58	26
2041.55	21
2042.52	23
2043.5	25
2044.47	19.5
2045.44	25
2046.42	26
2047.39	26.5
2048.36	24.5
2049.33	20.5
2050.31	24.5
2051.28	23.5
2052.25	26.5
2053.22	23.5
2054.19	25
2055.17	23
2056.14	22.5
2057.11	25
2058.08	25
2059.05	20.5
2060.02	27
2060.99	22.5
2061.96	28
2062.93	23
2063.9	22.5
2064.87	20.5
2065.84	26.5
2066.81	22.5
2067.78	23.5
2068.75	23
2069.72	24
2070.69	24.5
2071.66	23
2072.63	27
2073.6	24.5
2074.56	23
2075.53	25
2076.5	22.5
2077.47	27
2078.44	22
2079.4	24.5
2080.37	26
2081.34	19
2082.31	18.5
2083.27	23.5
2084.24	22
2085.21	22.5
2086.18	22.5
2087.14	24.5
2088.11	26
2089.07	23.5
2090.04	19.5
2091.01	23
2091.97	22
2092.94	22
2093.9	25
2094.87	25
2095.83	26.5
2096.8	23
2097.76	25.5
2098.73	25
2099.69	20.5
2100.66	26
2101.62	26
2102.59	24
2103.55	27
2104.52	23
2105.48	25
2106.44	26
2107.41	25
2108.37	27
2109.33	22
2110.3	24
2111.26	28.5
2112.22	22
2113.18	24.5
2114.15	22.5
2115.11	23.5
2116.07	24
2117.03	23.5
2118	25.5
2118.96	26
2119.92	22.5
2120.88	18.5
2121.84	25
2122.8	21
2123.76	22
2124.72	22.5
2125.68	21.5
2126.65	22
2127.61	24.5
2128.57	23
2129.53	25
2130.49	21.5
2131.45	20.5
2132.41	24.5
2133.36	21
2134.32	22
2135.28	23.5
2136.24	23
2137.2	25
2138.16	23
2139.12	24
2140.08	22
2141.04	25
2141.99	19.5
2142.95	23.4899
2143.91	21.023
2144.87	21.1123
2145.83	23.5073
2146.78	24.9262
2147.74	21.227
2148.7	25.7996
2149.66	20.6583
2150.61	21.5956
2151.57	22.9389
2152.53	24.3809
2153.48	21.7427
2154.44	22.1214
2155.4	25.586
2156.35	23.7668
2157.31	21.7371
2158.26	21.9232
2159.22	20.9495
2160.17	21.3355
2161.13	25.6481
2162.08	24.5991
2163.04	22.306
2163.99	26.1129
2164.95	23.6445
2165.9	24.0878
2166.86	24.1855
2167.81	20.5963
2168.77	23.2627
2169.72	23.9284
2170.67	27.5417
2171.63	23.5793
2172.58	22.9388
2173.54	20.5962
2174.49	24.6421
2175.44	25.2212
2176.39	19.7479
2177.35	24.6446
2178.3	23.8386
2179.25	24.1334
2180.2	23.0689
2181.16	21.6966
2182.11	23.0166
2183.06	22.0263
2184.01	23.9762
2184.96	23.52
2185.92	23.9727
2186.87	24.4515
2187.82	23.7881
2188.77	23.7264
2189.72	25.5134
2190.67	21.481
2191.62	25.7186
2192.57	24.8366
2193.52	21.439
2194.47	23.1164
2195.42	23.6226
2196.37	23.2573
2197.32	19.6748
2198.27	21.7128
2199.22	17.7961
2200.17	22.683
2201.12	21.8862
2202.07	24.9622
2203.02	24.1146
2203.97	23.9393
2204.92	22.4468
2205.87	22.4532
2206.81	23.818
2207.76	26.3081
2208.71	24.73
2209.66	25.7731
2210.61	20.1038
2211.55	20.9747
2212.5	23.2949
2213.45	22.8778
2214.4	21.801
2215.34	22.415
2216.29	25.2204
2217.24	22.5137
2218.18	25.4488
2219.13	23.8641
2220.08	23.0351
2221.02	21.5309
2221.97	25.1965
2222.92	23.5414
2223.86	22.0422
2224.81	23.5061
2225.75	22.556
2226.7	23.4849
2227.64	22.4858
2228.59	24.7366
2229.53	20.8146
2230.48	20.4078
2231.42	24.6702
2232.37	22.5228
2233.31	23.8219
2234.26	23.0062
2235.2	24.9375
2236.14	24.8819
2237.09	22.2717
2238.03	22.0121
2238.97	25.4067
2239.92	24.2925
2240.05	24
2241	26
2241.95	26
2242.89	22
2243.84	21
2244.79	21.5
2245.74	22.5
2246.68	19
2247.63	21.5
2248.58	24.5
2249.53	22
2250.47	24
2251.42	23
2252.36	26
2253.31	23
2254.26	25
2255.2	23
2256.15	18.5
2257.1	22
2258.04	23.5
2258.99	23
2259.93	25.5
2260.88	23.5
2261.82	21
2262.77	22
2263.71	23
2264.66	24.5
2265.6	24
2266.55	26
2267.49	23
2268.43	26.5
2269.38	22.5
2270.32	22.5
2271.26	28
2272.21	25
2273.15	19
2274.09	23.5
2275.04	21.5
2275.98	21
2276.92	23
2277.87	23
2278.81	22.5
2279.75	25.5
2280.69	24
2281.64	26.5
2282.58	22
2283.52	27
2284.46	20
2285.4	27
2286.34	25.5
2287.29	21
2288.23	21.5
2289.17	24
2290.11	24
2291.05	24
2291.99	21.5
2292.93	26
2293.87	19
2294.81	27.5
2295.75	22.5
2296.69	21
2297.63	23.5
2298.57	24.5
2299.51	21.5
2300.45	23
2301.39	23
2302.33	24
2303.27	23
2304.2	22
2305.14	24.5
2306.08	24
2307.02	25
2307.96	25
2308.9	22.5
2309.83	23
2310.77	25
2311.71	23
2312.65	23.5
2313.58	23
2314.52	23.5
2315.46	23.5
2316.39	27.5
2317.33	25.5
2318.27	24
2319.21	26.5
2320.14	22.5
2321.08	22
2322.01	23.5
2322.95	23.5
2323.89	22
2324.82	23.5
2325.76	24
2326.69	21.5
2327.63	26
2328.56	20
2329.5	26.5
2330.43	22.5
2331.37	19.5
2332.3	24.5
2333.24	28
2334.17	26.5
2335.1	23.5
2336.04	23
2336.97	28
2337.91	27
2338.84	24
2339.77	25
2340.71	20.5
2341.64	21.5
2342.57	24.5
2343.51	22.5
2344.44	23
2345.37	23
2346.3	24.5
2347.24	26
2348.17	20.5
2349.1	22
2350.03	19
2350.96	22
2351.89	25
2352.83	26.5
2353.76	25
2354.69	25
2355.62	24
2356.55	24
2357.48	24
2358.41	27
2359.34	26
2360.27	20.5
2361.2	23.5
2362.13	24
2363.06	24
2363.99	25
2364.92	25
2365.85	25
2366.78	21.5
2367.71	24
2368.64	25
2369.57	24
2370.5	27
2371.43	23.5
2372.36	28
2373.28	26
2374.21	21
2375.14	26.5
2376.07	22.5
2377	27
2377.93	24
2378.85	20.5
2379.78	24
2380.71	25
2381.63	30.5
2382.56	22.5
2383.49	24.5
2384.42	24.5
2385.34	28.5
2386.27	23.5
2387.2	22.5
2388.12	25
2389.05	25
2389.97	21
2390.9	24
2391.82	21.5
2392.75	21.5
2393.68	23.5
2394.6	20.5
2395.53	25.5
2396.45	21.5
2397.38	24.5
2398.3	23.5
2399.23	21
2400.15	28
2401.07	24.5
2402	23.5
2402.92	23
2403.85	20.5
2404.77	26
2405.69	24
2406.62	24
2407.54	25.5
2408.46	22
2409.39	24
2410.31	24
2411.23	25.5
2412.16	21.5
2413.08	26
2414	28
2414.92	25
2415.85	23
2416.77	26
2417.69	26
2418.61	25.5
2419.53	23
2420.45	24
2421.38	24.5
2422.3	23.5
2423.22	27
2424.14	27.5
2425.06	22.5
2425.98	22
2426.9	24.5
2427.82	24.5
2428.74	26.5
2429.66	21
2430.58	25.5
2431.5	27
2432.42	27
2433.34	25
2434.26	28
2435.18	27
2436.1	28
2437.02	27
2437.94	26.5
2438.85	27.5
2439.77	24.5
2440.69	26
2441.61	26.5
2442.53	22.5
2443.45	22
2444.36	23
2445.28	24
2446.2	26.5
2447.12	22
2448.03	23.5
2448.95	24
2449.87	24
2450.79	25.5
2451.7	24
2452.62	24
2453.54	23
2454.45	28.5
2455.37	24.5
2456.28	28.5
2457.2	25.5
2458.12	25
2459.03	23.5
2459.95	28.5
2460.86	24
2461.78	27.5
2462.69	25
2463.61	23.5
2464.52	25.5
2465.44	23
2466.35	22.5
2467.27	28.5
2468.18	23.5
2469.1	24.5
2470.01	22.5
2470.93	24
2471.84	20
2472.75	28
2473.67	19
2474.58	28
2475.49	23
2476.41	24
2477.32	19
2478.23	24
2479.15	23
2480.06	25
2480.97	19
2481.88	21
2482.79	25
2483.71	24.5
2484.62	24
2485.53	22.5
2486.44	22
2487.35	24
2488.26	21
2489.18	24
2490.09	26
2491	25
2491.91	24
2492.82	26.5
2493.73	22.5
2494.64	26.5
2495.55	24
2496.46	25
2497.37	26
2498.28	29
2499.19	24
2500.1	24.5
2501.01	28
2501.92	28.5
2502.83	25
2503.74	22
2504.65	20
2505.56	29
2506.47	25
2507.37	27.5
2508.28	26.5
2509.19	25
2510.1	25
2511.01	23
2511.92	25.5
2512.82	25
2513.73	25.5
2514.64	25
2515.55	23
2516.45	23
2517.36	25
2518.27	24
2519.17	21.5
2520.08	24
2520.99	19
2521.89	27
2522.8	24
2523.71	22
2524.61	22
2525.52	21.5
2526.42	28.5
2527.33	19
2528.24	24
2529.14	22.5
2530.05	28
2530.95	26
2531.86	27
2532.76	26
2533.67	24
2534.57	22
2535.48	23.5
2536.38	24
2537.28	25.5
2538.19	21
2539.09	23
2540	23
2540.9	28
2541.8	26
2542.71	21
2543.61	20
2544.51	24.5
2545.42	25.5
2546.32	24
2547.22	24.5
2548.12	26.5
2549.03	25.5
2549.93	25
2550.83	24.5
2551.73	27
2552.63	27
2553.54	24
2554.44	23
2555.34	25
2556.24	25.5
2557.14	23
2558.04	25.5
2558.94	19.5
2559.85	24
2560.75	19
2561.65	26
2562.55	25
2563.45	24
2564.35	27
2565.25	23.5
2566.15	19.5
2567.05	25.5
2567.95	21.5
2568.85	27
2569.75	24.5
2570.65	26
2571.55	24
2572.44	24
2573.34	26
2574.24	27
2575.14	20
2576.04	27
2576.94	26
2577.84	29
2578.73	24
2579.63	23.5
2580.53	29.5
2581.43	22
2582.33	26
2583.22	22.5
2584.12	26.5
2585.02	27.5
2585.91	24.5
2586.81	23
2587.71	24.5
2588.6	24.5
2589.5	21.5
2590.4	26
2591.29	25.5
2592.19	30
2593.09	25.5
2593.98	22.5
2594.88	23.5
2595.77	25
2596.67	22
2597.56	26.5
2598.46	24.5
2599.35	25.5
2600.25	22.5
2601.14	24.5
2602.04	23.5
2602.93	23
2603.83	30
2604.72	22.5
2605.62	22.5
2606.51	21
2607.4	23.5
2608.3	24
2609.19	24.5
2610.09	24
2610.98	23
2611.87	26
2612.76	24
2613.66	28
2614.55	21.5
2615.44	25.5
2616.34	26
2617.23	29
2618.12	24
2619.01	24
2619.9	23.5
2620.8	24
2621.69	25.5
2622.58	28
2623.47	25
2624.36	23
2625.25	19
2626.15	25
2627.04	26
2627.93	25.5
2628.82	27.5
2629.71	25
2630.6	28.5
2631.49	24
2632.38	26.5
2633.27	26
2634.16	26.5
2635.05	26.5
2635.94	25.5
2636.83	25
2637.72	26.5
2638.61	22
2639.5	25
2640.39	27.5
2641.28	23
2642.16	24.5
2643.05	24.5
2643.94	24.5
2644.83	27.5
2645.72	26.5
2646.61	28
2647.49	23
2648.38	22
2649.27	24
2650.16	27
2651.05	19.5
2651.93	24.5
2652.82	23.5
2653.71	21
2654.59	24
2655.48	27.5
2656.37	27
2657.25	22
2658.14	21.5
2659.03	22
2659.91	21
2660.8	22
2661.69	22.5
2662.57	26
2663.46	26
2664.34	27.5
2665.23	25.5
2666.11	25
2667	25.5
2667.88	23
2668.77	21.5
2669.65	24
2670.54	25.5
2671.42	27
2672.31	23.5
2673.19	23.5
2674.08	23.5
2674.96	27
2675.84	26
2676.73	22.5
2677.61	26
2678.49	20
2679.38	27
2680.26	23.5
2681.14	27.5
2682.03	25
2682.91	27
2683.79	25
2684.68	24
2685.56	23
2686.44	24
2687.32	23
2688.2	24
2689.09	21
2689.97	28.5
2690.85	24
2691.73	26.5
2692.61	21.5
2693.49	27.5
2694.38	25.5
2695.26	24.5
2696.14	24
2697.02	26
2697.9	26.5
2698.78	22.5
2699.66	25.5
2700.54	26
2701.42	30.5
2702.3	21.5
2703.18	24
2704.06	26
2704.94	21
2705.82	25
2706.7	24
2707.58	27
2708.46	25.5
2709.34	23.5
2710.21	23
2711.09	25.5
2711.97	22
2712.85	22
2713.73	25.5
2714.61	25.5
2715.49	28
2716.36	22
2717.24	26.5
2718.12	24
2719	28
2719.87	28
2720.75	23
2721.63	27.5
2722.51	23
2723.38	26
2724.26	27
2725.14	23
2726.01	24.5
2726.89	30
2727.77	27
2728.64	25
2729.52	24.5
2730.39	25
2731.27	24
2732.15	26.5
2733.02	26.5
2733.9	26.5
2734.77	23
2735.65	27
2736.52	18
2737.4	23
2738.27	23.5
2739.15	26
2740.02	23
2740.89	24
2741.77	25.5
2742.64	25.5
2743.52	26.5
2744.39	26
2745.27	25.5
2746.14	25.5
2747.01	22.5
2747.89	26.5
2748.76	25.5
2749.63	25
2750.51	26
2751.38	24
2752.25	25
2753.12	26
2754	24
2754.87	24.5
2755.74	26.5
2756.61	18
2757.48	28
2758.36	27.5
2759.23	22
2760.1	24
2760.97	23.5
2761.84	21
2762.71	24
2763.59	25
2764.46	27
2765.33	26
2766.2	23.5
2767.07	28.5
2767.94	26.5
2768.81	24.5
2769.68	26.5
2770.55	25
2771.42	25
2772.29	25
2773.16	25.5
2774.03	22.5
2774.9	27.5
2775.77	24
2776.64	26
2777.51	27
2778.37	27
2779.24	23.5
2780.11	26.5
2780.98	27
2781.85	24.5
2782.72	25
2783.59	22
2784.45	26.5
2785.32	25.5
2786.19	28.5
2787.06	23
2787.92	26.5
2788.79	25
2789.66	27
2790.53	29
2791.39	26.5
2792.26	24
2793.13	27.5
2793.99	24
2794.86	28.5
2795.73	25.5
2796.59	23.5
2797.46	24
2798.33	29
2799.19	26
2800.06	28
2800.92	29.5
2801.79	29
2802.65	24
2803.52	22
2804.39	29
2805.25	27.5
2806.11	25.5
2806.98	24
2807.84	27
2808.71	28.5
2809.57	27
2810.44	27
2811.3	24.5
2812.17	24.5
2813.03	26
2813.89	25
2814.76	23
2815.62	26.5
2816.49	24.5
2817.35	22
2818.21	27.5
2819.07	26.5
2819.94	25.5
2820.8	28.5
2821.66	28.5
2822.53	30
2823.39	24.5
2824.25	27.5
2825.11	26
2825.97	27.5
2826.84	21.5
2827.7	28
2828.56	24
2829.42	27
2830.28	25
2831.14	24.5
2832.01	26.5
2832.87	26
2833.73	26
2834.59	24
2835.45	24.5
2836.31	27.5
2837.17	26.5
2838.03	27
2838.89	25
2839.75	25
2840.61	24.5
2841.47	25
2842.33	24.5
2843.19	27
2844.05	28
2844.91	26
2845.77	27.5
2846.63	24
2847.48	25.5
2848.34	27.5
2849.2	22
2850.06	30
2850.92	26
2851.78	27
2852.64	26.5
2853.49	30
2854.35	24.5
2855.21	28
2856.07	26.5
2856.93	23
2857.78	26.5
2858.64	27.5
2859.5	24
2860.35	24.5
2861.21	27.5
2862.07	26
2862.93	30
2863.78	27.5
2864.64	30.5
2865.49	29
2866.35	24.5
2867.21	29
2868.06	28
2868.92	27.5
2869.77	25
2870.63	28.5
2871.49	29.5
2872.34	28
2873.2	31.5
2874.05	28
2874.91	29.5
2875.76	23.5
2876.62	28
2877.47	29.5
2878.32	32
2879.18	31
2880.03	32.5
2880.89	32.5
2881.74	33
2882.6	31
2883.45	29.5
2884.3	33.5
2885.16	31.5
2886.01	32.5
2886.86	37
2887.72	37
2888.57	36
2889.42	38.5
2890.27	37.5
2891.13	40
2891.98	40.5
2892.83	40.5
2893.68	47
2894.54	48.5
2895.39	49
2896.24	48.5
2897.09	53.5
2897.94	51
2898.8	53
2899.65	55
2900.5	55.5
2901.35	62
2902.2	63
2903.05	63
2903.9	65
2904.75	70.5
2905.6	69
2906.45	62
2907.3	65.5
2908.15	73.5
2909.01	64
2909.85	64
2910.7	55
2911.55	58
2912.4	53.5
2913.25	52.5
2914.1	47.5
2914.95	45
2915.8	47
2916.65	44
2917.5	41.5
2918.35	39.5
2919.2	35.5
2920.04	42
2920.89	36
2921.74	31
2922.59	32.5
2923.44	32.5
2924.29	31
2925.13	34
2925.98	26.5
2926.83	33.5
2927.68	32
2928.52	30.5
2929.37	30
2930.22	29.5
2931.06	28.5
2931.91	27
2932.76	25
2933.6	27.5
2934.45	31.5
2935.3	29.5
2936.14	31.5
2936.99	25.5
2937.83	26.5
2938.68	26
2939.53	23
2940.37	28
2941.22	27.5
2942.06	27.5
2942.91	23.5
2943.75	22
2944.6	29.5
2945.44	29
2946.29	26.5
2947.13	27
2947.98	29
2948.82	29.5
2949.66	29
2950.51	27
2951.35	32
2952.2	32.5
2953.04	28
2953.88	31
2954.73	30.5
2955.57	35.5
2956.41	35
2957.26	31
2958.1	39
2958.94	37.5
2959.79	36
2960.63	35.5
2961.47	37.5
2962.31	39
2963.15	43
2964	39.5
2964.84	42
2965.68	44.5
2966.52	44
2967.37	41
2968.21	44.5
2969.05	37
2969.89	40.5
2970.73	36.5
2971.57	36.0073
2972.41	37.4143
2973.25	35.9987
2974.09	39.7899
2974.93	35.1091
2975.77	32.4163
2976.62	36.586
2977.46	32.6589
2978.3	32.7307
2979.14	33.2728
2979.98	28.9495
2980.81	30.031
2981.65	30.1121
2982.49	29.8
2983.33	30.5187
2984.17	28.287
2985.01	28.769
2985.85	25.6057
2986.69	26.5911
2987.53	27.5088
2988.37	23.5776
2989.21	25.8953
2990.04	27.7323
2990.88	29.9253
2991.72	24.984
2992.56	23.8349
2993.4	23.8685
2994.23	24.724
2995.07	26.1222
2995.91	25.4324
2996.75	24.7784
2997.58	22.8833
2998.42	26.0127
2999.26	25.7086
3000.1	26.4631
3000.93	25.5603
3001.77	26.1042
3002.61	23.5349
3003.44	24.9109
3004.28	22.3393
3005.11	24.5015
3005.95	21.6414
3006.79	25.0558
3007.62	25.7431
3008.46	23.7609
3009.29	24.4201
3010.13	23.3017
3010.97	21.9329
3011.8	20.4919
3012.64	21.9377
3013.47	22.0326
3014.31	25.7559
3015.14	23.5583
3015.98	23.021
3016.81	22.7429
3017.64	22.4998
3018.48	22.9854
3019.31	24.659
3020.15	25.8087
3020.98	24.3894
3021.82	23.7391
3022.65	21.4947
3023.48	23.7024
3024.32	25.4804
3025.15	24.487
3025.98	25.8062
3026.82	24.5368
3027.65	22.7122
3028.48	21.234
3029.31	20.9104
3030.15	23.264
3030.98	21.9046
3031.81	21.6857
3032.64	24.4588
3033.48	25.1484
3034.31	22.7576
3035.14	25.0762
3035.97	21.8838
3036.8	21.5797
3037.64	22.5743
3038.47	21.9972
3039.3	22.5275
3040.13	23.1579
3040.96	23.702
3041.79	25.4346
3042.62	25.7827
3043.45	23.9156
3044.28	22.699
3045.12	22.4812
3045.95	22.5082
3046.78	24.111
3047.61	21.6649
3048.44	21.1181
3049.27	22.6445
3050.1	20.9497
3050.92	22.8146
3051.75	24.7875
3052.58	25.7383
3053.41	26.5632
3054.24	24.2338
3055.07	22.8728
3055.9	18.9125
3056.73	19.5579
3057.26	24
3058.09	25.5
3058.93	25
3059.76	24
3060.59	21.5
3061.43	21
3062.26	24.5
3063.09	21
3063.92	23
3064.76	21.5
3065.59	24
3066.42	21.5
3067.25	22
3068.08	24.5
3068.92	24.5
3069.75	20
3070.58	24.5
3071.41	21
3072.24	27.5
3073.07	25
3073.9	23.5
3074.73	22.5
3075.57	21
3076.4	22
3077.23	25
3078.06	27
3078.89	25
3079.72	19.5
3080.55	23.5
3081.38	24
3082.21	27
3083.04	23
3083.87	24.5
3084.7	22
3085.53	24.5
3086.36	24.5
3087.19	23
3088.01	20.5
3088.84	21.5
3089.67	21.5
3090.5	22.5
3091.33	24.5
3092.16	22
3092.99	24.5
3093.81	23
3094.64	25.5
3095.47	19
3096.3	22.5
3097.13	25.5
3097.95	24
3098.78	28.5
3099.61	23.5
3100.44	20.5
3101.26	25
3102.09	22
3102.92	25.5
3103.74	21
3104.57	27
3105.4	23
3106.22	28
3107.05	21
3107.88	20
3108.7	24
3109.53	23.5
3110.35	25.5
3111.18	23.5
3112.01	21.5
3112.83	26
3113.66	24.5
3114.48	19.5
3115.31	21
3116.13	22
3116.96	21
3117.78	24.5
3118.61	23
3119.43	23
3120.26	25.5
3121.08	24
3121.9	28.5
3122.73	27
3123.55	26.5
3124.38	25
3125.2	27.5
3126.02	22
3126.85	17.5
3127.67	26
3128.49	24.5
3129.32	22
3130.14	24
3130.96	22.5
3131.79	24
3132.61	20.5
3133.43	23
3134.25	25
3135.08	23.5
3135.9	22
3136.72	24.5
3137.54	25
3138.37	25
3139.19	25.5
3140.01	26.5
3140.83	20.5
3141.65	24
3142.47	22.5
3143.29	21
3144.12	24
3144.94	23
3145.76	26
3146.58	26
3147.4	26.5
3148.22	25
3149.04	25
3149.86	27
3150.68	21
3151.5	27.5
3152.32	22.5
3153.14	23.5
3153.96	21
3154.78	25.5
3155.6	24
3156.42	22.5
3157.24	23.5
3158.06	25
3158.88	19.5
3159.7	25.5
3160.51	25
3161.33	24.5
3162.15	23.5
3162.97	24
3163.79	27
3164.61	18.5
3165.42	21
3166.24	26
3167.06	25
3167.88	25.5
3168.7	27.5
3169.51	24.5
3170.33	24
3171.15	26.5
3171.97	26
3172.78	23.5
3173.6	24.5
3174.42	17
3175.23	24.5
3176.05	22.5
3176.87	23
3177.68	22.5
3178.5	24.5
3179.32	21
3180.13	20
3180.95	22.5
3181.76	23.5
3182.58	26
3183.4	22
3184.21	23
3185.03	21
3185.84	24.5
3186.66	19
3187.47	23.5
3188.29	20
3189.1	23.5
3189.92	25.5
3190.73	24
3191.55	20
3192.36	29
3193.17	25.5
3193.99	26
3194.8	20.5
3195.62	23
3196.43	21.5
3197.24	21.5
3198.06	23
3198.87	26
3199.68	25
3200.5	22
3201.31	19.5
3202.12	24
3202.94	24.5
3203.75	22.5
3204.56	24
3205.38	26.5
3206.19	24.5
3207	22
3207.81	25
3208.62	21
3209.44	25
3210.25	29.5
3211.06	18
3211.87	22
3212.68	25
3213.49	23.5
3214.31	22.5
3215.12	26
3215.93	25
3216.74	21
3217.55	24
3218.36	23
3219.17	23.5
3219.98	25
3220.79	19
3221.6	24
3222.41	25.5
3223.22	23.5
3224.03	21
3224.84	22
3225.65	29
3226.46	25
3227.27	25.5
3228.08	23.5
3228.89	20
3229.7	25.5
3230.51	27
3231.32	23
3232.13	27.5
3232.94	23.5
3233.74	26
3234.55	25
3235.36	24.5
3236.17	24
3236.98	27
3237.78	25
3238.59	23
3239.4	23
3240.21	23.5
3241.02	23.5
3241.82	22
3242.63	23.5
3243.44	22
3244.25	22.5
3245.05	22.5
3245.86	20
3246.67	19
3247.47	23
3248.28	24
3249.09	24
3249.89	23
3250.7	25
3251.5	21.5
3252.31	21.5
3253.12	27.5
3253.92	28
3254.73	26
3255.53	26.5
3256.34	23
3257.14	26.5
3257.95	25.5
3258.75	26.5
3259.56	20
3260.36	27.5
3261.17	23
3261.97	25
3262.78	22
3263.58	24
3264.39	23
3265.19	25
3265.99	26
3266.8	17
3267.6	25
3268.41	19.5
3269.21	27
3270.01	23
3270.82	25.5
3271.62	23.5
3272.42	25
3273.23	25
3274.03	24.5
3274.83	23
3275.64	26
3276.44	24
3277.24	21.5
3278.04	24
3278.85	22
3279.65	24.5
3280.45	23.5
3281.25	20.5
3282.05	23.5
3282.85	23.5
3283.66	20
3284.46	23.5
3285.26	24
3286.06	21.5
3286.86	26.5
3287.66	27.5
3288.46	25.5
3289.27	25
3290.07	28
3290.87	24
3291.67	21
3292.47	24
3293.27	27.5
3294.07	26
3294.87	24.5
3295.67	28
3296.47	23
3297.27	26.5
3298.07	25
3298.87	25
3299.67	23
3300.47	21
3301.26	21
3302.06	21.5
3302.86	25.5
3303.66	25.5
3304.46	23.5
3305.26	22.5
3306.06	23
3306.86	27
3307.65	20.5
3308.45	28.5
3309.25	20.5
3310.05	23
3310.85	22.5
3311.64	26
3312.44	23.5
3313.24	19
3314.04	27
3314.83	23
3315.63	23.5
3316.43	24
3317.22	21
3318.02	22.5
3318.82	26.5
3319.62	26
3320.41	23
3321.21	25
3322	20
3322.8	24.5
3323.6	22
3324.39	21
3325.19	22.5
3325.98	26
3326.78	23.5
3327.58	21
3328.37	21.5
3329.17	22
3329.96	24
3330.76	24.5
3331.55	25
3332.35	25
3333.14	22
3333.94	23
3334.73	22
3335.52	23
3336.32	26
3337.11	26.5
3337.91	26
3338.7	24
3339.5	22.5
3340.29	25.5
3341.08	27
3341.88	24.5
3342.67	20
3343.46	23
3344.26	20.5
3345.05	24.5
3345.84	25.5
3346.63	26
3347.43	22
3348.22	23
3349.01	26.5
3349.8	24.5
3350.6	24.5
3351.39	24
3352.18	24
3352.97	19
3353.77	24
3354.56	25
3355.35	21
3356.14	27.5
3356.93	22
3357.72	24
3358.51	25.5
3359.31	23
3360.1	29.5
3360.89	28.5
3361.68	21
3362.47	25.5
3363.26	22.5
3364.05	22.5
3364.84	21
3365.63	27.5
3366.42	28.5
3367.21	25.5
3368	21
3368.79	24.5
3369.58	24
3370.37	27.5
3371.16	23
3371.95	25
3372.74	27.5
3373.53	25.5
3374.32	23
3375.1	21
3375.89	27
3376.68	25.5
3377.47	26
3378.26	24.5
3379.05	22
3379.84	24.5
3380.62	22
3381.41	25
3382.2	25
3382.99	23
3383.78	27
3384.56	26.5
3385.35	24.5
3386.14	25
3386.93	24
3387.71	24
3388.5	22
3389.29	26
3390.07	22.5
3390.86	24
3391.65	27
3392.43	20
3393.22	21.5
3394.01	25.5
3394.79	21
3395.58	27
3396.36	23.5
3397.15	24.5
3397.94	24.5
3398.72	25
3399.51	25.5
3400.29	24
3401.08	21
3401.86	27.5
3402.65	23.5
3403.43	26.5
3404.22	25
3405	24.5
3405.79	24.5
3406.57	23
3407.36	22.5
3408.14	25
3408.93	25
3409.71	24
3410.49	27.5
3411.28	24.5
3412.06	20.5
3412.84	26.5
3413.63	23
3414.41	24.5
3415.2	26.5
3415.98	25
3416.76	21.5
3417.54	26
3418.33	24.5
3419.11	25
3419.89	22
3420.68	21.5
3421.46	23.5
3422.24	22
3423.02	23
3423.81	26
3424.59	28
3425.37	27.5
3426.15	21.5
3426.93	23.5
3427.71	27
3428.5	23.5
3429.28	24.5
3430.06	25.5
3430.84	21.5
3431.62	23.5
3432.4	26.5
3433.18	23.5
3433.96	25
3434.75	21.5
3435.53	23
3436.31	22
3437.09	28.5
3437.87	25
3438.65	24
3439.43	23.5
3440.21	22.5
3440.99	25
3441.77	23
3442.55	25
3443.33	22.5
3444.1	24.5
3444.88	29
3445.66	27
3446.44	28.5
3447.22	26.5
3448	23
3448.78	24.5
3449.56	24
3450.34	26.5
3451.11	26
3451.89	24.5
3452.67	25
3453.45	26
3454.23	23
3455	24.5
3455.78	23
3456.56	26.5
3457.34	23
3458.11	22
3458.89	24
3459.67	27.5
3460.45	21.5
3461.22	24.5
3462	26
3462.78	26
3463.55	24
3464.33	28
3465.11	24.5
3465.88	25.5
3466.66	25
3467.44	22
3468.21	23.5
3468.99	22
3469.76	21.5
3470.54	26
3471.32	24.5
3472.09	23
3472.87	27
3473.64	21.5
3474.42	23
3475.19	27
3475.97	23
3476.74	22
3477.52	22.5
3478.29	20.5
3479.07	25.5
3479.84	25.5
3480.61	24
3481.39	27.5
3482.16	19
3482.94	25.5
3483.71	26
3484.48	20.5
3485.26	18.5
3486.03	24
3486.81	26.5
3487.58	23.5
3488.35	26.5
3489.13	26
3489.9	24
3490.67	23
3491.44	22
3492.22	23
3492.99	25
3493.76	24.5
3494.54	24
3495.31	25
3496.08	29.5
3496.85	22.5
3497.62	22.5
3498.4	27.5
3499.17	20
3499.94	22
