#Acq. time (s)=	5
#Accumulations=	5
#Range (cm-¹)=	100...3500
#Windows=	4
#Autofocus=	Off
#AutoExposure=	Off
#Spike filter=	Multiple accum.
#Delay time (s)=	0
#Binning=	1
#Readout mode=	Signal
#DeNoise=	Off
#ICS correction=	Off
#Dark correction=	Off
#Inst. Process=	Off
#Instrument=	LabRAM HR Evol
#Detector=	Syncerity OE
#Objective=	x100_VIS
#Grating=	600 (500nm)
#ND Filter=	25%
#Laser=	633nm_Edge
#Hole=	100.021
#Range=	Visible
#Project=	verificaciones
#Sample=	at4
#Site=	lined
#Title=	bolusat4lined
#Remark=	
#Date=	14.01.2026 14:38
#Acquired=	14.01.2026 14:38:59
100.618	30
101.901	33
103.185	36
104.468	33
105.751	36
107.033	34.5
108.316	31.5
109.598	30
110.88	26
112.162	33
113.445	30
114.727	33
116.008	32
117.289	34.5
118.57	36.5
119.85	31.5
121.13	36.5
122.411	37
123.691	35
124.97	31
126.25	33.5
127.529	33.5
128.808	34.5
130.086	33
131.364	35
132.643	34.5
133.921	35
135.199	41.5
136.477	36
137.755	37.5
139.032	37.5
140.309	42
141.586	36
142.863	38
144.14	38
145.415	42
146.691	41.5
147.967	39.5
149.243	42.5
150.518	41
151.794	42.5
153.067	43.5
154.342	41
155.617	38
156.892	44
158.166	39
159.439	38
160.712	44
161.986	40.5
163.26	43.5
164.531	43
165.805	43.5
167.077	42.5
168.35	40
169.621	44
170.893	41.5
172.165	38
173.437	36
174.707	40
175.979	41
177.25	43
178.519	45
179.79	37
181.061	36
182.33	41.5
183.6	40
184.87	39.5
186.138	41
187.408	40
188.676	46
189.945	37
191.214	45
192.481	38
193.75	39.5
195.016	43
196.285	40.5
197.552	41.5
198.819	39
200.086	42
201.352	37.5
202.619	39.5
203.884	42
205.151	38
206.416	39.5
207.682	38.5
208.947	35
210.213	39
211.477	39
212.742	38.5
214.006	36
215.271	36
216.535	38
217.799	35
219.062	41
220.326	35.5
221.589	40
222.851	37
224.115	39.5
225.377	32.5
226.64	34
227.901	32
229.163	35
230.425	32.5
231.686	35
232.947	35.5
234.209	33
235.469	34
236.729	34.5
237.991	35
239.25	31
240.51	35
241.771	33.5
243.03	32
244.288	31.5
245.549	33.5
246.807	31.5
248.065	35
249.323	36
250.583	29
251.84	34
253.098	28
254.355	31
255.613	31
256.87	32
258.127	32.5
259.383	32.5
260.639	32
261.897	33.5
263.153	37
264.408	29
265.664	29
266.919	35
268.174	32
269.43	29.5
270.685	37.5
271.939	35
273.193	31
274.447	29.5
275.701	30
276.955	35
278.208	27
279.461	31
280.714	37
281.968	33
283.221	30
284.473	27
285.726	33.5
286.977	34
288.229	33
289.481	35.5
290.732	27.5
291.983	33.5
293.234	28
294.485	33
295.736	34.5
296.986	29.5
298.236	25
299.486	32
300.736	31.5
301.985	37.5
303.233	32
304.482	32
305.731	34.5
306.98	32
308.228	33
309.477	34
310.725	31.5
311.973	30
313.22	30
314.468	30.5
315.714	33
316.961	32.5
318.208	31
319.455	34
320.701	34.5
321.947	31
323.192	35
324.438	35
325.684	33.5
326.929	31
328.175	34
329.418	32.5
330.663	31
331.908	29
333.152	34
334.395	29.5
335.639	35
336.883	31.5
338.127	31.5
339.369	35
340.612	34
341.855	25.5
343.097	31
344.34	33
345.582	35.5
346.823	32.5
348.065	34
349.307	33
350.547	30
351.789	31.5
353.03	37.5
354.27	36
355.511	33.5
356.75	31
357.991	29.5
359.231	31.5
360.47	31.5
361.709	34
362.948	30
364.187	33
365.427	27
366.664	32
367.903	34
369.14	32
370.379	32
371.616	34.5
372.854	34
374.091	34
375.328	32
376.564	31
377.802	32
379.037	28.5
380.274	32.5
381.51	33.5
382.745	29.5
383.981	32
385.216	31
386.452	28
387.686	29.5
388.922	32.5
390.155	30
391.389	30
392.624	31
393.857	33
395.091	28
396.325	33
397.558	28.5
398.79	29.5
400.024	34
401.256	30.5
402.488	30.5
403.721	34
404.953	28.5
406.184	30.5
407.417	32
408.648	30.5
409.878	30.5
411.109	33.5
412.341	34
413.571	31
414.801	30
416.031	31
417.262	32
418.491	31
419.72	33
420.949	31.5
422.178	28.5
423.408	32.5
424.637	29
425.865	31
427.093	32.5
428.32	32.5
429.548	31
430.777	33
432.004	37
433.231	31.5
434.458	33
435.685	30.5
436.911	33
438.137	30.5
439.363	35
440.589	28.5
441.815	32.5
443.042	29.5
444.267	35.5
445.492	28
446.717	27
447.942	31
449.166	31
450.39	31
451.615	34
452.838	30
454.062	32
455.286	33
456.509	34.5
457.732	29
458.955	36
460.178	33
461.399	32
462.621	36
463.843	35
465.065	35
466.287	33
467.508	34.5
468.73	35
469.951	41
471.172	41
472.393	40
473.612	39.5
474.832	40
476.052	44.5
477.272	48
478.492	45.5
479.712	50.5
480.93	48.5
482.149	57.5
483.368	61.5
484.587	55.5
485.806	56
487.023	63
488.241	64
489.459	60
490.677	66.5
491.893	61
493.111	59
494.328	58
495.543	50.5
496.76	53
497.977	50.5
499.194	50
500.409	46
501.625	45
502.841	42.5
504.055	46.5
505.27	39.5
506.486	43.5
507.699	41.5
508.914	39.5
510.128	39.5
511.342	38
512.557	37
513.77	34
514.984	37.5
516.196	39.5
517.41	35
518.623	34.5
519.835	35.5
521.048	37
522.259	34.5
523.472	31.5
524.683	34
525.895	32.5
527.106	36
528.318	36
529.528	32.5
530.74	31
531.949	33
533.161	34.5
534.37	34
535.581	32
536.79	29
537.999	33.5
539.209	31
540.418	28.5
541.627	32.5
542.835	36.5
544.043	32
545.253	35
546.46	31
547.669	29
548.876	30
550.083	33.5
551.292	32
552.498	32.5
553.705	30
554.912	30
556.118	31
557.324	35
558.53	30.5
559.737	34
560.942	35
562.147	28
563.353	33
564.558	31.5
565.763	31
566.967	30
568.173	31.5
569.377	32
570.58	30
571.784	28
572.987	31
574.192	31.5
575.395	32
576.598	33
577.8	35
579.003	31
580.205	30
581.407	32
582.61	28
583.812	28.5
585.014	31.5
586.215	30.5
587.416	29.5
588.617	33
589.818	30
591.018	29
592.219	32
593.419	28
594.619	30.5
595.819	29
597.02	29.5
598.219	33
599.418	33
600.617	32
601.816	31
603.015	33
604.213	33
605.41	31.5
606.608	32
607.806	31
609.004	29
610.201	29
611.399	31
612.596	33.5
613.793	32
614.989	30
616.186	31.5
617.382	31.5
618.579	31
619.775	34.5
620.969	28.5
622.165	35
623.36	34
624.555	34.5
625.75	33.5
626.945	30.5
628.139	31
629.333	31.5
630.527	28.5
631.721	28
632.915	30
634.108	32.5
635.301	29.5
636.495	27.5
637.688	31
638.88	31
640.072	32
641.265	30
642.456	33
643.648	34.5
644.84	35
646.032	33
647.222	31
648.414	32
649.605	32.5
650.795	31
651.986	30
653.177	33
654.366	30
655.556	31.5
656.745	34
657.935	34.5
659.125	29
660.313	33
661.503	34
662.69	29.5
663.879	30
665.067	30.5
666.256	31
667.444	34
668.631	32
669.819	35.5
671.006	34
672.194	36
673.38	33
674.567	37
675.753	42.5
676.94	30.5
678.125	35
679.311	30
680.497	38
681.682	39
682.868	36
684.053	40.5
685.238	39.5
686.422	38
687.606	37
688.792	34.5
689.975	38.5
691.159	38
692.343	36.5
693.526	38.5
694.71	35
695.893	41
697.076	38
698.259	39
699.441	34
700.623	44.5
701.805	43.5
702.988	42.5
704.169	45
705.35	51
706.533	51.5
707.714	52
708.894	55
710.075	48
711.255	48
712.436	43
713.616	45
714.796	42
715.975	39.5
717.155	36
718.335	30.5
719.514	34
720.693	34
721.872	32
723.05	38.5
724.228	29
725.406	28
726.585	27
727.763	31.5
728.941	34
730.118	30
731.295	31
732.472	30.5
733.649	33.5
734.825	29
736.002	29
737.178	35
738.354	33.5
739.53	29.5
740.705	33
741.881	30
743.056	25.5
744.231	30
745.406	35
746.581	32.5
747.755	32
748.93	29
750.104	30
751.278	28
752.452	28.5
753.625	31.5
754.799	32
755.972	31
757.144	28.5
758.317	32.5
759.489	27.5
760.662	33
761.834	28
763.006	34
764.178	30.5
765.349	31.5
766.521	33
767.692	29.5
768.863	32
770.034	34
771.204	28
772.374	35
773.545	31
774.715	31.5
775.885	35
777.054	30
778.224	32
779.393	32.5
780.562	34.5
781.731	36
782.9	34.5
784.069	35
785.236	32
786.405	33
787.573	33
788.74	33.5
789.908	34.5
791.074	35
792.242	36
793.409	36.5
794.575	30
795.742	32.5
796.909	31.5
798.074	30.5
799.241	30.5
800.406	33
801.572	31.5
802.737	31.5
803.902	37.5
805.067	32.5
806.232	32.5
807.396	33
808.561	33.5
809.725	31
810.889	30.5
812.052	35.5
813.217	31.5
814.38	31
815.544	33.5
816.706	32
817.87	35
819.032	27.5
820.195	31.5
821.357	29
822.518	30.5
823.681	26.5
824.842	27.5
826.005	29
827.165	31.5
828.326	31
829.488	27
830.648	31
831.808	28
832.97	32
834.129	26.5
835.289	29
836.45	32.5
837.609	29
838.768	33.5
839.927	31.5
841.087	30
842.245	28
843.404	30
844.562	27
845.721	29.5
846.879	32
848.036	31
849.194	27
850.351	27
851.509	29.5
852.666	33
853.823	31.5
854.979	29.5
856.136	34.5
857.292	33
858.448	31.5
859.605	32.5
860.761	31.5
861.916	30.5
863.071	36.5
864.226	32
865.381	31.5
866.536	28
867.691	30
868.845	31
869.999	34.5
871.153	32
872.307	31
873.461	33
874.614	34
875.767	31.5
876.92	34.5
878.073	31.5
879.226	31.5
880.379	30.5
881.531	29.5
882.683	34
883.835	29.5
884.987	32.5
886.139	29
887.291	28
888.442	27
889.593	29
890.743	29
891.893	30
893.044	30
894.195	31
895.345	31
896.495	33
897.643	32.5
898.793	31.5
899.943	33.5
901.092	29.5
902.241	29.5
903.389	32.5
904.538	30.5
905.687	28
906.835	29
907.982	31
909.13	30.5
910.278	32
911.426	31
912.572	32.5
913.72	26.5
914.867	33
916.013	26.5
917.16	27.5
918.306	30
919.451	31.5
920.598	27
921.744	30.5
922.889	30
924.035	31.5
925.18	30
926.324	27
927.47	23.5
928.614	27
929.758	35
930.902	30.5
932.047	26.5
933.191	28.5
934.334	31
935.478	29
936.621	29
937.764	30
938.906	29.5
940.05	30
941.192	31
942.335	29
943.476	26.5
944.619	27
945.76	28
946.901	30.5
948.043	28
949.184	27
950.326	25
951.466	30
952.606	29.5
953.747	31.5
954.887	29.5
956.028	31.5
957.167	31.5
958.307	25
959.447	29
960.586	28
961.725	31.5
962.865	28
964.003	30
965.141	28.5
966.279	25.5
967.418	27.5
968.556	31
969.693	29.5
970.831	29.5
971.969	28.5
973.106	29.5
974.243	28
975.38	27
976.517	29
977.654	30
978.79	32
979.926	30
981.061	29
982.197	33
983.334	26
984.469	28
985.604	29
986.739	27
987.873	30.5
989.008	26
990.142	30.5
991.277	29
992.411	27
993.544	27.5
994.679	29.5
995.813	23
996.946	28
998.079	26
999.212	31.5
1000.35	27.5
1001.48	28.5
1002.61	31
1003.74	24.5
1004.87	28.5
1006.01	32.5
1007.14	26.5
1008.27	30
1009.4	31
1010.53	30
1011.66	28
1012.79	26
1013.92	29
1015.05	28.5
1016.18	28
1017.31	32
1018.44	28.5
1019.57	25
1020.7	28
1021.83	28.5
1022.96	31.5
1024.09	29.5
1025.22	32
1026.35	31
1027.48	29
1028.6	31
1029.73	28.5
1030.86	26
1031.99	25
1033.12	30.5
1034.24	25
1035.37	29.5
1036.5	31.5
1037.62	23
1038.75	28.5
1039.88	29.5
1041	27
1042.13	30.5
1043.25	30.5
1044.38	25
1045.5	27.5
1046.63	30.5
1047.76	25.5
1048.88	28.5
1050	30.5
1051.13	25
1052.25	27.5
1053.38	27
1054.5	27.5
1055.63	31
1056.75	29
1057.87	29
1058.99	25.5
1060.12	24
1061.24	28
1062.36	26
1063.49	30
1064.61	29
1065.73	28
1066.85	30.5
1067.97	26.5
1069.1	28
1070.22	30.5
1071.34	27.5
1072.46	27
1073.58	31
1074.7	32
1075.82	30
1076.94	24
1078.06	30.5
1079.18	24
1080.3	29
1081.42	26
1082.54	30.5
1083.66	25
1084.78	27
1085.9	23.5
1087.02	27.5
1088.13	28.5
1089.25	27.5
1090.37	25
1091.49	22
1092.61	26.5
1093.72	28.5
1094.84	28
1095.96	27
1097.08	28
1098.19	28.5
1099.31	26.5
1100.42	27
1101.54	31
1102.66	24
1103.77	31
1104.89	27
1106	26
1107.12	27.5
1108.23	28.5
1109.35	24.5
1110.46	30.5
1111.58	25.5
1112.69	29.5
1113.81	24
1114.92	32
1116.04	25.5
1117.15	28.5
1118.26	28
1119.38	30.5
1120.49	26
1121.6	27
1122.72	27.5
1123.83	25
1124.94	22.5
1126.05	28.5
1127.17	26
1128.28	25.5
1129.39	29
1130.5	24.5
1131.61	23.5
1132.72	30
1133.83	26.5
1134.94	28
1136.06	28
1137.17	31
1138.27	27.5
1139.39	29
1140.5	29
1141.61	27.5
1142.72	30
1143.82	26.5
1144.93	31
1146.04	28
1147.15	30.5
1148.26	24
1149.37	24.5
1150.48	30.5
1151.58	26
1152.69	26
1153.8	25.5
1154.91	27.5
1156.02	26
1157.12	26
1158.23	24
1159.34	30
1160.44	30
1161.55	25.5
1162.66	26
1163.76	26
1164.87	25.5
1165.97	24
1167.08	28.5
1168.18	27
1169.29	27.5
1170.39	25.5
1171.5	27.5
1172.6	29.5
1173.71	30
1174.81	25.5
1175.92	26
1177.02	29
1178.13	25.5
1179.23	25
1180.33	27
1181.44	27.5
1182.54	28
1183.64	22.5
1184.74	24
1185.85	24.5
1186.95	29
1188.05	23
1189.15	23
1190.26	27
1191.36	28
1192.46	26
1193.56	29
1194.66	22.0136
1195.76	24.9699
1196.86	25.0785
1197.96	23.5361
1199.06	25.9868
1200.16	25.215
1201.26	26.2105
1202.36	26.9241
1203.46	26.8303
1204.56	26.2279
1205.66	25
1206.76	27.6729
1207.86	25.3675
1208.96	29.0628
1210.06	24.5618
1211.16	26.1512
1212.25	31.3592
1213.35	26.6626
1214.45	28.8147
1215.55	26.4748
1216.65	25.3892
1217.74	25.1798
1218.84	28.9612
1219.94	26.6422
1221.03	25.462
1222.13	24.8703
1223.23	29.0499
1224.32	30.7259
1225.42	28.2338
1226.52	30.013
1227.61	26.3812
1228.71	28.2491
1229.8	28.381
1230.9	26.3252
1231.99	26.4611
1233.09	25.9227
1234.18	27.4315
1235.28	25.1014
1236.37	27.0643
1237.47	27.1299
1238.56	26.5029
1239.65	24.6476
1240.75	27.3399
1241.84	26.6576
1242.93	28.1191
1244.03	27.8835
1245.12	26.3566
1246.21	25.5388
1247.31	26.0621
1248.4	28.068
1249.49	25.2214
1250.58	26.2921
1251.67	27.9213
1252.77	28.1653
1253.86	27.6971
1254.95	28.2462
1256.04	29.261
1257.13	25.8897
1258.22	27.749
1259.31	25.962
1260.4	26.9367
1261.49	26.6107
1262.58	24.5849
1263.67	24.4351
1264.76	27.6592
1265.85	28.9231
1266.94	26.6348
1268.03	26.218
1269.12	25.3404
1270.21	26.7173
1271.3	25.774
1272.39	27.9869
1273.47	27.1152
1274.56	25.0574
1275.65	28.3829
1276.74	27.4727
1277.83	26.2367
1278.91	28.0824
1280	26.4783
1281.09	25.6554
1282.17	26.1232
1283.26	26.8751
1284.35	28.3402
1285.43	27.8211
1286.52	26.6667
1287.61	26.3786
1288.69	24.4481
1289.78	24.1355
1290.86	24.7816
1291.95	23.4445
1293.03	26.5775
1294.12	27.7074
1295.2	26.7027
1296.29	26.1383
1297.37	27.4577
1298.46	25.4604
1299.54	23.7858
1300.63	23.2472
1301.71	24.7056
1302.79	26.2363
1303.88	26.8364
1304.96	27.5473
1306.04	27.6947
1306.5	27.5
1307.59	21.5
1308.68	28
1309.76	27
1310.85	27.5
1311.94	26.5
1313.03	26
1314.11	25
1315.2	24.5
1316.29	24.5
1317.37	26.5
1318.46	27
1319.55	26
1320.63	25.5
1321.72	26.5
1322.81	26
1323.89	25
1324.98	24.5
1326.06	27.5
1327.15	29
1328.23	24.5
1329.32	27
1330.4	27
1331.49	24.5
1332.57	24.5
1333.66	24
1334.74	23.5
1335.82	23.5
1336.91	25
1337.99	29.5
1339.07	28
1340.16	28
1341.24	25
1342.32	28
1343.4	26
1344.49	27
1345.57	24.5
1346.65	26
1347.73	26.5
1348.82	26.5
1349.9	21
1350.98	26
1352.06	27
1353.14	27
1354.22	26.5
1355.3	27.5
1356.38	27.5
1357.46	22.5
1358.54	23.5
1359.62	27
1360.7	26
1361.78	29.5
1362.86	29.5
1363.94	28
1365.02	28.5
1366.1	26.5
1367.18	27
1368.26	27.5
1369.34	27
1370.41	25
1371.49	24
1372.57	28.5
1373.65	26.5
1374.72	27
1375.8	30
1376.88	23.5
1377.96	28
1379.03	28
1380.11	27
1381.19	30
1382.26	24
1383.34	27.5
1384.42	28.5
1385.49	26.5
1386.57	29.5
1387.64	28.5
1388.72	28.5
1389.79	25.5
1390.87	28
1391.94	25
1393.02	25
1394.09	25.5
1395.17	25
1396.24	27
1397.31	27
1398.39	29
1399.46	30
1400.54	29
1401.61	29
1402.68	33
1403.76	31.5
1404.83	30
1405.9	26
1406.97	30.5
1408.05	33
1409.12	28.5
1410.19	33
1411.26	34
1412.33	33
1413.4	33.5
1414.48	33.5
1415.55	27.5
1416.62	33.5
1417.69	30.5
1418.76	33.5
1419.83	29
1420.9	30
1421.97	28
1423.04	25
1424.11	27.5
1425.18	30
1426.25	34
1427.32	26.5
1428.39	26
1429.46	29
1430.52	25
1431.59	23.5
1432.66	24.5
1433.73	28.5
1434.8	25.5
1435.87	29
1436.93	25.5
1438	23
1439.07	27.5
1440.14	27
1441.2	30
1442.27	28.5
1443.34	28
1444.4	28
1445.47	30.5
1446.54	28
1447.6	27
1448.67	28.5
1449.73	26
1450.8	28
1451.86	30
1452.93	28
1453.99	25
1455.06	27
1456.12	25.5
1457.19	27
1458.25	26
1459.32	30
1460.38	25.5
1461.45	25
1462.51	27.5
1463.57	29
1464.64	28
1465.7	27.5
1466.76	27
1467.82	30.5
1468.89	28
1469.95	28.5
1471.01	27
1472.07	27.5
1473.14	27
1474.2	27.5
1475.26	28
1476.32	31
1477.38	27.5
1478.44	32
1479.5	25.5
1480.57	28
1481.63	28
1482.69	23
1483.75	29.5
1484.81	28.5
1485.87	22
1486.93	23
1487.99	27
1489.05	27
1490.1	21
1491.17	25.5
1492.22	26
1493.28	31
1494.34	22.5
1495.4	31
1496.46	27
1497.52	26.5
1498.57	25.5
1499.63	26.5
1500.69	27
1501.75	28
1502.8	25
1503.86	30
1504.92	25.5
1505.98	25
1507.03	25.5
1508.09	25.5
1509.15	26
1510.2	26.5
1511.26	26
1512.31	27.5
1513.37	26.5
1514.42	30
1515.48	26.5
1516.53	29
1517.59	27
1518.64	30
1519.7	29.5
1520.75	30.5
1521.81	28
1522.86	26.5
1523.92	28
1524.97	26
1526.02	24
1527.08	28
1528.13	25.5
1529.18	30
1530.24	27.5
1531.29	30
1532.34	29
1533.39	26.5
1534.45	25
1535.5	33
1536.55	29.5
1537.6	25.5
1538.65	24.5
1539.71	29
1540.76	30
1541.81	29.5
1542.86	32.5
1543.91	27
1544.96	30
1546.01	25.5
1547.06	27.5
1548.11	22.5
1549.16	25.5
1550.21	26
1551.26	24.5
1552.31	28
1553.36	28
1554.41	27
1555.46	26
1556.51	24.5
1557.56	30
1558.6	27.5
1559.65	28
1560.7	29
1561.75	30
1562.8	22
1563.84	27.5
1564.89	25.5
1565.94	24
1566.99	31
1568.03	26
1569.08	29
1570.13	29
1571.17	24.5
1572.22	27.5
1573.27	26
1574.31	27.5
1575.36	29
1576.4	23.5
1577.45	29
1578.5	26
1579.54	28
1580.59	25
1581.63	23
1582.68	30.5
1583.72	26.5
1584.76	23
1585.81	26.5
1586.85	26
1587.9	27.5
1588.94	31.5
1589.98	28
1591.03	28
1592.07	25.5
1593.11	28
1594.16	30.5
1595.2	27
1596.24	27.5
1597.29	28
1598.33	24
1599.37	23
1600.41	26.5
1601.45	27.5
1602.49	28.5
1603.54	26
1604.58	25.5
1605.62	22
1606.66	32.5
1607.7	28
1608.74	26.5
1609.78	25
1610.82	28
1611.86	29
1612.9	23
1613.94	29.5
1614.98	25.5
1616.02	25.5
1617.06	27
1618.1	28.5
1619.14	30
1620.18	26.5
1621.22	23
1622.25	24.5
1623.29	26.5
1624.33	29
1625.37	27.5
1626.41	27
1627.45	27.5
1628.48	24.5
1629.52	27
1630.56	28.5
1631.59	27
1632.63	28.5
1633.67	26
1634.7	26
1635.74	29.5
1636.78	27
1637.81	25.5
1638.85	28.5
1639.88	28
1640.92	28
1641.96	27.5
1642.99	22.5
1644.03	27
1645.06	26
1646.1	25.5
1647.13	24.5
1648.17	27.5
1649.2	28
1650.23	26
1651.27	28
1652.3	30.5
1653.33	26.5
1654.37	24.5
1655.4	28
1656.44	28.5
1657.47	23
1658.5	24.5
1659.53	22.5
1660.57	24.5
1661.6	26.5
1662.63	25.5
1663.66	26.5
1664.69	21.5
1665.73	26.5
1666.76	24
1667.79	27
1668.82	29
1669.85	29
1670.88	24.5
1671.91	28
1672.94	30.5
1673.97	26.5
1675.01	27
1676.03	27.5
1677.07	27
1678.1	24
1679.12	28.5
1680.15	26.5
1681.18	25.5
1682.21	24.5
1683.24	29
1684.27	28
1685.3	25
1686.33	27.5
1687.36	27.5
1688.38	25
1689.41	29
1690.44	26.5
1691.47	26.5
1692.5	29.5
1693.52	27
1694.55	25.5
1695.58	28.5
1696.6	24.5
1697.63	21.5
1698.66	27
1699.68	29
1700.71	30
1701.74	29
1702.76	20
1703.79	26.5
1704.81	25
1705.84	29.5
1706.86	26.5
1707.89	25.5
1708.91	29.5
1709.94	26
1710.96	28
1711.99	28.5
1713.01	24
1714.04	27.5
1715.06	25
1716.08	28
1717.11	26
1718.13	31
1719.16	23
1720.18	26
1721.2	24
1722.22	25.5
1723.25	26
1724.27	29
1725.29	25.5
1726.31	26
1727.34	24
1728.36	31
1729.38	23.5
1730.4	25
1731.42	26.5
1732.44	24.5
1733.47	29.5
1734.49	25.5
1735.51	27.5
1736.53	27
1737.55	27.5
1738.57	27
1739.59	24
1740.61	24
1741.63	28
1742.65	24
1743.67	26
1744.69	28
1745.71	28
1746.73	25
1747.75	29.5
1748.76	27.5
1749.78	26.5
1750.8	25
1751.82	28.5
1752.84	27
1753.86	27
1754.87	27
1755.89	30.5
1756.91	23.5
1757.93	30.5
1758.94	24.5
1759.96	27.5
1760.98	28
1761.99	27.5
1763.01	26
1764.03	28
1765.04	25
1766.06	26.5
1767.08	24.5
1768.09	28
1769.11	27
1770.12	24.5
1771.14	25
1772.15	26
1773.17	25.5
1774.18	27
1775.2	28
1776.21	27
1777.23	25
1778.24	27
1779.25	27
1780.27	25
1781.28	30.5
1782.3	29.5
1783.31	24.5
1784.32	27.5
1785.34	26
1786.35	24.5
1787.36	25
1788.37	23
1789.39	26.5
1790.4	28
1791.41	22
1792.42	26
1793.43	25
1794.45	29
1795.46	28
1796.47	29
1797.48	24
1798.49	22.5
1799.5	24.5
1800.51	26.5
1801.52	26.5
1802.53	23
1803.54	25
1804.55	25.5
1805.56	26.5
1806.57	26.5
1807.58	25.5
1808.59	27
1809.6	25
1810.61	24
1811.62	29.5
1812.63	26.5
1813.64	30
1814.65	25
1815.66	29.5
1816.66	25.5
1817.67	27
1818.68	24
1819.69	27.5
1820.69	25
1821.7	26.5
1822.71	28.5
1823.72	29
1824.72	25.5
1825.73	25
1826.74	28
1827.74	23.5
1828.75	26
1829.76	25
1830.76	24.5
1831.77	27
1832.77	25
1833.78	27
1834.79	22
1835.79	22.5
1836.8	26
1837.8	25
1838.81	26
1839.81	28.5
1840.81	27.5
1841.82	29.5
1842.82	28
1843.83	24.5
1844.83	22
1845.83	23
1846.84	28.5
1847.84	23.5
1848.84	26.5
1849.85	27.5
1850.85	23.5
1851.85	25
1852.86	25.5
1853.86	28
1854.86	28.5
1855.86	26
1856.86	26.5
1857.87	23
1858.87	23
1859.87	29.5
1860.87	25.5
1861.87	23.5
1862.87	26.5
1863.88	26
1864.88	27
1865.88	24.5
1866.88	28
1867.88	26
1868.88	27
1869.88	23
1870.88	31
1871.88	27
1872.88	26.5
1873.88	23.5
1874.87	25.5
1875.87	23
1876.87	24.5
1877.87	23.5
1878.87	26.5
1879.87	26
1880.87	25.5
1881.86	25.5
1882.86	26
1883.86	27.5
1884.86	32
1885.86	26.5
1886.85	26
1887.85	24
1888.85	27.5
1889.84	30
1890.84	29
1891.84	24
1892.83	23
1893.83	26
1894.83	28
1895.82	25.5
1896.82	25
1897.81	25.5
1898.81	24
1899.81	24
1900.8	22
1901.8	23.5
1902.79	27
1903.78	26.5
1904.78	22.5
1905.77	25.5
1906.77	27
1907.76	28
1908.76	27
1909.75	28
1910.74	27.5
1911.74	27
1912.73	25
1913.72	22.5
1914.72	27
1915.71	26
1916.7	23
1917.7	25
1918.69	23
1919.68	28.5
1920.67	24
1921.66	29.5
1922.66	24.5
1923.65	25
1924.64	26
1925.63	24
1926.62	26.5
1927.61	20
1928.6	26.5
1929.59	24
1930.59	28
1931.58	26
1932.57	22
1933.56	22
1934.55	25.5
1935.54	26
1936.53	23
1937.52	24
1938.51	27.5
1939.49	22.5
1940.48	26.5
1941.47	27
1942.46	23.5
1943.45	22
1944.44	25
1945.43	25
1946.42	22
1947.4	24
1948.39	26
1949.38	27.5
1950.37	24.5
1951.35	26
1952.34	25
1953.33	23.5
1954.31	28
1955.3	26.5
1956.29	28.5
1957.27	25
1958.26	27
1959.25	27.5
1960.23	24.5
1961.22	25
1962.21	25
1963.19	24
1964.18	26
1965.16	23.5
1966.15	28
1967.13	24
1968.12	25
1969.1	30.5
1970.09	27.5
1971.07	27.5
1972.05	27.5
1973.04	25
1974.02	29
1975.01	29
1975.99	21.5
1976.97	25.5
1977.96	19.5
1978.94	26
1979.92	25.5
1980.91	29.5
1981.89	28
1982.87	24
1983.85	25
1984.84	25.5
1985.82	22
1986.8	24
1987.78	25
1988.76	24
1989.74	25
1990.73	23
1991.71	23
1992.69	23
1993.67	25.5
1994.65	27
1995.63	28
1996.61	28
1997.59	24.5
1998.57	24.5
1999.55	23.5
2000.53	22.5
2001.51	23
2002.49	23
2003.47	24
2004.45	25
2005.43	24
2006.41	24.5
2007.39	26
2008.37	26.5
2009.34	24
2010.32	25
2011.3	24.5
2012.28	26.5
2013.26	23.5
2014.23	27
2015.21	21
2016.19	22
2017.17	25
2018.14	23
2019.12	26.5
2020.1	26.5
2021.07	28
2022.05	27
2023.03	22.5
2024	25.5
2024.98	23
2025.96	23
2026.93	27
2027.91	24.5
2028.88	26.5
2029.86	22
2030.83	23
2031.81	27
2032.78	21.5
2033.76	21.5
2034.73	28
2035.71	24.5
2036.68	24.5
2037.66	27.5
2038.63	30
2039.6	23.5
2040.58	25
2041.55	21
2042.52	24
2043.5	24.5
2044.47	22.5
2045.44	23
2046.42	27
2047.39	24.5
2048.36	28
2049.33	19
2050.31	25
2051.28	23
2052.25	25
2053.22	24
2054.19	24
2055.17	25.5
2056.14	30.5
2057.11	21.5
2058.08	26
2059.05	27
2060.02	21
2060.99	21.5
2061.96	24
2062.93	28
2063.9	26.5
2064.87	20
2065.84	24
2066.81	21.5
2067.78	23.5
2068.75	27
2069.72	24.5
2070.69	24.5
2071.66	24.5
2072.63	26
2073.6	28
2074.56	25
2075.53	21
2076.5	28
2077.47	22.5
2078.44	25
2079.4	27
2080.37	20
2081.34	20
2082.31	26
2083.27	22.5
2084.24	25.5
2085.21	29
2086.18	25
2087.14	25.5
2088.11	28
2089.07	24.5
2090.04	28
2091.01	22
2091.97	22
2092.94	23
2093.9	26
2094.87	26.5
2095.83	24
2096.8	25
2097.76	27
2098.73	21
2099.69	23.5
2100.66	26.5
2101.62	23
2102.59	21
2103.55	25
2104.52	22.5
2105.48	24
2106.44	26.5
2107.41	30
2108.37	24
2109.33	27
2110.3	26.5
2111.26	28
2112.22	25
2113.18	25
2114.15	27
2115.11	24
2116.07	25
2117.03	22
2118	24.5
2118.96	23.5
2119.92	25
2120.88	24
2121.84	24
2122.8	22.5
2123.76	25
2124.72	21
2125.68	24.5
2126.65	24
2127.61	25
2128.57	23
2129.53	26
2130.49	22.5
2131.45	27
2132.41	25.5
2133.36	24.5
2134.32	25.5
2135.28	23
2136.24	24
2137.2	24
2138.16	26
2139.12	25
2140.08	23
2141.04	25.5
2141.99	23
2142.95	22.4987
2143.91	22.5001
2144.87	24.0423
2145.83	22.5532
2146.78	23.8448
2147.74	28.2444
2148.7	24.5316
2149.66	22.1678
2150.61	22.9718
2151.57	24.5989
2152.53	24.1083
2153.48	22.3372
2154.44	21.2231
2155.4	23.1839
2156.35	19.2802
2157.31	23.5984
2158.26	22.3521
2159.22	26.1165
2160.17	23.5126
2161.13	24.4453
2162.08	22.7421
2163.04	25.5938
2163.99	26.1331
2164.95	24.9904
2165.9	24.6999
2166.86	24.7592
2167.81	22.9301
2168.77	24.3006
2169.72	22.9553
2170.67	26.1357
2171.63	23.0795
2172.58	24.3751
2173.54	22.5521
2174.49	23.1139
2175.44	22.0685
2176.39	24.9065
2177.35	24.8553
2178.3	21.2277
2179.25	21.5145
2180.2	23.4111
2181.16	25.178
2182.11	23.6377
2183.06	24.9459
2184.01	22.7888
2184.96	22.285
2185.92	22.5153
2186.87	25.8723
2187.82	22.4186
2188.77	24.009
2189.72	22.7467
2190.67	23.1249
2191.62	23.3441
2192.57	24.0097
2193.52	25.6418
2194.47	25.1189
2195.42	22.8878
2196.37	22.6892
2197.32	23.2209
2198.27	22.0351
2199.22	20.9515
2200.17	21.5573
2201.12	20.3431
2202.07	26.2239
2203.02	23.9409
2203.97	22.705
2204.92	24.2277
2205.87	25.9765
2206.81	21.5358
2207.76	23.2642
2208.71	22.8145
2209.66	23.0671
2210.61	20.9643
2211.55	23.7215
2212.5	21.8202
2213.45	24.8134
2214.4	25.4303
2215.34	24.6339
2216.29	22.7618
2217.24	24.0215
2218.18	22.3084
2219.13	23.6432
2220.08	22.7439
2221.02	22.5995
2221.97	23.173
2222.92	22.8777
2223.86	24.4155
2224.81	26.0862
2225.75	21.5133
2226.7	24.8915
2227.64	24.1581
2228.59	23.6359
2229.53	24.2399
2230.48	25.0121
2231.42	22.1622
2232.37	24.9332
2233.31	22.4399
2234.26	21.2902
2235.2	23.3913
2236.14	22.657
2237.09	24.0753
2238.03	24.0508
2238.97	22.2857
2239.92	24.9991
2240.05	25.5
2241	23.5
2241.95	21.5
2242.89	27.5
2243.84	23.5
2244.79	23.5
2245.74	22
2246.68	24
2247.63	25.5
2248.58	24
2249.53	23.5
2250.47	25.5
2251.42	24
2252.36	24.5
2253.31	25.5
2254.26	25.5
2255.2	25.5
2256.15	28
2257.1	22
2258.04	23
2258.99	24
2259.93	23.5
2260.88	24.5
2261.82	20
2262.77	24.5
2263.71	22.5
2264.66	23.5
2265.6	25
2266.55	24
2267.49	23.5
2268.43	24.5
2269.38	24
2270.32	22
2271.26	25
2272.21	23.5
2273.15	28
2274.09	22.5
2275.04	23.5
2275.98	23
2276.92	25
2277.87	23.5
2278.81	21
2279.75	24.5
2280.69	26
2281.64	25
2282.58	22
2283.52	21
2284.46	20.5
2285.4	28
2286.34	17
2287.29	24
2288.23	24
2289.17	22
2290.11	23
2291.05	23
2291.99	24
2292.93	24.5
2293.87	25
2294.81	26.5
2295.75	24
2296.69	21.5
2297.63	24
2298.57	22
2299.51	24
2300.45	25
2301.39	22
2302.33	25
2303.27	24.5
2304.2	23
2305.14	22
2306.08	23.5
2307.02	23.5
2307.96	22.5
2308.9	24
2309.83	22.5
2310.77	24
2311.71	20
2312.65	24
2313.58	22
2314.52	22
2315.46	22.5
2316.39	23
2317.33	23
2318.27	22.5
2319.21	24
2320.14	24.5
2321.08	22.5
2322.01	24.5
2322.95	25
2323.89	23
2324.82	26.5
2325.76	22.5
2326.69	26.5
2327.63	25.5
2328.56	23
2329.5	21
2330.43	25.5
2331.37	26
2332.3	24
2333.24	22
2334.17	28
2335.1	23.5
2336.04	25
2336.97	23
2337.91	24
2338.84	23
2339.77	20
2340.71	23
2341.64	22
2342.57	22.5
2343.51	27.5
2344.44	26
2345.37	22
2346.3	22
2347.24	26.5
2348.17	20
2349.1	28
2350.03	22.5
2350.96	21.5
2351.89	21
2352.83	25.5
2353.76	22.5
2354.69	23
2355.62	22
2356.55	26.5
2357.48	22.5
2358.41	21
2359.34	26.5
2360.27	23
2361.2	24
2362.13	21
2363.06	27.5
2363.99	23
2364.92	26
2365.85	18
2366.78	25.5
2367.71	23.5
2368.64	24.5
2369.57	21.5
2370.5	22
2371.43	22.5
2372.36	23.5
2373.28	24
2374.21	23
2375.14	27
2376.07	22
2377	23.5
2377.93	27.5
2378.85	20.5
2379.78	24.5
2380.71	23.5
2381.63	23
2382.56	25
2383.49	21
2384.42	25.5
2385.34	29
2386.27	21
2387.2	22.5
2388.12	23
2389.05	23
2389.97	24.5
2390.9	25
2391.82	25
2392.75	20.5
2393.68	25
2394.6	28
2395.53	26.5
2396.45	25.5
2397.38	22.5
2398.3	25
2399.23	20
2400.15	25
2401.07	23
2402	27.5
2402.92	27
2403.85	20
2404.77	26
2405.69	24
2406.62	27
2407.54	28
2408.46	23.5
2409.39	24
2410.31	22
2411.23	21
2412.16	24
2413.08	24.5
2414	26
2414.92	23
2415.85	28
2416.77	23.5
2417.69	24
2418.61	21.5
2419.53	27
2420.45	26
2421.38	24.5
2422.3	27
2423.22	25.5
2424.14	28.5
2425.06	26.5
2425.98	26
2426.9	25
2427.82	24
2428.74	24
2429.66	24
2430.58	26
2431.5	24
2432.42	22.5
2433.34	20
2434.26	25.5
2435.18	23
2436.1	25
2437.02	28
2437.94	23
2438.85	25.5
2439.77	23
2440.69	25
2441.61	24
2442.53	24
2443.45	26
2444.36	22
2445.28	25
2446.2	20
2447.12	27
2448.03	26.5
2448.95	20
2449.87	23
2450.79	24
2451.7	23.5
2452.62	25.5
2453.54	24
2454.45	23
2455.37	25
2456.28	27
2457.2	27.5
2458.12	21
2459.03	29
2459.95	22.5
2460.86	23.5
2461.78	25.5
2462.69	27
2463.61	26
2464.52	23
2465.44	21
2466.35	22
2467.27	20
2468.18	28
2469.1	23
2470.01	25
2470.93	20
2471.84	22.5
2472.75	28
2473.67	22.5
2474.58	23
2475.49	24.5
2476.41	27
2477.32	26
2478.23	24.5
2479.15	27
2480.06	22
2480.97	26.5
2481.88	22
2482.79	24.5
2483.71	26
2484.62	26
2485.53	24.5
2486.44	24.5
2487.35	24
2488.26	25
2489.18	23.5
2490.09	22
2491	23.5
2491.91	23
2492.82	22.5
2493.73	27
2494.64	26
2495.55	28
2496.46	26
2497.37	26.5
2498.28	27
2499.19	22.5
2500.1	25.5
2501.01	26
2501.92	24
2502.83	28.5
2503.74	23
2504.65	22.5
2505.56	21.5
2506.47	29
2507.37	26.5
2508.28	25
2509.19	23.5
2510.1	25.5
2511.01	24.5
2511.92	24.5
2512.82	23
2513.73	23
2514.64	24.5
2515.55	28.5
2516.45	25.5
2517.36	24
2518.27	22.5
2519.17	26
2520.08	21
2520.99	22.5
2521.89	21.5
2522.8	24.5
2523.71	23.5
2524.61	25.5
2525.52	25.5
2526.42	24.5
2527.33	26.5
2528.24	22
2529.14	26
2530.05	24.5
2530.95	26.5
2531.86	29
2532.76	25
2533.67	25.5
2534.57	25
2535.48	22.5
2536.38	25.5
2537.28	29.5
2538.19	27
2539.09	27
2540	24.5
2540.9	22
2541.8	25.5
2542.71	26.5
2543.61	25.5
2544.51	22.5
2545.42	25.5
2546.32	24
2547.22	26
2548.12	27.5
2549.03	24
2549.93	26.5
2550.83	24.5
2551.73	22
2552.63	23
2553.54	26
2554.44	26.5
2555.34	27
2556.24	21
2557.14	23
2558.04	26.5
2558.94	21.5
2559.85	22
2560.75	25.5
2561.65	23
2562.55	25
2563.45	26
2564.35	24
2565.25	26.5
2566.15	24
2567.05	24.5
2567.95	26
2568.85	25.5
2569.75	22.5
2570.65	23
2571.55	23
2572.44	27
2573.34	22
2574.24	23
2575.14	25.5
2576.04	26
2576.94	26.5
2577.84	23
2578.73	25
2579.63	24
2580.53	22.5
2581.43	25
2582.33	27
2583.22	21.5
2584.12	29
2585.02	24.5
2585.91	26.5
2586.81	23.5
2587.71	23
2588.6	26
2589.5	27
2590.4	24.5
2591.29	27
2592.19	28
2593.09	27
2593.98	22.5
2594.88	23.5
2595.77	26.5
2596.67	24
2597.56	21
2598.46	26.5
2599.35	25
2600.25	24
2601.14	27
2602.04	27
2602.93	22.5
2603.83	19.5
2604.72	28
2605.62	28
2606.51	22.5
2607.4	22.5
2608.3	22
2609.19	27
2610.09	24
2610.98	26.5
2611.87	26
2612.76	27
2613.66	24.5
2614.55	20.5
2615.44	25
2616.34	24
2617.23	26.5
2618.12	25
2619.01	25
2619.9	24
2620.8	26
2621.69	25
2622.58	26
2623.47	25.5
2624.36	22
2625.25	25
2626.15	24.5
2627.04	25
2627.93	25
2628.82	26
2629.71	29
2630.6	26
2631.49	24.5
2632.38	24
2633.27	29
2634.16	25.5
2635.05	26
2635.94	30.5
2636.83	26
2637.72	24
2638.61	27
2639.5	21.5
2640.39	23
2641.28	28
2642.16	28
2643.05	24
2643.94	25.5
2644.83	29.5
2645.72	25.5
2646.61	24
2647.49	25
2648.38	22
2649.27	21.5
2650.16	25
2651.05	21.5
2651.93	23.5
2652.82	25.5
2653.71	23
2654.59	25
2655.48	27
2656.37	24.5
2657.25	26
2658.14	22.5
2659.03	29
2659.91	24
2660.8	20
2661.69	21
2662.57	25.5
2663.46	25.5
2664.34	21.5
2665.23	25.5
2666.11	26.5
2667	20.5
2667.88	20.5
2668.77	23.5
2669.65	25.5
2670.54	23
2671.42	25
2672.31	21
2673.19	25
2674.08	28
2674.96	20.5
2675.84	25.5
2676.73	25
2677.61	26.5
2678.49	24.5
2679.38	26
2680.26	24
2681.14	25
2682.03	29
2682.91	28.5
2683.79	23
2684.68	26.5
2685.56	23
2686.44	24.5
2687.32	25
2688.2	31.5
2689.09	25
2689.97	23.5
2690.85	26.5
2691.73	26.5
2692.61	21
2693.49	25.5
2694.38	26
2695.26	24.5
2696.14	23.5
2697.02	26
2697.9	24.5
2698.78	25.5
2699.66	25
2700.54	25.5
2701.42	27
2702.3	29.5
2703.18	24
2704.06	24.5
2704.94	23.5
2705.82	21
2706.7	24.5
2707.58	25
2708.46	23.5
2709.34	20.5
2710.21	26.5
2711.09	23
2711.97	28
2712.85	25
2713.73	27.5
2714.61	26
2715.49	26
2716.36	24.5
2717.24	27.5
2718.12	23.5
2719	26
2719.87	25
2720.75	22.5
2721.63	22.5
2722.51	24.5
2723.38	25
2724.26	27
2725.14	21
2726.01	22.5
2726.89	28
2727.77	25.5
2728.64	22
2729.52	24.5
2730.39	24
2731.27	24.5
2732.15	22.5
2733.02	26
2733.9	26.5
2734.77	26.5
2735.65	26
2736.52	27.5
2737.4	25.5
2738.27	23.5
2739.15	24
2740.02	25.5
2740.89	22.5
2741.77	24
2742.64	25.5
2743.52	26
2744.39	25
2745.27	24
2746.14	24.5
2747.01	25.5
2747.89	23
2748.76	21.5
2749.63	26
2750.51	26
2751.38	26.5
2752.25	27
2753.12	25.5
2754	26.5
2754.87	25
2755.74	28.5
2756.61	22
2757.48	23.5
2758.36	23.5
2759.23	23.5
2760.1	22
2760.97	25.5
2761.84	25.5
2762.71	22.5
2763.59	25
2764.46	25
2765.33	23.5
2766.2	27.5
2767.07	24
2767.94	24
2768.81	24
2769.68	23
2770.55	26.5
2771.42	25.5
2772.29	24.5
2773.16	24
2774.03	24.5
2774.9	24
2775.77	23
2776.64	23.5
2777.51	26.5
2778.37	29
2779.24	24
2780.11	25
2780.98	25.5
2781.85	22.5
2782.72	26
2783.59	26
2784.45	27
2785.32	25
2786.19	25
2787.06	27.5
2787.92	29.5
2788.79	25.5
2789.66	28
2790.53	23
2791.39	26.5
2792.26	26.5
2793.13	24
2793.99	26.5
2794.86	24
2795.73	25.5
2796.59	23.5
2797.46	25.5
2798.33	22
2799.19	23.5
2800.06	28.5
2800.92	26.75
2801.79	24.5
2802.65	28
2803.52	30.5
2804.39	28.5
2805.25	25.5
2806.11	23
2806.98	25
2807.84	28
2808.71	22
2809.57	28
2810.44	32
2811.3	25
2812.17	23.5
2813.03	29.5
2813.89	25
2814.76	22.5
2815.62	28.5
2816.49	22
2817.35	27
2818.21	25
2819.07	28
2819.94	29
2820.8	26
2821.66	27.5
2822.53	21.5
2823.39	24
2824.25	23
2825.11	25
2825.97	23
2826.84	28
2827.7	25
2828.56	23.5
2829.42	31.5
2830.28	25
2831.14	29.5
2832.01	29
2832.87	26
2833.73	25
2834.59	27
2835.45	28.5
2836.31	24.5
2837.17	21.5
2838.03	23.5
2838.89	27.5
2839.75	25
2840.61	28
2841.47	25.5
2842.33	24
2843.19	22
2844.05	25
2844.91	23.5
2845.77	24
2846.63	30
2847.48	27
2848.34	27.5
2849.2	28
2850.06	24.5
2850.92	26
2851.78	23
2852.64	27.5
2853.49	28
2854.35	25.5
2855.21	24
2856.07	26.5
2856.93	29.5
2857.78	24
2858.64	27
2859.5	24
2860.35	25
2861.21	25
2862.07	26.5
2862.93	26
2863.78	26.5
2864.64	26.5
2865.49	28
2866.35	25
2867.21	27
2868.06	29
2868.92	28
2869.77	25.5
2870.63	30.5
2871.49	29
2872.34	26
2873.2	30.5
2874.05	29
2874.91	32
2875.76	30
2876.62	28.5
2877.47	31
2878.32	30
2879.18	31
2880.03	33
2880.89	30.5
2881.74	32.5
2882.6	35
2883.45	33.5
2884.3	35
2885.16	37
2886.01	34.5
2886.86	34.5
2887.72	36.5
2888.57	35
2889.42	38
2890.27	37
2891.13	38
2891.98	42
2892.83	40
2893.68	43
2894.54	47
2895.39	46
2896.24	48.5
2897.09	49
2897.94	50.5
2898.8	55.5
2899.65	52.5
2900.5	61
2901.35	63.5
2902.2	63
2903.05	62.5
2903.9	70
2904.75	63.5
2905.6	69.5
2906.45	69
2907.3	65
2908.15	69.5
2909.01	62
2909.85	54.5
2910.7	62
2911.55	51
2912.4	54
2913.25	57
2914.1	49.5
2914.95	52.5
2915.8	45
2916.65	46.5
2917.5	41.5
2918.35	37
2919.2	38.5
2920.04	37
2920.89	35.5
2921.74	35.5
2922.59	35
2923.44	30.5
2924.29	35
2925.13	32
2925.98	30
2926.83	33.5
2927.68	29
2928.52	29
2929.37	29
2930.22	30
2931.06	27.5
2931.91	29
2932.76	30.5
2933.6	30
2934.45	27.5
2935.3	29.5
2936.14	26
2936.99	20
2937.83	24
2938.68	28
2939.53	29.5
2940.37	27.5
2941.22	28
2942.06	33
2942.91	29.5
2943.75	29.5
2944.6	27
2945.44	29
2946.29	27.5
2947.13	25.5
2947.98	33.5
2948.82	32.5
2949.66	28
2950.51	30.5
2951.35	31
2952.2	32.5
2953.04	35.5
2953.88	29
2954.73	29
2955.57	29
2956.41	32.5
2957.26	36.5
2958.1	39.5
2958.94	35.5
2959.79	38
2960.63	39
2961.47	43
2962.31	38
2963.15	38.5
2964	45.5
2964.84	45.5
2965.68	46
2966.52	45.5
2967.37	40.5
2968.21	45.5
2969.05	42
2969.89	41.5
2970.73	37
2971.57	37.0146
2972.41	38.8894
2973.25	36.4307
2974.09	37.0044
2974.93	34.6893
2975.77	31.6174
2976.62	34.9292
2977.46	31.2366
2978.3	28.8708
2979.14	32.5723
2979.98	30.8764
2980.81	30.6507
2981.65	29.4114
2982.49	26.6622
2983.33	28.6121
2984.17	26.8626
2985.01	26.098
2985.85	29.0447
2986.69	26.0624
2987.53	27.6305
2988.37	24.8765
2989.21	24.0432
2990.04	27.5879
2990.88	25.9863
2991.72	26.0515
2992.56	26.262
2993.4	23.0118
2994.23	23.8665
2995.07	22.0081
2995.91	28.1027
2996.75	24.3887
2997.58	22.8446
2998.42	26.0216
2999.26	24.3682
3000.1	24.9121
3000.93	23.7844
3001.77	24.6772
3002.61	21.4301
3003.44	24.3911
3004.28	23.9601
3005.11	22.753
3005.95	22.4286
3006.79	24.6808
3007.62	24.723
3008.46	22.0782
3009.29	22.6856
3010.13	22.3714
3010.97	23.6587
3011.8	24.4527
3012.64	26.5054
3013.47	24.1222
3014.31	22.9729
3015.14	20.9411
3015.98	22.4607
3016.81	22.8685
3017.64	22.32
3018.48	23.3266
3019.31	22.4824
3020.15	22.615
3020.98	22.3609
3021.82	23.9867
3022.65	22.9854
3023.48	24.2547
3024.32	22.8495
3025.15	23.4564
3025.98	23.7168
3026.82	24.2856
3027.65	23.6644
3028.48	23.2981
3029.31	23.5609
3030.15	23.2935
3030.98	22.4046
3031.81	24.0757
3032.64	22.6369
3033.48	21.8724
3034.31	21.993
3035.14	24.097
3035.97	23.1941
3036.8	21.4409
3037.64	22.271
3038.47	23.2184
3039.3	23.3974
3040.13	23.5
3040.96	23.4053
3041.79	24.354
3042.62	25.1789
3043.45	25.4381
3044.28	23.6891
3045.12	20.7112
3045.95	20.7621
3046.78	21.3076
3047.61	22.9754
3048.44	24.0185
3049.27	23.8819
3050.1	24.2775
3050.92	25.8345
3051.75	22.4264
3052.58	20.3685
3053.41	23.6236
3054.24	26.5186
3055.07	23.0629
3055.9	23.5875
3056.73	25.6805
3057.26	26
3058.09	22
3058.93	25
3059.76	20.5
3060.59	25
3061.43	22
3062.26	25.5
3063.09	25.5
3063.92	22
3064.76	23.5
3065.59	21.5
3066.42	25
3067.25	21.5
3068.08	22
3068.92	27.5
3069.75	24.5
3070.58	23.5
3071.41	23
3072.24	24
3073.07	24
3073.9	22.5
3074.73	16
3075.57	20.5
3076.4	22
3077.23	20.5
3078.06	22
3078.89	22
3079.72	26
3080.55	22
3081.38	25
3082.21	27
3083.04	25
3083.87	21.5
3084.7	27.5
3085.53	25.5
3086.36	25
3087.19	22.5
3088.01	26
3088.84	21
3089.67	23.5
3090.5	25
3091.33	24
3092.16	25.5
3092.99	24.5
3093.81	24
3094.64	23.5
3095.47	22
3096.3	26.5
3097.13	24
3097.95	24.5
3098.78	26.5
3099.61	25
3100.44	23
3101.26	23
3102.09	26
3102.92	22
3103.74	23.5
3104.57	21.5
3105.4	24.5
3106.22	22.5
3107.05	21
3107.88	22.5
3108.7	23
3109.53	25
3110.35	23
3111.18	20
3112.01	25.5
3112.83	22
3113.66	21
3114.48	25
3115.31	23.5
3116.13	22
3116.96	25
3117.78	23
3118.61	24
3119.43	18
3120.26	27
3121.08	24.5
3121.9	27
3122.73	25
3123.55	21.5
3124.38	27.5
3125.2	25
3126.02	22
3126.85	23
3127.67	23
3128.49	23.5
3129.32	25
3130.14	24.5
3130.96	22
3131.79	23
3132.61	21.5
3133.43	20.5
3134.25	23.5
3135.08	24
3135.9	26.5
3136.72	22.5
3137.54	24.5
3138.37	23
3139.19	24.5
3140.01	25
3140.83	22
3141.65	23.5
3142.47	23.5
3143.29	19
3144.12	22.5
3144.94	22
3145.76	27
3146.58	24.5
3147.4	24
3148.22	22.5
3149.04	24.5
3149.86	25
3150.68	23
3151.5	26
3152.32	23
3153.14	25
3153.96	22.5
3154.78	25.5
3155.6	22
3156.42	21
3157.24	21
3158.06	23.5
3158.88	22.5
3159.7	22.5
3160.51	27.5
3161.33	28
3162.15	21
3162.97	24
3163.79	24.5
3164.61	24
3165.42	23
3166.24	22.5
3167.06	22
3167.88	21
3168.7	26
3169.51	23
3170.33	18.5
3171.15	25.5
3171.97	21
3172.78	25.5
3173.6	22
3174.42	24
3175.23	24
3176.05	25
3176.87	24.5
3177.68	24.5
3178.5	22
3179.32	25
3180.13	24
3180.95	25
3181.76	20
3182.58	24.5
3183.4	24.5
3184.21	26.5
3185.03	23
3185.84	22
3186.66	25
3187.47	28
3188.29	25.5
3189.1	23.5
3189.92	22
3190.73	23.5
3191.55	24
3192.36	29
3193.17	20
3193.99	25
3194.8	25
3195.62	21
3196.43	25
3197.24	23.5
3198.06	27.5
3198.87	22.5
3199.68	25
3200.5	23
3201.31	20.5
3202.12	26
3202.94	23
3203.75	27
3204.56	23
3205.38	24.5
3206.19	21
3207	24
3207.81	23.5
3208.62	23.5
3209.44	20.5
3210.25	21
3211.06	24
3211.87	27.5
3212.68	23.5
3213.49	27
3214.31	21
3215.12	23.5
3215.93	23
3216.74	27
3217.55	23.5
3218.36	26.5
3219.17	24
3219.98	24.5
3220.79	22
3221.6	27
3222.41	26.5
3223.22	24.5
3224.03	23
3224.84	25.5
3225.65	25.5
3226.46	20
3227.27	24.5
3228.08	25
3228.89	21
3229.7	27.5
3230.51	27
3231.32	22
3232.13	23
3232.94	25.5
3233.74	22
3234.55	24
3235.36	24.5
3236.17	24
3236.98	24.5
3237.78	25
3238.59	20.5
3239.4	25
3240.21	25
3241.02	28
3241.82	26.5
3242.63	25.5
3243.44	21.5
3244.25	23
3245.05	20
3245.86	20.5
3246.67	22
3247.47	24.5
3248.28	21.5
3249.09	23.5
3249.89	22
3250.7	23
3251.5	24
3252.31	24
3253.12	22.5
3253.92	25
3254.73	25
3255.53	23
3256.34	23.5
3257.14	24.5
3257.95	24
3258.75	23
3259.56	24
3260.36	23.5
3261.17	24
3261.97	22.5
3262.78	21
3263.58	24
3264.39	23.5
3265.19	21
3265.99	23
3266.8	24
3267.6	24.5
3268.41	26
3269.21	21
3270.01	22
3270.82	23
3271.62	23.5
3272.42	20.5
3273.23	27
3274.03	26.5
3274.83	26.5
3275.64	27
3276.44	24
3277.24	27
3278.04	26
3278.85	27
3279.65	25
3280.45	21.5
3281.25	23
3282.05	24
3282.85	25
3283.66	23.5
3284.46	22
3285.26	23.5
3286.06	22
3286.86	25
3287.66	20.5
3288.46	20
3289.27	23.5
3290.07	23.5
3290.87	22
3291.67	23.5
3292.47	26
3293.27	23
3294.07	23.5
3294.87	25
3295.67	22.5
3296.47	25
3297.27	21
3298.07	23
3298.87	22
3299.67	23.5
3300.47	26
3301.26	27
3302.06	25
3302.86	22.5
3303.66	28
3304.46	25.5
3305.26	24
3306.06	22
3306.86	25
3307.65	24
3308.45	25.5
3309.25	25.5
3310.05	24
3310.85	26
3311.64	24
3312.44	22
3313.24	28.5
3314.04	25
3314.83	23
3315.63	26.5
3316.43	24
3317.22	23
3318.02	26
3318.82	25.5
3319.62	27
3320.41	27.5
3321.21	24.5
3322	25
3322.8	24.5
3323.6	24
3324.39	25.5
3325.19	25
3325.98	22
3326.78	27
3327.58	26
3328.37	24
3329.17	24.5
3329.96	27
3330.76	23.5
3331.55	26.5
3332.35	21
3333.14	22.5
3333.94	23.5
3334.73	24
3335.52	23.5
3336.32	24.5
3337.11	21
3337.91	23.5
3338.7	23
3339.5	23
3340.29	25
3341.08	28
3341.88	24
3342.67	24
3343.46	22
3344.26	26.5
3345.05	22.5
3345.84	26
3346.63	24.5
3347.43	25.5
3348.22	25.5
3349.01	27.5
3349.8	26.5
3350.6	27.5
3351.39	24.5
3352.18	22
3352.97	24
3353.77	23
3354.56	24.5
3355.35	23
3356.14	25
3356.93	22.5
3357.72	24
3358.51	24.5
3359.31	24
3360.1	24
3360.89	26
3361.68	26.5
3362.47	22
3363.26	21.5
3364.05	21
3364.84	23
3365.63	24.5
3366.42	25.5
3367.21	26
3368	22
3368.79	25
3369.58	21
3370.37	25
3371.16	27
3371.95	27
3372.74	22
3373.53	27
3374.32	26.5
3375.1	24.5
3375.89	25
3376.68	23.5
3377.47	24.5
3378.26	24.5
3379.05	26.5
3379.84	24.5
3380.62	27
3381.41	27
3382.2	23
3382.99	23.5
3383.78	23.5
3384.56	24
3385.35	28
3386.14	21.5
3386.93	26
3387.71	23.5
3388.5	24.5
3389.29	26
3390.07	22
3390.86	22
3391.65	22
3392.43	23.5
3393.22	24
3394.01	18
3394.79	22.5
3395.58	29
3396.36	22
3397.15	24.5
3397.94	20
3398.72	22
3399.51	23.5
3400.29	22
3401.08	25
3401.86	24
3402.65	24
3403.43	26.5
3404.22	25
3405	24
3405.79	24
3406.57	23
3407.36	23.5
3408.14	23.5
3408.93	24
3409.71	26.5
3410.49	25.5
3411.28	24
3412.06	24
3412.84	25.5
3413.63	26.5
3414.41	27
3415.2	24.5
3415.98	26
3416.76	19
3417.54	22.5
3418.33	28.5
3419.11	21
3419.89	23.5
3420.68	21
3421.46	24.5
3422.24	22.5
3423.02	23.5
3423.81	18.5
3424.59	23
3425.37	24
3426.15	22.5
3426.93	23.5
3427.71	25
3428.5	25
3429.28	25.5
3430.06	26
3430.84	25.5
3431.62	24
3432.4	21
3433.18	22
3433.96	23
3434.75	26.5
3435.53	24
3436.31	25
3437.09	28
3437.87	22.5
3438.65	25
3439.43	28
3440.21	24
3440.99	22
3441.77	23
3442.55	25.5
3443.33	26.5
3444.1	24.5
3444.88	28
3445.66	24.5
3446.44	23.5
3447.22	21
3448	22
3448.78	23.5
3449.56	27
3450.34	22.5
3451.11	24
3451.89	25
3452.67	26
3453.45	26
3454.23	25
3455	25.5
3455.78	23
3456.56	24
3457.34	23
3458.11	24
3458.89	26.5
3459.67	23
3460.45	21.5
3461.22	24
3462	23
3462.78	21
3463.55	23
3464.33	18.5
3465.11	22
3465.88	27.5
3466.66	27
3467.44	23
3468.21	22.5
3468.99	26
3469.76	25
3470.54	25
3471.32	20.5
3472.09	23.5
3472.87	26
3473.64	23
3474.42	24
3475.19	25
3475.97	23.5
3476.74	22
3477.52	28.5
3478.29	22.5
3479.07	27.5
3479.84	26.5
3480.61	26
3481.39	26.5
3482.16	24.5
3482.94	23
3483.71	26
3484.48	26
3485.26	24
3486.03	23.5
3486.81	26
3487.58	25
3488.35	22
3489.13	22.5
3489.9	29.5
3490.67	25
3491.44	23
3492.22	21.5
3492.99	25
3493.76	25
3494.54	21
3495.31	24
3496.08	23
3496.85	26.5
3497.62	23.5
3498.4	25
3499.17	21.5
3499.94	23.5
