#Acq. time (s)=	5
#Accumulations=	5
#Range (cm-¹)=	100...3500
#Windows=	4
#Autofocus=	Off
#AutoExposure=	Off
#Spike filter=	Multiple accum.
#Delay time (s)=	0
#Binning=	1
#Readout mode=	Signal
#DeNoise=	Off
#ICS correction=	Off
#Dark correction=	Off
#Inst. Process=	Off
#Instrument=	LabRAM HR Evol
#Detector=	Syncerity OE
#Objective=	x100_VIS
#Grating=	600 (500nm)
#ND Filter=	25%
#Laser=	633nm_Edge
#Hole=	100.021
#Range=	Visible
#Project=	verificaciones
#Sample=	at4
#Site=	plain
#Title=	bolusat4plain
#Remark=	com
#Date=	16.01.2026 17:24
#Acquired=	16.01.2026 17:24:10
100.564	24.5
101.847	31
103.131	32
104.414	28.5
105.697	25.5
106.979	25
108.262	27
109.544	25
110.826	26
112.109	26
113.391	29.5
114.672	30
115.954	29.5
117.235	26.5
118.515	29
119.796	28
121.076	27.5
122.357	27
123.637	27.5
124.916	26.5
126.196	27
127.475	26
128.754	29
130.033	29
131.31	26
132.589	27.5
133.867	32.5
135.145	27.5
136.423	28.5
137.701	30.5
138.978	30.5
140.256	27
141.533	31
142.809	27.5
144.086	27.5
145.361	27.5
146.637	27
147.913	30.5
149.189	32
150.464	31
151.74	30.5
153.014	30
154.288	29.5
155.563	31
156.838	30
158.112	31
159.385	29
160.659	34
161.932	29.5
163.206	26.5
164.479	33.5
165.751	30
167.024	29.5
168.296	36
169.567	29
170.84	29.5
172.112	25
173.383	29.5
174.654	28.5
175.925	27
177.196	34.5
178.466	33
179.737	32.5
181.007	36
182.276	29.5
183.546	32
184.816	29.5
186.085	35
187.354	29
188.624	33.5
189.891	31.5
191.16	29.5
192.427	31
193.696	27
194.964	30.5
196.231	27
197.499	33
198.765	30.5
200.033	29
201.298	31
202.566	31.5
203.831	28
205.098	27
206.363	33.5
207.629	28.5
208.894	27.5
210.159	30
211.424	30
212.689	29.5
213.953	28
215.218	29.5
216.481	30
217.746	31
219.009	33
220.273	33.5
221.536	29
222.798	29
224.062	31.5
225.323	26.5
226.587	25.5
227.848	31.5
229.109	25
230.372	31
231.633	29
232.894	25
234.156	27
235.416	32.5
236.678	27.5
237.937	25
239.197	29
240.457	27
241.717	31
242.976	26
244.235	22.5
245.495	29
246.754	25
248.012	27
249.27	28
250.529	31.5
251.787	28
253.045	28.5
254.302	28.5
255.56	27.5
256.817	25.5
258.074	27
259.33	26
260.586	23.5
261.844	25
263.1	28
264.355	25
265.611	29.5
266.866	27.5
268.121	29.5
269.377	28.5
270.632	24
271.886	26
273.14	28.5
274.394	25.5
275.648	26
276.902	24
278.155	23.5
279.408	26
280.663	24
281.915	25
283.168	28.5
284.42	29
285.673	27.5
286.925	24
288.176	27.5
289.428	26.5
290.679	28
291.93	26
293.181	25
294.432	33
295.683	31
296.933	29
298.183	30
299.433	29.5
300.683	25.5
301.932	29
303.182	24
304.429	28
305.678	27
306.927	30
308.176	26.5
309.424	29
310.672	24
311.92	28.5
313.168	28
314.415	30
315.661	32.5
316.908	23.5
318.155	25.5
319.402	29
320.648	27
321.895	27.5
323.139	26.5
324.385	29
325.631	31.5
326.877	29
328.122	28
329.366	27
330.611	26
331.855	28
333.1	26.5
334.343	27
335.587	27
336.831	24
338.074	29
339.317	26.5
340.56	26
341.803	27.5
343.044	25.5
344.287	26
345.53	25
346.771	25.5
348.013	24.5
349.255	24
350.495	26
351.736	29.5
352.978	26
354.217	31.5
355.458	23
356.699	29
357.938	30
359.178	29.5
360.417	28
361.657	28.5
362.895	25
364.135	24.5
365.374	24
366.612	29.5
367.851	28.5
369.088	26
370.327	30
371.564	28.5
372.802	24.5
374.038	27
375.276	22
376.512	25.5
377.749	31.5
378.985	25.5
380.222	25
381.457	26.5
382.692	30
383.929	24.5
385.164	23.5
386.4	29
387.634	24.5
388.869	30.5
390.103	21
391.337	24.5
392.572	27.5
393.805	29.5
395.038	26
396.273	28
397.506	31
398.74	27.5
399.972	26.5
401.204	30
402.437	23.5
403.669	26.5
404.901	31
406.132	25
407.365	25.5
408.596	27.5
409.826	28
411.058	27.5
412.289	24
413.519	27.5
414.749	28
415.98	28.5
417.21	24
418.439	21
419.668	29
420.897	26
422.128	24.5
423.356	28
424.585	25.5
425.813	28
427.041	23
428.269	26
429.498	26.5
430.725	24
431.952	26.5
433.179	25
434.406	22
435.633	27
436.859	29
438.085	29.5
439.312	27.5
440.537	30.5
441.764	28.5
442.99	25.5
444.215	24
445.44	27.5
446.665	26
447.89	25
449.114	30.5
450.339	25.5
451.563	27
452.787	25
454.01	24.5
455.234	25.5
456.457	24.5
457.68	30
458.903	26
460.126	25
461.348	26
462.569	28
463.792	27
465.013	29.5
466.235	32.5
467.457	26
468.678	32
469.899	28
471.12	28
472.341	34
473.56	29.5
474.781	30
476.001	34.5
477.221	31
478.441	29.5
479.66	37
480.878	34
482.098	33.5
483.317	36
484.535	34
485.754	38.5
486.971	38.5
488.189	40.5
489.407	44
490.625	39.5
491.842	36.5
493.059	37.5
494.276	36
495.493	37
496.709	35
497.926	32
499.142	35
500.357	32.5
501.573	34
502.789	25
504.003	31.5
505.219	34
506.434	29.5
507.648	28
508.863	30.5
510.078	27
511.291	31
512.505	30
513.718	31.5
514.932	28
516.145	26
517.358	27.5
518.572	28.5
519.783	30.5
520.997	26
522.208	27
523.421	26
524.632	26.5
525.844	29.5
527.055	31
528.266	31
529.477	23.5
530.688	30
531.898	26
533.109	29.5
534.319	30
535.53	27.5
536.739	29
537.948	28
539.158	28
540.366	31.5
541.576	24.5
542.784	28
543.994	25
545.201	29
546.409	29
547.618	27
548.825	28
550.032	27.5
551.24	29.5
552.447	30
553.654	23
554.861	27
556.067	30.5
557.273	30
558.48	26.5
559.686	27
560.891	26.5
562.096	20.5
563.302	28
564.507	29
565.712	28.5
566.916	26
568.122	29.5
569.326	24
570.529	28
571.733	24.5
572.936	27.5
574.141	26
575.344	32.5
576.547	21.5
577.75	29
578.952	26.5
580.154	24
581.358	25
582.56	24
583.761	30
584.963	28.5
586.164	24.5
587.365	27.5
588.566	26.5
589.767	28
590.967	25
592.168	26
593.369	26
594.569	22
595.769	25
596.969	29
598.168	23
599.367	21
600.566	26.5
601.765	27
602.964	27.5
604.162	26.5
605.361	25.5
606.559	27.5
607.757	30.5
608.953	22.5
610.151	29
611.348	28
612.545	25.5
613.742	29
614.939	23
616.135	29
617.332	31
618.528	27.5
619.724	26
620.918	28
622.114	26.5
623.309	26.5
624.505	26.5
625.7	31.5
626.895	26.5
628.088	28
629.282	28.5
630.477	24
631.671	26
632.865	27.5
634.057	27
635.251	29.5
636.444	28.5
637.637	24.5
638.829	28
640.022	28.5
641.214	32
642.407	29
643.598	26.5
644.79	30.5
645.982	26.5
647.172	30
648.364	27
649.555	24.5
650.745	23
651.936	29
653.126	26
654.315	22.5
655.506	28.5
656.696	27
657.885	25
659.074	24.5
660.263	30.5
661.452	27.5
662.64	28.5
663.829	30.5
665.018	29.5
666.205	30
667.394	26
668.581	30.5
669.769	26
670.955	25.5
672.143	28
673.329	31
674.517	28.5
675.703	29
676.89	29
678.075	29
679.262	29
680.447	28.5
681.632	30
682.818	28
684.002	29
685.188	31.5
686.372	27.5
687.556	31.5
688.741	27
689.925	28
691.11	27
692.293	33.5
693.476	30
694.66	29.5
695.843	30
697.025	28
698.209	30.5
699.391	30
700.573	31
701.756	29.5
702.938	37
704.119	30
705.3	34
706.483	34
707.664	41
708.844	32
710.025	32
711.206	33
712.386	32.5
713.566	30.5
714.746	30
715.925	24
717.106	31.5
718.285	29.5
719.464	24
720.643	28
721.822	32
723	26
724.178	28.5
725.358	25.5
726.536	32
727.713	30.5
728.891	25.5
730.068	26
731.245	25
732.422	24
733.599	23.5
734.775	29
735.952	29.5
737.128	27
738.304	30
739.48	29
740.656	26.5
741.831	26.5
743.006	26
744.181	28
745.356	26
746.531	26.5
747.706	29.5
748.88	26
750.054	28
751.228	28.5
752.402	24
753.576	29
754.749	28
755.922	27
757.095	30.5
758.267	29
759.44	25.5
760.612	27.5
761.785	30
762.957	26.5
764.129	26
765.301	26
766.471	26.5
767.642	27
768.814	26.5
769.985	27
771.156	26
772.325	29
773.495	28
774.666	29
775.836	28
777.005	32
778.174	26
779.344	23
780.513	28
781.681	28.5
782.85	31.5
784.019	29.5
785.187	29.5
786.355	28.5
787.523	32.5
788.69	29.5
789.858	31
791.026	30.5
792.192	29
793.36	28
794.526	28.5
795.693	26
796.86	26.5
798.025	28.5
799.191	27.5
800.356	26.5
801.523	29
802.689	29
803.853	25.5
805.019	30
806.183	29.5
807.348	26
808.512	28.5
809.677	23
810.84	27.5
812.005	30.5
813.167	29
814.332	27
815.494	30.5
816.657	30.5
817.82	30.5
818.982	30
820.146	26
821.307	28.5
822.47	29.5
823.632	25
824.793	22
825.955	29.5
827.116	23
828.277	26
829.439	28.5
830.599	25.5
831.759	27.5
832.92	27.5
834.08	26
835.24	24
836.4	29.5
837.56	27
838.719	25
839.877	27
841.037	24.5
842.196	27.5
843.354	26
844.512	26
845.672	26
846.83	27
847.987	24.5
849.145	27.5
850.302	26.5
851.46	26
852.617	24
853.774	27
854.93	26
856.087	29
857.243	29.5
858.4	25
859.556	32
860.712	28.5
861.867	30.5
863.022	29
864.177	24
865.332	27
866.487	28
867.642	27
868.796	27.5
869.95	25.5
871.104	25.5
872.258	26
873.412	26.5
874.565	27
875.718	28
876.872	29
878.024	27
879.177	26.5
880.33	24
881.482	28
882.635	28
883.787	28.5
884.938	26
886.09	24.5
887.242	25
888.393	27
889.544	25.5
890.695	25
891.845	27.5
892.995	27.5
894.146	29.5
895.296	25.5
896.446	29
897.596	26
898.744	30.5
899.894	28.5
901.043	28.5
902.193	29.5
903.342	27
904.489	27.5
905.638	26
906.786	26.5
907.935	28
909.081	27
910.229	25.5
911.377	26.5
912.525	25
913.671	25
914.818	26.5
915.965	26
917.111	27.5
918.258	25
919.404	26.5
920.549	26
921.695	23.5
922.84	27.5
923.986	25
925.132	27.5
926.276	26
927.421	20.5
928.565	24
929.71	23
930.855	26.5
931.998	30
933.142	22
934.285	25
935.429	27
936.572	29
937.716	22
938.858	27.5
940.001	29
941.143	27
942.286	29
943.428	22
944.57	26.5
945.712	23.5
946.854	27
947.995	25.5
949.135	23.5
950.277	26
951.418	22.5
952.559	28
953.699	28
954.839	25.5
955.98	23
957.119	24.5
958.258	30.5
959.399	25.5
960.538	26
961.676	23
962.816	22
963.955	24
965.093	26.5
966.232	25.5
967.37	24
968.508	23.5
969.645	28
970.784	29
971.921	29.5
973.058	28
974.195	22.5
975.333	27
976.469	25.5
977.605	23.5
978.741	26
979.877	21.5
981.013	25.5
982.15	26.5
983.285	25.5
984.421	24
985.556	22
986.691	26.5
987.825	23.5
988.96	24.5
990.094	24
991.228	27.5
992.364	30.5
993.497	24
994.631	26.5
995.765	29.5
996.898	28.5
998.031	26.5
999.164	26
1000.3	25.5
1001.43	21.5
1002.56	27
1003.69	26.5
1004.83	24
1005.96	24
1007.09	23
1008.22	29.5
1009.35	25.5
1010.48	22.5
1011.61	29.5
1012.74	27
1013.88	26
1015.01	25
1016.14	26
1017.27	25
1018.4	22
1019.53	26
1020.65	22.5
1021.78	27
1022.91	24.5
1024.04	28.5
1025.17	25.5
1026.3	24.5
1027.43	25
1028.56	24.5
1029.68	26
1030.81	26
1031.94	28
1033.07	27.5
1034.19	27
1035.32	27.5
1036.45	21.5
1037.58	24
1038.7	25.5
1039.83	25
1040.95	23
1042.08	25.5
1043.21	25.5
1044.33	25
1045.46	29.5
1046.58	26.5
1047.71	25
1048.83	24
1049.96	22.5
1051.08	26
1052.21	26.5
1053.33	24
1054.45	26
1055.58	25
1056.7	26.5
1057.82	24
1058.95	26.5
1060.07	27
1061.19	27.5
1062.32	21.5
1063.44	24.5
1064.56	22
1065.68	25.5
1066.81	26
1067.93	22.5
1069.05	26
1070.17	30
1071.29	23
1072.41	27
1073.53	24
1074.65	28
1075.77	21
1076.89	24.5
1078.01	23
1079.13	22.5
1080.25	24
1081.37	27
1082.49	24
1083.61	22
1084.73	25
1085.85	23.5
1086.97	26
1088.09	23
1089.2	22.5
1090.32	26
1091.44	25
1092.56	24
1093.68	25
1094.79	22.5
1095.91	22
1097.03	24.5
1098.14	26
1099.26	28
1100.38	28.5
1101.49	24.5
1102.61	23.5
1103.73	23
1104.84	24.5
1105.96	22
1107.07	23.5
1108.19	25
1109.3	26.5
1110.42	23.5
1111.53	26
1112.65	24
1113.76	26.5
1114.88	23.5
1115.99	28
1117.1	25
1118.22	25
1119.33	25
1120.44	26.5
1121.56	21
1122.67	25.5
1123.78	26
1124.89	27.5
1126.01	24.5
1127.12	24.5
1128.23	25.5
1129.34	20.5
1130.45	24.5
1131.56	25.5
1132.67	23.5
1133.79	24.5
1134.9	24
1136.01	23.5
1137.12	22
1138.23	20.5
1139.34	25
1140.45	23
1141.56	25.5
1142.67	26.5
1143.78	19.5
1144.89	26
1145.99	23.5
1147.1	25
1148.21	25
1149.32	25
1150.43	24.5
1151.54	24.5
1152.65	24
1153.75	22
1154.86	28
1155.97	24
1157.08	24
1158.18	23.5
1159.29	24.5
1160.4	21
1161.5	21.5
1162.61	24.5
1163.72	29.5
1164.82	25
1165.93	25
1167.03	23
1168.14	27
1169.24	25
1170.35	21.5
1171.45	23
1172.56	27
1173.66	25.5
1174.77	26
1175.87	22
1176.98	25
1178.08	26
1179.18	26
1180.29	21
1181.39	26
1182.49	24
1183.6	27.5
1184.7	24
1185.8	27
1186.9	25
1188	23.5
1189.11	23.5
1190.21	26
1191.31	26
1192.41	19
1193.51	25
1194.61	26.479
1195.72	24.4463
1196.82	25.0364
1197.92	24.566
1199.02	23.1045
1200.12	21.0072
1201.22	24.6166
1202.32	24.0763
1203.42	23.6423
1204.52	24.3314
1205.62	24.4916
1206.71	23.4827
1207.81	24.5927
1208.91	23.0611
1210.01	23.4386
1211.11	26.1194
1212.21	24.7809
1213.31	23.9124
1214.4	26.5309
1215.5	24.4504
1216.6	24.0757
1217.7	23.7909
1218.79	24.4973
1219.89	23.9886
1220.99	22.2655
1222.08	23.2485
1223.18	22.1194
1224.28	24.8668
1225.37	25.8607
1226.47	27.433
1227.56	25.3093
1228.66	24.6385
1229.76	22.4503
1230.85	22.6764
1231.95	25.4896
1233.04	20.543
1234.14	20.6847
1235.23	24.6714
1236.32	24.3316
1237.42	23.4358
1238.51	25.0463
1239.61	25.2947
1240.7	23.587
1241.79	26.3618
1242.89	23.829
1243.98	22.4052
1245.07	21.9649
1246.17	22.6048
1247.26	24.1703
1248.35	25.5949
1249.44	20.8964
1250.53	22.596
1251.63	26.1033
1252.72	22.6751
1253.81	25.9561
1254.9	22.5562
1255.99	25.4902
1257.08	24.5526
1258.17	24.8859
1259.27	25.2785
1260.36	24.5316
1261.45	26.4564
1262.54	22.4522
1263.63	22.512
1264.72	23.3329
1265.81	26.3863
1266.89	23.5369
1267.98	22.6553
1269.07	23.1985
1270.16	24.212
1271.25	22.7665
1272.34	22.6795
1273.43	25.5137
1274.52	23.8062
1275.6	22.6289
1276.69	21.9005
1277.78	24.0745
1278.87	23.6664
1279.95	23.3317
1281.04	22.9832
1282.13	25.1041
1283.22	26.0191
1284.3	23.2317
1285.39	22.1194
1286.48	21.152
1287.56	22.2857
1288.65	24.4171
1289.73	22.4401
1290.82	23.5395
1291.9	24.131
1292.99	24.975
1294.07	25.1941
1295.16	26.436
1296.24	23.4583
1297.33	25.7784
1298.41	22.7827
1299.5	21.4319
1300.58	21.4645
1301.66	25.3852
1302.75	25.3223
1303.83	22.176
1304.91	21.0364
1306	22.9038
1306.4	24
1307.48	20.5
1308.57	21.5
1309.66	22
1310.75	23
1311.84	25
1312.92	21.5
1314.01	26
1315.1	22
1316.18	25.5
1317.27	25
1318.36	22.5
1319.44	24.5
1320.53	25
1321.62	21.5
1322.7	26
1323.79	23
1324.87	25
1325.96	26.5
1327.04	25
1328.13	23.5
1329.21	23
1330.3	26
1331.38	27.5
1332.47	26
1333.55	27.5
1334.64	23.5
1335.72	25.5
1336.8	26
1337.89	23
1338.97	28
1340.05	24
1341.14	23.5
1342.22	24
1343.3	24.5
1344.38	27
1345.47	24
1346.55	24
1347.63	23.5
1348.71	21.5
1349.79	22
1350.87	21.5
1351.96	25
1353.04	23
1354.12	24
1355.2	24.5
1356.28	30
1357.36	24
1358.44	25
1359.52	23
1360.6	26
1361.68	22.5
1362.76	28
1363.84	22
1364.92	24
1366	25.5
1367.07	27
1368.15	27.5
1369.23	26
1370.31	24
1371.39	25.5
1372.47	27
1373.54	22
1374.62	23
1375.7	24.5
1376.78	23
1377.85	22
1378.93	25
1380.01	25
1381.08	23.5
1382.16	21
1383.24	22.5
1384.31	23
1385.39	23.5
1386.46	27
1387.54	23
1388.61	28
1389.69	26
1390.76	27
1391.84	23.5
1392.91	24
1393.99	20
1395.06	24.5
1396.14	23.5
1397.21	26.5
1398.29	24
1399.36	29
1400.43	29
1401.51	24.5
1402.58	22.5
1403.65	27
1404.72	26
1405.8	29
1406.87	26
1407.94	26.5
1409.02	27
1410.09	25
1411.16	25
1412.23	27
1413.3	29
1414.37	29.5
1415.44	28.5
1416.51	27.5
1417.59	22.5
1418.66	26.5
1419.73	27
1420.8	24.5
1421.87	24
1422.94	23.5
1424.01	23
1425.08	24.5
1426.15	26
1427.22	25
1428.28	29
1429.35	24.5
1430.42	23.5
1431.49	21
1432.56	23
1433.63	24.5
1434.7	22
1435.76	24.5
1436.83	24.5
1437.9	23.5
1438.97	25
1440.03	23
1441.1	23
1442.17	28
1443.23	21
1444.3	24.5
1445.37	24.5
1446.43	19.5
1447.5	20
1448.57	23
1449.63	27
1450.7	25
1451.76	25
1452.83	25.5
1453.89	24.5
1454.96	22.5
1456.02	27.5
1457.09	27
1458.15	25
1459.22	22
1460.28	25
1461.34	27.5
1462.41	21
1463.47	27
1464.53	22
1465.6	23
1466.66	22
1467.72	25
1468.78	28
1469.85	23
1470.91	22.5
1471.97	25
1473.03	24.5
1474.1	22
1475.16	25
1476.22	19
1477.28	30.5
1478.34	23
1479.4	25
1480.46	28
1481.52	22
1482.58	21.5
1483.65	25.5
1484.71	27
1485.77	26
1486.82	27
1487.89	26
1488.94	28.5
1490	25.5
1491.06	21
1492.12	28
1493.18	24
1494.24	23.5
1495.3	25
1496.36	27
1497.41	22
1498.47	24
1499.53	25.5
1500.59	24
1501.65	24.5
1502.7	20
1503.76	25
1504.82	25
1505.87	25
1506.93	20.5
1507.99	26.5
1509.04	24
1510.1	26
1511.16	21
1512.21	28.5
1513.27	21.5
1514.32	24.5
1515.38	28
1516.43	28.5
1517.49	24.5
1518.54	25.5
1519.6	22.5
1520.65	25.5
1521.71	25
1522.76	25
1523.81	27
1524.87	22.5
1525.92	23
1526.98	28
1528.03	19
1529.08	25
1530.14	25
1531.19	28
1532.24	26
1533.29	27
1534.35	22.5
1535.4	27
1536.45	22
1537.5	20.5
1538.55	25.5
1539.61	23.5
1540.66	25
1541.71	24.5
1542.76	26
1543.81	20.5
1544.86	23
1545.91	23.5
1546.96	29.5
1548.01	24
1549.06	25.5
1550.11	22.5
1551.16	25.5
1552.21	28
1553.26	21
1554.31	25
1555.36	22
1556.41	23
1557.46	26
1558.5	23.5
1559.55	24.5
1560.6	27
1561.65	28
1562.7	24
1563.74	23
1564.79	24.5
1565.84	25
1566.89	24
1567.93	26
1568.98	27
1570.03	25
1571.07	26
1572.12	26.5
1573.17	23
1574.21	20.5
1575.26	25.5
1576.3	27.5
1577.35	26
1578.4	22
1579.44	23
1580.49	22.5
1581.53	25
1582.58	24
1583.62	22
1584.66	23
1585.71	27.5
1586.75	23
1587.8	25.5
1588.84	26
1589.88	25
1590.93	28.5
1591.97	25
1593.01	24.5
1594.06	25.5
1595.1	20
1596.14	27
1597.18	23
1598.23	27
1599.27	27
1600.31	25.5
1601.35	24.5
1602.39	23
1603.44	25.5
1604.48	23
1605.52	21.5
1606.56	23
1607.6	21.5
1608.64	23
1609.68	19.5
1610.72	28
1611.76	24.5
1612.8	25
1613.84	24
1614.88	25
1615.92	25
1616.96	26.5
1618	25.5
1619.04	26
1620.08	25
1621.12	24
1622.16	23
1623.19	26.5
1624.23	22.5
1625.27	28
1626.31	23
1627.35	21
1628.38	24.5
1629.42	25
1630.46	29.5
1631.49	24
1632.53	28.5
1633.57	25
1634.6	27.5
1635.64	22
1636.68	24.5
1637.71	24
1638.75	26.5
1639.79	29
1640.82	24
1641.86	25.5
1642.89	26
1643.93	25
1644.96	29.5
1646	26
1647.03	27
1648.07	27.5
1649.1	27.5
1650.13	26.5
1651.17	24
1652.2	28
1653.24	25
1654.27	25
1655.3	26
1656.34	25
1657.37	22
1658.4	26
1659.43	25.5
1660.47	22.5
1661.5	27.5
1662.53	25.5
1663.56	28.5
1664.6	20
1665.63	27.5
1666.66	27
1667.69	24
1668.72	23
1669.75	24
1670.78	25.5
1671.81	24.5
1672.85	27
1673.88	20
1674.91	26.5
1675.94	24.5
1676.97	22
1678	26.5
1679.03	25
1680.06	24
1681.09	22
1682.11	28
1683.14	24.5
1684.17	24.5
1685.2	24
1686.23	25
1687.26	26
1688.29	24
1689.31	26.5
1690.34	24
1691.37	25
1692.4	26
1693.42	25.5
1694.45	22.5
1695.48	27
1696.51	24.5
1697.53	24.5
1698.56	27
1699.59	24
1700.61	22
1701.64	28.5
1702.66	24
1703.69	24
1704.72	26.5
1705.74	24
1706.77	25
1707.79	27
1708.82	27
1709.84	25
1710.87	25
1711.89	24.5
1712.91	22.5
1713.94	22.5
1714.96	25
1715.99	23.5
1717.01	26
1718.03	21
1719.06	27.5
1720.08	23
1721.1	24
1722.13	25
1723.15	29
1724.17	24.5
1725.19	26.5
1726.22	24.5
1727.24	29
1728.26	26
1729.28	27
1730.3	25.5
1731.33	27
1732.35	29
1733.37	23
1734.39	27
1735.41	25.5
1736.43	25
1737.45	23.5
1738.47	25
1739.49	26
1740.51	25
1741.53	24.5
1742.55	24.5
1743.57	24
1744.59	26
1745.61	28.5
1746.63	22
1747.65	25.5
1748.67	24.5
1749.69	27.5
1750.7	25.5
1751.72	23.5
1752.74	25.5
1753.76	22
1754.78	23
1755.79	21.5
1756.81	23.5
1757.83	25
1758.85	23
1759.86	20
1760.88	24
1761.9	25
1762.91	23.5
1763.93	25.5
1764.95	27
1765.96	17
1766.98	27
1767.99	24
1769.01	24
1770.02	24
1771.04	24
1772.06	23.5
1773.07	22.5
1774.09	22
1775.1	24
1776.11	23.5
1777.13	26
1778.14	22.5
1779.16	23
1780.17	26
1781.18	20
1782.2	24
1783.21	24
1784.22	22.5
1785.24	25
1786.25	24.5
1787.26	21.5
1788.28	27
1789.29	25.5
1790.3	27.5
1791.31	24
1792.33	24.5
1793.34	27
1794.35	26
1795.36	27
1796.37	27
1797.38	21
1798.39	26
1799.4	25.5
1800.42	28.5
1801.43	26
1802.44	21
1803.45	24
1804.46	25.5
1805.47	23
1806.48	25.5
1807.49	25
1808.5	23.5
1809.51	25
1810.51	23
1811.52	25
1812.53	25
1813.54	28
1814.55	27.5
1815.56	21.5
1816.57	24
1817.57	24.5
1818.58	22
1819.59	26
1820.6	24
1821.61	23.5
1822.61	26
1823.62	24
1824.63	25.5
1825.63	23.5
1826.64	26
1827.65	24
1828.65	24
1829.66	21.5
1830.67	24.5
1831.67	23
1832.68	26
1833.68	24.5
1834.69	26
1835.69	23.5
1836.7	22.5
1837.7	23.5
1838.71	26
1839.71	25
1840.72	22.5
1841.72	25
1842.73	25
1843.73	22.5
1844.73	27.5
1845.74	25
1846.74	24
1847.74	24
1848.75	24
1849.75	21.5
1850.75	27.5
1851.76	23
1852.76	23
1853.76	23
1854.76	27.5
1855.77	20.5
1856.77	26
1857.77	24
1858.77	28.5
1859.77	24
1860.77	26
1861.78	21.5
1862.78	25
1863.78	21.5
1864.78	29
1865.78	23
1866.78	24
1867.78	23.5
1868.78	22
1869.78	25.5
1870.78	26
1871.78	23
1872.78	28
1873.78	23
1874.78	27.5
1875.78	25
1876.78	25.5
1877.78	28
1878.77	23.5
1879.77	24
1880.77	28
1881.77	22
1882.77	23.5
1883.77	24
1884.76	24.5
1885.76	24
1886.76	26.5
1887.75	19.5
1888.75	23.5
1889.75	25.5
1890.75	26.5
1891.74	23.5
1892.74	24.5
1893.73	28
1894.73	22.5
1895.73	25
1896.72	22
1897.72	28.5
1898.71	21.5
1899.71	22
1900.7	23
1901.7	16
1902.69	21.5
1903.69	26.5
1904.68	24.5
1905.68	27
1906.67	26
1907.67	26.5
1908.66	26.5
1909.65	27.5
1910.65	20.5
1911.64	19.5
1912.63	23
1913.63	25
1914.62	24
1915.61	24.5
1916.61	24
1917.6	24
1918.59	28.5
1919.58	22
1920.58	23
1921.57	26.5
1922.56	27
1923.55	27.5
1924.54	20.5
1925.54	25
1926.53	24.5
1927.52	27
1928.51	23
1929.5	24
1930.49	24.5
1931.48	24.5
1932.47	26
1933.46	20.5
1934.45	24
1935.44	25.5
1936.43	25.5
1937.42	20.5
1938.41	24
1939.4	21
1940.39	26
1941.38	24
1942.37	28
1943.35	22
1944.34	23
1945.33	23.5
1946.32	24.5
1947.31	22
1948.3	24
1949.28	25.5
1950.27	22
1951.26	25
1952.25	21
1953.23	24
1954.22	24.5
1955.21	25.5
1956.19	24
1957.18	25
1958.17	30
1959.15	22
1960.14	28.5
1961.12	25
1962.11	23.5
1963.1	21.5
1964.08	22
1965.07	25
1966.05	26
1967.04	25.5
1968.02	19.5
1969.01	28
1969.99	24.5
1970.98	22
1971.96	23.5
1972.94	25
1973.93	25
1974.91	25
1975.9	26.5
1976.88	23.5
1977.86	24.5
1978.85	22
1979.83	23
1980.81	28.5
1981.79	25
1982.78	24
1983.76	20
1984.74	25
1985.72	25.5
1986.71	25
1987.69	23.5
1988.67	27
1989.65	18.5
1990.63	22.5
1991.61	23.5
1992.59	25.5
1993.57	26.5
1994.56	22.5
1995.54	25
1996.52	24
1997.5	23
1998.48	22.5
1999.46	23
2000.44	24.5
2001.42	24
2002.4	23.5
2003.38	24.5
2004.36	27
2005.33	24.5
2006.31	20.5
2007.29	27.5
2008.27	21
2009.25	24.5
2010.23	24
2011.21	25.5
2012.18	26
2013.16	23
2014.14	23
2015.12	21
2016.09	25
2017.07	22
2018.05	23.5
2019.03	25
2020	21
2020.98	23
2021.96	23.5
2022.93	25.5
2023.91	23
2024.89	24
2025.86	24
2026.84	28
2027.81	22
2028.79	23
2029.76	22
2030.74	21.5
2031.71	23.5
2032.69	22
2033.66	22
2034.64	25
2035.61	24
2036.59	24.5
2037.56	18
2038.54	24.5
2039.51	21.5
2040.48	24.5
2041.46	19
2042.43	24
2043.4	23.5
2044.38	19.5
2045.35	23
2046.32	20.5
2047.29	20.5
2048.27	20
2049.24	25
2050.21	23.5
2051.18	23
2052.16	26
2053.13	23
2054.1	22.5
2055.07	24
2056.04	25
2057.01	23
2057.98	20
2058.96	21
2059.93	22
2060.9	22
2061.87	22.5
2062.84	24.5
2063.81	22.5
2064.78	26.5
2065.75	24.5
2066.72	21
2067.69	24
2068.66	24.5
2069.63	25.5
2070.6	25
2071.56	23.5
2072.53	22
2073.5	25
2074.47	24
2075.44	18
2076.41	27
2077.38	23
2078.34	19.5
2079.31	20.5
2080.28	23
2081.25	21.5
2082.21	21.5
2083.18	22
2084.15	23.5
2085.11	24.5
2086.08	24.5
2087.05	23.5
2088.01	24
2088.98	24
2089.95	20
2090.91	24.5
2091.88	25
2092.84	23
2093.81	22.5
2094.78	24.5
2095.74	23
2096.71	23
2097.67	22
2098.64	22.5
2099.6	22
2100.57	26
2101.53	22
2102.49	22.5
2103.46	17.5
2104.42	24
2105.39	24.5
2106.35	21.5
2107.31	23
2108.28	22.5
2109.24	20
2110.2	26
2111.17	20.5
2112.13	21
2113.09	24
2114.05	21
2115.02	19
2115.98	22
2116.94	27.5
2117.9	26
2118.86	23
2119.83	20
2120.79	27.5
2121.75	22.5
2122.71	24.5
2123.67	20.5
2124.63	23.5
2125.59	23
2126.55	22.5
2127.51	22
2128.47	20
2129.43	25
2130.39	24.5
2131.35	23.5
2132.31	22
2133.27	24.5
2134.23	24
2135.19	22.5
2136.15	23
2137.11	23
2138.07	24
2139.03	23.5
2139.99	25
2140.94	24.5
2141.9	24
2142.86	22.9874
2143.82	21.9866
2144.78	22.0873
2145.73	21.1636
2146.69	23.0795
2147.65	19.267
2148.61	23.0415
2149.56	24.7574
2150.52	24.594
2151.48	20.0677
2152.43	25.1279
2153.39	22.365
2154.35	23.9128
2155.3	21.9855
2156.26	19.9912
2157.21	25.5485
2158.17	21.243
2159.13	23.2489
2160.08	23.15
2161.04	24.1114
2161.99	23.622
2162.95	18.6281
2163.9	23.1723
2164.86	18.9321
2165.81	22.3048
2166.77	23.4165
2167.72	22.1556
2168.67	23.1801
2169.63	22.3132
2170.58	23.1824
2171.54	22.6484
2172.49	24
2173.44	22.0788
2174.4	21.6165
2175.35	19.7023
2176.3	20.6893
2177.26	21.0494
2178.21	24.4897
2179.16	23.756
2180.11	24.7312
2181.07	24.0175
2182.02	21.7064
2182.97	20.5132
2183.92	24.6438
2184.87	22.4689
2185.82	22.0755
2186.78	25.1147
2187.73	22.4633
2188.68	20.5974
2189.63	22.0777
2190.58	21.9945
2191.53	22.9433
2192.48	22.0194
2193.43	24.4436
2194.38	20.6346
2195.33	20.5777
2196.28	22.6803
2197.23	20.5978
2198.18	22.8258
2199.13	22.2395
2200.08	23.203
2201.03	22.0821
2201.98	23.6034
2202.93	22.4116
2203.88	23.7842
2204.83	21.597
2205.77	24.8434
2206.72	23.2268
2207.67	21.7611
2208.62	24.124
2209.57	21.7093
2210.52	20.8762
2211.46	22.1526
2212.41	20.5713
2213.36	23.2976
2214.31	24.2977
2215.25	25.5206
2216.2	22.549
2217.15	23.2511
2218.09	21.813
2219.04	23.586
2219.99	24.6448
2220.93	21.3369
2221.88	20.7939
2222.82	20.4578
2223.77	23.0181
2224.72	21.3369
2225.66	20.4596
2226.61	21.9249
2227.55	21.8718
2228.5	21.2954
2229.44	21
2230.39	21.5549
2231.33	23.0351
2232.28	24.9463
2233.22	22.9581
2234.16	25.0603
2235.11	22.3338
2236.05	20.9655
2237	23.4874
2237.94	23.7783
2238.88	24.1377
2239.83	25.1635
2240.13	25.5
2241.08	22
2242.03	25
2242.98	23.5
2243.92	21.5
2244.87	19
2245.82	21.5
2246.76	25
2247.71	21.5
2248.66	23.5
2249.61	20
2250.55	25
2251.5	21
2252.45	20
2253.39	19.5
2254.34	22.5
2255.28	21
2256.23	23
2257.18	23
2258.12	23
2259.07	23.5
2260.01	24.5
2260.96	23
2261.9	22
2262.85	23
2263.79	21
2264.74	25
2265.68	24
2266.63	19.5
2267.57	20.5
2268.51	24.5
2269.46	20
2270.4	23
2271.35	25
2272.29	22.5
2273.23	24
2274.18	22.5
2275.12	24.5
2276.06	23
2277	22.5
2277.95	25
2278.89	23
2279.83	19
2280.78	22
2281.72	24.5
2282.66	25.5
2283.6	25
2284.54	17
2285.48	18
2286.43	25
2287.37	22.5
2288.31	20
2289.25	20
2290.19	24
2291.13	22
2292.07	24
2293.01	22
2293.95	20.5
2294.89	21.5
2295.83	25
2296.77	22
2297.71	23
2298.65	23.5
2299.59	24
2300.53	26
2301.47	22.5
2302.41	19
2303.35	24
2304.29	25
2305.22	27
2306.16	25
2307.1	22
2308.04	20.5
2308.98	23
2309.91	26.5
2310.85	24.5
2311.79	24
2312.73	25
2313.66	20
2314.6	22.5
2315.54	22
2316.48	22.5
2317.41	25
2318.35	20
2319.29	23
2320.22	22
2321.16	23
2322.09	19
2323.03	23
2323.97	26.5
2324.9	24
2325.84	22
2326.77	25
2327.71	24
2328.64	26
2329.58	21
2330.51	20
2331.45	23
2332.38	26.5
2333.32	20.5
2334.25	27
2335.18	23
2336.12	26
2337.05	22
2337.99	22
2338.92	24
2339.85	22.5
2340.79	18.5
2341.72	23.5
2342.65	20
2343.59	23
2344.52	19
2345.45	22
2346.38	23
2347.32	25.5
2348.25	21.5
2349.18	20
2350.11	24
2351.04	23
2351.98	21
2352.91	25
2353.84	23.5
2354.77	27
2355.7	22
2356.63	28.5
2357.56	25.5
2358.49	24
2359.42	25.5
2360.35	23
2361.28	24.5
2362.21	23
2363.14	26
2364.07	21
2365	21.5
2365.93	23
2366.86	25
2367.79	21
2368.72	25
2369.65	24
2370.58	27.5
2371.51	24
2372.44	26
2373.36	19
2374.29	22
2375.22	22
2376.15	26
2377.08	23
2378	23.5
2378.93	21.5
2379.86	22.5
2380.79	23
2381.71	27
2382.64	23.5
2383.57	22
2384.49	25.5
2385.42	26
2386.35	21.5
2387.27	21
2388.2	21.5
2389.13	20
2390.05	23
2390.98	25
2391.9	26.5
2392.83	23
2393.76	22
2394.68	20.5
2395.61	25
2396.53	26
2397.46	25
2398.38	25
2399.3	24
2400.23	25.5
2401.15	21.5
2402.08	22
2403	22.5
2403.93	19
2404.85	24
2405.77	27.5
2406.7	28
2407.62	23
2408.54	24
2409.47	23
2410.39	25.5
2411.31	24
2412.24	22
2413.16	24
2414.08	25.5
2415	24.5
2415.92	25
2416.85	24
2417.77	23
2418.69	24
2419.61	21
2420.53	20
2421.45	22
2422.38	21.5
2423.3	23
2424.22	21
2425.14	22
2426.06	24.5
2426.98	22
2427.9	24.5
2428.82	23
2429.74	17
2430.66	25.5
2431.58	20.5
2432.5	23.5
2433.42	22.5
2434.34	21.5
2435.26	26
2436.18	30.5
2437.1	24
2438.01	24.5
2438.93	24
2439.85	29.5
2440.77	25.5
2441.69	21.5
2442.61	24.5
2443.52	24.5
2444.44	22.5
2445.36	27.5
2446.28	24.5
2447.2	27.5
2448.11	20
2449.03	24.5
2449.95	21
2450.86	22
2451.78	23.5
2452.7	21
2453.61	24.5
2454.53	25
2455.45	21
2456.36	24.5
2457.28	25.5
2458.2	25
2459.11	24.5
2460.03	27.5
2460.94	23
2461.86	17
2462.77	25
2463.69	23.5
2464.6	26
2465.52	26
2466.43	26.5
2467.35	24
2468.26	25.5
2469.18	25.5
2470.09	25.5
2471	24.5
2471.92	23.5
2472.83	21.5
2473.74	22
2474.66	25
2475.57	31
2476.48	25.5
2477.4	21
2478.31	25.5
2479.22	30
2480.14	25
2481.05	27
2481.96	25.5
2482.87	24
2483.79	26
2484.7	21
2485.61	25.5
2486.52	21
2487.43	26.5
2488.34	26
2489.25	22
2490.17	21.5
2491.08	25
2491.99	22
2492.9	27
2493.81	22.5
2494.72	25.5
2495.63	26.5
2496.54	27
2497.45	23
2498.36	26
2499.27	24.5
2500.18	22
2501.09	25.5
2502	22.5
2502.91	26
2503.82	24
2504.73	23
2505.63	22.5
2506.54	22.5
2507.45	25.5
2508.36	24
2509.27	26
2510.18	22.5
2511.09	27.5
2511.99	24.5
2512.9	19.5
2513.81	25.5
2514.72	22
2515.62	25
2516.53	25
2517.44	26
2518.34	23.5
2519.25	23.5
2520.16	26
2521.06	28
2521.97	20.5
2522.88	26.5
2523.78	28.5
2524.69	24.5
2525.6	24
2526.5	22.5
2527.41	21
2528.31	26.5
2529.22	23
2530.12	24.5
2531.03	21
2531.93	26
2532.84	26.5
2533.74	25.5
2534.65	19
2535.55	23.5
2536.46	24.5
2537.36	28
2538.27	26
2539.17	24
2540.07	27
2540.98	24.5
2541.88	23.5
2542.78	24
2543.69	22.5
2544.59	23
2545.49	21
2546.4	24
2547.3	23.5
2548.2	23.5
2549.1	22.5
2550.01	23
2550.91	24.5
2551.81	24
2552.71	27
2553.61	25
2554.52	22
2555.42	26
2556.32	23.5
2557.22	24.5
2558.12	20
2559.02	22.5
2559.92	24
2560.82	21.5
2561.72	24.5
2562.62	27.5
2563.53	24
2564.43	23
2565.33	26.5
2566.23	20.5
2567.13	24
2568.03	22.5
2568.92	25
2569.82	23.5
2570.72	22
2571.62	28.5
2572.52	21.5
2573.42	22
2574.32	22
2575.22	22.5
2576.12	22
2577.02	25
2577.91	23.5
2578.81	23.5
2579.71	18
2580.61	23.5
2581.5	24
2582.4	22.5
2583.3	22
2584.2	23
2585.09	26
2585.99	24
2586.89	21.5
2587.78	21.5
2588.68	26
2589.58	25.5
2590.47	26.5
2591.37	27
2592.27	26
2593.16	24.5
2594.06	24.5
2594.95	27.5
2595.85	25
2596.75	25.5
2597.64	23.5
2598.54	25
2599.43	25.5
2600.33	24.5
2601.22	25
2602.12	25
2603.01	22
2603.9	23.5
2604.8	23.5
2605.69	26
2606.59	25.5
2607.48	25.5
2608.37	30
2609.27	21.5
2610.16	23.5
2611.05	26
2611.95	26.5
2612.84	22
2613.73	20
2614.63	24
2615.52	24
2616.41	26
2617.3	24.5
2618.2	27
2619.09	20.5
2619.98	22.5
2620.87	25
2621.76	22.5
2622.66	22.5
2623.55	26
2624.44	23
2625.33	21.5
2626.22	24
2627.11	26.5
2628	20.5
2628.9	24
2629.79	24
2630.68	27.5
2631.57	26.5
2632.46	24.5
2633.35	24
2634.24	25
2635.13	26.5
2636.02	26
2636.91	26
2637.8	21
2638.68	22
2639.57	21.5
2640.46	22
2641.35	27
2642.24	25
2643.13	25
2644.02	21.5
2644.91	27.5
2645.79	25
2646.68	26
2647.57	28
2648.46	24
2649.35	23.5
2650.23	22
2651.12	23
2652.01	21.5
2652.9	21.5
2653.78	24.5
2654.67	27
2655.56	22
2656.44	22.5
2657.33	25.5
2658.22	21.5
2659.1	20.5
2659.99	17.5
2660.88	25
2661.76	23
2662.65	23.5
2663.53	21
2664.42	21.5
2665.3	24
2666.19	26
2667.07	24
2667.96	22.5
2668.84	22
2669.73	28
2670.61	21.5
2671.5	23.5
2672.38	23
2673.27	24
2674.15	24
2675.04	24
2675.92	25
2676.8	24.5
2677.69	23.5
2678.57	27.5
2679.45	24
2680.34	26
2681.22	25
2682.1	24.5
2682.99	23.5
2683.87	25.5
2684.75	26
2685.63	25
2686.52	23.5
2687.4	23
2688.28	23
2689.16	27.5
2690.04	24
2690.93	19
2691.81	22
2692.69	23
2693.57	25
2694.45	23.5
2695.33	26.5
2696.21	23
2697.09	23.5
2697.97	26
2698.85	25
2699.74	25.5
2700.62	27
2701.5	25
2702.38	26.5
2703.26	22.5
2704.14	27.5
2705.02	28.5
2705.89	23.5
2706.77	25.5
2707.65	25
2708.53	23.5
2709.41	24.5
2710.29	23
2711.17	27
2712.05	23
2712.93	25
2713.8	23.5
2714.68	23
2715.56	24.5
2716.44	26
2717.32	25
2718.19	25
2719.07	29
2719.95	20
2720.83	22.5
2721.7	28
2722.58	24
2723.46	23
2724.33	26
2725.21	20
2726.09	24.5
2726.97	24.5
2727.84	25.5
2728.72	25
2729.59	26.5
2730.47	24
2731.35	19
2732.22	24
2733.1	24.5
2733.97	23.5
2734.85	19
2735.72	25
2736.6	25
2737.47	22.5
2738.35	23
2739.22	21.5
2740.1	23.5
2740.97	22
2741.84	26
2742.72	24
2743.59	26.5
2744.47	29.5
2745.34	19
2746.21	22.5
2747.09	23
2747.96	24
2748.83	27
2749.71	21
2750.58	24
2751.45	23
2752.33	23
2753.2	25.5
2754.07	20.5
2754.94	25
2755.82	26
2756.69	23
2757.56	25.5
2758.43	19
2759.3	24
2760.18	25.5
2761.05	27
2761.92	23
2762.79	26
2763.66	25.5
2764.53	22
2765.4	24.5
2766.27	22.5
2767.14	27.5
2768.01	23.5
2768.88	27.5
2769.75	23
2770.62	25
2771.49	22.5
2772.36	23.5
2773.23	22
2774.1	26
2774.97	21.5
2775.84	24.5
2776.71	23
2777.58	27.5
2778.45	24
2779.32	22
2780.19	22
2781.06	26
2781.92	24.5
2782.79	25
2783.66	25
2784.53	22
2785.4	21.5
2786.26	25.5
2787.13	26
2788	24
2788.87	23.5
2789.73	21.5
2790.6	27
2791.47	28.5
2792.34	24.5
2793.2	26
2794.07	21
2794.94	25.5
2795.8	23.5
2796.67	23
2797.53	25
2798.4	23
2799.27	20
2800.13	24
2801	25.25
2801.86	23.5
2802.73	24.5
2803.59	20
2804.46	25.5
2805.32	30
2806.19	23.5
2807.05	24
2807.92	23
2808.78	23
2809.65	29.5
2810.51	24.5
2811.38	24
2812.24	25
2813.1	22
2813.97	27
2814.83	23
2815.7	26
2816.56	25.5
2817.42	22
2818.29	21
2819.15	28
2820.01	25
2820.87	20
2821.74	25.5
2822.6	21
2823.46	20
2824.32	26
2825.19	23
2826.05	25
2826.91	23
2827.77	28
2828.63	26
2829.5	26
2830.36	26
2831.22	21.5
2832.08	27
2832.94	23.5
2833.8	27.5
2834.66	20.5
2835.52	21
2836.38	26
2837.24	24
2838.1	25.5
2838.96	22.5
2839.82	26
2840.68	23.5
2841.54	27
2842.4	24.5
2843.26	22
2844.12	25.5
2844.98	25.5
2845.84	22.5
2846.7	26
2847.56	21.5
2848.42	25
2849.28	20.5
2850.14	26
2850.99	25.5
2851.85	23.5
2852.71	21
2853.57	23.5
2854.43	24
2855.28	27.5
2856.14	23.5
2857	24.5
2857.86	25.5
2858.71	25.5
2859.57	24
2860.43	22
2861.28	21
2862.14	20.5
2863	30
2863.86	23
2864.71	27
2865.57	27.5
2866.42	27
2867.28	24
2868.14	26
2868.99	23
2869.85	27.5
2870.7	25
2871.56	26
2872.41	27.5
2873.27	26
2874.13	27.5
2874.98	24.5
2875.83	22
2876.69	28
2877.54	25
2878.4	27
2879.25	28.5
2880.11	29
2880.96	24
2881.81	27.5
2882.67	26.5
2883.52	29
2884.38	24
2885.23	27
2886.08	25
2886.94	29
2887.79	27.5
2888.64	28
2889.5	30.5
2890.35	31
2891.2	31
2892.05	28.5
2892.91	25.5
2893.76	31
2894.61	29.5
2895.46	33
2896.31	33.5
2897.17	36.5
2898.02	36.5
2898.87	34.5
2899.72	37
2900.57	34.5
2901.42	41.5
2902.27	34
2903.12	45.5
2903.98	45.5
2904.83	37
2905.68	36
2906.53	39.5
2907.38	40
2908.23	43.5
2909.08	46
2909.93	41
2910.78	42
2911.63	33.5
2912.48	34.5
2913.33	32
2914.18	38
2915.02	33
2915.87	30
2916.72	33.5
2917.57	32
2918.42	30
2919.27	32.5
2920.12	31
2920.97	25
2921.81	32.5
2922.66	25
2923.51	27
2924.36	28
2925.21	25
2926.05	25.5
2926.9	27
2927.75	24.5
2928.59	26
2929.44	24.5
2930.29	25.5
2931.14	21.5
2931.98	23
2932.83	26
2933.68	24
2934.52	29.5
2935.37	20.5
2936.21	22
2937.06	28.5
2937.91	22.5
2938.75	24
2939.6	25.5
2940.44	24.5
2941.29	22.5
2942.14	23
2942.98	26
2943.82	25.5
2944.67	23.5
2945.51	25
2946.36	23.5
2947.2	25
2948.05	26.5
2948.89	26
2949.74	27.5
2950.58	23.5
2951.43	28.5
2952.27	28
2953.11	29.5
2953.96	28.5
2954.8	28
2955.64	27
2956.49	26
2957.33	25.5
2958.17	29.5
2959.02	26
2959.86	28
2960.7	28
2961.54	33.5
2962.39	34
2963.23	32
2964.07	32
2964.91	36
2965.75	29.5
2966.6	28
2967.44	30
2968.28	27.5
2969.12	29.5
2969.96	28
2970.8	28.5
2971.64	25.5073
2972.48	26.4236
2973.33	27.9804
2974.17	29.0616
2975.01	29.2364
2975.85	26.0399
2976.69	28.7561
2977.53	23.9379
2978.37	28.1982
2979.21	25.7076
2980.05	29.1614
2980.89	23.9707
2981.73	25.2549
2982.57	25.4688
2983.41	26.835
2984.25	24.9978
2985.08	21.7768
2985.92	23.0197
2986.76	21.6845
2987.6	23.8633
2988.44	25.057
2989.28	27.7112
2990.12	22.6999
2990.96	21.5076
2991.79	24.0427
2992.63	22.4694
2993.47	25.235
2994.31	23.9147
2995.14	22.9466
2995.98	20.7948
2996.82	20.8333
2997.66	22.7474
2998.49	23.8829
2999.33	22.8178
3000.17	26.4427
3001	23.0766
3001.84	25.0738
3002.68	20.2955
3003.51	23.3878
3004.35	23.3782
3005.19	24.6317
3006.02	21.7962
3006.86	22.8854
3007.7	20.9899
3008.53	21.7571
3009.37	22.5413
3010.2	21.7643
3011.04	23.3865
3011.87	23.656
3012.71	22.4289
3013.54	21.7318
3014.38	20.712
3015.21	20.9773
3016.05	22.5828
3016.88	22.4436
3017.72	23.1497
3018.55	23.8005
3019.39	23.2843
3020.22	20.9597
3021.05	20.5777
3021.89	23.1672
3022.72	23.3025
3023.55	22.6887
3024.39	21.6769
3025.22	18.9148
3026.05	22.6809
3026.89	22.363
3027.72	22.5856
3028.55	23.1646
3029.39	22.378
3030.22	21.3074
3031.05	21.6352
3031.88	22.6671
3032.72	24.4095
3033.55	24.8577
3034.38	23.3438
3035.21	20.9351
3036.04	22.3765
3036.88	23.2904
3037.71	22.4056
3038.54	21.9442
3039.37	21.6284
3040.2	22.652
3041.03	21.9542
3041.86	20.2521
3042.69	21.7988
3043.52	22.0876
3044.36	21.5682
3045.19	22.8938
3046.02	23.0888
3046.85	21.8958
3047.68	20.5099
3048.51	21.4455
3049.34	21.0249
3050.17	21.5636
3051	23.485
3051.83	21.5909
3052.66	21.4175
3053.48	22.8837
3054.31	23.5915
3055.14	22.6789
3055.97	21.9809
3056.8	22.1419
3057.29	19.5
3058.12	23
3058.95	23
3059.79	23
3060.62	24.5
3061.45	20
3062.29	21
3063.12	21.5
3063.95	23.5
3064.78	23.5
3065.62	24.5
3066.45	23
3067.28	21.5
3068.11	23.5
3068.94	22
3069.77	21.5
3070.61	26.5
3071.44	21
3072.27	23.5
3073.1	19.5
3073.93	21.5
3074.76	23
3075.59	22
3076.42	26
3077.25	23
3078.08	23.5
3078.92	20.5
3079.74	19.5
3080.57	21.5
3081.41	24
3082.24	28
3083.06	18.5
3083.89	23.5
3084.72	23
3085.55	22
3086.38	22
3087.21	21.5
3088.04	23.5
3088.87	23
3089.7	22
3090.53	25
3091.36	19.5
3092.18	18.5
3093.01	21.5
3093.84	23.5
3094.67	22
3095.5	23
3096.32	21.5
3097.15	22.5
3097.98	24
3098.81	24
3099.64	27
3100.46	23.5
3101.29	23
3102.12	23
3102.94	24
3103.77	21
3104.6	20.5
3105.42	22.5
3106.25	23.5
3107.08	20.5
3107.9	21
3108.73	24
3109.56	25.5
3110.38	23.5
3111.21	21.5
3112.03	23.5
3112.86	22.5
3113.68	24.5
3114.51	22
3115.33	20.5
3116.16	28
3116.98	22.5
3117.81	23.5
3118.63	25.5
3119.46	23.5
3120.28	21.5
3121.11	22.5
3121.93	20.5
3122.76	25
3123.58	24
3124.4	25
3125.23	23
3126.05	22
3126.87	21.5
3127.7	21.5
3128.52	27
3129.34	25
3130.17	23
3130.99	26.5
3131.81	20
3132.64	25
3133.46	15
3134.28	24
3135.1	21
3135.93	21
3136.75	23
3137.57	23.5
3138.39	23
3139.21	22.5
3140.04	26
3140.86	19.5
3141.68	23
3142.5	24
3143.32	21.5
3144.14	19.5
3144.96	22.5
3145.78	22
3146.61	24.5
3147.43	21
3148.25	27
3149.07	21
3149.89	25
3150.71	23
3151.53	25
3152.35	20.5
3153.17	24
3153.99	21.5
3154.81	25
3155.63	24
3156.45	22
3157.27	19.5
3158.08	26.5
3158.9	23.5
3159.72	22
3160.54	27
3161.36	21.5
3162.18	24
3163	23.5
3163.82	24.5
3164.63	21
3165.45	20.5
3166.27	24.5
3167.09	25.5
3167.91	23
3168.72	24.5
3169.54	22
3170.36	22
3171.18	24
3171.99	24.5
3172.81	24
3173.63	22
3174.44	19.5
3175.26	23.5
3176.08	24.5
3176.89	23.5
3177.71	23.5
3178.53	26.5
3179.34	23
3180.16	22
3180.97	22.5
3181.79	25
3182.61	21
3183.42	23.5
3184.24	23.5
3185.05	21.5
3185.87	22.5
3186.68	27
3187.5	24.5
3188.31	20
3189.13	23.5
3189.94	22
3190.76	22
3191.57	23.5
3192.39	28
3193.2	15.5
3194.02	23
3194.83	22
3195.64	23.5
3196.46	18.5
3197.27	25
3198.08	24
3198.9	21
3199.71	23
3200.52	23
3201.34	23
3202.15	20.5
3202.96	22
3203.78	24
3204.59	22.5
3205.4	26.5
3206.21	21
3207.03	25
3207.84	26
3208.65	23
3209.46	22.5
3210.27	23
3211.09	22.5
3211.9	19.5
3212.71	22.5
3213.52	22.5
3214.33	22
3215.14	19.5
3215.95	22
3216.77	26
3217.58	25
3218.39	25
3219.2	23.5
3220.01	22
3220.82	26.5
3221.63	23
3222.44	21
3223.25	25.5
3224.06	25
3224.87	22.5
3225.68	22
3226.49	26
3227.3	27.5
3228.11	24
3228.92	26.5
3229.73	25.5
3230.53	28.5
3231.34	24.5
3232.15	22
3232.96	22
3233.77	28.5
3234.58	24.5
3235.39	23
3236.19	21
3237	21
3237.81	24
3238.62	21.5
3239.43	23
3240.23	26
3241.04	20.5
3241.85	22
3242.66	24
3243.46	25
3244.27	24.5
3245.08	23.5
3245.89	21.5
3246.69	25.5
3247.5	18
3248.31	23.5
3249.11	23
3249.92	20
3250.72	24
3251.53	26
3252.34	23.5
3253.14	23.5
3253.95	23.5
3254.75	23
3255.56	28.5
3256.36	24
3257.17	24.5
3257.98	22.5
3258.78	23
3259.59	23.5
3260.39	23.5
3261.19	22.5
3262	24
3262.8	25
3263.61	26
3264.41	25
3265.22	23
3266.02	24.5
3266.83	20
3267.63	25
3268.43	18.5
3269.24	18
3270.04	24
3270.84	23
3271.65	24
3272.45	25.5
3273.25	26.5
3274.06	26.5
3274.86	18.5
3275.66	24
3276.46	24.5
3277.27	23
3278.07	21.5
3278.87	26
3279.67	25
3280.48	23
3281.28	24
3282.08	25
3282.88	26
3283.68	24
3284.48	26
3285.29	20
3286.09	21.5
3286.89	25.5
3287.69	23.5
3288.49	26.5
3289.29	22
3290.09	23.5
3290.89	26
3291.69	24.5
3292.49	26.5
3293.29	27
3294.09	25
3294.89	23.5
3295.69	26.5
3296.49	25
3297.29	19.5
3298.09	23
3298.89	23
3299.69	25
3300.49	23
3301.29	25.5
3302.09	20
3302.89	28
3303.69	21
3304.49	20
3305.28	20
3306.08	24
3306.88	26.5
3307.68	24
3308.48	22.5
3309.28	22
3310.07	22.5
3310.87	19.5
3311.67	22.5
3312.47	20
3313.26	24.5
3314.06	25.5
3314.86	24.5
3315.66	22
3316.45	22
3317.25	22
3318.05	25.5
3318.84	25
3319.64	20.5
3320.44	25.5
3321.23	23.5
3322.03	22
3322.83	25
3323.62	25.5
3324.42	25.5
3325.21	28
3326.01	28.5
3326.81	24
3327.6	23
3328.4	23
3329.19	25
3329.99	23
3330.78	22.5
3331.58	22
3332.37	21.5
3333.17	21.5
3333.96	23
3334.76	24.5
3335.55	24
3336.34	22.5
3337.14	26
3337.93	23.5
3338.73	22
3339.52	19
3340.31	23.5
3341.11	26.5
3341.9	26.5
3342.69	23.5
3343.49	23
3344.28	26
3345.07	23.5
3345.87	23
3346.66	20
3347.45	23
3348.25	26
3349.04	25.5
3349.83	24
3350.62	26
3351.42	21.5
3352.21	25.5
3353	21
3353.79	25
3354.58	23
3355.37	26.5
3356.17	19
3356.96	21
3357.75	21.5
3358.54	27
3359.33	22.5
3360.12	22.5
3360.91	20
3361.7	24
3362.49	22.5
3363.29	25
3364.08	25.5
3364.87	23
3365.66	29.5
3366.45	23
3367.24	26.5
3368.03	26
3368.82	21
3369.61	23
3370.4	23
3371.19	22
3371.97	20
3372.76	20
3373.55	22.5
3374.34	22.5
3375.13	21
3375.92	23.5
3376.71	27.5
3377.5	21.5
3378.29	22.5
3379.07	27.5
3379.86	22
3380.65	23.5
3381.44	24.5
3382.23	24.5
3383.01	25
3383.8	23.5
3384.59	20.5
3385.38	23.5
3386.16	27
3386.95	26.5
3387.74	20
3388.53	20.5
3389.31	27.5
3390.1	23
3390.89	23.5
3391.67	23.5
3392.46	25
3393.25	23
3394.03	24
3394.82	21.5
3395.6	23.5
3396.39	24
3397.18	24
3397.96	23
3398.75	25
3399.53	22
3400.32	23.5
3401.1	23.5
3401.89	21.5
3402.67	25
3403.46	21.5
3404.24	22.5
3405.03	19
3405.81	24
3406.6	24.5
3407.38	20.5
3408.17	18
3408.95	23.5
3409.74	25
3410.52	24.5
3411.3	25.5
3412.09	24.5
3412.87	24
3413.65	25
3414.44	24.5
3415.22	22
3416	24
3416.79	27
3417.57	20
3418.35	26.5
3419.14	24.5
3419.92	22.5
3420.7	24
3421.48	26
3422.27	25
3423.05	22
3423.83	24
3424.61	19
3425.4	19.5
3426.18	23
3426.96	21
3427.74	23.5
3428.52	26
3429.3	24.5
3430.08	22
3430.87	21.5
3431.65	25.5
3432.43	28
3433.21	25
3433.99	20.5
3434.77	20.5
3435.55	20.5
3436.33	22
3437.11	22.5
3437.89	27
3438.67	23.5
3439.45	25
3440.23	20.5
3441.01	25
3441.79	22
3442.57	23
3443.35	31
3444.13	26
3444.91	25
3445.69	29
3446.47	21
3447.25	27
3448.03	23
3448.8	24
3449.58	25.5
3450.36	24.5
3451.14	25.5
3451.92	24
3452.7	23
3453.47	22
3454.25	26
3455.03	22
3455.81	26.5
3456.59	25
3457.36	25
3458.14	21
3458.92	24.5
3459.69	22.5
3460.47	21
3461.25	24.5
3462.03	19
3462.8	22.5
3463.58	23.5
3464.36	22
3465.13	24.5
3465.91	23
3466.69	24
3467.46	22
3468.24	23
3469.01	24
3469.79	25
3470.57	24
3471.34	21
3472.12	21
3472.89	25.5
3473.67	25
3474.44	24
3475.22	23.5
3475.99	22.5
3476.77	25
3477.54	25.5
3478.32	26
3479.09	27
3479.87	24
3480.64	25
3481.41	23
3482.19	21
3482.96	23.5
3483.74	26
3484.51	20.5
3485.28	27.5
3486.06	22.5
3486.83	24
3487.6	21
3488.38	22.5
3489.15	22.5
3489.92	20.5
3490.7	23
3491.47	24
3492.24	22
3493.01	27
3493.79	24.5
3494.56	22.5
3495.33	27
3496.1	23.5
3496.88	21.5
3497.65	26.5
3498.42	25
3499.19	23.5
3499.96	25
