#Acq. time (s)=	5
#Accumulations=	5
#Range (cm-¹)=	100...3500
#Windows=	4
#Autofocus=	Off
#AutoExposure=	Off
#Spike filter=	Multiple accum.
#Delay time (s)=	0
#Binning=	1
#Readout mode=	Signal
#DeNoise=	Off
#ICS correction=	Off
#Dark correction=	Off
#Inst. Process=	Off
#Instrument=	LabRAM HR Evol
#Detector=	Syncerity OE
#Objective=	x100_VIS
#Grating=	600 (500nm)
#ND Filter=	25%
#Laser=	633nm_Edge
#Hole=	100.021
#Range=	Visible
#Project=	verificaciones
#Sample=	at4
#Site=	plain
#Title=	bolusat4plain
#Remark=	com
#Date=	16.01.2026 17:29
#Acquired=	16.01.2026 17:29:45
100.564	23.5
101.847	29.5
103.131	29.5
104.414	29.5
105.697	31
106.979	30
108.262	27.5
109.544	27
110.826	26
112.109	27.5
113.391	31
114.672	28.5
115.954	27.5
117.235	29.5
118.515	27
119.796	29
121.076	31
122.357	29.5
123.637	28.5
124.916	28
126.196	26
127.475	31
128.754	31.5
130.033	25.5
131.31	32
132.589	28.5
133.867	30.5
135.145	28
136.423	27.5
137.701	31.5
138.978	24.5
140.256	27
141.533	30
142.809	29.5
144.086	31
145.361	32.5
146.637	23
147.913	30.5
149.189	31.5
150.464	29.5
151.74	28
153.014	30
154.288	26
155.563	35.5
156.838	31.5
158.112	27.5
159.385	29.5
160.659	32.5
161.932	34
163.206	32
164.479	30.5
165.751	30
167.024	28
168.296	31.5
169.567	28.5
170.84	31
172.112	30.5
173.383	32.5
174.654	29
175.925	25.5
177.196	30.5
178.466	28.5
179.737	31
181.007	27
182.276	26
183.546	32
184.816	31
186.085	35.5
187.354	28.5
188.624	29.5
189.891	30.5
191.16	31.5
192.427	32.5
193.696	30.5
194.964	28
196.231	30.5
197.499	28
198.765	28
200.033	26.5
201.298	31.5
202.566	33.5
203.831	26.5
205.098	28
206.363	29.5
207.629	32
208.894	28
210.159	31
211.424	32
212.689	27
213.953	29
215.218	27
216.481	28.5
217.746	24.5
219.009	33
220.273	31
221.536	26.5
222.798	30.5
224.062	32
225.323	32
226.587	24
227.848	29
229.109	30
230.372	27
231.633	28
232.894	29.5
234.156	24.5
235.416	27
236.678	29
237.937	25
239.197	28.5
240.457	25
241.717	27.5
242.976	29.5
244.235	25
245.495	25.5
246.754	25.5
248.012	25
249.27	28
250.529	24
251.787	29
253.045	31
254.302	23.5
255.56	26
256.817	29.5
258.074	28.5
259.33	28
260.586	29
261.844	24
263.1	28
264.355	28
265.611	26
266.866	28.5
268.121	26.5
269.377	28.5
270.632	30
271.886	26
273.14	24.5
274.394	27.5
275.648	25.5
276.902	27.5
278.155	26
279.408	26
280.663	26
281.915	28
283.168	24
284.42	30.5
285.673	29.5
286.925	30
288.176	27
289.428	26.5
290.679	27
291.93	28
293.181	24
294.432	27.5
295.683	27
296.933	28
298.183	28.5
299.433	26.5
300.683	25.5
301.932	30
303.182	26
304.429	27
305.678	27.5
306.927	28.5
308.176	25.5
309.424	27
310.672	29
311.92	28
313.168	24.5
314.415	25.5
315.661	27
316.908	29
318.155	31
319.402	24.5
320.648	32.5
321.895	26.5
323.139	27
324.385	27.5
325.631	24
326.877	20
328.122	28.5
329.366	26.5
330.611	26
331.855	27.5
333.1	30.5
334.343	26
335.587	26
336.831	26
338.074	29.5
339.317	25
340.56	27.5
341.803	25
343.044	27
344.287	29
345.53	27
346.771	28
348.013	24.5
349.255	26
350.495	26
351.736	27
352.978	25
354.217	29
355.458	25
356.699	25.5
357.938	24.5
359.178	24
360.417	24.5
361.657	26
362.895	26
364.135	24.5
365.374	26
366.612	29.5
367.851	26.5
369.088	25
370.327	25
371.564	25.5
372.802	23.5
374.038	28.5
375.276	25
376.512	26
377.749	27
378.985	26.5
380.222	25.5
381.457	28.5
382.692	28.5
383.929	30
385.164	25
386.4	26
387.634	26
388.869	26.5
390.103	30.5
391.337	27
392.572	28
393.805	29
395.038	27
396.273	28.5
397.506	25.5
398.74	24
399.972	31.5
401.204	27
402.437	27
403.669	27
404.901	25
406.132	26
407.365	23
408.596	27.5
409.826	30.5
411.058	25
412.289	26.5
413.519	28.5
414.749	25
415.98	26
417.21	26.5
418.439	30
419.668	26.5
420.897	28.5
422.128	23.5
423.356	26
424.585	27.5
425.813	30
427.041	27
428.269	25
429.498	29.5
430.725	27
431.952	26.5
433.179	27
434.406	25.5
435.633	25
436.859	29
438.085	29.5
439.312	28.5
440.537	27
441.764	22.5
442.99	30.5
444.215	26.5
445.44	23.5
446.665	23
447.89	25
449.114	28.5
450.339	28
451.563	29
452.787	30.5
454.01	26.5
455.234	28
456.457	25
457.68	30.5
458.903	24
460.126	28
461.348	29.5
462.569	27
463.792	25
465.013	26.5
466.235	27
467.457	27
468.678	30.5
469.899	29.5
471.12	28
472.341	29
473.56	27
474.781	28
476.001	33.5
477.221	32
478.441	33
479.66	32
480.878	35.5
482.098	35
483.317	35
484.535	34
485.754	36
486.971	39
488.189	39
489.407	41
490.625	42
491.842	38.5
493.059	36.5
494.276	31.5
495.493	34.5
496.709	36.5
497.926	35
499.142	38.5
500.357	28
501.573	33
502.789	32
504.003	33
505.219	30
506.434	32
507.648	31.5
508.863	31.5
510.078	28
511.291	33.5
512.505	30
513.718	31
514.932	29
516.145	31
517.358	26.5
518.572	26
519.783	28
520.997	25.5
522.208	31
523.421	28
524.632	26
525.844	30.5
527.055	26.5
528.266	26
529.477	30
530.688	29
531.898	32
533.109	29.5
534.319	27
535.53	30.5
536.739	27.5
537.948	31
539.158	30
540.366	26
541.576	30
542.784	28
543.994	23
545.201	24.5
546.409	32
547.618	26
548.825	29.5
550.032	27.5
551.24	28
552.447	26
553.654	28
554.861	28
556.067	27.5
557.273	27.5
558.48	31.5
559.686	27.5
560.891	26.5
562.096	30
563.302	23
564.507	28
565.712	24
566.916	22.5
568.122	26.5
569.326	25.5
570.529	27
571.733	26.5
572.936	28.5
574.141	28.5
575.344	23
576.547	26.5
577.75	31
578.952	26.5
580.154	29
581.358	25.5
582.56	28
583.761	27
584.963	33
586.164	29
587.365	23
588.566	23
589.767	31
590.967	29
592.168	22
593.369	29.5
594.569	24.5
595.769	24.5
596.969	27.5
598.168	26
599.367	32
600.566	27
601.765	25
602.964	28.5
604.162	29.5
605.361	30.5
606.559	23
607.757	24.5
608.953	24.5
610.151	26
611.348	27.5
612.545	25.5
613.742	25
614.939	27
616.135	25.5
617.332	26.5
618.528	27
619.724	19
620.918	29
622.114	28.5
623.309	27
624.505	30
625.7	29
626.895	31
628.088	29
629.282	27
630.477	30
631.671	25
632.865	23.5
634.057	23
635.251	24.5
636.444	27
637.637	27
638.829	26
640.022	26
641.214	26.5
642.407	25.5
643.598	29
644.79	28
645.982	24
647.172	28
648.364	26
649.555	29
650.745	21
651.936	23.5
653.126	29.5
654.315	25.5
655.506	29.5
656.696	24
657.885	27
659.074	23
660.263	27
661.452	29.5
662.64	29
663.829	30
665.018	29
666.205	31
667.394	23.5
668.581	28.5
669.769	28
670.955	29.5
672.143	27.5
673.329	29.5
674.517	25
675.703	27.5
676.89	26
678.075	25
679.262	27.5
680.447	28
681.632	25
682.818	29.5
684.002	30.5
685.188	29.5
686.372	30
687.556	28.5
688.741	30.5
689.925	29.5
691.11	30.5
692.293	27.5
693.476	30
694.66	26
695.843	32.5
697.025	27.5
698.209	32.5
699.391	30
700.573	28
701.756	32.5
702.938	31.5
704.119	29.5
705.3	34.5
706.483	33
707.664	36
708.844	36
710.025	36.5
711.206	36.5
712.386	31.5
713.566	30.5
714.746	30
715.925	30
717.106	29.5
718.285	30
719.464	25
720.643	30
721.822	22.5
723	30
724.178	27
725.358	26.5
726.536	25
727.713	29.5
728.891	26.5
730.068	28.5
731.245	32
732.422	24
733.599	29
734.775	26
735.952	26.5
737.128	28
738.304	21.5
739.48	25
740.656	29
741.831	22
743.006	28.5
744.181	28.5
745.356	25
746.531	27
747.706	24
748.88	26
750.054	27
751.228	25.5
752.402	25
753.576	24.5
754.749	28.5
755.922	24
757.095	26
758.267	26.5
759.44	29.5
760.612	26.5
761.785	26
762.957	28
764.129	29
765.301	28
766.471	26.5
767.642	23
768.814	24
769.985	28.5
771.156	26.5
772.325	30
773.495	25.5
774.666	24.5
775.836	25
777.005	27
778.174	27.5
779.344	24
780.513	28
781.681	29
782.85	26.5
784.019	28
785.187	27.5
786.355	27
787.523	28
788.69	25.5
789.858	29
791.026	25.5
792.192	29.5
793.36	28
794.526	26
795.693	28
796.86	26.5
798.025	26
799.191	25.5
800.356	30
801.523	25
802.689	28.5
803.853	24
805.019	27.5
806.183	29.5
807.348	26.5
808.512	28
809.677	29
810.84	28
812.005	24
813.167	28.5
814.332	32
815.494	27
816.657	24.5
817.82	28.5
818.982	32
820.146	25.5
821.307	29
822.47	28
823.632	25.5
824.793	27
825.955	27
827.116	29
828.277	25
829.439	25.5
830.599	27
831.759	29
832.92	25.5
834.08	26
835.24	28.5
836.4	24
837.56	29.5
838.719	24
839.877	27
841.037	26.5
842.196	27.5
843.354	27
844.512	25
845.672	26.5
846.83	24.5
847.987	24
849.145	27.5
850.302	21.5
851.46	25
852.617	22.5
853.774	26.5
854.93	26
856.087	26.5
857.243	24.5
858.4	23
859.556	25.5
860.712	25
861.867	23.5
863.022	31.5
864.177	28
865.332	27
866.487	23
867.642	28
868.796	27
869.95	29
871.104	29
872.258	25
873.412	22.5
874.565	27.5
875.718	25
876.872	27
878.024	31
879.177	26
880.33	27
881.482	29
882.635	30
883.787	28
884.938	25
886.09	26
887.242	26
888.393	23
889.544	22
890.695	26
891.845	27
892.995	25
894.146	23.5
895.296	28.5
896.446	26.5
897.596	26
898.744	24
899.894	26
901.043	25.5
902.193	23.5
903.342	27
904.489	24.5
905.638	27.5
906.786	26
907.935	23.5
909.081	22.5
910.229	29.5
911.377	25
912.525	27
913.671	26.5
914.818	24
915.965	27.5
917.111	27.5
918.258	26
919.404	24
920.549	25
921.695	21.5
922.84	30.5
923.986	28
925.132	26.5
926.276	25
927.421	26.5
928.565	26.5
929.71	23
930.855	26.5
931.998	23.5
933.142	27
934.285	25.5
935.429	26
936.572	27.5
937.716	27.5
938.858	29
940.001	26
941.143	26
942.286	26.5
943.428	25.5
944.57	26.5
945.712	25.5
946.854	27
947.995	27
949.135	23
950.277	25
951.418	28
952.559	27.5
953.699	22
954.839	27.5
955.98	28.5
957.119	23
958.258	23
959.399	28
960.538	25.5
961.676	26.5
962.816	24.5
963.955	25
965.093	26.5
966.232	28
967.37	27
968.508	27.5
969.645	26
970.784	27
971.921	28
973.058	24
974.195	24
975.333	25.5
976.469	22.5
977.605	27.5
978.741	24
979.877	25
981.013	25.5
982.15	26
983.285	24
984.421	21
985.556	23.5
986.691	24
987.825	23
988.96	24
990.094	25
991.228	24.5
992.364	23.5
993.497	25.5
994.631	28.5
995.765	27
996.898	24
998.031	23.5
999.164	22
1000.3	21.5
1001.43	22
1002.56	27.5
1003.69	27
1004.83	28
1005.96	28
1007.09	22
1008.22	29.5
1009.35	25
1010.48	21
1011.61	28.5
1012.74	27
1013.88	24
1015.01	24.5
1016.14	28
1017.27	27
1018.4	26
1019.53	26.5
1020.65	26
1021.78	26
1022.91	22.5
1024.04	27.5
1025.17	27.5
1026.3	24.5
1027.43	24
1028.56	23
1029.68	22
1030.81	21.5
1031.94	28
1033.07	22
1034.19	20.5
1035.32	22
1036.45	24.5
1037.58	25
1038.7	22
1039.83	24
1040.95	20.5
1042.08	25
1043.21	24.5
1044.33	25
1045.46	23.5
1046.58	26.5
1047.71	22
1048.83	24
1049.96	25
1051.08	25.5
1052.21	24.5
1053.33	24
1054.45	26
1055.58	25
1056.7	21.5
1057.82	25
1058.95	23
1060.07	24
1061.19	24.5
1062.32	26.5
1063.44	25.5
1064.56	25
1065.68	24
1066.81	26
1067.93	20
1069.05	24
1070.17	27
1071.29	24
1072.41	25
1073.53	25.5
1074.65	24.5
1075.77	23.5
1076.89	22.5
1078.01	26.5
1079.13	26.5
1080.25	24
1081.37	22.5
1082.49	26
1083.61	23.5
1084.73	20.5
1085.85	25.5
1086.97	25
1088.09	26.5
1089.2	28
1090.32	27.5
1091.44	27.5
1092.56	22.5
1093.68	23.5
1094.79	26.5
1095.91	22.5
1097.03	25
1098.14	27
1099.26	24.5
1100.38	23
1101.49	29
1102.61	22
1103.73	23
1104.84	24
1105.96	23
1107.07	25
1108.19	28
1109.3	25.5
1110.42	23.5
1111.53	27
1112.65	24.5
1113.76	25
1114.88	28.5
1115.99	22
1117.1	24.5
1118.22	25
1119.33	23
1120.44	25.5
1121.56	25
1122.67	24.5
1123.78	27
1124.89	24.5
1126.01	27
1127.12	24
1128.23	23.5
1129.34	25.5
1130.45	22.5
1131.56	27
1132.67	22.5
1133.79	26
1134.9	21.5
1136.01	23
1137.12	21.5
1138.23	23
1139.34	23.5
1140.45	20.5
1141.56	22
1142.67	25.5
1143.78	24.5
1144.89	23.5
1145.99	25
1147.1	23.5
1148.21	20
1149.32	27
1150.43	24.5
1151.54	23.5
1152.65	26
1153.75	23.5
1154.86	23.5
1155.97	22.5
1157.08	24.5
1158.18	25.5
1159.29	25.5
1160.4	25.5
1161.5	21
1162.61	22.5
1163.72	25
1164.82	29
1165.93	19
1167.03	25.5
1168.14	24.5
1169.24	21
1170.35	25
1171.45	25
1172.56	23.5
1173.66	25
1174.77	21.5
1175.87	23
1176.98	22
1178.08	23
1179.18	28
1180.29	26
1181.39	21.5
1182.49	24
1183.6	19.5
1184.7	26.5
1185.8	28
1186.9	27
1188	24
1189.11	23
1190.21	21
1191.31	20
1192.41	21
1193.51	22.5
1194.61	26.4763
1195.72	23.9326
1196.82	23.4782
1197.92	25.5372
1199.02	24.932
1200.12	21.087
1201.22	22.7887
1202.32	22.4365
1203.42	27.4659
1204.52	20.7227
1205.62	22.0168
1206.71	21.3436
1207.81	24.1039
1208.91	23.4433
1210.01	23.5346
1211.11	23.8402
1212.21	19.4721
1213.31	25.1669
1214.4	25.4692
1215.5	20.3519
1216.6	23.6199
1217.7	25.0188
1218.79	23.7402
1219.89	23.9273
1220.99	22.6432
1222.08	22.6286
1223.18	23.7289
1224.28	23.4665
1225.37	22.4136
1226.47	27.7123
1227.56	25.0475
1228.66	22.6027
1229.76	19.405
1230.85	25.8098
1231.95	23.0018
1233.04	22.8731
1234.14	20.8859
1235.23	23.2515
1236.32	23.7636
1237.42	25.6047
1238.51	24.5585
1239.61	22.9927
1240.7	23.3385
1241.79	24.1085
1242.89	22.3839
1243.98	22.3252
1245.07	25.7819
1246.17	22.8186
1247.26	22.8408
1248.35	22.3777
1249.44	23.1869
1250.53	23.1443
1251.63	22.5709
1252.72	27.1952
1253.81	23.5834
1254.9	23.1917
1255.99	20.4684
1257.08	22.0761
1258.17	23.8386
1259.27	24.7772
1260.36	24.2968
1261.45	26.6532
1262.54	24.2603
1263.63	23.9271
1264.72	22.4393
1265.81	23.2599
1266.89	21.7433
1267.98	22.3734
1269.07	24.274
1270.16	22.1375
1271.25	25.1853
1272.34	23.8945
1273.43	23.4024
1274.52	24.4387
1275.6	22.6617
1276.69	23.2155
1277.78	25.9245
1278.87	23.8353
1279.95	23.6432
1281.04	23.0667
1282.13	22.0894
1283.22	23.9818
1284.3	23.2166
1285.39	24.0065
1286.48	26.8096
1287.56	24.2003
1288.65	24.3384
1289.73	24.9733
1290.82	24.2407
1291.9	22.5724
1292.99	21.4854
1294.07	23.1145
1295.16	25.0748
1296.24	25.7618
1297.33	22.2721
1298.41	20.0792
1299.5	22.7326
1300.58	25.169
1301.66	24.4153
1302.75	24.1949
1303.83	23.5091
1304.91	22.0491
1306	22.4543
1306.4	23
1307.48	25
1308.57	25
1309.66	23
1310.75	23
1311.84	24.5
1312.92	22
1314.01	22.5
1315.1	24
1316.18	21.5
1317.27	26.5
1318.36	21.5
1319.44	22
1320.53	20.5
1321.62	24.5
1322.7	22
1323.79	23
1324.87	23.5
1325.96	23.5
1327.04	24
1328.13	22.5
1329.21	29
1330.3	19
1331.38	26.5
1332.47	24
1333.55	22.5
1334.64	24
1335.72	25.5
1336.8	27.5
1337.89	25
1338.97	26
1340.05	25.5
1341.14	19
1342.22	28.5
1343.3	24.5
1344.38	25
1345.47	19
1346.55	24.5
1347.63	23
1348.71	25.5
1349.79	25.5
1350.87	27.5
1351.96	22
1353.04	24.5
1354.12	22
1355.2	24
1356.28	27.5
1357.36	26
1358.44	22.5
1359.52	21
1360.6	25.5
1361.68	25
1362.76	23.5
1363.84	20.5
1364.92	22
1366	26
1367.07	23.5
1368.15	23.5
1369.23	25
1370.31	23
1371.39	23
1372.47	20
1373.54	27
1374.62	26
1375.7	26.5
1376.78	25.5
1377.85	23.5
1378.93	25
1380.01	25.5
1381.08	22.5
1382.16	28.5
1383.24	28
1384.31	22
1385.39	16
1386.46	28.5
1387.54	22.5
1388.61	24.5
1389.69	25.5
1390.76	25.5
1391.84	19.5
1392.91	23
1393.99	23
1395.06	23
1396.14	27.5
1397.21	27.5
1398.29	23
1399.36	24.5
1400.43	26
1401.51	26
1402.58	25.5
1403.65	25
1404.72	24.5
1405.8	26.5
1406.87	23
1407.94	26.5
1409.02	24.5
1410.09	23
1411.16	28.5
1412.23	26.5
1413.3	28
1414.37	28
1415.44	29
1416.51	26.5
1417.59	28.5
1418.66	26.5
1419.73	24
1420.8	29
1421.87	24
1422.94	23
1424.01	26
1425.08	23.5
1426.15	28
1427.22	21
1428.28	23
1429.35	25.5
1430.42	24
1431.49	23.5
1432.56	26
1433.63	23
1434.7	24
1435.76	23.5
1436.83	23
1437.9	25.5
1438.97	25
1440.03	22
1441.1	25.5
1442.17	24
1443.23	26
1444.3	21
1445.37	21
1446.43	21
1447.5	22
1448.57	26
1449.63	24
1450.7	24.5
1451.76	25
1452.83	29
1453.89	26
1454.96	24
1456.02	28.5
1457.09	24.5
1458.15	25
1459.22	26.5
1460.28	22.5
1461.34	24
1462.41	26.5
1463.47	24
1464.53	28
1465.6	23.5
1466.66	22.5
1467.72	25
1468.78	21
1469.85	24.5
1470.91	22
1471.97	27
1473.03	24
1474.1	25.5
1475.16	25
1476.22	28
1477.28	27
1478.34	28
1479.4	21
1480.46	27.5
1481.52	24
1482.58	27.5
1483.65	27
1484.71	27
1485.77	24
1486.82	26
1487.89	26
1488.94	31.5
1490	25
1491.06	22
1492.12	26
1493.18	23
1494.24	20
1495.3	26
1496.36	24.5
1497.41	26
1498.47	24.5
1499.53	22.5
1500.59	23
1501.65	25
1502.7	23
1503.76	25
1504.82	23.5
1505.87	24.5
1506.93	24.5
1507.99	22.5
1509.04	23.5
1510.1	26
1511.16	25
1512.21	23.5
1513.27	22
1514.32	27
1515.38	26.5
1516.43	21
1517.49	25.5
1518.54	24.5
1519.6	24
1520.65	26.5
1521.71	25.5
1522.76	24
1523.81	22.5
1524.87	23
1525.92	26
1526.98	24
1528.03	24.5
1529.08	19.5
1530.14	26.5
1531.19	26.5
1532.24	30.5
1533.29	25.5
1534.35	22
1535.4	27
1536.45	24
1537.5	25
1538.55	26
1539.61	25
1540.66	24.5
1541.71	25.5
1542.76	24
1543.81	21
1544.86	21
1545.91	24.5
1546.96	28
1548.01	24
1549.06	23
1550.11	23.5
1551.16	26.5
1552.21	25
1553.26	25
1554.31	22.5
1555.36	26
1556.41	24.5
1557.46	25
1558.5	25
1559.55	25
1560.6	24
1561.65	28
1562.7	27.5
1563.74	24
1564.79	23.5
1565.84	22
1566.89	21
1567.93	25
1568.98	24
1570.03	27.5
1571.07	25
1572.12	22
1573.17	25
1574.21	25
1575.26	21
1576.3	24.5
1577.35	26
1578.4	25
1579.44	24
1580.49	24
1581.53	30
1582.58	23.5
1583.62	23
1584.66	27
1585.71	28
1586.75	25
1587.8	25.5
1588.84	25
1589.88	21
1590.93	23.5
1591.97	25
1593.01	21.5
1594.06	26.5
1595.1	27
1596.14	23.5
1597.18	25.5
1598.23	24
1599.27	24.5
1600.31	24
1601.35	22.5
1602.39	23.5
1603.44	21.5
1604.48	21
1605.52	29
1606.56	21.5
1607.6	27
1608.64	23
1609.68	24
1610.72	21.5
1611.76	24
1612.8	25
1613.84	22.5
1614.88	31.5
1615.92	24.5
1616.96	22
1618	26.5
1619.04	27
1620.08	24.5
1621.12	24
1622.16	24
1623.19	27.5
1624.23	26
1625.27	29
1626.31	23.5
1627.35	23.5
1628.38	21.5
1629.42	25
1630.46	29
1631.49	22
1632.53	23
1633.57	23
1634.6	21.5
1635.64	24
1636.68	27.5
1637.71	27
1638.75	23
1639.79	26.5
1640.82	22.5
1641.86	23
1642.89	24
1643.93	28.5
1644.96	24.5
1646	26
1647.03	24.5
1648.07	23.5
1649.1	29.5
1650.13	25
1651.17	26
1652.2	25
1653.24	22.5
1654.27	23
1655.3	24
1656.34	26
1657.37	23
1658.4	21.5
1659.43	22
1660.47	21
1661.5	24.5
1662.53	26
1663.56	23.5
1664.6	26
1665.63	25
1666.66	26.5
1667.69	22.5
1668.72	26.5
1669.75	22.5
1670.78	23
1671.81	29
1672.85	21.5
1673.88	24.5
1674.91	28.5
1675.94	24.5
1676.97	21
1678	25
1679.03	27
1680.06	24
1681.09	24
1682.11	24
1683.14	26
1684.17	27.5
1685.2	27
1686.23	23.5
1687.26	25.5
1688.29	25.5
1689.31	24
1690.34	26
1691.37	27
1692.4	27
1693.42	20
1694.45	27
1695.48	25
1696.51	25
1697.53	25
1698.56	23.5
1699.59	20.5
1700.61	25
1701.64	22
1702.66	22
1703.69	24.5
1704.72	25
1705.74	25.5
1706.77	24
1707.79	23
1708.82	24.5
1709.84	23.5
1710.87	27
1711.89	23
1712.91	24
1713.94	24
1714.96	23.5
1715.99	24.5
1717.01	25.5
1718.03	27
1719.06	24.5
1720.08	25
1721.1	24
1722.13	22
1723.15	26
1724.17	26
1725.19	27.5
1726.22	27
1727.24	25.5
1728.26	22
1729.28	25
1730.3	25
1731.33	25
1732.35	23.5
1733.37	25.5
1734.39	22
1735.41	26
1736.43	28.5
1737.45	23
1738.47	26
1739.49	25.5
1740.51	25.5
1741.53	26.5
1742.55	23.5
1743.57	23
1744.59	21
1745.61	22
1746.63	26
1747.65	25
1748.67	25
1749.69	23
1750.7	26
1751.72	18
1752.74	27
1753.76	26.5
1754.78	26
1755.79	25
1756.81	25
1757.83	25.5
1758.85	23.5
1759.86	23.5
1760.88	27
1761.9	20.5
1762.91	23
1763.93	27
1764.95	22
1765.96	25
1766.98	25.5
1767.99	22.5
1769.01	24.5
1770.02	27
1771.04	26.5
1772.06	25
1773.07	27.5
1774.09	22
1775.1	26.5
1776.11	29
1777.13	25.5
1778.14	19
1779.16	23.5
1780.17	28
1781.18	22.5
1782.2	25
1783.21	23
1784.22	30
1785.24	25.5
1786.25	26.5
1787.26	19
1788.28	25.5
1789.29	24.5
1790.3	26
1791.31	23
1792.33	25.5
1793.34	22.5
1794.35	21
1795.36	23.5
1796.37	24
1797.38	23
1798.39	25.5
1799.4	25
1800.42	25.5
1801.43	23.5
1802.44	25
1803.45	24.5
1804.46	26
1805.47	25.5
1806.48	24
1807.49	23
1808.5	22.5
1809.51	23
1810.51	28
1811.52	26
1812.53	25
1813.54	29
1814.55	23.5
1815.56	26
1816.57	27
1817.57	24
1818.58	23
1819.59	24
1820.6	28
1821.61	26
1822.61	23.5
1823.62	23
1824.63	25.5
1825.63	22.5
1826.64	24.5
1827.65	25
1828.65	26
1829.66	25
1830.67	25
1831.67	26
1832.68	22
1833.68	23
1834.69	26.5
1835.69	24.5
1836.7	24
1837.7	22
1838.71	25.5
1839.71	25
1840.72	23.5
1841.72	25
1842.73	23
1843.73	28.5
1844.73	25.5
1845.74	25
1846.74	24.5
1847.74	24.5
1848.75	24.5
1849.75	25.5
1850.75	25.5
1851.76	21.5
1852.76	21.5
1853.76	26
1854.76	28.5
1855.77	26
1856.77	24
1857.77	23.5
1858.77	24.5
1859.77	20.5
1860.77	24.5
1861.78	25
1862.78	25.5
1863.78	26
1864.78	26
1865.78	24
1866.78	25
1867.78	25
1868.78	22
1869.78	22
1870.78	25.5
1871.78	28.5
1872.78	20.5
1873.78	24
1874.78	22.5
1875.78	26.5
1876.78	24
1877.78	25.5
1878.77	24.5
1879.77	18.5
1880.77	27
1881.77	26.5
1882.77	22
1883.77	22.5
1884.76	26
1885.76	22.5
1886.76	25
1887.75	26
1888.75	23
1889.75	29.5
1890.75	26
1891.74	25.5
1892.74	23
1893.73	26.5
1894.73	22.5
1895.73	26
1896.72	26.5
1897.72	24.5
1898.71	23
1899.71	25
1900.7	22.5
1901.7	25.5
1902.69	25
1903.69	22
1904.68	24
1905.68	22.5
1906.67	25.5
1907.67	25.5
1908.66	24.5
1909.65	22.5
1910.65	24.5
1911.64	26
1912.63	26
1913.63	21.5
1914.62	24.5
1915.61	22
1916.61	21
1917.6	27.5
1918.59	20
1919.58	24
1920.58	26
1921.57	25
1922.56	26.5
1923.55	24.5
1924.54	21.5
1925.54	25
1926.53	20.5
1927.52	22.5
1928.51	25.5
1929.5	24.5
1930.49	24
1931.48	21
1932.47	23
1933.46	24.5
1934.45	19.5
1935.44	24
1936.43	22.5
1937.42	24.5
1938.41	23.5
1939.4	23.5
1940.39	23
1941.38	25
1942.37	26
1943.35	25
1944.34	25.5
1945.33	23.5
1946.32	23.5
1947.31	24
1948.3	24.75
1949.28	23
1950.27	22
1951.26	23
1952.25	23.5
1953.23	27.5
1954.22	25.5
1955.21	26.5
1956.19	25
1957.18	23
1958.17	26.5
1959.15	22.5
1960.14	26
1961.12	21.5
1962.11	19
1963.1	27
1964.08	21.5
1965.07	26
1966.05	21
1967.04	23.5
1968.02	20.5
1969.01	24.5
1969.99	25
1970.98	26.5
1971.96	23.5
1972.94	24.5
1973.93	22.5
1974.91	23
1975.9	23
1976.88	22.5
1977.86	28.5
1978.85	27.5
1979.83	24.5
1980.81	25
1981.79	22
1982.78	25.5
1983.76	23.5
1984.74	23
1985.72	27.5
1986.71	22.5
1987.69	23.5
1988.67	23
1989.65	23
1990.63	26
1991.61	25.5
1992.59	26.5
1993.57	25
1994.56	25
1995.54	21
1996.52	25.5
1997.5	17.5
1998.48	27
1999.46	20
2000.44	22.5
2001.42	22
2002.4	25
2003.38	23
2004.36	26
2005.33	23
2006.31	25
2007.29	27
2008.27	22.5
2009.25	19
2010.23	23.5
2011.21	23
2012.18	22
2013.16	26
2014.14	20
2015.12	24
2016.09	22.5
2017.07	21
2018.05	24
2019.03	24
2020	22
2020.98	18.5
2021.96	22
2022.93	23.5
2023.91	23.5
2024.89	22
2025.86	25.5
2026.84	23
2027.81	22.5
2028.79	25
2029.76	27.5
2030.74	21
2031.71	20
2032.69	24.5
2033.66	25.5
2034.64	21.5
2035.61	25.5
2036.59	23
2037.56	21
2038.54	24.5
2039.51	21
2040.48	24
2041.46	25.5
2042.43	24.5
2043.4	24
2044.38	23
2045.35	20
2046.32	21
2047.29	24
2048.27	19
2049.24	21
2050.21	21
2051.18	20
2052.16	27
2053.13	19
2054.1	26
2055.07	23
2056.04	22.5
2057.01	23
2057.98	28
2058.96	18
2059.93	24
2060.9	22
2061.87	21.5
2062.84	21.5
2063.81	24
2064.78	26.5
2065.75	20
2066.72	25
2067.69	22.5
2068.66	22.5
2069.63	24
2070.6	22.5
2071.56	23
2072.53	21
2073.5	24.5
2074.47	25.5
2075.44	23
2076.41	23
2077.38	25
2078.34	23
2079.31	25
2080.28	23
2081.25	19.5
2082.21	22.5
2083.18	26
2084.15	23
2085.11	21
2086.08	26.5
2087.05	16.5
2088.01	24.5
2088.98	23
2089.95	21
2090.91	21.5
2091.88	25
2092.84	21.5
2093.81	23
2094.78	22
2095.74	22.5
2096.71	25
2097.67	23.5
2098.64	22
2099.6	24
2100.57	22.5
2101.53	26
2102.49	25
2103.46	20.5
2104.42	26.5
2105.39	24
2106.35	22
2107.31	19.5
2108.28	21
2109.24	19
2110.2	23.5
2111.17	27
2112.13	21
2113.09	24.5
2114.05	23.5
2115.02	26.5
2115.98	24.5
2116.94	23
2117.9	22.5
2118.86	25
2119.83	23
2120.79	25.5
2121.75	22.5
2122.71	23
2123.67	24
2124.63	21
2125.59	24
2126.55	19.5
2127.51	22
2128.47	24
2129.43	23.5
2130.39	21
2131.35	25.5
2132.31	22.5
2133.27	24
2134.23	22
2135.19	24
2136.15	23.5
2137.11	23
2138.07	17.5
2139.03	17
2139.99	25.5
2140.94	20
2141.9	21.5
2142.86	22.4888
2143.82	22.4882
2144.78	23.5196
2145.73	22.0541
2146.69	23.9723
2147.65	19.1082
2148.61	25.3846
2149.56	22.1338
2150.52	24.223
2151.48	22.173
2152.43	23.2325
2153.39	25.1722
2154.35	19.9915
2155.3	23.437
2156.26	24.4738
2157.21	22.4431
2158.17	23.3027
2159.13	19.0945
2160.08	21.8996
2161.04	21.5
2161.99	23.9229
2162.95	23.3013
2163.9	23.7619
2164.86	24.7209
2165.81	22.1805
2166.77	20.7801
2167.72	21.8983
2168.67	23
2169.63	20.7884
2170.58	22.6096
2171.54	20.3259
2172.49	23.2921
2173.44	21.814
2174.4	23.6159
2175.35	20.6848
2176.3	23.8277
2177.26	22.5209
2178.21	20.0948
2179.16	22.1922
2180.11	22.4578
2181.07	24.7138
2182.02	22.0036
2182.97	22.254
2183.92	23.631
2184.87	19.2898
2185.82	24.977
2186.78	22.6457
2187.73	20.9612
2188.68	21.5
2189.63	21.561
2190.58	19.7798
2191.53	21.8723
2192.48	22.3216
2193.43	22.9223
2194.38	22.1872
2195.33	23.682
2196.28	22.4943
2197.23	22.9964
2198.18	22.1895
2199.13	22.373
2200.08	23.0236
2201.03	23.1373
2201.98	21.8553
2202.93	21.7049
2203.88	23.8468
2204.83	23.9734
2205.77	21.6096
2206.72	21.356
2207.67	22.2683
2208.62	22.8751
2209.57	24.3945
2210.52	22.5689
2211.46	24.5542
2212.41	24.9376
2213.36	24.1383
2214.31	23.733
2215.25	22.7057
2216.2	22.9951
2217.15	23.1808
2218.09	23.7718
2219.04	19.8405
2219.99	21.1254
2220.93	20.4592
2221.88	22.0831
2222.82	25.1291
2223.77	25.6716
2224.72	24.1571
2225.66	23.103
2226.61	20.4998
2227.55	19.8746
2228.5	20.4027
2229.44	20.4522
2230.39	20.7362
2231.33	20.447
2232.28	24.7112
2233.22	24.5352
2234.16	20.4489
2235.11	21.2433
2236.05	21.0186
2237	20.8529
2237.94	22.0705
2238.88	21.8332
2239.83	20.489
2240.13	20
2241.08	23
2242.03	23
2242.98	19
2243.92	20.5
2244.87	25
2245.82	22
2246.76	19
2247.71	22
2248.66	27
2249.61	19.5
2250.55	24.5
2251.5	23
2252.45	25
2253.39	22.5
2254.34	22
2255.28	22.5
2256.23	20.5
2257.18	26.5
2258.12	22
2259.07	22.5
2260.01	21.5
2260.96	19.5
2261.9	21.5
2262.85	23
2263.79	25.5
2264.74	23
2265.68	24.5
2266.63	22
2267.57	25
2268.51	24
2269.46	21
2270.4	21
2271.35	24.5
2272.29	24
2273.23	20
2274.18	21.5
2275.12	20.5
2276.06	23
2277	20.5
2277.95	26.5
2278.89	22.5
2279.83	25.5
2280.78	21
2281.72	20
2282.66	24
2283.6	23
2284.54	15.5
2285.48	24.5
2286.43	23.5
2287.37	24.5
2288.31	22
2289.25	21
2290.19	24
2291.13	22.5
2292.07	21
2293.01	22.5
2293.95	25.5
2294.89	22
2295.83	22.5
2296.77	23.5
2297.71	24
2298.65	22
2299.59	22
2300.53	23.5
2301.47	23
2302.41	24.5
2303.35	22.5
2304.29	22.5
2305.22	20.5
2306.16	22.5
2307.1	26.5
2308.04	22.5
2308.98	25
2309.91	21
2310.85	23.5
2311.79	21
2312.73	22
2313.66	22.5
2314.6	23
2315.54	22
2316.48	21.5
2317.41	24.5
2318.35	20.5
2319.29	19.5
2320.22	22.5
2321.16	23.5
2322.09	21
2323.03	24
2323.97	21
2324.9	23
2325.84	19
2326.77	25.5
2327.71	21
2328.64	25
2329.58	22
2330.51	24.5
2331.45	21.5
2332.38	23.5
2333.32	21
2334.25	25.5
2335.18	24
2336.12	20.5
2337.05	22
2337.99	26
2338.92	19
2339.85	24
2340.79	21
2341.72	22
2342.65	21
2343.59	22
2344.52	23
2345.45	23
2346.38	24
2347.32	23.5
2348.25	27.5
2349.18	23
2350.11	24.5
2351.04	20
2351.98	23.5
2352.91	22
2353.84	24
2354.77	21
2355.7	26
2356.63	25.5
2357.56	26
2358.49	22
2359.42	24.5
2360.35	22
2361.28	20
2362.21	21.5
2363.14	22
2364.07	24
2365	25
2365.93	21
2366.86	23.5
2367.79	24
2368.72	27.5
2369.65	20.5
2370.58	24.5
2371.51	24
2372.44	24.5
2373.36	19
2374.29	20.5
2375.22	23
2376.15	22.5
2377.08	26
2378	22.5
2378.93	19
2379.86	22
2380.79	18
2381.71	23.5
2382.64	25
2383.57	23
2384.49	23
2385.42	25
2386.35	20.5
2387.27	19.5
2388.2	22
2389.13	22.5
2390.05	19
2390.98	18
2391.9	25.5
2392.83	24
2393.76	24.5
2394.68	27
2395.61	24
2396.53	23.5
2397.46	22.5
2398.38	26
2399.3	26
2400.23	24
2401.15	24
2402.08	19
2403	22
2403.93	25
2404.85	27
2405.77	24
2406.7	23
2407.62	22
2408.54	23
2409.47	22
2410.39	27.5
2411.31	23.5
2412.24	24.5
2413.16	23
2414.08	22
2415	21
2415.92	23.5
2416.85	23.5
2417.77	23
2418.69	20.5
2419.61	20.5
2420.53	22.5
2421.45	24
2422.38	23.5
2423.3	23
2424.22	21
2425.14	25
2426.06	23
2426.98	20
2427.9	26
2428.82	21
2429.74	23.5
2430.66	22.5
2431.58	25
2432.5	25
2433.42	23
2434.34	25
2435.26	25
2436.18	26
2437.1	28.5
2438.01	25
2438.93	24.5
2439.85	19.5
2440.77	22
2441.69	25.5
2442.61	25
2443.52	17
2444.44	23
2445.36	24
2446.28	23
2447.2	18.5
2448.11	28
2449.03	24
2449.95	21
2450.86	20
2451.78	24
2452.7	21.5
2453.61	24
2454.53	23
2455.45	22.5
2456.36	23
2457.28	25.5
2458.2	25.5
2459.11	24
2460.03	23.5
2460.94	20.5
2461.86	27
2462.77	24
2463.69	19.5
2464.6	23.5
2465.52	23
2466.43	21
2467.35	22.5
2468.26	21.5
2469.18	24.5
2470.09	23.5
2471	22.5
2471.92	23
2472.83	23
2473.74	22
2474.66	25
2475.57	28.5
2476.48	25
2477.4	23
2478.31	21.5
2479.22	24
2480.14	24
2481.05	20.5
2481.96	20
2482.87	21.5
2483.79	26
2484.7	20.5
2485.61	22.5
2486.52	23
2487.43	20.5
2488.34	23.5
2489.25	22
2490.17	22.5
2491.08	21.5
2491.99	28
2492.9	22.5
2493.81	23.5
2494.72	24.5
2495.63	24
2496.54	23.5
2497.45	24.5
2498.36	26
2499.27	25.5
2500.18	21
2501.09	24
2502	25.5
2502.91	28.5
2503.82	28.5
2504.73	23
2505.63	22.5
2506.54	23.5
2507.45	26.5
2508.36	22.5
2509.27	24
2510.18	27
2511.09	21
2511.99	22
2512.9	27.5
2513.81	27
2514.72	18
2515.62	21
2516.53	22
2517.44	26
2518.34	20
2519.25	24.5
2520.16	29
2521.06	22
2521.97	25.5
2522.88	24
2523.78	25
2524.69	24
2525.6	22.5
2526.5	23.5
2527.41	22.5
2528.31	28
2529.22	26
2530.12	26
2531.03	24
2531.93	25
2532.84	26.5
2533.74	23.5
2534.65	20.5
2535.55	19.5
2536.46	25
2537.36	26
2538.27	24.5
2539.17	23
2540.07	22
2540.98	22
2541.88	24.5
2542.78	20.5
2543.69	21.5
2544.59	22.5
2545.49	22
2546.4	24.5
2547.3	27
2548.2	25.5
2549.1	23
2550.01	25
2550.91	25
2551.81	25
2552.71	19
2553.61	21.5
2554.52	22
2555.42	26
2556.32	27
2557.22	22.5
2558.12	24.5
2559.02	25
2559.92	21
2560.82	24
2561.72	25.5
2562.62	24.5
2563.53	24.5
2564.43	23.5
2565.33	23.5
2566.23	22.5
2567.13	22
2568.03	22.5
2568.92	24.5
2569.82	25
2570.72	22
2571.62	22
2572.52	22.5
2573.42	23
2574.32	24.5
2575.22	23
2576.12	27
2577.02	24
2577.91	26
2578.81	24
2579.71	22
2580.61	22
2581.5	22
2582.4	22
2583.3	20.5
2584.2	24
2585.09	24
2585.99	24
2586.89	23
2587.78	19.5
2588.68	19.5
2589.58	22.5
2590.47	22.5
2591.37	22.5
2592.27	25.5
2593.16	24.5
2594.06	22.5
2594.95	25.5
2595.85	22.5
2596.75	26
2597.64	23
2598.54	24.5
2599.43	24
2600.33	22.5
2601.22	23
2602.12	26.5
2603.01	24
2603.9	22.5
2604.8	20.5
2605.69	26
2606.59	24
2607.48	27
2608.37	22.5
2609.27	23
2610.16	22
2611.05	25
2611.95	23.5
2612.84	26.5
2613.73	23
2614.63	24.5
2615.52	23
2616.41	21
2617.3	24
2618.2	21.5
2619.09	25
2619.98	23.5
2620.87	24
2621.76	24
2622.66	22
2623.55	22
2624.44	22.5
2625.33	28
2626.22	25
2627.11	26
2628	25
2628.9	19
2629.79	28.5
2630.68	21
2631.57	27
2632.46	19
2633.35	23
2634.24	26
2635.13	21
2636.02	29
2636.91	24
2637.8	27
2638.68	19.5
2639.57	26
2640.46	21.5
2641.35	27
2642.24	23.5
2643.13	21.5
2644.02	22.5
2644.91	27.5
2645.79	20
2646.68	26
2647.57	25.5
2648.46	23
2649.35	23
2650.23	21.5
2651.12	26
2652.01	24
2652.9	23
2653.78	22.5
2654.67	23.5
2655.56	25
2656.44	21
2657.33	24
2658.22	24
2659.1	25
2659.99	23
2660.88	23.5
2661.76	20.5
2662.65	23
2663.53	27
2664.42	23
2665.3	25.5
2666.19	22
2667.07	24.5
2667.96	21.5
2668.84	25
2669.73	24.5
2670.61	21
2671.5	24
2672.38	25
2673.27	23
2674.15	25.5
2675.04	26.5
2675.92	22
2676.8	21.5
2677.69	23
2678.57	23
2679.45	23
2680.34	24.5
2681.22	24
2682.1	22
2682.99	25
2683.87	24
2684.75	24.5
2685.63	20
2686.52	23
2687.4	22.5
2688.28	26
2689.16	25
2690.04	23.5
2690.93	24
2691.81	24
2692.69	22.5
2693.57	23
2694.45	25.5
2695.33	24
2696.21	26
2697.09	23.5
2697.97	24
2698.85	23.5
2699.74	26.5
2700.62	25
2701.5	23.5
2702.38	22.5
2703.26	25.5
2704.14	23.5
2705.02	25
2705.89	23.5
2706.77	27
2707.65	23
2708.53	19.5
2709.41	23.5
2710.29	24.5
2711.17	22
2712.05	23
2712.93	24.5
2713.8	23.5
2714.68	23.5
2715.56	25
2716.44	21
2717.32	26.5
2718.19	26
2719.07	24.5
2719.95	25.5
2720.83	27.5
2721.7	25.5
2722.58	25.5
2723.46	21.5
2724.33	23
2725.21	28.5
2726.09	28.5
2726.97	25
2727.84	24
2728.72	22
2729.59	22
2730.47	21
2731.35	22.5
2732.22	23
2733.1	28
2733.97	21.5
2734.85	23
2735.72	25.5
2736.6	28.5
2737.47	27
2738.35	22.5
2739.22	20.5
2740.1	24
2740.97	22
2741.84	27
2742.72	23.5
2743.59	22
2744.47	27.5
2745.34	22
2746.21	25.5
2747.09	24.5
2747.96	23.5
2748.83	23
2749.71	17
2750.58	25.5
2751.45	25.5
2752.33	21.5
2753.2	25.5
2754.07	26
2754.94	25.5
2755.82	27
2756.69	22
2757.56	25
2758.43	24
2759.3	27.5
2760.18	25.5
2761.05	26
2761.92	24
2762.79	23
2763.66	21
2764.53	26.5
2765.4	26.5
2766.27	24
2767.14	26.5
2768.01	20.5
2768.88	18.5
2769.75	27.5
2770.62	23
2771.49	27.5
2772.36	19
2773.23	23.5
2774.1	25
2774.97	18.5
2775.84	25
2776.71	25
2777.58	21
2778.45	26.5
2779.32	24
2780.19	27.5
2781.06	24
2781.92	23.5
2782.79	25.5
2783.66	26
2784.53	27
2785.4	25
2786.26	28
2787.13	22.5
2788	27.5
2788.87	22.5
2789.73	28.5
2790.6	24
2791.47	26
2792.34	24.5
2793.2	27
2794.07	24
2794.94	22.5
2795.8	23
2796.67	26
2797.53	22
2798.4	24
2799.27	21
2800.13	22.5
2801	21.25
2801.86	20
2802.73	25
2803.59	24.5
2804.46	23.5
2805.32	26.5
2806.19	28.5
2807.05	24.5
2807.92	25.5
2808.78	28
2809.65	28
2810.51	21
2811.38	22.5
2812.24	24
2813.1	24
2813.97	28.5
2814.83	22.5
2815.7	27
2816.56	24
2817.42	26.5
2818.29	25.5
2819.15	31
2820.01	22
2820.87	24.5
2821.74	25
2822.6	24.5
2823.46	28
2824.32	24.5
2825.19	24.5
2826.05	25.5
2826.91	22
2827.77	24.5
2828.63	26.5
2829.5	26.5
2830.36	24
2831.22	24
2832.08	21.5
2832.94	26.5
2833.8	27
2834.66	24
2835.52	22.5
2836.38	21
2837.24	24
2838.1	21
2838.96	24
2839.82	18
2840.68	25
2841.54	29
2842.4	22.5
2843.26	26.5
2844.12	22
2844.98	25.5
2845.84	24
2846.7	22.5
2847.56	21.5
2848.42	23.5
2849.28	26
2850.14	23.5
2850.99	24
2851.85	27
2852.71	27
2853.57	22
2854.43	23
2855.28	22
2856.14	26.5
2857	22.5
2857.86	24
2858.71	22
2859.57	24
2860.43	23
2861.28	25
2862.14	22.5
2863	23.5
2863.86	21
2864.71	19.5
2865.57	24.5
2866.42	23.5
2867.28	25
2868.14	26
2868.99	23
2869.85	26
2870.7	26.5
2871.56	24
2872.41	23.5
2873.27	24.5
2874.13	26.5
2874.98	24.5
2875.83	22
2876.69	20
2877.54	27
2878.4	25.5
2879.25	19.5
2880.11	25.5
2880.96	26.5
2881.81	26.5
2882.67	24
2883.52	24.5
2884.38	26
2885.23	24.5
2886.08	30.5
2886.94	29
2887.79	29
2888.64	29
2889.5	32
2890.35	28
2891.2	28
2892.05	33
2892.91	32.5
2893.76	28
2894.61	34
2895.46	33
2896.31	33.5
2897.17	37.5
2898.02	31
2898.87	33.5
2899.72	38.5
2900.57	34.5
2901.42	34.5
2902.27	39.5
2903.12	36
2903.98	38.5
2904.83	44
2905.68	41
2906.53	35
2907.38	46.5
2908.23	41
2909.08	41.5
2909.93	44.5
2910.78	38.5
2911.63	36
2912.48	35
2913.33	34.5
2914.18	34
2915.02	28.5
2915.87	29
2916.72	30
2917.57	30.5
2918.42	27
2919.27	28.5
2920.12	28.5
2920.97	27.5
2921.81	27.5
2922.66	28
2923.51	26
2924.36	22
2925.21	24
2926.05	28.5
2926.9	29.5
2927.75	21.5
2928.59	24
2929.44	22
2930.29	25.5
2931.14	27.5
2931.98	24.5
2932.83	21.5
2933.68	24
2934.52	24
2935.37	24
2936.21	19.5
2937.06	24
2937.91	27
2938.75	23.5
2939.6	25
2940.44	25
2941.29	25
2942.14	26.5
2942.98	25
2943.82	25
2944.67	24
2945.51	25
2946.36	21
2947.2	27
2948.05	27
2948.89	26.5
2949.74	25
2950.58	24.5
2951.43	28.5
2952.27	29.5
2953.11	23.5
2953.96	27
2954.8	26
2955.64	31.5
2956.49	26.5
2957.33	28.5
2958.17	24
2959.02	25
2959.86	29
2960.7	32.5
2961.54	27.5
2962.39	33.5
2963.23	30.5
2964.07	31
2964.91	34
2965.75	33.5
2966.6	30.5
2967.44	27
2968.28	31
2969.12	30
2969.96	28
2970.8	25
2971.64	24.5218
2972.48	25.967
2973.33	26.0202
2974.17	21.7995
2975.01	26.5925
2975.85	29.7948
2976.69	24.4476
2977.53	23.2725
2978.37	26.2751
2979.21	24.123
2980.05	25.8097
2980.89	23.1117
2981.73	27.6784
2982.57	23.3514
2983.41	21.4538
2984.25	25.6823
2985.08	23.1505
2985.92	22.5857
2986.76	24.6289
2987.6	21.7872
2988.44	21.3837
2989.28	21.6198
2990.12	23.4909
2990.96	22.2975
2991.79	23.2806
2992.63	25.2027
2993.47	21.1364
2994.31	21.7567
2995.14	21.8689
2995.98	23.6438
2996.82	25.4108
2997.66	23.5809
2998.49	26.0846
2999.33	21.2315
3000.17	21.3688
3001	23.7554
3001.84	21.7739
3002.68	22.3219
3003.51	20.3245
3004.35	22.9013
3005.19	21.0226
3006.02	22.7303
3006.86	22.7841
3007.7	22.944
3008.53	22.4119
3009.37	22.4197
3010.2	21.4952
3011.04	21.9881
3011.87	24.1965
3012.71	23.4777
3013.54	22.8847
3014.38	23.077
3015.21	22.7103
3016.05	21.3521
3016.88	20.6013
3017.72	20.366
3018.55	18.3228
3019.39	22.1678
3020.22	21
3021.05	23.463
3021.89	23.6527
3022.72	24.0252
3023.55	23.1162
3024.39	22.3042
3025.22	23.9706
3026.05	22.7943
3026.89	21.9126
3027.72	21.6589
3028.55	21.6739
3029.39	24.2059
3030.22	21.3947
3031.05	22.0095
3031.88	23.1289
3032.72	22.3805
3033.55	23.3201
3034.38	23.1104
3035.21	23.1578
3036.04	22.2473
3036.88	21.4169
3037.71	21.6384
3038.54	22.7275
3039.37	23.36
3040.2	23.92
3041.03	23.0169
3041.86	22.7582
3042.69	22.6355
3043.52	21.6269
3044.36	21.2257
3045.19	22.4081
3046.02	22.7763
3046.85	21.7138
3047.68	22.1453
3048.51	23.1327
3049.34	23.111
3050.17	21.7069
3051	22.0298
3051.83	23.34
3052.66	22.6116
3053.48	20.444
3054.31	22.3613
3055.14	22.3569
3055.97	20.9473
3056.8	23.7475
3057.29	22
3058.12	22
3058.95	24
3059.79	25.5
3060.62	24
3061.45	23
3062.29	24
3063.12	19
3063.95	26.5
3064.78	21
3065.62	23
3066.45	21
3067.28	21.5
3068.11	24
3068.94	22
3069.77	21
3070.61	23
3071.44	22
3072.27	19
3073.1	24.5
3073.93	23
3074.76	23.5
3075.59	21.5
3076.42	21.5
3077.25	22.5
3078.08	22.5
3078.92	22
3079.74	23.5
3080.57	23
3081.41	25.5
3082.24	25.5
3083.06	21.5
3083.89	23.5
3084.72	23
3085.55	24
3086.38	18.5
3087.21	21.5
3088.04	23
3088.87	22.5
3089.7	20
3090.53	22
3091.36	25
3092.18	22
3093.01	20
3093.84	22
3094.67	22.5
3095.5	26.5
3096.32	23.5
3097.15	18.5
3097.98	24
3098.81	26.5
3099.64	25
3100.46	23
3101.29	18
3102.12	21
3102.94	21
3103.77	21.5
3104.6	23.5
3105.42	17
3106.25	23.5
3107.08	23
3107.9	23.5
3108.73	25
3109.56	21
3110.38	22
3111.21	24.5
3112.03	25
3112.86	22
3113.68	22
3114.51	21
3115.33	23
3116.16	24
3116.98	24.5
3117.81	20.5
3118.63	25
3119.46	20
3120.28	24
3121.11	29
3121.93	22.5
3122.76	25.5
3123.58	24
3124.4	20
3125.23	22
3126.05	25.5
3126.87	22
3127.7	19.5
3128.52	22.5
3129.34	23
3130.17	23.5
3130.99	25
3131.81	19.5
3132.64	22.5
3133.46	20.5
3134.28	21
3135.1	24
3135.93	26
3136.75	22.5
3137.57	22
3138.39	23.5
3139.21	21
3140.04	26.5
3140.86	26
3141.68	27
3142.5	27
3143.32	24
3144.14	24
3144.96	21
3145.78	20.5
3146.61	25
3147.43	29
3148.25	24.5
3149.07	24
3149.89	23
3150.71	20.5
3151.53	23
3152.35	19.5
3153.17	22.5
3153.99	21
3154.81	25
3155.63	23.5
3156.45	23.5
3157.27	26
3158.08	21.5
3158.9	23
3159.72	25
3160.54	23
3161.36	23.5
3162.18	21.5
3163	21
3163.82	22.5
3164.63	25
3165.45	27
3166.27	21.5
3167.09	20.5
3167.91	24.5
3168.72	24
3169.54	16.5
3170.36	20.5
3171.18	23.5
3171.99	20.5
3172.81	23
3173.63	25
3174.44	22.5
3175.26	24.5
3176.08	19.5
3176.89	20
3177.71	21
3178.53	18.5
3179.34	25
3180.16	25.5
3180.97	24
3181.79	23.5
3182.61	20
3183.42	25.5
3184.24	22.5
3185.05	22.5
3185.87	19.5
3186.68	21
3187.5	23
3188.31	23.5
3189.13	25
3189.94	24
3190.76	24.5
3191.57	27
3192.39	20.5
3193.2	25
3194.02	22.5
3194.83	24
3195.64	20
3196.46	22
3197.27	25.5
3198.08	21.5
3198.9	26.5
3199.71	26.5
3200.52	26
3201.34	23
3202.15	28.5
3202.96	23
3203.78	23.5
3204.59	23.5
3205.4	23
3206.21	23
3207.03	21
3207.84	20
3208.65	22.5
3209.46	22
3210.27	21.5
3211.09	23
3211.9	23.5
3212.71	25.5
3213.52	20
3214.33	26.5
3215.14	26.5
3215.95	23
3216.77	25
3217.58	27
3218.39	20.5
3219.2	26.5
3220.01	21
3220.82	21
3221.63	21.5
3222.44	24.5
3223.25	25
3224.06	27
3224.87	26.5
3225.68	21
3226.49	24.5
3227.3	26
3228.11	19
3228.92	24.5
3229.73	24
3230.53	26
3231.34	23.5
3232.15	19.5
3232.96	26
3233.77	26.5
3234.58	22.5
3235.39	25.5
3236.19	20.5
3237	24
3237.81	25.5
3238.62	26.5
3239.43	24.5
3240.23	28.5
3241.04	23
3241.85	24.5
3242.66	25
3243.46	24.5
3244.27	24
3245.08	26.5
3245.89	24.5
3246.69	24.5
3247.5	21
3248.31	21
3249.11	22
3249.92	27
3250.72	19
3251.53	24
3252.34	21.5
3253.14	25
3253.95	23.5
3254.75	23.5
3255.56	22
3256.36	22
3257.17	24
3257.98	22
3258.78	25
3259.59	21
3260.39	21
3261.19	21
3262	23.5
3262.8	25
3263.61	19
3264.41	23.5
3265.22	22.5
3266.02	24.5
3266.83	24
3267.63	24.5
3268.43	23
3269.24	25
3270.04	21
3270.84	21
3271.65	26
3272.45	24
3273.25	22
3274.06	23
3274.86	21.5
3275.66	24
3276.46	20.5
3277.27	24
3278.07	25
3278.87	25
3279.67	26
3280.48	20
3281.28	18
3282.08	20
3282.88	27.5
3283.68	20.5
3284.48	25.5
3285.29	21.5
3286.09	21
3286.89	23.5
3287.69	22.5
3288.49	19
3289.29	24.5
3290.09	21.5
3290.89	22
3291.69	21.5
3292.49	25.5
3293.29	21
3294.09	23.5
3294.89	25.5
3295.69	28
3296.49	26
3297.29	25.5
3298.09	21
3298.89	21.5
3299.69	21.5
3300.49	23.5
3301.29	22.5
3302.09	23.5
3302.89	23.5
3303.69	21.5
3304.49	22.5
3305.28	23
3306.08	19
3306.88	25.5
3307.68	24.5
3308.48	25.5
3309.28	20
3310.07	20.5
3310.87	22.5
3311.67	23
3312.47	26
3313.26	25
3314.06	23
3314.86	27.5
3315.66	22
3316.45	23.5
3317.25	23
3318.05	28
3318.84	27
3319.64	23.5
3320.44	25
3321.23	24.5
3322.03	24
3322.83	25
3323.62	23.5
3324.42	24.5
3325.21	26
3326.01	23
3326.81	24
3327.6	28.5
3328.4	22.5
3329.19	26
3329.99	21
3330.78	23.5
3331.58	24.5
3332.37	25.5
3333.17	29.5
3333.96	25
3334.76	24
3335.55	28.5
3336.34	25.5
3337.14	24
3337.93	23.5
3338.73	21
3339.52	27
3340.31	25
3341.11	25
3341.9	22
3342.69	24
3343.49	26
3344.28	26.5
3345.07	24
3345.87	25
3346.66	26
3347.45	27
3348.25	23
3349.04	24
3349.83	21.5
3350.62	26.5
3351.42	25
3352.21	22
3353	22.5
3353.79	24.5
3354.58	24
3355.37	26.5
3356.17	22
3356.96	24
3357.75	27.5
3358.54	23.5
3359.33	23.5
3360.12	23
3360.91	27.5
3361.7	19.5
3362.49	22.5
3363.29	20.5
3364.08	22.5
3364.87	21.5
3365.66	23
3366.45	21.5
3367.24	22
3368.03	22.5
3368.82	24.5
3369.61	27
3370.4	22.5
3371.19	25
3371.97	22.5
3372.76	25.5
3373.55	26
3374.34	20
3375.13	26
3375.92	23.5
3376.71	22
3377.5	25.5
3378.29	25
3379.07	25
3379.86	27.5
3380.65	26
3381.44	27
3382.23	28
3383.01	22.5
3383.8	21.5
3384.59	24.5
3385.38	17
3386.16	23
3386.95	20
3387.74	22
3388.53	25.5
3389.31	19.5
3390.1	23.5
3390.89	23.5
3391.67	23.5
3392.46	24.5
3393.25	23
3394.03	22
3394.82	24.5
3395.6	24
3396.39	24.5
3397.18	23
3397.96	24.5
3398.75	23.5
3399.53	19
3400.32	23
3401.1	21.5
3401.89	26
3402.67	25
3403.46	25.5
3404.24	24
3405.03	28
3405.81	24.5
3406.6	24
3407.38	24
3408.17	23.5
3408.95	22.5
3409.74	23
3410.52	24.5
3411.3	24
3412.09	25.5
3412.87	25.5
3413.65	21.5
3414.44	21.5
3415.22	19
3416	26.5
3416.79	22.5
3417.57	26.5
3418.35	23
3419.14	26
3419.92	23.5
3420.7	27
3421.48	24.5
3422.27	25.5
3423.05	22
3423.83	21
3424.61	25.5
3425.4	24.5
3426.18	22
3426.96	25
3427.74	21.5
3428.52	20
3429.3	24.5
3430.08	23.5
3430.87	23.5
3431.65	27
3432.43	27
3433.21	18.5
3433.99	24.5
3434.77	26.5
3435.55	26
3436.33	21
3437.11	26
3437.89	24
3438.67	25.5
3439.45	24
3440.23	23.5
3441.01	24.5
3441.79	23
3442.57	24
3443.35	22.5
3444.13	26
3444.91	24
3445.69	24
3446.47	24.5
3447.25	25
3448.03	23
3448.8	21.5
3449.58	26
3450.36	23.5
3451.14	22
3451.92	23.5
3452.7	21
3453.47	25
3454.25	20.5
3455.03	24
3455.81	24
3456.59	22
3457.36	23
3458.14	21.5
3458.92	26
3459.69	23
3460.47	24
3461.25	21.5
3462.03	24.5
3462.8	22
3463.58	23.5
3464.36	19
3465.13	27
3465.91	21.5
3466.69	24.5
3467.46	18
3468.24	22
3469.01	27
3469.79	24.5
3470.57	23
3471.34	21
3472.12	24.5
3472.89	23.5
3473.67	28
3474.44	23.5
3475.22	22.5
3475.99	23
3476.77	26.5
3477.54	20
3478.32	25.5
3479.09	27.5
3479.87	21.5
3480.64	28
3481.41	25
3482.19	23
3482.96	22
3483.74	28.5
3484.51	27.5
3485.28	24.5
3486.06	25.5
3486.83	27
3487.6	22
3488.38	26
3489.15	21.5
3489.92	25
3490.7	24.5
3491.47	21.5
3492.24	23.5
3493.01	23
3493.79	21
3494.56	23.5
3495.33	25
3496.1	24.5
3496.88	21.5
3497.65	25.5
3498.42	22
3499.19	21
3499.96	24
