#Acq. time (s)=	5
#Accumulations=	5
#Range (cm-¹)=	100...3500
#Windows=	4
#Autofocus=	Off
#AutoExposure=	Off
#Spike filter=	Multiple accum.
#Delay time (s)=	0
#Binning=	1
#Readout mode=	Signal
#DeNoise=	Off
#ICS correction=	Off
#Dark correction=	Off
#Inst. Process=	Off
#Instrument=	LabRAM HR Evol
#Detector=	Syncerity OE
#Objective=	x100_VIS
#Grating=	600 (500nm)
#ND Filter=	25%
#Laser=	633nm_Edge
#Hole=	100.021
#Range=	Visible
#Project=	verificaciones
#Sample=	at4
#Site=	lined
#Title=	bolusat4lined
#Remark=	
#Date=	14.01.2026 14:11
#Acquired=	14.01.2026 14:11:00
100.618	32.5
101.901	35.5
103.185	38
104.468	36.5
105.751	32
107.033	30.5
108.316	33.5
109.598	31.5
110.88	31
112.162	31.5
113.445	33
114.727	34.5
116.008	29
117.289	33
118.57	39.5
119.85	34.5
121.13	32
122.411	36
123.691	34
124.97	35
126.25	33
127.529	33.5
128.808	35.5
130.086	32
131.364	35
132.643	38
133.921	38.5
135.199	37
136.477	32
137.755	38
139.032	35
140.309	37
141.586	40
142.863	37
144.14	40
145.415	39
146.691	41.5
147.967	43
149.243	42
150.518	40
151.794	43
153.067	37.5
154.342	37
155.617	38
156.892	39
158.166	38.5
159.439	38.5
160.712	44.5
161.986	44
163.26	39
164.531	40.5
165.805	42.5
167.077	39
168.35	41.5
169.621	33
170.893	41.5
172.165	36
173.437	46.5
174.707	37
175.979	39.5
177.25	38.5
178.519	41
179.79	42
181.061	37.5
182.33	41
183.6	42.5
184.87	42.5
186.138	42
187.408	45.5
188.676	40
189.945	42
191.214	41
192.481	41
193.75	41.5
195.016	41
196.285	41
197.552	39.5
198.819	37
200.086	45.5
201.352	38.5
202.619	37
203.884	39
205.151	37
206.416	37
207.682	37
208.947	38
210.213	36.5
211.477	36.5
212.742	38
214.006	42
215.271	38.5
216.535	38
217.799	35.5
219.062	36
220.326	36.5
221.589	38.5
222.851	37
224.115	39.5
225.377	37
226.64	35
227.901	37
229.163	42
230.425	31
231.686	35
232.947	34
234.209	37
235.469	30.5
236.729	38.5
237.991	32
239.25	33
240.51	30
241.771	39
243.03	37
244.288	30
245.549	36
246.807	30.5
248.065	32.5
249.323	37
250.583	33
251.84	35
253.098	29
254.355	35
255.613	36.5
256.87	32
258.127	32.5
259.383	39
260.639	36
261.897	34
263.153	34
264.408	34
265.664	35.5
266.919	38
268.174	35.5
269.43	31.5
270.685	36.5
271.939	32
273.193	35
274.447	33
275.701	30.5
276.955	37.5
278.208	36
279.461	35
280.714	33.5
281.968	29
283.221	35.5
284.473	35.5
285.726	38
286.977	31.5
288.229	30
289.481	31.5
290.732	40
291.983	32
293.234	36
294.485	39.5
295.736	37
296.986	38
298.236	35
299.486	37
300.736	32
301.985	35.5
303.233	38.5
304.482	30.5
305.731	37.5
306.98	35
308.228	33
309.477	32.5
310.725	34.5
311.973	35
313.22	30
314.468	36.5
315.714	33.5
316.961	36
318.208	38.5
319.455	38
320.701	36
321.947	35
323.192	34
324.438	40.5
325.684	36.5
326.929	35
328.175	34
329.418	33.5
330.663	35
331.908	35.5
333.152	31.5
334.395	33.5
335.639	34.5
336.883	39
338.127	33.5
339.369	37
340.612	39
341.855	39
343.097	32
344.34	30
345.582	38
346.823	37
348.065	35.5
349.307	38
350.547	34
351.789	37
353.03	36.5
354.27	36.5
355.511	36
356.75	41
357.991	34.5
359.231	35.5
360.47	34
361.709	37.5
362.948	35
364.187	40.5
365.427	38
366.664	35
367.903	37.5
369.14	37
370.379	33
371.616	36
372.854	34.5
374.091	38.5
375.328	38
376.564	34
377.802	33.5
379.037	38
380.274	39
381.51	37.5
382.745	31
383.981	33.5
385.216	31
386.452	33
387.686	35
388.922	36.5
390.155	34.5
391.389	35
392.624	40.5
393.857	38
395.091	35
396.325	35
397.558	37
398.79	32
400.024	35
401.256	35.5
402.488	33
403.721	36
404.953	36.5
406.184	34
407.417	35
408.648	36.5
409.878	39
411.109	38
412.341	36.5
413.571	34
414.801	36
416.031	38
417.262	37
418.491	39
419.72	37
420.949	38
422.178	38
423.408	39.5
424.637	40
425.865	30
427.093	33.5
428.32	36
429.548	39.5
430.777	34
432.004	35.5
433.231	35.5
434.458	31
435.685	37.5
436.911	36.5
438.137	39.5
439.363	38
440.589	33.5
441.815	39.5
443.042	37
444.267	38
445.492	34
446.717	36
447.942	37.5
449.166	38.5
450.39	36
451.615	33
452.838	37.5
454.062	38
455.286	39.5
456.509	35.5
457.732	35
458.955	35
460.178	38
461.399	37
462.621	40
463.843	34
465.065	40.5
466.287	35
467.508	40
468.73	37.5
469.951	38
471.172	40.5
472.393	41.5
473.612	44.5
474.832	46
476.052	46.5
477.272	49.5
478.492	51.5
479.712	47
480.93	51
482.149	51.5
483.368	53
484.587	57.5
485.806	57.5
487.023	66
488.241	58.5
489.459	58
490.677	60.5
491.893	54.5
493.111	54.5
494.328	57
495.543	49
496.76	55.5
497.977	49
499.194	47
500.409	48.5
501.625	40
502.841	44
504.055	42.5
505.27	42
506.486	41
507.699	41.5
508.914	46.5
510.128	45
511.342	44
512.557	41
513.77	39.5
514.984	40.5
516.196	42
517.41	36
518.623	42
519.835	39
521.048	39
522.259	38
523.472	38.5
524.683	41
525.895	43
527.106	36
528.318	37
529.528	39
530.74	37
531.949	37.5
533.161	41.5
534.37	38.5
535.581	40.5
536.79	37
537.999	36.5
539.209	39
540.418	35.5
541.627	41
542.835	37.5
544.043	37
545.253	36
546.46	39.5
547.669	38.5
548.876	38
550.083	32.5
551.292	38
552.498	39
553.705	39
554.912	37
556.118	36
557.324	37
558.53	44
559.737	40.5
560.942	41.5
562.147	38
563.353	32.5
564.558	34.5
565.763	35.5
566.967	37
568.173	34
569.377	40
570.58	32
571.784	31
572.987	39.5
574.192	35
575.395	40.5
576.598	32.5
577.8	35.5
579.003	36
580.205	36
581.407	39.5
582.61	40.5
583.812	39
585.014	40
586.215	40
587.416	41.5
588.617	34
589.818	34
591.018	33.5
592.219	38
593.419	35.5
594.619	40
595.819	37
597.02	42.5
598.219	37.5
599.418	36.5
600.617	36.5
601.816	37.5
603.015	34.5
604.213	36
605.41	37.5
606.608	38.5
607.806	37.5
609.004	37
610.201	37.5
611.399	38.5
612.596	36.5
613.793	40.5
614.989	36
616.186	36
617.382	40
618.579	38
619.775	35
620.969	36
622.165	34
623.36	35.5
624.555	38
625.75	41.5
626.945	39
628.139	35
629.333	35.5
630.527	38
631.721	38.5
632.915	33.5
634.108	34
635.301	39
636.495	32.5
637.688	37
638.88	40
640.072	33
641.265	41
642.456	40
643.648	36
644.84	34
646.032	35
647.222	42
648.414	35
649.605	40
650.795	37
651.986	35.5
653.177	39.5
654.366	37.5
655.556	38
656.745	42
657.935	39
659.125	35.5
660.313	37
661.503	39.5
662.69	40
663.879	35.5
665.067	39
666.256	39.5
667.444	39
668.631	38
669.819	39
671.006	42
672.194	35
673.38	38
674.567	41.5
675.753	38.5
676.94	36.5
678.125	38.5
679.311	37.5
680.497	37
681.682	41.5
682.868	42.5
684.053	40
685.238	46
686.422	43
687.606	39.5
688.792	43.5
689.975	37.5
691.159	43.5
692.343	37.5
693.526	42
694.71	42.5
695.893	38
697.076	39
698.259	44
699.441	44.5
700.623	43
701.805	50.5
702.988	46.5
704.169	51.5
705.35	50
706.533	52.5
707.714	51
708.894	50.5
710.075	47
711.255	49.5
712.436	45.5
713.616	45
714.796	41
715.975	46
717.155	44
718.335	43
719.514	41
720.693	38
721.872	41.5
723.05	32
724.228	40.5
725.406	40.5
726.585	39
727.763	35.5
728.941	36
730.118	39
731.295	42.5
732.472	40
733.649	39.5
734.825	36
736.002	39
737.178	37.5
738.354	37
739.53	38
740.705	37
741.881	36.5
743.056	37.5
744.231	37
745.406	35.5
746.581	35
747.755	37
748.93	35.5
750.104	37.5
751.278	36.5
752.452	36
753.625	39
754.799	39
755.972	39
757.144	39
758.317	31
759.489	38
760.662	38
761.834	35
763.006	35.5
764.178	39
765.349	38
766.521	35
767.692	30
768.863	36
770.034	36.5
771.204	35
772.374	39
773.545	38
774.715	38
775.885	36
777.054	34
778.224	35.5
779.393	33
780.562	36.5
781.731	40
782.9	39
784.069	39
785.236	33
786.405	41
787.573	37
788.74	35.5
789.908	36.5
791.074	45.5
792.242	42
793.409	38.5
794.575	40.5
795.742	34.5
796.909	37
798.074	38
799.241	38
800.406	41
801.572	38
802.737	38
803.902	39
805.067	37
806.232	35
807.396	35
808.561	40.5
809.725	37.5
810.889	37.5
812.052	35
813.217	34
814.38	34.5
815.544	36.5
816.706	33
817.87	32
819.032	39.5
820.195	34.5
821.357	40
822.518	36
823.681	32.5
824.842	35
826.005	33.5
827.165	36.5
828.326	37
829.488	35
830.648	37
831.808	36
832.97	38.5
834.129	32
835.289	37.5
836.45	35
837.609	33.5
838.768	36.5
839.927	33
841.087	38.5
842.245	40.5
843.404	30
844.562	39
845.721	37
846.879	39
848.036	36.5
849.194	35.5
850.351	37.5
851.509	35
852.666	33.5
853.823	38.5
854.979	38
856.136	34
857.292	35.5
858.448	39
859.605	37.5
860.761	39.5
861.916	38.5
863.071	37.5
864.226	42
865.381	40
866.536	35
867.691	36
868.845	42
869.999	37
871.153	36.5
872.307	37.5
873.461	36.5
874.614	37
875.767	36
876.92	41.5
878.073	33.5
879.226	38.5
880.379	41.5
881.531	33
882.683	35.5
883.835	33.5
884.987	34
886.139	37
887.291	40.5
888.442	38
889.593	36.5
890.743	38.5
891.893	36.5
893.044	40
894.195	37
895.345	37.5
896.495	37
897.643	35.5
898.793	36
899.943	40
901.092	37
902.241	36
903.389	33.5
904.538	38.5
905.687	32.5
906.835	33
907.982	35.5
909.13	33.5
910.278	37
911.426	36
912.572	35
913.72	37.5
914.867	35.5
916.013	36.5
917.16	34.5
918.306	33.5
919.451	33
920.598	36
921.744	34
922.889	38
924.035	40.5
925.18	35
926.324	34.5
927.47	35
928.614	30
929.758	34.5
930.902	34
932.047	30.5
933.191	35
934.334	30.5
935.478	37
936.621	32.5
937.764	31
938.906	37
940.05	33
941.192	33
942.335	29
943.476	30
944.619	40
945.76	34
946.901	36.5
948.043	34
949.184	32
950.326	38.5
951.466	34.5
952.606	29.5
953.747	31
954.887	31
956.028	36.5
957.167	36
958.307	37.5
959.447	31.5
960.586	30
961.725	35.5
962.865	31
964.003	40
965.141	37
966.279	31.5
967.418	33.5
968.556	37
969.693	33.5
970.831	33.75
971.969	32
973.106	33.5
974.243	31
975.38	36.5
976.517	34
977.654	34
978.79	36
979.926	33
981.061	39
982.197	38
983.334	32.5
984.469	36.5
985.604	34
986.739	36.5
987.873	35
989.008	34
990.142	37
991.277	36
992.411	33.5
993.544	36
994.679	33.5
995.813	33
996.946	34.5
998.079	36.5
999.212	32.5
1000.35	34
1001.48	37.5
1002.61	34
1003.74	32
1004.87	33
1006.01	36
1007.14	35
1008.27	30.5
1009.4	34
1010.53	33.5
1011.66	33.5
1012.79	36.5
1013.92	34.5
1015.05	32
1016.18	35
1017.31	36
1018.44	35.5
1019.57	32
1020.7	29.5
1021.83	28.5
1022.96	34.5
1024.09	37.5
1025.22	38
1026.35	31.5
1027.48	30.5
1028.6	38
1029.73	35
1030.86	27
1031.99	29
1033.12	35.5
1034.24	37
1035.37	36
1036.5	37
1037.62	30
1038.75	32
1039.88	34
1041	35
1042.13	31
1043.25	32
1044.38	30
1045.5	31.5
1046.63	32.5
1047.76	37
1048.88	35
1050	35
1051.13	36
1052.25	34.5
1053.38	34.5
1054.5	32
1055.63	33
1056.75	33
1057.87	35
1058.99	25.5
1060.12	33
1061.24	31.5
1062.36	27.5
1063.49	36.5
1064.61	33
1065.73	33.5
1066.85	36.5
1067.97	29.5
1069.1	32
1070.22	33
1071.34	32.5
1072.46	37.5
1073.58	32.5
1074.7	32
1075.82	34
1076.94	37
1078.06	31.5
1079.18	31
1080.3	30
1081.42	36
1082.54	36
1083.66	35
1084.78	32
1085.9	31
1087.02	28
1088.13	31.5
1089.25	35
1090.37	28
1091.49	33
1092.61	31
1093.72	35
1094.84	36
1095.96	33
1097.08	34
1098.19	33.5
1099.31	31
1100.42	32
1101.54	29
1102.66	31.5
1103.77	33.5
1104.89	31.5
1106	29.5
1107.12	33
1108.23	34
1109.35	34
1110.46	31.5
1111.58	34
1112.69	29
1113.81	34.5
1114.92	36
1116.04	27
1117.15	32
1118.26	31
1119.38	32
1120.49	30.5
1121.6	31
1122.72	34
1123.83	33.5
1124.94	30.5
1126.05	29.5
1127.17	32
1128.28	35
1129.39	33
1130.5	33.5
1131.61	30
1132.72	27
1133.83	29
1134.94	31.5
1136.06	31
1137.17	33.5
1138.27	28.5
1139.39	34
1140.5	29
1141.61	33
1142.72	30.5
1143.82	31
1144.93	29.5
1146.04	31.5
1147.15	38
1148.26	37.5
1149.37	30
1150.48	32
1151.58	33
1152.69	30
1153.8	27.5
1154.91	32
1156.02	31.5
1157.12	29
1158.23	29.5
1159.34	31.5
1160.44	30
1161.55	32
1162.66	34
1163.76	32.5
1164.87	34.5
1165.97	31
1167.08	30
1168.18	29.5
1169.29	30
1170.39	28.5
1171.5	32
1172.6	29.5
1173.71	34
1174.81	31
1175.92	32.5
1177.02	31
1178.13	30
1179.23	29.5
1180.33	28.5
1181.44	34.5
1182.54	31.5
1183.64	34.5
1184.74	30
1185.85	32
1186.95	32.5
1188.05	27
1189.15	33
1190.26	32
1191.36	32.5
1192.46	32
1193.56	31
1194.66	29.9929
1195.76	30.4792
1196.86	32.9248
1197.96	29.9532
1199.06	31.9258
1200.16	27.0138
1201.26	31.9911
1202.36	33.6405
1203.46	30.4876
1204.56	28.7801
1205.66	29.0962
1206.76	25.7857
1207.86	35.336
1208.96	28.5215
1210.06	27.0611
1211.16	29.4258
1212.25	32.5995
1213.35	30.8996
1214.45	32.1313
1215.55	34.6788
1216.65	33.0148
1217.74	25.5074
1218.84	31.7462
1219.94	29.1811
1221.03	30.4387
1222.13	28.1826
1223.23	31.0705
1224.32	33.2145
1225.42	32.7843
1226.52	32.9642
1227.61	31.1912
1228.71	30.7987
1229.8	32.1508
1230.9	28.9288
1231.99	29.2353
1233.09	29.435
1234.18	31.7946
1235.28	29.7281
1236.37	29.0668
1237.47	30.2118
1238.56	30.8242
1239.65	29.3467
1240.75	29.9068
1241.84	28.3436
1242.93	31.0268
1244.03	33.6378
1245.12	29.485
1246.21	30.1668
1247.31	29.6012
1248.4	30.8472
1249.49	30.0746
1250.58	30.2895
1251.67	29.6432
1252.77	30.4798
1253.86	31.3643
1254.95	30.0349
1256.04	29.8588
1257.13	28.4357
1258.22	29.8604
1259.31	28.1974
1260.4	30.9506
1261.49	29.7398
1262.58	34.9144
1263.67	31.6999
1264.76	32.5536
1265.85	31.8499
1266.94	28.1245
1268.03	31.5847
1269.12	31.9189
1270.21	28.491
1271.3	29.4458
1272.39	29.682
1273.47	30.329
1274.56	28.1855
1275.65	30.1237
1276.74	28.6281
1277.83	30.5618
1278.91	31.0291
1280	30.1962
1281.09	31.5995
1282.17	31.2307
1283.26	30.7096
1284.35	32.5388
1285.43	31.4128
1286.52	28.3563
1287.61	30.2796
1288.69	28.4652
1289.78	29.1433
1290.86	30.6911
1291.95	26.5291
1293.03	27.158
1294.12	29.5774
1295.2	29.6007
1296.29	31.7004
1297.37	30.5023
1298.46	28.4636
1299.54	31.7071
1300.63	31.5741
1301.71	29.4945
1302.79	30.2939
1303.88	31.1787
1304.96	30.8799
1306.04	29.3296
1306.5	28.5
1307.59	29
1308.68	33
1309.76	27
1310.85	32
1311.94	26
1313.03	29.5
1314.11	26.5
1315.2	30.5
1316.29	31
1317.37	29
1318.46	27
1319.55	26.5
1320.63	30
1321.72	30.5
1322.81	28.5
1323.89	25.5
1324.98	30
1326.06	31.5
1327.15	34
1328.23	30
1329.32	31.5
1330.4	27.5
1331.49	29.5
1332.57	30.5
1333.66	25.5
1334.74	27
1335.82	28
1336.91	31.5
1337.99	27
1339.07	30
1340.16	30.5
1341.24	30
1342.32	34.5
1343.4	28.5
1344.49	30.5
1345.57	31
1346.65	26
1347.73	23.5
1348.82	27.5
1349.9	28
1350.98	28.5
1352.06	29
1353.14	33
1354.22	31
1355.3	29
1356.38	29.5
1357.46	27
1358.54	26
1359.62	26.5
1360.7	29
1361.78	26
1362.86	29.5
1363.94	27.5
1365.02	27
1366.1	30.5
1367.18	30.5
1368.26	29.5
1369.34	30.5
1370.41	25.5
1371.49	27
1372.57	28
1373.65	31
1374.72	29.5
1375.8	32
1376.88	30.5
1377.96	33.5
1379.03	32
1380.11	30
1381.19	32.5
1382.26	31
1383.34	28.5
1384.42	33
1385.49	31.5
1386.57	32
1387.64	30.5
1388.72	24.5
1389.79	28
1390.87	29
1391.94	27.5
1393.02	30.5
1394.09	33.5
1395.17	29
1396.24	29.5
1397.31	31
1398.39	32
1399.46	30.5
1400.54	32
1401.61	27
1402.68	32
1403.76	32.5
1404.83	32.5
1405.9	30.5
1406.97	31.5
1408.05	33
1409.12	37
1410.19	34
1411.26	30
1412.33	31.5
1413.4	31.5
1414.48	34
1415.55	38
1416.62	30.5
1417.69	32
1418.76	28
1419.83	30.5
1420.9	31
1421.97	30
1423.04	33
1424.11	28.5
1425.18	30.5
1426.25	29.5
1427.32	31.5
1428.39	31.5
1429.46	29.5
1430.52	28
1431.59	31.5
1432.66	34
1433.73	27.5
1434.8	29
1435.87	28.5
1436.93	33.5
1438	26.5
1439.07	30
1440.14	26
1441.2	27
1442.27	28.5
1443.34	32.5
1444.4	31
1445.47	26
1446.54	28
1447.6	35.5
1448.67	29.5
1449.73	27.5
1450.8	31.5
1451.86	31
1452.93	30
1453.99	27
1455.06	28
1456.12	29.5
1457.19	31.5
1458.25	31
1459.32	28
1460.38	29.5
1461.45	28.5
1462.51	30
1463.57	30
1464.64	26
1465.7	29.5
1466.76	28.5
1467.82	34.5
1468.89	32.5
1469.95	29
1471.01	29
1472.07	31.5
1473.14	29.5
1474.2	30.5
1475.26	30
1476.32	25
1477.38	32
1478.44	30
1479.5	29.5
1480.57	31.5
1481.63	32
1482.69	31
1483.75	31.5
1484.81	33
1485.87	29.5
1486.93	30
1487.99	32.5
1489.05	31.5
1490.1	34.5
1491.17	31.5
1492.22	30
1493.28	28
1494.34	30
1495.4	30
1496.46	28
1497.52	29
1498.57	31
1499.63	28
1500.69	30
1501.75	29.5
1502.8	29.5
1503.86	30
1504.92	29
1505.98	27.5
1507.03	32
1508.09	25.5
1509.15	30.5
1510.2	29
1511.26	25
1512.31	28
1513.37	31
1514.42	31
1515.48	27
1516.53	33
1517.59	23.5
1518.64	31
1519.7	29
1520.75	31.5
1521.81	28.5
1522.86	31
1523.92	31
1524.97	31
1526.02	30.5
1527.08	29
1528.13	26.5
1529.18	31
1530.24	27
1531.29	25.5
1532.34	34.5
1533.39	29.5
1534.45	28.5
1535.5	27
1536.55	31
1537.6	28
1538.65	30
1539.71	31.5
1540.76	25.5
1541.81	31
1542.86	29
1543.91	32
1544.96	25.5
1546.01	30.5
1547.06	29
1548.11	27
1549.16	26
1550.21	30.5
1551.26	31
1552.31	29
1553.36	30
1554.41	28
1555.46	29
1556.51	28.5
1557.56	31.5
1558.6	30
1559.65	28
1560.7	30
1561.75	27.5
1562.8	30
1563.84	31.5
1564.89	31
1565.94	29.5
1566.99	35
1568.03	31
1569.08	32
1570.13	30.5
1571.17	32
1572.22	27
1573.27	31
1574.31	27
1575.36	31
1576.4	28
1577.45	30
1578.5	30.5
1579.54	27.5
1580.59	29
1581.63	31
1582.68	28
1583.72	28.5
1584.76	28.5
1585.81	29.5
1586.85	34
1587.9	29
1588.94	30
1589.98	31
1591.03	29
1592.07	31
1593.11	29
1594.16	31
1595.2	33.5
1596.24	29
1597.29	28.5
1598.33	31
1599.37	27
1600.41	25
1601.45	28
1602.49	29
1603.54	26
1604.58	26
1605.62	26.5
1606.66	29
1607.7	26
1608.74	31
1609.78	30
1610.82	30
1611.86	30
1612.9	25.5
1613.94	29.5
1614.98	30.5
1616.02	32
1617.06	29.5
1618.1	29.5
1619.14	33.5
1620.18	27
1621.22	25
1622.25	29
1623.29	25.5
1624.33	27
1625.37	27.5
1626.41	31.5
1627.45	29.5
1628.48	27
1629.52	27.5
1630.56	28
1631.59	32
1632.63	28
1633.67	29
1634.7	29
1635.74	30
1636.78	30
1637.81	33
1638.85	30
1639.88	31
1640.92	30.5
1641.96	25.5
1642.99	32.5
1644.03	30
1645.06	27.5
1646.1	34
1647.13	30.5
1648.17	29
1649.2	30.5
1650.23	26
1651.27	28.5
1652.3	33
1653.33	31
1654.37	27.5
1655.4	27
1656.44	27
1657.47	26
1658.5	24
1659.53	29
1660.57	26
1661.6	27.5
1662.63	30
1663.66	28
1664.69	27.5
1665.73	25
1666.76	25.5
1667.79	29
1668.82	26
1669.85	29.5
1670.88	29.5
1671.91	31.5
1672.94	28.5
1673.97	27
1675.01	31
1676.03	28.5
1677.07	29.5
1678.1	35
1679.12	29
1680.15	28.5
1681.18	29
1682.21	28
1683.24	29
1684.27	28.5
1685.3	29
1686.33	25.5
1687.36	29
1688.38	27
1689.41	30.5
1690.44	27
1691.47	29.5
1692.5	29.5
1693.52	28
1694.55	29.5
1695.58	27.5
1696.6	26
1697.63	31
1698.66	28
1699.68	23
1700.71	27
1701.74	25.5
1702.76	28.5
1703.79	26.5
1704.81	31
1705.84	25
1706.86	28.5
1707.89	26
1708.91	31
1709.94	24
1710.96	31
1711.99	25.5
1713.01	28
1714.04	30
1715.06	30
1716.08	25
1717.11	32.5
1718.13	28.5
1719.16	33
1720.18	27.5
1721.2	31.5
1722.22	31
1723.25	25.5
1724.27	26
1725.29	27
1726.31	27.5
1727.34	33
1728.36	29
1729.38	27
1730.4	32.5
1731.42	30.5
1732.44	30.5
1733.47	33
1734.49	25.5
1735.51	28
1736.53	27.5
1737.55	30
1738.57	24.5
1739.59	30
1740.61	29.5
1741.63	31
1742.65	30.5
1743.67	30
1744.69	32.5
1745.71	26.5
1746.73	26.5
1747.75	31.5
1748.76	26.5
1749.78	30
1750.8	32
1751.82	28.5
1752.84	27
1753.86	28
1754.87	25.5
1755.89	31.5
1756.91	30.5
1757.93	28
1758.94	30.5
1759.96	27
1760.98	29.5
1761.99	30
1763.01	26.5
1764.03	30
1765.04	32.5
1766.06	27
1767.08	29.5
1768.09	27
1769.11	30.5
1770.12	25.5
1771.14	30.5
1772.15	28
1773.17	25.5
1774.18	29.5
1775.2	29.5
1776.21	27
1777.23	27.5
1778.24	28
1779.25	28.5
1780.27	33.5
1781.28	30
1782.3	27.5
1783.31	26.5
1784.32	27
1785.34	26
1786.35	27
1787.36	27
1788.37	27.5
1789.39	25.5
1790.4	27.5
1791.41	30
1792.42	29.5
1793.43	27
1794.45	28.5
1795.46	27
1796.47	29
1797.48	30.5
1798.49	28
1799.5	27
1800.51	26.5
1801.52	30
1802.53	30
1803.54	28
1804.55	29
1805.56	28
1806.57	27
1807.58	28
1808.59	25.5
1809.6	26.5
1810.61	29.5
1811.62	27
1812.63	25.5
1813.64	22
1814.65	31.5
1815.66	27
1816.66	26.5
1817.67	25
1818.68	28
1819.69	26
1820.69	29.5
1821.7	27.5
1822.71	31
1823.72	28
1824.72	26.5
1825.73	27
1826.74	29.5
1827.74	29.5
1828.75	29
1829.76	26.5
1830.76	26.5
1831.77	28
1832.77	25
1833.78	28
1834.79	28
1835.79	27
1836.8	31
1837.8	25
1838.81	30
1839.81	26.5
1840.81	26.5
1841.82	22
1842.82	27
1843.83	30
1844.83	29.5
1845.83	27.5
1846.84	22
1847.84	29
1848.84	28
1849.85	27
1850.85	30
1851.85	29.5
1852.86	29
1853.86	31
1854.86	32
1855.86	29.5
1856.86	26
1857.87	28.5
1858.87	27
1859.87	26.5
1860.87	26
1861.87	27
1862.87	25
1863.88	27.5
1864.88	27.5
1865.88	29
1866.88	29.5
1867.88	25.5
1868.88	29
1869.88	33
1870.88	33.5
1871.88	28
1872.88	27.5
1873.88	25
1874.87	30
1875.87	24.5
1876.87	29.5
1877.87	27.5
1878.87	28
1879.87	26.5
1880.87	25
1881.86	27
1882.86	27.5
1883.86	26.5
1884.86	34.5
1885.86	28
1886.85	30
1887.85	28
1888.85	27.5
1889.84	24
1890.84	27
1891.84	23.5
1892.83	28.5
1893.83	29
1894.83	28.5
1895.82	27.5
1896.82	27
1897.81	29
1898.81	28.5
1899.81	30
1900.8	29
1901.8	27.5
1902.79	28.5
1903.78	30
1904.78	27
1905.77	25.5
1906.77	31.5
1907.76	29.5
1908.76	30
1909.75	30
1910.74	31
1911.74	28.5
1912.73	27.5
1913.72	25.5
1914.72	30
1915.71	26.5
1916.7	28.5
1917.7	27
1918.69	26
1919.68	22.5
1920.67	28.5
1921.66	27
1922.66	29
1923.65	26.5
1924.64	24
1925.63	27.5
1926.62	28
1927.61	28.5
1928.6	26
1929.59	29.5
1930.59	27.5
1931.58	30
1932.57	27
1933.56	29.5
1934.55	27
1935.54	33
1936.53	26
1937.52	30.5
1938.51	27
1939.49	28
1940.48	26.5
1941.47	29
1942.46	27.5
1943.45	25
1944.44	28
1945.43	26.5
1946.42	23.5
1947.4	24.5
1948.39	27
1949.38	28
1950.37	24
1951.35	28
1952.34	30
1953.33	24
1954.31	25
1955.3	25
1956.29	27
1957.27	27
1958.26	35
1959.25	27.5
1960.23	30
1961.22	27.5
1962.21	27.5
1963.19	24
1964.18	26.5
1965.16	30.5
1966.15	28
1967.13	27
1968.12	23
1969.1	30
1970.09	29
1971.07	25
1972.05	24
1973.04	29
1974.02	22
1975.01	27
1975.99	28.5
1976.97	28.5
1977.96	22
1978.94	29
1979.92	27
1980.91	27.5
1981.89	24.5
1982.87	24.5
1983.85	27
1984.84	26.5
1985.82	27.5
1986.8	27
1987.78	32.5
1988.76	26.5
1989.74	26
1990.73	25.5
1991.71	24
1992.69	24.5
1993.67	31
1994.65	28.5
1995.63	27.5
1996.61	28.5
1997.59	28
1998.57	26.5
1999.55	24
2000.53	27.5
2001.51	26
2002.49	22.5
2003.47	25.5
2004.45	25.5
2005.43	23
2006.41	22
2007.39	27.5
2008.37	28
2009.34	26.5
2010.32	27
2011.3	24
2012.28	26.5
2013.26	26.5
2014.23	24
2015.21	25
2016.19	25.5
2017.17	25.5
2018.14	24
2019.12	25
2020.1	26
2021.07	25
2022.05	24.5
2023.03	24.5
2024	25.5
2024.98	24.5
2025.96	27
2026.93	25
2027.91	23
2028.88	26
2029.86	25
2030.83	25
2031.81	25.5
2032.78	26
2033.76	26
2034.73	28
2035.71	22
2036.68	31.5
2037.66	29
2038.63	25
2039.6	26
2040.58	28
2041.55	21.5
2042.52	28
2043.5	25
2044.47	31
2045.44	27
2046.42	28
2047.39	28.5
2048.36	24.5
2049.33	21
2050.31	28
2051.28	24
2052.25	26
2053.22	27.5
2054.19	26.5
2055.17	29.5
2056.14	23
2057.11	22.5
2058.08	27.5
2059.05	22
2060.02	28
2060.99	28.5
2061.96	22
2062.93	31
2063.9	22
2064.87	25
2065.84	22.5
2066.81	28
2067.78	23.5
2068.75	28
2069.72	24.5
2070.69	25.5
2071.66	26
2072.63	26
2073.6	23
2074.56	29.5
2075.53	29
2076.5	22.5
2077.47	23.5
2078.44	24.5
2079.4	26
2080.37	24.5
2081.34	23
2082.31	27
2083.27	27.5
2084.24	27.5
2085.21	22
2086.18	27
2087.14	24
2088.11	28.5
2089.07	29
2090.04	26
2091.01	29.5
2091.97	24.5
2092.94	27
2093.9	25
2094.87	25.5
2095.83	27
2096.8	26.5
2097.76	29.5
2098.73	27
2099.69	25
2100.66	26.5
2101.62	26.5
2102.59	24.5
2103.55	22.5
2104.52	29.5
2105.48	23
2106.44	26.5
2107.41	21.5
2108.37	26
2109.33	25
2110.3	25
2111.26	26.5
2112.22	25.5
2113.18	28
2114.15	26
2115.11	26
2116.07	27
2117.03	32.5
2118	27
2118.96	27.5
2119.92	30
2120.88	27.5
2121.84	20
2122.8	26.5
2123.76	26
2124.72	26
2125.68	22.5
2126.65	26.5
2127.61	26
2128.57	22
2129.53	25.5
2130.49	25.5
2131.45	26
2132.41	27.5
2133.36	25
2134.32	27
2135.28	27
2136.24	28
2137.2	20
2138.16	27
2139.12	32
2140.08	28
2141.04	26.5
2141.99	25
2142.95	20.5111
2143.91	26.4548
2144.87	25.088
2145.83	24.5691
2146.78	26.8531
2147.74	29.2387
2148.7	25.6707
2149.66	29.3355
2150.61	23.9175
2151.57	26.2238
2152.53	25.8302
2153.48	24.9066
2154.44	26.7162
2155.4	25.7442
2156.35	23.8064
2157.31	26.5948
2158.26	24.2417
2159.22	21.5727
2160.17	25.1034
2161.13	23.7018
2162.08	25.4484
2163.04	22.9493
2163.99	23.0822
2164.95	25.0592
2165.9	23.4108
2166.86	24.0969
2167.81	24.1798
2168.77	25.6693
2169.72	25.3264
2170.67	24.0654
2171.63	24.9979
2172.58	23.4162
2173.54	27.1848
2174.49	26.8847
2175.44	24.5989
2176.39	25.3277
2177.35	24.6059
2178.3	23.4707
2179.25	25.2937
2180.2	26.478
2181.16	24.6068
2182.11	24.4051
2183.06	24.396
2184.01	21.9938
2184.96	24.1114
2185.92	22.5428
2186.87	24.5339
2187.82	24.932
2188.77	25.0913
2189.72	23.6758
2190.67	23.8108
2191.62	22.2822
2192.57	27.615
2193.52	22.7399
2194.47	25.886
2195.42	24.2005
2196.37	25.4515
2197.32	26.767
2198.27	23.8443
2199.22	24.2719
2200.17	21.0849
2201.12	25.4153
2202.07	25.6121
2203.02	20.8889
2203.97	22.6807
2204.92	25.3255
2205.87	22.7546
2206.81	24.6457
2207.76	27.7374
2208.71	23.3266
2209.66	23.3342
2210.61	23.4274
2211.55	25.8703
2212.5	24.3466
2213.45	23.1222
2214.4	25.6666
2215.34	24.2599
2216.29	26.7323
2217.24	24.8893
2218.18	22.9078
2219.13	23.3811
2220.08	28.6625
2221.02	25.2892
2221.97	29.3016
2222.92	22.6222
2223.86	24.4274
2224.81	26.9026
2225.75	21.8137
2226.7	23.9279
2227.64	23.2583
2228.59	24.5807
2229.53	22.9987
2230.48	21.2063
2231.42	25.4427
2232.37	23.1878
2233.31	25.6802
2234.26	24.2018
2235.2	21.6964
2236.14	25.7021
2237.09	20.8748
2238.03	22.7195
2238.97	23.0437
2239.92	24.2794
2240.05	24.5
2241	24.5
2241.95	22
2242.89	22
2243.84	25
2244.79	27
2245.74	28
2246.68	22
2247.63	21
2248.58	21.5
2249.53	24
2250.47	21
2251.42	24
2252.36	20.5
2253.31	26
2254.26	22
2255.2	20.5
2256.15	27.5
2257.1	25.5
2258.04	22
2258.99	22
2259.93	23
2260.88	27.5
2261.82	24
2262.77	27
2263.71	26.5
2264.66	25.5
2265.6	27
2266.55	25
2267.49	23
2268.43	26
2269.38	24.5
2270.32	26.5
2271.26	28
2272.21	25
2273.15	24
2274.09	26.5
2275.04	28.5
2275.98	23
2276.92	20
2277.87	24.5
2278.81	26
2279.75	21
2280.69	25
2281.64	27.5
2282.58	26.5
2283.52	25
2284.46	25
2285.4	26
2286.34	25.5
2287.29	25.5
2288.23	25.5
2289.17	25.5
2290.11	27.5
2291.05	24
2291.99	25
2292.93	21
2293.87	21.5
2294.81	26
2295.75	23.5
2296.69	21.5
2297.63	25
2298.57	23
2299.51	28.5
2300.45	27.5
2301.39	28.5
2302.33	21
2303.27	25
2304.2	25
2305.14	25.5
2306.08	24
2307.02	24.5
2307.96	28
2308.9	22.5
2309.83	26.5
2310.77	23.5
2311.71	25
2312.65	26.5
2313.58	25.5
2314.52	26
2315.46	27.5
2316.39	28
2317.33	26
2318.27	26.5
2319.21	26
2320.14	22
2321.08	25
2322.01	22.5
2322.95	25
2323.89	22
2324.82	27
2325.76	21.5
2326.69	24
2327.63	21.5
2328.56	22.5
2329.5	26
2330.43	24.5
2331.37	24
2332.3	22
2333.24	24.5
2334.17	30
2335.1	26
2336.04	21
2336.97	27
2337.91	25
2338.84	27
2339.77	26.5
2340.71	23
2341.64	22.5
2342.57	23
2343.51	25
2344.44	26
2345.37	26
2346.3	24.5
2347.24	24
2348.17	17.5
2349.1	28.5
2350.03	24.5
2350.96	27
2351.89	25.5
2352.83	23
2353.76	24
2354.69	25
2355.62	24
2356.55	25
2357.48	29.5
2358.41	27
2359.34	23.5
2360.27	28
2361.2	27
2362.13	26
2363.06	26
2363.99	24
2364.92	26.5
2365.85	26.5
2366.78	27
2367.71	25
2368.64	23
2369.57	24
2370.5	24.5
2371.43	24.5
2372.36	26
2373.28	23
2374.21	28.5
2375.14	24
2376.07	25
2377	25
2377.93	24
2378.85	27
2379.78	24
2380.71	25
2381.63	25
2382.56	26
2383.49	25.5
2384.42	25
2385.34	23
2386.27	25
2387.2	28
2388.12	24
2389.05	26
2389.97	24.5
2390.9	27
2391.82	22
2392.75	23.5
2393.68	26.5
2394.6	24.5
2395.53	24.5
2396.45	25
2397.38	27
2398.3	22.5
2399.23	24
2400.15	27.5
2401.07	28
2402	28
2402.92	27
2403.85	24.5
2404.77	22
2405.69	26.5
2406.62	21.5
2407.54	25
2408.46	27
2409.39	26.5
2410.31	26.5
2411.23	25
2412.16	22.5
2413.08	22.5
2414	27.5
2414.92	26.5
2415.85	26.5
2416.77	25.5
2417.69	26.5
2418.61	25
2419.53	23
2420.45	25
2421.38	26
2422.3	21
2423.22	25.5
2424.14	25
2425.06	26.5
2425.98	25.5
2426.9	26.5
2427.82	19
2428.74	22.5
2429.66	25
2430.58	24
2431.5	25
2432.42	25
2433.34	22.5
2434.26	25
2435.18	22
2436.1	21.5
2437.02	27.5
2437.94	25.5
2438.85	28
2439.77	23.5
2440.69	31
2441.61	27
2442.53	24.5
2443.45	26
2444.36	24.5
2445.28	25
2446.2	24
2447.12	25
2448.03	26
2448.95	25
2449.87	25
2450.79	28.5
2451.7	27
2452.62	24.5
2453.54	24
2454.45	26.5
2455.37	27.5
2456.28	26
2457.2	25
2458.12	23.5
2459.03	21
2459.95	26
2460.86	27
2461.78	27
2462.69	25
2463.61	25.5
2464.52	23
2465.44	26
2466.35	26
2467.27	25
2468.18	26
2469.1	25.5
2470.01	27.5
2470.93	23
2471.84	25.5
2472.75	26.5
2473.67	28
2474.58	22
2475.49	23.5
2476.41	25.5
2477.32	23.5
2478.23	29.5
2479.15	22.5
2480.06	26.5
2480.97	25.5
2481.88	22.5
2482.79	19
2483.71	28.5
2484.62	24.5
2485.53	21.5
2486.44	24
2487.35	25
2488.26	26.5
2489.18	24
2490.09	27
2491	27.5
2491.91	24
2492.82	27.5
2493.73	25
2494.64	25.5
2495.55	27
2496.46	27
2497.37	22
2498.28	28
2499.19	28.5
2500.1	24.5
2501.01	24.5
2501.92	21.5
2502.83	27
2503.74	22
2504.65	27
2505.56	28.5
2506.47	28
2507.37	27
2508.28	25.5
2509.19	26
2510.1	27
2511.01	24
2511.92	28
2512.82	25
2513.73	24
2514.64	27
2515.55	25
2516.45	30.5
2517.36	27
2518.27	27.5
2519.17	22
2520.08	23.5
2520.99	25.5
2521.89	26
2522.8	26
2523.71	24
2524.61	23
2525.52	23
2526.42	24
2527.33	23
2528.24	27
2529.14	26
2530.05	26.5
2530.95	26
2531.86	24
2532.76	27.5
2533.67	25
2534.57	25
2535.48	26.5
2536.38	25.5
2537.28	28.5
2538.19	26.5
2539.09	22
2540	28.5
2540.9	27.5
2541.8	26.5
2542.71	26
2543.61	25
2544.51	23.5
2545.42	22
2546.32	23.5
2547.22	25
2548.12	27.5
2549.03	27
2549.93	24.5
2550.83	25
2551.73	25.5
2552.63	23
2553.54	26.5
2554.44	24.5
2555.34	26.5
2556.24	25
2557.14	29
2558.04	26
2558.94	25.5
2559.85	26
2560.75	22.5
2561.65	26.5
2562.55	24
2563.45	21
2564.35	25
2565.25	26
2566.15	27
2567.05	27
2567.95	25
2568.85	29
2569.75	30
2570.65	25
2571.55	26.5
2572.44	24.5
2573.34	29
2574.24	28.5
2575.14	26
2576.04	26.5
2576.94	27.5
2577.84	25
2578.73	27
2579.63	26
2580.53	27
2581.43	26
2582.33	27
2583.22	21.5
2584.12	25.5
2585.02	28.5
2585.91	24
2586.81	22
2587.71	22
2588.6	30.5
2589.5	22
2590.4	27
2591.29	24
2592.19	28
2593.09	27
2593.98	26.5
2594.88	25
2595.77	26
2596.67	26.5
2597.56	24
2598.46	23.5
2599.35	25
2600.25	26.5
2601.14	27.5
2602.04	26
2602.93	23
2603.83	27
2604.72	24.5
2605.62	27.5
2606.51	27
2607.4	24.5
2608.3	26
2609.19	27
2610.09	24.5
2610.98	26.5
2611.87	27
2612.76	22
2613.66	23.5
2614.55	23.5
2615.44	23
2616.34	24
2617.23	22.5
2618.12	21.5
2619.01	28
2619.9	24.5
2620.8	26.5
2621.69	25.5
2622.58	29.5
2623.47	23
2624.36	22
2625.25	25.5
2626.15	28
2627.04	27
2627.93	21.5
2628.82	28
2629.71	26
2630.6	26
2631.49	22
2632.38	21.5
2633.27	26
2634.16	25.5
2635.05	26
2635.94	27
2636.83	26
2637.72	24.5
2638.61	28.5
2639.5	29
2640.39	22
2641.28	25
2642.16	24
2643.05	23
2643.94	27.5
2644.83	25.5
2645.72	26
2646.61	22.5
2647.49	24
2648.38	26.5
2649.27	25.5
2650.16	27.5
2651.05	26
2651.93	24
2652.82	28.5
2653.71	27
2654.59	28.5
2655.48	24
2656.37	27
2657.25	24.5
2658.14	25
2659.03	23
2659.91	26.5
2660.8	22.5
2661.69	26.5
2662.57	25.5
2663.46	25.5
2664.34	21
2665.23	31
2666.11	23
2667	21.5
2667.88	24.5
2668.77	23
2669.65	22
2670.54	24.5
2671.42	27
2672.31	26.5
2673.19	24
2674.08	25
2674.96	26
2675.84	27
2676.73	25.5
2677.61	24
2678.49	22
2679.38	25
2680.26	26.5
2681.14	25.5
2682.03	26
2682.91	28.5
2683.79	25
2684.68	24.5
2685.56	25.5
2686.44	25.5
2687.32	23.5
2688.2	25
2689.09	23
2689.97	23.5
2690.85	26
2691.73	25.5
2692.61	23.5
2693.49	23
2694.38	24
2695.26	25
2696.14	26
2697.02	24
2697.9	25
2698.78	24
2699.66	29
2700.54	24.5
2701.42	25.5
2702.3	21.5
2703.18	23
2704.06	26.5
2704.94	24
2705.82	26
2706.7	25.5
2707.58	23
2708.46	25.5
2709.34	28
2710.21	26.5
2711.09	29.5
2711.97	26
2712.85	21
2713.73	25.5
2714.61	25
2715.49	23
2716.36	22
2717.24	26
2718.12	27.5
2719	27.5
2719.87	26
2720.75	25.5
2721.63	25.5
2722.51	24
2723.38	24.5
2724.26	28
2725.14	22
2726.01	24
2726.89	27.5
2727.77	26.5
2728.64	23
2729.52	28
2730.39	25.5
2731.27	26
2732.15	28.5
2733.02	22
2733.9	23
2734.77	26.5
2735.65	24
2736.52	26.5
2737.4	22.5
2738.27	23.5
2739.15	31
2740.02	24
2740.89	25
2741.77	27.5
2742.64	26
2743.52	25
2744.39	24
2745.27	22
2746.14	21.5
2747.01	27
2747.89	23.5
2748.76	22
2749.63	22
2750.51	20.5
2751.38	26
2752.25	25
2753.12	24
2754	26
2754.87	28.5
2755.74	26.5
2756.61	25
2757.48	24.5
2758.36	28.5
2759.23	29
2760.1	23.5
2760.97	24.5
2761.84	23.5
2762.71	23
2763.59	25
2764.46	26.5
2765.33	28
2766.2	27.5
2767.07	26
2767.94	23.5
2768.81	24.5
2769.68	25
2770.55	28.5
2771.42	25.5
2772.29	23.5
2773.16	23.5
2774.03	23.5
2774.9	25
2775.77	23
2776.64	25
2777.51	30.5
2778.37	25.5
2779.24	26.5
2780.11	25
2780.98	29
2781.85	27.5
2782.72	22
2783.59	29
2784.45	23
2785.32	27
2786.19	25.5
2787.06	24.5
2787.92	24.5
2788.79	26
2789.66	24.5
2790.53	22
2791.39	28.5
2792.26	24
2793.13	28.5
2793.99	25.5
2794.86	25
2795.73	27
2796.59	26.5
2797.46	23
2798.33	22.5
2799.19	27
2800.06	23
2800.92	23
2801.79	23
2802.65	22.5
2803.52	24.5
2804.39	24
2805.25	26
2806.11	22
2806.98	26
2807.84	25.5
2808.71	27.5
2809.57	28
2810.44	26
2811.3	26
2812.17	24
2813.03	27
2813.89	27.5
2814.76	26.5
2815.62	28
2816.49	27
2817.35	26
2818.21	27
2819.07	28.5
2819.94	27
2820.8	28.5
2821.66	26.5
2822.53	25
2823.39	25.5
2824.25	28
2825.11	28.5
2825.97	27
2826.84	23
2827.7	26
2828.56	26
2829.42	29
2830.28	26
2831.14	26
2832.01	29.5
2832.87	26.5
2833.73	28.5
2834.59	24.5
2835.45	25
2836.31	19.5
2837.17	26.5
2838.03	24
2838.89	27.5
2839.75	24.5
2840.61	25
2841.47	28.5
2842.33	26.5
2843.19	24
2844.05	23
2844.91	20.5
2845.77	26
2846.63	25
2847.48	29.5
2848.34	29
2849.2	24
2850.06	26.5
2850.92	26
2851.78	23.5
2852.64	25
2853.49	22.5
2854.35	24.5
2855.21	25
2856.07	30.5
2856.93	24
2857.78	25.5
2858.64	26
2859.5	25.5
2860.35	23.5
2861.21	25
2862.07	22.5
2862.93	26
2863.78	29
2864.64	26
2865.49	22
2866.35	26
2867.21	26.5
2868.06	28
2868.92	21.5
2869.77	27.5
2870.63	23.5
2871.49	30.5
2872.34	24.5
2873.2	26
2874.05	28
2874.91	28
2875.76	26.5
2876.62	23.5
2877.47	30.5
2878.32	28.5
2879.18	29
2880.03	31
2880.89	31
2881.74	29
2882.6	29
2883.45	28.5
2884.3	31
2885.16	33
2886.01	32
2886.86	28
2887.72	30
2888.57	31.5
2889.42	30
2890.27	34.5
2891.13	31
2891.98	39.5
2892.83	35
2893.68	35.5
2894.54	42
2895.39	37
2896.24	40
2897.09	46.5
2897.94	40.5
2898.8	43
2899.65	44
2900.5	47
2901.35	49.5
2902.2	48
2903.05	51
2903.9	55.5
2904.75	44.5
2905.6	51
2906.45	55
2907.3	56
2908.15	56
2909.01	47
2909.85	50.5
2910.7	47.5
2911.55	47
2912.4	42
2913.25	42
2914.1	40
2914.95	43
2915.8	37
2916.65	40
2917.5	33.5
2918.35	32
2919.2	36.5
2920.04	35
2920.89	33.5
2921.74	31.5
2922.59	30
2923.44	31.5
2924.29	28.5
2925.13	28
2925.98	29
2926.83	31.5
2927.68	26
2928.52	28
2929.37	29
2930.22	26
2931.06	27.5
2931.91	26.5
2932.76	24
2933.6	31.5
2934.45	28
2935.3	28.5
2936.14	27.5
2936.99	27
2937.83	23.5
2938.68	26
2939.53	23
2940.37	27
2941.22	23.5
2942.06	26.5
2942.91	26
2943.75	27
2944.6	24.5
2945.44	27.5
2946.29	28
2947.13	29.5
2947.98	29.5
2948.82	29
2949.66	27
2950.51	31.5
2951.35	29
2952.2	31
2953.04	26.5
2953.88	30
2954.73	30
2955.57	30
2956.41	31.5
2957.26	30
2958.1	36.5
2958.94	34.5
2959.79	34.5
2960.63	33.5
2961.47	33
2962.31	34
2963.15	37.5
2964	39
2964.84	35.5
2965.68	29
2966.52	39
2967.37	32.5
2968.21	36
2969.05	36.5
2969.89	39.5
2970.73	33
2971.57	31.9976
2972.41	28.9771
2973.25	31.489
2974.09	32.8579
2974.93	28.0413
2975.77	26.1838
2976.62	33.303
2977.46	27.0003
2978.3	31.5103
2979.14	27.7757
2979.98	25.5438
2980.81	29.8386
2981.65	26.4952
2982.49	26
2983.33	29.4197
2984.17	27.4882
2985.01	27.7309
2985.85	26.8083
2986.69	26.6611
2987.53	26.3605
2988.37	24.08
2989.21	26.3114
2990.04	26.2784
2990.88	26.8876
2991.72	23.2636
2992.56	24.6561
2993.4	25.3568
2994.23	23.1498
2995.07	27.0823
2995.91	27.6079
2996.75	24.5195
2997.58	24.1891
2998.42	23.3295
2999.26	24.2818
3000.1	24.5723
3000.93	25.7929
3001.77	23.4538
3002.61	25.4742
3003.44	24.3142
3004.28	23.5413
3005.11	23.488
3005.95	24.4927
3006.79	22.8481
3007.62	22.2011
3008.46	26.4308
3009.29	23.9913
3010.13	23.1788
3010.97	22.4751
3011.8	19.4546
3012.64	23.5489
3013.47	23.9195
3014.31	24.3615
3015.14	23.3092
3015.98	22.8743
3016.81	22.2982
3017.64	20.7699
3018.48	19.9136
3019.31	20.7388
3020.15	24.2631
3020.98	21.6559
3021.82	22.1724
3022.65	23.3457
3023.48	23.9044
3024.32	21.9444
3025.15	21.3131
3025.98	22.9591
3026.82	21.5429
3027.65	24.0068
3028.48	23.234
3029.31	23.1951
3030.15	22.11
3030.98	24.8091
3031.81	24.887
3032.64	21.6284
3033.48	22.7663
3034.31	24.7068
3035.14	23.4529
3035.97	22.6918
3036.8	24.7379
3037.64	22.6906
3038.47	22.5418
3039.3	25.5257
3040.13	26.1579
3040.96	23.0145
3041.79	24.2285
3042.62	24.3766
3043.45	22.5048
3044.28	22.8193
3045.12	23.4069
3045.95	22.3853
3046.78	23.6151
3047.61	23.2233
3048.44	25.1496
3049.27	26.3464
3050.1	21.64
3050.92	20.1223
3051.75	23.0154
3052.58	24.0761
3053.41	23.5946
3054.24	22.7354
3055.07	21.0078
3055.9	22.9135
3056.73	24.2291
3057.26	25.5
3058.09	17.5
3058.93	23
3059.76	20.5
3060.59	22
3061.43	23
3062.26	20
3063.09	25.5
3063.92	29
3064.76	27
3065.59	30
3066.42	20
3067.25	27.5
3068.08	21
3068.92	24.5
3069.75	22.5
3070.58	25
3071.41	24
3072.24	25.5
3073.07	25
3073.9	24
3074.73	23
3075.57	26
3076.4	23
3077.23	22
3078.06	24
3078.89	24
3079.72	22
3080.55	23
3081.38	25
3082.21	28
3083.04	21.5
3083.87	24
3084.7	23.5
3085.53	22
3086.36	21.5
3087.19	24
3088.01	23.5
3088.84	21.5
3089.67	27
3090.5	28
3091.33	24
3092.16	24
3092.99	24.5
3093.81	22
3094.64	22.5
3095.47	21
3096.3	24.5
3097.13	25
3097.95	24
3098.78	22.5
3099.61	24.5
3100.44	24.5
3101.26	21.5
3102.09	24
3102.92	22.5
3103.74	26
3104.57	24
3105.4	23.5
3106.22	24.5
3107.05	21
3107.88	26
3108.7	19.5
3109.53	25
3110.35	20
3111.18	23
3112.01	20.5
3112.83	24
3113.66	25.5
3114.48	25
3115.31	25
3116.13	26.5
3116.96	23
3117.78	26
3118.61	22
3119.43	24.5
3120.26	25
3121.08	23
3121.9	24
3122.73	26
3123.55	25.5
3124.38	23
3125.2	24
3126.02	25
3126.85	20
3127.67	26.5
3128.49	21
3129.32	25
3130.14	23
3130.96	23
3131.79	20
3132.61	25
3133.43	24.5
3134.25	22.5
3135.08	24
3135.9	22.5
3136.72	24
3137.54	23.5
3138.37	25
3139.19	23
3140.01	26
3140.83	26.5
3141.65	29
3142.47	26.5
3143.29	25
3144.12	26
3144.94	23.5
3145.76	24
3146.58	23.5
3147.4	24
3148.22	25
3149.04	25
3149.86	26
3150.68	26
3151.5	26.5
3152.32	26
3153.14	24.5
3153.96	23.5
3154.78	26
3155.6	23
3156.42	23
3157.24	27
3158.06	24.5
3158.88	25.5
3159.7	22
3160.51	25.5
3161.33	21.5
3162.15	24
3162.97	24
3163.79	26
3164.61	23
3165.42	24.5
3166.24	26.5
3167.06	25.5
3167.88	25
3168.7	26
3169.51	22.5
3170.33	24
3171.15	22
3171.97	25
3172.78	22.5
3173.6	24.5
3174.42	20.5
3175.23	23
3176.05	18.5
3176.87	22
3177.68	21
3178.5	23
3179.32	20
3180.13	23
3180.95	25
3181.76	24.5
3182.58	24
3183.4	22.5
3184.21	23
3185.03	20.5
3185.84	23
3186.66	23.5
3187.47	22.5
3188.29	24.5
3189.1	19
3189.92	26.5
3190.73	22.5
3191.55	24
3192.36	23
3193.17	24.5
3193.99	24
3194.8	22
3195.62	25.5
3196.43	23.5
3197.24	23
3198.06	27
3198.87	26
3199.68	26
3200.5	21.5
3201.31	26.5
3202.12	24
3202.94	23
3203.75	25
3204.56	30
3205.38	21.5
3206.19	23
3207	24.5
3207.81	22.5
3208.62	22
3209.44	23
3210.25	21
3211.06	25
3211.87	25
3212.68	27
3213.49	23
3214.31	21.5
3215.12	21
3215.93	23
3216.74	25
3217.55	24
3218.36	22
3219.17	20.5
3219.98	23.5
3220.79	23
3221.6	23
3222.41	23
3223.22	25
3224.03	27
3224.84	21
3225.65	21.5
3226.46	23
3227.27	22.5
3228.08	26.5
3228.89	28
3229.7	23
3230.51	24
3231.32	26
3232.13	28.5
3232.94	25
3233.74	26.5
3234.55	24.5
3235.36	25.5
3236.17	24.5
3236.98	25
3237.78	26
3238.59	25
3239.4	22.5
3240.21	25
3241.02	30
3241.82	25
3242.63	26.5
3243.44	25.5
3244.25	26
3245.05	25.5
3245.86	25
3246.67	24
3247.47	21.5
3248.28	23.5
3249.09	25.5
3249.89	21.5
3250.7	28.5
3251.5	25
3252.31	20
3253.12	25.5
3253.92	22.5
3254.73	24.5
3255.53	23
3256.34	24.5
3257.14	24
3257.95	18
3258.75	25.5
3259.56	25.5
3260.36	18.5
3261.17	22
3261.97	25
3262.78	24
3263.58	21
3264.39	22.5
3265.19	23.5
3265.99	26.5
3266.8	23
3267.6	27.5
3268.41	27
3269.21	21
3270.01	26
3270.82	23
3271.62	22
3272.42	22
3273.23	24
3274.03	25.5
3274.83	21.5
3275.64	27
3276.44	25
3277.24	26.5
3278.04	24.5
3278.85	26.5
3279.65	24.5
3280.45	23.5
3281.25	25
3282.05	22.5
3282.85	25
3283.66	30
3284.46	27
3285.26	25.5
3286.06	27
3286.86	22
3287.66	24
3288.46	25
3289.27	24
3290.07	27.5
3290.87	27
3291.67	23
3292.47	22.5
3293.27	26
3294.07	17
3294.87	24
3295.67	23.5
3296.47	25
3297.27	24
3298.07	25
3298.87	27
3299.67	26.5
3300.47	21
3301.26	26
3302.06	21
3302.86	25
3303.66	26
3304.46	27.5
3305.26	27
3306.06	29
3306.86	24
3307.65	23.5
3308.45	24.5
3309.25	24.5
3310.05	23.5
3310.85	27
3311.64	25.5
3312.44	24.5
3313.24	24
3314.04	24.5
3314.83	29.5
3315.63	20.5
3316.43	22.5
3317.22	22
3318.02	22.5
3318.82	25.5
3319.62	22
3320.41	24
3321.21	21
3322	24
3322.8	25.5
3323.6	19.5
3324.39	25.5
3325.19	25
3325.98	24.5
3326.78	26.5
3327.58	24.5
3328.37	24.5
3329.17	27
3329.96	26.5
3330.76	22
3331.55	24
3332.35	23
3333.14	29
3333.94	24
3334.73	26
3335.52	21
3336.32	27
3337.11	23
3337.91	24.5
3338.7	26.5
3339.5	22
3340.29	26.5
3341.08	25
3341.88	26
3342.67	25
3343.46	22.5
3344.26	24
3345.05	22.5
3345.84	26.5
3346.63	24.5
3347.43	20
3348.22	27
3349.01	24
3349.8	24.5
3350.6	23.5
3351.39	27
3352.18	22.5
3352.97	23
3353.77	26.5
3354.56	26.5
3355.35	19.5
3356.14	26.5
3356.93	26.5
3357.72	22
3358.51	20
3359.31	23.5
3360.1	23
3360.89	24.5
3361.68	25.5
3362.47	26
3363.26	27.5
3364.05	21.5
3364.84	25
3365.63	27
3366.42	27
3367.21	24.5
3368	25.5
3368.79	23.5
3369.58	27
3370.37	25.5
3371.16	26
3371.95	22
3372.74	22.5
3373.53	28
3374.32	23.5
3375.1	26.5
3375.89	24
3376.68	22
3377.47	24.5
3378.26	23.5
3379.05	28
3379.84	23.5
3380.62	24
3381.41	26
3382.2	24
3382.99	27.5
3383.78	25.5
3384.56	21
3385.35	27
3386.14	22.5
3386.93	24
3387.71	24
3388.5	23
3389.29	27.5
3390.07	25.5
3390.86	24.5
3391.65	21
3392.43	27
3393.22	24.5
3394.01	22
3394.79	25
3395.58	25.5
3396.36	26.5
3397.15	27
3397.94	25
3398.72	23.5
3399.51	24
3400.29	25
3401.08	25
3401.86	27
3402.65	23
3403.43	26
3404.22	27
3405	24.5
3405.79	26
3406.57	28
3407.36	21.5
3408.14	22
3408.93	20
3409.71	24
3410.49	26
3411.28	26
3412.06	22
3412.84	25
3413.63	22
3414.41	20.5
3415.2	22.5
3415.98	26.5
3416.76	24
3417.54	25
3418.33	20
3419.11	28.5
3419.89	26
3420.68	28
3421.46	27.5
3422.24	22
3423.02	25
3423.81	22
3424.59	24.5
3425.37	25
3426.15	28
3426.93	23
3427.71	22
3428.5	22.5
3429.28	23.5
3430.06	20.5
3430.84	24
3431.62	23
3432.4	24
3433.18	22
3433.96	26
3434.75	26
3435.53	25.5
3436.31	23.5
3437.09	26.5
3437.87	26
3438.65	24.5
3439.43	24.5
3440.21	24
3440.99	23.5
3441.77	24
3442.55	25
3443.33	22
3444.1	24.5
3444.88	23
3445.66	25
3446.44	17.5
3447.22	27
3448	24.5
3448.78	20.5
3449.56	25
3450.34	26.5
3451.11	23.5
3451.89	22.5
3452.67	24.5
3453.45	27.5
3454.23	25
3455	26
3455.78	24.5
3456.56	23.5
3457.34	23
3458.11	23.5
3458.89	21
3459.67	23
3460.45	25
3461.22	25
3462	25
3462.78	23.5
3463.55	27
3464.33	27.5
3465.11	21.5
3465.88	24
3466.66	26
3467.44	22
3468.21	25.5
3468.99	24
3469.76	18
3470.54	24.5
3471.32	23
3472.09	24
3472.87	21
3473.64	23
3474.42	25
3475.19	22.5
3475.97	24.5
3476.74	24.5
3477.52	27.5
3478.29	22.5
3479.07	26.5
3479.84	27.5
3480.61	26
3481.39	29
3482.16	24.5
3482.94	26
3483.71	26
3484.48	23
3485.26	23
3486.03	21
3486.81	24
3487.58	28
3488.35	24
3489.13	23
3489.9	27
3490.67	24
3491.44	27
3492.22	20.5
3492.99	26.5
3493.76	22
3494.54	23.5
3495.31	25
3496.08	24
3496.85	24
3497.62	27.5
3498.4	24.5
3499.17	22.5
3499.94	23.5
