#Acq. time (s)=	5
#Accumulations=	5
#Range (cm-¹)=	100...3500
#Windows=	4
#Autofocus=	Off
#AutoExposure=	Off
#Spike filter=	Multiple accum.
#Delay time (s)=	0
#Binning=	1
#Readout mode=	Signal
#DeNoise=	Off
#ICS correction=	Off
#Dark correction=	Off
#Inst. Process=	Off
#Instrument=	LabRAM HR Evol
#Detector=	Syncerity OE
#Objective=	x100_VIS
#Grating=	600 (500nm)
#ND Filter=	25%
#Laser=	633nm_Edge
#Hole=	100.021
#Range=	Visible
#Project=	verificaciones
#Sample=	at4
#Site=	plain
#Title=	bolusat4plain
#Remark=	com
#Date=	16.01.2026 17:34
#Acquired=	16.01.2026 17:34:36
100.564	22
101.847	27
103.131	33.5
104.414	29.5
105.697	27
106.979	25
108.262	25.5
109.544	26.5
110.826	23.5
112.109	26
113.391	32.5
114.672	24
115.954	25.5
117.235	31
118.515	24.5
119.796	27.5
121.076	30
122.357	27
123.637	25.5
124.916	27
126.196	27
127.475	26.5
128.754	29
130.033	29
131.31	27.5
132.589	34
133.867	29.5
135.145	30
136.423	29.5
137.701	32.5
138.978	28
140.256	29
141.533	26
142.809	28
144.086	34
145.361	27.5
146.637	31.5
147.913	26
149.189	33.5
150.464	31.5
151.74	31
153.014	29.5
154.288	29.5
155.563	27.5
156.838	32
158.112	33.5
159.385	28.5
160.659	34
161.932	32
163.206	26.5
164.479	29.5
165.751	31
167.024	31
168.296	27.5
169.567	29
170.84	32
172.112	28
173.383	29
174.654	29.5
175.925	29.5
177.196	30
178.466	32
179.737	28.5
181.007	29.5
182.276	31
183.546	33
184.816	29.5
186.085	33
187.354	30.5
188.624	30
189.891	27
191.16	29.5
192.427	28
193.696	34
194.964	31
196.231	30
197.499	28
198.765	30.5
200.033	28
201.298	31
202.566	30.5
203.831	28
205.098	28.5
206.363	26
207.629	31.5
208.894	23
210.159	29
211.424	30.5
212.689	31
213.953	31.5
215.218	30.5
216.481	28
217.746	27.5
219.009	28.5
220.273	30
221.536	26
222.798	28
224.062	29
225.323	24
226.587	24
227.848	32.5
229.109	23
230.372	26
231.633	25.5
232.894	31
234.156	25
235.416	27
236.678	28.5
237.937	22
239.197	20.5
240.457	31
241.717	25.5
242.976	28
244.235	26
245.495	29
246.754	26
248.012	28
249.27	25
250.529	29.5
251.787	27
253.045	26
254.302	24
255.56	29
256.817	26
258.074	23
259.33	22
260.586	27.5
261.844	29
263.1	27
264.355	23.5
265.611	27.5
266.866	27
268.121	25
269.377	27.5
270.632	30
271.886	27.5
273.14	26
274.394	29
275.648	29.5
276.902	29
278.155	27
279.408	25
280.663	26.5
281.915	25.5
283.168	28
284.42	27.5
285.673	26
286.925	27.5
288.176	27
289.428	29.5
290.679	23.5
291.93	23.5
293.181	24.5
294.432	25
295.683	26.5
296.933	28.5
298.183	27.5
299.433	25.5
300.683	24.5
301.932	27
303.182	27.5
304.429	28.5
305.678	25
306.927	27
308.176	26
309.424	25.5
310.672	21.5
311.92	28.5
313.168	25.5
314.415	28
315.661	25
316.908	29.5
318.155	26
319.402	31
320.648	26
321.895	27.5
323.139	24.5
324.385	31
325.631	28
326.877	26.5
328.122	25.5
329.366	28
330.611	26
331.855	25.5
333.1	27.5
334.343	24.5
335.587	28
336.831	28.5
338.074	28
339.317	24
340.56	28
341.803	29.5
343.044	27
344.287	24.5
345.53	30
346.771	21.5
348.013	25.5
349.255	26.5
350.495	26
351.736	28
352.978	27
354.217	29.5
355.458	22
356.699	24.5
357.938	23
359.178	25.5
360.417	26
361.657	29.5
362.895	25.5
364.135	27.5
365.374	27
366.612	25.5
367.851	26
369.088	22
370.327	27.5
371.564	27
372.802	26
374.038	28
375.276	28
376.512	27.5
377.749	26
378.985	25.5
380.222	25
381.457	26
382.692	28
383.929	25
385.164	26
386.4	28
387.634	29
388.869	25
390.103	23
391.337	26
392.572	21.5
393.805	25.5
395.038	26
396.273	29
397.506	27
398.74	26
399.972	29
401.204	26.5
402.437	27
403.669	27.5
404.901	27
406.132	25.5
407.365	27
408.596	31
409.826	24
411.058	27.5
412.289	28
413.519	29.5
414.749	22
415.98	27.5
417.21	30
418.439	26.5
419.668	25
420.897	27
422.128	26.5
423.356	28
424.585	29
425.813	26
427.041	26
428.269	27
429.498	28.5
430.725	29
431.952	30.5
433.179	28.5
434.406	27.5
435.633	28
436.859	27
438.085	28
439.312	28.5
440.537	30.5
441.764	25
442.99	24.5
444.215	27.5
445.44	25
446.665	25
447.89	27
449.114	29
450.339	28.5
451.563	26.5
452.787	28.5
454.01	24.5
455.234	27
456.457	25
457.68	25.5
458.903	28
460.126	26
461.348	26.5
462.569	24
463.792	29.5
465.013	26
466.235	27.5
467.457	23.5
468.678	28
469.899	29
471.12	27
472.341	31.5
473.56	29
474.781	31
476.001	28
477.221	32
478.441	30.5
479.66	33.5
480.878	31
482.098	32.5
483.317	36
484.535	39
485.754	37
486.971	36
488.189	37
489.407	37
490.625	39
491.842	34
493.059	36.5
494.276	37
495.493	33.5
496.709	33
497.926	35.5
499.142	33.5
500.357	33
501.573	34
502.789	28
504.003	35
505.219	26
506.434	32
507.648	29.5
508.863	26
510.078	27.5
511.291	30.5
512.505	26.5
513.718	30.5
514.932	30
516.145	31.5
517.358	31
518.572	26
519.783	26.5
520.997	28.5
522.208	31
523.421	26.5
524.632	35
525.844	27.5
527.055	25
528.266	27.5
529.477	24
530.688	28
531.898	28
533.109	27
534.319	28
535.53	26
536.739	27
537.948	24
539.158	27
540.366	29.5
541.576	28.5
542.784	26.5
543.994	28
545.201	28.5
546.409	25
547.618	26
548.825	26
550.032	27.5
551.24	26
552.447	25
553.654	29.5
554.861	27.5
556.067	28
557.273	28
558.48	27
559.686	25.5
560.891	25.5
562.096	30
563.302	27.5
564.507	28
565.712	25.5
566.916	26
568.122	24
569.326	26
570.529	25
571.733	30
572.936	26.5
574.141	28
575.344	26.5
576.547	22
577.75	21
578.952	23.5
580.154	26
581.358	26
582.56	28.5
583.761	29
584.963	29
586.164	29
587.365	26
588.566	24.5
589.767	26
590.967	32
592.168	28
593.369	30
594.569	31
595.769	29.5
596.969	26.5
598.168	23.5
599.367	26.5
600.566	26
601.765	25.5
602.964	26.5
604.162	27.5
605.361	30
606.559	24.5
607.757	32
608.953	30.5
610.151	28
611.348	24.5
612.545	24.5
613.742	28
614.939	30
616.135	29
617.332	26.5
618.528	23.5
619.724	27.5
620.918	29
622.114	24
623.309	25
624.505	30.5
625.7	26.5
626.895	27
628.088	26.5
629.282	27.5
630.477	31
631.671	26.5
632.865	27.5
634.057	27
635.251	31.5
636.444	30.5
637.637	25.5
638.829	26.5
640.022	26.5
641.214	27
642.407	28
643.598	27
644.79	27.5
645.982	25
647.172	30
648.364	27
649.555	25.5
650.745	28
651.936	26.5
653.126	27
654.315	32.5
655.506	26
656.696	29.5
657.885	26
659.074	27.5
660.263	25.5
661.452	26.5
662.64	27.5
663.829	31
665.018	28
666.205	30
667.394	29
668.581	29
669.769	26
670.955	26
672.143	31
673.329	28.5
674.517	29.5
675.703	27
676.89	29
678.075	27
679.262	31
680.447	30
681.632	26.5
682.818	26
684.002	30
685.188	31
686.372	28.5
687.556	28.5
688.741	31
689.925	27.5
691.11	32
692.293	30
693.476	27
694.66	31.5
695.843	31.5
697.025	29.5
698.209	29.5
699.391	29.5
700.573	33
701.756	33
702.938	32.5
704.119	31.5
705.3	35.5
706.483	28
707.664	33
708.844	36.5
710.025	32.5
711.206	32.5
712.386	31.5
713.566	34.5
714.746	24
715.925	28
717.106	27.5
718.285	22
719.464	27
720.643	27.5
721.822	28
723	23
724.178	31
725.358	32.5
726.536	27
727.713	29.5
728.891	27.5
730.068	24
731.245	28
732.422	24
733.599	26
734.775	29
735.952	26.5
737.128	26
738.304	32.5
739.48	25.5
740.656	28
741.831	24.5
743.006	27
744.181	27.5
745.356	28
746.531	29
747.706	29.5
748.88	29
750.054	27
751.228	27
752.402	23
753.576	29
754.749	28.5
755.922	28
757.095	28
758.267	25
759.44	28
760.612	26
761.785	22.5
762.957	29
764.129	33
765.301	30.5
766.471	25
767.642	25
768.814	25
769.985	26
771.156	24.5
772.325	26.5
773.495	28
774.666	24.5
775.836	28.5
777.005	22
778.174	29.5
779.344	27
780.513	29
781.681	27
782.85	27
784.019	26.5
785.187	33
786.355	27.5
787.523	27.5
788.69	25.5
789.858	29.5
791.026	26
792.192	27
793.36	29.5
794.526	31.5
795.693	25
796.86	25
798.025	27.5
799.191	28.5
800.356	29
801.523	25.5
802.689	27.5
803.853	23.5
805.019	27
806.183	26
807.348	28
808.512	30
809.677	23.5
810.84	27
812.005	29.5
813.167	32
814.332	28
815.494	29
816.657	27
817.82	27
818.982	30
820.146	21
821.307	28
822.47	29.5
823.632	26.5
824.793	28
825.955	28
827.116	25.5
828.277	28.5
829.439	28
830.599	25
831.759	27.5
832.92	28
834.08	25
835.24	26
836.4	25
837.56	27
838.719	25.5
839.877	26.5
841.037	26
842.196	29
843.354	26
844.512	27
845.672	26.5
846.83	25
847.987	25
849.145	29.5
850.302	25
851.46	24.5
852.617	27.5
853.774	25
854.93	23
856.087	25
857.243	25.5
858.4	26
859.556	28
860.712	26.5
861.867	28
863.022	29.5
864.177	26
865.332	24
866.487	27.5
867.642	27.5
868.796	30.5
869.95	25.5
871.104	27
872.258	27
873.412	30
874.565	33
875.718	28
876.872	30
878.024	29
879.177	28
880.33	24.5
881.482	28.5
882.635	27
883.787	25.5
884.938	28.5
886.09	23.5
887.242	24.5
888.393	26.5
889.544	27.5
890.695	31.5
891.845	28.5
892.995	30.5
894.146	26.5
895.296	22.5
896.446	26
897.596	31.5
898.744	27.5
899.894	25
901.043	27
902.193	26
903.342	23
904.489	28.5
905.638	24
906.786	24
907.935	24
909.081	24
910.229	27.5
911.377	25
912.525	25
913.671	26
914.818	27
915.965	24.5
917.111	27
918.258	26.5
919.404	23.5
920.549	25
921.695	27
922.84	26
923.986	25.5
925.132	24.5
926.276	27
927.421	24.5
928.565	26.5
929.71	28
930.855	22.5
931.998	28.5
933.142	27
934.285	29
935.429	23.5
936.572	27
937.716	25.5
938.858	23.5
940.001	25
941.143	26.5
942.286	25
943.428	24.5
944.57	27.5
945.712	27.5
946.854	29
947.995	26
949.135	28.5
950.277	24
951.418	23.5
952.559	25.5
953.699	19
954.839	25
955.98	26.5
957.119	23.5
958.258	25
959.399	27.5
960.538	24
961.676	22
962.816	21.5
963.955	30.5
965.093	26.5
966.232	25
967.37	29
968.508	31
969.645	28
970.784	27.75
971.921	27
973.058	23
974.195	18
975.333	27
976.469	25
977.605	30
978.741	25
979.877	25
981.013	24
982.15	29.5
983.285	29
984.421	26.5
985.556	25
986.691	26
987.825	24
988.96	22
990.094	24.5
991.228	25
992.364	25
993.497	27
994.631	26.5
995.765	26
996.898	27
998.031	25
999.164	23
1000.3	21
1001.43	23
1002.56	27
1003.69	25.5
1004.83	27
1005.96	24.5
1007.09	25
1008.22	29
1009.35	23
1010.48	25
1011.61	24
1012.74	28
1013.88	29.5
1015.01	24.5
1016.14	24.5
1017.27	28
1018.4	20.5
1019.53	26
1020.65	27
1021.78	24.5
1022.91	25.5
1024.04	30.5
1025.17	26.5
1026.3	26
1027.43	26
1028.56	25
1029.68	25
1030.81	25.5
1031.94	24
1033.07	27
1034.19	28
1035.32	25
1036.45	23.5
1037.58	25
1038.7	25.5
1039.83	28
1040.95	25.5
1042.08	26.5
1043.21	24
1044.33	23
1045.46	27.5
1046.58	26
1047.71	25.5
1048.83	28
1049.96	24
1051.08	27.5
1052.21	23
1053.33	26.5
1054.45	24
1055.58	23.5
1056.7	26
1057.82	23
1058.95	25
1060.07	21.5
1061.19	29
1062.32	26
1063.44	29
1064.56	27.5
1065.68	24.5
1066.81	24.5
1067.93	27
1069.05	29.5
1070.17	24.5
1071.29	26
1072.41	23
1073.53	24
1074.65	26.5
1075.77	24.5
1076.89	28
1078.01	25
1079.13	23.5
1080.25	24
1081.37	23
1082.49	27.5
1083.61	26
1084.73	24
1085.85	24
1086.97	26
1088.09	24
1089.2	24
1090.32	27
1091.44	25.5
1092.56	21
1093.68	29.5
1094.79	22
1095.91	26.5
1097.03	23
1098.14	28
1099.26	23
1100.38	23
1101.49	24.5
1102.61	20
1103.73	21.5
1104.84	26
1105.96	25
1107.07	27
1108.19	25
1109.3	26.5
1110.42	25
1111.53	27
1112.65	24
1113.76	22.5
1114.88	23.5
1115.99	25.5
1117.1	26.5
1118.22	24.5
1119.33	25.5
1120.44	23.5
1121.56	25
1122.67	22
1123.78	26
1124.89	24
1126.01	26
1127.12	26
1128.23	24.5
1129.34	25.5
1130.45	22.5
1131.56	26
1132.67	24.5
1133.79	23
1134.9	28.5
1136.01	21.5
1137.12	22.5
1138.23	26.5
1139.34	24
1140.45	25
1141.56	23.5
1142.67	26.5
1143.78	29
1144.89	27.5
1145.99	26
1147.1	24.5
1148.21	23
1149.32	27
1150.43	22.5
1151.54	27.5
1152.65	23
1153.75	21
1154.86	24
1155.97	20
1157.08	27.5
1158.18	28
1159.29	22.5
1160.4	23.5
1161.5	26
1162.61	21.5
1163.72	26
1164.82	26.5
1165.93	22
1167.03	25
1168.14	27
1169.24	23
1170.35	23
1171.45	22.5
1172.56	25.5
1173.66	25
1174.77	23
1175.87	26.5
1176.98	23
1178.08	20
1179.18	26.5
1180.29	25.5
1181.39	24
1182.49	26.5
1183.6	22.5
1184.7	24.5
1185.8	23
1186.9	23
1188	26.5
1189.11	24
1190.21	23.5
1191.31	27
1192.41	24.5
1193.51	21
1194.61	25.5002
1195.72	27.9317
1196.82	22.1626
1197.92	24.0791
1199.02	27.8496
1200.12	21.4818
1201.22	22.516
1202.32	24.0517
1203.42	25.1809
1204.52	19.8671
1205.62	22.6997
1206.71	23.09
1207.81	21.9524
1208.91	23
1210.01	24.7006
1211.11	23.5789
1212.21	21.5777
1213.31	23.5659
1214.4	21.3632
1215.5	22.2619
1216.6	20.5306
1217.7	19.0409
1218.79	24.5305
1219.89	21.1708
1220.99	21.6449
1222.08	22.8863
1223.18	23.7397
1224.28	22.4668
1225.37	24.2209
1226.47	24.1408
1227.56	23.2982
1228.66	22.0205
1229.76	24.7639
1230.85	24.5924
1231.95	24.221
1233.04	26.9286
1234.14	22.907
1235.23	26.0437
1236.32	23.8131
1237.42	21.0022
1238.51	23.9556
1239.61	22.9865
1240.7	23.5874
1241.79	24.9353
1242.89	24.3772
1243.98	25.1652
1245.07	24.4532
1246.17	22.0092
1247.26	25.5583
1248.35	25.0194
1249.44	26.4302
1250.53	21.9423
1251.63	23.6464
1252.72	22.6562
1253.81	21.3577
1254.9	24.5524
1255.99	25.9029
1257.08	23.7887
1258.17	24.2112
1259.27	22.1679
1260.36	22.8825
1261.45	25.9022
1262.54	25.8034
1263.63	27.0195
1264.72	23.8143
1265.81	24.5922
1266.89	23.3228
1267.98	25.0627
1269.07	26.6028
1270.16	24.6933
1271.25	24.3194
1272.34	21.0266
1273.43	24.2889
1274.52	23.1107
1275.6	23.8411
1276.69	23.904
1277.78	23.8958
1278.87	22.1238
1279.95	23.623
1281.04	24.4027
1282.13	24.6092
1283.22	23.4147
1284.3	24.4722
1285.39	25
1286.48	23.2731
1287.56	25.1273
1288.65	25.3798
1289.73	25.7254
1290.82	25.1553
1291.9	22.4824
1292.99	23.8141
1294.07	23.3613
1295.16	26.3544
1296.24	24.9434
1297.33	26.254
1298.41	24.0786
1299.5	20.3886
1300.58	22.1284
1301.66	22.0027
1302.75	23.6097
1303.83	26.2808
1304.91	25.069
1306	23.0457
1306.4	22.5
1307.48	21.5
1308.57	23.5
1309.66	24
1310.75	24.5
1311.84	20
1312.92	21
1314.01	21.5
1315.1	22.5
1316.18	27
1317.27	20
1318.36	24.5
1319.44	20
1320.53	21
1321.62	24.5
1322.7	23.5
1323.79	23.5
1324.87	24.5
1325.96	24
1327.04	23.5
1328.13	22.5
1329.21	23.5
1330.3	18.5
1331.38	21
1332.47	22
1333.55	25.5
1334.64	24.5
1335.72	22.5
1336.8	25
1337.89	23.5
1338.97	29
1340.05	19
1341.14	22.5
1342.22	26
1343.3	22.5
1344.38	25
1345.47	23
1346.55	23.5
1347.63	24.5
1348.71	22
1349.79	27.5
1350.87	24
1351.96	26
1353.04	25.5
1354.12	24.5
1355.2	23
1356.28	26.5
1357.36	25
1358.44	20.5
1359.52	23
1360.6	26.5
1361.68	24
1362.76	23
1363.84	23.5
1364.92	29
1366	24.5
1367.07	25.5
1368.15	22
1369.23	26.5
1370.31	23.5
1371.39	26
1372.47	25.5
1373.54	25.5
1374.62	24
1375.7	27
1376.78	23
1377.85	21
1378.93	27
1380.01	27
1381.08	25
1382.16	24
1383.24	21.5
1384.31	19.5
1385.39	24
1386.46	22.5
1387.54	20
1388.61	21
1389.69	23.5
1390.76	25
1391.84	25
1392.91	23
1393.99	25
1395.06	27
1396.14	26.5
1397.21	26.5
1398.29	26.5
1399.36	26.5
1400.43	24.5
1401.51	25
1402.58	28.5
1403.65	24
1404.72	24
1405.8	26
1406.87	26
1407.94	25
1409.02	31.5
1410.09	27
1411.16	25.5
1412.23	27
1413.3	25.5
1414.37	24.5
1415.44	25.5
1416.51	23
1417.59	26.5
1418.66	22.5
1419.73	24
1420.8	24.5
1421.87	22
1422.94	26
1424.01	26.5
1425.08	27.5
1426.15	25.5
1427.22	27
1428.28	24
1429.35	25
1430.42	26.5
1431.49	24.5
1432.56	26
1433.63	24
1434.7	25
1435.76	22
1436.83	22
1437.9	21
1438.97	22.5
1440.03	26.5
1441.1	26
1442.17	26
1443.23	24
1444.3	25
1445.37	18
1446.43	28
1447.5	23
1448.57	25.5
1449.63	22
1450.7	27.5
1451.76	27
1452.83	27
1453.89	26
1454.96	27.5
1456.02	21
1457.09	26
1458.15	26.5
1459.22	24
1460.28	25
1461.34	26.5
1462.41	24
1463.47	24
1464.53	21
1465.6	24
1466.66	25
1467.72	28.5
1468.78	26.5
1469.85	27
1470.91	25
1471.97	25
1473.03	26
1474.1	26
1475.16	26.5
1476.22	23.5
1477.28	23
1478.34	22
1479.4	23.5
1480.46	19
1481.52	25
1482.58	21
1483.65	27
1484.71	26.5
1485.77	25
1486.82	28
1487.89	26
1488.94	25
1490	23.5
1491.06	23
1492.12	21
1493.18	20.5
1494.24	24.5
1495.3	26
1496.36	25
1497.41	27.5
1498.47	24
1499.53	26.5
1500.59	25.5
1501.65	25
1502.7	27
1503.76	29.5
1504.82	25
1505.87	25
1506.93	25.5
1507.99	25.5
1509.04	26.5
1510.1	25
1511.16	23
1512.21	29
1513.27	25.5
1514.32	25
1515.38	27
1516.43	22.5
1517.49	20.5
1518.54	25.5
1519.6	25.5
1520.65	22
1521.71	23
1522.76	23
1523.81	23
1524.87	23
1525.92	23
1526.98	28
1528.03	25
1529.08	24
1530.14	25.5
1531.19	27.5
1532.24	22
1533.29	26
1534.35	25
1535.4	23
1536.45	25.5
1537.5	26.5
1538.55	22
1539.61	24
1540.66	22.5
1541.71	29.5
1542.76	22.5
1543.81	22.5
1544.86	23
1545.91	24.5
1546.96	23
1548.01	24.5
1549.06	22.5
1550.11	20
1551.16	26.5
1552.21	27.5
1553.26	27
1554.31	27
1555.36	25.5
1556.41	21
1557.46	28
1558.5	20
1559.55	26
1560.6	22
1561.65	25.5
1562.7	25
1563.74	24
1564.79	26.5
1565.84	22
1566.89	25
1567.93	29
1568.98	23.5
1570.03	25
1571.07	24.5
1572.12	25.5
1573.17	26
1574.21	24.5
1575.26	25
1576.3	24
1577.35	28.5
1578.4	23.5
1579.44	26
1580.49	27.5
1581.53	27
1582.58	24.5
1583.62	27.5
1584.66	26
1585.71	26
1586.75	23.5
1587.8	27.5
1588.84	22
1589.88	27.5
1590.93	23.5
1591.97	27.5
1593.01	24.5
1594.06	26
1595.1	27
1596.14	25
1597.18	24.5
1598.23	24.5
1599.27	26
1600.31	24.5
1601.35	26.5
1602.39	24
1603.44	20.5
1604.48	24
1605.52	21.5
1606.56	22
1607.6	24.5
1608.64	24.5
1609.68	23
1610.72	20
1611.76	26
1612.8	24
1613.84	19.5
1614.88	22
1615.92	27
1616.96	25
1618	23
1619.04	28
1620.08	26
1621.12	26.5
1622.16	26.5
1623.19	24.5
1624.23	25
1625.27	22
1626.31	23.5
1627.35	25.5
1628.38	26
1629.42	23.5
1630.46	28
1631.49	25
1632.53	23
1633.57	19.5
1634.6	28
1635.64	25
1636.68	26
1637.71	24
1638.75	22
1639.79	23
1640.82	25
1641.86	30.5
1642.89	26.5
1643.93	22.5
1644.96	25
1646	24
1647.03	25
1648.07	25
1649.1	29.5
1650.13	27
1651.17	26.5
1652.2	22
1653.24	26
1654.27	23
1655.3	20.5
1656.34	23.5
1657.37	25
1658.4	28
1659.43	28.5
1660.47	25
1661.5	22
1662.53	25.5
1663.56	24
1664.6	23
1665.63	25.5
1666.66	22
1667.69	27.5
1668.72	25
1669.75	23.5
1670.78	28.5
1671.81	25
1672.85	26.5
1673.88	21
1674.91	28
1675.94	27
1676.97	26.5
1678	26
1679.03	25.5
1680.06	23
1681.09	27
1682.11	23
1683.14	25.5
1684.17	22
1685.2	22
1686.23	21.5
1687.26	27.5
1688.29	26
1689.31	24.5
1690.34	29.5
1691.37	26
1692.4	25
1693.42	26
1694.45	22.5
1695.48	22
1696.51	25
1697.53	23
1698.56	24.5
1699.59	25.5
1700.61	23.5
1701.64	26
1702.66	23
1703.69	20.5
1704.72	24.5
1705.74	23
1706.77	23
1707.79	27.5
1708.82	23
1709.84	22
1710.87	24
1711.89	23
1712.91	25.5
1713.94	24.5
1714.96	22.5
1715.99	23.5
1717.01	26
1718.03	25.5
1719.06	26
1720.08	26
1721.1	24.5
1722.13	26.5
1723.15	25
1724.17	25
1725.19	31.5
1726.22	21.5
1727.24	27
1728.26	24
1729.28	30
1730.3	25.5
1731.33	26
1732.35	23.5
1733.37	24
1734.39	23
1735.41	29
1736.43	23
1737.45	18.5
1738.47	26
1739.49	24.5
1740.51	28.5
1741.53	26
1742.55	27
1743.57	26.5
1744.59	24
1745.61	26.5
1746.63	28
1747.65	27
1748.67	21
1749.69	25
1750.7	23.5
1751.72	24
1752.74	25.5
1753.76	22
1754.78	27.5
1755.79	25
1756.81	25
1757.83	23.5
1758.85	25.5
1759.86	23
1760.88	26
1761.9	27.5
1762.91	27
1763.93	26.5
1764.95	22
1765.96	24
1766.98	25
1767.99	26
1769.01	24
1770.02	26.5
1771.04	24
1772.06	26.5
1773.07	22
1774.09	26
1775.1	25
1776.11	28
1777.13	25
1778.14	27.5
1779.16	25
1780.17	22
1781.18	24.5
1782.2	26
1783.21	26.5
1784.22	23.5
1785.24	28
1786.25	26.5
1787.26	26
1788.28	23
1789.29	20
1790.3	24
1791.31	22.5
1792.33	23
1793.34	25
1794.35	22
1795.36	22
1796.37	25.5
1797.38	26
1798.39	23.5
1799.4	28
1800.42	26.5
1801.43	21
1802.44	27.5
1803.45	24
1804.46	26
1805.47	24.5
1806.48	23
1807.49	27.5
1808.5	24
1809.51	23.5
1810.51	27.5
1811.52	25
1812.53	27
1813.54	22.5
1814.55	21
1815.56	25.5
1816.57	26.5
1817.57	25
1818.58	27.5
1819.59	26.5
1820.6	24.5
1821.61	27
1822.61	23
1823.62	24
1824.63	26.5
1825.63	24.5
1826.64	26.5
1827.65	27
1828.65	22
1829.66	26.5
1830.67	25.5
1831.67	24.5
1832.68	23
1833.68	23
1834.69	23.5
1835.69	24.5
1836.7	22
1837.7	21
1838.71	25
1839.71	19
1840.72	24
1841.72	23.5
1842.73	25
1843.73	22
1844.73	25
1845.74	27
1846.74	23
1847.74	23
1848.75	22.5
1849.75	23
1850.75	27.5
1851.76	22
1852.76	22.5
1853.76	24
1854.76	27
1855.77	22
1856.77	26
1857.77	26
1858.77	23
1859.77	25.5
1860.77	22
1861.78	24.5
1862.78	24.5
1863.78	28
1864.78	22.5
1865.78	24
1866.78	22
1867.78	21.5
1868.78	24.5
1869.78	20.5
1870.78	25.5
1871.78	25.5
1872.78	25.5
1873.78	21.5
1874.78	20.5
1875.78	25.5
1876.78	21.5
1877.78	24
1878.77	20.5
1879.77	23
1880.77	25
1881.77	24.5
1882.77	27.5
1883.77	23
1884.76	21.5
1885.76	27
1886.76	25.5
1887.75	26.5
1888.75	21.5
1889.75	27.5
1890.75	18
1891.74	20
1892.74	24
1893.73	27
1894.73	24
1895.73	25
1896.72	25
1897.72	25.5
1898.71	25
1899.71	24
1900.7	23
1901.7	22.5
1902.69	26
1903.69	23.5
1904.68	20.5
1905.68	23.5
1906.67	24.5
1907.67	27.5
1908.66	24.5
1909.65	24.5
1910.65	24.5
1911.64	27.5
1912.63	24
1913.63	22
1914.62	22.5
1915.61	26
1916.61	25.5
1917.6	24.5
1918.59	24
1919.58	23.5
1920.58	27.5
1921.57	24.5
1922.56	26
1923.55	26
1924.54	24.5
1925.54	19.5
1926.53	24
1927.52	25.5
1928.51	23
1929.5	21.5
1930.49	27
1931.48	26
1932.47	24
1933.46	22.5
1934.45	25.5
1935.44	21
1936.43	25
1937.42	26.5
1938.41	27
1939.4	22
1940.39	23.5
1941.38	25.5
1942.37	26.5
1943.35	26.5
1944.34	29.5
1945.33	24
1946.32	25
1947.31	24.5
1948.3	22.5
1949.28	20
1950.27	24
1951.26	21.5
1952.25	27
1953.23	26
1954.22	22
1955.21	24.5
1956.19	24.5
1957.18	25
1958.17	23
1959.15	27.5
1960.14	25.5
1961.12	29
1962.11	22
1963.1	21
1964.08	25.5
1965.07	22.5
1966.05	25
1967.04	21.5
1968.02	20
1969.01	22.5
1969.99	24.5
1970.98	26.5
1971.96	26.5
1972.94	21
1973.93	23
1974.91	24
1975.9	19
1976.88	21
1977.86	25
1978.85	23
1979.83	24.5
1980.81	26.5
1981.79	20
1982.78	28.5
1983.76	23.5
1984.74	24.5
1985.72	23.5
1986.71	21.5
1987.69	24
1988.67	25.5
1989.65	21
1990.63	22
1991.61	23.5
1992.59	27.5
1993.57	23
1994.56	26
1995.54	25
1996.52	23
1997.5	24.5
1998.48	23.5
1999.46	22
2000.44	24
2001.42	22
2002.4	23.5
2003.38	26
2004.36	26
2005.33	24.5
2006.31	22
2007.29	24.5
2008.27	26
2009.25	21.5
2010.23	23
2011.21	22
2012.18	25.5
2013.16	23
2014.14	21.5
2015.12	25
2016.09	22
2017.07	25
2018.05	20.5
2019.03	25
2020	22
2020.98	27.5
2021.96	25.5
2022.93	29
2023.91	22.5
2024.89	23
2025.86	22.5
2026.84	24
2027.81	23
2028.79	23
2029.76	24
2030.74	25.5
2031.71	23.5
2032.69	24
2033.66	21.5
2034.64	23
2035.61	25
2036.59	23.5
2037.56	28
2038.54	21
2039.51	24
2040.48	23
2041.46	21.5
2042.43	21
2043.4	22
2044.38	20
2045.35	23.5
2046.32	23.5
2047.29	26.5
2048.27	22.5
2049.24	23
2050.21	24
2051.18	27.5
2052.16	20.5
2053.13	24
2054.1	22.5
2055.07	25.5
2056.04	22.5
2057.01	23.5
2057.98	20
2058.96	21.5
2059.93	21
2060.9	24.5
2061.87	22
2062.84	22.5
2063.81	22.5
2064.78	22.5
2065.75	24
2066.72	26.5
2067.69	26
2068.66	24.5
2069.63	21.5
2070.6	26
2071.56	23.5
2072.53	25.5
2073.5	25
2074.47	23.5
2075.44	23.5
2076.41	24.5
2077.38	23
2078.34	24
2079.31	27.5
2080.28	22
2081.25	21.5
2082.21	21
2083.18	21.5
2084.15	22.5
2085.11	20
2086.08	22.5
2087.05	23.5
2088.01	22
2088.98	23
2089.95	22.5
2090.91	24.5
2091.88	25.5
2092.84	25.5
2093.81	23
2094.78	25
2095.74	20
2096.71	22
2097.67	23
2098.64	24
2099.6	22
2100.57	22
2101.53	22
2102.49	23
2103.46	29
2104.42	21
2105.39	25
2106.35	22
2107.31	21.5
2108.28	24.5
2109.24	21
2110.2	24
2111.17	25.5
2112.13	24.5
2113.09	22
2114.05	21
2115.02	23.5
2115.98	25.5
2116.94	23.5
2117.9	20
2118.86	21
2119.83	22.5
2120.79	27
2121.75	20.5
2122.71	24
2123.67	26.5
2124.63	24
2125.59	21
2126.55	23
2127.51	23.5
2128.47	21
2129.43	20.5
2130.39	25.5
2131.35	21
2132.31	24
2133.27	21
2134.23	23
2135.19	26.5
2136.15	21
2137.11	20
2138.07	20.5
2139.03	22.5
2139.99	24
2140.94	20.5
2141.9	20
2142.86	23.4675
2143.82	19.4896
2144.78	22.9827
2145.73	23.0138
2146.69	23.4782
2147.65	22.9673
2148.61	23.2638
2149.56	26.5752
2150.52	20.5906
2151.48	21.7838
2152.43	21.9084
2153.39	20.4294
2154.35	24.4616
2155.3	23.1043
2156.26	23.7704
2157.21	21.9153
2158.17	21.8301
2159.13	23.0592
2160.08	24.0198
2161.04	25.3256
2161.99	22.642
2162.95	26.6106
2163.9	23.4872
2164.86	22.5
2165.81	23.2813
2166.77	22.6737
2167.72	22.7255
2168.67	19.8056
2169.63	21.3585
2170.58	24.5626
2171.54	22.252
2172.49	22.1169
2173.44	24.5407
2174.4	20.4994
2175.35	24.1626
2176.3	22.5043
2177.26	22.9786
2178.21	19.0513
2179.16	22.2524
2180.11	20.3817
2181.07	20.9107
2182.02	23.3934
2182.97	25.3539
2183.92	24.4442
2184.87	21.091
2185.82	22.5179
2186.78	23.0693
2187.73	22.094
2188.68	21.7548
2189.63	19.8041
2190.58	22.7352
2191.53	20.4202
2192.48	23.1938
2193.43	20.7909
2194.38	22.67
2195.33	23.2193
2196.28	24.6669
2197.23	23.6222
2198.18	22.13
2199.13	23.3647
2200.08	21.416
2201.03	23.0543
2201.98	22.348
2202.93	23.5362
2203.88	20.9942
2204.83	23.9242
2205.77	22.8937
2206.72	23.2926
2207.67	21.1381
2208.62	21.0624
2209.57	23.2634
2210.52	20.0133
2211.46	19.7403
2212.41	22.8287
2213.36	22.6356
2214.31	23.6347
2215.25	25.7112
2216.2	22.6451
2217.15	21.4053
2218.09	23.5075
2219.04	21.0241
2219.99	23.2281
2220.93	22.2194
2221.88	21.784
2222.82	21.9068
2223.77	22.8284
2224.72	22.1795
2225.66	21.9248
2226.61	21.9296
2227.55	20.2448
2228.5	20.8646
2229.44	19.2671
2230.39	20.1969
2231.33	22.957
2232.28	24.5744
2233.22	22.79
2234.16	23.1428
2235.11	24.5342
2236.05	24.1127
2237	22.3373
2237.94	21.2484
2238.88	22.6706
2239.83	23.517
2240.13	23.5
2241.08	23.5
2242.03	22
2242.98	23.5
2243.92	21
2244.87	19.5
2245.82	23
2246.76	22
2247.71	23
2248.66	23
2249.61	25.5
2250.55	22.5
2251.5	21
2252.45	23.5
2253.39	21
2254.34	22.5
2255.28	21
2256.23	23
2257.18	22
2258.12	22
2259.07	23
2260.01	23.5
2260.96	22.5
2261.9	20
2262.85	24
2263.79	22.5
2264.74	24.5
2265.68	24.5
2266.63	25
2267.57	23
2268.51	27
2269.46	24.5
2270.4	22.5
2271.35	18.5
2272.29	21
2273.23	21.5
2274.18	24
2275.12	21
2276.06	24.5
2277	18.5
2277.95	22
2278.89	20.5
2279.83	24.5
2280.78	23
2281.72	25
2282.66	24.5
2283.6	23
2284.54	22
2285.48	25.5
2286.43	24
2287.37	20
2288.31	23
2289.25	19
2290.19	24.5
2291.13	22.5
2292.07	24
2293.01	22
2293.95	21.5
2294.89	23
2295.83	23.5
2296.77	21.5
2297.71	26
2298.65	20.5
2299.59	23.5
2300.53	19
2301.47	21
2302.41	25
2303.35	23
2304.29	22.5
2305.22	22.5
2306.16	19
2307.1	23
2308.04	19
2308.98	25
2309.91	21
2310.85	27
2311.79	26
2312.73	24
2313.66	25
2314.6	22.5
2315.54	22
2316.48	23.5
2317.41	23
2318.35	23.5
2319.29	25
2320.22	25.5
2321.16	24.5
2322.09	23.5
2323.03	26.5
2323.97	25.5
2324.9	22
2325.84	22
2326.77	23
2327.71	22.5
2328.64	22.5
2329.58	26
2330.51	20.5
2331.45	20.5
2332.38	20
2333.32	22.5
2334.25	28.5
2335.18	20
2336.12	23.5
2337.05	25
2337.99	24
2338.92	25
2339.85	24.5
2340.79	27.5
2341.72	24
2342.65	19.5
2343.59	25
2344.52	25.5
2345.45	21
2346.38	23
2347.32	19
2348.25	23
2349.18	21.5
2350.11	22
2351.04	22.5
2351.98	21.5
2352.91	21.5
2353.84	26
2354.77	22.5
2355.7	21.5
2356.63	23.5
2357.56	25
2358.49	23.5
2359.42	26
2360.35	22
2361.28	25
2362.21	23.5
2363.14	20
2364.07	25
2365	22
2365.93	23
2366.86	24
2367.79	24
2368.72	27.5
2369.65	23
2370.58	21.5
2371.51	21
2372.44	29.5
2373.36	22.5
2374.29	23
2375.22	26
2376.15	21.5
2377.08	27
2378	24
2378.93	25.5
2379.86	22.5
2380.79	19.5
2381.71	23.5
2382.64	24.5
2383.57	22
2384.49	26
2385.42	23.5
2386.35	19
2387.27	23
2388.2	24
2389.13	23
2390.05	23
2390.98	24
2391.9	21
2392.83	18.5
2393.76	26
2394.68	24
2395.61	21.5
2396.53	25
2397.46	27
2398.38	23
2399.3	24.5
2400.23	21
2401.15	23.5
2402.08	21.5
2403	24.5
2403.93	18.5
2404.85	21
2405.77	22
2406.7	22.5
2407.62	20
2408.54	21.5
2409.47	22
2410.39	25.5
2411.31	23.5
2412.24	22
2413.16	23
2414.08	23
2415	26
2415.92	27
2416.85	23
2417.77	28
2418.69	23
2419.61	20.5
2420.53	27.5
2421.45	21
2422.38	24.5
2423.3	23.5
2424.22	23
2425.14	23.5
2426.06	24
2426.98	25
2427.9	22
2428.82	21.5
2429.74	22.5
2430.66	21
2431.58	22.5
2432.5	23
2433.42	25
2434.34	22.5
2435.26	24
2436.18	24
2437.1	28
2438.01	20.5
2438.93	24
2439.85	19.5
2440.77	21.5
2441.69	24.5
2442.61	23.5
2443.52	23.5
2444.44	25
2445.36	24.5
2446.28	23.5
2447.2	26
2448.11	23.5
2449.03	25.5
2449.95	23
2450.86	24.5
2451.78	27
2452.7	23.5
2453.61	24
2454.53	26
2455.45	25.5
2456.36	22.5
2457.28	23
2458.2	22
2459.11	23
2460.03	22.5
2460.94	24
2461.86	28.5
2462.77	27.5
2463.69	21
2464.6	24.5
2465.52	23.5
2466.43	24.5
2467.35	22.5
2468.26	26
2469.18	25.5
2470.09	24.5
2471	25.5
2471.92	25
2472.83	22
2473.74	23
2474.66	23.5
2475.57	26
2476.48	24
2477.4	22
2478.31	23.5
2479.22	26.5
2480.14	23
2481.05	23.5
2481.96	26
2482.87	26
2483.79	25
2484.7	21.5
2485.61	22
2486.52	21
2487.43	20
2488.34	25.5
2489.25	25
2490.17	22.5
2491.08	20
2491.99	23.5
2492.9	25.5
2493.81	26
2494.72	26
2495.63	23
2496.54	27
2497.45	25
2498.36	25
2499.27	26
2500.18	21
2501.09	25
2502	23
2502.91	24.5
2503.82	21
2504.73	24.5
2505.63	25
2506.54	23
2507.45	26.5
2508.36	28.5
2509.27	23.5
2510.18	25
2511.09	24.5
2511.99	26.5
2512.9	24.5
2513.81	23
2514.72	24.5
2515.62	23.5
2516.53	26
2517.44	22.5
2518.34	24
2519.25	24
2520.16	20
2521.06	27
2521.97	23.5
2522.88	24.5
2523.78	28.5
2524.69	27
2525.6	19.5
2526.5	25
2527.41	25.5
2528.31	23
2529.22	24
2530.12	25
2531.03	25
2531.93	25.5
2532.84	23
2533.74	29.5
2534.65	26
2535.55	20
2536.46	23.5
2537.36	24
2538.27	26
2539.17	19.5
2540.07	23
2540.98	26.5
2541.88	23
2542.78	23
2543.69	22
2544.59	20.5
2545.49	23.5
2546.4	22.5
2547.3	20.5
2548.2	22.5
2549.1	25.5
2550.01	22
2550.91	25
2551.81	27.5
2552.71	26
2553.61	23.5
2554.52	26.5
2555.42	26.5
2556.32	26
2557.22	23
2558.12	22
2559.02	20.5
2559.92	22.5
2560.82	23.5
2561.72	21.5
2562.62	24
2563.53	25
2564.43	27.5
2565.33	25
2566.23	26.5
2567.13	25.5
2568.03	23.5
2568.92	28.5
2569.82	26.5
2570.72	25.5
2571.62	21
2572.52	25.5
2573.42	26.5
2574.32	26.5
2575.22	24
2576.12	24
2577.02	27
2577.91	25.5
2578.81	25
2579.71	26
2580.61	25
2581.5	21.5
2582.4	23
2583.3	27.5
2584.2	20.5
2585.09	25.5
2585.99	22
2586.89	21.5
2587.78	24
2588.68	25
2589.58	23.5
2590.47	26
2591.37	24.5
2592.27	26
2593.16	25
2594.06	27.5
2594.95	23
2595.85	21.5
2596.75	29
2597.64	21.5
2598.54	25.5
2599.43	25
2600.33	23.5
2601.22	22
2602.12	22
2603.01	26
2603.9	22
2604.8	24.5
2605.69	26.5
2606.59	26
2607.48	24
2608.37	25.5
2609.27	24
2610.16	25
2611.05	22
2611.95	26
2612.84	23
2613.73	28
2614.63	22.5
2615.52	20.5
2616.41	24
2617.3	23
2618.2	26
2619.09	23.5
2619.98	25
2620.87	24
2621.76	24.5
2622.66	23
2623.55	23
2624.44	23.5
2625.33	20
2626.22	24.5
2627.11	27
2628	20.5
2628.9	24
2629.79	23.5
2630.68	25
2631.57	27.5
2632.46	23
2633.35	27
2634.24	24.5
2635.13	21.5
2636.02	24.5
2636.91	22.5
2637.8	24
2638.68	26
2639.57	21.5
2640.46	23
2641.35	25.5
2642.24	27.5
2643.13	25
2644.02	24
2644.91	26
2645.79	27
2646.68	21.5
2647.57	25.5
2648.46	22.5
2649.35	23
2650.23	23.5
2651.12	21.5
2652.01	25
2652.9	25
2653.78	24
2654.67	18.5
2655.56	23.5
2656.44	27
2657.33	24
2658.22	20
2659.1	24
2659.99	22.5
2660.88	27
2661.76	26.5
2662.65	26
2663.53	19
2664.42	25.5
2665.3	27.5
2666.19	20
2667.07	19.5
2667.96	23
2668.84	22
2669.73	23
2670.61	25.5
2671.5	24.5
2672.38	26.5
2673.27	26.5
2674.15	27
2675.04	23
2675.92	24
2676.8	21.5
2677.69	25.5
2678.57	26
2679.45	29
2680.34	24.5
2681.22	25
2682.1	24.5
2682.99	28
2683.87	28
2684.75	24
2685.63	23.5
2686.52	20.5
2687.4	25
2688.28	24
2689.16	26.5
2690.04	26
2690.93	23.5
2691.81	21
2692.69	25.5
2693.57	27
2694.45	24
2695.33	23
2696.21	23.5
2697.09	25
2697.97	26
2698.85	29.5
2699.74	24
2700.62	28
2701.5	26
2702.38	21.5
2703.26	21.5
2704.14	27
2705.02	24.5
2705.89	26.5
2706.77	25
2707.65	23.5
2708.53	24.5
2709.41	18.5
2710.29	24
2711.17	25
2712.05	23
2712.93	23
2713.8	24.5
2714.68	22.5
2715.56	25
2716.44	25
2717.32	26
2718.19	25
2719.07	29
2719.95	25
2720.83	21
2721.7	25
2722.58	23
2723.46	28.5
2724.33	23
2725.21	23
2726.09	25.5
2726.97	23
2727.84	27.5
2728.72	23
2729.59	23
2730.47	25
2731.35	26
2732.22	22
2733.1	26.5
2733.97	25
2734.85	22
2735.72	25
2736.6	25
2737.47	25.5
2738.35	26
2739.22	22
2740.1	24
2740.97	24
2741.84	26
2742.72	23
2743.59	23
2744.47	27
2745.34	29.5
2746.21	22
2747.09	25
2747.96	27
2748.83	25.5
2749.71	20.5
2750.58	22.5
2751.45	21
2752.33	24.5
2753.2	24.5
2754.07	22
2754.94	24.5
2755.82	21.5
2756.69	29
2757.56	25
2758.43	21.5
2759.3	23.5
2760.18	27
2761.05	24.5
2761.92	20
2762.79	21.5
2763.66	25
2764.53	26.5
2765.4	22
2766.27	21.5
2767.14	28
2768.01	24
2768.88	22
2769.75	27
2770.62	24.5
2771.49	25.5
2772.36	22
2773.23	26.5
2774.1	26.5
2774.97	24.5
2775.84	21.5
2776.71	24
2777.58	22
2778.45	25
2779.32	22.5
2780.19	24.5
2781.06	20
2781.92	21
2782.79	24
2783.66	26
2784.53	23.5
2785.4	27
2786.26	25.5
2787.13	24
2788	26
2788.87	24
2789.73	26.5
2790.6	21.5
2791.47	27
2792.34	26
2793.2	24.5
2794.07	25
2794.94	21
2795.8	24
2796.67	26
2797.53	23.5
2798.4	24.5
2799.27	25.5
2800.13	26
2801	25.5
2801.86	25
2802.73	22.5
2803.59	25
2804.46	23.5
2805.32	23.5
2806.19	27.5
2807.05	21.5
2807.92	24
2808.78	26.5
2809.65	24.5
2810.51	23.5
2811.38	27
2812.24	27
2813.1	22
2813.97	22
2814.83	23
2815.7	25
2816.56	24.5
2817.42	25
2818.29	23
2819.15	23
2820.01	26
2820.87	25.5
2821.74	25
2822.6	23
2823.46	24
2824.32	22
2825.19	24
2826.05	25
2826.91	26
2827.77	22
2828.63	24.5
2829.5	23.5
2830.36	24
2831.22	22
2832.08	25
2832.94	22.5
2833.8	24
2834.66	23
2835.52	25.5
2836.38	28
2837.24	24.5
2838.1	23
2838.96	26
2839.82	24.5
2840.68	22
2841.54	25.5
2842.4	21
2843.26	24.5
2844.12	21.5
2844.98	26.5
2845.84	27.5
2846.7	21.5
2847.56	25.5
2848.42	22.5
2849.28	25.5
2850.14	25.5
2850.99	24.5
2851.85	25
2852.71	24.5
2853.57	23.5
2854.43	25.5
2855.28	28
2856.14	21
2857	20.5
2857.86	22
2858.71	24
2859.57	22
2860.43	23.5
2861.28	21.5
2862.14	21.5
2863	23
2863.86	24.5
2864.71	25
2865.57	29.5
2866.42	24.5
2867.28	27
2868.14	21.5
2868.99	23.5
2869.85	28.5
2870.7	28
2871.56	23
2872.41	24
2873.27	23.5
2874.13	26.5
2874.98	24
2875.83	24.5
2876.69	23
2877.54	23.5
2878.4	24
2879.25	25
2880.11	28
2880.96	26
2881.81	28
2882.67	24
2883.52	25
2884.38	26.5
2885.23	28.5
2886.08	26
2886.94	26.5
2887.79	24
2888.64	29
2889.5	28.5
2890.35	27
2891.2	27.5
2892.05	27
2892.91	30
2893.76	33
2894.61	29
2895.46	31.5
2896.31	35
2897.17	32.5
2898.02	29.5
2898.87	31.5
2899.72	35.5
2900.57	34
2901.42	38.5
2902.27	39
2903.12	39
2903.98	40.5
2904.83	40
2905.68	36
2906.53	39
2907.38	35
2908.23	41
2909.08	37
2909.93	36
2910.78	39
2911.63	38
2912.48	29
2913.33	35.5
2914.18	26.5
2915.02	34.5
2915.87	31
2916.72	32.5
2917.57	27
2918.42	29.5
2919.27	28
2920.12	30
2920.97	26
2921.81	25
2922.66	24
2923.51	23
2924.36	29
2925.21	24.5
2926.05	26
2926.9	27.5
2927.75	21.5
2928.59	24.5
2929.44	27
2930.29	25
2931.14	27
2931.98	25
2932.83	24
2933.68	24
2934.52	21.5
2935.37	25
2936.21	24.5
2937.06	25
2937.91	25.5
2938.75	22.5
2939.6	25.5
2940.44	24
2941.29	22.5
2942.14	21.5
2942.98	26
2943.82	28
2944.67	20
2945.51	27
2946.36	23
2947.2	25
2948.05	30.5
2948.89	29
2949.74	29
2950.58	26
2951.43	28
2952.27	24.5
2953.11	24
2953.96	25.5
2954.8	24.5
2955.64	23.5
2956.49	27.5
2957.33	30
2958.17	28
2959.02	24.5
2959.86	31
2960.7	29.5
2961.54	33
2962.39	27.5
2963.23	29.5
2964.07	30
2964.91	29.5
2965.75	32
2966.6	30
2967.44	29.5
2968.28	30
2969.12	28.5
2969.96	24.5
2970.8	32
2971.64	28.5097
2972.48	26.4816
2973.33	25.511
2974.17	31.3935
2975.01	30.3509
2975.85	23.837
2976.69	25.8994
2977.53	24.9946
2978.37	23.6998
2979.21	27.5196
2980.05	23.2276
2980.89	29.7902
2981.73	23.4514
2982.57	25.055
2983.41	23.3601
2984.25	23.8097
2985.08	21.9272
2985.92	24.1585
2986.76	22.8829
2987.6	23.6861
2988.44	24.4882
2989.28	25.7048
2990.12	24.5004
2990.96	21.0961
2991.79	23.0409
2992.63	22.5065
2993.47	22.9946
2994.31	24.966
2995.14	22.4612
2995.98	22.5246
2996.82	22.8259
2997.66	23.9191
2998.49	24.963
2999.33	23.2531
3000.17	21.5274
3001	24.5213
3001.84	23.588
3002.68	22.215
3003.51	21.9747
3004.35	19.8835
3005.19	23.2306
3006.02	22.4463
3006.86	19.4278
3007.7	21.7769
3008.53	22.1719
3009.37	24.3568
3010.2	21.4138
3011.04	20.6146
3011.87	22.0389
3012.71	22.8891
3013.54	23.898
3014.38	21.0199
3015.21	21.9612
3016.05	23.9321
3016.88	23.5777
3017.72	23.7227
3018.55	22.4112
3019.39	21.5899
3020.22	23.4822
3021.05	25.1033
3021.89	22.782
3022.72	22.3456
3023.55	19.0047
3024.39	22.3611
3025.22	22.6835
3026.05	23.2045
3026.89	23.4351
3027.72	23.4759
3028.55	22.2004
3029.39	22.818
3030.22	21.6138
3031.05	21.8801
3031.88	22.4444
3032.72	22.1231
3033.55	22.5889
3034.38	23.0915
3035.21	22.764
3036.04	22.3808
3036.88	20.6317
3037.71	21.2669
3038.54	21.9023
3039.37	23.2923
3040.2	22.95
3041.03	22.8885
3041.86	22.4577
3042.69	23.8246
3043.52	21.988
3044.36	20.9147
3045.19	23.9857
3046.02	23.9995
3046.85	22.8669
3047.68	22.2545
3048.51	22.4253
3049.34	21.0648
3050.17	22.2293
3051	23.0994
3051.83	21.3362
3052.66	21.4508
3053.48	21.4178
3054.31	21.3406
3055.14	20.805
3055.97	20.3487
3056.8	19.3078
3057.29	19
3058.12	22.5
3058.95	23.5
3059.79	23
3060.62	20
3061.45	21
3062.29	25
3063.12	21.5
3063.95	23
3064.78	22.5
3065.62	24
3066.45	21
3067.28	23.5
3068.11	20.5
3068.94	24.5
3069.77	19.5
3070.61	23
3071.44	19.5
3072.27	23
3073.1	22
3073.93	21
3074.76	21.5
3075.59	25
3076.42	23.5
3077.25	22
3078.08	21.5
3078.92	23
3079.74	24
3080.57	20.5
3081.41	26.5
3082.24	27.5
3083.06	20
3083.89	23.5
3084.72	26
3085.55	21
3086.38	20
3087.21	19.5
3088.04	20
3088.87	22.5
3089.7	25.5
3090.53	24
3091.36	21.5
3092.18	22.5
3093.01	21.5
3093.84	19
3094.67	19
3095.5	22.5
3096.32	25
3097.15	24.5
3097.98	23.5
3098.81	25
3099.64	24
3100.46	24.5
3101.29	23.5
3102.12	23.5
3102.94	26
3103.77	22.5
3104.6	23.5
3105.42	20
3106.25	24
3107.08	22.5
3107.9	22
3108.73	22
3109.56	24
3110.38	21
3111.21	22
3112.03	22.5
3112.86	20.5
3113.68	21.5
3114.51	26
3115.33	22
3116.16	26
3116.98	24
3117.81	25.5
3118.63	21
3119.46	23.5
3120.28	21.5
3121.11	22.5
3121.93	20
3122.76	23
3123.58	24
3124.4	20.5
3125.23	23
3126.05	24
3126.87	20.5
3127.7	23
3128.52	25
3129.34	23
3130.17	25
3130.99	24
3131.81	25.5
3132.64	24.5
3133.46	22
3134.28	24.5
3135.1	21.5
3135.93	25.5
3136.75	22
3137.57	23
3138.39	23
3139.21	26
3140.04	23.5
3140.86	24.5
3141.68	23.5
3142.5	22.5
3143.32	26
3144.14	24
3144.96	19.5
3145.78	22.5
3146.61	25.5
3147.43	21
3148.25	22
3149.07	22
3149.89	21.5
3150.71	22.5
3151.53	26
3152.35	22
3153.17	26.5
3153.99	21
3154.81	23
3155.63	23
3156.45	22.5
3157.27	25.5
3158.08	20
3158.9	19.5
3159.72	23.5
3160.54	21
3161.36	22
3162.18	25
3163	23
3163.82	23.5
3164.63	23.5
3165.45	26
3166.27	26
3167.09	27
3167.91	21.5
3168.72	22
3169.54	22
3170.36	20
3171.18	21
3171.99	23
3172.81	25
3173.63	23.5
3174.44	24.5
3175.26	21
3176.08	20
3176.89	29
3177.71	23
3178.53	19
3179.34	28.5
3180.16	25.5
3180.97	21.5
3181.79	23
3182.61	23.5
3183.42	24
3184.24	24.5
3185.05	25
3185.87	22
3186.68	24.5
3187.5	22.5
3188.31	26.5
3189.13	22.5
3189.94	23
3190.76	22.5
3191.57	23.5
3192.39	22.5
3193.2	22
3194.02	21
3194.83	23.5
3195.64	24
3196.46	22.5
3197.27	24
3198.08	24
3198.9	22.5
3199.71	22
3200.52	27
3201.34	26.5
3202.15	24
3202.96	26
3203.78	22
3204.59	24.5
3205.4	17.5
3206.21	23
3207.03	23
3207.84	21.5
3208.65	19
3209.46	20
3210.27	21.5
3211.09	20
3211.9	22.5
3212.71	24.5
3213.52	25
3214.33	25.5
3215.14	23
3215.95	26
3216.77	24
3217.58	23
3218.39	24
3219.2	23.5
3220.01	24
3220.82	23
3221.63	20
3222.44	21
3223.25	21
3224.06	20
3224.87	24.5
3225.68	19
3226.49	22
3227.3	26.5
3228.11	24.5
3228.92	23
3229.73	26
3230.53	25.5
3231.34	23
3232.15	25
3232.96	25
3233.77	22.5
3234.58	22
3235.39	20
3236.19	24
3237	24
3237.81	26.5
3238.62	21.5
3239.43	21.5
3240.23	23
3241.04	22.5
3241.85	23
3242.66	21
3243.46	23
3244.27	24
3245.08	20.5
3245.89	24
3246.69	26
3247.5	26
3248.31	25
3249.11	23.5
3249.92	22.5
3250.72	24.5
3251.53	22
3252.34	22.5
3253.14	26
3253.95	23
3254.75	24
3255.56	21.5
3256.36	24.5
3257.17	24
3257.98	25
3258.78	19
3259.59	22.5
3260.39	24.5
3261.19	24
3262	23
3262.8	26
3263.61	26
3264.41	24
3265.22	20
3266.02	19.5
3266.83	27
3267.63	22
3268.43	23.5
3269.24	26
3270.04	24.5
3270.84	25
3271.65	22
3272.45	22.5
3273.25	21
3274.06	21
3274.86	24
3275.66	25
3276.46	22.5
3277.27	25
3278.07	24.5
3278.87	24.5
3279.67	23
3280.48	24
3281.28	25
3282.08	21.5
3282.88	23
3283.68	22
3284.48	22.5
3285.29	28
3286.09	25.5
3286.89	23.5
3287.69	22
3288.49	21.5
3289.29	25.5
3290.09	23
3290.89	21
3291.69	28
3292.49	23
3293.29	24.5
3294.09	24
3294.89	23.5
3295.69	26.5
3296.49	29
3297.29	25
3298.09	24
3298.89	23
3299.69	23.5
3300.49	23
3301.29	21
3302.09	28
3302.89	24.5
3303.69	25
3304.49	20
3305.28	22.5
3306.08	24.5
3306.88	23.5
3307.68	25
3308.48	24
3309.28	22
3310.07	24.5
3310.87	22.5
3311.67	20
3312.47	26
3313.26	23.5
3314.06	26.5
3314.86	26.5
3315.66	22
3316.45	24
3317.25	26.5
3318.05	24
3318.84	26
3319.64	25
3320.44	24.5
3321.23	23
3322.03	21.5
3322.83	27.5
3323.62	19.5
3324.42	23
3325.21	22
3326.01	23
3326.81	24.5
3327.6	24.5
3328.4	26.5
3329.19	25
3329.99	22.5
3330.78	21.5
3331.58	27.5
3332.37	27.5
3333.17	22
3333.96	24
3334.76	22
3335.55	23.5
3336.34	22
3337.14	25
3337.93	27.5
3338.73	22
3339.52	23
3340.31	24
3341.11	24
3341.9	24.5
3342.69	26
3343.49	24.5
3344.28	25.5
3345.07	24
3345.87	19.5
3346.66	23
3347.45	22.5
3348.25	24.5
3349.04	22.5
3349.83	24.5
3350.62	23.5
3351.42	29
3352.21	21
3353	24.5
3353.79	22.5
3354.58	22.5
3355.37	22
3356.17	21
3356.96	26
3357.75	25.5
3358.54	24
3359.33	23
3360.12	29.5
3360.91	26
3361.7	22
3362.49	25.5
3363.29	18.5
3364.08	25.5
3364.87	22
3365.66	25
3366.45	25
3367.24	27
3368.03	26
3368.82	22.5
3369.61	23
3370.4	26
3371.19	22
3371.97	21.5
3372.76	19.5
3373.55	22
3374.34	23.5
3375.13	25.5
3375.92	26.5
3376.71	23
3377.5	24
3378.29	22
3379.07	26.5
3379.86	22
3380.65	27
3381.44	26.5
3382.23	26
3383.01	17
3383.8	24
3384.59	24.5
3385.38	24.5
3386.16	25.5
3386.95	21.5
3387.74	25
3388.53	25
3389.31	24
3390.1	26
3390.89	22.5
3391.67	27
3392.46	25
3393.25	25.5
3394.03	21
3394.82	23.5
3395.6	25
3396.39	27
3397.18	24.5
3397.96	23
3398.75	20.5
3399.53	21.5
3400.32	26.5
3401.1	24.5
3401.89	22.5
3402.67	19.5
3403.46	24
3404.24	22.5
3405.03	20.5
3405.81	23.5
3406.6	23
3407.38	24.5
3408.17	24
3408.95	22.5
3409.74	26
3410.52	20.5
3411.3	23.5
3412.09	27
3412.87	19
3413.65	26
3414.44	24
3415.22	19.5
3416	24
3416.79	28.5
3417.57	25.5
3418.35	21.5
3419.14	20
3419.92	24.5
3420.7	25.5
3421.48	25.5
3422.27	23.5
3423.05	19.5
3423.83	26.5
3424.61	23
3425.4	24
3426.18	21
3426.96	22
3427.74	22
3428.52	21
3429.3	23
3430.08	25
3430.87	26
3431.65	22
3432.43	22
3433.21	24
3433.99	20.5
3434.77	19
3435.55	26
3436.33	21.5
3437.11	24
3437.89	25.5
3438.67	26.5
3439.45	24
3440.23	25.5
3441.01	24
3441.79	20
3442.57	23
3443.35	24.5
3444.13	22.5
3444.91	25
3445.69	25.5
3446.47	23.5
3447.25	27.5
3448.03	26.5
3448.8	18
3449.58	23.5
3450.36	21
3451.14	27.5
3451.92	24
3452.7	23
3453.47	25
3454.25	25
3455.03	25
3455.81	26.5
3456.59	20
3457.36	23
3458.14	21.5
3458.92	25.5
3459.69	22.5
3460.47	23.5
3461.25	24.5
3462.03	24.5
3462.8	23
3463.58	20
3464.36	26
3465.13	25
3465.91	25
3466.69	23
3467.46	23.5
3468.24	25
3469.01	26
3469.79	25.5
3470.57	25.5
3471.34	25
3472.12	19
3472.89	20
3473.67	23
3474.44	21
3475.22	26.5
3475.99	22
3476.77	23.5
3477.54	26
3478.32	26
3479.09	26.5
3479.87	26.5
3480.64	23.5
3481.41	25.5
3482.19	25
3482.96	26.5
3483.74	26.5
3484.51	23
3485.28	23
3486.06	23.5
3486.83	25.5
3487.6	23.5
3488.38	23.5
3489.15	23
3489.92	20
3490.7	24
3491.47	27.5
3492.24	23
3493.01	25.5
3493.79	23
3494.56	21.5
3495.33	22
3496.1	25
3496.88	24.5
3497.65	24
3498.42	20
3499.19	25
3499.96	21.5
