#Acq. time (s)=	5
#Accumulations=	5
#Range (cm-¹)=	100...3500
#Windows=	4
#Autofocus=	Off
#AutoExposure=	Off
#Spike filter=	Multiple accum.
#Delay time (s)=	0
#Binning=	1
#Readout mode=	Signal
#DeNoise=	Off
#ICS correction=	Off
#Dark correction=	Off
#Inst. Process=	Off
#Instrument=	LabRAM HR Evol
#Detector=	Syncerity OE
#Objective=	x100_VIS
#Grating=	600 (500nm)
#ND Filter=	25%
#Laser=	633nm_Edge
#Hole=	100.021
#Range=	Visible
#Project=	verificaciones
#Sample=	at4
#Site=	plain
#Title=	bolusat4plain
#Remark=	
#Date=	14.01.2026 13:45
#Acquired=	14.01.2026 13:45:10
100.618	30
101.901	32
103.185	29.5
104.468	32
105.751	30
107.033	27
108.316	28.5
109.598	31.5
110.88	30
112.162	30.5
113.445	28.5
114.727	29.5
116.008	32
117.289	31.5
118.57	27.5
119.85	33
121.13	28
122.411	35
123.691	34
124.97	33.5
126.25	34.5
127.529	33
128.808	34
130.086	34
131.364	32
132.643	33.5
133.921	32.5
135.199	31.5
136.477	30.5
137.755	32
139.032	33
140.309	29.5
141.586	30
142.863	35
144.14	34.5
145.415	35
146.691	33.5
147.967	35.5
149.243	35.5
150.518	31.5
151.794	38.5
153.067	40
154.342	38
155.617	39
156.892	35
158.166	37
159.439	38
160.712	38.5
161.986	38.5
163.26	40
164.531	36.5
165.805	36
167.077	34
168.35	37
169.621	37
170.893	37
172.165	39.5
173.437	33
174.707	36
175.979	36.5
177.25	33.5
178.519	37.5
179.79	36
181.061	43
182.33	36.5
183.6	34
184.87	40.5
186.138	42.5
187.408	42.5
188.676	34.5
189.945	34.5
191.214	34.5
192.481	39.5
193.75	35.5
195.016	41
196.285	34
197.552	39
198.819	33
200.086	33
201.352	37.5
202.619	36
203.884	38.5
205.151	33.5
206.416	35
207.682	37
208.947	36
210.213	36
211.477	32
212.742	30
214.006	34.5
215.271	33
216.535	35
217.799	31.5
219.062	34
220.326	33
221.589	30
222.851	32
224.115	30.5
225.377	30
226.64	28.5
227.901	29
229.163	31.5
230.425	27.5
231.686	34.5
232.947	32.5
234.209	29
235.469	30
236.729	30
237.991	27.5
239.25	29.5
240.51	27
241.771	33
243.03	24
244.288	29.5
245.549	28
246.807	31.5
248.065	24.5
249.323	29
250.583	28
251.84	28
253.098	33.5
254.355	28
255.613	27
256.87	30.5
258.127	28.5
259.383	31
260.639	31
261.897	26.5
263.153	27.5
264.408	30
265.664	27
266.919	29.5
268.174	29.5
269.43	23
270.685	30
271.939	29
273.193	30
274.447	28
275.701	28
276.955	28
278.208	29.5
279.461	27
280.714	27.5
281.968	25.5
283.221	29
284.473	29
285.726	29
286.977	27
288.229	29.5
289.481	26.5
290.732	30.5
291.983	25
293.234	29.5
294.485	27
295.736	30
296.986	26.5
298.236	31
299.486	27
300.736	29
301.985	26
303.233	29
304.482	26
305.731	26
306.98	29
308.228	28
309.477	27.5
310.725	31
311.973	29
313.22	31
314.468	27
315.714	28.5
316.961	28.5
318.208	28
319.455	31
320.701	31
321.947	27
323.192	27.5
324.438	29
325.684	25
326.929	27.5
328.175	26.5
329.418	28.5
330.663	32
331.908	27
333.152	27
334.395	30.5
335.639	31
336.883	26.5
338.127	29
339.369	29
340.612	29
341.855	30
343.097	25
344.34	29.5
345.582	25
346.823	28
348.065	26.5
349.307	27.5
350.547	25.5
351.789	31
353.03	29
354.27	32
355.511	29
356.75	27
357.991	26.5
359.231	32
360.47	28
361.709	27.5
362.948	29
364.187	24
365.427	27
366.664	27.5
367.903	27
369.14	29
370.379	27
371.616	27.5
372.854	34.5
374.091	30.5
375.328	28.5
376.564	31
377.802	25.5
379.037	27
380.274	25
381.51	31.5
382.745	27
383.981	27.5
385.216	29.5
386.452	32
387.686	29.5
388.922	25
390.155	24.5
391.389	26
392.624	30.5
393.857	26.5
395.091	27
396.325	30
397.558	28
398.79	27
400.024	29.5
401.256	28.5
402.488	27
403.721	27
404.953	33
406.184	27
407.417	32.5
408.648	26
409.878	29.5
411.109	24.5
412.341	28.5
413.571	24.5
414.801	30.5
416.031	27.5
417.262	24.5
418.491	27
419.72	29.5
420.949	27.5
422.178	28
423.408	29
424.637	27.5
425.865	28
427.093	30
428.32	30
429.548	29.5
430.777	31.5
432.004	27.5
433.231	28
434.458	29.5
435.685	31
436.911	30.5
438.137	29.5
439.363	29.5
440.589	30
441.815	27
443.042	28
444.267	32
445.492	27.5
446.717	25
447.942	31.5
449.166	29
450.39	28.5
451.615	30
452.838	27.5
454.062	28
455.286	27.5
456.509	28
457.732	27
458.955	30.5
460.178	30
461.399	33
462.621	33.5
463.843	32.5
465.065	24.5
466.287	27
467.508	30.5
468.73	31
469.951	27
471.172	36
472.393	33.5
473.612	31.5
474.832	36
476.052	36
477.272	42
478.492	40
479.712	43.5
480.93	44
482.149	46.5
483.368	47
484.587	51
485.806	53
487.023	49
488.241	51.5
489.459	48.5
490.677	56
491.893	45
493.111	52
494.328	46.5
495.543	45
496.76	44
497.977	41
499.194	38
500.409	42
501.625	38.5
502.841	37
504.055	38
505.27	34
506.486	41
507.699	32
508.914	34
510.128	36
511.342	34
512.557	35.5
513.77	30
514.984	31.5
516.196	32.5
517.41	33
518.623	31
519.835	29.5
521.048	31.5
522.259	30.5
523.472	31
524.683	31.5
525.895	29
527.106	30.5
528.318	27
529.528	30
530.74	30.5
531.949	30.5
533.161	25
534.37	32.5
535.581	27.5
536.79	29
537.999	29.5
539.209	29.5
540.418	29
541.627	27.5
542.835	30
544.043	29
545.253	30.5
546.46	26
547.669	27.5
548.876	27
550.083	24
551.292	30.5
552.498	29.5
553.705	27.5
554.912	27
556.118	22.5
557.324	27
558.53	29.5
559.737	28
560.942	30
562.147	24
563.353	30.5
564.558	26
565.763	27.5
566.967	27
568.173	24
569.377	29
570.58	31.5
571.784	26.5
572.987	28.5
574.192	25.5
575.395	24.5
576.598	28.5
577.8	26.5
579.003	29
580.205	29
581.407	29.5
582.61	27
583.812	27.5
585.014	25
586.215	30
587.416	26.5
588.617	28
589.818	25.5
591.018	25.5
592.219	30
593.419	31.5
594.619	28.5
595.819	26.5
597.02	27
598.219	31.5
599.418	26.5
600.617	27.5
601.816	28
603.015	25.5
604.213	29.5
605.41	27
606.608	24
607.806	29.5
609.004	29.5
610.201	28
611.399	28
612.596	29.5
613.793	31.5
614.989	27.5
616.186	28
617.382	28
618.579	35.5
619.775	26.5
620.969	29
622.165	28
623.36	29
624.555	31.5
625.75	29.5
626.945	28.5
628.139	28
629.333	28.5
630.527	28.5
631.721	29.5
632.915	24
634.108	25.5
635.301	30
636.495	26.5
637.688	28
638.88	25
640.072	29.5
641.265	31.5
642.456	31
643.648	29
644.84	31
646.032	28.5
647.222	29
648.414	27
649.605	26
650.795	28.5
651.986	29
653.177	22
654.366	27.5
655.556	28.5
656.745	29.5
657.935	29
659.125	29
660.313	30
661.503	28.5
662.69	29.5
663.879	28.5
665.067	32.5
666.256	29.5
667.444	33
668.631	30.5
669.819	29
671.006	27.5
672.194	36
673.38	30
674.567	33
675.753	31.5
676.94	31.5
678.125	34.5
679.311	33.5
680.497	33
681.682	33
682.868	29
684.053	35
685.238	35.5
686.422	35.5
687.606	33.5
688.792	36
689.975	34.5
691.159	33
692.343	32.5
693.526	31.5
694.71	24
695.893	36.5
697.076	35
698.259	37
699.441	35.5
700.623	37
701.805	36
702.988	39.5
704.169	44
705.35	38.5
706.533	43
707.714	47.5
708.894	49
710.075	47
711.255	40.5
712.436	38.5
713.616	37
714.796	29
715.975	32
717.155	33.5
718.335	30
719.514	31
720.693	28
721.872	32.5
723.05	28
724.228	30.5
725.406	30
726.585	25.5
727.763	28.5
728.941	30.5
730.118	28
731.295	28
732.472	26
733.649	28.5
734.825	29
736.002	33
737.178	26
738.354	26
739.53	28.5
740.705	31
741.881	29.5
743.056	28
744.231	24
745.406	28
746.581	27
747.755	31.5
748.93	30
750.104	27
751.278	26.5
752.452	25
753.625	30
754.799	33
755.972	28
757.144	28
758.317	27
759.489	23.5
760.662	27.5
761.834	26
763.006	26
764.178	27
765.349	30
766.521	27.5
767.692	30
768.863	31
770.034	26.5
771.204	31
772.374	28.5
773.545	27
774.715	28
775.885	27.5
777.054	25.5
778.224	28.5
779.393	30
780.562	27
781.731	29
782.9	29.5
784.069	29
785.236	32
786.405	30
787.573	31
788.74	30
789.908	31.5
791.074	25.5
792.242	31.5
793.409	28.5
794.575	31
795.742	36
796.909	27.5
798.074	27
799.241	28.5
800.406	35
801.572	31
802.737	30
803.902	29.5
805.067	31.5
806.232	27
807.396	26.5
808.561	27
809.725	25
810.889	27
812.052	30
813.217	29
814.38	33
815.544	30
816.706	32
817.87	32
819.032	32
820.195	27
821.357	28
822.518	26
823.681	25
824.842	28.5
826.005	21.5
827.165	26
828.326	30
829.488	29.5
830.648	27
831.808	23
832.97	23
834.129	28
835.289	24
836.45	28.5
837.609	28.5
838.768	26
839.927	27.5
841.087	27.5
842.245	30.5
843.404	23
844.562	29
845.721	27.5
846.879	27.5
848.036	24
849.194	27.5
850.351	31
851.509	26.5
852.666	24
853.823	23
854.979	28
856.136	23.5
857.292	26.5
858.448	25
859.605	28.5
860.761	30.5
861.916	28
863.071	29.5
864.226	30
865.381	26.5
866.536	25
867.691	31
868.845	27
869.999	28
871.153	27.5
872.307	27
873.461	27
874.614	30.5
875.767	32
876.92	27.5
878.073	26.5
879.226	31
880.379	31.5
881.531	27
882.683	27.5
883.835	28.5
884.987	24
886.139	23
887.291	28.5
888.442	26
889.593	27
890.743	27.5
891.893	27.5
893.044	30.5
894.195	29.5
895.345	27
896.495	30
897.643	26
898.793	25.5
899.943	25
901.092	28
902.241	23
903.389	28
904.538	29
905.687	25.5
906.835	22.5
907.982	24
909.13	28
910.278	28
911.426	28
912.572	25
913.72	26
914.867	25.5
916.013	25
917.16	30.5
918.306	25
919.451	28
920.598	22.5
921.744	28.5
922.889	28.5
924.035	26.5
925.18	29.5
926.324	28.5
927.47	25.5
928.614	27
929.758	27.5
930.902	25.5
932.047	28
933.191	25
934.334	26
935.478	27
936.621	27
937.764	26.5
938.906	24
940.05	25
941.192	26
942.335	25
943.476	26
944.619	24
945.76	24.5
946.901	24.5
948.043	30.5
949.184	28.5
950.326	27
951.466	28
952.606	28
953.747	27.5
954.887	25
956.028	29.5
957.167	26.5
958.307	27.5
959.447	25
960.586	24.5
961.725	25
962.865	30.5
964.003	27
965.141	27
966.279	27
967.418	23.5
968.556	27
969.693	27
970.831	28.25
971.969	29
973.106	29
974.243	25
975.38	26
976.517	23.5
977.654	25.5
978.79	27.5
979.926	25
981.061	27
982.197	28
983.334	24
984.469	27
985.604	28.5
986.739	27.5
987.873	26
989.008	26.5
990.142	24.5
991.277	23
992.411	28.5
993.544	25.5
994.679	26
995.813	27.5
996.946	27
998.079	27.5
999.212	27
1000.35	26
1001.48	23.5
1002.61	26
1003.74	27.5
1004.87	24.5
1006.01	27
1007.14	27
1008.27	25
1009.4	20.5
1010.53	23.5
1011.66	28
1012.79	27.5
1013.92	26
1015.05	25
1016.18	27.5
1017.31	26
1018.44	28
1019.57	25.5
1020.7	25
1021.83	29
1022.96	25.5
1024.09	31.5
1025.22	24
1026.35	25.5
1027.48	28
1028.6	25.5
1029.73	24.5
1030.86	25
1031.99	26.5
1033.12	29.5
1034.24	29.5
1035.37	26.5
1036.5	26
1037.62	28
1038.75	26
1039.88	26.5
1041	25
1042.13	27
1043.25	25.5
1044.38	28.5
1045.5	24.5
1046.63	23
1047.76	24
1048.88	22
1050	24
1051.13	25
1052.25	27.5
1053.38	27.5
1054.5	24.5
1055.63	28
1056.75	25.5
1057.87	24
1058.99	27
1060.12	26
1061.24	23.5
1062.36	26.5
1063.49	26.5
1064.61	22.5
1065.73	27
1066.85	26.5
1067.97	25
1069.1	26
1070.22	27
1071.34	23.5
1072.46	25.5
1073.58	23
1074.7	26
1075.82	28.5
1076.94	27.5
1078.06	27.5
1079.18	26
1080.3	27
1081.42	28.5
1082.54	24
1083.66	26.5
1084.78	20
1085.9	28.5
1087.02	24.5
1088.13	25
1089.25	26.5
1090.37	27
1091.49	23.5
1092.61	24
1093.72	26
1094.84	26
1095.96	30.5
1097.08	25
1098.19	24
1099.31	25
1100.42	25
1101.54	24
1102.66	25.5
1103.77	23
1104.89	24
1106	27
1107.12	23
1108.23	26
1109.35	27
1110.46	31.5
1111.58	26
1112.69	25.5
1113.81	23
1114.92	26.5
1116.04	26
1117.15	26
1118.26	25.5
1119.38	23.5
1120.49	27
1121.6	24.5
1122.72	23.5
1123.83	26
1124.94	28.5
1126.05	21.5
1127.17	28
1128.28	21.5
1129.39	25.5
1130.5	24
1131.61	22
1132.72	25
1133.83	25
1134.94	22
1136.06	28
1137.17	22
1138.27	22
1139.39	24
1140.5	22.5
1141.61	26.5
1142.72	26
1143.82	22.5
1144.93	24
1146.04	23
1147.15	29.5
1148.26	23
1149.37	22.5
1150.48	23
1151.58	26
1152.69	21.5
1153.8	23.5
1154.91	24.5
1156.02	27
1157.12	27.5
1158.23	21
1159.34	26
1160.44	23.5
1161.55	25.5
1162.66	23
1163.76	22.5
1164.87	25.5
1165.97	27
1167.08	22
1168.18	25
1169.29	28
1170.39	25.5
1171.5	24.5
1172.6	22
1173.71	26.5
1174.81	26.5
1175.92	24
1177.02	26
1178.13	23.5
1179.23	27.5
1180.33	24.5
1181.44	27
1182.54	23.5
1183.64	23
1184.74	27.5
1185.85	26.5
1186.95	26
1188.05	28
1189.15	24
1190.26	24.5
1191.36	22.5
1192.46	24
1193.56	25.5
1194.66	26.9926
1195.76	26.8945
1196.86	28.0316
1197.96	25.5329
1199.06	25.9988
1200.16	26.4438
1201.26	21.6849
1202.36	24.8497
1203.46	25.6426
1204.56	25.077
1205.66	25.0513
1206.76	24.0558
1207.86	23.1878
1208.96	26.5609
1210.06	23.2118
1211.16	22.4507
1212.25	23.5801
1213.35	22.3244
1214.45	23.9564
1215.55	22.9347
1216.65	28.1771
1217.74	23.721
1218.84	24.182
1219.94	24.9296
1221.03	23.3048
1222.13	25.7001
1223.23	25.0545
1224.32	21.9288
1225.42	26.4147
1226.52	25.8019
1227.61	22.1155
1228.71	25.6695
1229.8	23.7155
1230.9	24.5944
1231.99	24.8882
1233.09	24.7357
1234.18	24.3544
1235.28	26.4354
1236.37	24.0594
1237.47	24.2755
1238.56	23.4329
1239.65	23.9927
1240.75	21.5081
1241.84	26.5567
1242.93	24.3489
1244.03	24.6563
1245.12	22.3555
1246.21	24.7786
1247.31	23.8297
1248.4	24.0104
1249.49	26.8796
1250.58	26.5421
1251.67	23.9411
1252.77	24.9003
1253.86	24.3519
1254.95	27.5792
1256.04	25.9288
1257.13	26.2761
1258.22	24.8678
1259.31	23.2177
1260.4	26.8784
1261.49	25.8612
1262.58	26.757
1263.67	27.0236
1264.76	26.794
1265.85	27.0142
1266.94	25.249
1268.03	23.8057
1269.12	24.2437
1270.21	23.4804
1271.3	24.8579
1272.39	25.2359
1273.47	25.8491
1274.56	25.9333
1275.65	24.7964
1276.74	25.2508
1277.83	25.0548
1278.91	25.2718
1280	24.0199
1281.09	23.3872
1282.17	24.591
1283.26	23.3318
1284.35	27.4585
1285.43	23.8656
1286.52	23.2752
1287.61	24.3815
1288.69	21.7514
1289.78	23.6618
1290.86	24.8747
1291.95	24.5786
1293.03	24.756
1294.12	23.2633
1295.2	23.4866
1296.29	23.2622
1297.37	24.8291
1298.46	24.3242
1299.54	23.6347
1300.63	22.9268
1301.71	25.8755
1302.79	23.6055
1303.88	22.0244
1304.96	22.46
1306.04	22.5888
1306.5	23
1307.59	26.5
1308.68	26.5
1309.76	23
1310.85	24.5
1311.94	27.5
1313.03	26
1314.11	24.5
1315.2	23
1316.29	23
1317.37	23.5
1318.46	25.5
1319.55	27
1320.63	23.5
1321.72	24
1322.81	23.5
1323.89	24.5
1324.98	22
1326.06	27
1327.15	25
1328.23	23
1329.32	24
1330.4	24
1331.49	23.5
1332.57	28.5
1333.66	24
1334.74	24
1335.82	26.5
1336.91	23
1337.99	21.5
1339.07	27.5
1340.16	25.5
1341.24	20
1342.32	24
1343.4	23
1344.49	25
1345.57	25.5
1346.65	25.5
1347.73	25
1348.82	28
1349.9	23.5
1350.98	26
1352.06	27.5
1353.14	23
1354.22	25
1355.3	28
1356.38	26
1357.46	21
1358.54	23
1359.62	26
1360.7	25.5
1361.78	23.5
1362.86	21
1363.94	26
1365.02	25.5
1366.1	25.5
1367.18	20.5
1368.26	25
1369.34	26
1370.41	23
1371.49	21
1372.57	24.5
1373.65	23.5
1374.72	24.5
1375.8	26
1376.88	24.5
1377.96	24
1379.03	27
1380.11	25.5
1381.19	20
1382.26	27
1383.34	27.5
1384.42	26.5
1385.49	25
1386.57	25.5
1387.64	27
1388.72	27.5
1389.79	26.5
1390.87	21.5
1391.94	22
1393.02	24
1394.09	27.5
1395.17	24.5
1396.24	26
1397.31	25.5
1398.39	28
1399.46	31
1400.54	27
1401.61	24.5
1402.68	31
1403.76	28
1404.83	28
1405.9	26
1406.97	26.5
1408.05	28
1409.12	32
1410.19	27
1411.26	29
1412.33	27
1413.4	29
1414.48	31.5
1415.55	28.5
1416.62	31.5
1417.69	28
1418.76	27.5
1419.83	26
1420.9	26.5
1421.97	27.5
1423.04	25
1424.11	28.5
1425.18	27.5
1426.25	25.5
1427.32	22.5
1428.39	21
1429.46	28
1430.52	27
1431.59	24.5
1432.66	29
1433.73	26.5
1434.8	21
1435.87	28.5
1436.93	28
1438	26.5
1439.07	27.5
1440.14	24
1441.2	26.5
1442.27	30
1443.34	23
1444.4	26.5
1445.47	29
1446.54	23
1447.6	31
1448.67	28
1449.73	28.5
1450.8	27.5
1451.86	25
1452.93	26.5
1453.99	24
1455.06	27
1456.12	28.5
1457.19	23
1458.25	27
1459.32	24.5
1460.38	24.5
1461.45	27.5
1462.51	22
1463.57	27
1464.64	29
1465.7	26.5
1466.76	24.5
1467.82	23.5
1468.89	29
1469.95	26.5
1471.01	26.5
1472.07	25.5
1473.14	23.5
1474.2	28.5
1475.26	23.5
1476.32	24
1477.38	26.5
1478.44	28
1479.5	24
1480.57	23.5
1481.63	25
1482.69	28
1483.75	28
1484.81	25
1485.87	25.5
1486.93	25
1487.99	24.5
1489.05	29.5
1490.1	27.5
1491.17	26
1492.22	26.5
1493.28	23.5
1494.34	23.5
1495.4	27
1496.46	22
1497.52	27
1498.57	21
1499.63	27
1500.69	25.5
1501.75	25.5
1502.8	29
1503.86	27
1504.92	27
1505.98	24.5
1507.03	24.5
1508.09	24.5
1509.15	25
1510.2	24
1511.26	27
1512.31	21.5
1513.37	26.5
1514.42	20.5
1515.48	27
1516.53	24
1517.59	27
1518.64	21.5
1519.7	27.5
1520.75	28
1521.81	28
1522.86	25.5
1523.92	27
1524.97	26.5
1526.02	29.5
1527.08	27
1528.13	24
1529.18	21.5
1530.24	24
1531.29	27
1532.34	26.5
1533.39	29
1534.45	27
1535.5	29
1536.55	25
1537.6	21
1538.65	25
1539.71	27
1540.76	24.5
1541.81	28.5
1542.86	26.5
1543.91	24.5
1544.96	26
1546.01	21
1547.06	25.5
1548.11	23.5
1549.16	23.5
1550.21	19
1551.26	29.5
1552.31	27
1553.36	23.5
1554.41	23
1555.46	29
1556.51	27
1557.56	24.5
1558.6	28
1559.65	26
1560.7	25.5
1561.75	25
1562.8	28
1563.84	23
1564.89	28.5
1565.94	25
1566.99	23
1568.03	26
1569.08	27.5
1570.13	28.5
1571.17	23
1572.22	25
1573.27	25
1574.31	23.5
1575.36	26.5
1576.4	25.5
1577.45	28.5
1578.5	28.5
1579.54	26
1580.59	28
1581.63	24
1582.68	23.5
1583.72	25
1584.76	25.5
1585.81	27
1586.85	27
1587.9	26
1588.94	26
1589.98	26
1591.03	24
1592.07	29
1593.11	25
1594.16	24
1595.2	24
1596.24	28
1597.29	26.5
1598.33	27
1599.37	26
1600.41	26.5
1601.45	27.5
1602.49	26
1603.54	28
1604.58	26
1605.62	27.5
1606.66	24
1607.7	28
1608.74	27
1609.78	23
1610.82	27.5
1611.86	24
1612.9	25.5
1613.94	23.5
1614.98	23
1616.02	24
1617.06	29
1618.1	29.5
1619.14	23.5
1620.18	25
1621.22	29
1622.25	25.5
1623.29	25.5
1624.33	23
1625.37	26.5
1626.41	24
1627.45	25
1628.48	24
1629.52	25
1630.56	26.5
1631.59	27
1632.63	26
1633.67	26.5
1634.7	27
1635.74	25.5
1636.78	24
1637.81	24.5
1638.85	29.5
1639.88	22.5
1640.92	24
1641.96	23.5
1642.99	22.5
1644.03	29
1645.06	26
1646.1	25
1647.13	25
1648.17	24.5
1649.2	25
1650.23	24.5
1651.27	29.5
1652.3	25
1653.33	29
1654.37	22.5
1655.4	26
1656.44	26.5
1657.47	23.5
1658.5	26
1659.53	25.5
1660.57	29
1661.6	24
1662.63	22
1663.66	25
1664.69	24.5
1665.73	26
1666.76	26
1667.79	27.5
1668.82	21
1669.85	28
1670.88	22
1671.91	27
1672.94	24
1673.97	28
1675.01	17
1676.03	27.5
1677.07	25.5
1678.1	27
1679.12	25.5
1680.15	27.5
1681.18	25.5
1682.21	26.5
1683.24	20
1684.27	21.5
1685.3	23
1686.33	25.5
1687.36	23.5
1688.38	26
1689.41	20
1690.44	24.5
1691.47	24.5
1692.5	28.5
1693.52	26.5
1694.55	23
1695.58	24.5
1696.6	25.5
1697.63	24
1698.66	23
1699.68	24.5
1700.71	25.5
1701.74	27
1702.76	26
1703.79	24
1704.81	23.5
1705.84	31.5
1706.86	24
1707.89	24
1708.91	23
1709.94	23
1710.96	25
1711.99	25
1713.01	24
1714.04	25
1715.06	25.5
1716.08	27
1717.11	27
1718.13	26.5
1719.16	24
1720.18	25
1721.2	27.5
1722.22	23
1723.25	24.5
1724.27	25.5
1725.29	24
1726.31	22.5
1727.34	25.5
1728.36	29.5
1729.38	26.5
1730.4	25.5
1731.42	27.5
1732.44	22
1733.47	24
1734.49	26
1735.51	24.5
1736.53	24
1737.55	25.5
1738.57	25.5
1739.59	27.5
1740.61	24.5
1741.63	23
1742.65	21
1743.67	24
1744.69	22.5
1745.71	22.5
1746.73	20.5
1747.75	23.5
1748.76	24.5
1749.78	25
1750.8	22
1751.82	25
1752.84	26
1753.86	21
1754.87	25
1755.89	24
1756.91	25
1757.93	28.5
1758.94	21.5
1759.96	27
1760.98	22.5
1761.99	25
1763.01	27
1764.03	28.5
1765.04	23.5
1766.06	24.5
1767.08	25.5
1768.09	23.5
1769.11	26
1770.12	26
1771.14	23.5
1772.15	28
1773.17	26
1774.18	26.5
1775.2	25.5
1776.21	20
1777.23	26.5
1778.24	29
1779.25	22.5
1780.27	27
1781.28	25.5
1782.3	24
1783.31	23.5
1784.32	26
1785.34	29
1786.35	26.5
1787.36	23
1788.37	24.5
1789.39	27
1790.4	25
1791.41	26.5
1792.42	27
1793.43	26.5
1794.45	22.5
1795.46	26
1796.47	23.5
1797.48	25
1798.49	29
1799.5	23.5
1800.51	26
1801.52	24
1802.53	19
1803.54	26
1804.55	24.5
1805.56	27.5
1806.57	21
1807.58	27
1808.59	25
1809.6	23.5
1810.61	29
1811.62	25
1812.63	29
1813.64	26
1814.65	25
1815.66	24
1816.66	24
1817.67	27
1818.68	24
1819.69	24.5
1820.69	25
1821.7	29
1822.71	22.5
1823.72	23
1824.72	25.5
1825.73	21
1826.74	23.5
1827.74	23
1828.75	27.5
1829.76	29
1830.76	26
1831.77	20.5
1832.77	26
1833.78	26
1834.79	25.5
1835.79	25
1836.8	24
1837.8	23
1838.81	28
1839.81	24.5
1840.81	26
1841.82	25.5
1842.82	22.5
1843.83	24
1844.83	23.5
1845.83	22
1846.84	25
1847.84	24.5
1848.84	24.5
1849.85	24
1850.85	22.5
1851.85	24.5
1852.86	26.5
1853.86	25
1854.86	29.5
1855.86	23.5
1856.86	26.5
1857.87	26
1858.87	26
1859.87	27
1860.87	27
1861.87	24
1862.87	24
1863.88	28.5
1864.88	23
1865.88	26
1866.88	24.5
1867.88	23
1868.88	23.5
1869.88	29
1870.88	27
1871.88	22
1872.88	27
1873.88	25.5
1874.87	25
1875.87	26.5
1876.87	24
1877.87	20.5
1878.87	26.5
1879.87	27
1880.87	24.5
1881.86	26
1882.86	25.5
1883.86	28
1884.86	23
1885.86	24
1886.85	26
1887.85	24.5
1888.85	27.5
1889.84	27.5
1890.84	25
1891.84	23.5
1892.83	26
1893.83	25
1894.83	28.5
1895.82	25
1896.82	28
1897.81	26.5
1898.81	25
1899.81	27.5
1900.8	26
1901.8	26.5
1902.79	25.5
1903.78	26
1904.78	27
1905.77	28
1906.77	25
1907.76	24
1908.76	26
1909.75	24.5
1910.74	24
1911.74	26.5
1912.73	26
1913.72	24.5
1914.72	27.5
1915.71	22.5
1916.7	20
1917.7	26
1918.69	25
1919.68	24
1920.67	25
1921.66	24
1922.66	25
1923.65	26.5
1924.64	20.5
1925.63	27
1926.62	19
1927.61	21.5
1928.6	24
1929.59	23.5
1930.59	22
1931.58	24
1932.57	25
1933.56	28.5
1934.55	25.5
1935.54	25
1936.53	26.5
1937.52	23.5
1938.51	22
1939.49	24
1940.48	23.5
1941.47	28
1942.46	20.5
1943.45	24
1944.44	26.5
1945.43	18
1946.42	22
1947.4	23
1948.39	23.25
1949.38	22
1950.37	23
1951.35	24.5
1952.34	26
1953.33	24
1954.31	26
1955.3	28.5
1956.29	27
1957.27	22
1958.26	26.5
1959.25	26.5
1960.23	24.5
1961.22	23.5
1962.21	21
1963.19	24.5
1964.18	22
1965.16	23
1966.15	24
1967.13	25.5
1968.12	18
1969.1	25
1970.09	23
1971.07	25
1972.05	24.5
1973.04	24.5
1974.02	26.5
1975.01	21.5
1975.99	25
1976.97	22
1977.96	22
1978.94	23.5
1979.92	24.5
1980.91	26
1981.89	21.5
1982.87	25
1983.85	24
1984.84	27.5
1985.82	24.5
1986.8	24.5
1987.78	24
1988.76	28.5
1989.74	28.5
1990.73	25.5
1991.71	24.5
1992.69	20
1993.67	24
1994.65	28.5
1995.63	23
1996.61	20
1997.59	25.5
1998.57	24.5
1999.55	26
2000.53	21
2001.51	24
2002.49	23.5
2003.47	25
2004.45	26.5
2005.43	25
2006.41	26.5
2007.39	23
2008.37	25.5
2009.34	23
2010.32	26
2011.3	26
2012.28	27
2013.26	28.5
2014.23	24
2015.21	23
2016.19	25
2017.17	24
2018.14	22.5
2019.12	20.5
2020.1	22.5
2021.07	26
2022.05	26
2023.03	25.5
2024	20.5
2024.98	23
2025.96	25
2026.93	25
2027.91	23.5
2028.88	25
2029.86	22
2030.83	27
2031.81	25.5
2032.78	20
2033.76	24
2034.73	23
2035.71	21.5
2036.68	20.5
2037.66	29
2038.63	23.5
2039.6	21
2040.58	24
2041.55	24.5
2042.52	23
2043.5	20
2044.47	22
2045.44	22
2046.42	25.5
2047.39	23.5
2048.36	25.5
2049.33	20.5
2050.31	24
2051.28	26
2052.25	27.5
2053.22	25.5
2054.19	27
2055.17	22
2056.14	27
2057.11	22
2058.08	24.5
2059.05	22
2060.02	19
2060.99	21.5
2061.96	28.5
2062.93	23
2063.9	24
2064.87	23.5
2065.84	23
2066.81	22.5
2067.78	22
2068.75	25
2069.72	23
2070.69	26
2071.66	24.5
2072.63	25.5
2073.6	25
2074.56	25
2075.53	25
2076.5	25
2077.47	22
2078.44	28
2079.4	26
2080.37	22
2081.34	28
2082.31	20.5
2083.27	23
2084.24	25
2085.21	25
2086.18	23.5
2087.14	24
2088.11	26
2089.07	22.5
2090.04	22
2091.01	23.5
2091.97	24
2092.94	19
2093.9	23
2094.87	22.5
2095.83	19.5
2096.8	23.5
2097.76	24
2098.73	21
2099.69	22
2100.66	22.5
2101.62	23.5
2102.59	22
2103.55	23
2104.52	20
2105.48	24
2106.44	23.5
2107.41	23.5
2108.37	25.5
2109.33	22.5
2110.3	24
2111.26	25
2112.22	23
2113.18	28.5
2114.15	16
2115.11	25.5
2116.07	28.5
2117.03	28.5
2118	25
2118.96	24.5
2119.92	25.5
2120.88	27
2121.84	19
2122.8	22.5
2123.76	25.5
2124.72	24
2125.68	21.5
2126.65	23.5
2127.61	19
2128.57	25
2129.53	25
2130.49	20
2131.45	24
2132.41	22.5
2133.36	22.5
2134.32	22
2135.28	24
2136.24	27
2137.2	22
2138.16	26.5
2139.12	24.5
2140.08	25.5
2141.04	23.5
2141.99	24
2142.95	23.9883
2143.91	22.962
2144.87	24.4983
2145.83	26.4768
2146.78	25.9307
2147.74	22.4428
2148.7	24.7531
2149.66	20.1647
2150.61	26.9538
2151.57	25.7372
2152.53	24.143
2153.48	21.4647
2154.44	22.6927
2155.4	26.431
2156.35	20.4663
2157.31	18.455
2158.26	23.7507
2159.22	20.9815
2160.17	22.7471
2161.13	21.6213
2162.08	24.8339
2163.04	23.3561
2163.99	24.676
2164.95	18.4111
2165.9	21.8583
2166.86	22.2476
2167.81	22.2249
2168.77	22.8994
2169.72	24.1852
2170.67	22.8177
2171.63	22.4895
2172.58	24.7819
2173.54	24.1242
2174.49	22.806
2175.44	22.6955
2176.39	21.8803
2177.35	22.8931
2178.3	22.7718
2179.25	22.7954
2180.2	24.4367
2181.16	23.3932
2182.11	22.9312
2183.06	24.05
2184.01	21.0374
2184.96	23.1581
2185.92	24.3271
2186.87	22.4807
2187.82	22.2455
2188.77	23.6002
2189.72	21.0973
2190.67	22.8501
2191.62	22.1568
2192.57	22.867
2193.52	23.7791
2194.47	22.9418
2195.42	22.5173
2196.37	23.1712
2197.32	21.9377
2198.27	24.0495
2199.22	21.3543
2200.17	22.0733
2201.12	22.4562
2202.07	22.5247
2203.02	22.8389
2203.97	19.2981
2204.92	21.881
2205.87	21.9542
2206.81	20.2531
2207.76	22.4195
2208.71	21.2273
2209.66	24.1578
2210.61	24.1295
2211.55	22.2414
2212.5	25.0197
2213.45	20.0431
2214.4	19.5076
2215.34	24.5133
2216.29	25.4883
2217.24	23.6703
2218.18	23.3932
2219.13	23.284
2220.08	21.3855
2221.02	23.3696
2221.97	22.7056
2222.92	25.1523
2223.86	23.3199
2224.81	24.8771
2225.75	24.7481
2226.7	24.6481
2227.64	24.0066
2228.59	22.5745
2229.53	23.778
2230.48	19.3835
2231.42	24.229
2232.37	20.9045
2233.31	22.0295
2234.26	22.9938
2235.2	23.7857
2236.14	23.0259
2237.09	23.6942
2238.03	20.6369
2238.97	23.4067
2239.92	19.2862
2240.05	18.5
2241	24
2241.95	25
2242.89	20.5
2243.84	22.5
2244.79	22
2245.74	22
2246.68	21
2247.63	22
2248.58	25.5
2249.53	22.5
2250.47	28
2251.42	20.5
2252.36	23
2253.31	21
2254.26	25.5
2255.2	24
2256.15	20.5
2257.1	23
2258.04	23.5
2258.99	21
2259.93	25.5
2260.88	26
2261.82	23
2262.77	26
2263.71	22.5
2264.66	24.5
2265.6	27
2266.55	24
2267.49	20.5
2268.43	21
2269.38	19.5
2270.32	22
2271.26	23.5
2272.21	24.5
2273.15	22
2274.09	23
2275.04	24
2275.98	25
2276.92	24
2277.87	24.5
2278.81	25.5
2279.75	23.5
2280.69	22.5
2281.64	25.5
2282.58	21
2283.52	26
2284.46	23
2285.4	28
2286.34	23.5
2287.29	25
2288.23	22
2289.17	21.5
2290.11	23
2291.05	22.5
2291.99	22.5
2292.93	24.5
2293.87	24
2294.81	19
2295.75	25
2296.69	21
2297.63	23.5
2298.57	22
2299.51	21
2300.45	23
2301.39	21.5
2302.33	22
2303.27	21.5
2304.2	22.5
2305.14	21
2306.08	28
2307.02	24
2307.96	23
2308.9	24.5
2309.83	28
2310.77	24
2311.71	22.5
2312.65	23
2313.58	26.5
2314.52	22
2315.46	24.5
2316.39	24.5
2317.33	24
2318.27	25
2319.21	23
2320.14	19.5
2321.08	25
2322.01	26
2322.95	21.5
2323.89	24
2324.82	24
2325.76	29
2326.69	27.5
2327.63	23
2328.56	25
2329.5	25
2330.43	16.5
2331.37	22
2332.3	25.5
2333.24	22.5
2334.17	26.5
2335.1	22
2336.04	22
2336.97	18
2337.91	24.5
2338.84	20.5
2339.77	20
2340.71	22.5
2341.64	23.5
2342.57	23.5
2343.51	25.5
2344.44	23.5
2345.37	26
2346.3	25.5
2347.24	23
2348.17	22.5
2349.1	21
2350.03	24
2350.96	23
2351.89	25.5
2352.83	25.5
2353.76	23.5
2354.69	22
2355.62	24
2356.55	23
2357.48	27.5
2358.41	27
2359.34	23
2360.27	24
2361.2	24
2362.13	23
2363.06	23
2363.99	26
2364.92	25.5
2365.85	20
2366.78	28
2367.71	24
2368.64	21.5
2369.57	25
2370.5	22
2371.43	19.5
2372.36	24
2373.28	24.5
2374.21	24
2375.14	26.5
2376.07	24.5
2377	23
2377.93	26
2378.85	25.5
2379.78	23.5
2380.71	20
2381.63	21
2382.56	23.5
2383.49	25.5
2384.42	26.5
2385.34	21.5
2386.27	22
2387.2	24
2388.12	20
2389.05	22
2389.97	20.5
2390.9	22.5
2391.82	25
2392.75	21
2393.68	21.5
2394.6	24.5
2395.53	22.5
2396.45	24
2397.38	24.5
2398.3	26
2399.23	21
2400.15	25.5
2401.07	23
2402	23.5
2402.92	23.5
2403.85	25
2404.77	25
2405.69	22.5
2406.62	26.5
2407.54	24.5
2408.46	21.5
2409.39	26
2410.31	20
2411.23	26
2412.16	24
2413.08	22
2414	27.5
2414.92	24
2415.85	21
2416.77	27
2417.69	22
2418.61	26.5
2419.53	25.5
2420.45	22.5
2421.38	23.5
2422.3	22.5
2423.22	23
2424.14	23.5
2425.06	24
2425.98	26
2426.9	23.5
2427.82	26.5
2428.74	22
2429.66	23.5
2430.58	29
2431.5	24
2432.42	25.5
2433.34	23
2434.26	28
2435.18	26
2436.1	25.5
2437.02	24.5
2437.94	24.5
2438.85	22.5
2439.77	19
2440.69	26
2441.61	23
2442.53	27.5
2443.45	25
2444.36	24.5
2445.28	24
2446.2	22
2447.12	22
2448.03	19
2448.95	27
2449.87	22.5
2450.79	20
2451.7	23
2452.62	25
2453.54	23
2454.45	25.5
2455.37	23
2456.28	20
2457.2	27.5
2458.12	22.5
2459.03	25
2459.95	22
2460.86	22.5
2461.78	24
2462.69	27
2463.61	22
2464.52	22
2465.44	20
2466.35	26.5
2467.27	21.5
2468.18	24
2469.1	20.5
2470.01	24.5
2470.93	21
2471.84	25
2472.75	27.5
2473.67	25.5
2474.58	23
2475.49	25.5
2476.41	26
2477.32	27.5
2478.23	25.5
2479.15	25.5
2480.06	24.5
2480.97	24
2481.88	24
2482.79	22.5
2483.71	25
2484.62	27
2485.53	27.5
2486.44	22.5
2487.35	23.5
2488.26	26
2489.18	26
2490.09	26.5
2491	29.5
2491.91	26
2492.82	22
2493.73	21
2494.64	28
2495.55	26
2496.46	25.5
2497.37	27.5
2498.28	22
2499.19	28
2500.1	22.5
2501.01	25
2501.92	26.5
2502.83	23.5
2503.74	26.5
2504.65	24
2505.56	28
2506.47	24.5
2507.37	24
2508.28	22.5
2509.19	25.5
2510.1	22
2511.01	21.5
2511.92	22
2512.82	21.5
2513.73	25.5
2514.64	24.5
2515.55	26.5
2516.45	26.5
2517.36	27.5
2518.27	19
2519.17	23
2520.08	26.5
2520.99	23
2521.89	24
2522.8	24
2523.71	25
2524.61	23
2525.52	23.5
2526.42	27
2527.33	27
2528.24	26
2529.14	25
2530.05	26.5
2530.95	24
2531.86	26
2532.76	26
2533.67	27.5
2534.57	25
2535.48	26.5
2536.38	23
2537.28	23
2538.19	25.5
2539.09	24
2540	23
2540.9	23
2541.8	22.5
2542.71	25
2543.61	22.5
2544.51	26
2545.42	28
2546.32	23
2547.22	23.5
2548.12	24
2549.03	24
2549.93	24
2550.83	25
2551.73	22
2552.63	23
2553.54	22
2554.44	22
2555.34	25
2556.24	24
2557.14	25
2558.04	22
2558.94	25.5
2559.85	27
2560.75	26.5
2561.65	26
2562.55	23.5
2563.45	26.5
2564.35	25.5
2565.25	25
2566.15	24.5
2567.05	28
2567.95	26.5
2568.85	25
2569.75	24.5
2570.65	27.5
2571.55	24
2572.44	26.5
2573.34	24
2574.24	25
2575.14	23.5
2576.04	21
2576.94	27.5
2577.84	25.5
2578.73	24.5
2579.63	24
2580.53	25
2581.43	21
2582.33	24
2583.22	25.5
2584.12	26.5
2585.02	24
2585.91	26
2586.81	23
2587.71	24.5
2588.6	23
2589.5	27.5
2590.4	25
2591.29	25
2592.19	26
2593.09	23.5
2593.98	27
2594.88	26
2595.77	24
2596.67	23.5
2597.56	24
2598.46	24.5
2599.35	23.5
2600.25	25
2601.14	21.5
2602.04	23
2602.93	27.5
2603.83	25
2604.72	26.5
2605.62	27.5
2606.51	24.5
2607.4	25
2608.3	28.5
2609.19	24
2610.09	24.5
2610.98	23
2611.87	26.5
2612.76	27.5
2613.66	21.5
2614.55	25.5
2615.44	21
2616.34	22.5
2617.23	29
2618.12	24
2619.01	26.5
2619.9	22
2620.8	26
2621.69	26
2622.58	27.5
2623.47	21
2624.36	22
2625.25	22
2626.15	25
2627.04	25
2627.93	23
2628.82	22.5
2629.71	25.5
2630.6	27
2631.49	25.5
2632.38	28
2633.27	20.5
2634.16	24
2635.05	25
2635.94	22.5
2636.83	28.5
2637.72	23.5
2638.61	23
2639.5	27
2640.39	27.5
2641.28	23
2642.16	27
2643.05	24.5
2643.94	26.5
2644.83	27
2645.72	26
2646.61	26
2647.49	21.5
2648.38	27.5
2649.27	26
2650.16	25
2651.05	22.5
2651.93	24
2652.82	24
2653.71	29.5
2654.59	29.5
2655.48	22.5
2656.37	27
2657.25	23
2658.14	26
2659.03	25.5
2659.91	23
2660.8	25.5
2661.69	24.5
2662.57	22.5
2663.46	25
2664.34	27
2665.23	23
2666.11	21
2667	24.5
2667.88	26
2668.77	23
2669.65	29
2670.54	25
2671.42	24.5
2672.31	26
2673.19	25.5
2674.08	23.5
2674.96	25
2675.84	24.5
2676.73	23
2677.61	28
2678.49	25
2679.38	24.5
2680.26	21.5
2681.14	27
2682.03	26
2682.91	25
2683.79	29
2684.68	24.5
2685.56	22.5
2686.44	23
2687.32	23
2688.2	22
2689.09	27
2689.97	21.5
2690.85	24
2691.73	24.5
2692.61	21.5
2693.49	25
2694.38	23.5
2695.26	22
2696.14	28
2697.02	24.5
2697.9	26
2698.78	21.5
2699.66	25
2700.54	21.5
2701.42	24
2702.3	25
2703.18	25
2704.06	23
2704.94	26.5
2705.82	23
2706.7	27
2707.58	24
2708.46	25.5
2709.34	23
2710.21	24.5
2711.09	25
2711.97	27
2712.85	24.5
2713.73	23.5
2714.61	28
2715.49	21
2716.36	24.5
2717.24	22.5
2718.12	25.5
2719	24.5
2719.87	25
2720.75	23
2721.63	28
2722.51	25.5
2723.38	24.5
2724.26	24.5
2725.14	21.5
2726.01	26
2726.89	24.5
2727.77	27
2728.64	21.5
2729.52	24
2730.39	25
2731.27	22.5
2732.15	25
2733.02	26
2733.9	27
2734.77	27
2735.65	25.5
2736.52	23
2737.4	26.5
2738.27	22
2739.15	24.5
2740.02	24
2740.89	28
2741.77	23.5
2742.64	25.5
2743.52	24
2744.39	25
2745.27	26
2746.14	25.5
2747.01	24
2747.89	23
2748.76	27
2749.63	20
2750.51	22
2751.38	23
2752.25	26.5
2753.12	23
2754	22
2754.87	27
2755.74	24
2756.61	24
2757.48	26.5
2758.36	23.5
2759.23	24
2760.1	24
2760.97	26
2761.84	22.5
2762.71	22
2763.59	27
2764.46	24.5
2765.33	25
2766.2	26
2767.07	22
2767.94	23.5
2768.81	27.5
2769.68	24.5
2770.55	22.5
2771.42	22
2772.29	24
2773.16	26.5
2774.03	25
2774.9	28
2775.77	25.5
2776.64	26.5
2777.51	29
2778.37	24
2779.24	21.5
2780.11	26
2780.98	26.5
2781.85	26
2782.72	21
2783.59	25.5
2784.45	23.5
2785.32	24.5
2786.19	29
2787.06	26
2787.92	22
2788.79	24
2789.66	27
2790.53	28
2791.39	21.5
2792.26	24
2793.13	23
2793.99	29.5
2794.86	25
2795.73	25
2796.59	24
2797.46	24.5
2798.33	28.5
2799.19	27
2800.06	26
2800.92	28.5
2801.79	28.5
2802.65	25
2803.52	28
2804.39	21.5
2805.25	26
2806.11	25.5
2806.98	26
2807.84	25.5
2808.71	26
2809.57	31
2810.44	24
2811.3	23.5
2812.17	28
2813.03	26
2813.89	23.5
2814.76	24.5
2815.62	29
2816.49	23
2817.35	29
2818.21	26
2819.07	22
2819.94	27
2820.8	25.5
2821.66	23
2822.53	22
2823.39	27.5
2824.25	26.5
2825.11	26
2825.97	29.5
2826.84	24
2827.7	25
2828.56	24
2829.42	27.5
2830.28	24
2831.14	27.5
2832.01	29.5
2832.87	24.5
2833.73	26.5
2834.59	25
2835.45	28
2836.31	21
2837.17	26
2838.03	23
2838.89	24.5
2839.75	25
2840.61	29
2841.47	23.5
2842.33	25
2843.19	27.5
2844.05	21
2844.91	24.5
2845.77	25.5
2846.63	26
2847.48	23.5
2848.34	26.5
2849.2	23
2850.06	27.5
2850.92	26
2851.78	28.5
2852.64	25
2853.49	21
2854.35	24.5
2855.21	27
2856.07	22
2856.93	27
2857.78	26.5
2858.64	29.5
2859.5	26.5
2860.35	25
2861.21	27.5
2862.07	26
2862.93	26.5
2863.78	22
2864.64	24
2865.49	26.5
2866.35	29.5
2867.21	27.5
2868.06	28.5
2868.92	27
2869.77	29
2870.63	32
2871.49	23
2872.34	31
2873.2	28
2874.05	29
2874.91	29
2875.76	30.5
2876.62	30
2877.47	25
2878.32	32
2879.18	31
2880.03	29
2880.89	31
2881.74	30.5
2882.6	31
2883.45	32.5
2884.3	30
2885.16	32.5
2886.01	33
2886.86	30.5
2887.72	35.5
2888.57	34
2889.42	35.5
2890.27	40
2891.13	38
2891.98	39.5
2892.83	36.5
2893.68	43
2894.54	41
2895.39	42
2896.24	45
2897.09	45
2897.94	44.5
2898.8	47
2899.65	50
2900.5	51
2901.35	55.5
2902.2	58
2903.05	57
2903.9	60
2904.75	58
2905.6	62.5
2906.45	57
2907.3	65
2908.15	62
2909.01	60
2909.85	53
2910.7	54
2911.55	59.5
2912.4	52
2913.25	50.5
2914.1	42
2914.95	43.5
2915.8	34.5
2916.65	41.5
2917.5	39
2918.35	33.5
2919.2	37
2920.04	35
2920.89	27.5
2921.74	37.5
2922.59	34
2923.44	33
2924.29	28.5
2925.13	33
2925.98	30.5
2926.83	29
2927.68	31.5
2928.52	30.5
2929.37	25.5
2930.22	26
2931.06	33
2931.91	29.5
2932.76	28
2933.6	25.5
2934.45	29
2935.3	26
2936.14	26
2936.99	30.5
2937.83	24
2938.68	28.5
2939.53	30.5
2940.37	24
2941.22	25.5
2942.06	26.5
2942.91	31.5
2943.75	26
2944.6	27
2945.44	30
2946.29	26
2947.13	29.5
2947.98	30.5
2948.82	31
2949.66	31
2950.51	32
2951.35	32
2952.2	33
2953.04	34
2953.88	33.5
2954.73	31
2955.57	30.5
2956.41	33
2957.26	34
2958.1	34.5
2958.94	29
2959.79	33
2960.63	36
2961.47	38.5
2962.31	35
2963.15	43
2964	41.5
2964.84	40.5
2965.68	38
2966.52	40
2967.37	38
2968.21	38
2969.05	41.5
2969.89	36
2970.73	36
2971.57	35.4951
2972.41	33.8953
2973.25	32.0508
2974.09	32.1323
2974.93	30.9468
2975.77	32.9279
2976.62	32.4962
2977.46	29.5138
2978.3	30.3001
2979.14	30.935
2979.98	25.4294
2980.81	26.8267
2981.65	28.7011
2982.49	26.862
2983.33	28.5866
2984.17	29.1632
2985.01	26.423
2985.85	27.9501
2986.69	22.3261
2987.53	26.5856
2988.37	26.6019
2989.21	22.5428
2990.04	28.5383
2990.88	26.5121
2991.72	26.7379
2992.56	23.8162
2993.4	23.5292
2994.23	24.4378
2995.07	24.5
2995.91	26.4238
2996.75	22.2216
2997.58	26.5418
2998.42	24.0725
2999.26	22.402
3000.1	25.3728
3000.93	25.1375
3001.77	21.7635
3002.61	26.5316
3003.44	25.3131
3004.28	23.2855
3005.11	25.4711
3005.95	25.4839
3006.79	22.6707
3007.62	22.7123
3008.46	23.1423
3009.29	22.5177
3010.13	23.376
3010.97	20.884
3011.8	24.7564
3012.64	20.5274
3013.47	21.793
3014.31	24.5
3015.14	25.7749
3015.98	24.3172
3016.81	21.8976
3017.64	23.4604
3018.48	25.1078
3019.31	23.4593
3020.15	24.3971
3020.98	22.9045
3021.82	24.307
3022.65	22.371
3023.48	22.5076
3024.32	23.6165
3025.15	22.726
3025.98	23.0922
3026.82	23.0887
3027.65	23.6974
3028.48	25.9014
3029.31	24.5772
3030.15	23.9434
3030.98	22.6239
3031.81	21.5176
3032.64	20.6581
3033.48	21.4098
3034.31	19.8202
3035.14	21.0062
3035.97	22.1835
3036.8	23.6488
3037.64	23.7106
3038.47	22.7489
3039.3	22.2253
3040.13	22.1761
3040.96	23.5393
3041.79	23.7153
3042.62	24.3399
3043.45	24.236
3044.28	22.396
3045.12	23.8091
3045.95	24.3773
3046.78	21.5503
3047.61	21.0723
3048.44	23.2896
3049.27	23.5
3050.1	23.4378
3050.92	22.7782
3051.75	22.9961
3052.58	23.6042
3053.41	23.3617
3054.24	24.2946
3055.07	25.4114
3055.9	21.449
3056.73	21.0244
3057.26	22
3058.09	24.5
3058.93	24.5
3059.76	22.5
3060.59	18
3061.43	26
3062.26	24
3063.09	25.5
3063.92	24
3064.76	22
3065.59	20
3066.42	21.5
3067.25	21
3068.08	23
3068.92	24
3069.75	22
3070.58	23.5
3071.41	22.5
3072.24	23.5
3073.07	23.5
3073.9	27.5
3074.73	23.5
3075.57	23
3076.4	24.5
3077.23	26
3078.06	24.5
3078.89	23.5
3079.72	27.5
3080.55	25
3081.38	26.5
3082.21	29.5
3083.04	21
3083.87	26
3084.7	27
3085.53	22.5
3086.36	20
3087.19	22
3088.01	26
3088.84	21.5
3089.67	28.5
3090.5	26.5
3091.33	21
3092.16	24.5
3092.99	21.5
3093.81	26
3094.64	24
3095.47	22.5
3096.3	23.5
3097.13	25
3097.95	21.5
3098.78	26
3099.61	26.5
3100.44	23.5
3101.26	22.5
3102.09	27
3102.92	22.5
3103.74	23
3104.57	23
3105.4	29.5
3106.22	26.5
3107.05	24
3107.88	23
3108.7	25
3109.53	25
3110.35	24.5
3111.18	25
3112.01	25
3112.83	28
3113.66	21
3114.48	24.5
3115.31	24.5
3116.13	22
3116.96	23
3117.78	23.5
3118.61	24
3119.43	23.5
3120.26	22
3121.08	23.5
3121.9	26
3122.73	23.5
3123.55	25
3124.38	23.5
3125.2	20
3126.02	25
3126.85	25
3127.67	25.5
3128.49	25.5
3129.32	23
3130.14	26
3130.96	24
3131.79	27
3132.61	23.5
3133.43	21
3134.25	23
3135.08	24
3135.9	24.5
3136.72	24
3137.54	28.5
3138.37	20
3139.19	22.5
3140.01	29
3140.83	23
3141.65	23.5
3142.47	23
3143.29	24.5
3144.12	28
3144.94	23.5
3145.76	28
3146.58	22
3147.4	21
3148.22	25
3149.04	23.5
3149.86	22
3150.68	22
3151.5	23
3152.32	20.5
3153.14	25.5
3153.96	20
3154.78	20.5
3155.6	23
3156.42	26
3157.24	28.5
3158.06	28
3158.88	22
3159.7	27.5
3160.51	26
3161.33	25.5
3162.15	21
3162.97	21.5
3163.79	26
3164.61	26
3165.42	27
3166.24	22
3167.06	20
3167.88	23.5
3168.7	23.5
3169.51	22.5
3170.33	24
3171.15	22
3171.97	22
3172.78	23.5
3173.6	23
3174.42	22
3175.23	22
3176.05	20.5
3176.87	27
3177.68	24.5
3178.5	26.5
3179.32	25
3180.13	25
3180.95	22.5
3181.76	22.5
3182.58	23.5
3183.4	26
3184.21	20
3185.03	27
3185.84	22
3186.66	22
3187.47	25.5
3188.29	25.5
3189.1	25
3189.92	27
3190.73	20.5
3191.55	24
3192.36	24
3193.17	26.5
3193.99	27
3194.8	25.5
3195.62	22.5
3196.43	22
3197.24	25
3198.06	26
3198.87	24
3199.68	26.5
3200.5	24
3201.31	23.5
3202.12	19
3202.94	25
3203.75	22.5
3204.56	23.5
3205.38	20
3206.19	23.5
3207	23
3207.81	24
3208.62	26
3209.44	24
3210.25	26
3211.06	22.5
3211.87	23.5
3212.68	23.5
3213.49	22.5
3214.31	23.5
3215.12	27.5
3215.93	23
3216.74	28
3217.55	22
3218.36	25
3219.17	23.5
3219.98	26.5
3220.79	25.5
3221.6	23
3222.41	25
3223.22	22
3224.03	25.5
3224.84	24
3225.65	23.5
3226.46	24
3227.27	21.5
3228.08	24
3228.89	22
3229.7	24
3230.51	24
3231.32	24
3232.13	24
3232.94	21
3233.74	26
3234.55	23
3235.36	25
3236.17	25
3236.98	25.5
3237.78	29
3238.59	22.5
3239.4	25
3240.21	20
3241.02	22
3241.82	28
3242.63	25.5
3243.44	25
3244.25	25.5
3245.05	19
3245.86	27.5
3246.67	26
3247.47	27.5
3248.28	22.5
3249.09	23.5
3249.89	25.5
3250.7	22
3251.5	27
3252.31	24.5
3253.12	28.5
3253.92	21.5
3254.73	24
3255.53	22
3256.34	22.5
3257.14	26
3257.95	25.5
3258.75	26.5
3259.56	26
3260.36	25
3261.17	26
3261.97	25
3262.78	24.5
3263.58	24.5
3264.39	25
3265.19	22.5
3265.99	22.5
3266.8	23.5
3267.6	27
3268.41	20.5
3269.21	23.5
3270.01	25
3270.82	26
3271.62	22
3272.42	24.5
3273.23	22
3274.03	21
3274.83	21
3275.64	26.5
3276.44	25.5
3277.24	22.5
3278.04	27.5
3278.85	20
3279.65	25
3280.45	24.5
3281.25	25.5
3282.05	20.5
3282.85	22.5
3283.66	28
3284.46	24
3285.26	26
3286.06	23.5
3286.86	25
3287.66	23.5
3288.46	19
3289.27	26.5
3290.07	21
3290.87	24.5
3291.67	26.5
3292.47	26
3293.27	22
3294.07	21
3294.87	23
3295.67	24.5
3296.47	26
3297.27	25.5
3298.07	23
3298.87	24
3299.67	22
3300.47	24
3301.26	25
3302.06	20
3302.86	26.5
3303.66	19
3304.46	25.5
3305.26	20.5
3306.06	25.5
3306.86	25
3307.65	21.5
3308.45	24.5
3309.25	24.5
3310.05	23
3310.85	27
3311.64	25.5
3312.44	25.5
3313.24	26
3314.04	21
3314.83	23.5
3315.63	22.5
3316.43	28
3317.22	24.5
3318.02	26.5
3318.82	26.5
3319.62	26.5
3320.41	26
3321.21	24
3322	23
3322.8	25.5
3323.6	26
3324.39	20.5
3325.19	24
3325.98	22
3326.78	18.5
3327.58	24.5
3328.37	22
3329.17	24
3329.96	26
3330.76	26
3331.55	26
3332.35	25
3333.14	24
3333.94	26
3334.73	26
3335.52	23.5
3336.32	21
3337.11	23.5
3337.91	24
3338.7	24
3339.5	21
3340.29	23
3341.08	29
3341.88	22
3342.67	25
3343.46	24
3344.26	25.5
3345.05	23.5
3345.84	22
3346.63	26.5
3347.43	26
3348.22	23.5
3349.01	20
3349.8	21
3350.6	25
3351.39	22
3352.18	23
3352.97	23
3353.77	24
3354.56	26.5
3355.35	19
3356.14	22.5
3356.93	23.5
3357.72	23
3358.51	21
3359.31	20.5
3360.1	24
3360.89	23.5
3361.68	24.5
3362.47	27.5
3363.26	20.5
3364.05	23.5
3364.84	19
3365.63	24.5
3366.42	29
3367.21	24.5
3368	23
3368.79	24
3369.58	25.5
3370.37	24
3371.16	21.5
3371.95	24
3372.74	22
3373.53	25
3374.32	23
3375.1	25
3375.89	24
3376.68	24
3377.47	26
3378.26	22
3379.05	24.5
3379.84	24
3380.62	26
3381.41	22
3382.2	25
3382.99	25
3383.78	29
3384.56	25.5
3385.35	24
3386.14	23.5
3386.93	24.5
3387.71	24.5
3388.5	25.5
3389.29	24.5
3390.07	30.5
3390.86	25
3391.65	22
3392.43	22.5
3393.22	23
3394.01	21
3394.79	26
3395.58	22
3396.36	24
3397.15	27
3397.94	23.5
3398.72	23.5
3399.51	22
3400.29	23
3401.08	26.5
3401.86	25
3402.65	23
3403.43	21.5
3404.22	27
3405	19.5
3405.79	22
3406.57	23
3407.36	23.5
3408.14	25
3408.93	24
3409.71	25.5
3410.49	24.5
3411.28	25
3412.06	24
3412.84	26.5
3413.63	26.5
3414.41	25
3415.2	20.5
3415.98	24
3416.76	24
3417.54	25.5
3418.33	26.5
3419.11	28
3419.89	22.5
3420.68	24.5
3421.46	26
3422.24	22
3423.02	23
3423.81	23
3424.59	26
3425.37	23
3426.15	28.5
3426.93	21.5
3427.71	25.5
3428.5	26
3429.28	21.5
3430.06	20
3430.84	27
3431.62	22
3432.4	22.5
3433.18	27
3433.96	25.5
3434.75	24.5
3435.53	25.5
3436.31	22
3437.09	25.5
3437.87	27
3438.65	26.5
3439.43	23.5
3440.21	26
3440.99	23
3441.77	22
3442.55	22
3443.33	23.5
3444.1	27.5
3444.88	23.5
3445.66	23.5
3446.44	25
3447.22	27
3448	21
3448.78	26
3449.56	22
3450.34	20.5
3451.11	26
3451.89	27
3452.67	23
3453.45	24
3454.23	23.5
3455	24
3455.78	24
3456.56	27.5
3457.34	23.5
3458.11	25
3458.89	23.5
3459.67	23
3460.45	23
3461.22	23
3462	26
3462.78	26
3463.55	24.5
3464.33	22.5
3465.11	29
3465.88	27
3466.66	26.5
3467.44	19.5
3468.21	25
3468.99	24.5
3469.76	21
3470.54	26.5
3471.32	24
3472.09	27.5
3472.87	25.5
3473.64	26
3474.42	21
3475.19	21.5
3475.97	23
3476.74	24
3477.52	24
3478.29	27
3479.07	29.5
3479.84	27.5
3480.61	22
3481.39	20
3482.16	22
3482.94	21
3483.71	26
3484.48	25
3485.26	26.5
3486.03	25
3486.81	26.5
3487.58	26
3488.35	24
3489.13	23
3489.9	23
3490.67	23.5
3491.44	26
3492.22	25.5
3492.99	26.5
3493.76	23.5
3494.54	23
3495.31	26
3496.08	25
3496.85	24.5
3497.62	23
3498.4	26.5
3499.17	21
3499.94	26.5
