#Acq. time (s)=	5
#Accumulations=	5
#Range (cm-ｹ)=	100...3500
#Windows=	4
#Autofocus=	Off
#AutoExposure=	Off
#Spike filter=	Multiple accum.
#Delay time (s)=	0
#Binning=	1
#Readout mode=	Signal
#DeNoise=	Off
#ICS correction=	Off
#Dark correction=	Off
#Inst. Process=	Off
#Instrument=	LabRAM HR Evol
#Detector=	Syncerity OE
#Objective=	x100_VIS
#Grating=	600 (500nm)
#ND Filter=	25%
#Laser=	633nm_Edge
#Hole=	100.021
#Range=	Visible
#Project=	verificaciones
#Sample=	at4
#Site=	plain
#Title=	bolusat4plain
#Remark=	
#Date=	14.01.2026 13:41
#Acquired=	14.01.2026 13:41:33
100.618	27.5
101.901	32
103.185	31
104.468	30.5
105.751	31.5
107.033	34
108.316	30
109.598	31
110.88	29
112.162	25.5
113.445	33
114.727	30.5
116.008	28
117.289	35.5
118.57	30.5
119.85	32.5
121.13	27.5
122.411	32.5
123.691	35
124.97	31
126.25	32
127.529	34.5
128.808	30.5
130.086	29.5
131.364	34.5
132.643	37
133.921	34
135.199	35
136.477	32.5
137.755	31.5
139.032	34.5
140.309	39.5
141.586	36.5
142.863	31.5
144.14	38
145.415	38
146.691	36
147.967	38
149.243	39.5
150.518	38
151.794	37.5
153.067	40
154.342	42.5
155.617	42
156.892	42
158.166	37.5
159.439	38.5
160.712	39
161.986	43.5
163.26	39
164.531	39
165.805	35
167.077	38.5
168.35	31.5
169.621	39
170.893	34.5
172.165	35.5
173.437	39
174.707	37
175.979	37
177.25	40
178.519	34.5
179.79	35
181.061	38
182.33	36
183.6	38
184.87	41.5
186.138	40.5
187.408	37
188.676	41
189.945	35
191.214	34.5
192.481	42
193.75	38.5
195.016	43
196.285	36
197.552	36
198.819	38.5
200.086	36.5
201.352	39
202.619	38
203.884	33.5
205.151	34
206.416	35
207.682	36
208.947	34.5
210.213	33.5
211.477	34.5
212.742	35
214.006	34
215.271	31.5
216.535	29
217.799	31.5
219.062	36
220.326	34
221.589	35.5
222.851	36
224.115	33
225.377	32
226.64	30
227.901	29
229.163	32
230.425	30.5
231.686	31
232.947	31
234.209	30
235.469	32
236.729	32
237.991	25
239.25	30.5
240.51	28.5
241.771	31.5
243.03	29.5
244.288	27
245.549	28
246.807	33
248.065	32
249.323	29
250.583	27
251.84	28
253.098	28
254.355	28.5
255.613	27.5
256.87	29.5
258.127	26
259.383	29
260.639	31
261.897	29.5
263.153	30.5
264.408	29.5
265.664	32.5
266.919	28
268.174	31.5
269.43	29
270.685	27
271.939	32
273.193	31
274.447	24
275.701	28.5
276.955	29
278.208	27.5
279.461	27.5
280.714	29.5
281.968	29.5
283.221	26.5
284.473	31
285.726	28
286.977	24
288.229	26
289.481	29
290.732	30.5
291.983	27
293.234	28.5
294.485	27.5
295.736	27.5
296.986	31.5
298.236	28.5
299.486	29
300.736	33
301.985	30
303.233	28
304.482	26.5
305.731	27.5
306.98	28.5
308.228	29
309.477	31
310.725	27
311.973	26.5
313.22	32
314.468	25.5
315.714	30
316.961	27.5
318.208	30.5
319.455	30.5
320.701	28
321.947	28
323.192	29
324.438	26
325.684	29
326.929	28.5
328.175	28
329.418	25
330.663	26
331.908	32
333.152	28.5
334.395	30
335.639	27.5
336.883	33.5
338.127	27.5
339.369	28
340.612	30.5
341.855	29.5
343.097	29
344.34	26.5
345.582	30
346.823	27
348.065	26
349.307	32
350.547	29
351.789	27
353.03	27
354.27	31.5
355.511	30
356.75	25
357.991	30.5
359.231	23.5
360.47	29
361.709	29.5
362.948	31
364.187	27
365.427	30
366.664	29
367.903	31.5
369.14	30.5
370.379	28
371.616	30.5
372.854	29
374.091	27.5
375.328	26.5
376.564	26.5
377.802	28
379.037	28
380.274	25.5
381.51	33.5
382.745	29
383.981	28.5
385.216	28
386.452	30.5
387.686	24
388.922	24
390.155	29
391.389	24
392.624	27
393.857	27
395.091	29.5
396.325	28
397.558	30
398.79	28
400.024	25.5
401.256	25
402.488	25
403.721	27
404.953	28
406.184	27.5
407.417	30.5
408.648	28.5
409.878	31
411.109	28
412.341	30.5
413.571	27.5
414.801	29.5
416.031	29
417.262	25
418.491	25
419.72	25
420.949	28
422.178	27.5
423.408	28.5
424.637	28.5
425.865	27.5
427.093	26.5
428.32	28.5
429.548	25
430.777	29.5
432.004	30
433.231	30
434.458	28
435.685	30
436.911	25
438.137	27.5
439.363	23.5
440.589	31.5
441.815	26
443.042	28.5
444.267	29
445.492	29.5
446.717	26.5
447.942	30
449.166	32
450.39	27
451.615	26
452.838	27
454.062	28
455.286	31
456.509	28
457.732	25
458.955	29
460.178	28
461.399	30
462.621	28.5
463.843	30
465.065	32.5
466.287	27.5
467.508	29.5
468.73	34
469.951	32.5
471.172	35
472.393	32.5
473.612	35
474.832	38
476.052	36
477.272	38
478.492	42.5
479.712	44
480.93	51
482.149	54.5
483.368	46
484.587	53
485.806	53.5
487.023	57.5
488.241	55
489.459	56.5
490.677	53.5
491.893	53.5
493.111	55
494.328	50.5
495.543	48
496.76	44.5
497.977	46
499.194	44
500.409	39
501.625	45
502.841	39
504.055	35.5
505.27	39
506.486	35.5
507.699	39.5
508.914	32.5
510.128	36
511.342	39.5
512.557	35
513.77	35.5
514.984	30
516.196	32.5
517.41	31.5
518.623	30
519.835	29
521.048	33.5
522.259	33.5
523.472	34.5
524.683	28
525.895	29.5
527.106	33.5
528.318	28.5
529.528	31
530.74	30
531.949	29
533.161	30.5
534.37	28
535.581	29
536.79	25
537.999	27
539.209	27
540.418	26
541.627	31.5
542.835	30
544.043	29.5
545.253	28
546.46	32.5
547.669	25.5
548.876	30
550.083	28
551.292	30.5
552.498	26
553.705	30.5
554.912	26
556.118	24.5
557.324	33
558.53	29.5
559.737	28.5
560.942	25.5
562.147	29
563.353	28.5
564.558	30.5
565.763	27
566.967	28.5
568.173	27.5
569.377	28
570.58	26
571.784	29
572.987	25.5
574.192	27
575.395	29.5
576.598	26
577.8	32
579.003	30
580.205	28
581.407	27.5
582.61	28
583.812	30
585.014	26.5
586.215	25.5
587.416	28.5
588.617	31.5
589.818	31
591.018	27.5
592.219	30
593.419	31
594.619	28
595.819	25.5
597.02	31
598.219	30
599.418	29
600.617	24
601.816	32.5
603.015	29
604.213	30
605.41	30
606.608	29.5
607.806	29.5
609.004	30
610.201	29
611.399	27
612.596	28.5
613.793	28
614.989	30.5
616.186	26
617.382	29.5
618.579	24.5
619.775	23.5
620.969	28.5
622.165	26
623.36	27.5
624.555	31
625.75	31
626.945	27
628.139	29.5
629.333	28
630.527	30
631.721	28
632.915	25
634.108	30
635.301	29
636.495	26
637.688	31.5
638.88	25.5
640.072	30
641.265	31
642.456	26
643.648	30
644.84	28
646.032	30.5
647.222	26
648.414	28.5
649.605	27
650.795	23
651.986	30
653.177	25.5
654.366	30
655.556	26
656.745	29
657.935	31
659.125	28
660.313	29
661.503	31
662.69	30
663.879	29.5
665.067	31.5
666.256	29.5
667.444	30
668.631	23.5
669.819	28.5
671.006	29
672.194	33
673.38	36
674.567	31
675.753	28.5
676.94	31.5
678.125	29
679.311	33
680.497	31.5
681.682	32
682.868	36.5
684.053	34
685.238	37.5
686.422	32
687.606	32.5
688.792	35
689.975	32.5
691.159	33
692.343	34
693.526	30.5
694.71	33
695.893	36
697.076	36
698.259	33
699.441	35.5
700.623	41.5
701.805	41.5
702.988	40
704.169	44
705.35	40.5
706.533	46
707.714	48.5
708.894	52
710.075	48.5
711.255	49
712.436	42
713.616	35
714.796	37.5
715.975	35
717.155	33
718.335	34
719.514	32
720.693	30
721.872	29
723.05	31
724.228	31
725.406	27.5
726.585	28.5
727.763	28
728.941	26.5
730.118	28.5
731.295	24
732.472	25
733.649	28
734.825	29
736.002	27
737.178	31
738.354	27.5
739.53	28
740.705	27.5
741.881	27.5
743.056	25.5
744.231	27
745.406	29
746.581	29
747.755	27
748.93	24.5
750.104	30
751.278	25
752.452	28
753.625	34.5
754.799	28
755.972	27
757.144	28
758.317	28
759.489	27
760.662	24
761.834	26.5
763.006	31.5
764.178	28
765.349	31
766.521	30.5
767.692	26
768.863	30
770.034	26
771.204	28
772.374	24.5
773.545	30
774.715	26
775.885	24
777.054	30
778.224	25
779.393	24
780.562	33
781.731	31.5
782.9	27.5
784.069	28.5
785.236	30.5
786.405	30.5
787.573	30
788.74	29.5
789.908	30
791.074	29
792.242	33.5
793.409	33
794.575	26
795.742	32.5
796.909	26.5
798.074	29
799.241	26.5
800.406	30
801.572	28.5
802.737	29.5
803.902	27.5
805.067	25
806.232	32
807.396	29
808.561	27
809.725	29
810.889	29.5
812.052	31
813.217	31.5
814.38	27
815.544	31.5
816.706	28.5
817.87	28
819.032	31.5
820.195	26.5
821.357	24.5
822.518	25.5
823.681	30
824.842	26.5
826.005	27
827.165	27.5
828.326	27
829.488	28
830.648	27.5
831.808	29.5
832.97	27
834.129	27
835.289	25.5
836.45	26
837.609	26.5
838.768	24.5
839.927	29
841.087	27
842.245	30
843.404	26
844.562	25
845.721	23.5
846.879	28.5
848.036	27
849.194	26.5
850.351	28.5
851.509	26.5
852.666	23
853.823	27
854.979	29
856.136	28.5
857.292	28
858.448	27
859.605	25
860.761	34.5
861.916	30
863.071	26.5
864.226	27
865.381	29
866.536	29.5
867.691	29
868.845	26.5
869.999	26.5
871.153	27.5
872.307	28.5
873.461	27
874.614	31.5
875.767	25
876.92	23
878.073	27.5
879.226	26
880.379	26.5
881.531	33.5
882.683	26
883.835	32
884.987	26
886.139	27
887.291	26
888.442	27.5
889.593	27
890.743	26
891.893	26
893.044	30.5
894.195	27
895.345	30
896.495	30
897.643	27
898.793	28
899.943	28.5
901.092	27
902.241	25.5
903.389	26
904.538	27
905.687	27.5
906.835	28
907.982	25
909.13	26
910.278	26
911.426	29.5
912.572	27
913.72	25
914.867	27.5
916.013	25
917.16	27.5
918.306	27.5
919.451	26
920.598	24
921.744	26
922.889	30.5
924.035	26
925.18	29
926.324	25
927.47	23.5
928.614	25
929.758	22.5
930.902	26
932.047	25
933.191	28
934.334	34
935.478	26.5
936.621	28.5
937.764	27
938.906	27
940.05	26
941.192	27.5
942.335	29
943.476	26.5
944.619	26
945.76	26
946.901	23.5
948.043	23.5
949.184	27.5
950.326	26
951.466	24.5
952.606	28.5
953.747	26
954.887	26.5
956.028	24
957.167	24
958.307	28
959.447	26
960.586	29.5
961.725	27.5
962.865	26.5
964.003	23.5
965.141	28
966.279	27
967.418	25.5
968.556	29
969.693	24.5
970.831	26.25
971.969	28
973.106	24
974.243	26.5
975.38	29.5
976.517	24.5
977.654	26
978.79	26
979.926	22
981.061	26
982.197	28.5
983.334	26
984.469	24
985.604	28
986.739	28.5
987.873	25.5
989.008	28.5
990.142	27
991.277	28.5
992.411	24
993.544	26.5
994.679	27.5
995.813	26.5
996.946	26.5
998.079	25.5
999.212	28
1000.35	26
1001.48	27.5
1002.61	28
1003.74	29.5
1004.87	26
1006.01	25
1007.14	27
1008.27	24
1009.4	28
1010.53	26
1011.66	25.5
1012.79	27
1013.92	24
1015.05	26.5
1016.18	26
1017.31	26.5
1018.44	27
1019.57	24
1020.7	26
1021.83	26
1022.96	27
1024.09	31.5
1025.22	27.5
1026.35	30
1027.48	27.5
1028.6	25.5
1029.73	25.5
1030.86	27
1031.99	27.5
1033.12	26.5
1034.24	25
1035.37	28.5
1036.5	28
1037.62	26.5
1038.75	26.5
1039.88	32
1041	23
1042.13	21.5
1043.25	26
1044.38	28
1045.5	25
1046.63	25
1047.76	23.5
1048.88	23.5
1050	21
1051.13	26.5
1052.25	26
1053.38	27
1054.5	26
1055.63	25
1056.75	22.5
1057.87	29
1058.99	24
1060.12	27
1061.24	21.5
1062.36	27
1063.49	27
1064.61	24.5
1065.73	28.5
1066.85	27
1067.97	29
1069.1	25
1070.22	26.5
1071.34	26.5
1072.46	24
1073.58	21.5
1074.7	25.5
1075.82	29
1076.94	28.5
1078.06	23
1079.18	25
1080.3	25
1081.42	25
1082.54	25
1083.66	21.5
1084.78	27.5
1085.9	26
1087.02	27.5
1088.13	28
1089.25	24
1090.37	25.5
1091.49	25
1092.61	22.5
1093.72	23
1094.84	27.5
1095.96	27
1097.08	26
1098.19	24.5
1099.31	25
1100.42	29.5
1101.54	29
1102.66	28.5
1103.77	24
1104.89	26
1106	26.5
1107.12	27
1108.23	28
1109.35	28
1110.46	24.5
1111.58	23.5
1112.69	24.5
1113.81	27
1114.92	24.5
1116.04	27.5
1117.15	23.5
1118.26	27.5
1119.38	20.5
1120.49	26.5
1121.6	22
1122.72	28
1123.83	24.5
1124.94	27.5
1126.05	26
1127.17	25
1128.28	26.5
1129.39	22.5
1130.5	24
1131.61	26.5
1132.72	24
1133.83	28
1134.94	26
1136.06	25
1137.17	25
1138.27	23
1139.39	24.5
1140.5	24.5
1141.61	23.5
1142.72	28
1143.82	24
1144.93	23.5
1146.04	26
1147.15	26
1148.26	25
1149.37	21
1150.48	25
1151.58	23
1152.69	27
1153.8	19
1154.91	26
1156.02	26.5
1157.12	24.5
1158.23	26
1159.34	26.5
1160.44	27
1161.55	29
1162.66	24
1163.76	27.5
1164.87	31
1165.97	26.5
1167.08	25
1168.18	25
1169.29	26.5
1170.39	20
1171.5	21.5
1172.6	26.5
1173.71	21.5
1174.81	23
1175.92	22
1177.02	27
1178.13	24.5
1179.23	24
1180.33	20
1181.44	25
1182.54	22
1183.64	27.5
1184.74	22
1185.85	24.5
1186.95	26.5
1188.05	25.5
1189.15	23.5
1190.26	24
1191.36	25
1192.46	24
1193.56	25
1194.66	27.4804
1195.76	25.3846
1196.86	23.0525
1197.96	21.6904
1199.06	21.9625
1200.16	24.9213
1201.26	27.2806
1202.36	24.0472
1203.46	26.6113
1204.56	24.9169
1205.66	22.5025
1206.76	22.2752
1207.86	24.7527
1208.96	27.5225
1210.06	24.8552
1211.16	24.402
1212.25	25.2403
1213.35	26.2541
1214.45	26.0029
1215.55	27.1547
1216.65	22.2009
1217.74	25.4757
1218.84	22.6457
1219.94	22.1889
1221.03	25.0393
1222.13	24.473
1223.23	25.3581
1224.32	22.7169
1225.42	23.6758
1226.52	25.3197
1227.61	25.3845
1228.71	24.0549
1229.8	24.837
1230.9	26.3932
1231.99	23.9368
1233.09	24.2832
1234.18	24.6654
1235.28	22.6728
1236.37	22.5434
1237.47	24.3719
1238.56	23.2193
1239.65	25.2259
1240.75	24.3452
1241.84	24
1242.93	23.0788
1244.03	25.6162
1245.12	25.5333
1246.21	23.9316
1247.31	24.9279
1248.4	25.2889
1249.49	24.191
1250.58	23.5
1251.67	25.2397
1252.77	25.3307
1253.86	25.1197
1254.95	26.4107
1256.04	25.5397
1257.13	27
1258.22	23.4603
1259.31	25.6585
1260.4	26.5251
1261.49	28.0393
1262.58	24.5909
1263.67	28.6415
1264.76	25.8097
1265.85	25.2411
1266.94	27.3544
1268.03	26.483
1269.12	25.5027
1270.21	25.7386
1271.3	24.6146
1272.39	24.0277
1273.47	27.1763
1274.56	24.8861
1275.65	24.0169
1276.74	21.2683
1277.83	21.9477
1278.91	25.6818
1280	24.9453
1281.09	24.7282
1282.17	22.8336
1283.26	24.0009
1284.35	25.4711
1285.43	22.8173
1286.52	21.8513
1287.61	24.1276
1288.69	23.2249
1289.78	22.6544
1290.86	24.9417
1291.95	22.8093
1293.03	23.6356
1294.12	24.8268
1295.2	25.131
1296.29	24.35
1297.37	23.2983
1298.46	23.68
1299.54	24.6032
1300.63	26.1462
1301.71	25.6335
1302.79	22.4313
1303.88	23.776
1304.96	26.2809
1306.04	26.1995
1306.5	26
1307.59	23.5
1308.68	25
1309.76	24
1310.85	25
1311.94	24
1313.03	28
1314.11	24
1315.2	22.5
1316.29	24
1317.37	29
1318.46	24
1319.55	23.5
1320.63	24.5
1321.72	23
1322.81	22.5
1323.89	21.5
1324.98	25.5
1326.06	26.5
1327.15	27
1328.23	24
1329.32	24.5
1330.4	21.5
1331.49	26.5
1332.57	24
1333.66	24
1334.74	27.5
1335.82	29
1336.91	21.5
1337.99	26.5
1339.07	25.5
1340.16	27
1341.24	25
1342.32	24
1343.4	25.5
1344.49	22
1345.57	21
1346.65	25
1347.73	21.5
1348.82	22
1349.9	20.5
1350.98	24
1352.06	23
1353.14	26
1354.22	23
1355.3	24.5
1356.38	25
1357.46	26
1358.54	22
1359.62	22.5
1360.7	24.5
1361.78	24
1362.86	21.5
1363.94	28
1365.02	26.5
1366.1	27
1367.18	25.5
1368.26	23
1369.34	23
1370.41	25
1371.49	29
1372.57	24.5
1373.65	27
1374.72	30
1375.8	22
1376.88	26.5
1377.96	28
1379.03	22.5
1380.11	28
1381.19	27.5
1382.26	27
1383.34	26.5
1384.42	23.5
1385.49	25
1386.57	24
1387.64	27.5
1388.72	24.5
1389.79	24.5
1390.87	23
1391.94	30
1393.02	26.5
1394.09	26
1395.17	26
1396.24	25
1397.31	25
1398.39	32
1399.46	26
1400.54	30
1401.61	30.5
1402.68	27
1403.76	26.5
1404.83	28
1405.9	29
1406.97	26
1408.05	28
1409.12	38
1410.19	30
1411.26	31
1412.33	27
1413.4	29
1414.48	31
1415.55	29
1416.62	30
1417.69	32
1418.76	28
1419.83	28.5
1420.9	26.5
1421.97	27.5
1423.04	22
1424.11	28
1425.18	22.5
1426.25	29
1427.32	27.5
1428.39	24.5
1429.46	28
1430.52	27
1431.59	26
1432.66	28
1433.73	22.5
1434.8	27
1435.87	26.5
1436.93	28.5
1438	26
1439.07	23
1440.14	26
1441.2	28
1442.27	26
1443.34	24
1444.4	26.5
1445.47	25
1446.54	29
1447.6	25.5
1448.67	30
1449.73	25
1450.8	25
1451.86	28.5
1452.93	25.5
1453.99	25.5
1455.06	23
1456.12	25
1457.19	28.5
1458.25	22.5
1459.32	21
1460.38	27.5
1461.45	22.5
1462.51	23.5
1463.57	23
1464.64	21.5
1465.7	22
1466.76	25.5
1467.82	29
1468.89	27
1469.95	24.5
1471.01	29
1472.07	23
1473.14	26.5
1474.2	26
1475.26	26.5
1476.32	28
1477.38	24.5
1478.44	24.5
1479.5	24
1480.57	27.5
1481.63	27
1482.69	25
1483.75	26
1484.81	25
1485.87	30
1486.93	25.5
1487.99	20.5
1489.05	26
1490.1	30.5
1491.17	30
1492.22	26
1493.28	27
1494.34	23
1495.4	31
1496.46	25
1497.52	23.5
1498.57	25
1499.63	23.5
1500.69	26
1501.75	24
1502.8	28
1503.86	21
1504.92	27.5
1505.98	25
1507.03	29
1508.09	26.5
1509.15	26
1510.2	28.5
1511.26	31
1512.31	25.5
1513.37	27.5
1514.42	28.5
1515.48	24
1516.53	28
1517.59	21.5
1518.64	26
1519.7	24.5
1520.75	23
1521.81	23
1522.86	26
1523.92	22.5
1524.97	25
1526.02	26
1527.08	28.5
1528.13	25.5
1529.18	22
1530.24	27
1531.29	28
1532.34	23.5
1533.39	26.5
1534.45	27.5
1535.5	28.5
1536.55	23.5
1537.6	29
1538.65	25
1539.71	25
1540.76	27
1541.81	26
1542.86	26.5
1543.91	27.5
1544.96	22
1546.01	22
1547.06	28
1548.11	22
1549.16	23
1550.21	29
1551.26	20
1552.31	23.5
1553.36	22
1554.41	24.5
1555.46	28
1556.51	26.5
1557.56	28.5
1558.6	25
1559.65	23.5
1560.7	23.5
1561.75	25
1562.8	25.5
1563.84	28.5
1564.89	28.5
1565.94	25
1566.99	23.5
1568.03	27.5
1569.08	28.5
1570.13	28
1571.17	25
1572.22	23
1573.27	22
1574.31	22.5
1575.36	24.5
1576.4	25
1577.45	28.5
1578.5	24
1579.54	28.5
1580.59	25.5
1581.63	24.5
1582.68	28.5
1583.72	28
1584.76	24
1585.81	25
1586.85	27.5
1587.9	25.5
1588.94	23
1589.98	26
1591.03	26
1592.07	23
1593.11	28.5
1594.16	27.5
1595.2	29
1596.24	25.5
1597.29	26.5
1598.33	24
1599.37	25
1600.41	26.5
1601.45	26
1602.49	29
1603.54	26
1604.58	27
1605.62	23.5
1606.66	28
1607.7	29
1608.74	24
1609.78	30
1610.82	29
1611.86	26
1612.9	25
1613.94	23.5
1614.98	22.5
1616.02	25
1617.06	25
1618.1	24
1619.14	26
1620.18	29.5
1621.22	21
1622.25	24.5
1623.29	28
1624.33	26
1625.37	28.5
1626.41	26
1627.45	26
1628.48	26
1629.52	29.5
1630.56	27
1631.59	28
1632.63	26.5
1633.67	25
1634.7	26
1635.74	24
1636.78	25.5
1637.81	24
1638.85	26
1639.88	26.5
1640.92	24
1641.96	25.5
1642.99	24
1644.03	22
1645.06	23
1646.1	26
1647.13	26
1648.17	26
1649.2	28.5
1650.23	25.5
1651.27	27
1652.3	26.5
1653.33	22
1654.37	27
1655.4	27
1656.44	28
1657.47	19
1658.5	26
1659.53	27
1660.57	23
1661.6	25
1662.63	26
1663.66	27.5
1664.69	24.5
1665.73	24
1666.76	25.5
1667.79	24
1668.82	27.5
1669.85	30.5
1670.88	20
1671.91	30
1672.94	28
1673.97	24
1675.01	29
1676.03	23
1677.07	26.5
1678.1	22
1679.12	21
1680.15	26.5
1681.18	29
1682.21	23.5
1683.24	26
1684.27	25
1685.3	26
1686.33	24.5
1687.36	25.5
1688.38	25.5
1689.41	26
1690.44	24.5
1691.47	27.5
1692.5	27
1693.52	26.5
1694.55	27.5
1695.58	22.5
1696.6	25.5
1697.63	28
1698.66	24
1699.68	28.5
1700.71	26.5
1701.74	23
1702.76	28.5
1703.79	20.5
1704.81	24
1705.84	27.5
1706.86	24.5
1707.89	29
1708.91	26
1709.94	22.5
1710.96	27
1711.99	24
1713.01	28.5
1714.04	30
1715.06	26.5
1716.08	23.5
1717.11	24
1718.13	21.5
1719.16	28
1720.18	26
1721.2	23.5
1722.22	24.5
1723.25	24
1724.27	28.5
1725.29	26.5
1726.31	26
1727.34	27
1728.36	27.5
1729.38	22.5
1730.4	22
1731.42	23.5
1732.44	23
1733.47	26
1734.49	26
1735.51	28.5
1736.53	28
1737.55	25
1738.57	25.5
1739.59	25.5
1740.61	28
1741.63	27
1742.65	24.5
1743.67	23
1744.69	24
1745.71	25.5
1746.73	23.5
1747.75	21
1748.76	24
1749.78	20.5
1750.8	25.5
1751.82	25
1752.84	27.5
1753.86	25.5
1754.87	26.5
1755.89	25
1756.91	24.5
1757.93	29
1758.94	28.5
1759.96	25.5
1760.98	21
1761.99	24.5
1763.01	19
1764.03	27
1765.04	22
1766.06	25
1767.08	23
1768.09	22
1769.11	26.5
1770.12	24.5
1771.14	24.5
1772.15	23
1773.17	23.5
1774.18	26
1775.2	27
1776.21	24.5
1777.23	28
1778.24	27
1779.25	26.5
1780.27	28
1781.28	22.5
1782.3	25.5
1783.31	22.5
1784.32	27
1785.34	23
1786.35	22
1787.36	25.5
1788.37	24.5
1789.39	22
1790.4	22
1791.41	25.5
1792.42	26.5
1793.43	24.5
1794.45	22.5
1795.46	27.5
1796.47	22
1797.48	22.5
1798.49	23
1799.5	26.5
1800.51	27
1801.52	27
1802.53	24.5
1803.54	27
1804.55	23
1805.56	22.5
1806.57	26
1807.58	26
1808.59	24
1809.6	28
1810.61	25.5
1811.62	27
1812.63	27
1813.64	26.5
1814.65	24
1815.66	28.5
1816.66	21.5
1817.67	26.5
1818.68	24
1819.69	26
1820.69	24
1821.7	28.5
1822.71	21.5
1823.72	23.5
1824.72	24
1825.73	26
1826.74	27
1827.74	24
1828.75	23.5
1829.76	25
1830.76	26
1831.77	28
1832.77	21.5
1833.78	27.5
1834.79	28.5
1835.79	20
1836.8	26.5
1837.8	27
1838.81	25.5
1839.81	24
1840.81	24
1841.82	25.5
1842.82	25.5
1843.83	23
1844.83	26
1845.83	24.5
1846.84	26
1847.84	27
1848.84	23
1849.85	25
1850.85	24
1851.85	24.5
1852.86	22.5
1853.86	27.5
1854.86	29
1855.86	24
1856.86	23.5
1857.87	26.5
1858.87	27.5
1859.87	23.5
1860.87	25
1861.87	25.5
1862.87	25.5
1863.88	27
1864.88	27.5
1865.88	24
1866.88	23.5
1867.88	24
1868.88	26.5
1869.88	23.5
1870.88	22.5
1871.88	23.5
1872.88	26
1873.88	23
1874.87	22
1875.87	28
1876.87	24
1877.87	24.5
1878.87	27.5
1879.87	24.5
1880.87	25
1881.86	25
1882.86	25.5
1883.86	22
1884.86	27.5
1885.86	21
1886.85	23.5
1887.85	25.5
1888.85	31.5
1889.84	28.5
1890.84	28.5
1891.84	20.5
1892.83	24
1893.83	26
1894.83	24
1895.82	22
1896.82	26.5
1897.81	21
1898.81	23.5
1899.81	25
1900.8	25.5
1901.8	26
1902.79	24
1903.78	27
1904.78	23
1905.77	26.5
1906.77	28.5
1907.76	29.5
1908.76	25
1909.75	23.5
1910.74	24.5
1911.74	23
1912.73	27
1913.72	25
1914.72	25
1915.71	25
1916.7	27.5
1917.7	23.5
1918.69	24
1919.68	26.5
1920.67	27
1921.66	24
1922.66	19.5
1923.65	27.5
1924.64	25.5
1925.63	32
1926.62	24.5
1927.61	26
1928.6	27.5
1929.59	26.5
1930.59	22
1931.58	27
1932.57	22.5
1933.56	29.5
1934.55	23
1935.54	27
1936.53	26
1937.52	28.5
1938.51	25.5
1939.49	23.5
1940.48	24.5
1941.47	26
1942.46	22.5
1943.45	24
1944.44	23.5
1945.43	24.5
1946.42	24
1947.4	27
1948.39	24.75
1949.38	22.5
1950.37	26.5
1951.35	24.5
1952.34	25
1953.33	25.5
1954.31	24
1955.3	24
1956.29	26
1957.27	25
1958.26	24
1959.25	22.5
1960.23	22.5
1961.22	29
1962.21	25.5
1963.19	23
1964.18	25
1965.16	27
1966.15	24.5
1967.13	23
1968.12	25
1969.1	26.5
1970.09	28
1971.07	26.5
1972.05	27.5
1973.04	26.5
1974.02	22.5
1975.01	25.5
1975.99	25
1976.97	21
1977.96	20.5
1978.94	31
1979.92	23.5
1980.91	22
1981.89	23
1982.87	27.5
1983.85	23
1984.84	24.5
1985.82	26
1986.8	26
1987.78	23
1988.76	21.5
1989.74	23
1990.73	25
1991.71	24
1992.69	27.5
1993.67	22
1994.65	22
1995.63	25.5
1996.61	23
1997.59	19.5
1998.57	22
1999.55	21
2000.53	25
2001.51	23.5
2002.49	27.5
2003.47	24.5
2004.45	30.5
2005.43	23
2006.41	22.5
2007.39	25.5
2008.37	25
2009.34	27
2010.32	22
2011.3	23.5
2012.28	25
2013.26	27
2014.23	25
2015.21	27.5
2016.19	22.5
2017.17	23.5
2018.14	22
2019.12	23
2020.1	24
2021.07	24.5
2022.05	24
2023.03	25.5
2024	21.5
2024.98	26
2025.96	25
2026.93	26.5
2027.91	24
2028.88	24.5
2029.86	21.5
2030.83	23.5
2031.81	20
2032.78	22
2033.76	22
2034.73	27.5
2035.71	19
2036.68	27
2037.66	22
2038.63	22
2039.6	21
2040.58	26.5
2041.55	22
2042.52	27.5
2043.5	26.5
2044.47	22
2045.44	21.5
2046.42	25.5
2047.39	21.5
2048.36	19
2049.33	24
2050.31	21.5
2051.28	23.5
2052.25	24
2053.22	27
2054.19	25.5
2055.17	27.5
2056.14	23.5
2057.11	23
2058.08	24.5
2059.05	25.5
2060.02	24.5
2060.99	22
2061.96	24
2062.93	18.5
2063.9	24.5
2064.87	25
2065.84	17.5
2066.81	25
2067.78	22.5
2068.75	23
2069.72	29
2070.69	27
2071.66	20.5
2072.63	26
2073.6	26.5
2074.56	24
2075.53	25.5
2076.5	22
2077.47	24
2078.44	23.5
2079.4	25
2080.37	23
2081.34	21
2082.31	24.5
2083.27	24.5
2084.24	27
2085.21	24
2086.18	25
2087.14	21
2088.11	23.5
2089.07	26
2090.04	23.5
2091.01	26.5
2091.97	25
2092.94	24.5
2093.9	24.5
2094.87	24
2095.83	22
2096.8	21.5
2097.76	21.5
2098.73	23
2099.69	23
2100.66	28.5
2101.62	27.5
2102.59	24.5
2103.55	25.5
2104.52	22
2105.48	24
2106.44	21.5
2107.41	19.5
2108.37	23.5
2109.33	22.5
2110.3	25
2111.26	23
2112.22	23
2113.18	27.5
2114.15	22
2115.11	24.5
2116.07	26
2117.03	19.5
2118	18
2118.96	25.5
2119.92	29
2120.88	23.5
2121.84	19
2122.8	23
2123.76	20
2124.72	22
2125.68	21
2126.65	23.5
2127.61	22.5
2128.57	23
2129.53	23
2130.49	26
2131.45	23
2132.41	23
2133.36	26
2134.32	22.5
2135.28	25.5
2136.24	22
2137.2	23.5
2138.16	23
2139.12	25.5
2140.08	24
2141.04	24
2141.99	22.5
2142.95	24.9784
2143.91	21.4938
2144.87	23.9986
2145.83	24.0034
2146.78	26.9088
2147.74	26.7673
2148.7	23.8627
2149.66	24.897
2150.61	23.6608
2151.57	21.9383
2152.53	21.4829
2153.48	22.7607
2154.44	20.912
2155.4	24.8897
2156.35	19.5544
2157.31	22.5658
2158.26	25.1099
2159.22	20.7679
2160.17	24.9141
2161.13	25.1618
2162.08	23.6328
2163.04	21.7559
2163.99	22.07
2164.95	20.5304
2165.9	22.9676
2166.86	25.0097
2167.81	22.8399
2168.77	23.27
2169.72	23.7225
2170.67	24.911
2171.63	22.9548
2172.58	20.3909
2173.54	22.7892
2174.49	23.2535
2175.44	21.0685
2176.39	18.6638
2177.35	24.497
2178.3	24.5254
2179.25	24.2969
2180.2	24.6181
2181.16	21.822
2182.11	22.6631
2183.06	23.3162
2184.01	25.1206
2184.96	24.1025
2185.92	23.4469
2186.87	21.8831
2187.82	21.9851
2188.77	20.6368
2189.72	20.3115
2190.67	21.1471
2191.62	23.0941
2192.57	22.766
2193.52	19.6789
2194.47	24.0316
2195.42	22.3727
2196.37	21.3621
2197.32	23.6057
2198.27	24.9167
2199.22	22.1918
2200.17	19.7879
2201.12	19.8621
2202.07	22.1966
2203.02	22.9784
2203.97	22.4092
2204.92	22.1887
2205.87	24.1986
2206.81	23.9891
2207.76	22.8228
2208.71	24.0925
2209.66	22.0577
2210.61	19.4643
2211.55	21.6543
2212.5	20.9765
2213.45	19.6512
2214.4	23.2019
2215.34	22.6273
2216.29	22.999
2217.24	21.3704
2218.18	23.1139
2219.13	20.9952
2220.08	22.6992
2221.02	21.7441
2221.97	25.6906
2222.92	23.6108
2223.86	24.6818
2224.81	21.6635
2225.75	26.1105
2226.7	23.3476
2227.64	24.9179
2228.59	24.4048
2229.53	22.5546
2230.48	25.5267
2231.42	17.7561
2232.37	22.7416
2233.31	20.747
2234.26	19.6956
2235.2	21.651
2236.14	24.5945
2237.09	22.6613
2238.03	23.8597
2238.97	25.6779
2239.92	24.2731
2240.05	24
2241	21.5
2241.95	22.5
2242.89	22
2243.84	24.5
2244.79	20
2245.74	21
2246.68	23
2247.63	23.5
2248.58	21.5
2249.53	24.5
2250.47	21
2251.42	21.5
2252.36	17.5
2253.31	25
2254.26	25.5
2255.2	20.5
2256.15	25
2257.1	24
2258.04	25
2258.99	18.5
2259.93	24
2260.88	22.5
2261.82	23
2262.77	22
2263.71	24
2264.66	23.5
2265.6	20.5
2266.55	21.5
2267.49	25.5
2268.43	24
2269.38	24
2270.32	18
2271.26	24
2272.21	21.5
2273.15	27
2274.09	22.5
2275.04	24.5
2275.98	21.5
2276.92	25.5
2277.87	22.5
2278.81	24.5
2279.75	23.5
2280.69	25.5
2281.64	26.5
2282.58	22
2283.52	21.5
2284.46	22
2285.4	25.5
2286.34	20.5
2287.29	21.5
2288.23	23
2289.17	22
2290.11	22
2291.05	22
2291.99	25
2292.93	21
2293.87	24
2294.81	24.5
2295.75	20.5
2296.69	22
2297.63	21
2298.57	24.5
2299.51	23.5
2300.45	22.5
2301.39	20
2302.33	23.5
2303.27	28.5
2304.2	24.5
2305.14	25.5
2306.08	21.5
2307.02	24.5
2307.96	22
2308.9	24
2309.83	24
2310.77	25
2311.71	27
2312.65	26.5
2313.58	22.5
2314.52	21.5
2315.46	22.5
2316.39	25
2317.33	24
2318.27	24.5
2319.21	25
2320.14	21.5
2321.08	21.5
2322.01	21
2322.95	24.5
2323.89	25
2324.82	22.5
2325.76	24.5
2326.69	21
2327.63	23.5
2328.56	22.5
2329.5	24
2330.43	21.5
2331.37	26.5
2332.3	26
2333.24	25
2334.17	31
2335.1	22.5
2336.04	26
2336.97	26.5
2337.91	21.5
2338.84	29
2339.77	22
2340.71	25
2341.64	23
2342.57	21
2343.51	24
2344.44	26
2345.37	25
2346.3	23.5
2347.24	24
2348.17	26.5
2349.1	25
2350.03	22.5
2350.96	25
2351.89	28
2352.83	26
2353.76	23.5
2354.69	25
2355.62	24
2356.55	25
2357.48	27
2358.41	23
2359.34	21.5
2360.27	23.5
2361.2	25
2362.13	26
2363.06	25
2363.99	26.5
2364.92	24
2365.85	21
2366.78	24
2367.71	23.5
2368.64	26
2369.57	19.5
2370.5	26.5
2371.43	18.5
2372.36	20.5
2373.28	25
2374.21	24.5
2375.14	22
2376.07	24
2377	25
2377.93	22
2378.85	20
2379.78	21
2380.71	23.5
2381.63	21.5
2382.56	22.5
2383.49	28
2384.42	21
2385.34	25
2386.27	24
2387.2	24.5
2388.12	23.5
2389.05	20.5
2389.97	23.5
2390.9	26.5
2391.82	23
2392.75	27
2393.68	25
2394.6	23.5
2395.53	22
2396.45	26
2397.38	21
2398.3	25.5
2399.23	21
2400.15	24.5
2401.07	25.5
2402	28
2402.92	24
2403.85	27
2404.77	21
2405.69	28
2406.62	22
2407.54	24
2408.46	21.5
2409.39	26
2410.31	24
2411.23	22
2412.16	23.5
2413.08	25.5
2414	26.5
2414.92	27
2415.85	23.5
2416.77	23.5
2417.69	23
2418.61	23.5
2419.53	24
2420.45	28.5
2421.38	22
2422.3	24.5
2423.22	26
2424.14	24.5
2425.06	22
2425.98	25.5
2426.9	23
2427.82	21
2428.74	19.5
2429.66	25
2430.58	25
2431.5	24
2432.42	22
2433.34	24
2434.26	23.5
2435.18	23
2436.1	25.5
2437.02	25
2437.94	25
2438.85	27
2439.77	23.5
2440.69	29
2441.61	23.5
2442.53	24.5
2443.45	22
2444.36	24.5
2445.28	25
2446.2	25.5
2447.12	26.5
2448.03	21
2448.95	23.5
2449.87	22
2450.79	22
2451.7	23.5
2452.62	24
2453.54	22
2454.45	27
2455.37	22.5
2456.28	22
2457.2	25
2458.12	25
2459.03	28
2459.95	27
2460.86	23.5
2461.78	22.5
2462.69	23.5
2463.61	23
2464.52	24.5
2465.44	22
2466.35	23
2467.27	25
2468.18	24
2469.1	27
2470.01	25.5
2470.93	25
2471.84	25.5
2472.75	19
2473.67	25.5
2474.58	24
2475.49	21
2476.41	26
2477.32	24
2478.23	24
2479.15	23
2480.06	22
2480.97	25.5
2481.88	29.5
2482.79	26
2483.71	26
2484.62	24
2485.53	25
2486.44	24
2487.35	25.5
2488.26	26
2489.18	25.5
2490.09	22
2491	20
2491.91	27
2492.82	23.5
2493.73	27
2494.64	24
2495.55	24
2496.46	26.5
2497.37	25.5
2498.28	25.5
2499.19	25
2500.1	27.5
2501.01	24
2501.92	24
2502.83	27
2503.74	23.5
2504.65	26.5
2505.56	29.5
2506.47	24
2507.37	24.5
2508.28	23.5
2509.19	18
2510.1	22.5
2511.01	27.5
2511.92	22
2512.82	23.5
2513.73	22.5
2514.64	24
2515.55	26.5
2516.45	23
2517.36	28
2518.27	26
2519.17	22.5
2520.08	25
2520.99	25.5
2521.89	24
2522.8	23
2523.71	21
2524.61	26
2525.52	27
2526.42	25
2527.33	26.5
2528.24	24
2529.14	23
2530.05	28
2530.95	24.5
2531.86	20
2532.76	25.5
2533.67	25
2534.57	23.5
2535.48	19
2536.38	27.5
2537.28	28.5
2538.19	25
2539.09	27
2540	25.5
2540.9	24
2541.8	20
2542.71	25.5
2543.61	26
2544.51	23.5
2545.42	25
2546.32	23.5
2547.22	22.5
2548.12	23.5
2549.03	23.5
2549.93	30
2550.83	27
2551.73	24.5
2552.63	22.5
2553.54	23
2554.44	21
2555.34	24
2556.24	23.5
2557.14	26.5
2558.04	26.5
2558.94	28.5
2559.85	21
2560.75	23.5
2561.65	26
2562.55	27.5
2563.45	27.5
2564.35	24.5
2565.25	22
2566.15	22
2567.05	22
2567.95	22.5
2568.85	24
2569.75	25
2570.65	19
2571.55	28.5
2572.44	24.5
2573.34	27.5
2574.24	25
2575.14	21
2576.04	25.5
2576.94	27
2577.84	26
2578.73	25.5
2579.63	25
2580.53	25
2581.43	25.5
2582.33	22.5
2583.22	24.5
2584.12	25.5
2585.02	26.5
2585.91	24
2586.81	26
2587.71	25
2588.6	27
2589.5	21
2590.4	25
2591.29	23
2592.19	24.5
2593.09	21
2593.98	23.5
2594.88	25.5
2595.77	24.5
2596.67	22
2597.56	24
2598.46	24.5
2599.35	25.5
2600.25	22
2601.14	20.5
2602.04	24.5
2602.93	25
2603.83	26.5
2604.72	28.5
2605.62	24.5
2606.51	28
2607.4	24
2608.3	26
2609.19	25.5
2610.09	26
2610.98	24.5
2611.87	27.5
2612.76	25.5
2613.66	24
2614.55	22
2615.44	23.5
2616.34	24.5
2617.23	22
2618.12	24
2619.01	21
2619.9	21.5
2620.8	23.5
2621.69	23
2622.58	24
2623.47	27
2624.36	27.5
2625.25	19.5
2626.15	23.5
2627.04	23.5
2627.93	23
2628.82	25
2629.71	25.5
2630.6	23
2631.49	28
2632.38	25.5
2633.27	24.5
2634.16	27
2635.05	24
2635.94	25
2636.83	22.5
2637.72	22
2638.61	25
2639.5	22
2640.39	24.5
2641.28	24
2642.16	24
2643.05	27.5
2643.94	25.5
2644.83	23
2645.72	23
2646.61	29.5
2647.49	25.5
2648.38	25.5
2649.27	21
2650.16	25.5
2651.05	23
2651.93	24.5
2652.82	22.5
2653.71	26
2654.59	25.5
2655.48	22
2656.37	24
2657.25	23
2658.14	23.5
2659.03	26
2659.91	25
2660.8	22
2661.69	25
2662.57	23.5
2663.46	25
2664.34	24.5
2665.23	22.5
2666.11	24.5
2667	22.5
2667.88	22
2668.77	21
2669.65	22.5
2670.54	26.5
2671.42	27
2672.31	19
2673.19	21
2674.08	22
2674.96	26
2675.84	22
2676.73	27
2677.61	26.5
2678.49	26
2679.38	23
2680.26	26
2681.14	25
2682.03	25
2682.91	23
2683.79	25
2684.68	24
2685.56	22
2686.44	23
2687.32	22.5
2688.2	22.5
2689.09	24.5
2689.97	24
2690.85	23
2691.73	23
2692.61	27.5
2693.49	25
2694.38	26
2695.26	24
2696.14	22
2697.02	24
2697.9	21
2698.78	26.5
2699.66	25.5
2700.54	22
2701.42	23
2702.3	25.5
2703.18	20
2704.06	22.5
2704.94	25.5
2705.82	28.5
2706.7	21
2707.58	25
2708.46	21
2709.34	25
2710.21	24.5
2711.09	23
2711.97	25.5
2712.85	24
2713.73	21
2714.61	30
2715.49	24
2716.36	26
2717.24	24
2718.12	24.5
2719	26.5
2719.87	24.5
2720.75	23
2721.63	22.5
2722.51	23
2723.38	22
2724.26	26.5
2725.14	17
2726.01	26
2726.89	23
2727.77	26
2728.64	23.5
2729.52	25.5
2730.39	27
2731.27	23
2732.15	23.5
2733.02	21.5
2733.9	22
2734.77	27
2735.65	23
2736.52	22
2737.4	22
2738.27	20
2739.15	25.5
2740.02	24
2740.89	27.5
2741.77	21
2742.64	21.5
2743.52	26.5
2744.39	24.5
2745.27	21.5
2746.14	20.5
2747.01	22.5
2747.89	29
2748.76	27
2749.63	24.5
2750.51	20
2751.38	25.5
2752.25	20.5
2753.12	22
2754	23.5
2754.87	22.5
2755.74	24
2756.61	28
2757.48	22.5
2758.36	24.5
2759.23	24
2760.1	26.5
2760.97	23.5
2761.84	25
2762.71	24
2763.59	23.5
2764.46	24
2765.33	30.5
2766.2	28.5
2767.07	27
2767.94	24
2768.81	26
2769.68	22.5
2770.55	25
2771.42	27
2772.29	24
2773.16	23
2774.03	23.5
2774.9	22
2775.77	23
2776.64	25
2777.51	27.5
2778.37	24
2779.24	25
2780.11	25
2780.98	24
2781.85	28.5
2782.72	24
2783.59	25
2784.45	23
2785.32	25
2786.19	24
2787.06	27.5
2787.92	25
2788.79	26
2789.66	28
2790.53	28
2791.39	26.5
2792.26	25
2793.13	24
2793.99	23
2794.86	29
2795.73	26
2796.59	30
2797.46	27
2798.33	32
2799.19	27
2800.06	26
2800.92	26.25
2801.79	26.5
2802.65	24
2803.52	25.5
2804.39	27
2805.25	24
2806.11	23
2806.98	26.5
2807.84	25
2808.71	25.5
2809.57	28.5
2810.44	25.5
2811.3	25
2812.17	24
2813.03	26
2813.89	26.5
2814.76	27.5
2815.62	27.5
2816.49	29
2817.35	26
2818.21	28
2819.07	24
2819.94	25
2820.8	24
2821.66	22.5
2822.53	24
2823.39	25
2824.25	29
2825.11	24.5
2825.97	26.5
2826.84	28
2827.7	27.5
2828.56	30.5
2829.42	32
2830.28	22.5
2831.14	23.5
2832.01	27
2832.87	26
2833.73	27
2834.59	26
2835.45	28
2836.31	26
2837.17	28.5
2838.03	25
2838.89	25.5
2839.75	25.5
2840.61	28.5
2841.47	24.5
2842.33	27
2843.19	23
2844.05	23.5
2844.91	25.5
2845.77	27
2846.63	27
2847.48	24.5
2848.34	28.5
2849.2	28
2850.06	28
2850.92	27.5
2851.78	25.5
2852.64	23.5
2853.49	29
2854.35	24
2855.21	27
2856.07	25.5
2856.93	28
2857.78	27.5
2858.64	25
2859.5	27.5
2860.35	26
2861.21	24
2862.07	25
2862.93	25
2863.78	27.5
2864.64	24.5
2865.49	27
2866.35	26.5
2867.21	28.5
2868.06	24.5
2868.92	23
2869.77	26
2870.63	27
2871.49	28
2872.34	29
2873.2	29
2874.05	27.5
2874.91	27
2875.76	23.5
2876.62	27.5
2877.47	26.5
2878.32	32
2879.18	29
2880.03	31.5
2880.89	30.5
2881.74	31.5
2882.6	29
2883.45	32
2884.3	33.5
2885.16	25
2886.01	32
2886.86	31
2887.72	35
2888.57	34
2889.42	34.5
2890.27	34
2891.13	41
2891.98	36.5
2892.83	36
2893.68	38.5
2894.54	40
2895.39	45
2896.24	42
2897.09	46
2897.94	50
2898.8	50
2899.65	55.5
2900.5	55
2901.35	58
2902.2	65.5
2903.05	59
2903.9	61.5
2904.75	65
2905.6	66.5
2906.45	68.5
2907.3	65.5
2908.15	60
2909.01	61
2909.85	60.5
2910.7	58
2911.55	50.5
2912.4	52.5
2913.25	46
2914.1	44
2914.95	44
2915.8	39
2916.65	43
2917.5	42
2918.35	41
2919.2	36.5
2920.04	35
2920.89	34.5
2921.74	37
2922.59	30
2923.44	35.5
2924.29	30.5
2925.13	33.5
2925.98	33.5
2926.83	34
2927.68	31.5
2928.52	30.5
2929.37	26
2930.22	27
2931.06	30
2931.91	24
2932.76	31
2933.6	30.5
2934.45	27
2935.3	28
2936.14	23.5
2936.99	29.5
2937.83	24
2938.68	28
2939.53	28
2940.37	32
2941.22	28
2942.06	32
2942.91	26.5
2943.75	30.5
2944.6	26.5
2945.44	25
2946.29	27
2947.13	25.5
2947.98	31
2948.82	29.5
2949.66	29.5
2950.51	28.5
2951.35	30
2952.2	33
2953.04	29
2953.88	31
2954.73	31.5
2955.57	33.5
2956.41	36
2957.26	33
2958.1	34
2958.94	33
2959.79	42.5
2960.63	39.5
2961.47	39.5
2962.31	42.5
2963.15	42
2964	39
2964.84	44.5
2965.68	39.5
2966.52	39
2967.37	39.5
2968.21	38
2969.05	34.5
2969.89	42
2970.73	37.5
2971.57	32.0097
2972.41	36.4241
2973.25	32.4963
2974.09	35.3069
2974.93	33.4999
2975.77	31.5627
2976.62	30.5153
2977.46	32.7861
2978.3	28.9392
2979.14	33.1918
2979.98	27.5433
2980.81	30.3077
2981.65	28.0186
2982.49	29.4689
2983.33	26.1981
2984.17	29.4103
2985.01	28.9735
2985.85	24.9216
2986.69	26.93
2987.53	26.0879
2988.37	25.9634
2989.21	27.4986
2990.04	23.8726
2990.88	25.3859
2991.72	26.8121
2992.56	27.9822
2993.4	24.3567
2994.23	26.8043
2995.07	23.4412
2995.91	26.9942
2996.75	23.2407
2997.58	24.7012
2998.42	24.2558
2999.26	22.944
3000.1	24.3145
3000.93	22.9601
3001.77	23.5888
3002.61	23.1563
3003.44	24.2167
3004.28	25.1135
3005.11	21.2585
3005.95	21.2455
3006.79	23.4738
3007.62	26.013
3008.46	25.3712
3009.29	25.0319
3010.13	23.2273
3010.97	22.9607
3011.8	22.3897
3012.64	24.4572
3013.47	22.6361
3014.31	23.1385
3015.14	22.5046
3015.98	22.3184
3016.81	23.9247
3017.64	22.1783
3018.48	21.9815
3019.31	22.855
3020.15	23.9976
3020.98	21.9598
3021.82	23.938
3022.65	22.9082
3023.48	21.7471
3024.32	23.4997
3025.15	21.5175
3025.98	23.9041
3026.82	22.3228
3027.65	22.8175
3028.48	21.9114
3029.31	22.3617
3030.15	24.1053
3030.98	22.6882
3031.81	21.2789
3032.64	22.671
3033.48	22.085
3034.31	23.22
3035.14	24.3881
3035.97	22.0592
3036.8	22.8711
3037.64	22.9043
3038.47	21.5631
3039.3	22.5458
3040.13	22.9667
3040.96	22.2279
3041.79	24.9582
3042.62	24.3961
3043.45	22.4484
3044.28	22.0941
3045.12	21.9787
3045.95	22.8034
3046.78	23.1214
3047.61	22.6592
3048.44	22.3015
3049.27	23.5461
3050.1	23.3553
3050.92	22.818
3051.75	23.2524
3052.58	23.3685
3053.41	24.3673
3054.24	24.0008
3055.07	23.4472
3055.9	24.0792
3056.73	22.4976
3057.26	22.5
3058.09	25.5
3058.93	27
3059.76	23
3060.59	24
3061.43	25.5
3062.26	23
3063.09	22
3063.92	20
3064.76	25.5
3065.59	25.5
3066.42	23
3067.25	21
3068.08	20.5
3068.92	25
3069.75	19.5
3070.58	25.5
3071.41	22.5
3072.24	25.5
3073.07	22.5
3073.9	23
3074.73	23
3075.57	27
3076.4	24.5
3077.23	24
3078.06	23
3078.89	22
3079.72	23
3080.55	26.5
3081.38	24.5
3082.21	23.5
3083.04	24
3083.87	22
3084.7	24
3085.53	25
3086.36	24.5
3087.19	23
3088.01	21
3088.84	20.5
3089.67	23.5
3090.5	22.5
3091.33	20
3092.16	19
3092.99	19
3093.81	24
3094.64	25.5
3095.47	22.5
3096.3	21
3097.13	24
3097.95	22.5
3098.78	25.5
3099.61	25
3100.44	24
3101.26	25
3102.09	25.5
3102.92	25
3103.74	24
3104.57	26
3105.4	18
3106.22	21.5
3107.05	22.5
3107.88	22
3108.7	26.5
3109.53	24
3110.35	23
3111.18	22
3112.01	24.5
3112.83	22
3113.66	19
3114.48	19
3115.31	19.5
3116.13	21
3116.96	23.5
3117.78	26.5
3118.61	23.5
3119.43	22.5
3120.26	24
3121.08	19.5
3121.9	22
3122.73	24
3123.55	23
3124.38	22
3125.2	25
3126.02	26
3126.85	24.5
3127.67	20.5
3128.49	23
3129.32	24.5
3130.14	23
3130.96	21
3131.79	26
3132.61	23.5
3133.43	24
3134.25	20.5
3135.08	22.5
3135.9	22
3136.72	24
3137.54	21.5
3138.37	21.5
3139.19	23.5
3140.01	29
3140.83	23
3141.65	24.5
3142.47	25
3143.29	26
3144.12	23.5
3144.94	23.5
3145.76	23.5
3146.58	25
3147.4	22
3148.22	24.5
3149.04	28.5
3149.86	26.5
3150.68	25
3151.5	24
3152.32	23
3153.14	23.5
3153.96	23.5
3154.78	22
3155.6	25
3156.42	23
3157.24	21.5
3158.06	19.5
3158.88	26
3159.7	23
3160.51	21.5
3161.33	25.5
3162.15	21
3162.97	20
3163.79	19.5
3164.61	23
3165.42	24
3166.24	27.5
3167.06	27
3167.88	23.5
3168.7	26
3169.51	24.5
3170.33	24
3171.15	21.5
3171.97	21
3172.78	23.5
3173.6	23.5
3174.42	22
3175.23	21
3176.05	28
3176.87	25
3177.68	24
3178.5	24
3179.32	19
3180.13	25
3180.95	23.5
3181.76	25
3182.58	22.5
3183.4	22
3184.21	25
3185.03	22.5
3185.84	25.5
3186.66	24.5
3187.47	23
3188.29	24
3189.1	23
3189.92	24
3190.73	20
3191.55	22.5
3192.36	25
3193.17	23.5
3193.99	24
3194.8	25.5
3195.62	21
3196.43	22
3197.24	25
3198.06	25.5
3198.87	25
3199.68	25.5
3200.5	23
3201.31	26
3202.12	20.5
3202.94	28
3203.75	25.5
3204.56	23.5
3205.38	22
3206.19	23.5
3207	22
3207.81	22
3208.62	22.5
3209.44	19
3210.25	24
3211.06	20.5
3211.87	24
3212.68	20
3213.49	22
3214.31	25
3215.12	23.5
3215.93	22.5
3216.74	28.5
3217.55	25
3218.36	23
3219.17	26.5
3219.98	25.5
3220.79	23.5
3221.6	24.5
3222.41	22.5
3223.22	26
3224.03	25.5
3224.84	27
3225.65	21
3226.46	21.5
3227.27	22.5
3228.08	22.5
3228.89	29.5
3229.7	26.5
3230.51	22
3231.32	25
3232.13	21
3232.94	24.5
3233.74	26.5
3234.55	20.5
3235.36	23
3236.17	24
3236.98	25
3237.78	23.5
3238.59	25.5
3239.4	24
3240.21	23.5
3241.02	23.5
3241.82	26.5
3242.63	23.5
3243.44	25
3244.25	22.5
3245.05	28
3245.86	22
3246.67	18
3247.47	24
3248.28	22.5
3249.09	22.5
3249.89	24
3250.7	23.5
3251.5	27.5
3252.31	23
3253.12	28
3253.92	25
3254.73	22
3255.53	20
3256.34	21
3257.14	24.5
3257.95	30
3258.75	24.5
3259.56	26
3260.36	20.5
3261.17	23
3261.97	24.5
3262.78	24.5
3263.58	23.5
3264.39	25
3265.19	22.5
3265.99	24.5
3266.8	22
3267.6	26
3268.41	21.5
3269.21	20
3270.01	23
3270.82	23.5
3271.62	27
3272.42	21.5
3273.23	24
3274.03	22
3274.83	25.5
3275.64	25
3276.44	22
3277.24	22
3278.04	21.5
3278.85	27.5
3279.65	24.5
3280.45	19.5
3281.25	24
3282.05	22.5
3282.85	26.5
3283.66	22.5
3284.46	22
3285.26	25.5
3286.06	25.5
3286.86	22
3287.66	25.5
3288.46	25
3289.27	27
3290.07	23.5
3290.87	25
3291.67	28
3292.47	26.5
3293.27	25.5
3294.07	21
3294.87	27.5
3295.67	21
3296.47	18
3297.27	26
3298.07	25.5
3298.87	24
3299.67	21
3300.47	25
3301.26	23
3302.06	24.5
3302.86	26
3303.66	23.5
3304.46	23.5
3305.26	21
3306.06	22
3306.86	25.5
3307.65	24
3308.45	22.5
3309.25	26
3310.05	22
3310.85	27.5
3311.64	22
3312.44	28.5
3313.24	24.5
3314.04	24
3314.83	24
3315.63	28
3316.43	20
3317.22	23.5
3318.02	24
3318.82	25.5
3319.62	25
3320.41	26.5
3321.21	23
3322	19
3322.8	26
3323.6	25
3324.39	25.5
3325.19	22
3325.98	22.5
3326.78	21
3327.58	25
3328.37	27
3329.17	24
3329.96	23.5
3330.76	22
3331.55	27
3332.35	27
3333.14	26
3333.94	25
3334.73	21.5
3335.52	29
3336.32	24
3337.11	23.5
3337.91	24
3338.7	26.5
3339.5	26
3340.29	24.5
3341.08	25
3341.88	21
3342.67	27.5
3343.46	24
3344.26	23
3345.05	23
3345.84	22.5
3346.63	25
3347.43	27.5
3348.22	25.5
3349.01	23
3349.8	23.5
3350.6	21.5
3351.39	25
3352.18	25
3352.97	20
3353.77	24
3354.56	22
3355.35	26.5
3356.14	24.5
3356.93	22
3357.72	26.5
3358.51	24.5
3359.31	23.5
3360.1	20.5
3360.89	26.5
3361.68	20
3362.47	24.5
3363.26	23
3364.05	27.5
3364.84	24.5
3365.63	26
3366.42	23
3367.21	26
3368	24.5
3368.79	23
3369.58	19.5
3370.37	25.5
3371.16	22.5
3371.95	21
3372.74	24.5
3373.53	21
3374.32	26
3375.1	25
3375.89	21
3376.68	23.5
3377.47	23
3378.26	26
3379.05	24
3379.84	22
3380.62	25.5
3381.41	28.5
3382.2	27
3382.99	25
3383.78	24.5
3384.56	25
3385.35	23
3386.14	25
3386.93	25.5
3387.71	24.5
3388.5	25
3389.29	27
3390.07	22
3390.86	23.5
3391.65	23
3392.43	26.5
3393.22	23.5
3394.01	20.5
3394.79	25
3395.58	28.5
3396.36	25
3397.15	27
3397.94	25.5
3398.72	26.5
3399.51	23
3400.29	26
3401.08	24
3401.86	22
3402.65	23.5
3403.43	24.5
3404.22	24.5
3405	24
3405.79	27.5
3406.57	22.5
3407.36	24
3408.14	23
3408.93	26
3409.71	24
3410.49	24.5
3411.28	23
3412.06	21.5
3412.84	26
3413.63	23.5
3414.41	21.5
3415.2	26
3415.98	21.5
3416.76	25.5
3417.54	23.5
3418.33	22
3419.11	20
3419.89	23.5
3420.68	24.5
3421.46	25
3422.24	21.5
3423.02	23.5
3423.81	26
3424.59	23
3425.37	21
3426.15	25.5
3426.93	21.5
3427.71	24.5
3428.5	26.5
3429.28	22
3430.06	18
3430.84	22
3431.62	23
3432.4	26.5
3433.18	24
3433.96	25
3434.75	21
3435.53	21.5
3436.31	23
3437.09	21.5
3437.87	25
3438.65	21.5
3439.43	23.5
3440.21	23
3440.99	23.5
3441.77	22
3442.55	23
3443.33	23.5
3444.1	24
3444.88	25
3445.66	23.5
3446.44	24.5
3447.22	25.5
3448	25.5
3448.78	23.5
3449.56	21.5
3450.34	26.5
3451.11	24
3451.89	25
3452.67	27
3453.45	24
3454.23	22.5
3455	24.5
3455.78	24.5
3456.56	26
3457.34	23
3458.11	25.5
3458.89	25
3459.67	22
3460.45	25
3461.22	25
3462	26
3462.78	23.5
3463.55	25
3464.33	25
3465.11	23
3465.88	24.5
3466.66	25
3467.44	23
3468.21	24.5
3468.99	23
3469.76	22.5
3470.54	23.5
3471.32	23
3472.09	23.5
3472.87	22
3473.64	22.5
3474.42	23.5
3475.19	27
3475.97	21
3476.74	25.5
3477.52	20
3478.29	26
3479.07	25.5
3479.84	23.5
3480.61	25
3481.39	25.5
3482.16	24.5
3482.94	25
3483.71	24.5
3484.48	20
3485.26	25
3486.03	22
3486.81	25
3487.58	27
3488.35	23
3489.13	28
3489.9	25.5
3490.67	26.5
3491.44	24.5
3492.22	20
3492.99	23
3493.76	22
3494.54	24
3495.31	25.5
3496.08	25.5
3496.85	23
3497.62	26.5
3498.4	22.5
3499.17	24
3499.94	24.5
