#Acq. time (s)=	5
#Accumulations=	5
#Range (cm-¹)=	100...3500
#Windows=	4
#Autofocus=	Off
#AutoExposure=	Off
#Spike filter=	Multiple accum.
#Delay time (s)=	0
#Binning=	1
#Readout mode=	Signal
#DeNoise=	Off
#ICS correction=	Off
#Dark correction=	Off
#Inst. Process=	Off
#Instrument=	LabRAM HR Evol
#Detector=	Syncerity OE
#Objective=	x100_VIS
#Grating=	600 (500nm)
#ND Filter=	25%
#Laser=	633nm_Edge
#Hole=	100.021
#Range=	Visible
#Project=	verificaciones
#Sample=	at4
#Site=	plain
#Title=	bolusat4plain
#Remark=	
#Date=	14.01.2026 14:06
#Acquired=	14.01.2026 14:06:19
100.618	28
101.901	33
103.185	31
104.468	30
105.751	32.5
107.033	30.5
108.316	32
109.598	31.5
110.88	30
112.162	28
113.445	28
114.727	31.5
116.008	35
117.289	25.5
118.57	26.5
119.85	31.5
121.13	27.5
122.411	28
123.691	35
124.97	32
126.25	29
127.529	33.5
128.808	32.5
130.086	34
131.364	37
132.643	34
133.921	33
135.199	36
136.477	32.5
137.755	38.5
139.032	30
140.309	35.5
141.586	36
142.863	33.5
144.14	34
145.415	38
146.691	38
147.967	40
149.243	41.5
150.518	38
151.794	39
153.067	37
154.342	43.5
155.617	41.5
156.892	39
158.166	40
159.439	37.5
160.712	40
161.986	40
163.26	37.5
164.531	39
165.805	41.5
167.077	37.5
168.35	38.5
169.621	39
170.893	37
172.165	40.5
173.437	41.5
174.707	38.5
175.979	36.5
177.25	39.5
178.519	41.5
179.79	38.5
181.061	36.5
182.33	37.5
183.6	38
184.87	39.5
186.138	44
187.408	43
188.676	39.5
189.945	42
191.214	37
192.481	39.5
193.75	38
195.016	41
196.285	39.5
197.552	40
198.819	42
200.086	38
201.352	36.5
202.619	39.5
203.884	38.5
205.151	32
206.416	35
207.682	36
208.947	39
210.213	38
211.477	33.5
212.742	35
214.006	35
215.271	34
216.535	32
217.799	32
219.062	34
220.326	33
221.589	32.5
222.851	33
224.115	32
225.377	33
226.64	34.5
227.901	34
229.163	30.5
230.425	33
231.686	31
232.947	32.5
234.209	30
235.469	29
236.729	30.5
237.991	33
239.25	29
240.51	30
241.771	34
243.03	30.5
244.288	29.5
245.549	27
246.807	29.5
248.065	27
249.323	28
250.583	29
251.84	30
253.098	32
254.355	28
255.613	27.5
256.87	29
258.127	28
259.383	26
260.639	32
261.897	31.5
263.153	31.5
264.408	30
265.664	35.5
266.919	30.5
268.174	24.5
269.43	28.5
270.685	30
271.939	28.5
273.193	27.5
274.447	28.5
275.701	32
276.955	27
278.208	22.5
279.461	32
280.714	25.5
281.968	31
283.221	30
284.473	28.5
285.726	23.5
286.977	30
288.229	31.5
289.481	31
290.732	23
291.983	28
293.234	27.5
294.485	25
295.736	30
296.986	27.5
298.236	28
299.486	26.5
300.736	25.5
301.985	31
303.233	27.5
304.482	28
305.731	30.5
306.98	33
308.228	29
309.477	28
310.725	25
311.973	29.5
313.22	28
314.468	30.5
315.714	32
316.961	30
318.208	26.5
319.455	29
320.701	29
321.947	28
323.192	30
324.438	29.5
325.684	28.5
326.929	29
328.175	23.5
329.418	28.5
330.663	29.5
331.908	28
333.152	30.5
334.395	24.5
335.639	28.5
336.883	28.5
338.127	26.5
339.369	25.5
340.612	29.5
341.855	29.5
343.097	26
344.34	26.5
345.582	27
346.823	24
348.065	32
349.307	31
350.547	27.5
351.789	25
353.03	27.5
354.27	35.5
355.511	27
356.75	30.5
357.991	28.5
359.231	30
360.47	28.5
361.709	31.5
362.948	28
364.187	28
365.427	26.5
366.664	30.5
367.903	28.5
369.14	27.5
370.379	30
371.616	30
372.854	25.5
374.091	27.5
375.328	33
376.564	30.5
377.802	25.5
379.037	26
380.274	26.5
381.51	29
382.745	28.5
383.981	27
385.216	28
386.452	25.5
387.686	28
388.922	31
390.155	28.5
391.389	27
392.624	27.5
393.857	27.5
395.091	25.5
396.325	32
397.558	31
398.79	28.5
400.024	29
401.256	25.5
402.488	25.5
403.721	29.5
404.953	25.5
406.184	28
407.417	26.5
408.648	26.5
409.878	28.5
411.109	29.5
412.341	29
413.571	32
414.801	26.5
416.031	27
417.262	25.5
418.491	27.5
419.72	31
420.949	28.5
422.178	29
423.408	28
424.637	29.5
425.865	32.5
427.093	29
428.32	28.5
429.548	27
430.777	26.5
432.004	28.5
433.231	24
434.458	26
435.685	29
436.911	27.5
438.137	27.5
439.363	29.5
440.589	28.5
441.815	28
443.042	30.5
444.267	31
445.492	24.5
446.717	26.5
447.942	25
449.166	25
450.39	27
451.615	31.5
452.838	27
454.062	32.5
455.286	23.5
456.509	31
457.732	32
458.955	31
460.178	25
461.399	35
462.621	30.5
463.843	34.5
465.065	31
466.287	32.5
467.508	31
468.73	35
469.951	34.5
471.172	35
472.393	40
473.612	35
474.832	37
476.052	35.5
477.272	42.5
478.492	41.5
479.712	47.5
480.93	47
482.149	47.5
483.368	50
484.587	57.5
485.806	59.5
487.023	57
488.241	58.5
489.459	60
490.677	57
491.893	55.5
493.111	55.5
494.328	53.5
495.543	52.5
496.76	46.5
497.977	45.5
499.194	44
500.409	40.5
501.625	39.5
502.841	37.5
504.055	41.5
505.27	36.5
506.486	38.5
507.699	38
508.914	37
510.128	34
511.342	39.5
512.557	34
513.77	32.5
514.984	33
516.196	31.5
517.41	31.5
518.623	33.5
519.835	30
521.048	36.5
522.259	32.5
523.472	33
524.683	34
525.895	30
527.106	31
528.318	27
529.528	32
530.74	28.5
531.949	36
533.161	27
534.37	26.5
535.581	29.5
536.79	28
537.999	28
539.209	28
540.418	25.5
541.627	28.5
542.835	25.5
544.043	32
545.253	26
546.46	28
547.669	30
548.876	25.5
550.083	22
551.292	26.5
552.498	30
553.705	29
554.912	30
556.118	27.5
557.324	29
558.53	31.5
559.737	24.5
560.942	31
562.147	28
563.353	27.5
564.558	25
565.763	27
566.967	29
568.173	27
569.377	24.5
570.58	25.5
571.784	29
572.987	23.5
574.192	26.5
575.395	28.5
576.598	26.5
577.8	29.5
579.003	29.5
580.205	28.5
581.407	28
582.61	29
583.812	28.5
585.014	28
586.215	29
587.416	27
588.617	27
589.818	30
591.018	30
592.219	31
593.419	26.5
594.619	27
595.819	27.5
597.02	30.5
598.219	33.5
599.418	26.5
600.617	29
601.816	26.5
603.015	26.5
604.213	29
605.41	26.5
606.608	26.5
607.806	28.5
609.004	28.5
610.201	30
611.399	25.5
612.596	24
613.793	27
614.989	27
616.186	28.5
617.382	31
618.579	28
619.775	28.5
620.969	27.5
622.165	27.5
623.36	26
624.555	25
625.75	31.5
626.945	28.5
628.139	27
629.333	29
630.527	27
631.721	32
632.915	28.5
634.108	23
635.301	28
636.495	28.5
637.688	27
638.88	27.5
640.072	27
641.265	33
642.456	30.5
643.648	31
644.84	31
646.032	32
647.222	26
648.414	26.5
649.605	21
650.795	28
651.986	26
653.177	26.5
654.366	25.5
655.556	31
656.745	30
657.935	28
659.125	34
660.313	26
661.503	28
662.69	27
663.879	27
665.067	31
666.256	31.5
667.444	31
668.631	32.5
669.819	33.5
671.006	30
672.194	32
673.38	34
674.567	26.5
675.753	31.5
676.94	29
678.125	32
679.311	35
680.497	30
681.682	29
682.868	34
684.053	38.5
685.238	29.5
686.422	36
687.606	34.5
688.792	34
689.975	35
691.159	35
692.343	33.5
693.526	34
694.71	31.5
695.893	35
697.076	34
698.259	39.5
699.441	37
700.623	39.5
701.805	34.5
702.988	37.5
704.169	41
705.35	43.5
706.533	43.5
707.714	51.5
708.894	48
710.075	50
711.255	45.5
712.436	43
713.616	41
714.796	39
715.975	33
717.155	33.5
718.335	33
719.514	29.5
720.693	30
721.872	29.5
723.05	30.5
724.228	30
725.406	28
726.585	28
727.763	29.5
728.941	24.5
730.118	26
731.295	31
732.472	26
733.649	24.5
734.825	26
736.002	31
737.178	29
738.354	30.5
739.53	26
740.705	30
741.881	24.5
743.056	28
744.231	27.5
745.406	31
746.581	28
747.755	30
748.93	27
750.104	30.5
751.278	33
752.452	27
753.625	28.5
754.799	29.5
755.972	28
757.144	31
758.317	30
759.489	29.5
760.662	26.5
761.834	26.5
763.006	28.5
764.178	32
765.349	30
766.521	25
767.692	28
768.863	25
770.034	28
771.204	28
772.374	32
773.545	28.5
774.715	28.5
775.885	25.5
777.054	28
778.224	32.5
779.393	31.5
780.562	30
781.731	26
782.9	30.5
784.069	27.5
785.236	31
786.405	30
787.573	34.5
788.74	31
789.908	32
791.074	29
792.242	30.5
793.409	30.5
794.575	32
795.742	30.5
796.909	29.5
798.074	27.5
799.241	29.5
800.406	25
801.572	25
802.737	32.5
803.902	33
805.067	30
806.232	25.5
807.396	26.5
808.561	25
809.725	28
810.889	30
812.052	27.5
813.217	29.5
814.38	29
815.544	29
816.706	29
817.87	28
819.032	26
820.195	26
821.357	29.5
822.518	27
823.681	28
824.842	28.5
826.005	26
827.165	23.5
828.326	22.5
829.488	27
830.648	28
831.808	26
832.97	30.5
834.129	26.5
835.289	25
836.45	28
837.609	22
838.768	24.5
839.927	25.5
841.087	25
842.245	26
843.404	30.5
844.562	31
845.721	30
846.879	26
848.036	27
849.194	29
850.351	27
851.509	27.5
852.666	25.5
853.823	24.5
854.979	27
856.136	29.5
857.292	29.5
858.448	31
859.605	28.5
860.761	27
861.916	31
863.071	32.5
864.226	31.5
865.381	32
866.536	30.5
867.691	27
868.845	28.5
869.999	28
871.153	27
872.307	26.5
873.461	23.5
874.614	27.5
875.767	27
876.92	27
878.073	26.5
879.226	27
880.379	29
881.531	30
882.683	24.5
883.835	28.5
884.987	26
886.139	29.5
887.291	29.5
888.442	26.5
889.593	27.5
890.743	32.5
891.893	25.5
893.044	29
894.195	27.5
895.345	25
896.495	25.5
897.643	29.5
898.793	23
899.943	25.5
901.092	31.5
902.241	26
903.389	27.5
904.538	21.5
905.687	23
906.835	26.5
907.982	25
909.13	26.5
910.278	23.5
911.426	26
912.572	27.5
913.72	23
914.867	25
916.013	25
917.16	28
918.306	26
919.451	28
920.598	29.5
921.744	29
922.889	26
924.035	29.5
925.18	26.5
926.324	26.5
927.47	24
928.614	22
929.758	25.5
930.902	27.5
932.047	26
933.191	29.5
934.334	26.5
935.478	22
936.621	22.5
937.764	27
938.906	28.5
940.05	26
941.192	23.5
942.335	23
943.476	26
944.619	25.5
945.76	25
946.901	23.5
948.043	28.5
949.184	25
950.326	27.5
951.466	26
952.606	24
953.747	22.5
954.887	25.5
956.028	26
957.167	28
958.307	28.5
959.447	24.5
960.586	27
961.725	23.5
962.865	24.5
964.003	23
965.141	24
966.279	26.5
967.418	24
968.556	26
969.693	24.5
970.831	26
971.969	26.5
973.106	21
974.243	26
975.38	29
976.517	25.5
977.654	25
978.79	28.5
979.926	28.5
981.061	27.5
982.197	29.5
983.334	26
984.469	26.5
985.604	26
986.739	24.5
987.873	30.5
989.008	24
990.142	24.5
991.277	23
992.411	22
993.544	26
994.679	29
995.813	30
996.946	24.5
998.079	25.5
999.212	21
1000.35	24
1001.48	23
1002.61	30.5
1003.74	24
1004.87	23
1006.01	23
1007.14	24.5
1008.27	32
1009.4	28.5
1010.53	25.5
1011.66	28
1012.79	22.5
1013.92	25.5
1015.05	24
1016.18	25.5
1017.31	27
1018.44	27.5
1019.57	26.5
1020.7	23
1021.83	27
1022.96	28
1024.09	26
1025.22	24
1026.35	24.5
1027.48	30
1028.6	25.5
1029.73	24
1030.86	24.5
1031.99	23.5
1033.12	25.5
1034.24	25
1035.37	29
1036.5	26
1037.62	25.5
1038.75	23.5
1039.88	26.5
1041	28
1042.13	27.5
1043.25	26
1044.38	27
1045.5	24.5
1046.63	23.5
1047.76	22.5
1048.88	27.5
1050	25.5
1051.13	26
1052.25	26
1053.38	22.5
1054.5	24.5
1055.63	28
1056.75	27.5
1057.87	23.5
1058.99	26
1060.12	25.5
1061.24	24
1062.36	26
1063.49	26
1064.61	27.5
1065.73	27
1066.85	26.5
1067.97	28.5
1069.1	23.5
1070.22	28.5
1071.34	29.5
1072.46	23
1073.58	25.5
1074.7	25.5
1075.82	24.5
1076.94	22
1078.06	23.5
1079.18	27
1080.3	22
1081.42	23.5
1082.54	27.5
1083.66	21.5
1084.78	27
1085.9	23.5
1087.02	26
1088.13	28
1089.25	21.5
1090.37	26
1091.49	25
1092.61	25
1093.72	25.5
1094.84	21.5
1095.96	28
1097.08	27
1098.19	26.5
1099.31	26
1100.42	23
1101.54	25.5
1102.66	24
1103.77	22
1104.89	24.5
1106	24.5
1107.12	29.5
1108.23	28
1109.35	25
1110.46	25.5
1111.58	26
1112.69	20.5
1113.81	22
1114.92	24.5
1116.04	27.5
1117.15	22.5
1118.26	23
1119.38	23
1120.49	26.5
1121.6	23.5
1122.72	20.5
1123.83	25.5
1124.94	23.5
1126.05	25
1127.17	23.5
1128.28	21
1129.39	24
1130.5	23.5
1131.61	20
1132.72	24
1133.83	23
1134.94	25
1136.06	25.5
1137.17	27
1138.27	23
1139.39	26.5
1140.5	25.5
1141.61	23
1142.72	25
1143.82	23
1144.93	26.5
1146.04	28.5
1147.15	26.5
1148.26	22
1149.37	28
1150.48	23
1151.58	25.5
1152.69	24
1153.8	27
1154.91	25.5
1156.02	23
1157.12	30.5
1158.23	25.5
1159.34	26.5
1160.44	24.5
1161.55	23
1162.66	25
1163.76	25
1164.87	26.5
1165.97	23
1167.08	26
1168.18	29
1169.29	27.5
1170.39	24.5
1171.5	26.5
1172.6	25
1173.71	26.5
1174.81	23.5
1175.92	25
1177.02	22.5
1178.13	26.5
1179.23	25
1180.33	23
1181.44	27
1182.54	25
1183.64	25.5
1184.74	28.5
1185.85	20.5
1186.95	22
1188.05	23
1189.15	24.5
1190.26	25
1191.36	23
1192.46	22.5
1193.56	25.5
1194.66	22.5172
1195.76	24.4475
1196.86	23.0768
1197.96	23.6657
1199.06	24.1006
1200.16	23.9521
1201.26	25.928
1202.36	25.7087
1203.46	27.5064
1204.56	24.3277
1205.66	23.351
1206.76	24.9429
1207.86	24.437
1208.96	20.3923
1210.06	23.7955
1211.16	25.3727
1212.25	25.8592
1213.35	23.2378
1214.45	23.759
1215.55	27.5254
1216.65	24.1033
1217.74	25.3932
1218.84	21.4435
1219.94	24.5318
1221.03	24.3915
1222.13	22.8552
1223.23	25.3665
1224.32	23.1251
1225.42	25.2607
1226.52	26.7559
1227.61	23.8161
1228.71	25.0139
1229.8	24.0974
1230.9	23.2228
1231.99	23.0974
1233.09	23.7942
1234.18	25.7768
1235.28	23.6544
1236.37	22.9789
1237.47	27.5419
1238.56	22.726
1239.65	22.2499
1240.75	25.006
1241.84	23.0876
1242.93	24.4939
1244.03	22.724
1245.12	23.8056
1246.21	26.7626
1247.31	22.0138
1248.4	24.934
1249.49	23.896
1250.58	23.3342
1251.67	23.186
1252.77	26.2088
1253.86	24.2738
1254.95	24.8563
1256.04	25.1777
1257.13	27.3313
1258.22	25.035
1259.31	26.0356
1260.4	26.6932
1261.49	24.7985
1262.58	24.9215
1263.67	23.669
1264.76	26.7735
1265.85	25.2553
1266.94	27.8019
1268.03	26.9263
1269.12	25.6675
1270.21	26.7401
1271.3	25.6735
1272.39	23.8794
1273.47	24.3732
1274.56	24.3991
1275.65	24.5112
1276.74	24.3706
1277.83	25.6251
1278.91	23.0777
1280	23.2179
1281.09	24.7196
1282.17	24.8137
1283.26	24.4175
1284.35	24.146
1285.43	24.3478
1286.52	21.9453
1287.61	22.664
1288.69	24.2503
1289.78	24.4437
1290.86	21.5583
1291.95	24.6625
1293.03	25.6479
1294.12	26.7954
1295.2	25.7573
1296.29	24.6945
1297.37	25.091
1298.46	26.1359
1299.54	23.1352
1300.63	24.3122
1301.71	24.6469
1302.79	23.7873
1303.88	25.1637
1304.96	25.949
1306.04	24.8466
1306.5	24
1307.59	24.5
1308.68	27
1309.76	23.5
1310.85	23.5
1311.94	25.5
1313.03	27.5
1314.11	26
1315.2	23
1316.29	27
1317.37	25.5
1318.46	27
1319.55	22
1320.63	24.5
1321.72	22
1322.81	24.5
1323.89	25.5
1324.98	25
1326.06	26
1327.15	20
1328.23	25
1329.32	26
1330.4	25.5
1331.49	25
1332.57	26
1333.66	25
1334.74	20
1335.82	27
1336.91	28
1337.99	22.5
1339.07	26.5
1340.16	27
1341.24	24.5
1342.32	25.5
1343.4	23
1344.49	24.5
1345.57	25.5
1346.65	25.5
1347.73	21.5
1348.82	24
1349.9	23
1350.98	27
1352.06	25.5
1353.14	20.5
1354.22	27
1355.3	25
1356.38	25.5
1357.46	25.5
1358.54	24.5
1359.62	23
1360.7	22
1361.78	27
1362.86	25.5
1363.94	22
1365.02	27.5
1366.1	28.5
1367.18	21
1368.26	23
1369.34	21.5
1370.41	23
1371.49	25.5
1372.57	26.5
1373.65	26
1374.72	26.5
1375.8	28
1376.88	23.5
1377.96	26.5
1379.03	26
1380.11	24.5
1381.19	25
1382.26	23
1383.34	24
1384.42	24
1385.49	29
1386.57	26
1387.64	25
1388.72	26.5
1389.79	29.5
1390.87	25.5
1391.94	23
1393.02	27.5
1394.09	25.5
1395.17	26
1396.24	28
1397.31	26.5
1398.39	28.5
1399.46	27
1400.54	29
1401.61	32.5
1402.68	29.5
1403.76	29
1404.83	28
1405.9	32.5
1406.97	32
1408.05	29.5
1409.12	29.5
1410.19	28.5
1411.26	33
1412.33	32
1413.4	32.5
1414.48	36.5
1415.55	30
1416.62	26.5
1417.69	28
1418.76	29
1419.83	29
1420.9	24
1421.97	31
1423.04	32
1424.11	24
1425.18	30.5
1426.25	25
1427.32	28
1428.39	27.5
1429.46	29
1430.52	29
1431.59	24.5
1432.66	28.5
1433.73	25
1434.8	25
1435.87	33.5
1436.93	28
1438	26.5
1439.07	28.5
1440.14	25.5
1441.2	25.5
1442.27	25.5
1443.34	28.5
1444.4	24.5
1445.47	27
1446.54	22.5
1447.6	26
1448.67	23
1449.73	27.5
1450.8	27.5
1451.86	28
1452.93	28.5
1453.99	27.5
1455.06	24
1456.12	23
1457.19	28
1458.25	21.5
1459.32	26.5
1460.38	25
1461.45	24
1462.51	28.5
1463.57	23.5
1464.64	25.5
1465.7	26.5
1466.76	26
1467.82	28
1468.89	27
1469.95	22
1471.01	24.5
1472.07	24
1473.14	26
1474.2	24
1475.26	22
1476.32	24
1477.38	24
1478.44	25
1479.5	25.5
1480.57	26
1481.63	28
1482.69	25
1483.75	24
1484.81	21.5
1485.87	24.5
1486.93	27
1487.99	27
1489.05	27.5
1490.1	26
1491.17	24.5
1492.22	26.5
1493.28	22.5
1494.34	29
1495.4	30.5
1496.46	28
1497.52	19
1498.57	28.5
1499.63	28
1500.69	29.5
1501.75	21.5
1502.8	23.5
1503.86	26
1504.92	26
1505.98	26
1507.03	22.5
1508.09	24
1509.15	26.5
1510.2	26.5
1511.26	25
1512.31	27
1513.37	27
1514.42	29
1515.48	27.5
1516.53	24.5
1517.59	26.5
1518.64	26.5
1519.7	27
1520.75	23.5
1521.81	24
1522.86	24.5
1523.92	26.5
1524.97	23
1526.02	23.5
1527.08	25.5
1528.13	29
1529.18	25.5
1530.24	24
1531.29	24
1532.34	25.5
1533.39	28
1534.45	30
1535.5	20.5
1536.55	26
1537.6	24
1538.65	24
1539.71	28.5
1540.76	27.5
1541.81	22
1542.86	28.5
1543.91	27.5
1544.96	27
1546.01	24
1547.06	24.5
1548.11	23
1549.16	28
1550.21	27
1551.26	23.5
1552.31	23.5
1553.36	24.5
1554.41	26.5
1555.46	26.5
1556.51	23
1557.56	26
1558.6	30
1559.65	27
1560.7	25
1561.75	27
1562.8	23
1563.84	25.5
1564.89	27
1565.94	25.5
1566.99	24
1568.03	25.5
1569.08	26
1570.13	26
1571.17	27
1572.22	26.5
1573.27	27.5
1574.31	22
1575.36	25
1576.4	25
1577.45	25
1578.5	26
1579.54	24.5
1580.59	25.5
1581.63	23
1582.68	25
1583.72	26
1584.76	24.5
1585.81	25
1586.85	23
1587.9	26.5
1588.94	28
1589.98	26.5
1591.03	26
1592.07	27
1593.11	23
1594.16	28
1595.2	25.5
1596.24	28.5
1597.29	24.5
1598.33	27
1599.37	23
1600.41	21
1601.45	24.5
1602.49	24
1603.54	23
1604.58	22
1605.62	25.5
1606.66	27
1607.7	22
1608.74	26.5
1609.78	23.5
1610.82	30
1611.86	30
1612.9	23
1613.94	26
1614.98	25.5
1616.02	26.5
1617.06	24
1618.1	29
1619.14	25
1620.18	28
1621.22	25.5
1622.25	27
1623.29	27.5
1624.33	23
1625.37	24.5
1626.41	28
1627.45	23
1628.48	28
1629.52	26.5
1630.56	22
1631.59	22.5
1632.63	22
1633.67	22
1634.7	25.5
1635.74	29
1636.78	26.5
1637.81	22.5
1638.85	27
1639.88	24
1640.92	27.5
1641.96	25.5
1642.99	20
1644.03	25.5
1645.06	24
1646.1	25.5
1647.13	23
1648.17	24
1649.2	21
1650.23	26.5
1651.27	26.5
1652.3	23
1653.33	25.5
1654.37	27.5
1655.4	26
1656.44	26.5
1657.47	25
1658.5	25.5
1659.53	24
1660.57	23.5
1661.6	28.5
1662.63	27.5
1663.66	23
1664.69	26
1665.73	25.5
1666.76	27
1667.79	24
1668.82	23
1669.85	23.5
1670.88	27
1671.91	27.5
1672.94	25
1673.97	29
1675.01	28.5
1676.03	28.5
1677.07	27.5
1678.1	25
1679.12	25.5
1680.15	26
1681.18	27
1682.21	25.5
1683.24	26
1684.27	30
1685.3	26
1686.33	28
1687.36	24.5
1688.38	24.5
1689.41	26
1690.44	27
1691.47	25
1692.5	25.5
1693.52	24.5
1694.55	24
1695.58	22.5
1696.6	23.5
1697.63	19.5
1698.66	24.5
1699.68	22
1700.71	28.5
1701.74	29.5
1702.76	29
1703.79	26
1704.81	29.5
1705.84	26.5
1706.86	25.5
1707.89	29.5
1708.91	26
1709.94	28
1710.96	26.5
1711.99	27.5
1713.01	26
1714.04	28
1715.06	24.5
1716.08	25.5
1717.11	25
1718.13	24
1719.16	21.5
1720.18	23.5
1721.2	29
1722.22	25
1723.25	25.5
1724.27	28.5
1725.29	24
1726.31	25
1727.34	24.5
1728.36	27.5
1729.38	24
1730.4	31
1731.42	22.5
1732.44	26
1733.47	21
1734.49	26.5
1735.51	25
1736.53	28
1737.55	20.5
1738.57	28
1739.59	22
1740.61	22
1741.63	24
1742.65	30
1743.67	22
1744.69	27
1745.71	26.5
1746.73	27.5
1747.75	21.5
1748.76	26
1749.78	25
1750.8	19
1751.82	27
1752.84	25
1753.86	24
1754.87	26
1755.89	26
1756.91	25
1757.93	25
1758.94	27
1759.96	26.5
1760.98	26
1761.99	25
1763.01	25
1764.03	27.5
1765.04	24
1766.06	24
1767.08	23
1768.09	23
1769.11	27
1770.12	26
1771.14	18
1772.15	23
1773.17	27
1774.18	24.5
1775.2	24
1776.21	27
1777.23	23.5
1778.24	25.5
1779.25	25
1780.27	23
1781.28	28
1782.3	23.5
1783.31	25.5
1784.32	29.5
1785.34	21.5
1786.35	28.5
1787.36	25.5
1788.37	24.5
1789.39	22.5
1790.4	25
1791.41	24
1792.42	24
1793.43	25
1794.45	24.5
1795.46	27
1796.47	22.5
1797.48	25.5
1798.49	29
1799.5	26
1800.51	25.5
1801.52	26
1802.53	23.5
1803.54	28.5
1804.55	21
1805.56	27.5
1806.57	22.5
1807.58	24.5
1808.59	26.5
1809.6	24
1810.61	22
1811.62	26.5
1812.63	25.5
1813.64	30
1814.65	25
1815.66	24.5
1816.66	27
1817.67	29
1818.68	22
1819.69	26.5
1820.69	23.5
1821.7	23
1822.71	25.5
1823.72	20
1824.72	26
1825.73	24
1826.74	26.5
1827.74	26
1828.75	25.5
1829.76	27.5
1830.76	26.5
1831.77	25
1832.77	27
1833.78	24
1834.79	26.5
1835.79	25
1836.8	22
1837.8	24
1838.81	21.5
1839.81	26
1840.81	24
1841.82	23
1842.82	23
1843.83	25.5
1844.83	25.5
1845.83	27.5
1846.84	20.5
1847.84	23
1848.84	22
1849.85	25.5
1850.85	25.5
1851.85	25.5
1852.86	25
1853.86	26
1854.86	24
1855.86	26
1856.86	23.5
1857.87	25.5
1858.87	27
1859.87	24
1860.87	20
1861.87	24
1862.87	24.5
1863.88	24
1864.88	24
1865.88	26
1866.88	21
1867.88	23
1868.88	25.5
1869.88	24.5
1870.88	27.5
1871.88	26
1872.88	24
1873.88	23.5
1874.87	26
1875.87	25.5
1876.87	23
1877.87	22
1878.87	24
1879.87	23
1880.87	26
1881.86	22.5
1882.86	22.5
1883.86	26.5
1884.86	23
1885.86	26
1886.85	24
1887.85	28
1888.85	24.5
1889.84	24
1890.84	23
1891.84	28
1892.83	25.5
1893.83	27
1894.83	25.5
1895.82	25
1896.82	23.5
1897.81	25
1898.81	24.5
1899.81	20.5
1900.8	20.5
1901.8	26
1902.79	25.5
1903.78	26.5
1904.78	26
1905.77	20.5
1906.77	21.5
1907.76	25.5
1908.76	26
1909.75	25
1910.74	24.5
1911.74	24.5
1912.73	20.5
1913.72	26.5
1914.72	26
1915.71	25
1916.7	25
1917.7	27.5
1918.69	23.5
1919.68	26.5
1920.67	26
1921.66	21.5
1922.66	23
1923.65	23
1924.64	26
1925.63	26.5
1926.62	21
1927.61	23.5
1928.6	23.5
1929.59	24
1930.59	22
1931.58	25.5
1932.57	26
1933.56	25.5
1934.55	25.5
1935.54	22.5
1936.53	28
1937.52	24
1938.51	27.5
1939.49	24
1940.48	27
1941.47	24
1942.46	25
1943.45	28.5
1944.44	26
1945.43	23.5
1946.42	26
1947.4	23
1948.39	24.5
1949.38	24.5
1950.37	24.5
1951.35	25.5
1952.34	25
1953.33	27.5
1954.31	22
1955.3	21.5
1956.29	26
1957.27	26.5
1958.26	25
1959.25	25.5
1960.23	24
1961.22	24.5
1962.21	26
1963.19	24
1964.18	24.5
1965.16	25
1966.15	21.5
1967.13	23.5
1968.12	26
1969.1	28
1970.09	25.5
1971.07	27
1972.05	26.5
1973.04	27
1974.02	23
1975.01	26
1975.99	26
1976.97	22.5
1977.96	26.5
1978.94	25
1979.92	21.5
1980.91	30.5
1981.89	20.5
1982.87	21
1983.85	24.5
1984.84	25.5
1985.82	23
1986.8	25
1987.78	24
1988.76	23.5
1989.74	19
1990.73	22
1991.71	25.5
1992.69	24
1993.67	24
1994.65	22
1995.63	24.5
1996.61	24.5
1997.59	26
1998.57	21
1999.55	24.5
2000.53	23.5
2001.51	27
2002.49	25
2003.47	26
2004.45	22.5
2005.43	23
2006.41	23.5
2007.39	23.5
2008.37	24.5
2009.34	24
2010.32	23.5
2011.3	25
2012.28	23.5
2013.26	25
2014.23	24.5
2015.21	30
2016.19	24
2017.17	22
2018.14	23
2019.12	26
2020.1	27
2021.07	22.5
2022.05	26
2023.03	22.5
2024	25
2024.98	24.5
2025.96	23
2026.93	25
2027.91	24
2028.88	25.5
2029.86	25
2030.83	19.5
2031.81	28.5
2032.78	21
2033.76	21.5
2034.73	25.5
2035.71	23
2036.68	25
2037.66	25
2038.63	22.5
2039.6	25
2040.58	21
2041.55	24
2042.52	25
2043.5	26
2044.47	24
2045.44	23
2046.42	24.5
2047.39	22.5
2048.36	24.5
2049.33	22.5
2050.31	22.5
2051.28	22.5
2052.25	21
2053.22	24.5
2054.19	24
2055.17	24.5
2056.14	22
2057.11	20
2058.08	23
2059.05	22
2060.02	22.5
2060.99	19
2061.96	23.5
2062.93	22.5
2063.9	25.5
2064.87	23
2065.84	25.5
2066.81	25.5
2067.78	23.5
2068.75	23.5
2069.72	24
2070.69	23
2071.66	23.5
2072.63	23.5
2073.6	26
2074.56	28.5
2075.53	27
2076.5	25
2077.47	22.5
2078.44	24
2079.4	22.5
2080.37	24.5
2081.34	23
2082.31	23
2083.27	22.5
2084.24	22.5
2085.21	21.5
2086.18	25
2087.14	24
2088.11	21.5
2089.07	26.5
2090.04	19
2091.01	22
2091.97	27.5
2092.94	26.5
2093.9	26
2094.87	24
2095.83	23
2096.8	21.5
2097.76	22.5
2098.73	22
2099.69	22.5
2100.66	23
2101.62	23
2102.59	26.5
2103.55	27.5
2104.52	25.5
2105.48	23
2106.44	20
2107.41	24
2108.37	23.5
2109.33	22
2110.3	27.5
2111.26	26
2112.22	24
2113.18	24
2114.15	22
2115.11	24.5
2116.07	22
2117.03	23.5
2118	21.5
2118.96	22
2119.92	23.5
2120.88	25
2121.84	25.5
2122.8	22
2123.76	24
2124.72	22.5
2125.68	23
2126.65	20.5
2127.61	23
2128.57	19
2129.53	22
2130.49	24.5
2131.45	23
2132.41	23
2133.36	25
2134.32	23.5
2135.28	28
2136.24	21.5
2137.2	23.5
2138.16	26.5
2139.12	21.5
2140.08	22
2141.04	25
2141.99	24.5
2142.95	21.511
2143.91	23.0346
2144.87	23.0638
2145.83	22.9932
2146.78	26.2119
2147.74	23.4694
2148.7	26.3367
2149.66	20.0855
2150.61	22.8762
2151.57	26.9933
2152.53	23
2153.48	20.0979
2154.44	22.4657
2155.4	24.7794
2156.35	20.4531
2157.31	25.8401
2158.26	25.5512
2159.22	24.5248
2160.17	22.783
2161.13	23.8516
2162.08	23.2019
2163.04	21.6445
2163.99	23.9406
2164.95	23.1215
2165.9	23.4835
2166.86	22.015
2167.81	22.9489
2168.77	22.7987
2169.72	24.7081
2170.67	23.8959
2171.63	21.8626
2172.58	24.762
2173.54	22.5013
2174.49	21.2208
2175.44	23.2205
2176.39	21.7589
2177.35	23.8166
2178.3	22.1921
2179.25	23.6439
2180.2	20.4235
2181.16	20.9507
2182.11	21.8502
2183.06	25.3939
2184.01	23.7112
2184.96	25.0748
2185.92	20.185
2186.87	21.7813
2187.82	22.7738
2188.77	22.8888
2189.72	23.0713
2190.67	22.7549
2191.62	21.9686
2192.57	23.0415
2193.52	21.4372
2194.47	22.8544
2195.42	21.759
2196.37	23.511
2197.32	21.613
2198.27	24.2457
2199.22	22.2597
2200.17	24.3543
2201.12	24.8299
2202.07	22.6954
2203.02	21.5752
2203.97	21.7604
2204.92	25.0268
2205.87	26.4246
2206.81	23.0868
2207.76	24.6285
2208.71	23.0777
2209.66	19.8355
2210.61	22.3941
2211.55	20.4692
2212.5	22.8846
2213.45	24.9743
2214.4	21.471
2215.34	22.9921
2216.29	23.7492
2217.24	22.2758
2218.18	23.6285
2219.13	25.3616
2220.08	23.8264
2221.02	22.7299
2221.97	21.0548
2222.92	26.074
2223.86	24.4027
2224.81	22.49
2225.75	21.3265
2226.7	23.1256
2227.64	22.5204
2228.59	23.2773
2229.53	23.3159
2230.48	21.8714
2231.42	25.3462
2232.37	25.835
2233.31	24.5689
2234.26	23.798
2235.2	23.0808
2236.14	23.4652
2237.09	21.7548
2238.03	19.2661
2238.97	24.5478
2239.92	22.4961
2240.05	22
2241	22.5
2241.95	24
2242.89	23
2243.84	18
2244.79	22
2245.74	23
2246.68	21
2247.63	22
2248.58	23.5
2249.53	24
2250.47	17
2251.42	24
2252.36	21
2253.31	21
2254.26	21.5
2255.2	23.5
2256.15	18
2257.1	22
2258.04	21
2258.99	23
2259.93	24.5
2260.88	23
2261.82	21.5
2262.77	22
2263.71	22
2264.66	24
2265.6	23.5
2266.55	22.5
2267.49	24
2268.43	27
2269.38	23
2270.32	25
2271.26	27
2272.21	23.5
2273.15	22
2274.09	24
2275.04	23.5
2275.98	24
2276.92	24.5
2277.87	25
2278.81	23
2279.75	22
2280.69	19
2281.64	24
2282.58	19.5
2283.52	18.5
2284.46	24
2285.4	24
2286.34	22
2287.29	23
2288.23	19.5
2289.17	23
2290.11	19
2291.05	22.5
2291.99	24.5
2292.93	28
2293.87	22.5
2294.81	23
2295.75	22
2296.69	24.5
2297.63	20
2298.57	19.5
2299.51	24
2300.45	24.5
2301.39	24.5
2302.33	22
2303.27	26.5
2304.2	23
2305.14	22.5
2306.08	18
2307.02	23.5
2307.96	25.5
2308.9	21.5
2309.83	23.5
2310.77	27
2311.71	25.5
2312.65	23
2313.58	23
2314.52	27.5
2315.46	24.5
2316.39	23.5
2317.33	22
2318.27	24.5
2319.21	21.5
2320.14	22.5
2321.08	23
2322.01	25.5
2322.95	23
2323.89	21.5
2324.82	24
2325.76	23
2326.69	21
2327.63	21
2328.56	23
2329.5	25
2330.43	25
2331.37	25
2332.3	27
2333.24	25.5
2334.17	32
2335.1	26.5
2336.04	21
2336.97	21.5
2337.91	26
2338.84	21
2339.77	22
2340.71	25
2341.64	26
2342.57	24.5
2343.51	24.5
2344.44	22
2345.37	26
2346.3	27
2347.24	25
2348.17	24
2349.1	24
2350.03	24.5
2350.96	18.5
2351.89	21.5
2352.83	24
2353.76	24
2354.69	25
2355.62	21.5
2356.55	22.5
2357.48	22.5
2358.41	23.5
2359.34	22
2360.27	26
2361.2	24
2362.13	25
2363.06	22.5
2363.99	25
2364.92	26.5
2365.85	23.5
2366.78	22
2367.71	23.5
2368.64	21.5
2369.57	24
2370.5	24
2371.43	22
2372.36	24.5
2373.28	25
2374.21	18.5
2375.14	24.5
2376.07	24.5
2377	25
2377.93	26
2378.85	19
2379.78	27.5
2380.71	23.5
2381.63	26
2382.56	21
2383.49	23
2384.42	25
2385.34	24
2386.27	20.5
2387.2	25.5
2388.12	24
2389.05	21
2389.97	18.5
2390.9	25
2391.82	21.5
2392.75	25
2393.68	26.5
2394.6	27.5
2395.53	24.5
2396.45	24
2397.38	23.5
2398.3	21
2399.23	23
2400.15	24
2401.07	22
2402	26
2402.92	25.5
2403.85	25
2404.77	23
2405.69	24
2406.62	22
2407.54	26
2408.46	23
2409.39	21.5
2410.31	24
2411.23	24.5
2412.16	19
2413.08	24
2414	28.5
2414.92	23
2415.85	26
2416.77	25.5
2417.69	23
2418.61	26.5
2419.53	27.5
2420.45	24
2421.38	25
2422.3	24.5
2423.22	20
2424.14	23.5
2425.06	24.5
2425.98	22
2426.9	19
2427.82	20
2428.74	22.5
2429.66	24.5
2430.58	21.5
2431.5	24
2432.42	27.5
2433.34	23.5
2434.26	25.5
2435.18	23.5
2436.1	24
2437.02	25
2437.94	27.5
2438.85	25.5
2439.77	27
2440.69	22.5
2441.61	21.5
2442.53	28
2443.45	24
2444.36	23.5
2445.28	24.5
2446.2	25
2447.12	23.5
2448.03	26.5
2448.95	26
2449.87	23.5
2450.79	23.5
2451.7	25
2452.62	23.5
2453.54	25
2454.45	23.5
2455.37	22.5
2456.28	24.5
2457.2	24
2458.12	24
2459.03	24
2459.95	25.5
2460.86	27.5
2461.78	25
2462.69	20
2463.61	23
2464.52	24.5
2465.44	20.5
2466.35	27
2467.27	24
2468.18	23.5
2469.1	24
2470.01	20
2470.93	20.5
2471.84	22.5
2472.75	27
2473.67	24.5
2474.58	24
2475.49	26
2476.41	23.5
2477.32	26
2478.23	25.5
2479.15	29.5
2480.06	26.5
2480.97	26
2481.88	21
2482.79	25
2483.71	23.5
2484.62	24
2485.53	26
2486.44	23.5
2487.35	24
2488.26	25
2489.18	20
2490.09	25
2491	21
2491.91	24.5
2492.82	26
2493.73	25.5
2494.64	22
2495.55	22.5
2496.46	29.5
2497.37	23
2498.28	26
2499.19	22
2500.1	24
2501.01	26
2501.92	23.5
2502.83	21
2503.74	26
2504.65	24
2505.56	24.5
2506.47	25
2507.37	25.5
2508.28	20
2509.19	24
2510.1	25
2511.01	24.5
2511.92	25
2512.82	26
2513.73	23
2514.64	23
2515.55	23.5
2516.45	27.5
2517.36	25
2518.27	22.5
2519.17	23.5
2520.08	20.5
2520.99	27
2521.89	21
2522.8	21
2523.71	26.5
2524.61	23
2525.52	26.5
2526.42	23
2527.33	23.5
2528.24	30
2529.14	24
2530.05	22
2530.95	25
2531.86	26.5
2532.76	26.5
2533.67	25.5
2534.57	24.5
2535.48	25
2536.38	24.5
2537.28	26.5
2538.19	22.5
2539.09	24
2540	27.5
2540.9	23.5
2541.8	23
2542.71	23
2543.61	21
2544.51	25
2545.42	28
2546.32	21
2547.22	26
2548.12	22.5
2549.03	24
2549.93	23
2550.83	23
2551.73	20.5
2552.63	25.5
2553.54	24
2554.44	23
2555.34	27
2556.24	24
2557.14	24.5
2558.04	23
2558.94	18
2559.85	21
2560.75	25
2561.65	25
2562.55	23.5
2563.45	23
2564.35	27
2565.25	27.5
2566.15	26.5
2567.05	22.5
2567.95	28
2568.85	25
2569.75	24.5
2570.65	24.5
2571.55	23
2572.44	24.5
2573.34	26.5
2574.24	25
2575.14	27
2576.04	25.5
2576.94	26
2577.84	25.5
2578.73	22
2579.63	27
2580.53	23.5
2581.43	24
2582.33	25.5
2583.22	20.5
2584.12	25
2585.02	23.5
2585.91	23.5
2586.81	25
2587.71	26.5
2588.6	26.5
2589.5	25
2590.4	25.5
2591.29	25.5
2592.19	22
2593.09	27.5
2593.98	23
2594.88	24
2595.77	24.5
2596.67	23.5
2597.56	23
2598.46	24
2599.35	28
2600.25	23
2601.14	25
2602.04	25.5
2602.93	25
2603.83	24.5
2604.72	24
2605.62	26.5
2606.51	26
2607.4	23
2608.3	26.5
2609.19	25
2610.09	25.5
2610.98	25
2611.87	27.5
2612.76	23
2613.66	26
2614.55	24
2615.44	24
2616.34	25.5
2617.23	25
2618.12	26
2619.01	27
2619.9	26.5
2620.8	23.5
2621.69	20.5
2622.58	25.5
2623.47	26
2624.36	21
2625.25	26.5
2626.15	23.5
2627.04	23.5
2627.93	19
2628.82	23
2629.71	24
2630.6	23.5
2631.49	27.5
2632.38	25
2633.27	24
2634.16	25
2635.05	26.5
2635.94	25.5
2636.83	26.5
2637.72	21.5
2638.61	26.5
2639.5	22
2640.39	21.5
2641.28	22.5
2642.16	28
2643.05	24.5
2643.94	25.5
2644.83	28
2645.72	28.5
2646.61	24
2647.49	27.5
2648.38	26
2649.27	24.5
2650.16	23.5
2651.05	27
2651.93	26
2652.82	25
2653.71	25
2654.59	26
2655.48	24
2656.37	25
2657.25	22.5
2658.14	27
2659.03	27
2659.91	25
2660.8	28.5
2661.69	23
2662.57	22
2663.46	23
2664.34	22
2665.23	25
2666.11	17
2667	18
2667.88	22.5
2668.77	24
2669.65	24
2670.54	28
2671.42	25
2672.31	26.5
2673.19	27
2674.08	22
2674.96	27.5
2675.84	26
2676.73	29
2677.61	22
2678.49	25.5
2679.38	26.5
2680.26	29.5
2681.14	28
2682.03	24.5
2682.91	22.5
2683.79	25.5
2684.68	25.5
2685.56	24.5
2686.44	24
2687.32	22
2688.2	25.5
2689.09	25
2689.97	23.5
2690.85	25
2691.73	25.5
2692.61	26
2693.49	23
2694.38	21
2695.26	25
2696.14	25.5
2697.02	21.5
2697.9	22.5
2698.78	28.5
2699.66	24.5
2700.54	29.5
2701.42	21.5
2702.3	23.5
2703.18	23
2704.06	24
2704.94	29
2705.82	24.5
2706.7	22
2707.58	22.5
2708.46	26
2709.34	23
2710.21	24
2711.09	26
2711.97	22.5
2712.85	23
2713.73	25
2714.61	23.5
2715.49	27
2716.36	23
2717.24	22
2718.12	25.5
2719	24.5
2719.87	24.5
2720.75	26
2721.63	25.5
2722.51	22.5
2723.38	22.5
2724.26	22
2725.14	24.5
2726.01	29
2726.89	24
2727.77	25.5
2728.64	21
2729.52	23
2730.39	23.5
2731.27	26.5
2732.15	23.5
2733.02	26.5
2733.9	25.5
2734.77	25
2735.65	24
2736.52	26.5
2737.4	23
2738.27	25
2739.15	22
2740.02	28.5
2740.89	26
2741.77	25
2742.64	23.5
2743.52	24
2744.39	23.5
2745.27	22
2746.14	21.5
2747.01	24.5
2747.89	27.5
2748.76	22
2749.63	24
2750.51	25
2751.38	26
2752.25	25
2753.12	28
2754	27
2754.87	24
2755.74	19
2756.61	22
2757.48	24
2758.36	24
2759.23	24
2760.1	24
2760.97	23
2761.84	25
2762.71	27.5
2763.59	26.5
2764.46	24
2765.33	26
2766.2	22.5
2767.07	24.5
2767.94	27.5
2768.81	24.5
2769.68	21.5
2770.55	24
2771.42	24
2772.29	26
2773.16	24.5
2774.03	26
2774.9	26
2775.77	26
2776.64	26
2777.51	26
2778.37	26
2779.24	27
2780.11	27.5
2780.98	24.5
2781.85	24.5
2782.72	19
2783.59	26.5
2784.45	23.5
2785.32	24.5
2786.19	26.5
2787.06	26
2787.92	28.5
2788.79	22
2789.66	23.5
2790.53	24.5
2791.39	26.5
2792.26	24
2793.13	26
2793.99	26
2794.86	22
2795.73	27
2796.59	28.5
2797.46	25.5
2798.33	24
2799.19	27
2800.06	22
2800.92	25.25
2801.79	26.5
2802.65	26.5
2803.52	29.5
2804.39	22.5
2805.25	22.5
2806.11	26.5
2806.98	26
2807.84	26
2808.71	25
2809.57	31
2810.44	25.5
2811.3	27.5
2812.17	24.5
2813.03	25.5
2813.89	25
2814.76	28
2815.62	25
2816.49	26
2817.35	26
2818.21	27
2819.07	31
2819.94	25.5
2820.8	27.5
2821.66	24.5
2822.53	27.5
2823.39	24
2824.25	24.5
2825.11	27.5
2825.97	27.5
2826.84	26.5
2827.7	28
2828.56	25
2829.42	31
2830.28	28.5
2831.14	22.5
2832.01	23.5
2832.87	26
2833.73	27
2834.59	26
2835.45	28
2836.31	29
2837.17	27
2838.03	26
2838.89	24
2839.75	22
2840.61	24
2841.47	27
2842.33	22
2843.19	25
2844.05	23
2844.91	24
2845.77	29
2846.63	27
2847.48	25.5
2848.34	25
2849.2	24
2850.06	24
2850.92	24.5
2851.78	28
2852.64	26.5
2853.49	28
2854.35	25
2855.21	26
2856.07	23.5
2856.93	25.5
2857.78	25
2858.64	27
2859.5	28.5
2860.35	26.5
2861.21	29.5
2862.07	26.5
2862.93	26.5
2863.78	27.5
2864.64	28
2865.49	26.5
2866.35	28
2867.21	29
2868.06	24
2868.92	25.5
2869.77	28
2870.63	28
2871.49	26
2872.34	28
2873.2	27
2874.05	29
2874.91	32.5
2875.76	31
2876.62	28.5
2877.47	27
2878.32	33
2879.18	27.5
2880.03	29
2880.89	33
2881.74	33.5
2882.6	30
2883.45	29.5
2884.3	37.5
2885.16	31
2886.01	33
2886.86	33
2887.72	37.5
2888.57	31.5
2889.42	35.5
2890.27	34.5
2891.13	40
2891.98	40
2892.83	41.5
2893.68	43.5
2894.54	45
2895.39	47
2896.24	44
2897.09	47.5
2897.94	48
2898.8	51.5
2899.65	56.5
2900.5	55
2901.35	63
2902.2	64
2903.05	62
2903.9	70
2904.75	69
2905.6	64
2906.45	61.5
2907.3	62
2908.15	69.5
2909.01	58
2909.85	59.5
2910.7	61.5
2911.55	62
2912.4	57
2913.25	55.5
2914.1	53
2914.95	39.5
2915.8	45
2916.65	43
2917.5	38
2918.35	38
2919.2	37.5
2920.04	36
2920.89	33.5
2921.74	32.5
2922.59	33.5
2923.44	33
2924.29	33.5
2925.13	31
2925.98	29
2926.83	34
2927.68	33
2928.52	28.5
2929.37	30.5
2930.22	28.5
2931.06	27.5
2931.91	29
2932.76	27
2933.6	30.5
2934.45	27.5
2935.3	29
2936.14	28
2936.99	29
2937.83	27
2938.68	31
2939.53	32
2940.37	30
2941.22	27.5
2942.06	26
2942.91	29
2943.75	29
2944.6	29.5
2945.44	28
2946.29	29
2947.13	26
2947.98	27.5
2948.82	28
2949.66	33
2950.51	31
2951.35	29.5
2952.2	32
2953.04	27.5
2953.88	29.5
2954.73	34
2955.57	35.5
2956.41	34
2957.26	34.5
2958.1	38
2958.94	37
2959.79	40.5
2960.63	39
2961.47	42
2962.31	39.5
2963.15	44
2964	42.5
2964.84	45.5
2965.68	44.5
2966.52	44
2967.37	38
2968.21	39
2969.05	41.5
2969.89	38
2970.73	37.5
2971.57	33.5073
2972.41	38.9088
2973.25	34.9721
2974.09	35.042
2974.93	33.4564
2975.77	32.9466
2976.62	34.2591
2977.46	31.1545
2978.3	32.9338
2979.14	27.3417
2979.98	32.7014
2980.81	33.4108
2981.65	25.3734
2982.49	30.2827
2983.33	30.2888
2984.17	29.899
2985.01	23.7683
2985.85	28.4598
2986.69	26.1465
2987.53	27.6356
2988.37	24.8156
2989.21	25.0638
2990.04	27
2990.88	26.3695
2991.72	23.9743
2992.56	23.5275
2993.4	21.8421
2994.23	24.9689
2995.07	26.2357
2995.91	28.2816
2996.75	26.6498
2997.58	25.4607
2998.42	25.6399
2999.26	23.3808
3000.1	23.1486
3000.93	24.6842
3001.77	24.0118
3002.61	23.9223
3003.44	22.6696
3004.28	25.5611
3005.11	24.0369
3005.95	22.4912
3006.79	23.9153
3007.62	25.4241
3008.46	24.9879
3009.29	24.2649
3010.13	24.1988
3010.97	22.582
3011.8	20.7651
3012.64	24.986
3013.47	23.4486
3014.31	23.8885
3015.14	22.7743
3015.98	22.0397
3016.81	21.8162
3017.64	23.5496
3018.48	21.5185
3019.31	22.9011
3020.15	24.9996
3020.98	24.6664
3021.82	24.5328
3022.65	20.9476
3023.48	22.4754
3024.32	22.6057
3025.15	24.0562
3025.98	22.3349
3026.82	21.8233
3027.65	22.6191
3028.48	23.4483
3029.31	24.3781
3030.15	23.258
3030.98	24.6942
3031.81	24.037
3032.64	23.8721
3033.48	21.2923
3034.31	21.9214
3035.14	23.8775
3035.97	23.7533
3036.8	23.3375
3037.64	21.6233
3038.47	21.9433
3039.3	22.4926
3040.13	21.2528
3040.96	24.0787
3041.79	25.2205
3042.62	20.7727
3043.45	20.2077
3044.28	22.1703
3045.12	23.1677
3045.95	23.4261
3046.78	22.1151
3047.61	23.0953
3048.44	22.8688
3049.27	23.6334
3050.1	25.521
3050.92	23.0364
3051.75	22.5083
3052.58	21.209
3053.41	22.3729
3054.24	25.1165
3055.07	24.1542
3055.9	22.3124
3056.73	23.2296
3057.26	21
3058.09	26
3058.93	23
3059.76	23.5
3060.59	20.5
3061.43	22
3062.26	20.5
3063.09	24.5
3063.92	23
3064.76	20
3065.59	23
3066.42	20.5
3067.25	20
3068.08	22
3068.92	21
3069.75	27
3070.58	21
3071.41	24.5
3072.24	24.5
3073.07	23
3073.9	23
3074.73	23
3075.57	25
3076.4	22
3077.23	24
3078.06	23.5
3078.89	25
3079.72	21
3080.55	22.5
3081.38	24
3082.21	23
3083.04	22
3083.87	26
3084.7	24.5
3085.53	26
3086.36	23.5
3087.19	25.5
3088.01	25
3088.84	26
3089.67	23
3090.5	21
3091.33	21.5
3092.16	25
3092.99	24.5
3093.81	23
3094.64	26.5
3095.47	20.5
3096.3	25.5
3097.13	27
3097.95	21.5
3098.78	24.5
3099.61	21.5
3100.44	25
3101.26	24
3102.09	21
3102.92	24
3103.74	21
3104.57	26
3105.4	21.5
3106.22	22.5
3107.05	24
3107.88	26
3108.7	23
3109.53	23
3110.35	23
3111.18	23
3112.01	23
3112.83	26
3113.66	25.5
3114.48	25
3115.31	25
3116.13	21
3116.96	21
3117.78	23.5
3118.61	18.5
3119.43	26
3120.26	22.5
3121.08	27
3121.9	22
3122.73	23.5
3123.55	23.5
3124.38	24
3125.2	25
3126.02	22
3126.85	22.5
3127.67	25.5
3128.49	24
3129.32	28
3130.14	23
3130.96	24
3131.79	23
3132.61	23.5
3133.43	22.5
3134.25	20
3135.08	25
3135.9	24.5
3136.72	21
3137.54	23
3138.37	24.5
3139.19	27
3140.01	26
3140.83	21.5
3141.65	25
3142.47	19
3143.29	20.5
3144.12	21
3144.94	24.5
3145.76	24
3146.58	22
3147.4	21
3148.22	28
3149.04	21
3149.86	25.5
3150.68	23
3151.5	25.5
3152.32	19.5
3153.14	21
3153.96	22
3154.78	23.5
3155.6	25.5
3156.42	23.5
3157.24	26.5
3158.06	26
3158.88	27
3159.7	23.5
3160.51	22
3161.33	26.5
3162.15	22.5
3162.97	28
3163.79	19
3164.61	24
3165.42	21
3166.24	23.5
3167.06	21.5
3167.88	27
3168.7	22
3169.51	26
3170.33	23
3171.15	25
3171.97	21
3172.78	27
3173.6	24
3174.42	25
3175.23	25
3176.05	23
3176.87	26.5
3177.68	25.5
3178.5	23
3179.32	24
3180.13	23.5
3180.95	21
3181.76	22.5
3182.58	25
3183.4	23
3184.21	27.5
3185.03	21
3185.84	21
3186.66	25
3187.47	21
3188.29	24.5
3189.1	24
3189.92	21
3190.73	25
3191.55	21
3192.36	26.5
3193.17	24
3193.99	21
3194.8	21.5
3195.62	27.5
3196.43	21
3197.24	22
3198.06	25
3198.87	24.5
3199.68	24
3200.5	27
3201.31	26
3202.12	24
3202.94	27
3203.75	23.5
3204.56	24.5
3205.38	22.5
3206.19	24.5
3207	22.5
3207.81	24
3208.62	25
3209.44	23
3210.25	22
3211.06	23
3211.87	21.5
3212.68	26.5
3213.49	24.5
3214.31	24.5
3215.12	25
3215.93	27
3216.74	25
3217.55	24
3218.36	26.5
3219.17	25.5
3219.98	25
3220.79	24
3221.6	25
3222.41	24
3223.22	24.5
3224.03	19
3224.84	24.5
3225.65	24.5
3226.46	18.5
3227.27	26
3228.08	23.5
3228.89	24.5
3229.7	25
3230.51	26.5
3231.32	25
3232.13	23.5
3232.94	26
3233.74	25
3234.55	21
3235.36	25.5
3236.17	23.5
3236.98	24
3237.78	25.5
3238.59	23
3239.4	23.5
3240.21	26.5
3241.02	22
3241.82	19
3242.63	26
3243.44	22.5
3244.25	23
3245.05	26
3245.86	20
3246.67	25
3247.47	23
3248.28	22
3249.09	28.5
3249.89	24
3250.7	24
3251.5	23
3252.31	25
3253.12	27.5
3253.92	25
3254.73	29
3255.53	25
3256.34	18
3257.14	23
3257.95	26.5
3258.75	22.5
3259.56	23
3260.36	25
3261.17	25
3261.97	26.5
3262.78	22.5
3263.58	23.5
3264.39	26
3265.19	24
3265.99	24
3266.8	22
3267.6	26.5
3268.41	26
3269.21	27.5
3270.01	22.5
3270.82	23
3271.62	22
3272.42	24
3273.23	21.5
3274.03	22
3274.83	24
3275.64	27.5
3276.44	27
3277.24	25.5
3278.04	22.5
3278.85	24.5
3279.65	24.5
3280.45	18
3281.25	21.5
3282.05	26.5
3282.85	20.5
3283.66	23
3284.46	21
3285.26	23
3286.06	26
3286.86	25.5
3287.66	23.5
3288.46	23.5
3289.27	25.5
3290.07	23
3290.87	24.5
3291.67	26
3292.47	22
3293.27	25.5
3294.07	24.5
3294.87	25.5
3295.67	22
3296.47	23.5
3297.27	22.5
3298.07	21
3298.87	26
3299.67	22
3300.47	25
3301.26	25
3302.06	22.5
3302.86	27
3303.66	25
3304.46	23
3305.26	21.5
3306.06	23.5
3306.86	25
3307.65	28
3308.45	25.5
3309.25	24
3310.05	23
3310.85	25
3311.64	22
3312.44	27.5
3313.24	24
3314.04	27
3314.83	24.5
3315.63	27
3316.43	24
3317.22	24.5
3318.02	25
3318.82	26.5
3319.62	25
3320.41	24
3321.21	26
3322	24.5
3322.8	26.5
3323.6	21
3324.39	27
3325.19	24
3325.98	27
3326.78	24.5
3327.58	25.5
3328.37	23
3329.17	22
3329.96	23
3330.76	26
3331.55	25.5
3332.35	27
3333.14	19
3333.94	24
3334.73	25
3335.52	27.5
3336.32	24
3337.11	25
3337.91	21.5
3338.7	23
3339.5	23
3340.29	23
3341.08	21
3341.88	26.5
3342.67	23
3343.46	24.5
3344.26	23.5
3345.05	23.5
3345.84	23
3346.63	21
3347.43	26
3348.22	23.5
3349.01	24
3349.8	25
3350.6	26
3351.39	24
3352.18	22.5
3352.97	22.5
3353.77	23
3354.56	20
3355.35	28
3356.14	19.5
3356.93	22
3357.72	24
3358.51	23.5
3359.31	25.5
3360.1	23.5
3360.89	24.5
3361.68	27
3362.47	24.5
3363.26	26
3364.05	21
3364.84	25
3365.63	25
3366.42	23
3367.21	24.5
3368	25
3368.79	23
3369.58	24.5
3370.37	26.5
3371.16	28
3371.95	25.5
3372.74	22
3373.53	23
3374.32	25
3375.1	25
3375.89	25
3376.68	23.5
3377.47	26.5
3378.26	26
3379.05	24.5
3379.84	25
3380.62	26
3381.41	25.5
3382.2	26
3382.99	23
3383.78	25.5
3384.56	26
3385.35	22
3386.14	24.5
3386.93	25
3387.71	25
3388.5	21
3389.29	23.5
3390.07	21.5
3390.86	25
3391.65	25
3392.43	25
3393.22	29
3394.01	23.5
3394.79	24.5
3395.58	29
3396.36	27
3397.15	23
3397.94	28.5
3398.72	21
3399.51	24
3400.29	25
3401.08	27
3401.86	24.5
3402.65	25.5
3403.43	28.5
3404.22	24.5
3405	23.5
3405.79	25.5
3406.57	26
3407.36	24
3408.14	24.5
3408.93	26.5
3409.71	25.5
3410.49	30
3411.28	21
3412.06	24.5
3412.84	24
3413.63	25
3414.41	21.5
3415.2	22
3415.98	23.5
3416.76	27
3417.54	23
3418.33	23
3419.11	24.5
3419.89	25
3420.68	25.5
3421.46	21
3422.24	24
3423.02	23
3423.81	25
3424.59	22.5
3425.37	25.5
3426.15	25
3426.93	23
3427.71	28.5
3428.5	25
3429.28	26.5
3430.06	20
3430.84	20
3431.62	27
3432.4	24
3433.18	18
3433.96	22.5
3434.75	22.5
3435.53	23
3436.31	21.5
3437.09	23.5
3437.87	23
3438.65	23.5
3439.43	24
3440.21	26
3440.99	22.5
3441.77	25
3442.55	26
3443.33	25
3444.1	23.5
3444.88	27
3445.66	26
3446.44	25
3447.22	26
3448	23
3448.78	27.5
3449.56	24
3450.34	23
3451.11	26
3451.89	24.5
3452.67	22
3453.45	27.5
3454.23	26.5
3455	29
3455.78	25
3456.56	23.5
3457.34	24
3458.11	19
3458.89	26.5
3459.67	21
3460.45	26.5
3461.22	27
3462	25.5
3462.78	22
3463.55	24.5
3464.33	22
3465.11	23.5
3465.88	24
3466.66	25.5
3467.44	28
3468.21	26
3468.99	24
3469.76	21
3470.54	22.5
3471.32	22
3472.09	25.5
3472.87	21.5
3473.64	27.5
3474.42	25.5
3475.19	22.5
3475.97	25
3476.74	24.5
3477.52	24
3478.29	22
3479.07	25
3479.84	26
3480.61	24
3481.39	26
3482.16	23
3482.94	21.5
3483.71	22
3484.48	24.5
3485.26	24.5
3486.03	22
3486.81	24.5
3487.58	24
3488.35	25
3489.13	21.5
3489.9	23
3490.67	22.5
3491.44	22.5
3492.22	27
3492.99	25.5
3493.76	20
3494.54	20
3495.31	26
3496.08	26
3496.85	22.5
3497.62	26
3498.4	23
3499.17	22.5
3499.94	27
