#Acq. time (s)=	5
#Accumulations=	5
#Range (cm-¹)=	100...3500
#Windows=	4
#Autofocus=	Off
#AutoExposure=	Off
#Spike filter=	Multiple accum.
#Delay time (s)=	0
#Binning=	1
#Readout mode=	Signal
#DeNoise=	Off
#ICS correction=	Off
#Dark correction=	Off
#Inst. Process=	Off
#Instrument=	LabRAM HR Evol
#Detector=	Syncerity OE
#Objective=	x100_VIS
#Grating=	600 (500nm)
#ND Filter=	25%
#Laser=	633nm_Edge
#Hole=	100.021
#Range=	Visible
#Project=	verificaciones
#Sample=	at4
#Site=	plain
#Title=	bolusat4plain
#Remark=	com
#Date=	16.01.2026 17:54
#Acquired=	16.01.2026 17:54:44
100.564	27
101.847	27.5
103.131	33.5
104.414	30
105.697	29
106.979	29.5
108.262	32
109.544	30.5
110.826	31.5
112.109	31
113.391	29.5
114.672	31
115.954	31
117.235	32
118.515	30.5
119.796	28
121.076	31.5
122.357	29
123.637	30.5
124.916	34
126.196	29.5
127.475	32
128.754	33
130.033	29
131.31	31
132.589	33
133.867	32
135.145	34.5
136.423	34.5
137.701	30
138.978	29.5
140.256	35.5
141.533	39
142.809	33.5
144.086	38.5
145.361	38
146.637	36
147.913	41
149.189	42
150.464	37.5
151.74	39.5
153.014	41.5
154.288	38.5
155.563	40
156.838	43
158.112	37
159.385	41.5
160.659	39
161.932	39
163.206	42
164.479	37
165.751	40.5
167.024	38
168.296	37.5
169.567	40
170.84	39.5
172.112	40
173.383	35.5
174.654	39.5
175.925	41.5
177.196	41.5
178.466	39
179.737	37.5
181.007	40.5
182.276	36
183.546	41.5
184.816	44
186.085	40
187.354	37.5
188.624	41
189.891	41
191.16	41
192.427	42
193.696	40.5
194.964	42
196.231	41
197.499	40.5
198.765	38
200.033	42
201.298	39
202.566	39
203.831	33.5
205.098	34
206.363	36
207.629	40
208.894	38
210.159	40
211.424	36.5
212.689	34
213.953	34
215.218	30
216.481	35
217.746	31.5
219.009	36.5
220.273	30.5
221.536	33
222.798	33
224.062	30.5
225.323	30
226.587	32
227.848	32
229.109	34.5
230.372	32
231.633	31
232.894	29
234.156	31
235.416	30
236.678	27.5
237.937	31
239.197	29.5
240.457	31
241.717	31
242.976	31
244.235	30
245.495	31.5
246.754	25
248.012	25.5
249.27	31
250.529	31.5
251.787	30.5
253.045	34
254.302	30.5
255.56	28.5
256.817	30
258.074	27.5
259.33	27.5
260.586	28
261.844	30
263.1	31
264.355	28
265.611	29
266.866	30
268.121	33.5
269.377	26.5
270.632	32.5
271.886	30
273.14	31
274.394	29
275.648	28
276.902	26
278.155	27
279.408	26
280.663	25.5
281.915	26.5
283.168	29
284.42	32.5
285.673	31
286.925	31.5
288.176	29
289.428	29.5
290.679	30
291.93	29
293.181	27
294.432	29.5
295.683	27.5
296.933	26.5
298.183	28.5
299.433	28.5
300.683	28
301.932	30
303.182	27
304.429	29
305.678	26.5
306.927	26
308.176	25
309.424	30.5
310.672	29
311.92	29
313.168	31.5
314.415	28
315.661	27.5
316.908	25
318.155	28.5
319.402	33
320.648	28
321.895	26
323.139	27
324.385	27.5
325.631	26
326.877	25
328.122	30.5
329.366	27.5
330.611	26.5
331.855	28
333.1	27.5
334.343	31
335.587	29.5
336.831	30.5
338.074	28
339.317	25.5
340.56	24
341.803	24
343.044	28
344.287	26
345.53	27
346.771	25.5
348.013	31
349.255	29.5
350.495	30
351.736	29
352.978	32
354.217	27
355.458	31
356.699	29.5
357.938	28.5
359.178	25.5
360.417	29
361.657	30
362.895	24.5
364.135	29.5
365.374	27
366.612	30
367.851	28
369.088	29.5
370.327	29
371.564	29
372.802	29
374.038	32
375.276	27.5
376.512	28.5
377.749	26.5
378.985	27.5
380.222	27.5
381.457	32.5
382.692	28
383.929	30
385.164	26.5
386.4	29.5
387.634	33
388.869	29.5
390.103	29.5
391.337	28.5
392.572	23.5
393.805	31
395.038	25.5
396.273	26
397.506	27.5
398.74	28.5
399.972	29.5
401.204	30
402.437	34
403.669	29
404.901	28
406.132	27.5
407.365	27
408.596	31.5
409.826	31
411.058	29.5
412.289	26
413.519	25.5
414.749	30
415.98	27.5
417.21	27.5
418.439	27
419.668	26.5
420.897	26
422.128	30.5
423.356	29
424.585	30
425.813	26.5
427.041	22.5
428.269	29
429.498	25.5
430.725	29
431.952	28.5
433.179	23
434.406	26
435.633	30.5
436.859	27
438.085	27.5
439.312	24
440.537	29
441.764	29
442.99	26.5
444.215	29
445.44	24
446.665	28
447.89	25
449.114	29
450.339	27
451.563	29
452.787	29
454.01	30
455.234	25.5
456.457	30.5
457.68	27
458.903	30
460.126	30.5
461.348	27.5
462.569	31
463.792	29.5
465.013	32
466.235	33
467.457	32
468.678	28.5
469.899	32
471.12	37
472.341	34
473.56	31.5
474.781	38.5
476.001	38.5
477.221	37
478.441	40
479.66	46
480.878	49
482.098	53
483.317	52.5
484.535	56
485.754	59
486.971	62.5
488.189	54
489.407	58.5
490.625	59
491.842	55.5
493.059	56.5
494.276	51.5
495.493	49
496.709	51
497.926	42
499.142	48
500.357	39.5
501.573	43.5
502.789	38.5
504.003	39
505.219	39
506.434	37
507.648	37.5
508.863	38
510.078	36
511.291	32.5
512.505	33
513.718	32.5
514.932	28
516.145	30.5
517.358	37
518.572	31
519.783	31
520.997	31.5
522.208	31.5
523.421	32
524.632	34
525.844	29.5
527.055	34.5
528.266	29.5
529.477	29.5
530.688	30
531.898	29.5
533.109	28
534.319	30.5
535.53	29
536.739	29.5
537.948	30
539.158	29.5
540.366	27
541.576	28.5
542.784	30
543.994	29
545.201	26.5
546.409	32
547.618	30
548.825	30.5
550.032	30
551.24	24
552.447	29
553.654	28.5
554.861	32.5
556.067	30
557.273	31.5
558.48	28
559.686	29
560.891	26
562.096	30
563.302	25.5
564.507	31
565.712	30
566.916	30.5
568.122	29
569.326	30.5
570.529	31.5
571.733	29.5
572.936	30.5
574.141	30
575.344	27
576.547	25.5
577.75	28
578.952	26
580.154	25
581.358	26
582.56	27.5
583.761	26
584.963	25.5
586.164	29
587.365	29
588.566	24.5
589.767	26
590.967	27
592.168	31
593.369	24.5
594.569	30.5
595.769	24.5
596.969	28
598.168	27.5
599.367	29.5
600.566	27.5
601.765	28
602.964	33.5
604.162	32
605.361	24
606.559	30.5
607.757	29.5
608.953	26.5
610.151	30
611.348	27.5
612.545	28.5
613.742	30
614.939	29.5
616.135	27.5
617.332	31
618.528	27.5
619.724	29.5
620.918	25
622.114	29
623.309	28
624.505	28.5
625.7	25.5
626.895	27
628.088	28
629.282	28
630.477	26.5
631.671	30.5
632.865	24
634.057	23.5
635.251	27
636.444	28
637.637	30
638.829	32
640.022	30.5
641.214	25
642.407	30
643.598	28
644.79	28
645.982	31
647.172	26.5
648.364	31
649.555	31
650.745	29
651.936	31.5
653.126	27
654.315	28.5
655.506	28.5
656.696	30
657.885	29
659.074	29
660.263	28.5
661.452	30.5
662.64	26
663.829	30
665.018	30
666.205	28
667.394	28.5
668.581	32.5
669.769	28.5
670.955	30.5
672.143	31
673.329	30.5
674.517	33
675.703	29
676.89	30
678.075	34
679.262	30.5
680.447	30.5
681.632	34
682.818	30.5
684.002	36.5
685.188	33.5
686.372	36
687.556	34.5
688.741	34
689.925	35
691.11	31.5
692.293	35
693.476	34.5
694.66	35
695.843	36
697.025	37
698.209	31.5
699.391	39
700.573	36
701.756	37.5
702.938	37
704.119	42.5
705.3	47.5
706.483	46.5
707.664	51.5
708.844	50.5
710.025	53.5
711.206	48
712.386	44
713.566	38
714.746	42
715.925	36
717.106	31.5
718.285	32.5
719.464	30.5
720.643	32.5
721.822	29.5
723	29
724.178	31
725.358	29
726.536	29
727.713	30
728.891	29
730.068	30.5
731.245	28
732.422	30
733.599	26.5
734.775	27
735.952	24.5
737.128	25
738.304	26.5
739.48	23
740.656	22.5
741.831	28.5
743.006	31.5
744.181	25
745.356	30.5
746.531	31.5
747.706	28
748.88	24
750.054	26.5
751.228	25.5
752.402	28
753.576	28
754.749	33
755.922	27.5
757.095	25
758.267	27
759.44	32
760.612	25
761.785	27
762.957	26.5
764.129	25.5
765.301	29.5
766.471	29.5
767.642	29.5
768.814	28
769.985	30.5
771.156	24.5
772.325	28
773.495	27.5
774.666	27
775.836	30.5
777.005	26
778.174	29
779.344	28.5
780.513	29.5
781.681	30
782.85	31
784.019	31.5
785.187	29
786.355	29.5
787.523	27.5
788.69	31
789.858	31.5
791.026	32
792.192	32
793.36	26
794.526	30.5
795.693	32.5
796.86	28.5
798.025	31.5
799.191	32
800.356	27
801.523	25.5
802.689	27.5
803.853	26
805.019	26
806.183	29
807.348	28
808.512	29
809.677	27
810.84	32
812.005	29
813.167	28
814.332	29
815.494	26
816.657	27.5
817.82	27.5
818.982	26
820.146	29
821.307	27
822.47	23.5
823.632	27
824.793	28.5
825.955	26
827.116	26.5
828.277	29.5
829.439	28
830.599	31
831.759	26.5
832.92	21
834.08	26.5
835.24	28
836.4	23.5
837.56	27
838.719	31.5
839.877	31.5
841.037	27
842.196	27
843.354	20
844.512	24.5
845.672	32.5
846.83	25
847.987	26.5
849.145	25.5
850.302	24
851.46	27
852.617	33
853.774	28.5
854.93	27
856.087	29.5
857.243	28.5
858.4	30.5
859.556	29
860.712	26
861.867	34
863.022	28
864.177	27.5
865.332	29
866.487	33
867.642	28
868.796	26
869.95	26.5
871.104	24
872.258	27.5
873.412	30.5
874.565	28
875.718	23.5
876.872	24
878.024	25
879.177	27
880.33	29.5
881.482	28
882.635	24
883.787	27
884.938	24.5
886.09	24.5
887.242	23
888.393	29.5
889.544	27
890.695	25
891.845	27
892.995	24.5
894.146	24.5
895.296	26.5
896.446	27
897.596	29
898.744	22.5
899.894	23
901.043	26
902.193	26
903.342	29
904.489	26
905.638	26.5
906.786	23.5
907.935	29
909.081	24
910.229	27
911.377	21.5
912.525	21.5
913.671	25.5
914.818	24
915.965	24
917.111	25
918.258	29.5
919.404	27.5
920.549	26.5
921.695	25
922.84	29.5
923.986	26
925.132	27
926.276	27
927.421	26
928.565	27
929.71	26.5
930.855	23.5
931.998	28
933.142	26.5
934.285	24
935.429	22.5
936.572	25
937.716	24
938.858	29.5
940.001	29.5
941.143	25.5
942.286	23
943.428	27
944.57	25.5
945.712	28
946.854	28
947.995	26
949.135	23
950.277	26.5
951.418	25.5
952.559	25
953.699	25
954.839	27.5
955.98	26
957.119	28.5
958.258	26
959.399	26
960.538	25.5
961.676	25
962.816	25
963.955	24.5
965.093	28.5
966.232	24
967.37	25
968.508	28
969.645	25
970.784	25.75
971.921	24.5
973.058	23
974.195	27
975.333	24.5
976.469	24.5
977.605	27
978.741	23.5
979.877	27
981.013	27.5
982.15	28
983.285	25.5
984.421	25
985.556	26
986.691	26.5
987.825	23.5
988.96	24
990.094	25.5
991.228	23.5
992.364	25
993.497	23.5
994.631	27
995.765	23
996.898	22.5
998.031	24
999.164	24.5
1000.3	23.5
1001.43	25
1002.56	26
1003.69	27.5
1004.83	28.5
1005.96	24.5
1007.09	25.5
1008.22	27
1009.35	24
1010.48	28.5
1011.61	23.5
1012.74	26
1013.88	29
1015.01	27
1016.14	23.5
1017.27	26
1018.4	24
1019.53	27.5
1020.65	22.5
1021.78	23.5
1022.91	29
1024.04	25
1025.17	26
1026.3	25.5
1027.43	21.5
1028.56	26
1029.68	23
1030.81	24
1031.94	25
1033.07	27
1034.19	29
1035.32	25.5
1036.45	25.5
1037.58	24
1038.7	23
1039.83	22
1040.95	22
1042.08	24
1043.21	25
1044.33	27.5
1045.46	26.5
1046.58	24.5
1047.71	23
1048.83	23
1049.96	28
1051.08	29
1052.21	22
1053.33	25.5
1054.45	26
1055.58	26.5
1056.7	27.5
1057.82	30
1058.95	24.5
1060.07	29
1061.19	27
1062.32	23
1063.44	25.5
1064.56	21
1065.68	22.5
1066.81	24
1067.93	25
1069.05	25.5
1070.17	30
1071.29	27
1072.41	22
1073.53	25
1074.65	20.5
1075.77	23
1076.89	25
1078.01	25
1079.13	25
1080.25	25.5
1081.37	25
1082.49	24
1083.61	23.5
1084.73	24.5
1085.85	25.5
1086.97	23.5
1088.09	24
1089.2	25.5
1090.32	27
1091.44	24
1092.56	26.5
1093.68	28
1094.79	25.5
1095.91	25.5
1097.03	21
1098.14	26
1099.26	24
1100.38	22.5
1101.49	28
1102.61	25
1103.73	24
1104.84	27.5
1105.96	25.5
1107.07	27
1108.19	25
1109.3	26.5
1110.42	22.5
1111.53	24
1112.65	28
1113.76	25
1114.88	25.5
1115.99	24
1117.1	25.5
1118.22	25
1119.33	23.5
1120.44	24.5
1121.56	24
1122.67	21.5
1123.78	24
1124.89	26.5
1126.01	25
1127.12	25.5
1128.23	26.5
1129.34	26.5
1130.45	24
1131.56	25
1132.67	21
1133.79	24.5
1134.9	23
1136.01	22.5
1137.12	25
1138.23	22
1139.34	24
1140.45	23
1141.56	24
1142.67	21.5
1143.78	22
1144.89	22.5
1145.99	25.5
1147.1	25
1148.21	23
1149.32	26
1150.43	25.5
1151.54	25.5
1152.65	23.5
1153.75	24
1154.86	28
1155.97	26.5
1157.08	26
1158.18	25
1159.29	26.5
1160.4	23
1161.5	25
1162.61	25
1163.72	24
1164.82	28.5
1165.93	26
1167.03	26
1168.14	26
1169.24	26
1170.35	24.5
1171.45	24.5
1172.56	24.5
1173.66	21
1174.77	23.5
1175.87	23.5
1176.98	25.5
1178.08	24.5
1179.18	21
1180.29	24
1181.39	24.5
1182.49	23.5
1183.6	24.5
1184.7	27.5
1185.8	24.5
1186.9	21.5
1188	26
1189.11	23
1190.21	27
1191.31	23.5
1192.41	22.5
1193.51	26
1194.61	27.4714
1195.72	25.9108
1196.82	24.0427
1197.92	21.1137
1199.02	23.6384
1200.12	24.4733
1201.22	23.5156
1202.32	21.9671
1203.42	22.9175
1204.52	25.1891
1205.62	22.1529
1206.71	26.139
1207.81	25.8242
1208.91	25.6311
1210.01	24.7637
1211.11	26.6325
1212.21	22.1323
1213.31	24.048
1214.4	23.2936
1215.5	25.1591
1216.6	24.1743
1217.7	22.9809
1218.79	23.0027
1219.89	25.4136
1220.99	24.5812
1222.08	24.3693
1223.18	22.4654
1224.28	23.267
1225.37	22.5534
1226.47	29.2064
1227.56	23.7424
1228.66	24.0557
1229.76	25.0875
1230.85	22.9695
1231.95	22.6613
1233.04	24.5025
1234.14	22.6847
1235.23	26.0061
1236.32	21.3837
1237.42	22
1238.51	22.5415
1239.61	23.8523
1240.7	24.8678
1241.79	24.6012
1242.89	22.2939
1243.98	25.2992
1245.07	23.9381
1246.17	23.8911
1247.26	27.3697
1248.35	25.8101
1249.44	24.372
1250.53	19.5866
1251.63	23.7939
1252.72	24.8506
1253.81	21.8914
1254.9	25.7776
1255.99	25.6876
1257.08	25.0226
1258.17	25.517
1259.27	25.3347
1260.36	27.3734
1261.45	25.648
1262.54	24.9488
1263.63	26.852
1264.72	24.4802
1265.81	27.2822
1266.89	25.2913
1267.98	25.2069
1269.07	23.7308
1270.16	24.7493
1271.25	22.9972
1272.34	24.4791
1273.43	24.366
1274.52	25.0157
1275.6	25.5507
1276.69	24.0855
1277.78	26.7813
1278.87	24.4414
1279.95	26.1723
1281.04	26.621
1282.13	26.1922
1283.22	24.1216
1284.3	23.977
1285.39	25.8172
1286.48	25.3283
1287.56	26.1717
1288.65	24.362
1289.73	25.18
1290.82	24.5159
1291.9	24.1723
1292.99	23.0395
1294.07	22.3592
1295.16	22.3966
1296.24	20.6136
1297.33	22.9543
1298.41	24.3069
1299.5	24.5
1300.58	26.2652
1301.66	27.0345
1302.75	23.0854
1303.83	23.8271
1304.91	26.4291
1306	24.46
1306.4	23
1307.48	24.5
1308.57	23
1309.66	25.5
1310.75	22.5
1311.84	25.5
1312.92	24.5
1314.01	22
1315.1	23
1316.18	24
1317.27	22.5
1318.36	24.5
1319.44	23
1320.53	22.5
1321.62	24
1322.7	25
1323.79	25
1324.87	24
1325.96	24
1327.04	24
1328.13	23
1329.21	25.5
1330.3	26.5
1331.38	25
1332.47	21.5
1333.55	25.5
1334.64	21
1335.72	22
1336.8	23
1337.89	23
1338.97	26.5
1340.05	24.5
1341.14	26
1342.22	24
1343.3	28
1344.38	26.5
1345.47	23.5
1346.55	19.5
1347.63	24.5
1348.71	23.5
1349.79	27
1350.87	22
1351.96	25
1353.04	24
1354.12	22.5
1355.2	25
1356.28	26.5
1357.36	22.5
1358.44	23.5
1359.52	25.5
1360.6	26
1361.68	26
1362.76	24.5
1363.84	26
1364.92	24.5
1366	24
1367.07	20.5
1368.15	24
1369.23	27
1370.31	24
1371.39	27
1372.47	24.5
1373.54	24
1374.62	27
1375.7	24.5
1376.78	25.5
1377.85	27.5
1378.93	24
1380.01	27
1381.08	20.5
1382.16	23
1383.24	23.5
1384.31	26
1385.39	29.5
1386.46	27.5
1387.54	24.5
1388.61	24
1389.69	25
1390.76	27
1391.84	24.5
1392.91	26
1393.99	31
1395.06	22.5
1396.14	25.5
1397.21	24
1398.29	24
1399.36	29
1400.43	29
1401.51	30
1402.58	29
1403.65	30
1404.72	30
1405.8	34.5
1406.87	30
1407.94	30.5
1409.02	33
1410.09	25.5
1411.16	30
1412.23	33.5
1413.3	29.5
1414.37	30
1415.44	30.5
1416.51	31
1417.59	31
1418.66	27.5
1419.73	28.5
1420.8	28
1421.87	26
1422.94	28
1424.01	26.5
1425.08	32
1426.15	28
1427.22	24.5
1428.28	28.5
1429.35	27
1430.42	28
1431.49	26
1432.56	23.5
1433.63	24.5
1434.7	27.5
1435.76	25.5
1436.83	30
1437.9	24
1438.97	26
1440.03	26
1441.1	25.5
1442.17	23.5
1443.23	21.5
1444.3	26.5
1445.37	25
1446.43	26
1447.5	24.5
1448.57	30
1449.63	28
1450.7	26.5
1451.76	27.5
1452.83	25.5
1453.89	24
1454.96	25.5
1456.02	24
1457.09	22.5
1458.15	22
1459.22	30.5
1460.28	28
1461.34	25
1462.41	24.5
1463.47	24.5
1464.53	23.5
1465.6	27
1466.66	23
1467.72	24
1468.78	23
1469.85	26.5
1470.91	26.5
1471.97	25
1473.03	26
1474.1	25.5
1475.16	25
1476.22	23
1477.28	24.5
1478.34	23
1479.4	27
1480.46	26.5
1481.52	25
1482.58	26
1483.65	23
1484.71	23.5
1485.77	20
1486.82	25.5
1487.89	25.5
1488.94	25.5
1490	26
1491.06	24
1492.12	23
1493.18	25.5
1494.24	29
1495.3	26.5
1496.36	25
1497.41	25
1498.47	24
1499.53	23
1500.59	24
1501.65	27
1502.7	27
1503.76	24
1504.82	26
1505.87	24.5
1506.93	22
1507.99	25.5
1509.04	25
1510.1	28
1511.16	26.5
1512.21	26
1513.27	24
1514.32	26
1515.38	30.5
1516.43	26
1517.49	24
1518.54	25
1519.6	23.5
1520.65	27
1521.71	24.5
1522.76	25
1523.81	24
1524.87	26
1525.92	26
1526.98	22
1528.03	27
1529.08	22.5
1530.14	25
1531.19	27
1532.24	26
1533.29	25.5
1534.35	26
1535.4	23.5
1536.45	28.5
1537.5	25
1538.55	24.5
1539.61	27
1540.66	26
1541.71	23.5
1542.76	26
1543.81	26
1544.86	25.5
1545.91	26
1546.96	26
1548.01	29
1549.06	26
1550.11	25
1551.16	23
1552.21	25
1553.26	26
1554.31	25
1555.36	21
1556.41	26.5
1557.46	27
1558.5	23.5
1559.55	23
1560.6	23
1561.65	23.5
1562.7	26
1563.74	24.5
1564.79	27.5
1565.84	25
1566.89	23.5
1567.93	29.5
1568.98	25
1570.03	23
1571.07	27.5
1572.12	24.5
1573.17	28
1574.21	24
1575.26	24
1576.3	25.5
1577.35	22
1578.4	24.5
1579.44	26
1580.49	23
1581.53	21.5
1582.58	24
1583.62	24
1584.66	23
1585.71	24
1586.75	24
1587.8	25
1588.84	25
1589.88	26.5
1590.93	22.5
1591.97	26
1593.01	26
1594.06	23.5
1595.1	26.5
1596.14	25.5
1597.18	24
1598.23	27
1599.27	26
1600.31	28
1601.35	25.5
1602.39	27
1603.44	22
1604.48	25
1605.52	25
1606.56	27
1607.6	28.5
1608.64	26
1609.68	25
1610.72	24
1611.76	25.5
1612.8	23.5
1613.84	22
1614.88	26
1615.92	27
1616.96	24.5
1618	27.5
1619.04	27.5
1620.08	26
1621.12	25
1622.16	26
1623.19	23.5
1624.23	25
1625.27	27
1626.31	27.5
1627.35	20.5
1628.38	25
1629.42	23
1630.46	24
1631.49	25
1632.53	24
1633.57	24
1634.6	23
1635.64	30
1636.68	25
1637.71	27.5
1638.75	29
1639.79	25
1640.82	26
1641.86	22.5
1642.89	24.5
1643.93	26
1644.96	27
1646	23.5
1647.03	27.5
1648.07	24.5
1649.1	25
1650.13	26
1651.17	25.5
1652.2	22
1653.24	28
1654.27	19
1655.3	24
1656.34	25.5
1657.37	25
1658.4	23.5
1659.43	24
1660.47	26.5
1661.5	26.5
1662.53	23.5
1663.56	23
1664.6	24.5
1665.63	22
1666.66	27.5
1667.69	24
1668.72	25.5
1669.75	25
1670.78	26.5
1671.81	27
1672.85	19.5
1673.88	24.5
1674.91	23
1675.94	24
1676.97	23.5
1678	25
1679.03	25
1680.06	21.5
1681.09	28
1682.11	26.5
1683.14	24
1684.17	29
1685.2	26.5
1686.23	26
1687.26	25.5
1688.29	25
1689.31	27.5
1690.34	29.5
1691.37	24.5
1692.4	26.5
1693.42	23.5
1694.45	25
1695.48	26.5
1696.51	22
1697.53	23
1698.56	23.5
1699.59	25
1700.61	22.5
1701.64	25.5
1702.66	28.5
1703.69	25.5
1704.72	26
1705.74	28
1706.77	22
1707.79	25
1708.82	25
1709.84	25.5
1710.87	29
1711.89	24.5
1712.91	25
1713.94	26
1714.96	22.5
1715.99	22
1717.01	25
1718.03	27
1719.06	25
1720.08	25.5
1721.1	26
1722.13	23
1723.15	27
1724.17	27.5
1725.19	24
1726.22	27
1727.24	26.5
1728.26	24.5
1729.28	27
1730.3	28
1731.33	22.5
1732.35	22.5
1733.37	28
1734.39	25
1735.41	25
1736.43	28
1737.45	26.5
1738.47	28
1739.49	28
1740.51	25.5
1741.53	26.5
1742.55	24
1743.57	26.5
1744.59	25.5
1745.61	28
1746.63	25.5
1747.65	25.5
1748.67	21.5
1749.69	25.5
1750.7	26
1751.72	25
1752.74	21.5
1753.76	25
1754.78	27.5
1755.79	25.5
1756.81	23
1757.83	23
1758.85	23
1759.86	23
1760.88	24.5
1761.9	23.5
1762.91	25
1763.93	24.5
1764.95	26
1765.96	25
1766.98	25
1767.99	25.5
1769.01	27
1770.02	21.5
1771.04	27.5
1772.06	23
1773.07	20
1774.09	22.5
1775.1	28
1776.11	26
1777.13	23.5
1778.14	22.5
1779.16	25.5
1780.17	29.5
1781.18	25.5
1782.2	24.5
1783.21	21
1784.22	28
1785.24	20
1786.25	26.5
1787.26	24
1788.28	21.5
1789.29	27
1790.3	25.5
1791.31	25
1792.33	26
1793.34	25.5
1794.35	23.5
1795.36	28
1796.37	25.5
1797.38	24
1798.39	22.5
1799.4	20.5
1800.42	23.5
1801.43	26.5
1802.44	27.5
1803.45	24
1804.46	24.5
1805.47	27
1806.48	27
1807.49	25.5
1808.5	22
1809.51	25
1810.51	26
1811.52	25
1812.53	25
1813.54	27.5
1814.55	22
1815.56	29
1816.57	23
1817.57	24
1818.58	21.5
1819.59	25
1820.6	21
1821.61	25
1822.61	23.5
1823.62	26
1824.63	23.5
1825.63	27
1826.64	26.5
1827.65	24
1828.65	22.5
1829.66	27
1830.67	22
1831.67	26.5
1832.68	28
1833.68	23.5
1834.69	28.5
1835.69	24
1836.7	28
1837.7	26
1838.71	25
1839.71	23.5
1840.72	22.5
1841.72	21
1842.73	25
1843.73	23.5
1844.73	23
1845.74	22.5
1846.74	26.5
1847.74	25
1848.75	23.5
1849.75	22
1850.75	26.5
1851.76	25
1852.76	28.5
1853.76	27.5
1854.76	30
1855.77	23.5
1856.77	26
1857.77	24
1858.77	24
1859.77	23
1860.77	23.5
1861.78	24
1862.78	25
1863.78	26
1864.78	22.5
1865.78	22
1866.78	24
1867.78	24.5
1868.78	23
1869.78	28
1870.78	26.5
1871.78	27
1872.78	24
1873.78	27
1874.78	25.5
1875.78	20.5
1876.78	24
1877.78	24
1878.77	26.5
1879.77	26.5
1880.77	22
1881.77	24.5
1882.77	27
1883.77	22
1884.76	23
1885.76	22.5
1886.76	20
1887.75	25.5
1888.75	21.5
1889.75	25.5
1890.75	27.5
1891.74	24.5
1892.74	23.5
1893.73	23.5
1894.73	23
1895.73	27
1896.72	24
1897.72	21.5
1898.71	25
1899.71	25.5
1900.7	25.5
1901.7	28
1902.69	23.5
1903.69	24.5
1904.68	25.5
1905.68	22
1906.67	25.5
1907.67	26.5
1908.66	24.5
1909.65	24.5
1910.65	26.5
1911.64	29
1912.63	25.5
1913.63	27
1914.62	27
1915.61	28
1916.61	21.5
1917.6	26
1918.59	23.5
1919.58	26
1920.58	22.5
1921.57	25.5
1922.56	26.5
1923.55	25.5
1924.54	27.5
1925.54	26
1926.53	20.5
1927.52	27
1928.51	22
1929.5	20
1930.49	21
1931.48	23
1932.47	25.5
1933.46	23
1934.45	24.5
1935.44	23
1936.43	22
1937.42	28
1938.41	23.5
1939.4	23.5
1940.39	24.5
1941.38	23
1942.37	24.5
1943.35	22.5
1944.34	27.5
1945.33	23
1946.32	24.5
1947.31	24
1948.3	25.5
1949.28	26.5
1950.27	26
1951.26	26
1952.25	28.5
1953.23	26
1954.22	26
1955.21	19.5
1956.19	22.5
1957.18	21.5
1958.17	26.5
1959.15	19
1960.14	25.5
1961.12	24
1962.11	27.5
1963.1	21.5
1964.08	26
1965.07	23.5
1966.05	22.5
1967.04	26.5
1968.02	22
1969.01	29.5
1969.99	24
1970.98	24
1971.96	23
1972.94	22.5
1973.93	22.5
1974.91	26.5
1975.9	26
1976.88	21.5
1977.86	20
1978.85	21
1979.83	24.5
1980.81	26
1981.79	25
1982.78	23.5
1983.76	23.5
1984.74	27
1985.72	24
1986.71	20
1987.69	24.5
1988.67	23.5
1989.65	25
1990.63	24
1991.61	25.5
1992.59	22.5
1993.57	23
1994.56	24.5
1995.54	25
1996.52	24
1997.5	24
1998.48	20
1999.46	22.5
2000.44	22.5
2001.42	25
2002.4	25.5
2003.38	25.5
2004.36	25
2005.33	26.5
2006.31	15.5
2007.29	25
2008.27	26
2009.25	22.5
2010.23	21
2011.21	24
2012.18	22.5
2013.16	24
2014.14	23
2015.12	21.5
2016.09	23.5
2017.07	21.5
2018.05	20
2019.03	22
2020	20
2020.98	22.5
2021.96	23
2022.93	25.5
2023.91	22
2024.89	24
2025.86	24
2026.84	26.5
2027.81	19
2028.79	24.5
2029.76	22.5
2030.74	25
2031.71	23.5
2032.69	23
2033.66	22
2034.64	27
2035.61	23
2036.59	24
2037.56	22.5
2038.54	25
2039.51	25
2040.48	25
2041.46	26
2042.43	24.5
2043.4	24
2044.38	26.5
2045.35	24
2046.32	23.5
2047.29	23
2048.27	22.5
2049.24	24.5
2050.21	25
2051.18	28
2052.16	24.5
2053.13	22
2054.1	22
2055.07	19.5
2056.04	22
2057.01	23
2057.98	24
2058.96	22.5
2059.93	25.5
2060.9	21.5
2061.87	24.5
2062.84	24.5
2063.81	20
2064.78	23.5
2065.75	19.5
2066.72	21
2067.69	22
2068.66	23
2069.63	25.5
2070.6	27
2071.56	23.5
2072.53	22
2073.5	23.5
2074.47	25
2075.44	21
2076.41	21
2077.38	25.5
2078.34	23.5
2079.31	25
2080.28	22.5
2081.25	22
2082.21	28.5
2083.18	23.5
2084.15	23.5
2085.11	20.5
2086.08	24
2087.05	22.5
2088.01	25
2088.98	27
2089.95	24.5
2090.91	22
2091.88	23.5
2092.84	22
2093.81	23.5
2094.78	22
2095.74	23.5
2096.71	22.5
2097.67	23
2098.64	26
2099.6	22
2100.57	24
2101.53	22.5
2102.49	20
2103.46	24
2104.42	21.5
2105.39	22.5
2106.35	20
2107.31	22.5
2108.28	23
2109.24	24.5
2110.2	28
2111.17	23
2112.13	22
2113.09	23
2114.05	25.5
2115.02	22.5
2115.98	24.5
2116.94	25.5
2117.9	22
2118.86	17.5
2119.83	25.5
2120.79	24.5
2121.75	22
2122.71	20.5
2123.67	25.5
2124.63	20
2125.59	21
2126.55	19
2127.51	25
2128.47	26
2129.43	24
2130.39	25
2131.35	22.5
2132.31	24
2133.27	25
2134.23	25.5
2135.19	23
2136.15	23.5
2137.11	25.5
2138.07	22.5
2139.03	22
2139.99	25
2140.94	21
2141.9	20
2142.86	21.9932
2143.82	27.3991
2144.78	21.1294
2145.73	21.1007
2146.69	25.0121
2147.65	23.4433
2148.61	24.0045
2149.56	22.4274
2150.52	19.9972
2151.48	22.673
2152.43	24.6229
2153.39	22.5639
2154.35	21.329
2155.3	18.9353
2156.26	24.2354
2157.21	21.7538
2158.17	22.6893
2159.13	23.9903
2160.08	24.4109
2161.04	24.6662
2161.99	22.612
2162.95	23.1325
2163.9	24.3515
2164.86	22.7524
2165.81	21.4002
2166.77	20.8714
2167.72	23.8209
2168.67	22.2077
2169.63	22.375
2170.58	23.763
2171.54	21.9368
2172.49	23.4794
2173.44	20.3829
2174.4	20.4142
2175.35	23.1651
2176.3	21.3405
2177.26	18.3034
2178.21	23.4461
2179.16	22.8875
2180.11	24.4293
2181.07	23.2683
2182.02	21.609
2182.97	21.906
2183.92	21.3805
2184.87	23.4787
2185.82	20.7035
2186.78	23.9274
2187.73	19.4519
2188.68	23.453
2189.63	20.5499
2190.58	21.5222
2191.53	21.5
2192.48	22.6972
2193.43	24.1915
2194.38	22.6155
2195.33	21.0518
2196.28	21.609
2197.23	22.6994
2198.18	22.4087
2199.13	23.6195
2200.08	22.1465
2201.03	19.6954
2201.98	22.0417
2202.93	22.744
2203.88	22.2148
2204.83	23.8836
2205.77	22.6888
2206.72	21.7461
2207.67	23.2389
2208.62	21.4784
2209.57	22.1322
2210.52	23.6245
2211.46	22.2895
2212.41	22.4584
2213.36	23.7987
2214.31	21.9631
2215.25	23.3544
2216.2	22.3388
2217.15	21.337
2218.09	21.6603
2219.04	21.7135
2219.99	21.25
2220.93	20.643
2221.88	23.6976
2222.82	20.9762
2223.77	23.1554
2224.72	21.0352
2225.66	22.3539
2226.61	23.534
2227.55	22.0668
2228.5	21.0602
2229.44	20.8852
2230.39	20.4774
2231.33	22.0633
2232.28	21.3426
2233.22	22.2688
2234.16	24.935
2235.11	25.7063
2236.05	22.4155
2237	21.5869
2237.94	21.6513
2238.88	21.8589
2239.83	22.6805
2240.13	23
2241.08	22
2242.03	24.5
2242.98	24
2243.92	22.5
2244.87	24.5
2245.82	21
2246.76	18.5
2247.71	21
2248.66	21
2249.61	21.5
2250.55	22.5
2251.5	27
2252.45	20.5
2253.39	24.5
2254.34	17.5
2255.28	22
2256.23	20.5
2257.18	24
2258.12	23
2259.07	20
2260.01	20
2260.96	21.5
2261.9	20.5
2262.85	23
2263.79	21.5
2264.74	22.5
2265.68	19
2266.63	21.5
2267.57	24.5
2268.51	22
2269.46	26.5
2270.4	24.5
2271.35	22
2272.29	24.5
2273.23	25.5
2274.18	25.5
2275.12	21
2276.06	25.5
2277	20.5
2277.95	20
2278.89	25
2279.83	24.5
2280.78	23
2281.72	22.5
2282.66	19.5
2283.6	22
2284.54	22
2285.48	21
2286.43	21
2287.37	22.5
2288.31	28
2289.25	23.5
2290.19	23
2291.13	23
2292.07	23.5
2293.01	23
2293.95	24
2294.89	25
2295.83	21
2296.77	21.5
2297.71	24.5
2298.65	23
2299.59	23.5
2300.53	22.5
2301.47	25
2302.41	25
2303.35	23
2304.29	21.5
2305.22	20
2306.16	22
2307.1	21
2308.04	26
2308.98	21.5
2309.91	23.5
2310.85	27
2311.79	24
2312.73	23.5
2313.66	23.5
2314.6	20
2315.54	22.5
2316.48	23
2317.41	22.5
2318.35	25.5
2319.29	24
2320.22	22.5
2321.16	26
2322.09	25.5
2323.03	26.5
2323.97	20
2324.9	25.5
2325.84	22.5
2326.77	22.5
2327.71	25
2328.64	25.5
2329.58	20
2330.51	20.5
2331.45	20
2332.38	20.5
2333.32	23
2334.25	28
2335.18	24.5
2336.12	24
2337.05	23
2337.99	25.5
2338.92	22.5
2339.85	22.5
2340.79	26.5
2341.72	22.5
2342.65	24
2343.59	19
2344.52	22
2345.45	21.5
2346.38	25
2347.32	25
2348.25	24
2349.18	24.5
2350.11	25.5
2351.04	21.5
2351.98	22
2352.91	24.5
2353.84	25.5
2354.77	21
2355.7	25
2356.63	26.5
2357.56	23
2358.49	23
2359.42	23
2360.35	24.5
2361.28	21.5
2362.21	25
2363.14	24.5
2364.07	24.5
2365	26
2365.93	24.5
2366.86	25
2367.79	25
2368.72	24
2369.65	23.5
2370.58	24
2371.51	23.5
2372.44	21
2373.36	21
2374.29	26.5
2375.22	24
2376.15	22.5
2377.08	26
2378	24
2378.93	23
2379.86	27
2380.79	24
2381.71	27
2382.64	22.5
2383.57	23
2384.49	26
2385.42	23.5
2386.35	21.5
2387.27	21.5
2388.2	23
2389.13	25.5
2390.05	24.5
2390.98	23
2391.9	26
2392.83	22
2393.76	22
2394.68	22.5
2395.61	22.5
2396.53	22.5
2397.46	26
2398.38	23
2399.3	24.5
2400.23	23
2401.15	22
2402.08	25
2403	23
2403.93	24
2404.85	25
2405.77	27
2406.7	21.5
2407.62	23
2408.54	26
2409.47	24
2410.39	23.5
2411.31	25
2412.24	24
2413.16	22
2414.08	21
2415	21.5
2415.92	23
2416.85	24
2417.77	26.5
2418.69	25
2419.61	24.5
2420.53	26
2421.45	23
2422.38	22.5
2423.3	19
2424.22	24
2425.14	24
2426.06	21
2426.98	26.5
2427.9	22
2428.82	23
2429.74	25.5
2430.66	25.5
2431.58	21.5
2432.5	21
2433.42	18.5
2434.34	24.5
2435.26	22.5
2436.18	25.5
2437.1	24
2438.01	24.5
2438.93	25
2439.85	21.5
2440.77	24
2441.69	24
2442.61	24
2443.52	25
2444.44	23
2445.36	27
2446.28	22
2447.2	20.5
2448.11	24
2449.03	26
2449.95	24.5
2450.86	24
2451.78	26
2452.7	22.5
2453.61	20.5
2454.53	23.5
2455.45	25.5
2456.36	25
2457.28	24
2458.2	22
2459.11	23.5
2460.03	21
2460.94	23.5
2461.86	23
2462.77	22.5
2463.69	21.5
2464.6	24
2465.52	21.5
2466.43	28
2467.35	23
2468.26	26
2469.18	24
2470.09	26.5
2471	23
2471.92	23.5
2472.83	22.5
2473.74	20
2474.66	23
2475.57	25
2476.48	24.5
2477.4	24
2478.31	23.5
2479.22	22.5
2480.14	24
2481.05	22.5
2481.96	23.5
2482.87	24.5
2483.79	26
2484.7	28
2485.61	27
2486.52	20
2487.43	23.5
2488.34	24.5
2489.25	22
2490.17	19.5
2491.08	23
2491.99	26
2492.9	24
2493.81	24.5
2494.72	26.5
2495.63	25.5
2496.54	23
2497.45	26
2498.36	27.5
2499.27	21
2500.18	25.5
2501.09	25
2502	24
2502.91	28
2503.82	26.5
2504.73	21
2505.63	26
2506.54	27
2507.45	25.5
2508.36	23
2509.27	27.5
2510.18	24
2511.09	25.5
2511.99	25
2512.9	26
2513.81	21.5
2514.72	20.5
2515.62	23.5
2516.53	24
2517.44	26
2518.34	24
2519.25	21.5
2520.16	25.5
2521.06	22
2521.97	22
2522.88	22.5
2523.78	23
2524.69	20.5
2525.6	23
2526.5	21.5
2527.41	25
2528.31	28
2529.22	23.5
2530.12	22.5
2531.03	22
2531.93	23.5
2532.84	25.5
2533.74	25.5
2534.65	24.5
2535.55	24
2536.46	24.5
2537.36	26.5
2538.27	25
2539.17	25
2540.07	24.5
2540.98	21.5
2541.88	23.5
2542.78	22.5
2543.69	23.5
2544.59	23.5
2545.49	21
2546.4	29.5
2547.3	21
2548.2	26
2549.1	23.5
2550.01	20
2550.91	24
2551.81	26.5
2552.71	25
2553.61	25
2554.52	21.5
2555.42	28
2556.32	23
2557.22	18
2558.12	22
2559.02	25
2559.92	20.5
2560.82	24.5
2561.72	26
2562.62	26
2563.53	23.5
2564.43	23
2565.33	24.5
2566.23	25
2567.13	24.5
2568.03	24
2568.92	22
2569.82	23.5
2570.72	22.5
2571.62	26.5
2572.52	21.5
2573.42	27
2574.32	26
2575.22	24.5
2576.12	25
2577.02	25.5
2577.91	25
2578.81	23
2579.71	23
2580.61	23
2581.5	22
2582.4	21
2583.3	19.5
2584.2	21
2585.09	25
2585.99	25.5
2586.89	22
2587.78	24.5
2588.68	22.5
2589.58	26
2590.47	25
2591.37	23
2592.27	22.5
2593.16	29
2594.06	26
2594.95	21
2595.85	27
2596.75	24.5
2597.64	21
2598.54	23.5
2599.43	27
2600.33	23.5
2601.22	22.5
2602.12	25.5
2603.01	25.5
2603.9	23.5
2604.8	22
2605.69	25.5
2606.59	22
2607.48	24.5
2608.37	20
2609.27	27.5
2610.16	21
2611.05	23
2611.95	21.5
2612.84	26.5
2613.73	25
2614.63	24.5
2615.52	24
2616.41	26.5
2617.3	22.5
2618.2	21
2619.09	25
2619.98	22
2620.87	22.5
2621.76	25.5
2622.66	25
2623.55	27
2624.44	25
2625.33	25
2626.22	28
2627.11	23.5
2628	25
2628.9	27
2629.79	21
2630.68	26.5
2631.57	25
2632.46	26
2633.35	24
2634.24	24
2635.13	24.5
2636.02	24
2636.91	26.5
2637.8	25
2638.68	26.5
2639.57	25
2640.46	20
2641.35	19.5
2642.24	25
2643.13	21.5
2644.02	26
2644.91	20.5
2645.79	22.5
2646.68	30
2647.57	25
2648.46	21
2649.35	26
2650.23	23
2651.12	26.5
2652.01	23
2652.9	23.5
2653.78	26
2654.67	23.5
2655.56	23.5
2656.44	26
2657.33	24
2658.22	26
2659.1	18
2659.99	21
2660.88	25.5
2661.76	21
2662.65	21.5
2663.53	20.5
2664.42	24
2665.3	21
2666.19	26
2667.07	24
2667.96	24.5
2668.84	21
2669.73	24.5
2670.61	27.5
2671.5	24
2672.38	24
2673.27	23
2674.15	25.5
2675.04	22
2675.92	24
2676.8	23.5
2677.69	20
2678.57	23.5
2679.45	26
2680.34	26.5
2681.22	24
2682.1	27
2682.99	26
2683.87	25.5
2684.75	29
2685.63	24
2686.52	25
2687.4	22.5
2688.28	28
2689.16	25.5
2690.04	24
2690.93	23
2691.81	28
2692.69	24
2693.57	24.5
2694.45	29.5
2695.33	21
2696.21	23.5
2697.09	28
2697.97	25
2698.85	21
2699.74	23.5
2700.62	23
2701.5	18
2702.38	24.5
2703.26	24.5
2704.14	26.5
2705.02	20
2705.89	23
2706.77	29
2707.65	22
2708.53	24.5
2709.41	25.5
2710.29	28.5
2711.17	24
2712.05	25.5
2712.93	27
2713.8	23
2714.68	26.5
2715.56	24.5
2716.44	22
2717.32	22.5
2718.19	23
2719.07	26
2719.95	24.5
2720.83	23
2721.7	24
2722.58	23.5
2723.46	22
2724.33	25
2725.21	23.5
2726.09	25.5
2726.97	25
2727.84	24.5
2728.72	24
2729.59	23
2730.47	25
2731.35	26
2732.22	28.5
2733.1	22
2733.97	22.5
2734.85	21.5
2735.72	24
2736.6	24
2737.47	24.5
2738.35	23.5
2739.22	20
2740.1	21.5
2740.97	27
2741.84	23
2742.72	26.5
2743.59	21
2744.47	21
2745.34	25.5
2746.21	25.5
2747.09	26.5
2747.96	23
2748.83	21.5
2749.71	22.5
2750.58	24
2751.45	25.5
2752.33	25.5
2753.2	26
2754.07	25
2754.94	24
2755.82	25
2756.69	22
2757.56	18.5
2758.43	25
2759.3	28
2760.18	24.5
2761.05	27
2761.92	22
2762.79	27
2763.66	23.5
2764.53	22
2765.4	23.5
2766.27	27
2767.14	25.5
2768.01	25
2768.88	23
2769.75	26
2770.62	22.5
2771.49	29
2772.36	25
2773.23	23.5
2774.1	24.5
2774.97	25.5
2775.84	25
2776.71	26
2777.58	24.5
2778.45	27
2779.32	23.5
2780.19	24.5
2781.06	23.5
2781.92	25.5
2782.79	27
2783.66	23
2784.53	27
2785.4	27
2786.26	21.5
2787.13	27
2788	28.5
2788.87	25
2789.73	25.5
2790.6	25.5
2791.47	27.5
2792.34	23
2793.2	25
2794.07	27
2794.94	25
2795.8	28
2796.67	29
2797.53	26.5
2798.4	23
2799.27	23.5
2800.13	26.5
2801	26.75
2801.86	27
2802.73	26
2803.59	26
2804.46	22.5
2805.32	26.5
2806.19	27
2807.05	24
2807.92	25.5
2808.78	27
2809.65	29
2810.51	28.5
2811.38	26
2812.24	28.5
2813.1	25
2813.97	25.5
2814.83	24
2815.7	24.5
2816.56	23.5
2817.42	26.5
2818.29	26.5
2819.15	25.5
2820.01	23.5
2820.87	23.5
2821.74	25
2822.6	26.5
2823.46	23.5
2824.32	26
2825.19	26
2826.05	28
2826.91	24
2827.77	27.5
2828.63	25
2829.5	27.5
2830.36	25
2831.22	25.5
2832.08	28.5
2832.94	24.5
2833.8	26
2834.66	24
2835.52	27.5
2836.38	24
2837.24	26.5
2838.1	26
2838.96	25.5
2839.82	25.5
2840.68	24
2841.54	28
2842.4	27.5
2843.26	26
2844.12	25
2844.98	27
2845.84	26
2846.7	23
2847.56	24.5
2848.42	24
2849.28	24.5
2850.14	22
2850.99	25
2851.85	24
2852.71	23.5
2853.57	27
2854.43	27.5
2855.28	26
2856.14	28
2857	23.5
2857.86	26
2858.71	26
2859.57	31
2860.43	25.5
2861.28	28.5
2862.14	31.5
2863	27
2863.86	24.5
2864.71	24
2865.57	24
2866.42	28
2867.28	28.5
2868.14	27
2868.99	25
2869.85	24.5
2870.7	29
2871.56	28
2872.41	28.5
2873.27	35
2874.13	28.5
2874.98	27.5
2875.83	27.5
2876.69	25.5
2877.54	29
2878.4	30.5
2879.25	31.5
2880.11	32
2880.96	31
2881.81	30
2882.67	32.5
2883.52	29
2884.38	31.5
2885.23	33.5
2886.08	34
2886.94	36
2887.79	34.5
2888.64	38.5
2889.5	35
2890.35	39
2891.2	38
2892.05	43
2892.91	43.5
2893.76	40.5
2894.61	45
2895.46	46.5
2896.31	52
2897.17	47
2898.02	53.5
2898.87	57
2899.72	59.5
2900.57	60.5
2901.42	56
2902.27	64
2903.12	58
2903.98	63
2904.83	64
2905.68	73.5
2906.53	67
2907.38	65.5
2908.23	67
2909.08	67.5
2909.93	65.5
2910.78	59.5
2911.63	58
2912.48	53
2913.33	58
2914.18	48
2915.02	43
2915.87	50
2916.72	45.5
2917.57	44.5
2918.42	41
2919.27	36
2920.12	31
2920.97	33.5
2921.81	36
2922.66	33
2923.51	32
2924.36	32.5
2925.21	32.5
2926.05	31.5
2926.9	29
2927.75	29.5
2928.59	33
2929.44	32
2930.29	30.5
2931.14	27.5
2931.98	30.5
2932.83	29
2933.68	29
2934.52	28
2935.37	30
2936.21	25.5
2937.06	29
2937.91	27
2938.75	28
2939.6	30.5
2940.44	31.5
2941.29	28
2942.14	27
2942.98	33.5
2943.82	26.5
2944.67	27.5
2945.51	29.5
2946.36	26.5
2947.2	26.5
2948.05	31.5
2948.89	31
2949.74	31.5
2950.58	30
2951.43	29.5
2952.27	32
2953.11	32.5
2953.96	28
2954.8	32
2955.64	29
2956.49	31.5
2957.33	36.5
2958.17	37.5
2959.02	37.5
2959.86	41.5
2960.7	36.5
2961.54	36
2962.39	42.5
2963.23	41
2964.07	40
2964.91	49.5
2965.75	50
2966.6	41.5
2967.44	42
2968.28	40
2969.12	42.5
2969.96	42
2970.8	39
2971.64	39.9927
2972.48	37.8958
2973.33	40.5
2974.17	33.5619
2975.01	36.018
2975.85	29.1753
2976.69	32.0294
2977.53	29.9122
2978.37	34.9604
2979.21	32.1349
2980.05	28.1438
2980.89	30.5294
2981.73	27.4333
2982.57	29.02
2983.41	28.9451
2984.25	25.0174
2985.08	25.9806
2985.92	24.8729
2986.76	25.4848
2987.6	22.1926
2988.44	28.8484
2989.28	26.6407
2990.12	27.1965
2990.96	24.6037
2991.79	24.3616
2992.63	25.402
2993.47	24.5092
2994.31	27.6754
2995.14	23.1383
2995.98	25.0349
2996.82	26.3125
2997.66	23.3276
2998.49	26.0743
2999.33	23.8623
3000.17	25.9863
3001	23.2682
3001.84	22.5793
3002.68	23.0922
3003.51	23.6615
3004.35	24.1865
3005.19	23.7862
3006.02	24.728
3006.86	24.1256
3007.7	25.5219
3008.53	22.0344
3009.37	24.6699
3010.2	23.0971
3011.04	23.5564
3011.87	21.9034
3012.71	25.4363
3013.54	24.2937
3014.38	24.3659
3015.21	23.1845
3016.05	23.1804
3016.88	21.4005
3017.72	21.5268
3018.55	21.9043
3019.39	23.8881
3020.22	21.9418
3021.05	21.6318
3021.89	25.5511
3022.72	23.2267
3023.55	23.0711
3024.39	23.727
3025.22	23.1705
3026.05	22.2671
3026.89	24.4886
3027.72	23.1015
3028.55	24.0668
3029.39	23.2446
3030.22	22.8771
3031.05	22.3058
3031.88	21.7962
3032.72	20.8041
3033.55	22.9034
3034.38	23.1566
3035.21	23.3567
3036.04	23.3367
3036.88	24.9527
3037.71	24.6332
3038.54	23
3039.37	23.8392
3040.2	23.0214
3041.03	21.0211
3041.86	22.519
3042.69	23.8149
3043.52	24.4373
3044.36	23.1434
3045.19	22.8449
3046.02	23.3661
3046.85	25.3939
3047.68	24.8772
3048.51	22.8296
3049.34	22.6683
3050.17	21.6419
3051	24.4852
3051.83	26.6131
3052.66	26.2141
3053.48	26.4457
3054.31	25.0435
3055.14	21.3446
3055.97	21.9484
3056.8	20.714
3057.29	21
3058.12	23.5
3058.95	24
3059.79	24
3060.62	25.5
3061.45	25.5
3062.29	23
3063.12	19.5
3063.95	27
3064.78	23.5
3065.62	25.5
3066.45	25
3067.28	22
3068.11	23
3068.94	23
3069.77	22
3070.61	22.5
3071.44	22
3072.27	22.5
3073.1	25.5
3073.93	23.5
3074.76	18.5
3075.59	22
3076.42	23.5
3077.25	23
3078.08	22
3078.92	22
3079.74	22
3080.57	26.5
3081.41	24.5
3082.24	24
3083.06	20.5
3083.89	20.5
3084.72	25.5
3085.55	20
3086.38	21.5
3087.21	24
3088.04	22.5
3088.87	23
3089.7	22
3090.53	24
3091.36	23.5
3092.18	21.5
3093.01	19.5
3093.84	24
3094.67	22
3095.5	25
3096.32	27.5
3097.15	26
3097.98	21
3098.81	21
3099.64	24.5
3100.46	26.5
3101.29	18
3102.12	26
3102.94	23
3103.77	20
3104.6	22
3105.42	23.5
3106.25	24
3107.08	25
3107.9	20.5
3108.73	25.5
3109.56	23.5
3110.38	26.5
3111.21	24.5
3112.03	24.5
3112.86	21
3113.68	24.5
3114.51	20.5
3115.33	22.5
3116.16	24
3116.98	25
3117.81	22.5
3118.63	24
3119.46	22.5
3120.28	19.5
3121.11	25
3121.93	24
3122.76	26.5
3123.58	25
3124.4	23.5
3125.23	25
3126.05	21
3126.87	21
3127.7	23
3128.52	23.5
3129.34	24
3130.17	19
3130.99	25
3131.81	24
3132.64	19.5
3133.46	23
3134.28	23
3135.1	23
3135.93	21
3136.75	24
3137.57	25
3138.39	26
3139.21	21.5
3140.04	29
3140.86	21
3141.68	24.5
3142.5	23
3143.32	21
3144.14	20.5
3144.96	23
3145.78	22
3146.61	25
3147.43	25.5
3148.25	24
3149.07	23.5
3149.89	24
3150.71	22.5
3151.53	27
3152.35	18.5
3153.17	26.5
3153.99	22
3154.81	27
3155.63	23.5
3156.45	25.5
3157.27	18
3158.08	18
3158.9	22
3159.72	27
3160.54	24
3161.36	26
3162.18	22.5
3163	21
3163.82	26
3164.63	22.5
3165.45	20.5
3166.27	20.5
3167.09	23
3167.91	26.5
3168.72	24.5
3169.54	26.5
3170.36	22.5
3171.18	22.5
3171.99	24
3172.81	21
3173.63	23.5
3174.44	21
3175.26	20
3176.08	23
3176.89	28
3177.71	22.5
3178.53	26.5
3179.34	25.5
3180.16	21
3180.97	28
3181.79	25
3182.61	23.5
3183.42	23.5
3184.24	23
3185.05	24
3185.87	22
3186.68	22
3187.5	21.5
3188.31	26
3189.13	23.5
3189.94	23
3190.76	25.5
3191.57	21
3192.39	25.5
3193.2	23.5
3194.02	22
3194.83	24.5
3195.64	25
3196.46	22.5
3197.27	20.5
3198.08	23
3198.9	23.5
3199.71	26
3200.52	24
3201.34	25.5
3202.15	25
3202.96	23.5
3203.78	25
3204.59	26.5
3205.4	20.5
3206.21	28.5
3207.03	22
3207.84	24.5
3208.65	22.5
3209.46	20.5
3210.27	22.5
3211.09	27
3211.9	23
3212.71	24.5
3213.52	25.5
3214.33	19.5
3215.14	22
3215.95	22
3216.77	28
3217.58	23
3218.39	25
3219.2	24
3220.01	23
3220.82	22
3221.63	24.5
3222.44	21
3223.25	22.5
3224.06	24
3224.87	23.5
3225.68	25
3226.49	23
3227.3	22
3228.11	22
3228.92	26.5
3229.73	25
3230.53	26
3231.34	26
3232.15	24
3232.96	25
3233.77	28
3234.58	28.5
3235.39	26.5
3236.19	22.5
3237	23.5
3237.81	27.5
3238.62	23
3239.43	24.5
3240.23	21.5
3241.04	24.5
3241.85	23.5
3242.66	24
3243.46	25
3244.27	20
3245.08	24
3245.89	24
3246.69	23
3247.5	22
3248.31	25.5
3249.11	23
3249.92	24
3250.72	23
3251.53	22
3252.34	23.5
3253.14	27.5
3253.95	20
3254.75	22
3255.56	22
3256.36	26.5
3257.17	23
3257.98	24
3258.78	23.5
3259.59	26.5
3260.39	27
3261.19	24.5
3262	23
3262.8	22
3263.61	23.5
3264.41	23
3265.22	21.5
3266.02	24.5
3266.83	25
3267.63	23
3268.43	23.5
3269.24	23.5
3270.04	21
3270.84	24.5
3271.65	23
3272.45	24.5
3273.25	25.5
3274.06	21
3274.86	22
3275.66	25.5
3276.46	25.5
3277.27	22.5
3278.07	23.5
3278.87	25
3279.67	22
3280.48	24.5
3281.28	19
3282.08	24
3282.88	26
3283.68	22.5
3284.48	24
3285.29	21.5
3286.09	24
3286.89	21
3287.69	18
3288.49	23.5
3289.29	25
3290.09	24
3290.89	23
3291.69	20.5
3292.49	22.5
3293.29	28
3294.09	21
3294.89	25
3295.69	25
3296.49	26
3297.29	22
3298.09	19
3298.89	21
3299.69	23.5
3300.49	24
3301.29	26
3302.09	22
3302.89	20
3303.69	23
3304.49	19.5
3305.28	22.5
3306.08	22
3306.88	23
3307.68	21
3308.48	25.5
3309.28	21
3310.07	22
3310.87	21.5
3311.67	24
3312.47	25
3313.26	22
3314.06	20.5
3314.86	25
3315.66	26
3316.45	25
3317.25	18.5
3318.05	26.5
3318.84	22.5
3319.64	25.5
3320.44	25.5
3321.23	25
3322.03	24
3322.83	21.5
3323.62	21.5
3324.42	22.5
3325.21	24.5
3326.01	22
3326.81	20.5
3327.6	21
3328.4	20
3329.19	23
3329.99	23
3330.78	21
3331.58	26
3332.37	24.5
3333.17	22.5
3333.96	23.5
3334.76	22
3335.55	21.5
3336.34	21.5
3337.14	23
3337.93	26.5
3338.73	22.5
3339.52	27.5
3340.31	24.5
3341.11	26
3341.9	19
3342.69	20.5
3343.49	24.5
3344.28	23
3345.07	26
3345.87	21.5
3346.66	26.5
3347.45	22.5
3348.25	24
3349.04	25
3349.83	21
3350.62	23
3351.42	23
3352.21	24
3353	26
3353.79	22
3354.58	24
3355.37	24
3356.17	23
3356.96	22
3357.75	27
3358.54	21
3359.33	28
3360.12	23
3360.91	25
3361.7	24.5
3362.49	23.5
3363.29	26.5
3364.08	24
3364.87	23
3365.66	23
3366.45	25
3367.24	23.5
3368.03	25.5
3368.82	24
3369.61	22.5
3370.4	23.5
3371.19	26
3371.97	21
3372.76	28.5
3373.55	27
3374.34	21
3375.13	24
3375.92	21.5
3376.71	22
3377.5	23
3378.29	21.5
3379.07	23.5
3379.86	28.5
3380.65	20.5
3381.44	27
3382.23	23.5
3383.01	26
3383.8	22.5
3384.59	23
3385.38	25
3386.16	26
3386.95	23
3387.74	22
3388.53	26
3389.31	24
3390.1	23.5
3390.89	22.5
3391.67	23.5
3392.46	25
3393.25	24
3394.03	26.5
3394.82	22
3395.6	27
3396.39	22.5
3397.18	21
3397.96	24
3398.75	26.5
3399.53	23
3400.32	24.5
3401.1	21
3401.89	24
3402.67	20
3403.46	23
3404.24	23.5
3405.03	21
3405.81	22
3406.6	23
3407.38	25.5
3408.17	26.5
3408.95	24
3409.74	27.5
3410.52	26
3411.3	24
3412.09	25
3412.87	22
3413.65	23.5
3414.44	19
3415.22	22.5
3416	23.5
3416.79	26
3417.57	25
3418.35	24.5
3419.14	26
3419.92	25
3420.7	27
3421.48	27.5
3422.27	28
3423.05	24
3423.83	24.5
3424.61	26.5
3425.4	24
3426.18	23
3426.96	24
3427.74	21
3428.52	25.5
3429.3	29.5
3430.08	25
3430.87	23
3431.65	25
3432.43	22
3433.21	25.5
3433.99	22.5
3434.77	25.5
3435.55	18.5
3436.33	25
3437.11	23.5
3437.89	25.5
3438.67	22
3439.45	24
3440.23	22.5
3441.01	25
3441.79	23
3442.57	29.5
3443.35	27.5
3444.13	25
3444.91	22
3445.69	26
3446.47	24
3447.25	24
3448.03	21.5
3448.8	21.5
3449.58	24.5
3450.36	22.5
3451.14	23
3451.92	24
3452.7	23
3453.47	22
3454.25	22
3455.03	23.5
3455.81	25.5
3456.59	25.5
3457.36	25
3458.14	22.5
3458.92	26
3459.69	25.5
3460.47	22.5
3461.25	24
3462.03	25
3462.8	23
3463.58	22
3464.36	24
3465.13	26.5
3465.91	22
3466.69	24
3467.46	25
3468.24	20
3469.01	23
3469.79	24
3470.57	23.5
3471.34	26
3472.12	21
3472.89	22
3473.67	25
3474.44	24
3475.22	24.5
3475.99	25
3476.77	21
3477.54	23
3478.32	24.5
3479.09	24
3479.87	25
3480.64	23
3481.41	22
3482.19	25.5
3482.96	23
3483.74	25
3484.51	18.5
3485.28	23
3486.06	20
3486.83	24
3487.6	22.5
3488.38	26
3489.15	20
3489.92	23
3490.7	25.5
3491.47	28
3492.24	23.5
3493.01	26
3493.79	24.5
3494.56	23.5
3495.33	24
3496.1	24.5
3496.88	23
3497.65	26.5
3498.42	23
3499.19	18
3499.96	21
