#Acq. time (s)=	5
#Accumulations=	5
#Range (cm-ｹ)=	100...3500
#Windows=	4
#Autofocus=	Off
#AutoExposure=	Off
#Spike filter=	Multiple accum.
#Delay time (s)=	0
#Binning=	1
#Readout mode=	Signal
#DeNoise=	Off
#ICS correction=	Off
#Dark correction=	Off
#Inst. Process=	Off
#Instrument=	LabRAM HR Evol
#Detector=	Syncerity OE
#Objective=	x100_VIS
#Grating=	600 (500nm)
#ND Filter=	25%
#Laser=	633nm_Edge
#Hole=	100.021
#Range=	Visible
#Project=	verificaciones
#Sample=	at4
#Site=	plain
#Title=	bolusat4plain
#Remark=	com
#Date=	16.01.2026 18:10
#Acquired=	16.01.2026 18:10:36
100.564	29
101.847	30
103.131	30
104.414	31
105.697	28
106.979	26
108.262	30.5
109.544	33
110.826	32
112.109	29.5
113.391	32.5
114.672	29
115.954	30.5
117.235	28
118.515	32
119.796	31
121.076	27.5
122.357	28.5
123.637	35
124.916	27.5
126.196	30
127.475	34
128.754	35.5
130.033	33
131.31	35
132.589	35.5
133.867	33.5
135.145	36.5
136.423	33.5
137.701	37.5
138.978	33.5
140.256	30.5
141.533	37.5
142.809	38.5
144.086	38
145.361	37
146.637	40.5
147.913	37
149.189	40
150.464	40
151.74	38.5
153.014	41
154.288	40
155.563	41.5
156.838	41.5
158.112	36
159.385	38
160.659	43.5
161.932	41.5
163.206	38
164.479	39
165.751	43
167.024	37
168.296	37
169.567	40.5
170.84	34
172.112	39.5
173.383	38.5
174.654	39.5
175.925	34
177.196	38.5
178.466	39
179.737	42.5
181.007	38
182.276	41.5
183.546	36.5
184.816	44
186.085	37
187.354	43
188.624	38
189.891	42
191.16	39
192.427	39
193.696	40.5
194.964	35.5
196.231	42
197.499	40
198.765	40
200.033	36
201.298	36
202.566	36
203.831	39
205.098	33
206.363	33.5
207.629	37.5
208.894	36.5
210.159	35.5
211.424	33
212.689	34
213.953	35.5
215.218	33
216.481	31.5
217.746	36.5
219.009	38
220.273	29
221.536	28.5
222.798	32
224.062	31.5
225.323	32.5
226.587	32.5
227.848	29
229.109	29
230.372	33
231.633	34
232.894	29
234.156	31
235.416	34
236.678	30
237.937	32
239.197	33.5
240.457	29.5
241.717	31.5
242.976	31
244.235	30
245.495	31.5
246.754	30
248.012	25.5
249.27	29
250.529	29.5
251.787	32
253.045	28
254.302	31
255.56	30
256.817	32.5
258.074	29
259.33	28
260.586	28
261.844	32
263.1	30
264.355	25.5
265.611	26
266.866	30
268.121	28.5
269.377	27
270.632	28
271.886	29.5
273.14	28
274.394	30.5
275.648	25.5
276.902	26
278.155	30
279.408	26
280.663	32
281.915	31
283.168	26
284.42	28.5
285.673	28.5
286.925	31.5
288.176	33
289.428	30
290.679	33
291.93	29
293.181	30
294.432	27.5
295.683	28
296.933	25
298.183	29
299.433	29.5
300.683	28
301.932	30
303.182	28
304.429	30
305.678	32
306.927	27
308.176	29.5
309.424	30
310.672	29
311.92	25
313.168	29
314.415	28
315.661	28.5
316.908	28.5
318.155	28
319.402	28.5
320.648	25.5
321.895	27.5
323.139	26
324.385	28
325.631	24
326.877	32.5
328.122	30
329.366	27
330.611	29
331.855	25
333.1	25.5
334.343	29.5
335.587	27
336.831	29.5
338.074	26
339.317	29
340.56	29.5
341.803	28.5
343.044	30
344.287	27.5
345.53	26.5
346.771	33
348.013	29.5
349.255	26
350.495	28
351.736	26.5
352.978	27
354.217	30
355.458	28
356.699	26
357.938	28
359.178	27
360.417	27
361.657	23.5
362.895	25
364.135	26
365.374	26
366.612	28
367.851	31
369.088	24
370.327	31
371.564	27.5
372.802	30.5
374.038	26
375.276	28
376.512	28
377.749	29.5
378.985	30.5
380.222	26.5
381.457	29
382.692	29
383.929	27
385.164	25
386.4	23
387.634	30
388.869	24
390.103	28.5
391.337	24.5
392.572	28
393.805	28
395.038	26
396.273	29
397.506	24.5
398.74	29
399.972	25.5
401.204	28.5
402.437	27.5
403.669	28
404.901	28
406.132	28
407.365	28
408.596	29
409.826	25.5
411.058	28.5
412.289	28.5
413.519	26
414.749	29.5
415.98	34
417.21	32
418.439	25
419.668	25
420.897	25.5
422.128	28
423.356	26
424.585	26
425.813	25
427.041	26
428.269	28.5
429.498	25
430.725	24.5
431.952	29
433.179	24
434.406	29
435.633	27
436.859	27.5
438.085	26.5
439.312	28
440.537	28.5
441.764	26
442.99	25.5
444.215	28
445.44	28
446.665	29
447.89	30.5
449.114	30.5
450.339	28
451.563	27
452.787	26
454.01	26.5
455.234	30.5
456.457	27.5
457.68	27.5
458.903	26
460.126	27
461.348	28.5
462.569	31
463.792	30.5
465.013	32
466.235	31.5
467.457	31.5
468.678	31.5
469.899	30.5
471.12	33
472.341	34
473.56	33.5
474.781	34.5
476.001	36
477.221	39.5
478.441	38
479.66	43
480.878	47.5
482.098	46.5
483.317	48
484.535	54
485.754	55.5
486.971	54
488.189	55.5
489.407	58.5
490.625	59.5
491.842	53.5
493.059	52
494.276	55.5
495.493	47.5
496.709	50.5
497.926	48
499.142	43.5
500.357	39
501.573	42
502.789	36
504.003	43.5
505.219	40
506.434	37.5
507.648	39
508.863	31.5
510.078	39.5
511.291	37
512.505	31.5
513.718	32.5
514.932	35.5
516.145	37
517.358	31
518.572	30.5
519.783	32
520.997	33
522.208	30
523.421	31
524.632	32
525.844	31
527.055	30.5
528.266	29.5
529.477	31
530.688	27
531.898	28
533.109	25
534.319	28
535.53	25.5
536.739	29
537.948	33
539.158	32.5
540.366	29.5
541.576	28
542.784	28
543.994	27
545.201	28.5
546.409	30
547.618	29.5
548.825	30.5
550.032	32.5
551.24	32
552.447	29.5
553.654	29
554.861	28
556.067	28.5
557.273	24
558.48	26
559.686	29.5
560.891	29
562.096	28.5
563.302	28.5
564.507	30
565.712	27
566.916	29
568.122	24.5
569.326	33
570.529	28.5
571.733	29.5
572.936	25.5
574.141	28
575.344	27
576.547	30
577.75	32
578.952	27
580.154	29
581.358	26
582.56	28
583.761	27
584.963	23
586.164	27.5
587.365	25
588.566	27.5
589.767	25
590.967	29.5
592.168	24.5
593.369	28
594.569	28.5
595.769	28.5
596.969	28
598.168	26.5
599.367	26
600.566	27
601.765	26
602.964	26.5
604.162	28
605.361	24.5
606.559	29
607.757	26
608.953	29
610.151	29.5
611.348	27
612.545	30.5
613.742	31.5
614.939	28.5
616.135	29.5
617.332	31
618.528	29
619.724	32
620.918	29
622.114	28
623.309	30
624.505	30.5
625.7	29.5
626.895	25.5
628.088	29
629.282	29
630.477	25
631.671	28.5
632.865	28.5
634.057	26
635.251	28
636.444	30
637.637	23.5
638.829	34.5
640.022	27
641.214	30
642.407	31.5
643.598	32
644.79	32
645.982	29
647.172	28
648.364	29
649.555	24.5
650.745	29.5
651.936	32.5
653.126	27
654.315	31.5
655.506	24
656.696	29
657.885	27
659.074	28
660.263	26.5
661.452	29
662.64	30.5
663.829	28
665.018	31
666.205	30.5
667.394	31.5
668.581	31
669.769	27
670.955	28
672.143	34
673.329	33
674.517	28
675.703	30
676.89	32.5
678.075	24
679.262	29
680.447	33
681.632	35
682.818	33.5
684.002	35
685.188	37
686.372	30
687.556	39
688.741	33.5
689.925	34.5
691.11	35
692.293	35.5
693.476	31.5
694.66	38.5
695.843	33
697.025	34.5
698.209	34
699.391	37.5
700.573	37.5
701.756	35.5
702.938	41
704.119	42
705.3	39.5
706.483	43
707.664	45
708.844	53.5
710.025	50
711.206	43.5
712.386	40.5
713.566	40
714.746	32.5
715.925	35
717.106	30.5
718.285	31.5
719.464	32
720.643	32
721.822	31
723	29
724.178	30
725.358	31.5
726.536	30.5
727.713	27
728.891	28.5
730.068	28.5
731.245	27.5
732.422	31
733.599	26.5
734.775	28
735.952	23.5
737.128	29
738.304	29.5
739.48	29
740.656	30.5
741.831	28
743.006	28
744.181	24.5
745.356	27
746.531	29.5
747.706	29
748.88	30
750.054	26
751.228	30
752.402	31
753.576	25
754.749	31.5
755.922	27
757.095	30
758.267	26.5
759.44	27.5
760.612	28
761.785	22.5
762.957	24.5
764.129	29.5
765.301	25
766.471	27
767.642	26
768.814	30
769.985	27
771.156	29
772.325	28.5
773.495	26
774.666	26
775.836	28
777.005	28
778.174	29
779.344	27
780.513	32.5
781.681	31.5
782.85	34
784.019	30
785.187	31
786.355	31
787.523	31
788.69	28.5
789.858	32.5
791.026	33
792.192	28.5
793.36	27
794.526	29.5
795.693	29
796.86	29.5
798.025	31.5
799.191	31
800.356	28.5
801.523	29
802.689	28.5
803.853	26
805.019	29.5
806.183	31
807.348	26
808.512	30
809.677	25.5
810.84	29.5
812.005	26
813.167	31
814.332	26.5
815.494	30
816.657	32
817.82	22
818.982	29.5
820.146	28
821.307	28
822.47	26
823.632	27.5
824.793	27
825.955	26
827.116	29
828.277	29
829.439	25.5
830.599	31.5
831.759	25.5
832.92	28.5
834.08	26
835.24	26
836.4	31
837.56	29.5
838.719	25
839.877	28.5
841.037	27
842.196	26.5
843.354	27.5
844.512	28
845.672	27
846.83	28.5
847.987	28.5
849.145	29
850.302	25
851.46	27
852.617	31
853.774	28
854.93	28
856.087	27
857.243	27
858.4	27
859.556	27.5
860.712	29
861.867	30
863.022	30
864.177	29
865.332	29
866.487	30
867.642	26.5
868.796	32
869.95	23.5
871.104	29.5
872.258	29
873.412	26.5
874.565	26
875.718	25
876.872	25.5
878.024	27
879.177	28
880.33	27
881.482	28
882.635	26.5
883.787	25.5
884.938	26.5
886.09	22.5
887.242	28.5
888.393	27
889.544	31
890.695	23.5
891.845	22.5
892.995	29
894.146	27
895.296	26
896.446	29.5
897.596	21
898.744	31
899.894	29.5
901.043	24.5
902.193	29
903.342	28
904.489	27
905.638	26
906.786	25
907.935	30
909.081	28
910.229	27.5
911.377	26
912.525	28
913.671	25.5
914.818	26
915.965	24.5
917.111	20
918.258	27
919.404	23
920.549	28
921.695	24
922.84	27
923.986	26.5
925.132	27
926.276	29
927.421	27.5
928.565	28
929.71	30
930.855	24
931.998	25.5
933.142	25
934.285	27.5
935.429	26
936.572	25
937.716	27.5
938.858	26
940.001	29
941.143	24.5
942.286	27
943.428	25.5
944.57	29.5
945.712	28
946.854	25.5
947.995	28.5
949.135	25.5
950.277	25
951.418	26
952.559	23
953.699	29
954.839	27
955.98	26
957.119	25
958.258	29
959.399	24
960.538	26.5
961.676	22
962.816	24.5
963.955	23
965.093	24.5
966.232	25.5
967.37	24.5
968.508	25.5
969.645	26.5
970.784	27
971.921	27
973.058	28
974.195	25
975.333	26.5
976.469	31
977.605	26
978.741	26.5
979.877	26
981.013	24
982.15	32.5
983.285	27
984.421	27
985.556	23
986.691	26
987.825	26.5
988.96	27.5
990.094	26
991.228	25.5
992.364	24.5
993.497	26.5
994.631	26
995.765	26
996.898	24
998.031	25
999.164	24.5
1000.3	27
1001.43	29.5
1002.56	26.5
1003.69	25.5
1004.83	25
1005.96	23
1007.09	26
1008.22	27
1009.35	27
1010.48	29
1011.61	27
1012.74	22
1013.88	26
1015.01	24
1016.14	22.5
1017.27	21.5
1018.4	26.5
1019.53	24
1020.65	27
1021.78	30
1022.91	26.5
1024.04	25
1025.17	23
1026.3	24.5
1027.43	24.5
1028.56	28
1029.68	22
1030.81	24.5
1031.94	29
1033.07	25.5
1034.19	29
1035.32	27
1036.45	26
1037.58	28
1038.7	27
1039.83	24
1040.95	26
1042.08	23.5
1043.21	27.5
1044.33	25.5
1045.46	25
1046.58	25.5
1047.71	26.5
1048.83	28
1049.96	25.5
1051.08	25.5
1052.21	25
1053.33	28
1054.45	21
1055.58	29
1056.7	25
1057.82	25
1058.95	28.5
1060.07	25
1061.19	19
1062.32	27
1063.44	20.5
1064.56	25.5
1065.68	30
1066.81	24.5
1067.93	21.5
1069.05	25.5
1070.17	27
1071.29	19
1072.41	24.5
1073.53	23
1074.65	24
1075.77	25
1076.89	26.5
1078.01	24
1079.13	26
1080.25	24
1081.37	26
1082.49	25
1083.61	19
1084.73	23.5
1085.85	27.5
1086.97	24
1088.09	22.5
1089.2	19
1090.32	26
1091.44	19.5
1092.56	22
1093.68	23.5
1094.79	24
1095.91	28
1097.03	28.5
1098.14	25.5
1099.26	24.5
1100.38	27
1101.49	22.5
1102.61	25
1103.73	27.5
1104.84	18.5
1105.96	27.5
1107.07	26.5
1108.19	26
1109.3	22.5
1110.42	22
1111.53	28
1112.65	25
1113.76	28
1114.88	23.5
1115.99	23
1117.1	23.5
1118.22	29.5
1119.33	23.5
1120.44	25.5
1121.56	24.5
1122.67	22
1123.78	25.5
1124.89	24
1126.01	24.5
1127.12	25
1128.23	26.5
1129.34	23
1130.45	25
1131.56	27.5
1132.67	27.5
1133.79	21
1134.9	23.5
1136.01	23.5
1137.12	23
1138.23	25.5
1139.34	25
1140.45	28.5
1141.56	25.5
1142.67	26.5
1143.78	27
1144.89	24
1145.99	27
1147.1	24
1148.21	25.5
1149.32	25
1150.43	29
1151.54	24.5
1152.65	25.5
1153.75	25.5
1154.86	23.5
1155.97	26
1157.08	27
1158.18	30
1159.29	24.5
1160.4	27.5
1161.5	21
1162.61	26
1163.72	23.5
1164.82	28
1165.93	21
1167.03	26
1168.14	25
1169.24	27
1170.35	26.5
1171.45	24
1172.56	24.5
1173.66	25
1174.77	23
1175.87	23.5
1176.98	22
1178.08	24
1179.18	24
1180.29	26
1181.39	21.5
1182.49	23
1183.6	24
1184.7	26.5
1185.8	24.5
1186.9	22
1188	23.5
1189.11	26.5
1190.21	28
1191.31	24.5
1192.41	21.5
1193.51	29
1194.61	23.9854
1195.72	26.4254
1196.82	25.4636
1197.92	24.4889
1199.02	26.4539
1200.12	26.8649
1201.22	24.6909
1202.32	26.5737
1203.42	28.0427
1204.52	23.3873
1205.62	25.7667
1206.71	21.4144
1207.81	24.8267
1208.91	26.6635
1210.01	24.3682
1211.11	24.5
1212.21	21.5267
1213.31	20.126
1214.4	25.8981
1215.5	23.1893
1216.6	23.9864
1217.7	24.3676
1218.79	26.4655
1219.89	25.0421
1220.99	24.3417
1222.08	22.5049
1223.18	23.6018
1224.28	20.6679
1225.37	27.615
1226.47	24.7136
1227.56	22.8582
1228.66	24.9386
1229.76	25.6919
1230.85	23.7145
1231.95	22.4945
1233.04	23.491
1234.14	24.0075
1235.23	21.6298
1236.32	23.1792
1237.42	25.1223
1238.51	24.2919
1239.61	24.7174
1240.7	24.7173
1241.79	24.8018
1242.89	23.8871
1243.98	24.6449
1245.07	25.6848
1246.17	24.1749
1247.26	26.241
1248.35	24.2713
1249.44	26.6743
1250.53	24.3174
1251.63	24.0196
1252.72	22.6231
1253.81	22.3725
1254.9	26.405
1255.99	25.1352
1257.08	26.4417
1258.17	23.9284
1259.27	24.5889
1260.36	24.9066
1261.45	25.4029
1262.54	26.7954
1263.63	24.512
1264.72	26.7117
1265.81	27.3259
1266.89	26.2597
1267.98	22.9371
1269.07	21.8336
1270.16	24.619
1271.25	22.4243
1272.34	24.3028
1273.43	27.8971
1274.52	24.7329
1275.6	23.8356
1276.69	23.9719
1277.78	26.7599
1278.87	25.8835
1279.95	26.1683
1281.04	25.376
1282.13	24.9018
1283.22	22.7885
1284.3	23.2985
1285.39	23.284
1286.48	23.3246
1287.56	23.8717
1288.65	25.1795
1289.73	24.3722
1290.82	25.5826
1291.9	22.4895
1292.99	22.0686
1294.07	24.6972
1295.16	23.6339
1296.24	23.0698
1297.33	24.653
1298.41	23.275
1299.5	22.7209
1300.58	24.0867
1301.66	23.1682
1302.75	22.7119
1303.83	22.4688
1304.91	22.3291
1306	23.1289
1306.4	23.5
1307.48	23.5
1308.57	25
1309.66	24.5
1310.75	25.5
1311.84	23
1312.92	25
1314.01	25
1315.1	23.5
1316.18	26
1317.27	22.5
1318.36	19.5
1319.44	21
1320.53	23.5
1321.62	23.5
1322.7	26.5
1323.79	26
1324.87	22.5
1325.96	23
1327.04	23.5
1328.13	25
1329.21	22
1330.3	27
1331.38	26.5
1332.47	23.5
1333.55	26
1334.64	21
1335.72	26.5
1336.8	21.5
1337.89	26.5
1338.97	29
1340.05	25
1341.14	22.5
1342.22	28
1343.3	25
1344.38	19.5
1345.47	22.5
1346.55	22.5
1347.63	26.5
1348.71	22.5
1349.79	24.5
1350.87	25
1351.96	27
1353.04	24.5
1354.12	26
1355.2	23.5
1356.28	26
1357.36	21
1358.44	24.5
1359.52	25
1360.6	27.5
1361.68	23.5
1362.76	23.5
1363.84	24
1364.92	24
1366	20
1367.07	26.5
1368.15	23.5
1369.23	26
1370.31	27.5
1371.39	26.5
1372.47	23
1373.54	26.5
1374.62	25
1375.7	26.5
1376.78	28
1377.85	28
1378.93	24.5
1380.01	22
1381.08	21
1382.16	26
1383.24	27
1384.31	20.5
1385.39	28
1386.46	24
1387.54	26
1388.61	24
1389.69	26.5
1390.76	23.5
1391.84	27
1392.91	28
1393.99	24
1395.06	25
1396.14	26.5
1397.21	26.5
1398.29	28
1399.36	32
1400.43	31
1401.51	26.5
1402.58	32
1403.65	30.5
1404.72	30
1405.8	29
1406.87	31.5
1407.94	24
1409.02	31
1410.09	24.5
1411.16	31.5
1412.23	33.5
1413.3	33
1414.37	27
1415.44	31.5
1416.51	26
1417.59	34
1418.66	31
1419.73	27.5
1420.8	25.5
1421.87	25
1422.94	25.5
1424.01	26
1425.08	28
1426.15	24.5
1427.22	24
1428.28	28.5
1429.35	30
1430.42	26
1431.49	25.5
1432.56	21.5
1433.63	28.5
1434.7	25.5
1435.76	25.5
1436.83	26
1437.9	28.5
1438.97	24.5
1440.03	28
1441.1	28.5
1442.17	26.5
1443.23	27
1444.3	26
1445.37	21.5
1446.43	28
1447.5	25
1448.57	23.5
1449.63	24
1450.7	25.5
1451.76	23.5
1452.83	24.5
1453.89	27.5
1454.96	26
1456.02	27
1457.09	28
1458.15	24.5
1459.22	26
1460.28	25
1461.34	23
1462.41	23
1463.47	24
1464.53	26.5
1465.6	27.5
1466.66	27
1467.72	30.5
1468.78	24
1469.85	29
1470.91	23
1471.97	24.5
1473.03	27
1474.1	25.5
1475.16	23
1476.22	27
1477.28	22
1478.34	26
1479.4	24
1480.46	25.5
1481.52	24
1482.58	24.5
1483.65	30
1484.71	26.5
1485.77	26.5
1486.82	28
1487.89	28.5
1488.94	25
1490	29
1491.06	27
1492.12	25
1493.18	22
1494.24	26
1495.3	26.5
1496.36	23.5
1497.41	23.5
1498.47	28.5
1499.53	32
1500.59	26
1501.65	26.5
1502.7	25
1503.76	27.5
1504.82	23.5
1505.87	26
1506.93	24
1507.99	26
1509.04	25
1510.1	26
1511.16	21.5
1512.21	27.5
1513.27	26
1514.32	27.5
1515.38	26
1516.43	22
1517.49	24.5
1518.54	26
1519.6	21
1520.65	25.5
1521.71	28
1522.76	29
1523.81	23.5
1524.87	28.5
1525.92	26
1526.98	22
1528.03	26.5
1529.08	24.5
1530.14	26.5
1531.19	26.5
1532.24	28
1533.29	25.5
1534.35	25
1535.4	22
1536.45	28.5
1537.5	21
1538.55	23.5
1539.61	25
1540.66	27
1541.71	25
1542.76	24.5
1543.81	27
1544.86	24
1545.91	24.5
1546.96	26
1548.01	28
1549.06	25
1550.11	25
1551.16	25
1552.21	26
1553.26	28.5
1554.31	23
1555.36	26.5
1556.41	28
1557.46	27.5
1558.5	26
1559.55	28
1560.6	26.5
1561.65	30.5
1562.7	26
1563.74	22.5
1564.79	27
1565.84	24.5
1566.89	25
1567.93	24.5
1568.98	27
1570.03	25.5
1571.07	24.5
1572.12	28.5
1573.17	23
1574.21	29.5
1575.26	22.5
1576.3	24
1577.35	25.5
1578.4	23
1579.44	24.5
1580.49	24.5
1581.53	23
1582.58	25
1583.62	24
1584.66	28
1585.71	27
1586.75	25.5
1587.8	25
1588.84	24
1589.88	25.5
1590.93	21.5
1591.97	27
1593.01	29
1594.06	19.5
1595.1	31
1596.14	21.5
1597.18	24.5
1598.23	23.5
1599.27	25
1600.31	25.5
1601.35	26.5
1602.39	23
1603.44	23
1604.48	23.5
1605.52	23.5
1606.56	27.5
1607.6	23.5
1608.64	25
1609.68	25.5
1610.72	27
1611.76	27.5
1612.8	25.5
1613.84	22.5
1614.88	26.5
1615.92	26.5
1616.96	22.5
1618	26.5
1619.04	22
1620.08	23.5
1621.12	26
1622.16	25
1623.19	25.5
1624.23	24.5
1625.27	25.5
1626.31	24.5
1627.35	27.5
1628.38	29
1629.42	25.5
1630.46	26
1631.49	23.5
1632.53	22.5
1633.57	27.5
1634.6	22
1635.64	22.5
1636.68	25
1637.71	25
1638.75	28.5
1639.79	24.5
1640.82	27
1641.86	27
1642.89	25
1643.93	28
1644.96	22.5
1646	27
1647.03	24
1648.07	26.5
1649.1	24
1650.13	29.5
1651.17	26.5
1652.2	24.5
1653.24	24.5
1654.27	23
1655.3	27.5
1656.34	22
1657.37	24
1658.4	28.5
1659.43	25
1660.47	27.5
1661.5	27.5
1662.53	25.5
1663.56	25.5
1664.6	23.5
1665.63	23.5
1666.66	23.5
1667.69	26
1668.72	19.5
1669.75	26.5
1670.78	24
1671.81	28.5
1672.85	24.5
1673.88	26.5
1674.91	24.5
1675.94	26
1676.97	25
1678	23
1679.03	25
1680.06	24
1681.09	23
1682.11	24.5
1683.14	24
1684.17	21.5
1685.2	26
1686.23	24
1687.26	23.5
1688.29	26
1689.31	28.5
1690.34	25.5
1691.37	26
1692.4	23.5
1693.42	27
1694.45	25.5
1695.48	23
1696.51	26.5
1697.53	24.5
1698.56	25
1699.59	21.5
1700.61	23.5
1701.64	22
1702.66	22
1703.69	25.5
1704.72	27
1705.74	22
1706.77	25
1707.79	27
1708.82	26
1709.84	23.5
1710.87	25.5
1711.89	23.5
1712.91	24
1713.94	26.5
1714.96	27.5
1715.99	24.5
1717.01	26
1718.03	25
1719.06	26
1720.08	26
1721.1	25
1722.13	25.5
1723.15	28
1724.17	25.5
1725.19	26.5
1726.22	26.5
1727.24	21
1728.26	26
1729.28	25.5
1730.3	22
1731.33	23
1732.35	26
1733.37	23.5
1734.39	26.5
1735.41	23
1736.43	24.5
1737.45	27
1738.47	26
1739.49	26
1740.51	27
1741.53	27
1742.55	25.5
1743.57	26
1744.59	26.5
1745.61	28.5
1746.63	23.5
1747.65	24
1748.67	25
1749.69	19
1750.7	24
1751.72	26.5
1752.74	23.5
1753.76	24
1754.78	24.5
1755.79	26
1756.81	27
1757.83	26.5
1758.85	24.5
1759.86	26.5
1760.88	25.5
1761.9	21
1762.91	24.5
1763.93	26.5
1764.95	28
1765.96	22.5
1766.98	25
1767.99	26
1769.01	25.5
1770.02	25.5
1771.04	25.5
1772.06	21.5
1773.07	25
1774.09	25
1775.1	24
1776.11	23.5
1777.13	23
1778.14	26
1779.16	26
1780.17	29.5
1781.18	28.5
1782.2	20
1783.21	25
1784.22	25.5
1785.24	28
1786.25	26
1787.26	29
1788.28	25
1789.29	24
1790.3	22
1791.31	24.5
1792.33	25
1793.34	24
1794.35	23.5
1795.36	24
1796.37	25
1797.38	27.5
1798.39	27
1799.4	24
1800.42	20
1801.43	19.5
1802.44	27.5
1803.45	23.5
1804.46	25.5
1805.47	21.5
1806.48	25.5
1807.49	22.5
1808.5	28.5
1809.51	27.5
1810.51	27
1811.52	25
1812.53	27
1813.54	25.5
1814.55	23.5
1815.56	23
1816.57	25
1817.57	24
1818.58	28
1819.59	24.5
1820.6	26
1821.61	22.5
1822.61	24
1823.62	26
1824.63	25.5
1825.63	25.5
1826.64	24.5
1827.65	25
1828.65	23
1829.66	25.5
1830.67	22.5
1831.67	29
1832.68	24
1833.68	27.5
1834.69	25.5
1835.69	26.5
1836.7	25
1837.7	23
1838.71	21
1839.71	20.5
1840.72	21
1841.72	25
1842.73	24
1843.73	24
1844.73	26
1845.74	23.5
1846.74	24.5
1847.74	24.5
1848.75	23.5
1849.75	29
1850.75	25.5
1851.76	26
1852.76	26
1853.76	24
1854.76	25
1855.77	25
1856.77	23.5
1857.77	24
1858.77	21.5
1859.77	27
1860.77	26
1861.78	26.5
1862.78	22.5
1863.78	23.5
1864.78	25
1865.78	23.5
1866.78	22.5
1867.78	22.5
1868.78	26.5
1869.78	24.5
1870.78	25
1871.78	23
1872.78	27
1873.78	25.5
1874.78	25
1875.78	25
1876.78	26
1877.78	25
1878.77	25
1879.77	22.5
1880.77	27
1881.77	26.5
1882.77	26.5
1883.77	26.5
1884.76	28
1885.76	24
1886.76	23.5
1887.75	25.5
1888.75	27
1889.75	24
1890.75	23.5
1891.74	22
1892.74	26
1893.73	29
1894.73	24.5
1895.73	26
1896.72	24.5
1897.72	22.5
1898.71	25
1899.71	24
1900.7	19
1901.7	23.5
1902.69	22.5
1903.69	30
1904.68	23
1905.68	25.5
1906.67	26.5
1907.67	26.5
1908.66	25.5
1909.65	26
1910.65	23
1911.64	23
1912.63	23
1913.63	26
1914.62	21
1915.61	24
1916.61	22.5
1917.6	26
1918.59	25
1919.58	25
1920.58	25.5
1921.57	24
1922.56	26.5
1923.55	23
1924.54	24
1925.54	26
1926.53	27
1927.52	25
1928.51	18.5
1929.5	23.5
1930.49	23
1931.48	24
1932.47	23.5
1933.46	24
1934.45	21
1935.44	26.5
1936.43	23
1937.42	22
1938.41	27
1939.4	20
1940.39	26
1941.38	26
1942.37	25.5
1943.35	22
1944.34	26.5
1945.33	25.5
1946.32	26
1947.31	23.5
1948.3	22.75
1949.28	20
1950.27	23
1951.26	24
1952.25	19.5
1953.23	27.5
1954.22	26
1955.21	23.5
1956.19	25
1957.18	23.5
1958.17	24.5
1959.15	25.5
1960.14	27
1961.12	21
1962.11	24.5
1963.1	27
1964.08	26.5
1965.07	23.5
1966.05	24
1967.04	25.5
1968.02	29
1969.01	22
1969.99	24.5
1970.98	25
1971.96	23
1972.94	25.5
1973.93	22.5
1974.91	25
1975.9	24.5
1976.88	22
1977.86	25.5
1978.85	23
1979.83	22.5
1980.81	27.5
1981.79	28
1982.78	27.5
1983.76	25.5
1984.74	25
1985.72	24
1986.71	22
1987.69	25
1988.67	27.5
1989.65	29
1990.63	23.5
1991.61	26
1992.59	25
1993.57	26
1994.56	26.5
1995.54	22.5
1996.52	27
1997.5	23
1998.48	24
1999.46	23
2000.44	23.5
2001.42	23.5
2002.4	22.5
2003.38	24.5
2004.36	23.5
2005.33	21
2006.31	28
2007.29	24
2008.27	19
2009.25	22.5
2010.23	24
2011.21	28
2012.18	22.5
2013.16	27.5
2014.14	27
2015.12	20
2016.09	21
2017.07	25
2018.05	23.5
2019.03	25.5
2020	23
2020.98	23.5
2021.96	22.5
2022.93	22
2023.91	22.5
2024.89	25.5
2025.86	26
2026.84	23.5
2027.81	26.5
2028.79	22
2029.76	24.5
2030.74	27
2031.71	21.5
2032.69	26.5
2033.66	26.5
2034.64	23
2035.61	22
2036.59	26
2037.56	21
2038.54	25
2039.51	25
2040.48	29
2041.46	26
2042.43	25
2043.4	25.5
2044.38	22
2045.35	26
2046.32	20.5
2047.29	21
2048.27	22
2049.24	26
2050.21	26
2051.18	24
2052.16	22
2053.13	24.5
2054.1	25.5
2055.07	23.5
2056.04	25.5
2057.01	21.5
2057.98	21
2058.96	27.5
2059.93	20.5
2060.9	25
2061.87	23.5
2062.84	21
2063.81	18.5
2064.78	23
2065.75	25
2066.72	23.5
2067.69	22.5
2068.66	24.5
2069.63	25
2070.6	24.5
2071.56	21.5
2072.53	28.5
2073.5	22
2074.47	23.5
2075.44	25.5
2076.41	27
2077.38	24.5
2078.34	26.5
2079.31	23.5
2080.28	22.5
2081.25	24
2082.21	18.5
2083.18	24.5
2084.15	25.5
2085.11	23
2086.08	20
2087.05	25
2088.01	22
2088.98	22.5
2089.95	26
2090.91	21
2091.88	20
2092.84	23
2093.81	22.5
2094.78	27
2095.74	22.5
2096.71	26
2097.67	21
2098.64	24.5
2099.6	26.5
2100.57	23
2101.53	22
2102.49	21.5
2103.46	23
2104.42	23
2105.39	22
2106.35	24.5
2107.31	23.5
2108.28	24
2109.24	24.5
2110.2	24
2111.17	24
2112.13	26
2113.09	22.5
2114.05	25
2115.02	19
2115.98	24
2116.94	26
2117.9	22
2118.86	22
2119.83	25
2120.79	29.5
2121.75	23.5
2122.71	24.5
2123.67	20
2124.63	24.5
2125.59	23.5
2126.55	22.5
2127.51	28
2128.47	21.5
2129.43	21
2130.39	18.5
2131.35	20
2132.31	24
2133.27	25
2134.23	20.5
2135.19	22
2136.15	23.5
2137.11	22
2138.07	22
2139.03	25
2139.99	21
2140.94	23
2141.9	23
2142.86	19.0102
2143.82	23.4517
2144.78	22.5283
2145.73	23.1031
2146.69	23.9763
2147.65	18.6896
2148.61	25.0938
2149.56	23.9698
2150.52	23.7804
2151.48	21.8401
2152.43	23.0872
2153.39	21.0954
2154.35	21.4393
2155.3	23.6336
2156.26	22.0334
2157.21	23.1146
2158.17	22.272
2159.13	21.8658
2160.08	21.1202
2161.04	22.49
2161.99	20.8386
2162.95	23.8901
2163.9	21.3239
2164.86	22.5169
2165.81	19.9723
2166.77	21.8393
2167.72	21.3927
2168.67	23.7425
2169.63	24.6983
2170.58	25.3544
2171.54	21.4515
2172.49	23.7011
2173.44	21.4403
2174.4	23.3777
2175.35	23.8101
2176.3	23.1295
2177.26	21.0968
2178.21	23.0747
2179.16	23.9845
2180.11	21.9569
2181.07	22.5005
2182.02	24.7938
2182.97	20.6967
2183.92	22.4337
2184.87	21.1389
2185.82	21.3369
2186.78	24.0107
2187.73	21.3124
2188.68	25.0095
2189.63	21.3568
2190.58	23.9127
2191.53	22.3493
2192.48	21.9709
2193.43	20.2559
2194.38	23.5325
2195.33	23.4837
2196.28	23.5878
2197.23	21.7266
2198.18	21.7457
2199.13	20.2544
2200.08	23.2627
2201.03	21.8554
2201.98	22.3549
2202.93	22.6034
2203.88	21.6869
2204.83	22.7131
2205.77	22.9678
2206.72	23.7709
2207.67	25.1086
2208.62	25.4501
2209.57	23.5515
2210.52	23.264
2211.46	21.9375
2212.41	22.2448
2213.36	22.2643
2214.31	22.6012
2215.25	24.2943
2216.2	20.7689
2217.15	23.1633
2218.09	22.699
2219.04	24.2977
2219.99	23.479
2220.93	20.9185
2221.88	20.8836
2222.82	22.085
2223.77	23.1488
2224.72	23.4198
2225.66	24.2868
2226.61	23.4271
2227.55	22.8062
2228.5	22.682
2229.44	20.6978
2230.39	21.1891
2231.33	23.893
2232.28	21.4837
2233.22	21.2731
2234.16	20.4063
2235.11	23.4718
2236.05	24.069
2237	24.502
2237.94	23.4594
2238.88	21.9889
2239.83	19.8013
2240.13	19
2241.08	21
2242.03	24.5
2242.98	19.5
2243.92	24.5
2244.87	25
2245.82	21
2246.76	21.5
2247.71	21
2248.66	24.5
2249.61	22.5
2250.55	21.5
2251.5	21.5
2252.45	23.5
2253.39	24.5
2254.34	21
2255.28	21.5
2256.23	24
2257.18	23.5
2258.12	25
2259.07	23
2260.01	24
2260.96	24.5
2261.9	22
2262.85	25
2263.79	21.5
2264.74	22.5
2265.68	22
2266.63	25.5
2267.57	24
2268.51	24
2269.46	26.5
2270.4	24
2271.35	24.5
2272.29	22
2273.23	21.5
2274.18	23
2275.12	20
2276.06	20
2277	24.5
2277.95	17
2278.89	23
2279.83	21.5
2280.78	22
2281.72	24.5
2282.66	24.5
2283.6	23.5
2284.54	28
2285.48	20
2286.43	22
2287.37	19
2288.31	27
2289.25	24.5
2290.19	24.5
2291.13	22.5
2292.07	21
2293.01	22.5
2293.95	26
2294.89	18
2295.83	26
2296.77	24
2297.71	25
2298.65	23
2299.59	20
2300.53	22
2301.47	20
2302.41	23.5
2303.35	23.5
2304.29	23.5
2305.22	23
2306.16	23.5
2307.1	19
2308.04	24
2308.98	24
2309.91	24.5
2310.85	23
2311.79	24
2312.73	23.5
2313.66	20.5
2314.6	24
2315.54	22
2316.48	23
2317.41	23
2318.35	19.5
2319.29	23
2320.22	26
2321.16	25.5
2322.09	22
2323.03	24
2323.97	21
2324.9	18.5
2325.84	22
2326.77	23.5
2327.71	23
2328.64	23
2329.58	25
2330.51	24
2331.45	23
2332.38	21.5
2333.32	22
2334.25	25
2335.18	21.5
2336.12	20
2337.05	22.5
2337.99	24.5
2338.92	22
2339.85	23
2340.79	21.5
2341.72	23.5
2342.65	20
2343.59	26
2344.52	23.5
2345.45	23
2346.38	24.5
2347.32	27.5
2348.25	24
2349.18	25.5
2350.11	25.5
2351.04	23
2351.98	21.5
2352.91	24.5
2353.84	24
2354.77	22
2355.7	22
2356.63	22.5
2357.56	24
2358.49	23
2359.42	21.5
2360.35	24
2361.28	27.5
2362.21	19.5
2363.14	25
2364.07	23.5
2365	25.5
2365.93	26.5
2366.86	25
2367.79	26.5
2368.72	22
2369.65	20
2370.58	24.5
2371.51	20.5
2372.44	22
2373.36	22.5
2374.29	23.5
2375.22	25
2376.15	23.5
2377.08	23.5
2378	24
2378.93	20
2379.86	28
2380.79	19
2381.71	22.5
2382.64	21
2383.57	22
2384.49	27.5
2385.42	23.5
2386.35	22.5
2387.27	25
2388.2	21.5
2389.13	23
2390.05	18
2390.98	26
2391.9	21
2392.83	26
2393.76	23.5
2394.68	27.5
2395.61	25.5
2396.53	21
2397.46	25.5
2398.38	26.5
2399.3	21
2400.23	25
2401.15	24
2402.08	24.5
2403	23.5
2403.93	20.5
2404.85	25.5
2405.77	27.5
2406.7	24.5
2407.62	22.5
2408.54	22
2409.47	24
2410.39	24
2411.31	22.5
2412.24	23
2413.16	24
2414.08	23.5
2415	21.5
2415.92	24
2416.85	23.5
2417.77	23
2418.69	26.5
2419.61	23.5
2420.53	24.5
2421.45	20
2422.38	25
2423.3	27.5
2424.22	23.5
2425.14	24
2426.06	25.5
2426.98	25
2427.9	20
2428.82	28
2429.74	25
2430.66	21
2431.58	25
2432.5	21.5
2433.42	24.5
2434.34	22
2435.26	27
2436.18	24
2437.1	22.5
2438.01	26.5
2438.93	25.5
2439.85	25
2440.77	27.5
2441.69	23
2442.61	25
2443.52	25
2444.44	23.5
2445.36	24.5
2446.28	22
2447.2	23.5
2448.11	22.5
2449.03	22
2449.95	27
2450.86	23.5
2451.78	25
2452.7	21
2453.61	25.5
2454.53	23
2455.45	24
2456.36	23
2457.28	24
2458.2	25
2459.11	23
2460.03	25.5
2460.94	27.5
2461.86	23
2462.77	23.5
2463.69	28.5
2464.6	22
2465.52	23.5
2466.43	23
2467.35	22
2468.26	26.5
2469.18	25.5
2470.09	23
2471	27.5
2471.92	20
2472.83	19.5
2473.74	24
2474.66	20.5
2475.57	26.5
2476.48	27.5
2477.4	25.5
2478.31	24
2479.22	26
2480.14	23
2481.05	25
2481.96	21
2482.87	27
2483.79	21
2484.7	24
2485.61	25.5
2486.52	24
2487.43	25.5
2488.34	24
2489.25	22.5
2490.17	25
2491.08	24
2491.99	26
2492.9	25
2493.81	23
2494.72	25
2495.63	26.5
2496.54	28
2497.45	27
2498.36	25.5
2499.27	23
2500.18	24.5
2501.09	28.5
2502	27
2502.91	26
2503.82	24.5
2504.73	20
2505.63	23.5
2506.54	22.5
2507.45	26.5
2508.36	22.5
2509.27	24
2510.18	23.5
2511.09	28
2511.99	29
2512.9	25
2513.81	23
2514.72	23
2515.62	21
2516.53	24
2517.44	23.5
2518.34	23.5
2519.25	27
2520.16	26
2521.06	23.5
2521.97	24
2522.88	23
2523.78	24.5
2524.69	25
2525.6	24.5
2526.5	24
2527.41	23
2528.31	24.5
2529.22	25.5
2530.12	22
2531.03	24
2531.93	26.5
2532.84	26.5
2533.74	23.5
2534.65	19.5
2535.55	22
2536.46	25
2537.36	23.5
2538.27	26.5
2539.17	28.5
2540.07	22.5
2540.98	18
2541.88	26.5
2542.78	26.5
2543.69	22.5
2544.59	24
2545.49	23.5
2546.4	23.5
2547.3	25
2548.2	24
2549.1	24.5
2550.01	25
2550.91	24
2551.81	23
2552.71	17
2553.61	26
2554.52	25.5
2555.42	22
2556.32	26.5
2557.22	25
2558.12	23.5
2559.02	22
2559.92	26.5
2560.82	25.5
2561.72	23.5
2562.62	25
2563.53	26.5
2564.43	21
2565.33	25
2566.23	23
2567.13	25.5
2568.03	24
2568.92	23
2569.82	24.5
2570.72	25.5
2571.62	23.5
2572.52	25
2573.42	23
2574.32	26
2575.22	20
2576.12	24
2577.02	22
2577.91	26
2578.81	25.5
2579.71	26.5
2580.61	25
2581.5	23
2582.4	20
2583.3	24
2584.2	24
2585.09	26
2585.99	25
2586.89	25.5
2587.78	23
2588.68	24.5
2589.58	23.5
2590.47	23
2591.37	25
2592.27	24
2593.16	27
2594.06	24
2594.95	26.5
2595.85	22.5
2596.75	27
2597.64	27
2598.54	20
2599.43	24
2600.33	20.5
2601.22	24.5
2602.12	23.5
2603.01	28
2603.9	23
2604.8	27.5
2605.69	26
2606.59	27
2607.48	26
2608.37	26
2609.27	23
2610.16	22
2611.05	20
2611.95	20
2612.84	26
2613.73	24
2614.63	24.5
2615.52	26
2616.41	24.5
2617.3	24
2618.2	27
2619.09	26
2619.98	18
2620.87	25
2621.76	26.5
2622.66	23
2623.55	24.5
2624.44	27
2625.33	21.5
2626.22	24
2627.11	23.5
2628	24
2628.9	28
2629.79	26.5
2630.68	21
2631.57	27
2632.46	23.5
2633.35	24
2634.24	23
2635.13	21
2636.02	24
2636.91	21
2637.8	25
2638.68	25
2639.57	23.5
2640.46	26
2641.35	21.5
2642.24	24.5
2643.13	29
2644.02	24
2644.91	27.5
2645.79	21.5
2646.68	24
2647.57	25.5
2648.46	24.5
2649.35	24
2650.23	25.5
2651.12	25.5
2652.01	24.5
2652.9	21
2653.78	26
2654.67	25.5
2655.56	23.5
2656.44	25
2657.33	21.5
2658.22	24.5
2659.1	26.5
2659.99	19
2660.88	22
2661.76	26
2662.65	25
2663.53	22
2664.42	26
2665.3	23.5
2666.19	26
2667.07	23
2667.96	28
2668.84	25.5
2669.73	23.5
2670.61	22.5
2671.5	22
2672.38	22
2673.27	25.5
2674.15	23.5
2675.04	24
2675.92	24.5
2676.8	22.5
2677.69	23.5
2678.57	21.5
2679.45	19.5
2680.34	25
2681.22	27.5
2682.1	25.5
2682.99	27
2683.87	23
2684.75	21
2685.63	22
2686.52	23
2687.4	22.5
2688.28	24
2689.16	23.5
2690.04	22
2690.93	26.5
2691.81	25
2692.69	25.5
2693.57	24
2694.45	25
2695.33	23
2696.21	24
2697.09	20
2697.97	24.5
2698.85	23
2699.74	26.5
2700.62	24.5
2701.5	19
2702.38	20.5
2703.26	26.5
2704.14	25.5
2705.02	28
2705.89	26
2706.77	20
2707.65	25
2708.53	23
2709.41	26.5
2710.29	22
2711.17	25.5
2712.05	23.5
2712.93	24.5
2713.8	25
2714.68	22
2715.56	22.5
2716.44	25.5
2717.32	26
2718.19	27
2719.07	26
2719.95	22
2720.83	25
2721.7	26
2722.58	27.5
2723.46	23
2724.33	27
2725.21	28
2726.09	25
2726.97	22
2727.84	25
2728.72	27
2729.59	24
2730.47	28
2731.35	26.5
2732.22	21
2733.1	29.5
2733.97	25
2734.85	21
2735.72	25.5
2736.6	25
2737.47	23
2738.35	26
2739.22	23
2740.1	24.5
2740.97	26
2741.84	21
2742.72	23
2743.59	24
2744.47	22
2745.34	22
2746.21	19.5
2747.09	26.5
2747.96	23.5
2748.83	22.5
2749.71	24
2750.58	23.5
2751.45	24
2752.33	23
2753.2	20.5
2754.07	23.5
2754.94	29
2755.82	26.5
2756.69	25
2757.56	22.5
2758.43	22.5
2759.3	24
2760.18	24
2761.05	26
2761.92	26
2762.79	24
2763.66	24.5
2764.53	28.5
2765.4	26
2766.27	24
2767.14	22.5
2768.01	29.5
2768.88	23.5
2769.75	26
2770.62	25
2771.49	25.5
2772.36	24
2773.23	25.5
2774.1	22
2774.97	26.5
2775.84	22.5
2776.71	27.5
2777.58	21
2778.45	28
2779.32	25.5
2780.19	25
2781.06	26
2781.92	28
2782.79	28
2783.66	25.5
2784.53	25.5
2785.4	21
2786.26	22.5
2787.13	27
2788	25.5
2788.87	27.5
2789.73	26.5
2790.6	28
2791.47	25
2792.34	26.5
2793.2	23
2794.07	23
2794.94	26.5
2795.8	23
2796.67	25.5
2797.53	22.5
2798.4	28.5
2799.27	25
2800.13	21.5
2801	25
2801.86	28
2802.73	25
2803.59	26
2804.46	25
2805.32	29
2806.19	24.5
2807.05	24.5
2807.92	24.5
2808.78	27
2809.65	28
2810.51	25.5
2811.38	24
2812.24	26
2813.1	24.5
2813.97	26.5
2814.83	26
2815.7	25.5
2816.56	27
2817.42	29.5
2818.29	26
2819.15	26
2820.01	20.5
2820.87	26
2821.74	24
2822.6	29
2823.46	27
2824.32	27
2825.19	26
2826.05	20.5
2826.91	20
2827.77	25.5
2828.63	30.5
2829.5	26.5
2830.36	28
2831.22	24.5
2832.08	23
2832.94	25.5
2833.8	24
2834.66	23.5
2835.52	24
2836.38	24
2837.24	22.5
2838.1	27
2838.96	24.5
2839.82	27.5
2840.68	24.5
2841.54	25.5
2842.4	28
2843.26	25
2844.12	24.5
2844.98	24.5
2845.84	25.5
2846.7	25.5
2847.56	25.5
2848.42	27
2849.28	24
2850.14	26.5
2850.99	24.5
2851.85	27
2852.71	26.5
2853.57	29
2854.43	26
2855.28	26
2856.14	24.5
2857	27.5
2857.86	22
2858.71	28.5
2859.57	26.5
2860.43	26
2861.28	26.5
2862.14	26
2863	25
2863.86	27.5
2864.71	25
2865.57	27.5
2866.42	28
2867.28	29
2868.14	26
2868.99	25.5
2869.85	31.5
2870.7	29.5
2871.56	28.5
2872.41	31
2873.27	25.5
2874.13	28.5
2874.98	30
2875.83	28
2876.69	27
2877.54	30.5
2878.4	30.5
2879.25	30.5
2880.11	30
2880.96	31.5
2881.81	28.5
2882.67	30
2883.52	30
2884.38	37
2885.23	34
2886.08	37
2886.94	28
2887.79	34
2888.64	38
2889.5	33.5
2890.35	38
2891.2	40.5
2892.05	38.5
2892.91	38
2893.76	41.5
2894.61	39.5
2895.46	43
2896.31	46
2897.17	45
2898.02	47
2898.87	56.5
2899.72	53.5
2900.57	59.5
2901.42	60
2902.27	58.5
2903.12	66
2903.98	62.5
2904.83	70.5
2905.68	62
2906.53	69
2907.38	61.5
2908.23	67.5
2909.08	64.5
2909.93	61.5
2910.78	55.5
2911.63	60
2912.48	52
2913.33	52
2914.18	48
2915.02	45.5
2915.87	42.5
2916.72	41.5
2917.57	42.5
2918.42	40.5
2919.27	35
2920.12	38.5
2920.97	39
2921.81	32
2922.66	35
2923.51	30.5
2924.36	34
2925.21	32.5
2926.05	28.5
2926.9	28
2927.75	29.5
2928.59	26.5
2929.44	31
2930.29	29
2931.14	30
2931.98	28.5
2932.83	30.5
2933.68	26.5
2934.52	34.5
2935.37	32.5
2936.21	26.5
2937.06	29
2937.91	29
2938.75	30
2939.6	27.5
2940.44	26
2941.29	29
2942.14	28
2942.98	28
2943.82	32
2944.67	27.5
2945.51	26
2946.36	30
2947.2	27
2948.05	31
2948.89	29.5
2949.74	29.5
2950.58	32
2951.43	34
2952.27	32
2953.11	27
2953.96	28.5
2954.8	34
2955.64	32.5
2956.49	34.5
2957.33	31.5
2958.17	34.5
2959.02	41
2959.86	36
2960.7	37
2961.54	40
2962.39	42
2963.23	40.5
2964.07	41
2964.91	41.5
2965.75	44
2966.6	38.5
2967.44	40
2968.28	39.5
2969.12	42
2969.96	35
2970.8	40
2971.64	38.9879
2972.48	36.3954
2973.33	35.5503
2974.17	35.8589
2975.01	34.9705
2975.85	31.9584
2976.69	33.9283
2977.53	33.9609
2978.37	29.1432
2979.21	32.558
2980.05	31.0656
2980.89	30.0212
2981.73	26.9271
2982.57	27.186
2983.41	26.6645
2984.25	29.6578
2985.08	24.9903
2985.92	28.8097
2986.76	25.7339
2987.6	26.2678
2988.44	25.8602
2989.28	25.0274
2990.12	25.037
2990.96	25.3138
2991.79	22.7136
2992.63	25.82
2993.47	25.0917
2994.31	25.4997
2995.14	23.2526
2995.98	24.3544
2996.82	27.3795
2997.66	24.3755
2998.49	25.3779
2999.33	25.2807
3000.17	23.8599
3001	22.8728
3001.84	23.8399
3002.68	22.9063
3003.51	24.4393
3004.35	20.2159
3005.19	22.4705
3006.02	22.3055
3006.86	23.4956
3007.7	23.711
3008.53	24.0604
3009.37	21.8616
3010.2	25.8537
3011.04	24.5496
3011.87	22.0583
3012.71	23.2348
3013.54	22.9199
3014.38	23.077
3015.21	22.7488
3016.05	24.0114
3016.88	22.4375
3017.72	23.3083
3018.55	23.2267
3019.39	21.9492
3020.22	22.4217
3021.05	22.0169
3021.89	21.512
3022.72	21.7409
3023.55	24.3838
3024.39	20.7574
3025.22	22.6165
3026.05	23.2104
3026.89	23.1543
3027.72	24.8154
3028.55	22.062
3029.39	24.0535
3030.22	25.412
3031.05	22.4296
3031.88	23.3711
3032.72	22.4626
3033.55	22.3122
3034.38	23.6864
3035.21	24.6074
3036.04	25.2927
3036.88	25.3811
3037.71	22.956
3038.54	22.2373
3039.37	23.524
3040.2	21.7338
3041.03	21.4362
3041.86	22.3826
3042.69	23.8365
3043.52	22.4119
3044.36	20.0924
3045.19	20.901
3046.02	22.3006
3046.85	21.1676
3047.68	21.2233
3048.51	21.3269
3049.34	22.0523
3050.17	21.7184
3051	22.1225
3051.83	21.6093
3052.66	22.3162
3053.48	22.5655
3054.31	22.517
3055.14	21.8762
3055.97	20.014
3056.8	21.6155
3057.29	26
3058.12	21.5
3058.95	28.5
3059.79	21
3060.62	21.5
3061.45	24.5
3062.29	26
3063.12	22
3063.95	23
3064.78	21.5
3065.62	23.5
3066.45	17
3067.28	24
3068.11	23.5
3068.94	26
3069.77	21.5
3070.61	23
3071.44	22
3072.27	22
3073.1	22
3073.93	26
3074.76	25
3075.59	22
3076.42	22.5
3077.25	25
3078.08	26
3078.92	23
3079.74	23
3080.57	22
3081.41	22.5
3082.24	23
3083.06	23
3083.89	25.5
3084.72	24
3085.55	24
3086.38	25.5
3087.21	20.5
3088.04	23.5
3088.87	20
3089.7	23
3090.53	25
3091.36	21
3092.18	25
3093.01	23.5
3093.84	21
3094.67	23
3095.5	20
3096.32	26
3097.15	20.5
3097.98	27.5
3098.81	19
3099.64	21
3100.46	24
3101.29	25
3102.12	21.5
3102.94	22
3103.77	25.5
3104.6	22
3105.42	24
3106.25	25.5
3107.08	25.5
3107.9	20.5
3108.73	21
3109.56	24
3110.38	24
3111.21	23
3112.03	23
3112.86	22
3113.68	25
3114.51	23
3115.33	20.5
3116.16	25.5
3116.98	24
3117.81	23
3118.63	22.5
3119.46	26
3120.28	20.5
3121.11	24
3121.93	24.5
3122.76	27.5
3123.58	27
3124.4	26
3125.23	25.5
3126.05	22
3126.87	23.5
3127.7	21
3128.52	24
3129.34	22.5
3130.17	22
3130.99	26.5
3131.81	21.5
3132.64	23.5
3133.46	24
3134.28	22.5
3135.1	24.5
3135.93	20.5
3136.75	25.5
3137.57	25.5
3138.39	20
3139.21	27.5
3140.04	27.5
3140.86	24.5
3141.68	26
3142.5	24.5
3143.32	22.5
3144.14	24
3144.96	26.5
3145.78	20
3146.61	22
3147.43	18.5
3148.25	24.5
3149.07	25.5
3149.89	28
3150.71	22
3151.53	22
3152.35	23.5
3153.17	23
3153.99	24
3154.81	20.5
3155.63	22.5
3156.45	18.5
3157.27	22
3158.08	26.5
3158.9	23.5
3159.72	26
3160.54	20
3161.36	24.5
3162.18	21
3163	25
3163.82	26
3164.63	24
3165.45	22
3166.27	26
3167.09	21
3167.91	24
3168.72	25
3169.54	24
3170.36	21.5
3171.18	22.5
3171.99	24.5
3172.81	23.5
3173.63	25
3174.44	25.5
3175.26	23.5
3176.08	19.5
3176.89	22.5
3177.71	20.5
3178.53	21
3179.34	21
3180.16	24
3180.97	21.5
3181.79	23
3182.61	26
3183.42	25.5
3184.24	21.5
3185.05	21.5
3185.87	23
3186.68	24
3187.5	22
3188.31	24.5
3189.13	23
3189.94	20.5
3190.76	26
3191.57	22.5
3192.39	20.5
3193.2	24.5
3194.02	24.5
3194.83	23
3195.64	25
3196.46	27.5
3197.27	25
3198.08	27
3198.9	22.5
3199.71	20
3200.52	23
3201.34	23.5
3202.15	27.5
3202.96	21.5
3203.78	25
3204.59	22
3205.4	24.5
3206.21	23.5
3207.03	23.5
3207.84	24
3208.65	23.5
3209.46	25.5
3210.27	22
3211.09	24.5
3211.9	24
3212.71	24.5
3213.52	20
3214.33	24.5
3215.14	22
3215.95	22
3216.77	22.5
3217.58	28
3218.39	22
3219.2	24.5
3220.01	25.5
3220.82	24.5
3221.63	25
3222.44	19.5
3223.25	24
3224.06	22.5
3224.87	24
3225.68	22
3226.49	22
3227.3	27.5
3228.11	26.5
3228.92	21.5
3229.73	28
3230.53	25
3231.34	27
3232.15	27
3232.96	24
3233.77	25
3234.58	21
3235.39	21
3236.19	23.5
3237	25
3237.81	24
3238.62	19
3239.43	28.5
3240.23	23
3241.04	20.5
3241.85	22
3242.66	23
3243.46	25
3244.27	23.5
3245.08	27
3245.89	23.5
3246.69	22
3247.5	23.5
3248.31	23
3249.11	20.5
3249.92	26
3250.72	25
3251.53	27
3252.34	19.5
3253.14	24
3253.95	20
3254.75	27
3255.56	21
3256.36	23.5
3257.17	23.5
3257.98	26
3258.78	23
3259.59	27
3260.39	28
3261.19	21.5
3262	25.5
3262.8	22.5
3263.61	24
3264.41	23
3265.22	25
3266.02	23
3266.83	25.5
3267.63	27
3268.43	23
3269.24	23.5
3270.04	21.5
3270.84	23.5
3271.65	20.5
3272.45	23
3273.25	24
3274.06	25.5
3274.86	22
3275.66	24
3276.46	22
3277.27	23
3278.07	21.5
3278.87	23.5
3279.67	25.5
3280.48	25.5
3281.28	20.5
3282.08	22.5
3282.88	24
3283.68	23
3284.48	24.5
3285.29	22
3286.09	24.5
3286.89	22
3287.69	28
3288.49	23
3289.29	22
3290.09	22
3290.89	22.5
3291.69	25.5
3292.49	22.5
3293.29	23.5
3294.09	24
3294.89	20.5
3295.69	21.5
3296.49	23.5
3297.29	27
3298.09	21.5
3298.89	23
3299.69	25
3300.49	23.5
3301.29	21.5
3302.09	23
3302.89	24.5
3303.69	24.5
3304.49	23
3305.28	25
3306.08	25.5
3306.88	21
3307.68	24
3308.48	22
3309.28	25.5
3310.07	23
3310.87	21
3311.67	24.5
3312.47	22
3313.26	24.5
3314.06	23.5
3314.86	26.5
3315.66	22
3316.45	25.5
3317.25	23
3318.05	25
3318.84	23.5
3319.64	21.5
3320.44	24.5
3321.23	20.5
3322.03	25.5
3322.83	22
3323.62	27
3324.42	25
3325.21	25
3326.01	26
3326.81	21.5
3327.6	23.5
3328.4	26
3329.19	26.5
3329.99	22.5
3330.78	20
3331.58	23
3332.37	22
3333.17	22.5
3333.96	25
3334.76	23.5
3335.55	24
3336.34	23
3337.14	21
3337.93	24.5
3338.73	24
3339.52	26
3340.31	26
3341.11	25.5
3341.9	23
3342.69	22.5
3343.49	25.5
3344.28	23.5
3345.07	23.5
3345.87	25
3346.66	25
3347.45	23
3348.25	23.5
3349.04	24
3349.83	22.5
3350.62	23.5
3351.42	28
3352.21	24
3353	25.5
3353.79	21
3354.58	23
3355.37	26.5
3356.17	23
3356.96	24
3357.75	22.5
3358.54	20
3359.33	25
3360.12	25.5
3360.91	28
3361.7	26.5
3362.49	23
3363.29	21.5
3364.08	20.5
3364.87	26
3365.66	25
3366.45	25
3367.24	24.5
3368.03	22
3368.82	23
3369.61	27
3370.4	23
3371.19	27
3371.97	25
3372.76	26
3373.55	22
3374.34	25
3375.13	20.5
3375.92	26
3376.71	24
3377.5	27.5
3378.29	26
3379.07	25
3379.86	21
3380.65	24
3381.44	23.5
3382.23	24.5
3383.01	22
3383.8	22
3384.59	26.5
3385.38	22.5
3386.16	20
3386.95	26
3387.74	20.5
3388.53	23.5
3389.31	23.5
3390.1	25
3390.89	25
3391.67	24
3392.46	25.5
3393.25	25
3394.03	26.5
3394.82	24
3395.6	24.5
3396.39	23.5
3397.18	24
3397.96	26
3398.75	26.5
3399.53	22
3400.32	20.5
3401.1	25.5
3401.89	24
3402.67	24
3403.46	25.5
3404.24	25
3405.03	22.5
3405.81	24
3406.6	20.5
3407.38	28
3408.17	24
3408.95	26
3409.74	26
3410.52	23
3411.3	21.5
3412.09	27.5
3412.87	25
3413.65	24.5
3414.44	26.5
3415.22	22.5
3416	23.5
3416.79	24.5
3417.57	23.5
3418.35	26
3419.14	27
3419.92	26
3420.7	24.5
3421.48	26
3422.27	24.5
3423.05	21
3423.83	23.5
3424.61	23
3425.4	25.5
3426.18	25.5
3426.96	24
3427.74	26
3428.52	23
3429.3	23
3430.08	28
3430.87	22.5
3431.65	22
3432.43	21.5
3433.21	22.5
3433.99	26.5
3434.77	24.5
3435.55	22
3436.33	25
3437.11	22
3437.89	29.5
3438.67	23.5
3439.45	22.5
3440.23	23
3441.01	21.5
3441.79	25
3442.57	21
3443.35	25.5
3444.13	20
3444.91	26.5
3445.69	27
3446.47	26.5
3447.25	25
3448.03	24.5
3448.8	25
3449.58	29
3450.36	25
3451.14	23
3451.92	25
3452.7	25
3453.47	23
3454.25	24
3455.03	21.5
3455.81	27
3456.59	22
3457.36	23.5
3458.14	20
3458.92	27.5
3459.69	25
3460.47	22.5
3461.25	25
3462.03	26.5
3462.8	21
3463.58	22
3464.36	23
3465.13	26.5
3465.91	23.5
3466.69	23
3467.46	26.5
3468.24	25
3469.01	24
3469.79	23
3470.57	21
3471.34	24
3472.12	22
3472.89	24
3473.67	24
3474.44	22
3475.22	17
3475.99	24.5
3476.77	24.5
3477.54	26
3478.32	23
3479.09	25.5
3479.87	25
3480.64	23
3481.41	25.5
3482.19	26
3482.96	25.5
3483.74	19
3484.51	23
3485.28	25
3486.06	29
3486.83	24
3487.6	23
3488.38	24
3489.15	27
3489.92	21
3490.7	27
3491.47	26
3492.24	24.5
3493.01	26
3493.79	23
3494.56	25.5
3495.33	25
3496.1	23
3496.88	24
3497.65	25
3498.42	23
3499.19	19.5
3499.96	23.5
