#Acq. time (s)=	5
#Accumulations=	5
#Range (cm-¹)=	100...3500
#Windows=	4
#Autofocus=	Off
#AutoExposure=	Off
#Spike filter=	Multiple accum.
#Delay time (s)=	0
#Binning=	1
#Readout mode=	Signal
#DeNoise=	Off
#ICS correction=	Off
#Dark correction=	Off
#Inst. Process=	Off
#Instrument=	LabRAM HR Evol
#Detector=	Syncerity OE
#Objective=	x100_VIS
#Grating=	600 (500nm)
#ND Filter=	25%
#Laser=	633nm_Edge
#Hole=	100.021
#Range=	Visible
#Project=	verificaciones
#Sample=	at4
#Site=	plain
#Title=	bolusat4plain
#Remark=	com
#Date=	16.01.2026 17:52
#Acquired=	16.01.2026 17:52:07
100.564	25.5
101.847	27.5
103.131	30
104.414	26
105.697	27
106.979	32.5
108.262	31
109.544	29
110.826	31
112.109	33.5
113.391	32
114.672	31
115.954	29.5
117.235	28
118.515	29
119.796	33
121.076	30.5
122.357	33
123.637	32
124.916	33
126.196	31
127.475	32
128.754	34.5
130.033	34
131.31	34.5
132.589	36
133.867	35
135.145	33
136.423	30
137.701	31
138.978	34.5
140.256	35.5
141.533	37
142.809	33
144.086	39
145.361	40.5
146.637	34.5
147.913	39.5
149.189	38
150.464	32
151.74	35.5
153.014	38
154.288	42.5
155.563	39
156.838	40.5
158.112	39
159.385	42
160.659	41.5
161.932	43
163.206	41.5
164.479	40.5
165.751	41.5
167.024	40
168.296	39
169.567	39
170.84	41
172.112	34
173.383	38
174.654	35
175.925	37.5
177.196	39
178.466	39
179.737	37
181.007	42
182.276	43
183.546	44.5
184.816	37
186.085	40.5
187.354	39
188.624	43
189.891	41.5
191.16	45
192.427	39.5
193.696	35
194.964	41.5
196.231	40
197.499	38.5
198.765	36
200.033	38.5
201.298	36.5
202.566	40
203.831	38
205.098	39
206.363	37.5
207.629	39.5
208.894	35
210.159	30
211.424	35
212.689	35.5
213.953	35
215.218	34
216.481	32
217.746	36.5
219.009	36
220.273	31.5
221.536	38
222.798	31
224.062	35
225.323	31
226.587	30
227.848	33
229.109	31
230.372	30
231.633	29
232.894	31
234.156	31
235.416	27
236.678	32
237.937	29
239.197	24.5
240.457	29.5
241.717	31
242.976	31.5
244.235	24
245.495	32.5
246.754	33.5
248.012	32
249.27	28
250.529	32
251.787	25
253.045	30.5
254.302	31
255.56	29.5
256.817	31.5
258.074	27
259.33	26
260.586	32
261.844	29.5
263.1	29.5
264.355	27
265.611	32.5
266.866	30
268.121	27.5
269.377	26.5
270.632	30
271.886	28.5
273.14	30.5
274.394	26
275.648	31.5
276.902	23
278.155	28
279.408	29
280.663	29
281.915	29
283.168	28.5
284.42	30
285.673	28.5
286.925	22.5
288.176	32
289.428	27.5
290.679	32
291.93	30
293.181	26.5
294.432	32
295.683	28.5
296.933	28.5
298.183	30.5
299.433	27
300.683	22.5
301.932	31
303.182	29.5
304.429	29
305.678	27
306.927	25.5
308.176	28
309.424	31
310.672	24
311.92	27.5
313.168	25
314.415	29
315.661	28.5
316.908	30.5
318.155	29
319.402	25
320.648	26.5
321.895	29
323.139	31
324.385	26.5
325.631	29.5
326.877	26
328.122	28
329.366	29
330.611	31.5
331.855	29
333.1	27.5
334.343	31.5
335.587	28
336.831	26.5
338.074	24.5
339.317	26.5
340.56	27
341.803	29
343.044	27
344.287	29
345.53	29
346.771	30
348.013	23
349.255	21
350.495	29
351.736	25
352.978	31.5
354.217	29.5
355.458	28
356.699	29.5
357.938	29
359.178	28
360.417	28
361.657	24.5
362.895	26
364.135	31.5
365.374	27.5
366.612	31.5
367.851	26
369.088	29.5
370.327	23.5
371.564	31.5
372.802	27
374.038	29.5
375.276	29.5
376.512	27
377.749	24
378.985	29.5
380.222	29.5
381.457	28
382.692	29
383.929	28.5
385.164	31
386.4	25.5
387.634	26.5
388.869	27
390.103	22.5
391.337	30
392.572	27
393.805	30
395.038	25.5
396.273	28.5
397.506	28
398.74	27
399.972	28.5
401.204	26.5
402.437	28
403.669	27
404.901	27.5
406.132	28
407.365	28.5
408.596	27
409.826	27.5
411.058	26
412.289	26.5
413.519	25.5
414.749	30
415.98	26
417.21	29
418.439	25.5
419.668	29.5
420.897	24
422.128	31
423.356	29
424.585	27
425.813	30
427.041	29
428.269	25.5
429.498	29
430.725	25.5
431.952	25.5
433.179	30.5
434.406	29
435.633	28.5
436.859	24.5
438.085	26.5
439.312	28.5
440.537	25.5
441.764	30
442.99	30.5
444.215	30
445.44	26.5
446.665	26.5
447.89	29
449.114	32
450.339	25.5
451.563	29.5
452.787	31
454.01	26.5
455.234	29
456.457	32.5
457.68	30.5
458.903	30
460.126	31
461.348	28
462.569	33.5
463.792	27
465.013	33
466.235	29
467.457	34.5
468.678	33
469.899	38.5
471.12	31
472.341	32.5
473.56	38
474.781	31.5
476.001	39
477.221	40.5
478.441	40
479.66	43
480.878	45
482.098	49
483.317	46.5
484.535	55.5
485.754	59
486.971	56.5
488.189	60
489.407	57
490.625	61
491.842	58.5
493.059	58
494.276	51
495.493	56.5
496.709	51
497.926	47
499.142	46
500.357	45
501.573	45.5
502.789	40
504.003	41
505.219	39
506.434	39
507.648	38
508.863	38.5
510.078	31
511.291	33
512.505	32.5
513.718	33
514.932	31.5
516.145	36.5
517.358	30.5
518.572	33
519.783	30.5
520.997	32.5
522.208	30.5
523.421	31.5
524.632	28
525.844	33.5
527.055	33
528.266	25
529.477	29
530.688	30.5
531.898	30
533.109	29
534.319	31
535.53	27
536.739	31
537.948	29
539.158	32.5
540.366	27
541.576	30.5
542.784	32
543.994	28
545.201	30.5
546.409	27.5
547.618	25
548.825	32
550.032	26
551.24	30.5
552.447	27
553.654	30.5
554.861	29
556.067	32
557.273	30
558.48	30.5
559.686	20.5
560.891	28
562.096	29
563.302	29
564.507	27
565.712	25
566.916	26.5
568.122	30
569.326	23
570.529	26.5
571.733	30
572.936	28
574.141	27.5
575.344	28
576.547	25.5
577.75	27
578.952	30.5
580.154	25
581.358	28.5
582.56	30.5
583.761	24.5
584.963	28
586.164	27
587.365	26
588.566	28.5
589.767	31
590.967	27.5
592.168	26
593.369	28
594.569	27.5
595.769	27
596.969	28
598.168	28
599.367	27.5
600.566	29.5
601.765	27
602.964	27
604.162	28
605.361	29
606.559	29
607.757	27.5
608.953	28.5
610.151	23
611.348	30.5
612.545	29
613.742	28.5
614.939	30
616.135	26.5
617.332	28.5
618.528	29
619.724	27
620.918	26
622.114	27.5
623.309	30.5
624.505	35
625.7	24.5
626.895	27
628.088	28.5
629.282	29
630.477	27
631.671	27.5
632.865	24
634.057	27
635.251	28
636.444	29
637.637	27.5
638.829	30
640.022	24
641.214	28.5
642.407	28
643.598	27
644.79	29
645.982	28.5
647.172	26
648.364	25
649.555	26
650.745	31
651.936	32
653.126	29
654.315	29
655.506	27
656.696	27.5
657.885	27.5
659.074	29
660.263	25
661.452	29.5
662.64	28
663.829	26
665.018	29
666.205	29
667.394	30
668.581	33
669.769	30
670.955	26.5
672.143	29
673.329	31
674.517	26
675.703	31
676.89	30
678.075	36
679.262	32.5
680.447	30
681.632	30.5
682.818	38
684.002	33
685.188	35
686.372	36.5
687.556	30
688.741	30.5
689.925	33
691.11	33
692.293	33
693.476	34.5
694.66	34.5
695.843	36
697.025	35.5
698.209	34
699.391	39
700.573	32.5
701.756	37
702.938	44.5
704.119	41
705.3	43.5
706.483	45
707.664	54
708.844	51
710.025	48.5
711.206	49.5
712.386	43.5
713.566	42
714.746	38.5
715.925	40.5
717.106	35
718.285	32.5
719.464	32
720.643	27
721.822	28
723	27
724.178	27
725.358	27
726.536	27.5
727.713	25
728.891	29.5
730.068	28
731.245	32
732.422	27
733.599	32.5
734.775	28
735.952	31
737.128	29.5
738.304	29
739.48	29.5
740.656	26
741.831	28
743.006	26
744.181	24.5
745.356	27
746.531	28.5
747.706	26.5
748.88	30.5
750.054	28
751.228	29
752.402	23
753.576	29.5
754.749	30.5
755.922	28
757.095	22
758.267	26
759.44	26
760.612	29.5
761.785	28.5
762.957	29.5
764.129	27
765.301	27
766.471	24
767.642	27
768.814	30.5
769.985	28
771.156	26
772.325	28
773.495	29
774.666	28.5
775.836	28.5
777.005	28
778.174	30.5
779.344	32
780.513	33.5
781.681	31
782.85	29.5
784.019	32
785.187	34
786.355	33
787.523	32
788.69	29
789.858	29.5
791.026	28
792.192	29.5
793.36	29
794.526	28.5
795.693	20
796.86	28.5
798.025	30.5
799.191	27
800.356	29.5
801.523	32
802.689	22.5
803.853	26
805.019	27
806.183	27.5
807.348	29
808.512	28
809.677	25.5
810.84	28.5
812.005	30
813.167	30.5
814.332	28
815.494	32
816.657	25
817.82	28
818.982	27.5
820.146	27
821.307	29
822.47	28.5
823.632	31
824.793	28
825.955	26.5
827.116	29.5
828.277	24.5
829.439	27
830.599	25
831.759	26.5
832.92	30
834.08	29
835.24	26
836.4	26.5
837.56	28
838.719	24
839.877	30
841.037	31
842.196	27
843.354	23
844.512	28
845.672	25
846.83	30
847.987	28.5
849.145	28
850.302	30.5
851.46	23.5
852.617	28
853.774	29.5
854.93	30
856.087	25.5
857.243	25.5
858.4	28.5
859.556	28.5
860.712	30
861.867	28
863.022	33.5
864.177	30
865.332	30.5
866.487	32
867.642	29.5
868.796	29
869.95	26.5
871.104	28
872.258	26
873.412	28
874.565	28.5
875.718	27.5
876.872	25.5
878.024	25.5
879.177	29.5
880.33	22.5
881.482	29
882.635	27.5
883.787	27.5
884.938	28
886.09	25
887.242	28
888.393	29
889.544	25.5
890.695	25
891.845	27
892.995	27
894.146	29
895.296	27.5
896.446	28.5
897.596	22.5
898.744	26
899.894	24
901.043	30
902.193	27.5
903.342	25.5
904.489	26.5
905.638	26.5
906.786	26
907.935	28
909.081	28.5
910.229	27
911.377	27.5
912.525	26
913.671	26.5
914.818	25
915.965	27.5
917.111	24
918.258	26.5
919.404	26.5
920.549	27.5
921.695	24
922.84	29.5
923.986	31
925.132	24.5
926.276	28
927.421	24.5
928.565	25.5
929.71	22.5
930.855	27.5
931.998	23.5
933.142	25
934.285	26.5
935.429	25
936.572	25
937.716	24
938.858	26
940.001	24.5
941.143	26.5
942.286	27
943.428	28
944.57	23
945.712	26.5
946.854	27.5
947.995	25.5
949.135	29.5
950.277	21
951.418	24
952.559	25
953.699	27.5
954.839	23
955.98	25
957.119	27
958.258	25
959.399	26
960.538	23
961.676	27
962.816	25
963.955	27.5
965.093	24.5
966.232	25
967.37	22.5
968.508	27
969.645	27
970.784	27
971.921	26
973.058	25.5
974.195	25
975.333	25.5
976.469	28
977.605	21.5
978.741	25.5
979.877	26
981.013	27
982.15	33
983.285	22.5
984.421	26
985.556	24
986.691	26
987.825	23
988.96	23
990.094	27
991.228	29
992.364	25
993.497	24
994.631	28
995.765	26
996.898	25
998.031	27
999.164	25
1000.3	25
1001.43	24.5
1002.56	27
1003.69	27
1004.83	27.5
1005.96	30.5
1007.09	22
1008.22	24
1009.35	23
1010.48	22.5
1011.61	24.5
1012.74	25
1013.88	26
1015.01	24.5
1016.14	29.5
1017.27	26.5
1018.4	28
1019.53	29
1020.65	26
1021.78	27
1022.91	25
1024.04	26.5
1025.17	24
1026.3	26
1027.43	27.5
1028.56	22.5
1029.68	24.5
1030.81	24.5
1031.94	26
1033.07	25
1034.19	21
1035.32	26
1036.45	22
1037.58	23
1038.7	24
1039.83	26.5
1040.95	26
1042.08	28.5
1043.21	22.5
1044.33	29.5
1045.46	24
1046.58	23
1047.71	27
1048.83	24.5
1049.96	24
1051.08	24.5
1052.21	19
1053.33	28.5
1054.45	25.5
1055.58	25.5
1056.7	24.5
1057.82	27.5
1058.95	28
1060.07	27
1061.19	25
1062.32	25
1063.44	24
1064.56	27
1065.68	24
1066.81	26.5
1067.93	23
1069.05	27
1070.17	27
1071.29	23.5
1072.41	24
1073.53	26
1074.65	25.5
1075.77	21
1076.89	22.5
1078.01	26
1079.13	24.5
1080.25	26.5
1081.37	25
1082.49	24
1083.61	24.5
1084.73	22.5
1085.85	26.5
1086.97	24.5
1088.09	19
1089.2	28
1090.32	26.5
1091.44	29
1092.56	22.5
1093.68	23
1094.79	28
1095.91	24.5
1097.03	28.5
1098.14	21
1099.26	24
1100.38	23
1101.49	21
1102.61	26
1103.73	24.5
1104.84	22
1105.96	28
1107.07	29
1108.19	22.5
1109.3	19
1110.42	25
1111.53	22.5
1112.65	26.5
1113.76	23
1114.88	22
1115.99	26
1117.1	25.5
1118.22	26.5
1119.33	24.5
1120.44	21.5
1121.56	26
1122.67	24
1123.78	25
1124.89	25.5
1126.01	22.5
1127.12	26.5
1128.23	24
1129.34	28.5
1130.45	24
1131.56	24
1132.67	28.5
1133.79	23
1134.9	27
1136.01	23.5
1137.12	25.5
1138.23	23
1139.34	27
1140.45	25.5
1141.56	26
1142.67	23
1143.78	23
1144.89	25
1145.99	25.5
1147.1	21
1148.21	22
1149.32	23.5
1150.43	25.5
1151.54	25
1152.65	26.5
1153.75	28
1154.86	25
1155.97	23
1157.08	25.5
1158.18	24
1159.29	28.5
1160.4	24
1161.5	22.5
1162.61	24
1163.72	26
1164.82	28.5
1165.93	26
1167.03	24
1168.14	25
1169.24	22.5
1170.35	23
1171.45	28
1172.56	24
1173.66	24.5
1174.77	25
1175.87	21
1176.98	25.5
1178.08	23.5
1179.18	26
1180.29	27
1181.39	23
1182.49	23
1183.6	27.5
1184.7	27
1185.8	26.5
1186.9	23.5
1188	24.5
1189.11	23.5
1190.21	23.5
1191.31	26.5
1192.41	20.5
1193.51	25.5
1194.61	25.0029
1195.72	23.4536
1196.82	24.5437
1197.92	24.1392
1199.02	24.9879
1200.12	22.5057
1201.22	23.9589
1202.32	22.9659
1203.42	26.5598
1204.52	24.0184
1205.62	20.5888
1206.71	22.4038
1207.81	24.7467
1208.91	18.3629
1210.01	24.4732
1211.11	24.0963
1212.21	19.3866
1213.31	23.0067
1214.4	24.1287
1215.5	23.0525
1216.6	26.0917
1217.7	21.8223
1218.79	22.9288
1219.89	24.9319
1220.99	27.2972
1222.08	25.526
1223.18	21.6317
1224.28	24.7327
1225.37	22.2777
1226.47	26.7065
1227.56	22.6006
1228.66	26.8708
1229.76	24.5155
1230.85	21.8771
1231.95	21.5148
1233.04	23.1154
1234.14	24.2087
1235.23	22.407
1236.32	22.5099
1237.42	20.8098
1238.51	23.6144
1239.61	24.5773
1240.7	23.0612
1241.79	21.4958
1242.89	24.2773
1243.98	24.2044
1245.07	23.4982
1246.17	24.9959
1247.26	24.6412
1248.35	25.0813
1249.44	20.3759
1250.53	20.3654
1251.63	24.0392
1252.72	24.8376
1253.81	25.8766
1254.9	24.9838
1255.99	26.8094
1257.08	25.5857
1258.17	24.716
1259.27	24.5206
1260.36	25.7742
1261.45	27.1519
1262.54	27.6966
1263.63	25.1406
1264.72	26.151
1265.81	25.4549
1266.89	26.6221
1267.98	24.5181
1269.07	24.4914
1270.16	28.0301
1271.25	25.2565
1272.34	24.7056
1273.43	24.8728
1274.52	24.2226
1275.6	22.6028
1276.69	23.7202
1277.78	22.3115
1278.87	25.3111
1279.95	21.68
1281.04	21.5773
1282.13	20.9825
1283.22	20.5409
1284.3	22.549
1285.39	24.7703
1286.48	22.0973
1287.56	24.3423
1288.65	25.5
1289.73	23.7709
1290.82	23.3025
1291.9	24.1967
1292.99	24.9143
1294.07	26.2211
1295.16	26.4267
1296.24	24.5914
1297.33	25.3181
1298.41	22.8256
1299.5	23.3954
1300.58	24.7319
1301.66	25.4941
1302.75	22.7973
1303.83	19.877
1304.91	21.3256
1306	21.8686
1306.4	21.5
1307.48	24.5
1308.57	27
1309.66	22.5
1310.75	23
1311.84	22
1312.92	24
1314.01	22
1315.1	25.5
1316.18	22
1317.27	24.5
1318.36	25.5
1319.44	24.5
1320.53	21.5
1321.62	26.5
1322.7	23
1323.79	24
1324.87	27.5
1325.96	22.5
1327.04	23
1328.13	23
1329.21	26
1330.3	25.5
1331.38	26.5
1332.47	26.5
1333.55	24.5
1334.64	23
1335.72	23.5
1336.8	25
1337.89	21
1338.97	28.5
1340.05	25
1341.14	23
1342.22	25.5
1343.3	25.5
1344.38	25
1345.47	24.5
1346.55	25.5
1347.63	23.5
1348.71	24.5
1349.79	20
1350.87	25
1351.96	22.5
1353.04	21.5
1354.12	26.5
1355.2	21.5
1356.28	21
1357.36	26
1358.44	24
1359.52	21.5
1360.6	25.5
1361.68	25
1362.76	26
1363.84	27
1364.92	26
1366	25
1367.07	24
1368.15	25.5
1369.23	25
1370.31	21.5
1371.39	24.5
1372.47	28.5
1373.54	22.5
1374.62	26
1375.7	21
1376.78	22.5
1377.85	29
1378.93	27
1380.01	27
1381.08	26
1382.16	24
1383.24	27.5
1384.31	25
1385.39	27.5
1386.46	21
1387.54	26
1388.61	22.5
1389.69	24
1390.76	24
1391.84	26.5
1392.91	27.5
1393.99	23.5
1395.06	25
1396.14	24
1397.21	26
1398.29	22
1399.36	26
1400.43	29
1401.51	30
1402.58	27.5
1403.65	30
1404.72	32
1405.8	29.5
1406.87	27
1407.94	33
1409.02	28.5
1410.09	31
1411.16	30
1412.23	31
1413.3	29
1414.37	35
1415.44	26
1416.51	33.5
1417.59	29
1418.66	28
1419.73	28.5
1420.8	31.5
1421.87	27
1422.94	28.5
1424.01	24
1425.08	27
1426.15	27
1427.22	27
1428.28	24
1429.35	26.5
1430.42	26.5
1431.49	25
1432.56	24
1433.63	26.5
1434.7	31
1435.76	27
1436.83	25.5
1437.9	27
1438.97	23
1440.03	24
1441.1	25
1442.17	25.5
1443.23	24.5
1444.3	22.5
1445.37	22.5
1446.43	26.5
1447.5	27
1448.57	28
1449.63	24.5
1450.7	23
1451.76	26.5
1452.83	27
1453.89	24
1454.96	29.5
1456.02	25
1457.09	29
1458.15	27.5
1459.22	22.5
1460.28	23
1461.34	23.5
1462.41	25.5
1463.47	24
1464.53	23.5
1465.6	25.5
1466.66	26.5
1467.72	26
1468.78	27.5
1469.85	27
1470.91	22
1471.97	28
1473.03	29
1474.1	23
1475.16	22.5
1476.22	26
1477.28	26
1478.34	25.5
1479.4	25
1480.46	24.5
1481.52	30
1482.58	25
1483.65	25.5
1484.71	24
1485.77	26
1486.82	22
1487.89	30
1488.94	26
1490	27.5
1491.06	26
1492.12	26
1493.18	29
1494.24	23
1495.3	24.5
1496.36	27.5
1497.41	26.5
1498.47	25
1499.53	27
1500.59	28
1501.65	23
1502.7	24
1503.76	30.5
1504.82	25.5
1505.87	28
1506.93	22
1507.99	27.5
1509.04	21
1510.1	24
1511.16	23
1512.21	25
1513.27	26
1514.32	25
1515.38	24
1516.43	25.5
1517.49	24.5
1518.54	21
1519.6	26.5
1520.65	20.5
1521.71	20.5
1522.76	26
1523.81	26
1524.87	27
1525.92	24.5
1526.98	24.5
1528.03	24.5
1529.08	23.5
1530.14	24.5
1531.19	30
1532.24	27.5
1533.29	28.5
1534.35	27.5
1535.4	24.5
1536.45	28.5
1537.5	22.5
1538.55	25
1539.61	26
1540.66	27.5
1541.71	27
1542.76	23
1543.81	24.5
1544.86	27
1545.91	27.5
1546.96	20
1548.01	29.5
1549.06	26
1550.11	22.5
1551.16	27
1552.21	27.5
1553.26	25
1554.31	27
1555.36	22
1556.41	26.5
1557.46	28
1558.5	25
1559.55	23.5
1560.6	22
1561.65	24
1562.7	29.5
1563.74	25
1564.79	28
1565.84	25
1566.89	23.5
1567.93	28.5
1568.98	28.5
1570.03	27.5
1571.07	26
1572.12	24
1573.17	22
1574.21	24
1575.26	25
1576.3	25.5
1577.35	26.5
1578.4	22.5
1579.44	27.5
1580.49	27.5
1581.53	23.5
1582.58	26
1583.62	23.5
1584.66	28
1585.71	23
1586.75	25.5
1587.8	29
1588.84	22
1589.88	24
1590.93	25
1591.97	28
1593.01	25.5
1594.06	25
1595.1	31
1596.14	25.5
1597.18	24
1598.23	26
1599.27	24.5
1600.31	24.5
1601.35	28.5
1602.39	25.5
1603.44	27.5
1604.48	22
1605.52	25.5
1606.56	26.5
1607.6	26
1608.64	26
1609.68	24.5
1610.72	23
1611.76	24
1612.8	24.5
1613.84	23.5
1614.88	26.5
1615.92	25.5
1616.96	25
1618	24.5
1619.04	23.5
1620.08	26.5
1621.12	29
1622.16	23
1623.19	25.5
1624.23	23
1625.27	25
1626.31	30
1627.35	24
1628.38	24.5
1629.42	26
1630.46	26.5
1631.49	22
1632.53	25
1633.57	27
1634.6	26
1635.64	21.5
1636.68	25.5
1637.71	27
1638.75	26
1639.79	27.5
1640.82	23
1641.86	26
1642.89	26.5
1643.93	23
1644.96	23.5
1646	24
1647.03	29
1648.07	27
1649.1	24
1650.13	25
1651.17	24.5
1652.2	26.5
1653.24	21.5
1654.27	25
1655.3	24.5
1656.34	22.5
1657.37	21
1658.4	21.5
1659.43	24
1660.47	24.5
1661.5	20.5
1662.53	24
1663.56	26
1664.6	22.5
1665.63	28
1666.66	29
1667.69	23.5
1668.72	24
1669.75	24.5
1670.78	26.5
1671.81	23.5
1672.85	25
1673.88	26
1674.91	26
1675.94	24
1676.97	24
1678	23
1679.03	23
1680.06	26.5
1681.09	27
1682.11	26
1683.14	24.5
1684.17	24.5
1685.2	22.5
1686.23	28
1687.26	25
1688.29	20
1689.31	24.5
1690.34	24
1691.37	26.5
1692.4	24
1693.42	25
1694.45	23.5
1695.48	25
1696.51	21
1697.53	28
1698.56	24
1699.59	23.5
1700.61	26.5
1701.64	23
1702.66	23
1703.69	25.5
1704.72	26
1705.74	25
1706.77	22.5
1707.79	28
1708.82	25
1709.84	25
1710.87	24.5
1711.89	25.5
1712.91	23.5
1713.94	21
1714.96	25
1715.99	27.5
1717.01	26.5
1718.03	27
1719.06	27
1720.08	28
1721.1	25.5
1722.13	25
1723.15	25.5
1724.17	26
1725.19	25.5
1726.22	28
1727.24	25.5
1728.26	25
1729.28	28
1730.3	23
1731.33	24.5
1732.35	27.5
1733.37	23
1734.39	26.5
1735.41	27.5
1736.43	24.5
1737.45	23.5
1738.47	26.5
1739.49	22.5
1740.51	23.5
1741.53	24.5
1742.55	30.5
1743.57	22.5
1744.59	23
1745.61	27
1746.63	27
1747.65	20
1748.67	25
1749.69	26
1750.7	26
1751.72	25.5
1752.74	27
1753.76	26
1754.78	26
1755.79	23.5
1756.81	27
1757.83	24
1758.85	21.5
1759.86	26
1760.88	28
1761.9	26.5
1762.91	26
1763.93	21
1764.95	25.5
1765.96	22
1766.98	21.5
1767.99	25.5
1769.01	23
1770.02	26.5
1771.04	28.5
1772.06	27
1773.07	25.5
1774.09	25.5
1775.1	22.5
1776.11	24.5
1777.13	25.5
1778.14	23
1779.16	22
1780.17	22.5
1781.18	25
1782.2	27
1783.21	26
1784.22	27.5
1785.24	24.5
1786.25	23
1787.26	22.5
1788.28	26.5
1789.29	25.5
1790.3	27.5
1791.31	25
1792.33	25.5
1793.34	25.5
1794.35	22
1795.36	23.5
1796.37	25
1797.38	26
1798.39	24.5
1799.4	26
1800.42	24.5
1801.43	29.5
1802.44	21.5
1803.45	21
1804.46	24
1805.47	27
1806.48	27
1807.49	23
1808.5	27
1809.51	21.5
1810.51	28
1811.52	28
1812.53	22
1813.54	24.5
1814.55	22.5
1815.56	25
1816.57	24
1817.57	25
1818.58	24.5
1819.59	28
1820.6	23.5
1821.61	25
1822.61	22
1823.62	23.5
1824.63	25.5
1825.63	25.5
1826.64	27
1827.65	23.5
1828.65	24
1829.66	26.5
1830.67	23.5
1831.67	28.5
1832.68	23.5
1833.68	24.5
1834.69	26
1835.69	19.5
1836.7	22
1837.7	26
1838.71	24.5
1839.71	22
1840.72	23
1841.72	26
1842.73	29
1843.73	21.5
1844.73	24
1845.74	27.5
1846.74	27
1847.74	22
1848.75	25.5
1849.75	22
1850.75	25
1851.76	25
1852.76	24.5
1853.76	24.5
1854.76	27
1855.77	24
1856.77	24.5
1857.77	26
1858.77	27.5
1859.77	26
1860.77	26
1861.78	23
1862.78	22
1863.78	25.5
1864.78	29
1865.78	23
1866.78	23
1867.78	25
1868.78	24
1869.78	25.5
1870.78	28.5
1871.78	19
1872.78	26
1873.78	22.5
1874.78	27
1875.78	22.5
1876.78	24.5
1877.78	24
1878.77	22
1879.77	23
1880.77	25
1881.77	25
1882.77	24
1883.77	27
1884.76	21.5
1885.76	28
1886.76	24.5
1887.75	26
1888.75	19.5
1889.75	25
1890.75	21
1891.74	23.5
1892.74	24.5
1893.73	23.5
1894.73	24
1895.73	26
1896.72	24
1897.72	21.5
1898.71	25.5
1899.71	26.5
1900.7	20
1901.7	23
1902.69	19.5
1903.69	19.5
1904.68	24
1905.68	21.5
1906.67	27.5
1907.67	25
1908.66	29
1909.65	23.5
1910.65	25
1911.64	22
1912.63	27
1913.63	26
1914.62	27
1915.61	26.5
1916.61	24
1917.6	19
1918.59	26
1919.58	26.5
1920.58	25
1921.57	22.5
1922.56	26
1923.55	29.5
1924.54	24.5
1925.54	21
1926.53	22.5
1927.52	22
1928.51	26.5
1929.5	23
1930.49	25.5
1931.48	25
1932.47	25.5
1933.46	23.5
1934.45	21
1935.44	24
1936.43	21
1937.42	26.5
1938.41	26.5
1939.4	25
1940.39	27
1941.38	23.5
1942.37	24.5
1943.35	24
1944.34	21.5
1945.33	23
1946.32	25.5
1947.31	25
1948.3	26.5
1949.28	23.5
1950.27	24
1951.26	25.5
1952.25	29
1953.23	23
1954.22	27
1955.21	25
1956.19	23.5
1957.18	26
1958.17	27
1959.15	25
1960.14	26
1961.12	20.5
1962.11	26.5
1963.1	23
1964.08	25.5
1965.07	21
1966.05	21
1967.04	24
1968.02	23
1969.01	22.5
1969.99	26
1970.98	21.5
1971.96	24
1972.94	23.5
1973.93	24.5
1974.91	24.5
1975.9	27
1976.88	26.5
1977.86	28
1978.85	23
1979.83	25
1980.81	25.5
1981.79	21.5
1982.78	24.5
1983.76	21.5
1984.74	25
1985.72	24.5
1986.71	22
1987.69	25.5
1988.67	22
1989.65	23.5
1990.63	23
1991.61	22.5
1992.59	27.5
1993.57	27
1994.56	24.5
1995.54	24
1996.52	23.5
1997.5	24.5
1998.48	23
1999.46	23.5
2000.44	23
2001.42	23
2002.4	21
2003.38	22
2004.36	27.5
2005.33	22.5
2006.31	23
2007.29	25.5
2008.27	27
2009.25	26.5
2010.23	21.5
2011.21	25
2012.18	28
2013.16	22
2014.14	19.5
2015.12	25
2016.09	23
2017.07	22.5
2018.05	24
2019.03	22.5
2020	22.5
2020.98	23
2021.96	25.5
2022.93	19.5
2023.91	26.5
2024.89	26
2025.86	22.5
2026.84	23.5
2027.81	23
2028.79	25
2029.76	24.5
2030.74	22
2031.71	25
2032.69	24
2033.66	22.5
2034.64	24.5
2035.61	24
2036.59	27.5
2037.56	22
2038.54	29
2039.51	26.5
2040.48	24.5
2041.46	25.5
2042.43	22
2043.4	24.5
2044.38	25
2045.35	22.5
2046.32	26
2047.29	21
2048.27	24.5
2049.24	25
2050.21	20.5
2051.18	24.5
2052.16	21
2053.13	24.5
2054.1	25.5
2055.07	25
2056.04	23.5
2057.01	24
2057.98	24
2058.96	24
2059.93	22.5
2060.9	24.5
2061.87	22.5
2062.84	25.5
2063.81	23.5
2064.78	23.5
2065.75	24
2066.72	21.5
2067.69	21.5
2068.66	22
2069.63	24
2070.6	22
2071.56	23.5
2072.53	24
2073.5	22
2074.47	22
2075.44	22
2076.41	25
2077.38	24
2078.34	24
2079.31	25.5
2080.28	26
2081.25	26
2082.21	22
2083.18	23
2084.15	23
2085.11	22
2086.08	25
2087.05	26
2088.01	23.5
2088.98	24.5
2089.95	25
2090.91	22
2091.88	24
2092.84	24
2093.81	21.5
2094.78	21.5
2095.74	22
2096.71	24.5
2097.67	28.5
2098.64	25.5
2099.6	22
2100.57	24.5
2101.53	22
2102.49	25.5
2103.46	23
2104.42	20.5
2105.39	26
2106.35	21.5
2107.31	25
2108.28	23
2109.24	23
2110.2	25
2111.17	24.5
2112.13	25.5
2113.09	25.5
2114.05	23.5
2115.02	23.5
2115.98	23
2116.94	26
2117.9	26.5
2118.86	26
2119.83	24
2120.79	27.5
2121.75	21.5
2122.71	23.5
2123.67	23.5
2124.63	25
2125.59	22.5
2126.55	24
2127.51	25.5
2128.47	25.5
2129.43	25.5
2130.39	23.5
2131.35	22.5
2132.31	21.5
2133.27	24
2134.23	21.5
2135.19	24.5
2136.15	20.5
2137.11	21
2138.07	22
2139.03	23.5
2139.99	22
2140.94	20.5
2141.9	23
2142.86	20.0272
2143.82	21.978
2144.78	23.5012
2145.73	24.1075
2146.69	23.4644
2147.65	23.3065
2148.61	22.1046
2149.56	20.6273
2150.52	23.5133
2151.48	24.9395
2152.43	22.1223
2153.39	22.4046
2154.35	22.9479
2155.3	22.1489
2156.26	22.1338
2157.21	22.8527
2158.17	21.5774
2159.13	20.3201
2160.08	21.85
2161.04	22.4701
2161.99	22.1614
2162.95	23.8575
2163.9	22.4675
2164.86	22.0243
2165.81	22.9583
2166.77	20.6422
2167.72	19.7988
2168.67	21.6762
2169.63	23.1933
2170.58	27.2375
2171.54	23.4636
2172.49	22.0481
2173.44	21.5
2174.4	23.1811
2175.35	23.0051
2176.3	23.9832
2177.26	22.0631
2178.21	22.6997
2179.16	19.1457
2180.11	23.3817
2181.07	21.4835
2182.02	22.6032
2182.97	20.8965
2183.92	23.8908
2184.87	22.5121
2185.82	22.4359
2186.78	21.6563
2187.73	22.0552
2188.68	21.959
2189.63	21.2459
2190.58	23.8018
2191.53	21.6418
2192.48	21.7389
2193.43	20.5545
2194.38	22.6481
2195.33	22.9336
2196.28	22.3972
2197.23	23.7949
2198.18	24.9996
2199.13	21.2837
2200.08	20.5874
2201.03	21.1369
2201.98	23.5102
2202.93	21.7221
2203.88	23.6098
2204.83	23.682
2205.77	21.1689
2206.72	20.9162
2207.67	23.4989
2208.62	21.912
2209.57	21.2366
2210.52	20.5284
2211.46	24.6552
2212.41	22.6105
2213.36	22.4933
2214.31	20.2608
2215.25	22.1032
2216.2	23.1612
2217.15	22.513
2218.09	20.9174
2219.04	22.7176
2219.99	25.0615
2220.93	22.8777
2221.88	23.2358
2222.82	20.3777
2223.77	22.824
2224.72	20.9937
2225.66	21.7857
2226.61	20.398
2227.55	23.8194
2228.5	21.6494
2229.44	20.7711
2230.39	22.393
2231.33	21.6955
2232.28	23.5212
2233.22	22.8628
2234.16	22.7607
2235.11	23.6143
2236.05	21.7968
2237	23.0836
2237.94	21.6195
2238.88	23.2399
2239.83	23.1439
2240.13	22.5
2241.08	22
2242.03	20.5
2242.98	22
2243.92	22.5
2244.87	21
2245.82	22.5
2246.76	26.5
2247.71	18
2248.66	23.5
2249.61	22
2250.55	24.5
2251.5	22
2252.45	19
2253.39	21.5
2254.34	23.5
2255.28	19
2256.23	20.5
2257.18	24.5
2258.12	25.5
2259.07	20.5
2260.01	18.5
2260.96	24.5
2261.9	22
2262.85	22
2263.79	23.5
2264.74	25.5
2265.68	21
2266.63	26.5
2267.57	24
2268.51	27
2269.46	22.5
2270.4	23.5
2271.35	25
2272.29	22.5
2273.23	21
2274.18	22.5
2275.12	24.5
2276.06	23.5
2277	24.5
2277.95	25
2278.89	25.5
2279.83	24.5
2280.78	19
2281.72	20.5
2282.66	24
2283.6	23
2284.54	20.5
2285.48	24
2286.43	24.5
2287.37	23.5
2288.31	24.5
2289.25	25
2290.19	25.5
2291.13	24
2292.07	21.5
2293.01	21.5
2293.95	22
2294.89	26.5
2295.83	26
2296.77	23.5
2297.71	19.5
2298.65	23.5
2299.59	22
2300.53	26.5
2301.47	23.5
2302.41	24
2303.35	21.5
2304.29	23.5
2305.22	22
2306.16	22
2307.1	21.5
2308.04	25
2308.98	26
2309.91	25
2310.85	23.5
2311.79	21.5
2312.73	26
2313.66	25
2314.6	23.5
2315.54	26.5
2316.48	19
2317.41	23.5
2318.35	23
2319.29	24
2320.22	23.5
2321.16	23
2322.09	24.5
2323.03	22
2323.97	21.5
2324.9	23
2325.84	23
2326.77	23.5
2327.71	25
2328.64	23
2329.58	26
2330.51	23
2331.45	21
2332.38	24
2333.32	23
2334.25	24
2335.18	24.5
2336.12	22.5
2337.05	24
2337.99	23.5
2338.92	22
2339.85	21
2340.79	22.5
2341.72	26.5
2342.65	26.5
2343.59	23
2344.52	24.5
2345.45	23
2346.38	21.5
2347.32	25.5
2348.25	24
2349.18	27
2350.11	26
2351.04	25.5
2351.98	24
2352.91	20.5
2353.84	23
2354.77	25
2355.7	23.5
2356.63	18.5
2357.56	21.5
2358.49	23
2359.42	20
2360.35	25
2361.28	21.5
2362.21	24
2363.14	20.5
2364.07	25
2365	23
2365.93	21.5
2366.86	23.5
2367.79	26.5
2368.72	21
2369.65	25
2370.58	24.5
2371.51	23.5
2372.44	21.5
2373.36	26
2374.29	23.5
2375.22	22.5
2376.15	23.5
2377.08	24.5
2378	22.5
2378.93	23.5
2379.86	25
2380.79	23.5
2381.71	25
2382.64	24
2383.57	23.5
2384.49	24.5
2385.42	26.5
2386.35	23.5
2387.27	21
2388.2	23
2389.13	18.5
2390.05	20
2390.98	25.5
2391.9	23.5
2392.83	25
2393.76	23
2394.68	20.5
2395.61	24
2396.53	25
2397.46	23.5
2398.38	25
2399.3	21.5
2400.23	27.5
2401.15	20
2402.08	25.5
2403	25
2403.93	24.5
2404.85	23
2405.77	27
2406.7	23
2407.62	24
2408.54	22
2409.47	26.5
2410.39	21
2411.31	22
2412.24	23.5
2413.16	24.5
2414.08	25
2415	24.5
2415.92	22.5
2416.85	26.5
2417.77	23.5
2418.69	24.5
2419.61	22.5
2420.53	24
2421.45	24.5
2422.38	27
2423.3	26.5
2424.22	23.5
2425.14	23.5
2426.06	23
2426.98	25
2427.9	26
2428.82	26
2429.74	24
2430.66	26.5
2431.58	24
2432.5	22
2433.42	25
2434.34	24.5
2435.26	25.5
2436.18	23.5
2437.1	23
2438.01	22
2438.93	23
2439.85	22.5
2440.77	26.5
2441.69	24
2442.61	25
2443.52	21
2444.44	21
2445.36	19.5
2446.28	23
2447.2	27
2448.11	22
2449.03	21.5
2449.95	23
2450.86	22.5
2451.78	26.5
2452.7	22
2453.61	24
2454.53	21.5
2455.45	23
2456.36	27
2457.28	22.5
2458.2	22
2459.11	26.5
2460.03	24.5
2460.94	26.5
2461.86	23
2462.77	26.5
2463.69	24
2464.6	25.5
2465.52	22.5
2466.43	21.5
2467.35	20
2468.26	28
2469.18	26.5
2470.09	24
2471	25
2471.92	24
2472.83	25
2473.74	25.5
2474.66	22
2475.57	21.5
2476.48	26
2477.4	19.5
2478.31	25
2479.22	27
2480.14	21
2481.05	27.5
2481.96	28
2482.87	23.5
2483.79	22.5
2484.7	23.5
2485.61	23
2486.52	21
2487.43	25
2488.34	26.5
2489.25	23
2490.17	27
2491.08	22
2491.99	20
2492.9	23
2493.81	23
2494.72	22
2495.63	27
2496.54	21
2497.45	24
2498.36	26.5
2499.27	25
2500.18	24.5
2501.09	26
2502	22.5
2502.91	29
2503.82	24
2504.73	28.5
2505.63	22
2506.54	26.5
2507.45	30
2508.36	26
2509.27	23
2510.18	28
2511.09	22.5
2511.99	27.5
2512.9	27
2513.81	22
2514.72	24.5
2515.62	22
2516.53	26
2517.44	24
2518.34	23
2519.25	24.5
2520.16	23.5
2521.06	25
2521.97	22
2522.88	23.5
2523.78	21.5
2524.69	22.5
2525.6	25
2526.5	22
2527.41	25
2528.31	23
2529.22	24
2530.12	23
2531.03	27.5
2531.93	23.5
2532.84	24
2533.74	24
2534.65	24.5
2535.55	26.5
2536.46	22.5
2537.36	27
2538.27	22
2539.17	21
2540.07	25
2540.98	25.5
2541.88	23
2542.78	25
2543.69	25.5
2544.59	24
2545.49	22.5
2546.4	24
2547.3	27
2548.2	25
2549.1	24
2550.01	24
2550.91	22
2551.81	27
2552.71	21
2553.61	24
2554.52	23.5
2555.42	24.5
2556.32	22
2557.22	26
2558.12	25.5
2559.02	24.5
2559.92	23.5
2560.82	25.5
2561.72	25
2562.62	25.5
2563.53	23.5
2564.43	25.5
2565.33	27.5
2566.23	24
2567.13	22.5
2568.03	24.5
2568.92	24.5
2569.82	24
2570.72	22
2571.62	25
2572.52	24.5
2573.42	23
2574.32	24.5
2575.22	25
2576.12	23.5
2577.02	25.5
2577.91	23.5
2578.81	25.5
2579.71	25.5
2580.61	29
2581.5	23
2582.4	21
2583.3	26
2584.2	23.5
2585.09	25
2585.99	23
2586.89	25
2587.78	25.5
2588.68	27.5
2589.58	23
2590.47	22.5
2591.37	24
2592.27	24
2593.16	26
2594.06	26
2594.95	24
2595.85	23
2596.75	25
2597.64	22
2598.54	25.5
2599.43	22.5
2600.33	23.5
2601.22	23
2602.12	25
2603.01	25
2603.9	26
2604.8	20.5
2605.69	26.5
2606.59	19.5
2607.48	26.5
2608.37	28.5
2609.27	21
2610.16	22
2611.05	24
2611.95	26.5
2612.84	24
2613.73	24
2614.63	24
2615.52	26.5
2616.41	31
2617.3	24
2618.2	21
2619.09	28.5
2619.98	25.5
2620.87	23
2621.76	22.5
2622.66	25.5
2623.55	25
2624.44	22.5
2625.33	24
2626.22	27.5
2627.11	25.5
2628	26
2628.9	22.5
2629.79	26
2630.68	22
2631.57	29
2632.46	26
2633.35	22.5
2634.24	21.5
2635.13	24.5
2636.02	24
2636.91	26
2637.8	22
2638.68	25
2639.57	22
2640.46	23.5
2641.35	26
2642.24	27
2643.13	22
2644.02	22
2644.91	23
2645.79	23
2646.68	24.5
2647.57	27
2648.46	21.5
2649.35	24
2650.23	22.5
2651.12	19
2652.01	24
2652.9	25
2653.78	28
2654.67	24.5
2655.56	26
2656.44	25
2657.33	25
2658.22	25
2659.1	23
2659.99	25.5
2660.88	24.5
2661.76	27.5
2662.65	22
2663.53	24
2664.42	25
2665.3	27
2666.19	24.5
2667.07	20.5
2667.96	23.5
2668.84	21
2669.73	22
2670.61	23
2671.5	26.5
2672.38	21
2673.27	28
2674.15	24
2675.04	28.5
2675.92	25.5
2676.8	23.5
2677.69	25
2678.57	21
2679.45	27
2680.34	25
2681.22	24
2682.1	26.5
2682.99	25.5
2683.87	23.5
2684.75	22
2685.63	21
2686.52	29
2687.4	28
2688.28	25
2689.16	25.5
2690.04	24
2690.93	26.5
2691.81	26
2692.69	24
2693.57	19
2694.45	21.5
2695.33	23
2696.21	25.5
2697.09	29.5
2697.97	24.5
2698.85	22
2699.74	23
2700.62	23
2701.5	23.5
2702.38	22.5
2703.26	24
2704.14	27.5
2705.02	26
2705.89	23.5
2706.77	24.5
2707.65	20
2708.53	22
2709.41	20.5
2710.29	25
2711.17	23
2712.05	25.5
2712.93	26
2713.8	23
2714.68	24
2715.56	25
2716.44	20
2717.32	26.5
2718.19	24
2719.07	27
2719.95	26
2720.83	24.5
2721.7	24.5
2722.58	22
2723.46	23
2724.33	28
2725.21	21.5
2726.09	23
2726.97	24
2727.84	29.5
2728.72	24
2729.59	24.5
2730.47	24.5
2731.35	25.5
2732.22	27
2733.1	25.5
2733.97	25.5
2734.85	20
2735.72	25.5
2736.6	23
2737.47	24
2738.35	18
2739.22	24
2740.1	24
2740.97	24.5
2741.84	25
2742.72	27.5
2743.59	22
2744.47	24.5
2745.34	26.5
2746.21	23.5
2747.09	20.5
2747.96	26.5
2748.83	25.5
2749.71	26.5
2750.58	23.5
2751.45	26
2752.33	22
2753.2	24.5
2754.07	25.5
2754.94	24.5
2755.82	26
2756.69	28
2757.56	23
2758.43	21
2759.3	24.5
2760.18	24.5
2761.05	24
2761.92	23.5
2762.79	27
2763.66	23
2764.53	25
2765.4	24
2766.27	27.5
2767.14	23.5
2768.01	21
2768.88	29
2769.75	25.5
2770.62	23
2771.49	26
2772.36	28
2773.23	25.5
2774.1	23.5
2774.97	24
2775.84	25.5
2776.71	23
2777.58	26.5
2778.45	23
2779.32	26
2780.19	28.5
2781.06	30
2781.92	26
2782.79	26
2783.66	26
2784.53	25.5
2785.4	24
2786.26	25.5
2787.13	25
2788	22.5
2788.87	23.5
2789.73	28
2790.6	24
2791.47	28
2792.34	24
2793.2	23.5
2794.07	24.5
2794.94	28
2795.8	22.5
2796.67	28
2797.53	23
2798.4	23
2799.27	22
2800.13	25
2801	25.75
2801.86	25.5
2802.73	24
2803.59	27
2804.46	25.5
2805.32	27
2806.19	24.5
2807.05	27
2807.92	24.5
2808.78	24
2809.65	23
2810.51	23
2811.38	26
2812.24	28
2813.1	24
2813.97	27
2814.83	26.5
2815.7	23
2816.56	24.5
2817.42	28
2818.29	27
2819.15	26
2820.01	27.5
2820.87	24.5
2821.74	22
2822.6	24
2823.46	28.5
2824.32	22
2825.19	23
2826.05	24
2826.91	23.5
2827.77	23
2828.63	25.5
2829.5	28
2830.36	27
2831.22	23
2832.08	26
2832.94	25.5
2833.8	26
2834.66	23
2835.52	26
2836.38	26.5
2837.24	30
2838.1	27.5
2838.96	25
2839.82	25
2840.68	24.5
2841.54	24.5
2842.4	23.5
2843.26	28.5
2844.12	24.5
2844.98	26.5
2845.84	23.5
2846.7	27
2847.56	26.5
2848.42	28
2849.28	25.5
2850.14	25
2850.99	25.5
2851.85	26
2852.71	26.5
2853.57	27
2854.43	27
2855.28	28
2856.14	25
2857	26
2857.86	24
2858.71	24
2859.57	27
2860.43	27
2861.28	28
2862.14	28.5
2863	25.5
2863.86	25
2864.71	27
2865.57	30
2866.42	28.5
2867.28	28.5
2868.14	29.5
2868.99	22
2869.85	28.5
2870.7	31
2871.56	25.5
2872.41	28.5
2873.27	30
2874.13	28.5
2874.98	28
2875.83	30
2876.69	31
2877.54	29.5
2878.4	29.5
2879.25	31
2880.11	30
2880.96	29.5
2881.81	29.5
2882.67	31
2883.52	33.5
2884.38	35
2885.23	31.5
2886.08	32.5
2886.94	34
2887.79	34
2888.64	35
2889.5	34.5
2890.35	39
2891.2	39.5
2892.05	39.5
2892.91	41
2893.76	40
2894.61	43.5
2895.46	47
2896.31	49
2897.17	52
2898.02	50
2898.87	50.5
2899.72	53
2900.57	59.5
2901.42	56
2902.27	61
2903.12	63
2903.98	62.5
2904.83	73.5
2905.68	67
2906.53	65.5
2907.38	69.5
2908.23	67
2909.08	66.5
2909.93	64.5
2910.78	51
2911.63	59.5
2912.48	51
2913.33	49.5
2914.18	53
2915.02	49.5
2915.87	44
2916.72	39
2917.57	42
2918.42	43
2919.27	37
2920.12	39.5
2920.97	38.5
2921.81	32.5
2922.66	30.5
2923.51	34
2924.36	34.5
2925.21	34.5
2926.05	28
2926.9	28.5
2927.75	27.5
2928.59	26.5
2929.44	30
2930.29	24
2931.14	26
2931.98	24.5
2932.83	31
2933.68	29.5
2934.52	29
2935.37	28
2936.21	29
2937.06	29.5
2937.91	27
2938.75	34
2939.6	29
2940.44	26.5
2941.29	27.5
2942.14	27
2942.98	29.5
2943.82	27
2944.67	29
2945.51	29
2946.36	28.5
2947.2	31
2948.05	28.5
2948.89	30
2949.74	26.5
2950.58	28.5
2951.43	33.5
2952.27	33
2953.11	32.5
2953.96	33.5
2954.8	27.5
2955.64	34.5
2956.49	29.5
2957.33	33.5
2958.17	37
2959.02	39.5
2959.86	40
2960.7	38.5
2961.54	40
2962.39	41
2963.23	42.5
2964.07	43
2964.91	45.5
2965.75	44.5
2966.6	39.5
2967.44	40.5
2968.28	42.5
2969.12	41
2969.96	41.5
2970.8	41
2971.64	33.4951
2972.48	38.3917
2973.33	38.4798
2974.17	35.5045
2975.01	37.8496
2975.85	32.5067
2976.69	32.8508
2977.53	28.477
2978.37	31.1327
2979.21	29.3578
2980.05	26.927
2980.89	27.8298
2981.73	31.1602
2982.57	30.1511
2983.41	29.5484
2984.25	29.3784
2985.08	31.1481
2985.92	28.0555
2986.76	24.678
2987.6	26.1497
2988.44	30.346
2989.28	22.3075
2990.12	27.828
2990.96	24.5377
2991.79	24.3225
2992.63	25.402
2993.47	24.8267
2994.31	24.0956
2995.14	22.6554
2995.98	25.9085
2996.82	24.8943
2997.66	25.7953
2998.49	24.8537
2999.33	26.3246
3000.17	22.1112
3001	23.8041
3001.84	24.2001
3002.68	23.6517
3003.51	24.22
3004.35	25.2266
3005.19	21.7841
3006.02	25.5872
3006.86	24.1768
3007.7	26.0117
3008.53	24.8519
3009.37	23.7209
3010.2	21.8781
3011.04	23.0682
3011.87	24.0501
3012.71	23.3483
3013.54	23.7984
3014.38	23.7509
3015.21	23.8467
3016.05	23.8361
3016.88	21.5
3017.72	22.3724
3018.55	22.365
3019.39	22.1892
3020.22	23.0501
3021.05	22.6182
3021.89	21.8568
3022.72	19.036
3023.55	22.2831
3024.39	23.4628
3025.22	23.3213
3026.05	22.851
3026.89	23.0066
3027.72	24.3107
3028.55	23.2332
3029.39	22.301
3030.22	22.5962
3031.05	22.2379
3031.88	23.4439
3032.72	22.6934
3033.55	24.6878
3034.38	23.508
3035.21	22.9164
3036.04	22.0801
3036.88	22.7379
3037.71	23.6411
3038.54	23.318
3039.37	23.2796
3040.2	21.8114
3041.03	21.8668
3041.86	23.6062
3042.69	22.3398
3043.52	23.6662
3044.36	23.7041
3045.19	22.4368
3046.02	23.0056
3046.85	23.1296
3047.68	21.6453
3048.51	22.4218
3049.34	23.6585
3050.17	25.1735
3051	24.3906
3051.83	22.9553
3052.66	24.7318
3053.48	23.8287
3054.31	21.4274
3055.14	21.0243
3055.97	21.2438
3056.8	22.3148
3057.29	23.5
3058.12	20.5
3058.95	21.5
3059.79	22
3060.62	19
3061.45	21
3062.29	22
3063.12	24.5
3063.95	26.5
3064.78	24
3065.62	24
3066.45	22.5
3067.28	23
3068.11	24.5
3068.94	23
3069.77	17
3070.61	19
3071.44	20
3072.27	23.5
3073.1	24.5
3073.93	25
3074.76	24
3075.59	22
3076.42	23.5
3077.25	23.5
3078.08	21.5
3078.92	25
3079.74	22
3080.57	23
3081.41	25
3082.24	23
3083.06	21
3083.89	21
3084.72	22.5
3085.55	24.5
3086.38	22
3087.21	20
3088.04	21
3088.87	22
3089.7	20
3090.53	27.5
3091.36	22
3092.18	22
3093.01	24
3093.84	19.5
3094.67	24.5
3095.5	22
3096.32	23.5
3097.15	24.5
3097.98	25.5
3098.81	24
3099.64	26
3100.46	26.5
3101.29	22
3102.12	28
3102.94	21
3103.77	22.5
3104.6	24.5
3105.42	20
3106.25	24.5
3107.08	20
3107.9	22
3108.73	25.5
3109.56	24.5
3110.38	23
3111.21	21
3112.03	26.5
3112.86	22.5
3113.68	23
3114.51	22.5
3115.33	25
3116.16	20.5
3116.98	23
3117.81	19.5
3118.63	21.5
3119.46	22
3120.28	24
3121.11	23.5
3121.93	23
3122.76	24
3123.58	22
3124.4	23.5
3125.23	25
3126.05	22.5
3126.87	22
3127.7	23
3128.52	23
3129.34	22.5
3130.17	18.5
3130.99	24
3131.81	25.5
3132.64	23
3133.46	23
3134.28	23.5
3135.1	25.5
3135.93	25
3136.75	17
3137.57	23.5
3138.39	23
3139.21	24
3140.04	25.5
3140.86	22
3141.68	23.5
3142.5	20.5
3143.32	26
3144.14	23
3144.96	22
3145.78	23
3146.61	19
3147.43	22
3148.25	20
3149.07	26
3149.89	23
3150.71	22
3151.53	24
3152.35	23
3153.17	21.5
3153.99	25.5
3154.81	25.5
3155.63	23
3156.45	23.5
3157.27	24
3158.08	23
3158.9	22.5
3159.72	25.5
3160.54	25.5
3161.36	25
3162.18	22
3163	23
3163.82	26.5
3164.63	24.5
3165.45	25
3166.27	23
3167.09	22.5
3167.91	22
3168.72	22
3169.54	23.5
3170.36	24
3171.18	26.5
3171.99	22
3172.81	24.5
3173.63	23
3174.44	24
3175.26	22.5
3176.08	27
3176.89	21
3177.71	19
3178.53	24.5
3179.34	26
3180.16	25
3180.97	23
3181.79	25
3182.61	25.5
3183.42	20.5
3184.24	23
3185.05	24
3185.87	26.5
3186.68	24
3187.5	21
3188.31	21
3189.13	22.5
3189.94	25
3190.76	19.5
3191.57	27.5
3192.39	23
3193.2	25.5
3194.02	22
3194.83	21
3195.64	25.5
3196.46	21.5
3197.27	25.5
3198.08	19
3198.9	19
3199.71	22.5
3200.52	24
3201.34	24.5
3202.15	26.5
3202.96	24
3203.78	24.5
3204.59	20.5
3205.4	22.5
3206.21	25
3207.03	20
3207.84	24
3208.65	27.5
3209.46	26.5
3210.27	22.5
3211.09	23.5
3211.9	23.5
3212.71	24.5
3213.52	25.5
3214.33	24
3215.14	26
3215.95	21
3216.77	25
3217.58	21.5
3218.39	24.5
3219.2	24.5
3220.01	27.5
3220.82	22.5
3221.63	23
3222.44	19
3223.25	25
3224.06	24.5
3224.87	24.5
3225.68	20.5
3226.49	26
3227.3	21
3228.11	21
3228.92	28
3229.73	26
3230.53	26.5
3231.34	25
3232.15	19
3232.96	26
3233.77	24.5
3234.58	25
3235.39	25
3236.19	20
3237	28
3237.81	26
3238.62	25
3239.43	25
3240.23	17
3241.04	24
3241.85	23.5
3242.66	24
3243.46	20
3244.27	26.5
3245.08	19
3245.89	24.5
3246.69	24.5
3247.5	24.5
3248.31	24.5
3249.11	21
3249.92	19.5
3250.72	23
3251.53	24
3252.34	24.5
3253.14	26.5
3253.95	25
3254.75	24.5
3255.56	18.5
3256.36	25
3257.17	20.5
3257.98	29
3258.78	23
3259.59	22
3260.39	26
3261.19	23.5
3262	22.5
3262.8	24
3263.61	29
3264.41	25.5
3265.22	27
3266.02	21
3266.83	22.5
3267.63	22.5
3268.43	26
3269.24	21.5
3270.04	24
3270.84	22
3271.65	27
3272.45	22.5
3273.25	21
3274.06	23
3274.86	22.5
3275.66	22
3276.46	25.5
3277.27	25.5
3278.07	26.5
3278.87	27.5
3279.67	21.5
3280.48	22
3281.28	26
3282.08	23
3282.88	22
3283.68	22
3284.48	24
3285.29	22
3286.09	22
3286.89	24.5
3287.69	23.5
3288.49	23
3289.29	26
3290.09	24
3290.89	25
3291.69	21.5
3292.49	23
3293.29	26.5
3294.09	22
3294.89	28
3295.69	25
3296.49	28
3297.29	26
3298.09	25
3298.89	25.5
3299.69	20
3300.49	19
3301.29	21.5
3302.09	25
3302.89	21.5
3303.69	26
3304.49	23.5
3305.28	24
3306.08	26
3306.88	24
3307.68	20
3308.48	24.5
3309.28	23.5
3310.07	21
3310.87	21
3311.67	21
3312.47	26
3313.26	22.5
3314.06	23.5
3314.86	21.5
3315.66	22
3316.45	23
3317.25	23
3318.05	24
3318.84	25
3319.64	21.5
3320.44	23.5
3321.23	20
3322.03	23.5
3322.83	26
3323.62	21.5
3324.42	23.5
3325.21	20.5
3326.01	23
3326.81	23
3327.6	27
3328.4	21.5
3329.19	24.5
3329.99	24.5
3330.78	22.5
3331.58	22.5
3332.37	22.5
3333.17	23.5
3333.96	20.5
3334.76	25.5
3335.55	22
3336.34	26.5
3337.14	21
3337.93	26.5
3338.73	23
3339.52	20
3340.31	23.5
3341.11	23
3341.9	21
3342.69	24
3343.49	24
3344.28	26
3345.07	23
3345.87	23
3346.66	23.5
3347.45	23
3348.25	27
3349.04	26.5
3349.83	24
3350.62	20
3351.42	22
3352.21	24
3353	23
3353.79	27.5
3354.58	24.5
3355.37	24.5
3356.17	24
3356.96	17
3357.75	24
3358.54	24
3359.33	23.5
3360.12	24
3360.91	24
3361.7	18
3362.49	22
3363.29	21
3364.08	25.5
3364.87	23.5
3365.66	24
3366.45	28
3367.24	23.5
3368.03	25
3368.82	20.5
3369.61	25.5
3370.4	26.5
3371.19	23
3371.97	22.5
3372.76	23
3373.55	19.5
3374.34	24.5
3375.13	21.5
3375.92	27.5
3376.71	19.5
3377.5	23
3378.29	23.5
3379.07	20
3379.86	25
3380.65	24
3381.44	26.5
3382.23	25
3383.01	22.5
3383.8	27.5
3384.59	24.5
3385.38	24.5
3386.16	24.5
3386.95	24.5
3387.74	23.5
3388.53	24
3389.31	19
3390.1	26.5
3390.89	21
3391.67	25
3392.46	22.5
3393.25	23.5
3394.03	20.5
3394.82	21
3395.6	25
3396.39	20.5
3397.18	26.5
3397.96	24
3398.75	27.5
3399.53	22.5
3400.32	26
3401.1	22
3401.89	22
3402.67	23.5
3403.46	27
3404.24	26
3405.03	22
3405.81	24
3406.6	21
3407.38	26.5
3408.17	23
3408.95	23.5
3409.74	26
3410.52	23
3411.3	19
3412.09	27
3412.87	28.5
3413.65	27.5
3414.44	26
3415.22	22.5
3416	25.5
3416.79	23.5
3417.57	23.5
3418.35	24
3419.14	23
3419.92	24
3420.7	21.5
3421.48	26
3422.27	25.5
3423.05	22.5
3423.83	23.5
3424.61	27
3425.4	18
3426.18	23
3426.96	25
3427.74	28
3428.52	27
3429.3	23
3430.08	27
3430.87	28
3431.65	22.5
3432.43	24
3433.21	26.5
3433.99	23
3434.77	25.5
3435.55	24.5
3436.33	26
3437.11	23.5
3437.89	21
3438.67	23
3439.45	24
3440.23	24.5
3441.01	21.5
3441.79	20
3442.57	24.5
3443.35	25.5
3444.13	27.5
3444.91	26.5
3445.69	27.5
3446.47	25.5
3447.25	28.5
3448.03	23.5
3448.8	27.5
3449.58	23
3450.36	24.5
3451.14	28.5
3451.92	27.5
3452.7	25
3453.47	24.5
3454.25	18.5
3455.03	24.5
3455.81	21.5
3456.59	25
3457.36	27.5
3458.14	22
3458.92	25
3459.69	25
3460.47	19.5
3461.25	22
3462.03	24.5
3462.8	25
3463.58	25
3464.36	24.5
3465.13	27
3465.91	25
3466.69	27.5
3467.46	24.5
3468.24	25.5
3469.01	24
3469.79	26
3470.57	21
3471.34	23.5
3472.12	25
3472.89	24.5
3473.67	25
3474.44	23
3475.22	24.5
3475.99	25
3476.77	22
3477.54	23
3478.32	22.5
3479.09	26
3479.87	25
3480.64	19.5
3481.41	23.5
3482.19	24
3482.96	25
3483.74	25.5
3484.51	23.5
3485.28	22
3486.06	25
3486.83	23
3487.6	22.5
3488.38	26
3489.15	24.5
3489.92	23
3490.7	23.5
3491.47	29.5
3492.24	21.5
3493.01	22.5
3493.79	27.5
3494.56	25.5
3495.33	24.5
3496.1	26
3496.88	24
3497.65	24.5
3498.42	24
3499.19	20.5
3499.96	22
