#Acq. time (s)=	5
#Accumulations=	5
#Range (cm-¹)=	100...3500
#Windows=	4
#Autofocus=	Off
#AutoExposure=	Off
#Spike filter=	Multiple accum.
#Delay time (s)=	0
#Binning=	1
#Readout mode=	Signal
#DeNoise=	Off
#ICS correction=	Off
#Dark correction=	Off
#Inst. Process=	Off
#Instrument=	LabRAM HR Evol
#Detector=	Syncerity OE
#Objective=	x100_VIS
#Grating=	600 (500nm)
#ND Filter=	25%
#Laser=	633nm_Edge
#Hole=	100.021
#Range=	Visible
#Project=	verificaciones
#Sample=	at4
#Site=	plain
#Title=	bolusat4plain
#Remark=	com
#Date=	16.01.2026 17:58
#Acquired=	16.01.2026 17:58:28
100.564	25.5
101.847	31.5
103.131	27.5
104.414	28.5
105.697	27.5
106.979	34
108.262	27
109.544	26.5
110.826	27.5
112.109	28.5
113.391	31
114.672	29.5
115.954	33
117.235	27
118.515	30
119.796	29
121.076	28
122.357	31.5
123.637	33.5
124.916	28
126.196	34.5
127.475	30
128.754	33
130.033	28
131.31	34
132.589	32.5
133.867	34
135.145	32
136.423	40.5
137.701	34
138.978	37
140.256	32.5
141.533	33.5
142.809	33.5
144.086	33
145.361	36.5
146.637	37.5
147.913	39
149.189	39
150.464	38.5
151.74	40
153.014	40.5
154.288	37
155.563	39
156.838	42
158.112	39
159.385	37
160.659	40
161.932	38.5
163.206	37
164.479	38.5
165.751	36
167.024	37
168.296	38
169.567	39.5
170.84	36.5
172.112	40
173.383	36
174.654	37
175.925	39
177.196	41.5
178.466	41
179.737	38.5
181.007	34
182.276	39.5
183.546	38.5
184.816	35
186.085	39.5
187.354	41
188.624	38
189.891	37
191.16	42
192.427	43.5
193.696	36
194.964	39
196.231	41
197.499	36
198.765	35
200.033	38
201.298	42.5
202.566	35.5
203.831	38
205.098	35
206.363	36.5
207.629	36
208.894	34
210.159	39
211.424	36
212.689	34.5
213.953	32.5
215.218	31.5
216.481	34
217.746	30
219.009	30
220.273	34
221.536	32.5
222.798	27.5
224.062	33
225.323	34
226.587	33
227.848	31
229.109	30
230.372	32.5
231.633	30
232.894	29.5
234.156	31.5
235.416	31.5
236.678	33
237.937	32
239.197	29
240.457	32
241.717	32.5
242.976	24
244.235	30
245.495	30.5
246.754	35.5
248.012	28.5
249.27	29
250.529	29
251.787	32.5
253.045	27
254.302	30.5
255.56	28
256.817	26
258.074	30.5
259.33	30
260.586	29
261.844	33
263.1	28
264.355	31
265.611	27
266.866	29
268.121	26.5
269.377	26
270.632	29
271.886	24.5
273.14	26.5
274.394	25.5
275.648	29
276.902	31
278.155	31.5
279.408	29
280.663	28.5
281.915	27
283.168	30.5
284.42	31.5
285.673	30
286.925	28
288.176	28.5
289.428	32
290.679	31
291.93	29
293.181	27
294.432	29
295.683	30
296.933	27.5
298.183	24
299.433	27
300.683	28.5
301.932	31
303.182	28.5
304.429	28
305.678	26
306.927	29.5
308.176	27
309.424	28
310.672	28.5
311.92	24.5
313.168	29
314.415	27
315.661	33.5
316.908	31
318.155	26.5
319.402	35
320.648	30.5
321.895	24
323.139	31
324.385	27
325.631	29.5
326.877	25.5
328.122	26.5
329.366	26.5
330.611	28
331.855	28.5
333.1	27
334.343	25.5
335.587	27
336.831	27
338.074	27
339.317	29
340.56	27
341.803	27.5
343.044	29.5
344.287	24.5
345.53	27
346.771	30.5
348.013	28
349.255	29
350.495	30.5
351.736	23.5
352.978	32
354.217	33
355.458	29.5
356.699	28.5
357.938	24.5
359.178	24.5
360.417	27
361.657	24
362.895	29.5
364.135	26.5
365.374	23
366.612	33
367.851	28
369.088	30.5
370.327	32.5
371.564	32.5
372.802	28
374.038	25.5
375.276	29.5
376.512	24
377.749	27.5
378.985	24
380.222	29
381.457	28
382.692	28
383.929	27
385.164	27
386.4	24
387.634	25.5
388.869	26.5
390.103	26.5
391.337	25.5
392.572	31
393.805	28
395.038	30
396.273	25
397.506	29.5
398.74	30
399.972	30
401.204	28
402.437	33
403.669	24
404.901	26
406.132	28
407.365	27
408.596	25
409.826	27.5
411.058	29
412.289	30
413.519	24.5
414.749	27.5
415.98	27.5
417.21	26
418.439	25.5
419.668	27
420.897	29
422.128	23
423.356	31
424.585	28.5
425.813	25.5
427.041	29
428.269	32
429.498	27
430.725	25.5
431.952	24.5
433.179	29.5
434.406	31.5
435.633	27.5
436.859	25
438.085	26.5
439.312	27.5
440.537	30
441.764	30
442.99	28
444.215	29.5
445.44	27
446.665	30.5
447.89	28.5
449.114	32
450.339	27
451.563	30
452.787	30.5
454.01	29
455.234	28.5
456.457	27.5
457.68	28
458.903	29.5
460.126	29
461.348	29
462.569	29.5
463.792	31
465.013	31.5
466.235	28
467.457	32.5
468.678	29.5
469.899	33
471.12	32
472.341	36
473.56	32
474.781	37.5
476.001	39.5
477.221	43.5
478.441	38.5
479.66	45
480.878	46.5
482.098	51.5
483.317	48.5
484.535	57
485.754	55.5
486.971	55.5
488.189	53.5
489.407	58
490.625	55.5
491.842	59
493.059	54
494.276	52.5
495.493	55.5
496.709	52
497.926	46
499.142	46
500.357	43
501.573	41.5
502.789	41
504.003	43.5
505.219	37
506.434	36.5
507.648	38
508.863	35.5
510.078	36.5
511.291	34.5
512.505	35
513.718	29
514.932	32.5
516.145	34.5
517.358	27
518.572	32
519.783	34.5
520.997	28
522.208	28.5
523.421	31
524.632	32
525.844	29
527.055	27.5
528.266	33
529.477	26
530.688	29.5
531.898	31
533.109	25.5
534.319	28.5
535.53	27
536.739	33
537.948	28
539.158	26.5
540.366	27.5
541.576	29
542.784	29
543.994	27
545.201	26.5
546.409	31
547.618	26
548.825	25.5
550.032	28
551.24	28
552.447	34
553.654	24.5
554.861	29
556.067	30
557.273	27.5
558.48	28.5
559.686	26
560.891	26.5
562.096	29
563.302	28.5
564.507	27.5
565.712	32
566.916	29
568.122	29
569.326	27.5
570.529	28
571.733	30.5
572.936	30
574.141	25
575.344	26.5
576.547	28.5
577.75	28
578.952	25
580.154	29.5
581.358	30
582.56	29
583.761	29.5
584.963	27.5
586.164	30.5
587.365	25.5
588.566	29
589.767	29
590.967	26
592.168	31.5
593.369	25
594.569	30
595.769	29
596.969	23.5
598.168	27
599.367	28
600.566	29
601.765	28
602.964	27
604.162	28
605.361	27
606.559	29
607.757	25.5
608.953	30
610.151	28.5
611.348	32
612.545	27
613.742	27.5
614.939	26
616.135	28.5
617.332	25.5
618.528	26.5
619.724	29.5
620.918	29
622.114	29.5
623.309	25.5
624.505	28
625.7	29.5
626.895	28
628.088	27.5
629.282	24.5
630.477	27
631.671	27.5
632.865	26.5
634.057	29
635.251	30.5
636.444	29
637.637	28
638.829	30.5
640.022	26.5
641.214	29
642.407	30
643.598	29
644.79	28.5
645.982	28
647.172	31
648.364	28
649.555	27.5
650.745	28
651.936	30
653.126	26
654.315	26
655.506	27
656.696	27
657.885	29
659.074	27.5
660.263	27
661.452	29
662.64	32.5
663.829	30
665.018	31
666.205	27.5
667.394	29
668.581	28.5
669.769	34.5
670.955	30
672.143	33.5
673.329	30.5
674.517	27
675.703	32
676.89	32.5
678.075	33.5
679.262	31
680.447	33
681.632	33.5
682.818	33
684.002	30.5
685.188	33.5
686.372	31.5
687.556	35.5
688.741	36
689.925	29.5
691.11	28
692.293	28.5
693.476	34
694.66	35
695.843	36.5
697.025	36
698.209	30.5
699.391	32
700.573	33.5
701.756	38.5
702.938	39
704.119	41.5
705.3	43
706.483	50.5
707.664	48
708.844	52
710.025	50.5
711.206	49.5
712.386	42
713.566	41.5
714.746	35
715.925	36.5
717.106	30
718.285	31.5
719.464	28
720.643	35
721.822	28.5
723	26.5
724.178	31
725.358	28
726.536	30.5
727.713	26
728.891	33
730.068	29.5
731.245	29
732.422	32
733.599	29
734.775	26.5
735.952	27
737.128	28
738.304	29
739.48	26.5
740.656	31
741.831	28
743.006	32
744.181	28.5
745.356	27
746.531	29
747.706	31
748.88	31
750.054	27
751.228	31.5
752.402	29
753.576	30.5
754.749	31.5
755.922	26
757.095	27
758.267	29
759.44	27.5
760.612	29
761.785	26.5
762.957	23
764.129	31.5
765.301	31
766.471	28
767.642	27
768.814	26
769.985	25.5
771.156	29
772.325	24
773.495	27.5
774.666	30.5
775.836	29
777.005	30.5
778.174	29.5
779.344	29.5
780.513	27.5
781.681	32.5
782.85	33.5
784.019	32.5
785.187	27.5
786.355	29.5
787.523	32.5
788.69	34
789.858	29
791.026	31
792.192	26
793.36	33
794.526	27
795.693	26
796.86	28
798.025	33
799.191	31
800.356	29
801.523	28
802.689	26
803.853	28
805.019	25
806.183	25
807.348	27.5
808.512	27.5
809.677	26
810.84	27.5
812.005	29.5
813.167	28
814.332	28
815.494	28.5
816.657	27.5
817.82	27
818.982	27
820.146	25.5
821.307	27.5
822.47	26
823.632	27.5
824.793	28.5
825.955	24
827.116	20
828.277	28.5
829.439	24.5
830.599	28
831.759	30.5
832.92	33.5
834.08	29.5
835.24	27
836.4	25.5
837.56	29.5
838.719	29
839.877	24
841.037	29
842.196	29
843.354	22
844.512	26
845.672	28.5
846.83	26.5
847.987	24
849.145	22
850.302	26
851.46	30
852.617	25
853.774	24.5
854.93	28
856.087	32
857.243	30
858.4	27.5
859.556	28.5
860.712	30.5
861.867	29
863.022	34.5
864.177	25.5
865.332	31
866.487	23.5
867.642	30
868.796	26
869.95	26
871.104	31
872.258	31
873.412	27
874.565	28.5
875.718	27.5
876.872	30
878.024	26.5
879.177	28
880.33	25
881.482	30.5
882.635	26.5
883.787	26
884.938	30
886.09	26
887.242	21
888.393	24.5
889.544	27.5
890.695	24
891.845	27
892.995	28
894.146	23
895.296	30
896.446	29.5
897.596	26
898.744	29
899.894	26.5
901.043	26.5
902.193	29.5
903.342	27
904.489	25.5
905.638	27.5
906.786	21.5
907.935	27
909.081	29
910.229	26
911.377	27
912.525	27.5
913.671	24
914.818	26
915.965	25
917.111	25
918.258	26
919.404	29
920.549	25
921.695	26
922.84	25
923.986	27
925.132	27
926.276	24.5
927.421	25
928.565	25
929.71	30
930.855	20.5
931.998	23.5
933.142	26.5
934.285	25
935.429	24.5
936.572	24
937.716	28
938.858	26
940.001	26.5
941.143	30.5
942.286	26.5
943.428	24
944.57	23.5
945.712	22.5
946.854	27
947.995	26
949.135	23
950.277	26
951.418	27.5
952.559	21.5
953.699	21.5
954.839	23.5
955.98	25
957.119	26
958.258	25.5
959.399	23.5
960.538	26
961.676	27.5
962.816	26
963.955	25.5
965.093	25
966.232	21
967.37	27
968.508	23
969.645	26.5
970.784	25
971.921	22
973.058	27.5
974.195	23.5
975.333	22
976.469	26.5
977.605	25.5
978.741	24
979.877	25.5
981.013	27
982.15	32
983.285	28.5
984.421	24.5
985.556	22.5
986.691	26
987.825	24
988.96	25.5
990.094	26
991.228	26
992.364	25.5
993.497	27
994.631	28
995.765	25.5
996.898	25
998.031	20.5
999.164	23.5
1000.3	25
1001.43	24
1002.56	22
1003.69	25
1004.83	27.5
1005.96	27
1007.09	28
1008.22	25.5
1009.35	24.5
1010.48	25
1011.61	24
1012.74	30
1013.88	24
1015.01	26
1016.14	26
1017.27	21.5
1018.4	27
1019.53	26
1020.65	23
1021.78	27.5
1022.91	26
1024.04	25
1025.17	25
1026.3	22
1027.43	25
1028.56	30.5
1029.68	23.5
1030.81	26
1031.94	21.5
1033.07	23
1034.19	26
1035.32	25.5
1036.45	26
1037.58	27
1038.7	24.5
1039.83	27.5
1040.95	23
1042.08	21
1043.21	24
1044.33	24
1045.46	24
1046.58	23.5
1047.71	27
1048.83	25
1049.96	28
1051.08	23
1052.21	26.5
1053.33	27
1054.45	24
1055.58	26
1056.7	27
1057.82	23.5
1058.95	24
1060.07	25.5
1061.19	23
1062.32	23.5
1063.44	24
1064.56	25
1065.68	27.5
1066.81	26
1067.93	22
1069.05	23
1070.17	22.5
1071.29	27
1072.41	23
1073.53	29
1074.65	24
1075.77	25.5
1076.89	26
1078.01	22.5
1079.13	24.5
1080.25	25
1081.37	29
1082.49	23
1083.61	25.5
1084.73	24
1085.85	25
1086.97	27.5
1088.09	24
1089.2	25
1090.32	26.5
1091.44	22
1092.56	22
1093.68	27.5
1094.79	23.5
1095.91	27.5
1097.03	25.5
1098.14	21
1099.26	24.5
1100.38	25
1101.49	26.5
1102.61	26
1103.73	22.5
1104.84	25
1105.96	25
1107.07	26
1108.19	24
1109.3	22
1110.42	22.5
1111.53	23
1112.65	26.5
1113.76	27
1114.88	27
1115.99	29
1117.1	27
1118.22	24
1119.33	23
1120.44	26.5
1121.56	26
1122.67	26.5
1123.78	24.5
1124.89	22
1126.01	22.5
1127.12	25
1128.23	23
1129.34	23
1130.45	26
1131.56	26.5
1132.67	27
1133.79	25.5
1134.9	25
1136.01	22
1137.12	24.5
1138.23	20.5
1139.34	23.5
1140.45	26.5
1141.56	23.5
1142.67	25
1143.78	21
1144.89	21
1145.99	27
1147.1	29
1148.21	24.5
1149.32	25
1150.43	23.5
1151.54	25
1152.65	25.5
1153.75	26
1154.86	25.5
1155.97	26
1157.08	24.5
1158.18	24.5
1159.29	28
1160.4	27
1161.5	22.5
1162.61	24
1163.72	27.5
1164.82	27
1165.93	24.5
1167.03	25.5
1168.14	26
1169.24	23
1170.35	23
1171.45	23.5
1172.56	25
1173.66	30
1174.77	26.5
1175.87	26
1176.98	26.5
1178.08	23
1179.18	24.5
1180.29	23
1181.39	25.5
1182.49	24
1183.6	27
1184.7	25
1185.8	24.5
1186.9	23
1188	20.5
1189.11	23
1190.21	23
1191.31	24.5
1192.41	22.5
1193.51	24
1194.61	23.4927
1195.72	23.9809
1196.82	22.6141
1197.92	23.0758
1199.02	25.0656
1200.12	26.2836
1201.22	25.7572
1202.32	24.8908
1203.42	24.4099
1204.52	20.6884
1205.62	19.3994
1206.71	23.781
1207.81	25.1359
1208.91	22.4912
1210.01	22.7799
1211.11	19.2648
1212.21	22.8793
1213.31	22.1096
1214.4	26.7386
1215.5	25.6488
1216.6	24.2311
1217.7	24.9631
1218.79	23.7298
1219.89	25.7236
1220.99	22.8241
1222.08	21.1255
1223.18	26.9786
1224.28	22.1001
1225.37	24.4446
1226.47	23.4988
1227.56	25.9895
1228.66	24.2556
1229.76	26.1963
1230.85	23.8252
1231.95	24.0055
1233.04	24.975
1234.14	24.988
1235.23	24.167
1236.32	24.9096
1237.42	25.4668
1238.51	25.5653
1239.61	23.3932
1240.7	22.8978
1241.79	26.1068
1242.89	23.7786
1243.98	24.0096
1245.07	23.6625
1246.17	21.8457
1247.26	22.3946
1248.35	21.2072
1249.44	22.9269
1250.53	24.0577
1251.63	27.3499
1252.72	26.5846
1253.81	26.3331
1254.9	25.8029
1255.99	24.3714
1257.08	26.7896
1258.17	24.6905
1259.27	24.6997
1260.36	26.2349
1261.45	26.751
1262.54	26.0816
1263.63	28.4369
1264.72	23.4158
1265.81	26.731
1266.89	26.3498
1267.98	24.2302
1269.07	26.1039
1270.16	21.7504
1271.25	21.4447
1272.34	22.9645
1273.43	25.8865
1274.52	23.2515
1275.6	26.0889
1276.69	24.336
1277.78	22.2807
1278.87	25.2861
1279.95	23.8977
1281.04	22.3086
1282.13	21.5659
1283.22	22.4827
1284.3	23.1939
1285.39	25.649
1286.48	23.6127
1287.56	24.2362
1288.65	25.1796
1289.73	23.3203
1290.82	22.921
1291.9	22.762
1292.99	26.036
1294.07	25.0212
1295.16	25.1782
1296.24	24.1985
1297.33	23.0413
1298.41	24.0033
1299.5	25.2742
1300.58	25.8932
1301.66	25.3312
1302.75	24.7375
1303.83	25.1161
1304.91	24.5345
1306	24.3254
1306.4	24.5
1307.48	23
1308.57	28.5
1309.66	24
1310.75	24
1311.84	24.5
1312.92	23
1314.01	25
1315.1	21.5
1316.18	26
1317.27	24
1318.36	25.5
1319.44	24.5
1320.53	25.5
1321.62	26
1322.7	24.5
1323.79	23
1324.87	23.5
1325.96	24
1327.04	22
1328.13	20
1329.21	25
1330.3	24.5
1331.38	19
1332.47	23
1333.55	24
1334.64	25
1335.72	22
1336.8	25
1337.89	22
1338.97	24
1340.05	26
1341.14	21.5
1342.22	27
1343.3	23.5
1344.38	22
1345.47	22.5
1346.55	23
1347.63	28
1348.71	25.5
1349.79	26.5
1350.87	21.5
1351.96	25.5
1353.04	24.5
1354.12	21
1355.2	25.5
1356.28	20
1357.36	19
1358.44	23
1359.52	28
1360.6	23
1361.68	25.5
1362.76	24
1363.84	25
1364.92	24
1366	25
1367.07	25.5
1368.15	26
1369.23	23
1370.31	25
1371.39	24
1372.47	20.5
1373.54	27
1374.62	25
1375.7	28
1376.78	27
1377.85	25
1378.93	23.5
1380.01	24
1381.08	23
1382.16	24
1383.24	20.5
1384.31	24.5
1385.39	26.5
1386.46	28.5
1387.54	28
1388.61	27.5
1389.69	30
1390.76	24.5
1391.84	29.5
1392.91	23
1393.99	24
1395.06	22
1396.14	22
1397.21	23
1398.29	27.5
1399.36	32
1400.43	27.5
1401.51	29.5
1402.58	29
1403.65	30
1404.72	28.5
1405.8	29.5
1406.87	31.5
1407.94	27
1409.02	32
1410.09	30
1411.16	29
1412.23	29.5
1413.3	29.5
1414.37	34.5
1415.44	31.5
1416.51	30.5
1417.59	32
1418.66	30.5
1419.73	26.5
1420.8	28
1421.87	24.5
1422.94	26
1424.01	27.5
1425.08	30
1426.15	29
1427.22	26
1428.28	29.5
1429.35	25.5
1430.42	25.5
1431.49	28.5
1432.56	23
1433.63	28.5
1434.7	21
1435.76	24
1436.83	26.5
1437.9	29
1438.97	26.5
1440.03	26
1441.1	25.5
1442.17	30.5
1443.23	22.5
1444.3	25.5
1445.37	25
1446.43	28
1447.5	25
1448.57	27
1449.63	24
1450.7	26
1451.76	23.5
1452.83	26
1453.89	27
1454.96	27.5
1456.02	23.5
1457.09	29
1458.15	27
1459.22	27.5
1460.28	26
1461.34	27.5
1462.41	24
1463.47	23.5
1464.53	25
1465.6	22
1466.66	25
1467.72	27.5
1468.78	25.5
1469.85	26
1470.91	28
1471.97	25
1473.03	28
1474.1	24.5
1475.16	23
1476.22	26
1477.28	25.5
1478.34	27.5
1479.4	25
1480.46	30
1481.52	23
1482.58	23
1483.65	26
1484.71	27.5
1485.77	22.5
1486.82	26
1487.89	24
1488.94	25.5
1490	27
1491.06	24
1492.12	28
1493.18	27.5
1494.24	25.5
1495.3	26.5
1496.36	26
1497.41	22
1498.47	25.5
1499.53	23
1500.59	26
1501.65	26
1502.7	23
1503.76	24.5
1504.82	24.5
1505.87	23
1506.93	23
1507.99	24
1509.04	21
1510.1	29
1511.16	24
1512.21	27
1513.27	27.5
1514.32	29
1515.38	23.5
1516.43	27.5
1517.49	22.5
1518.54	26.5
1519.6	26.5
1520.65	25.5
1521.71	22.5
1522.76	24
1523.81	22
1524.87	25
1525.92	26
1526.98	29.5
1528.03	26
1529.08	24
1530.14	25
1531.19	28
1532.24	31
1533.29	27
1534.35	23.5
1535.4	26
1536.45	26
1537.5	21.5
1538.55	26.5
1539.61	29
1540.66	26
1541.71	26.5
1542.76	27
1543.81	22.5
1544.86	27.5
1545.91	28.5
1546.96	27
1548.01	29.5
1549.06	28
1550.11	23
1551.16	24.5
1552.21	26
1553.26	29
1554.31	25.5
1555.36	26
1556.41	24
1557.46	27
1558.5	21.5
1559.55	22.5
1560.6	25
1561.65	24.5
1562.7	26.5
1563.74	25
1564.79	24
1565.84	25.5
1566.89	17.5
1567.93	26
1568.98	29.5
1570.03	26.5
1571.07	24.5
1572.12	21
1573.17	26
1574.21	26
1575.26	21
1576.3	24
1577.35	24
1578.4	26.5
1579.44	28
1580.49	21.5
1581.53	27.5
1582.58	26.5
1583.62	27.5
1584.66	25.5
1585.71	24.5
1586.75	24
1587.8	24
1588.84	25
1589.88	27.5
1590.93	23
1591.97	27.5
1593.01	27
1594.06	25.5
1595.1	21
1596.14	25.5
1597.18	24.5
1598.23	26.5
1599.27	24
1600.31	28
1601.35	25
1602.39	22
1603.44	25
1604.48	23.5
1605.52	28
1606.56	26
1607.6	24.5
1608.64	22
1609.68	29
1610.72	26.5
1611.76	27.5
1612.8	24.5
1613.84	25
1614.88	22.5
1615.92	27.5
1616.96	27.5
1618	27
1619.04	27
1620.08	23
1621.12	29
1622.16	20.5
1623.19	26
1624.23	24
1625.27	28
1626.31	28.5
1627.35	24
1628.38	29.5
1629.42	26
1630.46	27
1631.49	26
1632.53	24
1633.57	28
1634.6	29
1635.64	23.5
1636.68	22.5
1637.71	29.5
1638.75	27
1639.79	25
1640.82	22.5
1641.86	26
1642.89	25
1643.93	25
1644.96	25.5
1646	25.5
1647.03	22
1648.07	26.5
1649.1	21
1650.13	27
1651.17	26
1652.2	24.5
1653.24	24.5
1654.27	28.5
1655.3	24
1656.34	25.5
1657.37	27
1658.4	27.5
1659.43	26.5
1660.47	24
1661.5	26.5
1662.53	28
1663.56	21.5
1664.6	23
1665.63	27.5
1666.66	28
1667.69	27.5
1668.72	25.5
1669.75	22
1670.78	26
1671.81	27.5
1672.85	28
1673.88	21.5
1674.91	26
1675.94	25.5
1676.97	23
1678	28
1679.03	27
1680.06	24
1681.09	25
1682.11	25
1683.14	27
1684.17	23
1685.2	26
1686.23	28.5
1687.26	25.5
1688.29	29.5
1689.31	23
1690.34	24.5
1691.37	26.5
1692.4	25.5
1693.42	29
1694.45	28.5
1695.48	24.5
1696.51	26.5
1697.53	24.5
1698.56	25
1699.59	27.5
1700.61	30.5
1701.64	23.5
1702.66	24
1703.69	24
1704.72	25.5
1705.74	27.5
1706.77	23.5
1707.79	24
1708.82	27
1709.84	27
1710.87	24.5
1711.89	26
1712.91	25.5
1713.94	23
1714.96	22.5
1715.99	24
1717.01	24
1718.03	27
1719.06	22
1720.08	27.5
1721.1	25.5
1722.13	25.5
1723.15	25.5
1724.17	27.5
1725.19	25
1726.22	27
1727.24	23.5
1728.26	23
1729.28	26.5
1730.3	24
1731.33	23
1732.35	25.5
1733.37	27
1734.39	21
1735.41	27
1736.43	25
1737.45	24
1738.47	25.5
1739.49	25.5
1740.51	24.5
1741.53	22.5
1742.55	22.5
1743.57	24.5
1744.59	26.5
1745.61	26
1746.63	25
1747.65	25
1748.67	24
1749.69	27
1750.7	24
1751.72	28
1752.74	25
1753.76	24
1754.78	25
1755.79	27
1756.81	22.5
1757.83	26
1758.85	23
1759.86	23.5
1760.88	25.5
1761.9	27.5
1762.91	25.5
1763.93	27
1764.95	25
1765.96	20
1766.98	23
1767.99	25.5
1769.01	25.5
1770.02	25.5
1771.04	19
1772.06	26.5
1773.07	28
1774.09	25.5
1775.1	25
1776.11	26
1777.13	27.5
1778.14	22.5
1779.16	27
1780.17	22.5
1781.18	26
1782.2	26.5
1783.21	27
1784.22	28.5
1785.24	25.5
1786.25	24
1787.26	22.5
1788.28	27.5
1789.29	25.5
1790.3	27.5
1791.31	26.5
1792.33	22.5
1793.34	23.5
1794.35	19.5
1795.36	28.5
1796.37	24
1797.38	22
1798.39	27
1799.4	27.5
1800.42	26
1801.43	23
1802.44	25
1803.45	25
1804.46	23.5
1805.47	25
1806.48	24.5
1807.49	26
1808.5	23.5
1809.51	23
1810.51	28.5
1811.52	24.5
1812.53	27
1813.54	24.5
1814.55	24.5
1815.56	23.5
1816.57	23.5
1817.57	24.5
1818.58	25.5
1819.59	22.5
1820.6	24.5
1821.61	21
1822.61	27.5
1823.62	24
1824.63	26
1825.63	24
1826.64	21.5
1827.65	24
1828.65	25.5
1829.66	22
1830.67	27.5
1831.67	22.5
1832.68	23.5
1833.68	24
1834.69	21.5
1835.69	22.5
1836.7	24.5
1837.7	27
1838.71	26
1839.71	23
1840.72	27
1841.72	25
1842.73	21.5
1843.73	21.5
1844.73	24.5
1845.74	28
1846.74	25
1847.74	25
1848.75	27
1849.75	26
1850.75	26
1851.76	22.5
1852.76	24.5
1853.76	25.5
1854.76	27
1855.77	25.5
1856.77	21
1857.77	24
1858.77	23.5
1859.77	23
1860.77	28
1861.78	24.5
1862.78	28
1863.78	22
1864.78	27.5
1865.78	26
1866.78	24
1867.78	29
1868.78	25
1869.78	27
1870.78	25.5
1871.78	28
1872.78	23.5
1873.78	19
1874.78	24
1875.78	25
1876.78	27
1877.78	22
1878.77	26
1879.77	26
1880.77	25.5
1881.77	21
1882.77	20
1883.77	20.5
1884.76	27
1885.76	24.5
1886.76	24
1887.75	27
1888.75	24
1889.75	23.5
1890.75	29.5
1891.74	26
1892.74	25
1893.73	23.5
1894.73	23
1895.73	26
1896.72	28
1897.72	24
1898.71	24
1899.71	22
1900.7	27
1901.7	24.5
1902.69	23
1903.69	27
1904.68	19.5
1905.68	20
1906.67	25
1907.67	27.5
1908.66	24
1909.65	22.5
1910.65	29.5
1911.64	21
1912.63	25.5
1913.63	23.5
1914.62	24
1915.61	31
1916.61	25.5
1917.6	26
1918.59	26.5
1919.58	22.5
1920.58	24.5
1921.57	26
1922.56	24
1923.55	25
1924.54	23.5
1925.54	24.5
1926.53	22
1927.52	22
1928.51	23.5
1929.5	25
1930.49	26
1931.48	22.5
1932.47	25
1933.46	24.5
1934.45	23
1935.44	25
1936.43	23
1937.42	23.5
1938.41	22.5
1939.4	22
1940.39	27
1941.38	26
1942.37	28
1943.35	23.5
1944.34	25.5
1945.33	22
1946.32	25.5
1947.31	21.5
1948.3	22.5
1949.28	23.5
1950.27	24
1951.26	22.5
1952.25	26.5
1953.23	21
1954.22	23.5
1955.21	25
1956.19	23
1957.18	24.5
1958.17	22.5
1959.15	23
1960.14	21.5
1961.12	24
1962.11	24.5
1963.1	22
1964.08	27.5
1965.07	29
1966.05	22
1967.04	25.5
1968.02	28.5
1969.01	24
1969.99	20
1970.98	29
1971.96	22
1972.94	23.5
1973.93	19.5
1974.91	22.5
1975.9	24
1976.88	23
1977.86	21
1978.85	24.5
1979.83	21.5
1980.81	25.5
1981.79	23
1982.78	21.5
1983.76	22
1984.74	24.5
1985.72	23
1986.71	26
1987.69	20
1988.67	23
1989.65	23.5
1990.63	22.5
1991.61	21.5
1992.59	23
1993.57	24.5
1994.56	22
1995.54	24.5
1996.52	23.5
1997.5	25.5
1998.48	23
1999.46	26.5
2000.44	23.5
2001.42	22.5
2002.4	21.5
2003.38	21.5
2004.36	24
2005.33	23
2006.31	24
2007.29	26.5
2008.27	27
2009.25	24
2010.23	24
2011.21	20.5
2012.18	23.5
2013.16	23
2014.14	25
2015.12	22
2016.09	21
2017.07	25
2018.05	23
2019.03	22
2020	22.5
2020.98	24.5
2021.96	24
2022.93	25
2023.91	19.5
2024.89	26
2025.86	20.5
2026.84	22
2027.81	21
2028.79	22
2029.76	23
2030.74	26
2031.71	26
2032.69	21.5
2033.66	24
2034.64	24.5
2035.61	25.5
2036.59	24
2037.56	23.5
2038.54	23.5
2039.51	19.5
2040.48	22.5
2041.46	21
2042.43	23.5
2043.4	24.5
2044.38	16.5
2045.35	24
2046.32	20.5
2047.29	24
2048.27	25
2049.24	21
2050.21	18
2051.18	28.5
2052.16	19
2053.13	23
2054.1	21.5
2055.07	22.5
2056.04	22.5
2057.01	23
2057.98	25.5
2058.96	23
2059.93	19
2060.9	27.5
2061.87	21.5
2062.84	25
2063.81	21
2064.78	23.5
2065.75	23
2066.72	24.5
2067.69	27
2068.66	25
2069.63	22.5
2070.6	24
2071.56	21
2072.53	23
2073.5	19.5
2074.47	23.5
2075.44	26
2076.41	26
2077.38	23
2078.34	22
2079.31	19
2080.28	25.5
2081.25	25
2082.21	21.5
2083.18	23
2084.15	21
2085.11	24
2086.08	21
2087.05	27
2088.01	24
2088.98	25
2089.95	24
2090.91	25
2091.88	22.5
2092.84	24
2093.81	20
2094.78	22.5
2095.74	21
2096.71	23.5
2097.67	27
2098.64	24.5
2099.6	25
2100.57	23
2101.53	23
2102.49	22
2103.46	22.5
2104.42	22
2105.39	23
2106.35	27
2107.31	21.5
2108.28	26
2109.24	21.5
2110.2	22
2111.17	28
2112.13	17
2113.09	25.5
2114.05	25
2115.02	25
2115.98	24
2116.94	27.5
2117.9	24.5
2118.86	25
2119.83	26
2120.79	27
2121.75	21
2122.71	22
2123.67	21
2124.63	23
2125.59	23
2126.55	23
2127.51	22
2128.47	25.5
2129.43	22.5
2130.39	24.5
2131.35	20
2132.31	25
2133.27	19.5
2134.23	24
2135.19	22.5
2136.15	26
2137.11	26
2138.07	23
2139.03	20
2139.99	26
2140.94	21.5
2141.9	26
2142.86	26.9845
2143.82	24.0131
2144.78	23.0341
2145.73	21.566
2146.69	25.3311
2147.65	21.6649
2148.61	24.4721
2149.56	24.154
2150.52	23.3203
2151.48	22.9424
2152.43	22.6229
2153.39	23.7137
2154.35	24.3453
2155.3	22.0203
2156.26	23.6331
2157.21	23.5186
2158.17	19.7886
2159.13	23.8757
2160.08	24.0106
2161.04	20.7673
2161.99	23.5889
2162.95	23.0063
2163.9	21.8318
2164.86	23.2672
2165.81	24.1943
2166.77	20.8913
2167.72	22.5415
2168.67	25.0466
2169.63	22.0133
2170.58	25.8804
2171.54	23.6779
2172.49	23.5291
2173.44	20.8958
2174.4	21.4424
2175.35	23.2952
2176.3	24.1471
2177.26	23.8544
2178.21	22.2588
2179.16	25.2537
2180.11	22.655
2181.07	21.1245
2182.02	21.5886
2182.97	21.058
2183.92	23.8838
2184.87	21.8116
2185.82	22.5934
2186.78	22.7849
2187.73	22.7081
2188.68	24.4027
2189.63	22.3068
2190.58	25.2699
2191.53	22.4344
2192.48	23.2417
2193.43	22.246
2194.38	24.1963
2195.33	23.674
2196.28	22.1968
2197.23	23.2425
2198.18	20.7691
2199.13	23.4777
2200.08	19.8104
2201.03	21.4414
2201.98	24.1689
2202.93	21.2893
2203.88	23.0558
2204.83	23.3053
2205.77	23.1572
2206.72	21.7745
2207.67	24.3746
2208.62	25.0503
2209.57	24.4727
2210.52	24.0136
2211.46	22.4954
2212.41	22.3056
2213.36	22.7233
2214.31	22.1654
2215.25	21.7202
2216.2	23.9314
2217.15	23.3678
2218.09	24.0025
2219.04	23.1325
2219.99	22.585
2220.93	20.0155
2221.88	20.4568
2222.82	20.683
2223.77	23.0704
2224.72	22.3974
2225.66	20.7606
2226.61	21.6142
2227.55	20.4855
2228.5	20.1675
2229.44	20.0024
2230.39	22.1046
2231.33	25.0702
2232.28	23.2313
2233.22	24.0601
2234.16	24.7384
2235.11	22.7166
2236.05	21.1656
2237	21.4039
2237.94	21.1027
2238.88	23.0076
2239.83	24.3281
2240.13	24.5
2241.08	22.5
2242.03	23
2242.98	25.5
2243.92	20
2244.87	19
2245.82	24
2246.76	23
2247.71	23.5
2248.66	23
2249.61	25
2250.55	19.5
2251.5	23.5
2252.45	24
2253.39	23
2254.34	18
2255.28	23
2256.23	23
2257.18	23
2258.12	21
2259.07	26
2260.01	24.5
2260.96	21
2261.9	19
2262.85	24
2263.79	23
2264.74	25
2265.68	19
2266.63	23
2267.57	23
2268.51	28
2269.46	21.5
2270.4	22.5
2271.35	24.5
2272.29	23
2273.23	26
2274.18	18
2275.12	21
2276.06	26
2277	20
2277.95	23
2278.89	21.5
2279.83	21.5
2280.78	22
2281.72	22
2282.66	19
2283.6	24
2284.54	21.5
2285.48	25
2286.43	25
2287.37	21
2288.31	22
2289.25	15
2290.19	23
2291.13	20.5
2292.07	23
2293.01	23.5
2293.95	25.5
2294.89	22.5
2295.83	22.5
2296.77	23
2297.71	22.5
2298.65	23
2299.59	23
2300.53	20.5
2301.47	22
2302.41	24
2303.35	21.5
2304.29	26
2305.22	22.5
2306.16	23.5
2307.1	24
2308.04	21
2308.98	23.5
2309.91	23.5
2310.85	23
2311.79	24.5
2312.73	23
2313.66	20.5
2314.6	25
2315.54	21.5
2316.48	25
2317.41	25.5
2318.35	22.5
2319.29	21
2320.22	20.5
2321.16	24.5
2322.09	28.5
2323.03	22.5
2323.97	24
2324.9	26
2325.84	26
2326.77	25
2327.71	22
2328.64	23.5
2329.58	25.5
2330.51	24.5
2331.45	20.5
2332.38	26
2333.32	21.5
2334.25	27.5
2335.18	22
2336.12	25
2337.05	23.5
2337.99	23.5
2338.92	23.5
2339.85	25.5
2340.79	26.5
2341.72	24.5
2342.65	22
2343.59	22
2344.52	27
2345.45	23
2346.38	23
2347.32	23.5
2348.25	24.5
2349.18	24
2350.11	20
2351.04	24
2351.98	23
2352.91	26
2353.84	25
2354.77	24
2355.7	25
2356.63	24
2357.56	23.5
2358.49	19.5
2359.42	21
2360.35	20.5
2361.28	24.5
2362.21	22
2363.14	24.5
2364.07	21
2365	22.5
2365.93	24.5
2366.86	25.5
2367.79	27
2368.72	24.5
2369.65	26.5
2370.58	27
2371.51	29
2372.44	25
2373.36	23
2374.29	23.5
2375.22	21.5
2376.15	25.5
2377.08	26
2378	23
2378.93	26
2379.86	19.5
2380.79	20
2381.71	25
2382.64	26
2383.57	22.5
2384.49	22.5
2385.42	24
2386.35	22
2387.27	21
2388.2	24.5
2389.13	25.5
2390.05	23.5
2390.98	24
2391.9	24
2392.83	22
2393.76	21.5
2394.68	23
2395.61	20.5
2396.53	28
2397.46	22
2398.38	23
2399.3	23
2400.23	25
2401.15	25
2402.08	25.5
2403	21
2403.93	23.5
2404.85	24
2405.77	26
2406.7	22.5
2407.62	21
2408.54	24.5
2409.47	20.5
2410.39	24.5
2411.31	23
2412.24	22
2413.16	21
2414.08	24.5
2415	24.5
2415.92	22
2416.85	23.5
2417.77	23.5
2418.69	25
2419.61	27
2420.53	25.5
2421.45	21
2422.38	25
2423.3	25
2424.22	21
2425.14	21
2426.06	25
2426.98	21.5
2427.9	26
2428.82	21.5
2429.74	26.5
2430.66	22
2431.58	25
2432.5	25
2433.42	27.5
2434.34	21.5
2435.26	21.5
2436.18	26
2437.1	26
2438.01	26.5
2438.93	23
2439.85	22.5
2440.77	26.5
2441.69	25
2442.61	26
2443.52	25.5
2444.44	25
2445.36	24.5
2446.28	24
2447.2	23.5
2448.11	23.5
2449.03	23.5
2449.95	25
2450.86	25
2451.78	20.5
2452.7	23.5
2453.61	23
2454.53	23
2455.45	23
2456.36	25.5
2457.28	24.5
2458.2	23
2459.11	23.5
2460.03	24.5
2460.94	21
2461.86	26
2462.77	26.5
2463.69	23
2464.6	23.5
2465.52	27
2466.43	25.5
2467.35	25.5
2468.26	26
2469.18	25
2470.09	25.5
2471	24.5
2471.92	25
2472.83	23.5
2473.74	27
2474.66	19.5
2475.57	26
2476.48	23
2477.4	23.5
2478.31	22.5
2479.22	25
2480.14	26.5
2481.05	25.5
2481.96	25
2482.87	22
2483.79	23.5
2484.7	23
2485.61	24
2486.52	25
2487.43	22
2488.34	21
2489.25	21
2490.17	24.5
2491.08	26.5
2491.99	24.5
2492.9	26
2493.81	28
2494.72	21
2495.63	26
2496.54	24.5
2497.45	24
2498.36	23.5
2499.27	24.5
2500.18	26
2501.09	21.5
2502	23
2502.91	25
2503.82	24.5
2504.73	23
2505.63	27
2506.54	27
2507.45	22.5
2508.36	23
2509.27	27
2510.18	24
2511.09	25
2511.99	25.5
2512.9	23.5
2513.81	27
2514.72	23.5
2515.62	26.5
2516.53	24.5
2517.44	28
2518.34	20.5
2519.25	26
2520.16	24
2521.06	24
2521.97	20
2522.88	24.5
2523.78	24.5
2524.69	26.5
2525.6	27
2526.5	22.5
2527.41	21
2528.31	25
2529.22	24
2530.12	22
2531.03	25.5
2531.93	21
2532.84	23
2533.74	24.5
2534.65	24
2535.55	23
2536.46	24
2537.36	25.5
2538.27	24.5
2539.17	23
2540.07	23.5
2540.98	26.5
2541.88	26.5
2542.78	24.5
2543.69	23
2544.59	23
2545.49	25.5
2546.4	21
2547.3	24
2548.2	24.5
2549.1	20.5
2550.01	23
2550.91	23
2551.81	22
2552.71	24.5
2553.61	25.5
2554.52	23
2555.42	24.5
2556.32	24
2557.22	25
2558.12	25
2559.02	26
2559.92	26
2560.82	26
2561.72	25.5
2562.62	24
2563.53	23.5
2564.43	24
2565.33	25.5
2566.23	25
2567.13	24.5
2568.03	25.5
2568.92	23
2569.82	25.5
2570.72	24
2571.62	24
2572.52	23
2573.42	22
2574.32	27
2575.22	22.5
2576.12	27.5
2577.02	26
2577.91	28
2578.81	26.5
2579.71	24.5
2580.61	27.5
2581.5	24
2582.4	22
2583.3	27.5
2584.2	27.5
2585.09	28
2585.99	21
2586.89	24
2587.78	24
2588.68	24.5
2589.58	24
2590.47	23.5
2591.37	25.5
2592.27	24
2593.16	28
2594.06	23
2594.95	26.5
2595.85	20.5
2596.75	23
2597.64	26
2598.54	24
2599.43	29
2600.33	26.5
2601.22	23
2602.12	26
2603.01	24.5
2603.9	23.5
2604.8	23
2605.69	28
2606.59	25.5
2607.48	29
2608.37	23.5
2609.27	23
2610.16	26.5
2611.05	25
2611.95	27.5
2612.84	25
2613.73	25
2614.63	23.5
2615.52	23.5
2616.41	24
2617.3	25
2618.2	22
2619.09	22.5
2619.98	23
2620.87	23
2621.76	25.5
2622.66	21
2623.55	29
2624.44	25
2625.33	23
2626.22	22.5
2627.11	23
2628	24.5
2628.9	20
2629.79	29
2630.68	20
2631.57	27
2632.46	24
2633.35	27.5
2634.24	26.5
2635.13	23.5
2636.02	24
2636.91	24
2637.8	25.5
2638.68	21.5
2639.57	22.5
2640.46	27
2641.35	23.5
2642.24	25.5
2643.13	24.5
2644.02	21.5
2644.91	27
2645.79	22
2646.68	25
2647.57	27
2648.46	25
2649.35	24.5
2650.23	25.5
2651.12	24.5
2652.01	21
2652.9	22
2653.78	25
2654.67	26.5
2655.56	26
2656.44	22
2657.33	22
2658.22	25
2659.1	24.5
2659.99	23.5
2660.88	24.5
2661.76	25.5
2662.65	25
2663.53	25.5
2664.42	27
2665.3	27
2666.19	24
2667.07	28
2667.96	20
2668.84	24.5
2669.73	26
2670.61	25
2671.5	20
2672.38	25
2673.27	24.5
2674.15	22
2675.04	24
2675.92	24.5
2676.8	23
2677.69	26
2678.57	24
2679.45	23
2680.34	27.5
2681.22	22.5
2682.1	24
2682.99	27.5
2683.87	24.5
2684.75	22.5
2685.63	22.5
2686.52	23.5
2687.4	21
2688.28	27
2689.16	26
2690.04	22.5
2690.93	24
2691.81	25.5
2692.69	24.5
2693.57	26
2694.45	24
2695.33	27
2696.21	23
2697.09	23
2697.97	23
2698.85	23
2699.74	23.5
2700.62	22
2701.5	23.5
2702.38	24
2703.26	23
2704.14	25
2705.02	22
2705.89	24.5
2706.77	25
2707.65	20
2708.53	25
2709.41	20
2710.29	29
2711.17	23
2712.05	24
2712.93	23
2713.8	26.5
2714.68	27
2715.56	24.5
2716.44	23
2717.32	25
2718.19	24
2719.07	31
2719.95	25
2720.83	23
2721.7	25
2722.58	25
2723.46	22
2724.33	24
2725.21	26
2726.09	26.5
2726.97	26.5
2727.84	28
2728.72	21.5
2729.59	29
2730.47	26
2731.35	24.5
2732.22	28
2733.1	23
2733.97	22.5
2734.85	22
2735.72	22
2736.6	24.5
2737.47	25
2738.35	22
2739.22	29
2740.1	20
2740.97	26.5
2741.84	22.5
2742.72	23
2743.59	27
2744.47	23
2745.34	25
2746.21	29.5
2747.09	22
2747.96	25
2748.83	22.5
2749.71	25
2750.58	23
2751.45	23
2752.33	24
2753.2	25.5
2754.07	22
2754.94	23.5
2755.82	19
2756.69	26.5
2757.56	24
2758.43	22.5
2759.3	23.5
2760.18	27
2761.05	23
2761.92	25
2762.79	26
2763.66	23.5
2764.53	29
2765.4	28
2766.27	26
2767.14	24
2768.01	21
2768.88	25
2769.75	27.5
2770.62	25.5
2771.49	22.5
2772.36	25.5
2773.23	25.5
2774.1	23.5
2774.97	25.5
2775.84	25
2776.71	26
2777.58	29
2778.45	26
2779.32	21.5
2780.19	22
2781.06	25.5
2781.92	25.5
2782.79	24.5
2783.66	28.5
2784.53	23
2785.4	23
2786.26	27
2787.13	26
2788	23
2788.87	24.5
2789.73	28.5
2790.6	28.5
2791.47	27.5
2792.34	25.5
2793.2	21
2794.07	28
2794.94	25.5
2795.8	24.5
2796.67	25.5
2797.53	31
2798.4	23.5
2799.27	23.5
2800.13	24
2801	25
2801.86	25
2802.73	24.5
2803.59	24.5
2804.46	25.5
2805.32	25
2806.19	26.5
2807.05	26.5
2807.92	28
2808.78	27
2809.65	29
2810.51	22
2811.38	24.5
2812.24	23
2813.1	24.5
2813.97	26.5
2814.83	27.5
2815.7	20.5
2816.56	27
2817.42	25
2818.29	30.5
2819.15	28
2820.01	23.5
2820.87	25.5
2821.74	28.5
2822.6	27
2823.46	25
2824.32	28
2825.19	21.5
2826.05	25.5
2826.91	28.5
2827.77	27.5
2828.63	26.5
2829.5	27
2830.36	24
2831.22	28.5
2832.08	26
2832.94	27.5
2833.8	27.5
2834.66	24
2835.52	24
2836.38	24
2837.24	23
2838.1	22
2838.96	24.5
2839.82	26.5
2840.68	29.5
2841.54	27.5
2842.4	28
2843.26	25
2844.12	22.5
2844.98	21
2845.84	27
2846.7	23.5
2847.56	23.5
2848.42	24
2849.28	26
2850.14	23.5
2850.99	22.5
2851.85	26.5
2852.71	26.5
2853.57	21
2854.43	27.5
2855.28	23
2856.14	22.5
2857	24.5
2857.86	23.5
2858.71	27
2859.57	28
2860.43	24.5
2861.28	27
2862.14	27.5
2863	27.5
2863.86	28
2864.71	22
2865.57	24.5
2866.42	29
2867.28	22
2868.14	30
2868.99	25
2869.85	25.5
2870.7	26
2871.56	29
2872.41	26.5
2873.27	31
2874.13	27
2874.98	26
2875.83	29
2876.69	30
2877.54	30
2878.4	33.5
2879.25	32
2880.11	31
2880.96	33.5
2881.81	32.5
2882.67	33.5
2883.52	34.5
2884.38	31
2885.23	33
2886.08	34
2886.94	32
2887.79	31
2888.64	34
2889.5	34
2890.35	36.5
2891.2	38.5
2892.05	34.5
2892.91	42
2893.76	43
2894.61	45.5
2895.46	50.5
2896.31	43
2897.17	48
2898.02	51
2898.87	53.5
2899.72	58
2900.57	62.5
2901.42	57.5
2902.27	61
2903.12	68.5
2903.98	66
2904.83	70.5
2905.68	66.5
2906.53	69.5
2907.38	63.5
2908.23	63.5
2909.08	66
2909.93	59
2910.78	64.5
2911.63	58.5
2912.48	51.5
2913.33	51
2914.18	51.5
2915.02	47.5
2915.87	44
2916.72	43.5
2917.57	43.5
2918.42	38.5
2919.27	38
2920.12	36
2920.97	34
2921.81	37
2922.66	34
2923.51	35
2924.36	31
2925.21	32
2926.05	30.5
2926.9	30.5
2927.75	32.5
2928.59	29
2929.44	32.5
2930.29	30
2931.14	28.5
2931.98	27.5
2932.83	30
2933.68	28
2934.52	29.5
2935.37	29.5
2936.21	25
2937.06	23
2937.91	30
2938.75	28
2939.6	27.5
2940.44	26.5
2941.29	27
2942.14	26.5
2942.98	27.5
2943.82	23
2944.67	30.5
2945.51	24.5
2946.36	29
2947.2	29.5
2948.05	32
2948.89	31
2949.74	30.5
2950.58	35
2951.43	30
2952.27	30.5
2953.11	33
2953.96	33.5
2954.8	32
2955.64	32.5
2956.49	31.5
2957.33	34.5
2958.17	38.5
2959.02	32
2959.86	37
2960.7	41
2961.54	38.5
2962.39	43
2963.23	40.5
2964.07	41.5
2964.91	42.5
2965.75	41
2966.6	44
2967.44	42
2968.28	42
2969.12	41.5
2969.96	43.5
2970.8	40
2971.64	37.9709
2972.48	37.9126
2973.33	35.9145
2974.17	36.0258
2975.01	34.9228
2975.85	34.495
2976.69	34.2353
2977.53	28.1794
2978.37	29.7751
2979.21	28.573
2980.05	30.5838
2980.89	30.8033
2981.73	30.3203
2982.57	26.1623
2983.41	26.1486
2984.25	28.6578
2985.08	26.7912
2985.92	28.298
2986.76	23.9269
2987.6	25.1966
2988.44	25.1136
2989.28	27.1958
2990.12	28.4634
2990.96	27.7735
2991.79	26.1432
2992.63	22.8778
2993.47	20.9398
2994.31	21.763
2995.14	26.4285
2995.98	25.4513
2996.82	25.151
2997.66	25.9611
2998.49	25.2124
2999.33	23.637
3000.17	23.1876
3001	24.117
3001.84	24.8402
3002.68	24.3312
3003.51	28.2009
3004.35	24.2326
3005.19	23.4169
3006.02	22.4997
3006.86	25.0339
3007.7	23.8329
3008.53	24.3813
3009.37	23.1188
3010.2	22.7318
3011.04	23.8314
3011.87	23.6181
3012.71	22.096
3013.54	24.2937
3014.38	21.8841
3015.21	21.6922
3016.05	22.8425
3016.88	24.7142
3017.72	22.0823
3018.55	22.2777
3019.39	23.1356
3020.22	24.2264
3021.05	24.4071
3021.89	23.9268
3022.72	23.2338
3023.55	23.9026
3024.39	23.275
3025.22	24.1016
3026.05	21.8369
3026.89	22.2153
3027.72	21.9631
3028.55	22.5368
3029.39	22.7728
3030.22	21.6926
3031.05	21.3172
3031.88	22.1476
3032.72	24.1089
3033.55	23.5748
3034.38	21.9693
3035.21	22.3567
3036.04	23.4163
3036.88	22.1408
3037.71	21.9959
3038.54	21.7069
3039.37	21.7775
3040.2	23.3242
3041.03	21.8534
3041.86	20.7072
3042.69	21.9504
3043.52	23.8418
3044.36	24.9683
3045.19	25.0215
3046.02	21.2052
3046.85	21.1738
3047.68	23.0681
3048.51	21.8673
3049.34	22.1459
3050.17	24.5115
3051	23.4604
3051.83	20.8107
3052.66	22.2561
3053.48	22.8339
3054.31	22.9443
3055.14	24.4482
3055.97	22.7999
3056.8	24.3751
3057.29	27
3058.12	19
3058.95	19
3059.79	24.5
3060.62	22.5
3061.45	21.5
3062.29	21
3063.12	27
3063.95	22
3064.78	17
3065.62	20.5
3066.45	24.5
3067.28	23.5
3068.11	24
3068.94	25
3069.77	24.5
3070.61	18.5
3071.44	21
3072.27	22
3073.1	27
3073.93	22
3074.76	25
3075.59	22.5
3076.42	22
3077.25	22
3078.08	20
3078.92	24
3079.74	24.5
3080.57	24
3081.41	28
3082.24	26
3083.06	23.5
3083.89	24.5
3084.72	24.5
3085.55	26.5
3086.38	22.5
3087.21	19
3088.04	23
3088.87	22
3089.7	27
3090.53	26.5
3091.36	20
3092.18	24.5
3093.01	23.5
3093.84	26
3094.67	26
3095.5	25.5
3096.32	21
3097.15	25.5
3097.98	21
3098.81	23
3099.64	27
3100.46	23
3101.29	19.5
3102.12	25
3102.94	26
3103.77	19
3104.6	23.5
3105.42	27.5
3106.25	22.5
3107.08	20
3107.9	22.5
3108.73	25.5
3109.56	22
3110.38	24
3111.21	20.5
3112.03	26.5
3112.86	23
3113.68	24
3114.51	25
3115.33	24
3116.16	22.5
3116.98	23
3117.81	24
3118.63	20
3119.46	23
3120.28	22.5
3121.11	25.5
3121.93	21.5
3122.76	23
3123.58	23
3124.4	23
3125.23	26
3126.05	22
3126.87	20.5
3127.7	19.5
3128.52	22
3129.34	27
3130.17	25
3130.99	24
3131.81	25.5
3132.64	21
3133.46	20.5
3134.28	21.5
3135.1	24.5
3135.93	25
3136.75	23.5
3137.57	25.5
3138.39	20.5
3139.21	23
3140.04	28
3140.86	25
3141.68	24.5
3142.5	26.5
3143.32	26
3144.14	22.5
3144.96	23
3145.78	25
3146.61	22.5
3147.43	23
3148.25	25.5
3149.07	27.5
3149.89	22.5
3150.71	23
3151.53	20.5
3152.35	28.5
3153.17	24
3153.99	25
3154.81	22.5
3155.63	24.5
3156.45	22
3157.27	21.5
3158.08	24.5
3158.9	25
3159.72	24.5
3160.54	25
3161.36	24
3162.18	24.5
3163	25.5
3163.82	23
3164.63	23
3165.45	25.5
3166.27	25.5
3167.09	23
3167.91	24
3168.72	22.5
3169.54	25
3170.36	24.5
3171.18	24.5
3171.99	24
3172.81	24
3173.63	23
3174.44	23.5
3175.26	25
3176.08	26
3176.89	21.5
3177.71	24.5
3178.53	22
3179.34	25.5
3180.16	24
3180.97	25
3181.79	22
3182.61	24.5
3183.42	21
3184.24	25
3185.05	22.5
3185.87	22.5
3186.68	26.5
3187.5	22
3188.31	23
3189.13	22.5
3189.94	24
3190.76	23.5
3191.57	27
3192.39	25.5
3193.2	20
3194.02	23
3194.83	22.5
3195.64	25.5
3196.46	24
3197.27	23
3198.08	19.5
3198.9	24.5
3199.71	23
3200.52	26
3201.34	22.5
3202.15	24
3202.96	27
3203.78	22
3204.59	24.5
3205.4	25
3206.21	23.5
3207.03	22
3207.84	24
3208.65	22
3209.46	21
3210.27	22.5
3211.09	25
3211.9	24
3212.71	25
3213.52	23
3214.33	24
3215.14	28
3215.95	23
3216.77	18.5
3217.58	25.5
3218.39	22
3219.2	24.5
3220.01	22
3220.82	25
3221.63	22
3222.44	19.5
3223.25	25.5
3224.06	25
3224.87	25.5
3225.68	22.5
3226.49	24.5
3227.3	23
3228.11	24
3228.92	23
3229.73	27.5
3230.53	23
3231.34	23.5
3232.15	24
3232.96	25
3233.77	27
3234.58	22.5
3235.39	23
3236.19	26
3237	20.5
3237.81	23
3238.62	23
3239.43	27.5
3240.23	23
3241.04	27
3241.85	25
3242.66	24
3243.46	23
3244.27	19.5
3245.08	20.5
3245.89	24
3246.69	24
3247.5	24
3248.31	24.5
3249.11	24.5
3249.92	23.5
3250.72	21
3251.53	22
3252.34	23
3253.14	26.5
3253.95	25
3254.75	27
3255.56	22
3256.36	24
3257.17	24.5
3257.98	23.5
3258.78	22
3259.59	21
3260.39	24
3261.19	26
3262	27.5
3262.8	19.5
3263.61	24
3264.41	26
3265.22	26
3266.02	24.5
3266.83	24.5
3267.63	22.5
3268.43	23
3269.24	23
3270.04	23
3270.84	20.5
3271.65	23
3272.45	26
3273.25	25.5
3274.06	23
3274.86	24.5
3275.66	22.5
3276.46	24.5
3277.27	25.5
3278.07	25
3278.87	23.5
3279.67	24.5
3280.48	24
3281.28	24.5
3282.08	25
3282.88	25.5
3283.68	24
3284.48	21
3285.29	21.5
3286.09	21.5
3286.89	23
3287.69	21
3288.49	20
3289.29	25
3290.09	22
3290.89	21
3291.69	24.5
3292.49	25
3293.29	23
3294.09	22.5
3294.89	23
3295.69	23
3296.49	25.5
3297.29	21
3298.09	27
3298.89	23
3299.69	23.5
3300.49	20.5
3301.29	22
3302.09	23.5
3302.89	21
3303.69	22.5
3304.49	18.5
3305.28	25
3306.08	26
3306.88	21
3307.68	25
3308.48	28
3309.28	27
3310.07	25.5
3310.87	24
3311.67	24
3312.47	24.5
3313.26	27.5
3314.06	25.5
3314.86	22.5
3315.66	27.5
3316.45	24
3317.25	24
3318.05	24
3318.84	25.5
3319.64	24.5
3320.44	23
3321.23	22.5
3322.03	24
3322.83	24
3323.62	25
3324.42	26.5
3325.21	19.5
3326.01	21.5
3326.81	26
3327.6	23
3328.4	25
3329.19	18
3329.99	24
3330.78	21.5
3331.58	24.5
3332.37	23
3333.17	24
3333.96	21
3334.76	23.5
3335.55	23
3336.34	24.5
3337.14	27
3337.93	26
3338.73	26
3339.52	25
3340.31	24
3341.11	24
3341.9	20.5
3342.69	22
3343.49	26
3344.28	23
3345.07	22.5
3345.87	22
3346.66	26
3347.45	25
3348.25	24.5
3349.04	24
3349.83	23.5
3350.62	21
3351.42	26
3352.21	19.5
3353	23.5
3353.79	26
3354.58	26
3355.37	22
3356.17	21
3356.96	26
3357.75	23
3358.54	19
3359.33	25.5
3360.12	23.5
3360.91	22.5
3361.7	25.5
3362.49	23.5
3363.29	23
3364.08	23
3364.87	24
3365.66	23
3366.45	25
3367.24	21
3368.03	28.5
3368.82	22.5
3369.61	28.5
3370.4	21.5
3371.19	21.5
3371.97	24.5
3372.76	24
3373.55	26.5
3374.34	26
3375.13	22.5
3375.92	24
3376.71	27
3377.5	26
3378.29	22
3379.07	25
3379.86	24
3380.65	22.5
3381.44	21
3382.23	26
3383.01	24.5
3383.8	24
3384.59	25
3385.38	25.5
3386.16	22
3386.95	26
3387.74	24.5
3388.53	23
3389.31	24
3390.1	19
3390.89	23
3391.67	27
3392.46	26
3393.25	26.5
3394.03	21
3394.82	22
3395.6	27
3396.39	24
3397.18	23
3397.96	22.5
3398.75	27
3399.53	23.5
3400.32	22.5
3401.1	24.5
3401.89	23
3402.67	22.5
3403.46	24
3404.24	25
3405.03	25
3405.81	28.5
3406.6	24.5
3407.38	24.5
3408.17	24
3408.95	19
3409.74	23.5
3410.52	26
3411.3	24
3412.09	22
3412.87	21.5
3413.65	26
3414.44	24.5
3415.22	22.5
3416	24
3416.79	24.5
3417.57	23
3418.35	24
3419.14	23
3419.92	25
3420.7	25.5
3421.48	22.5
3422.27	26
3423.05	25
3423.83	26.5
3424.61	23
3425.4	21
3426.18	25
3426.96	25.5
3427.74	24.5
3428.52	19.5
3429.3	25.5
3430.08	24
3430.87	24
3431.65	24
3432.43	25.5
3433.21	22.5
3433.99	24.5
3434.77	22
3435.55	23
3436.33	20.5
3437.11	24.5
3437.89	23.5
3438.67	23.5
3439.45	23
3440.23	24
3441.01	25.5
3441.79	21.5
3442.57	22
3443.35	23
3444.13	24.5
3444.91	23
3445.69	25.5
3446.47	21.5
3447.25	28
3448.03	25
3448.8	23
3449.58	23
3450.36	26
3451.14	23.5
3451.92	25.5
3452.7	23
3453.47	26
3454.25	23
3455.03	24
3455.81	20.5
3456.59	23.5
3457.36	25.5
3458.14	25
3458.92	27.5
3459.69	24
3460.47	21.5
3461.25	27.5
3462.03	22
3462.8	28
3463.58	23
3464.36	23
3465.13	24.5
3465.91	27
3466.69	23
3467.46	24.5
3468.24	23
3469.01	27
3469.79	27
3470.57	22.5
3471.34	29.5
3472.12	24.5
3472.89	24.5
3473.67	27.5
3474.44	23.5
3475.22	26.5
3475.99	24
3476.77	24.5
3477.54	26.5
3478.32	23.5
3479.09	29
3479.87	27.5
3480.64	24
3481.41	22.5
3482.19	24
3482.96	24
3483.74	26
3484.51	22.5
3485.28	26.5
3486.06	20
3486.83	25.5
3487.6	23.5
3488.38	26
3489.15	24.5
3489.92	22.5
3490.7	23
3491.47	25
3492.24	19
3493.01	24
3493.79	23.5
3494.56	23
3495.33	24.5
3496.1	20.5
3496.88	23.5
3497.65	23.5
3498.42	23
3499.19	24.5
3499.96	23
