#Acq. time (s)=	5
#Accumulations=	5
#Range (cm-ｹ)=	100...3500
#Windows=	4
#Autofocus=	Off
#AutoExposure=	Off
#Spike filter=	Multiple accum.
#Delay time (s)=	0
#Binning=	1
#Readout mode=	Signal
#DeNoise=	Off
#ICS correction=	Off
#Dark correction=	Off
#Inst. Process=	Off
#Instrument=	LabRAM HR Evol
#Detector=	Syncerity OE
#Objective=	x100_VIS
#Grating=	600 (500nm)
#ND Filter=	25%
#Laser=	633nm_Edge
#Hole=	100.021
#Range=	Visible
#Project=	verificaciones
#Sample=	at4
#Site=	plain
#Title=	bolusat4plain
#Remark=	com
#Date=	16.01.2026 17:43
#Acquired=	16.01.2026 17:43:47
100.564	28
101.847	36
103.131	35
104.414	30
105.697	31
106.979	30
108.262	33
109.544	25.5
110.826	28
112.109	29
113.391	29
114.672	27.5
115.954	30
117.235	28.5
118.515	37.5
119.796	32
121.076	33.5
122.357	30
123.637	29
124.916	34
126.196	30.5
127.475	31.5
128.754	35.5
130.033	35
131.31	32
132.589	29.5
133.867	33
135.145	35
136.423	32
137.701	37
138.978	37
140.256	37
141.533	34
142.809	38
144.086	32
145.361	38.5
146.637	35.5
147.913	38
149.189	39
150.464	38.5
151.74	38
153.014	46
154.288	41
155.563	42.5
156.838	36.5
158.112	42
159.385	41.5
160.659	40
161.932	41
163.206	44.5
164.479	42.5
165.751	40
167.024	41
168.296	33
169.567	38.5
170.84	38
172.112	40
173.383	42
174.654	35
175.925	42
177.196	42.5
178.466	42.5
179.737	40
181.007	42.5
182.276	40
183.546	42
184.816	38.5
186.085	38.5
187.354	43
188.624	41.5
189.891	38.5
191.16	40
192.427	44.5
193.696	43
194.964	39.5
196.231	39
197.499	37.5
198.765	42
200.033	35
201.298	37
202.566	32.5
203.831	37
205.098	38.5
206.363	37
207.629	36.5
208.894	33.5
210.159	34.5
211.424	36.5
212.689	31.5
213.953	35.5
215.218	30
216.481	29.5
217.746	29.5
219.009	33
220.273	31
221.536	33.5
222.798	35
224.062	26.5
225.323	28.5
226.587	32
227.848	33
229.109	28
230.372	32
231.633	32
232.894	34
234.156	33
235.416	31
236.678	28.5
237.937	32
239.197	30.5
240.457	31
241.717	30.5
242.976	31.5
244.235	27
245.495	31.5
246.754	33
248.012	32.5
249.27	31.5
250.529	30
251.787	29
253.045	28.5
254.302	29
255.56	31.5
256.817	30
258.074	30.5
259.33	28
260.586	28
261.844	27
263.1	29.5
264.355	31.5
265.611	26
266.866	31
268.121	26.5
269.377	32.5
270.632	28
271.886	26.5
273.14	30
274.394	27
275.648	30
276.902	31.5
278.155	31
279.408	30
280.663	30
281.915	31
283.168	28
284.42	29.5
285.673	30
286.925	28.5
288.176	29
289.428	25
290.679	27.5
291.93	30
293.181	31.5
294.432	29.5
295.683	27
296.933	26
298.183	27
299.433	30
300.683	27
301.932	32
303.182	26
304.429	27
305.678	30.5
306.927	29
308.176	29
309.424	28
310.672	25
311.92	30
313.168	29
314.415	28
315.661	26.5
316.908	29.5
318.155	29
319.402	30.5
320.648	28
321.895	28
323.139	25.5
324.385	27
325.631	28
326.877	26
328.122	30.5
329.366	24
330.611	29
331.855	27
333.1	22.5
334.343	27
335.587	28
336.831	30.5
338.074	32
339.317	29
340.56	30
341.803	25.5
343.044	28
344.287	30.5
345.53	25
346.771	30
348.013	29
349.255	26.5
350.495	24.5
351.736	29
352.978	27.5
354.217	31.5
355.458	30
356.699	27
357.938	26.5
359.178	27
360.417	27
361.657	25
362.895	26
364.135	26.5
365.374	28
366.612	28.5
367.851	28
369.088	30
370.327	26
371.564	28.5
372.802	26.5
374.038	25
375.276	30
376.512	25.5
377.749	28.5
378.985	28
380.222	26.5
381.457	27
382.692	29
383.929	30
385.164	30.5
386.4	29
387.634	30
388.869	27.5
390.103	28
391.337	26.5
392.572	29
393.805	26.5
395.038	29.5
396.273	29
397.506	29
398.74	30
399.972	21
401.204	28
402.437	30
403.669	29
404.901	21.5
406.132	28.5
407.365	27.5
408.596	25.5
409.826	26
411.058	28
412.289	28
413.519	27.5
414.749	26
415.98	28
417.21	27
418.439	30
419.668	25.5
420.897	27
422.128	32
423.356	29
424.585	27
425.813	32
427.041	25.5
428.269	27.5
429.498	24
430.725	29.5
431.952	26.5
433.179	25.5
434.406	28.5
435.633	26
436.859	32
438.085	27
439.312	29.5
440.537	31.5
441.764	30
442.99	26.5
444.215	27
445.44	32.5
446.665	28
447.89	26
449.114	34
450.339	27
451.563	26
452.787	29.5
454.01	28
455.234	26
456.457	32
457.68	27.5
458.903	32
460.126	29
461.348	29
462.569	27
463.792	29.5
465.013	31.5
466.235	34
467.457	28.5
468.678	32
469.899	35
471.12	36
472.341	35
473.56	40
474.781	33.5
476.001	40
477.221	43.5
478.441	41
479.66	50
480.878	49.5
482.098	51
483.317	55
484.535	54.5
485.754	61
486.971	59
488.189	58.5
489.407	60.5
490.625	62.5
491.842	59
493.059	57.5
494.276	58
495.493	56
496.709	50.5
497.926	50.5
499.142	44
500.357	46
501.573	47.5
502.789	39
504.003	40.5
505.219	43.5
506.434	35
507.648	38
508.863	36.5
510.078	36.5
511.291	32.5
512.505	37.5
513.718	30
514.932	30
516.145	32
517.358	27.5
518.572	31.5
519.783	34
520.997	33.5
522.208	29
523.421	30
524.632	30.5
525.844	30
527.055	31
528.266	28.5
529.477	26
530.688	29
531.898	33
533.109	29.5
534.319	26.5
535.53	29.5
536.739	27.5
537.948	28
539.158	27
540.366	30.5
541.576	30
542.784	32
543.994	27.5
545.201	24
546.409	26.5
547.618	30
548.825	28
550.032	28.5
551.24	26
552.447	29.5
553.654	25.5
554.861	31
556.067	30
557.273	24.5
558.48	25
559.686	30.5
560.891	28.5
562.096	30.5
563.302	33
564.507	29.5
565.712	30
566.916	29.5
568.122	30
569.326	26
570.529	25
571.733	26.5
572.936	30.5
574.141	28.5
575.344	30.5
576.547	30.5
577.75	28
578.952	30.5
580.154	26.5
581.358	25.5
582.56	31
583.761	26
584.963	25.5
586.164	26.5
587.365	27
588.566	29
589.767	25.5
590.967	26
592.168	27
593.369	29
594.569	30.5
595.769	25
596.969	27.5
598.168	26
599.367	24
600.566	26
601.765	29.5
602.964	26
604.162	25
605.361	26.5
606.559	28
607.757	30.5
608.953	20.5
610.151	25
611.348	26
612.545	30
613.742	33
614.939	26.5
616.135	27.5
617.332	31
618.528	31
619.724	27.5
620.918	29
622.114	26
623.309	28
624.505	31
625.7	30
626.895	29
628.088	25.5
629.282	28
630.477	25
631.671	24.5
632.865	26.5
634.057	31.5
635.251	28
636.444	27
637.637	26
638.829	27
640.022	25.5
641.214	25
642.407	30.5
643.598	26
644.79	31.5
645.982	28.5
647.172	28
648.364	28.5
649.555	30
650.745	26.5
651.936	27.5
653.126	27
654.315	30
655.506	28
656.696	30
657.885	23.5
659.074	28.5
660.263	31
661.452	29.5
662.64	29.5
663.829	32
665.018	29.5
666.205	28.5
667.394	26
668.581	30.5
669.769	31
670.955	30
672.143	29
673.329	28.5
674.517	28
675.703	28
676.89	34
678.075	32.5
679.262	34
680.447	32
681.632	34.5
682.818	35.5
684.002	36
685.188	32
686.372	35
687.556	33
688.741	36.5
689.925	32
691.11	36
692.293	34
693.476	33
694.66	33.5
695.843	35.5
697.025	33.5
698.209	29
699.391	36
700.573	37
701.756	33
702.938	38
704.119	40.5
705.3	47
706.483	49.5
707.664	49.5
708.844	52
710.025	51
711.206	48.5
712.386	44.5
713.566	41.5
714.746	38.5
715.925	38.5
717.106	29.5
718.285	37
719.464	31.5
720.643	30
721.822	34
723	31
724.178	29
725.358	31
726.536	26.5
727.713	31
728.891	25
730.068	29
731.245	25.5
732.422	30.5
733.599	28.5
734.775	26
735.952	21
737.128	25
738.304	28.5
739.48	28
740.656	28
741.831	27.5
743.006	30.5
744.181	27
745.356	31
746.531	25.5
747.706	29.5
748.88	27
750.054	27.5
751.228	30
752.402	29.5
753.576	29.5
754.749	30
755.922	24
757.095	28.5
758.267	27
759.44	28
760.612	23
761.785	29
762.957	26
764.129	24
765.301	28.5
766.471	25.5
767.642	28
768.814	26
769.985	32
771.156	32
772.325	29.5
773.495	27
774.666	26.5
775.836	26
777.005	31
778.174	26
779.344	31
780.513	28
781.681	32
782.85	29.5
784.019	31.5
785.187	29
786.355	31.5
787.523	31.5
788.69	31.5
789.858	29.5
791.026	31
792.192	35
793.36	31.5
794.526	31.5
795.693	27
796.86	26.5
798.025	28.5
799.191	27.5
800.356	29.5
801.523	27.5
802.689	26.5
803.853	28.5
805.019	26
806.183	28.5
807.348	26.5
808.512	26
809.677	29
810.84	29
812.005	24.5
813.167	30
814.332	24
815.494	31
816.657	28.5
817.82	24
818.982	27.5
820.146	28.5
821.307	23
822.47	32
823.632	24.5
824.793	28
825.955	23.5
827.116	23
828.277	27
829.439	23.5
830.599	26
831.759	29
832.92	27
834.08	31
835.24	22
836.4	29
837.56	28.5
838.719	29
839.877	24
841.037	28.5
842.196	28
843.354	26
844.512	28
845.672	27
846.83	26.5
847.987	28
849.145	27.5
850.302	31
851.46	27
852.617	26
853.774	25
854.93	26.5
856.087	27.5
857.243	27
858.4	30.5
859.556	31.5
860.712	27.5
861.867	27.5
863.022	31.5
864.177	27
865.332	29.5
866.487	30
867.642	30.5
868.796	29
869.95	24.5
871.104	28.5
872.258	29
873.412	30.5
874.565	31.5
875.718	28
876.872	29
878.024	27.5
879.177	28
880.33	25.5
881.482	27
882.635	26
883.787	22.5
884.938	28.5
886.09	25.5
887.242	25.5
888.393	26.5
889.544	24
890.695	29.5
891.845	28
892.995	23.5
894.146	27
895.296	27
896.446	25
897.596	22
898.744	24
899.894	26
901.043	25.5
902.193	28
903.342	25
904.489	28
905.638	27.5
906.786	25
907.935	28
909.081	27.5
910.229	28.5
911.377	29.5
912.525	25.5
913.671	26.5
914.818	25
915.965	27.5
917.111	26.5
918.258	31
919.404	23
920.549	29
921.695	23
922.84	29
923.986	30
925.132	24.5
926.276	23.5
927.421	24.5
928.565	25
929.71	26
930.855	28
931.998	24.5
933.142	26
934.285	25.5
935.429	25
936.572	25
937.716	25.5
938.858	22
940.001	23
941.143	27.5
942.286	24.5
943.428	23
944.57	23.5
945.712	25
946.854	28.5
947.995	26
949.135	25.5
950.277	24
951.418	26
952.559	24
953.699	28
954.839	29.5
955.98	26
957.119	22.5
958.258	26.5
959.399	26
960.538	27
961.676	28
962.816	24.5
963.955	25.5
965.093	25.5
966.232	26.5
967.37	26.5
968.508	26
969.645	24
970.784	25.25
971.921	26
973.058	26.5
974.195	23.5
975.333	25
976.469	28
977.605	26
978.741	26
979.877	24
981.013	28
982.15	31.5
983.285	27.5
984.421	23.5
985.556	23
986.691	22.5
987.825	22
988.96	23
990.094	23.5
991.228	28
992.364	27
993.497	25
994.631	24
995.765	27.5
996.898	25.5
998.031	23
999.164	26.5
1000.3	22
1001.43	25
1002.56	25.5
1003.69	27
1004.83	25.5
1005.96	27.5
1007.09	27
1008.22	31.5
1009.35	21
1010.48	21.5
1011.61	25.5
1012.74	28
1013.88	26
1015.01	27
1016.14	26
1017.27	24
1018.4	19
1019.53	24
1020.65	26
1021.78	24.5
1022.91	28
1024.04	23.5
1025.17	25
1026.3	25.5
1027.43	28
1028.56	25.5
1029.68	29.5
1030.81	21.5
1031.94	23
1033.07	23
1034.19	25.5
1035.32	27
1036.45	21
1037.58	25.5
1038.7	24
1039.83	26
1040.95	26
1042.08	25.5
1043.21	27
1044.33	24
1045.46	24
1046.58	22.5
1047.71	24.5
1048.83	24.5
1049.96	25.5
1051.08	24.5
1052.21	23
1053.33	23.5
1054.45	22.5
1055.58	27
1056.7	23
1057.82	25
1058.95	24.5
1060.07	25.5
1061.19	28
1062.32	28.5
1063.44	22.5
1064.56	24.5
1065.68	27
1066.81	28
1067.93	25.5
1069.05	27.5
1070.17	23
1071.29	26.5
1072.41	24.5
1073.53	26
1074.65	30
1075.77	27
1076.89	24.5
1078.01	26.5
1079.13	23
1080.25	25.5
1081.37	27
1082.49	24.5
1083.61	24
1084.73	24
1085.85	25.5
1086.97	28
1088.09	23.5
1089.2	22.5
1090.32	22.5
1091.44	23.5
1092.56	23
1093.68	25.5
1094.79	24.5
1095.91	26
1097.03	24
1098.14	22
1099.26	23.5
1100.38	26
1101.49	28.5
1102.61	26
1103.73	25.5
1104.84	24.5
1105.96	23.5
1107.07	20.5
1108.19	29
1109.3	26
1110.42	23.5
1111.53	24.5
1112.65	26
1113.76	23
1114.88	23.5
1115.99	21.5
1117.1	25.5
1118.22	23.5
1119.33	24
1120.44	26
1121.56	26.5
1122.67	24
1123.78	24.5
1124.89	23
1126.01	24
1127.12	29.5
1128.23	19
1129.34	24.5
1130.45	20.5
1131.56	22.5
1132.67	25
1133.79	27
1134.9	24
1136.01	23
1137.12	22
1138.23	26
1139.34	23
1140.45	22
1141.56	25.5
1142.67	22.5
1143.78	24.5
1144.89	23.5
1145.99	26
1147.1	25
1148.21	25
1149.32	23
1150.43	25
1151.54	22.5
1152.65	24
1153.75	21
1154.86	23
1155.97	27.5
1157.08	25.5
1158.18	21.5
1159.29	28
1160.4	27
1161.5	23.5
1162.61	19
1163.72	23
1164.82	27.5
1165.93	22.5
1167.03	25.5
1168.14	27
1169.24	23
1170.35	24
1171.45	23.5
1172.56	23
1173.66	24
1174.77	25
1175.87	23
1176.98	25.5
1178.08	24
1179.18	22
1180.29	25.5
1181.39	19
1182.49	22
1183.6	24.5
1184.7	27.5
1185.8	22.5
1186.9	25
1188	24
1189.11	27
1190.21	22.5
1191.31	25
1192.41	27.5
1193.51	25.5
1194.61	26.4738
1195.72	26.8889
1196.82	24.0437
1197.92	21.2281
1199.02	23.1237
1200.12	23.7189
1201.22	24.2576
1202.32	23.6868
1203.42	21.1204
1204.52	24.2529
1205.62	20.8526
1206.71	20.8393
1207.81	25.7486
1208.91	17.7776
1210.01	22.895
1211.11	25.9696
1212.21	25.0534
1213.31	21.503
1214.4	26.1368
1215.5	23.9779
1216.6	25.816
1217.7	24.8676
1218.79	25.4294
1219.89	24.7236
1220.99	24.4966
1222.08	25.0154
1223.18	26.7558
1224.28	23.5675
1225.37	23.9165
1226.47	26.6385
1227.56	26.4161
1228.66	25.2441
1229.76	26.546
1230.85	23.1718
1231.95	24.3356
1233.04	23.4855
1234.14	25.593
1235.23	22.0515
1236.32	21.9866
1237.42	24.1608
1238.51	26.123
1239.61	23.0174
1240.7	22.2937
1241.79	27.2137
1242.89	21.7939
1243.98	26.4266
1245.07	20.9772
1246.17	23.4299
1247.26	26.5299
1248.35	26.6259
1249.44	23.6246
1250.53	23.8077
1251.63	25.1645
1252.72	24.2143
1253.81	26.3817
1254.9	24.7506
1255.99	26.299
1257.08	27.1222
1258.17	27.8726
1259.27	22.8247
1260.36	24.3238
1261.45	27.4036
1262.54	25.6023
1263.63	24.6699
1264.72	25.3985
1265.81	25.5382
1266.89	26.3947
1267.98	26.0926
1269.07	27.5024
1270.16	27.3819
1271.25	26.2092
1272.34	23.6476
1273.43	23.5869
1274.52	22.9819
1275.6	23.7178
1276.69	24.2857
1277.78	24.6354
1278.87	25.9269
1279.95	24.1388
1281.04	21.2108
1282.13	24.2314
1283.22	22.0782
1284.3	22.258
1285.39	22.6828
1286.48	23.5239
1287.56	24.3832
1288.65	22.3813
1289.73	22.9282
1290.82	24.0495
1291.9	23.2621
1292.99	21.8416
1294.07	24.3381
1295.16	27.6908
1296.24	26.0754
1297.33	24.1346
1298.41	23.0695
1299.5	21.6627
1300.58	22.515
1301.66	23.4436
1302.75	23.585
1303.83	24.3938
1304.91	24.0054
1306	21.283
1306.4	20
1307.48	23
1308.57	22
1309.66	24
1310.75	19.5
1311.84	24.5
1312.92	26.5
1314.01	25.5
1315.1	23
1316.18	22
1317.27	25
1318.36	27
1319.44	24.5
1320.53	25
1321.62	24
1322.7	26.5
1323.79	22
1324.87	22.5
1325.96	24
1327.04	25.5
1328.13	24
1329.21	25
1330.3	22
1331.38	25
1332.47	24.5
1333.55	25
1334.64	26
1335.72	22
1336.8	26.5
1337.89	23.5
1338.97	24
1340.05	24
1341.14	21.5
1342.22	27
1343.3	25
1344.38	24
1345.47	25.5
1346.55	30.5
1347.63	24.5
1348.71	26
1349.79	25.5
1350.87	20
1351.96	24
1353.04	23
1354.12	25
1355.2	23
1356.28	23.5
1357.36	22
1358.44	20.5
1359.52	25
1360.6	27
1361.68	24
1362.76	23.5
1363.84	20.5
1364.92	26.5
1366	22
1367.07	18
1368.15	24.5
1369.23	23.5
1370.31	24
1371.39	23.5
1372.47	22.5
1373.54	26
1374.62	26
1375.7	23
1376.78	21
1377.85	21.5
1378.93	25
1380.01	27
1381.08	27.5
1382.16	28
1383.24	26
1384.31	28
1385.39	24.5
1386.46	26
1387.54	27.5
1388.61	25
1389.69	24
1390.76	28
1391.84	23.5
1392.91	25
1393.99	23
1395.06	23
1396.14	26
1397.21	26
1398.29	29.5
1399.36	28
1400.43	28
1401.51	26
1402.58	29
1403.65	26.5
1404.72	29.5
1405.8	28
1406.87	32
1407.94	28.5
1409.02	31
1410.09	25
1411.16	33.5
1412.23	32
1413.3	32
1414.37	34.5
1415.44	25.5
1416.51	27.5
1417.59	30
1418.66	26
1419.73	26.5
1420.8	30.5
1421.87	28.5
1422.94	25
1424.01	27.5
1425.08	29.5
1426.15	26
1427.22	29
1428.28	25
1429.35	26.5
1430.42	28.5
1431.49	27.5
1432.56	30
1433.63	24.5
1434.7	27.5
1435.76	23.5
1436.83	25
1437.9	26.5
1438.97	25.5
1440.03	25.5
1441.1	29
1442.17	24
1443.23	26.5
1444.3	26.5
1445.37	22.5
1446.43	24
1447.5	26.5
1448.57	26.5
1449.63	25
1450.7	24
1451.76	26
1452.83	28.5
1453.89	27
1454.96	28.5
1456.02	25
1457.09	26.5
1458.15	23.5
1459.22	26
1460.28	31.5
1461.34	26
1462.41	21
1463.47	22
1464.53	23.5
1465.6	27.5
1466.66	26
1467.72	28
1468.78	28.5
1469.85	28
1470.91	23
1471.97	24
1473.03	26.5
1474.1	26
1475.16	22.5
1476.22	24
1477.28	28
1478.34	28
1479.4	27.5
1480.46	24
1481.52	28
1482.58	25
1483.65	24.5
1484.71	25
1485.77	27
1486.82	24.5
1487.89	27.5
1488.94	28.5
1490	32
1491.06	25.5
1492.12	25.5
1493.18	25
1494.24	26.5
1495.3	26.5
1496.36	28
1497.41	29
1498.47	24
1499.53	27
1500.59	26
1501.65	24
1502.7	25.5
1503.76	30
1504.82	24.5
1505.87	24
1506.93	23
1507.99	26
1509.04	25
1510.1	21.5
1511.16	26.5
1512.21	23.5
1513.27	24.5
1514.32	30
1515.38	25.5
1516.43	24.5
1517.49	29
1518.54	28
1519.6	27
1520.65	20
1521.71	26
1522.76	26.5
1523.81	27.5
1524.87	22.5
1525.92	21.5
1526.98	27.5
1528.03	26
1529.08	27.5
1530.14	25
1531.19	27.5
1532.24	28
1533.29	27
1534.35	27
1535.4	24
1536.45	26
1537.5	27
1538.55	23
1539.61	26.5
1540.66	28
1541.71	26
1542.76	26
1543.81	30
1544.86	22
1545.91	29
1546.96	24.5
1548.01	25.5
1549.06	24
1550.11	23.5
1551.16	27.5
1552.21	25.5
1553.26	27
1554.31	28
1555.36	24
1556.41	26
1557.46	23
1558.5	25
1559.55	25
1560.6	26
1561.65	29
1562.7	22
1563.74	23.5
1564.79	23
1565.84	26
1566.89	25
1567.93	29
1568.98	24.5
1570.03	24
1571.07	26
1572.12	24
1573.17	24
1574.21	27
1575.26	21.5
1576.3	24
1577.35	27
1578.4	24
1579.44	28
1580.49	28.5
1581.53	29.5
1582.58	27
1583.62	26.5
1584.66	20
1585.71	25.5
1586.75	22.5
1587.8	28
1588.84	23
1589.88	27.5
1590.93	27.5
1591.97	24
1593.01	25.5
1594.06	24
1595.1	25
1596.14	24
1597.18	30
1598.23	28
1599.27	25
1600.31	23.5
1601.35	23.5
1602.39	23.5
1603.44	24
1604.48	28
1605.52	22
1606.56	25.5
1607.6	27
1608.64	28
1609.68	26.5
1610.72	25.5
1611.76	28
1612.8	23.5
1613.84	26
1614.88	25.5
1615.92	23
1616.96	29
1618	27.5
1619.04	27
1620.08	26
1621.12	23
1622.16	24.5
1623.19	26
1624.23	24
1625.27	28
1626.31	29
1627.35	22.5
1628.38	24.5
1629.42	26.5
1630.46	24
1631.49	27
1632.53	29
1633.57	24.5
1634.6	26
1635.64	21
1636.68	24
1637.71	24.5
1638.75	24
1639.79	27
1640.82	26.5
1641.86	28
1642.89	26.5
1643.93	22
1644.96	24
1646	27.5
1647.03	27
1648.07	23.5
1649.1	24
1650.13	22.5
1651.17	28
1652.2	29
1653.24	21.5
1654.27	24
1655.3	21.5
1656.34	26.5
1657.37	20.5
1658.4	25.5
1659.43	24
1660.47	27.5
1661.5	23
1662.53	23
1663.56	25
1664.6	26
1665.63	25.5
1666.66	24
1667.69	27
1668.72	24
1669.75	25
1670.78	24.5
1671.81	27
1672.85	21
1673.88	28
1674.91	28.5
1675.94	24
1676.97	23
1678	23.5
1679.03	23
1680.06	24.5
1681.09	25.5
1682.11	28.5
1683.14	24.5
1684.17	23
1685.2	24
1686.23	30
1687.26	25.5
1688.29	23.5
1689.31	25.5
1690.34	22
1691.37	25
1692.4	25
1693.42	23
1694.45	28
1695.48	24.5
1696.51	25
1697.53	25.5
1698.56	25.5
1699.59	26
1700.61	26.5
1701.64	30
1702.66	25.5
1703.69	24.5
1704.72	25
1705.74	21
1706.77	27
1707.79	25.5
1708.82	25
1709.84	23.5
1710.87	24.5
1711.89	28.5
1712.91	27
1713.94	26
1714.96	26.5
1715.99	27
1717.01	24.5
1718.03	25.5
1719.06	24.5
1720.08	20
1721.1	25.5
1722.13	25
1723.15	22.5
1724.17	26.5
1725.19	26
1726.22	24.5
1727.24	25.5
1728.26	27
1729.28	25
1730.3	27
1731.33	29
1732.35	24.5
1733.37	27
1734.39	29
1735.41	28
1736.43	23.5
1737.45	23
1738.47	24.5
1739.49	25.5
1740.51	21
1741.53	27
1742.55	25
1743.57	24
1744.59	23
1745.61	27.5
1746.63	25.5
1747.65	28
1748.67	24
1749.69	27.5
1750.7	24
1751.72	21.5
1752.74	27
1753.76	26
1754.78	22
1755.79	24
1756.81	23
1757.83	26.5
1758.85	20.5
1759.86	26
1760.88	23
1761.9	26
1762.91	25
1763.93	28.5
1764.95	24.5
1765.96	23.5
1766.98	23.5
1767.99	26
1769.01	23
1770.02	25
1771.04	25
1772.06	26
1773.07	24
1774.09	21
1775.1	25
1776.11	28.5
1777.13	26
1778.14	24
1779.16	24.5
1780.17	26
1781.18	20
1782.2	22
1783.21	29
1784.22	24.5
1785.24	27
1786.25	24
1787.26	24
1788.28	26.5
1789.29	25
1790.3	25.5
1791.31	25
1792.33	29
1793.34	29.5
1794.35	23
1795.36	25
1796.37	27
1797.38	23
1798.39	27
1799.4	29.5
1800.42	21
1801.43	22
1802.44	23.5
1803.45	22.5
1804.46	24.5
1805.47	22.5
1806.48	25.5
1807.49	22
1808.5	24.5
1809.51	25
1810.51	25
1811.52	26
1812.53	23.5
1813.54	27
1814.55	21
1815.56	24.5
1816.57	28
1817.57	22
1818.58	26.5
1819.59	26.5
1820.6	23.5
1821.61	25
1822.61	23.5
1823.62	24
1824.63	24
1825.63	24
1826.64	25
1827.65	20
1828.65	26.5
1829.66	23.5
1830.67	24
1831.67	25
1832.68	23
1833.68	26.5
1834.69	20
1835.69	26
1836.7	26.5
1837.7	22.5
1838.71	22.5
1839.71	23.5
1840.72	26.5
1841.72	22
1842.73	21.5
1843.73	25
1844.73	21
1845.74	24
1846.74	24
1847.74	24.5
1848.75	22.5
1849.75	23
1850.75	22.5
1851.76	24.5
1852.76	22.5
1853.76	24
1854.76	28
1855.77	29
1856.77	19
1857.77	23.5
1858.77	22.5
1859.77	25.5
1860.77	24.5
1861.78	22
1862.78	25
1863.78	27.5
1864.78	25.5
1865.78	26.5
1866.78	28
1867.78	21
1868.78	22.5
1869.78	19
1870.78	22.5
1871.78	21
1872.78	22
1873.78	21.5
1874.78	26.5
1875.78	25
1876.78	26
1877.78	24.5
1878.77	23
1879.77	23.5
1880.77	26
1881.77	24
1882.77	25.5
1883.77	23
1884.76	19
1885.76	26
1886.76	21.5
1887.75	26.5
1888.75	26.5
1889.75	26.5
1890.75	25
1891.74	26
1892.74	26
1893.73	22
1894.73	24.5
1895.73	27
1896.72	24
1897.72	21
1898.71	27
1899.71	25.5
1900.7	23
1901.7	23.5
1902.69	25.5
1903.69	22
1904.68	20
1905.68	23
1906.67	24
1907.67	25.5
1908.66	25.5
1909.65	27.5
1910.65	25
1911.64	25.5
1912.63	21.5
1913.63	27
1914.62	24.5
1915.61	24
1916.61	25
1917.6	24.5
1918.59	27.5
1919.58	25
1920.58	27.5
1921.57	28.5
1922.56	25
1923.55	23.5
1924.54	25
1925.54	26
1926.53	26
1927.52	22
1928.51	27
1929.5	25
1930.49	25
1931.48	25
1932.47	21
1933.46	23
1934.45	21.5
1935.44	24
1936.43	22.5
1937.42	26
1938.41	23.5
1939.4	22
1940.39	22
1941.38	21
1942.37	26
1943.35	26
1944.34	26
1945.33	24.5
1946.32	24.5
1947.31	25.5
1948.3	23.5
1949.28	20
1950.27	24
1951.26	21.5
1952.25	26
1953.23	21
1954.22	24.5
1955.21	23.5
1956.19	27
1957.18	25.5
1958.17	27
1959.15	23.5
1960.14	25
1961.12	27
1962.11	24
1963.1	27
1964.08	24
1965.07	26.5
1966.05	23
1967.04	22
1968.02	23
1969.01	25.5
1969.99	25.5
1970.98	25
1971.96	24.5
1972.94	23
1973.93	24
1974.91	28
1975.9	25
1976.88	22.5
1977.86	27
1978.85	21.5
1979.83	26
1980.81	25.5
1981.79	23
1982.78	25.5
1983.76	25
1984.74	22.5
1985.72	28
1986.71	27
1987.69	23
1988.67	25.5
1989.65	28
1990.63	23
1991.61	22
1992.59	19.5
1993.57	26.5
1994.56	27
1995.54	22
1996.52	25
1997.5	27
1998.48	22
1999.46	22.5
2000.44	22.5
2001.42	24.5
2002.4	23
2003.38	25.5
2004.36	23
2005.33	24.5
2006.31	25.5
2007.29	28
2008.27	21
2009.25	22
2010.23	22.5
2011.21	20
2012.18	26.5
2013.16	22
2014.14	22
2015.12	23.5
2016.09	25.5
2017.07	23
2018.05	21
2019.03	25
2020	24.5
2020.98	22.5
2021.96	28.5
2022.93	20.5
2023.91	25
2024.89	22
2025.86	25
2026.84	25
2027.81	22.5
2028.79	21
2029.76	23.5
2030.74	20.5
2031.71	23
2032.69	24
2033.66	18
2034.64	25
2035.61	19.5
2036.59	25.5
2037.56	26
2038.54	21
2039.51	24
2040.48	23.5
2041.46	24.5
2042.43	22
2043.4	24
2044.38	26
2045.35	23
2046.32	21
2047.29	23.5
2048.27	24.5
2049.24	22
2050.21	22.5
2051.18	26
2052.16	24.5
2053.13	23
2054.1	25.5
2055.07	19.5
2056.04	26.5
2057.01	25.5
2057.98	24
2058.96	23
2059.93	23
2060.9	26
2061.87	25.5
2062.84	25.5
2063.81	23.5
2064.78	24.5
2065.75	24
2066.72	23.5
2067.69	22.5
2068.66	21
2069.63	22
2070.6	24
2071.56	20.5
2072.53	21
2073.5	25.5
2074.47	23.5
2075.44	24.5
2076.41	23.5
2077.38	20
2078.34	24
2079.31	21
2080.28	21.5
2081.25	23
2082.21	27
2083.18	25
2084.15	21.5
2085.11	24.5
2086.08	23
2087.05	19.5
2088.01	25
2088.98	21
2089.95	25
2090.91	25
2091.88	20.5
2092.84	20
2093.81	22.5
2094.78	23
2095.74	22.5
2096.71	21
2097.67	19.5
2098.64	28
2099.6	24
2100.57	26.5
2101.53	22
2102.49	22.5
2103.46	23
2104.42	24
2105.39	22.5
2106.35	19
2107.31	20
2108.28	24.5
2109.24	23
2110.2	27
2111.17	25
2112.13	22.5
2113.09	23.5
2114.05	20
2115.02	24.5
2115.98	21
2116.94	23
2117.9	28
2118.86	22
2119.83	21
2120.79	25.5
2121.75	22.5
2122.71	22.5
2123.67	24.5
2124.63	19.5
2125.59	24
2126.55	21
2127.51	25
2128.47	25
2129.43	22.5
2130.39	26.5
2131.35	22.5
2132.31	22.5
2133.27	22.5
2134.23	24
2135.19	26
2136.15	22
2137.11	23
2138.07	24
2139.03	24.5
2139.99	21
2140.94	25.5
2141.9	22.5
2142.86	22.0063
2143.82	24.4149
2144.78	25.0468
2145.73	24.0296
2146.69	23.5995
2147.65	21.0941
2148.61	24.9261
2149.56	23.9212
2150.52	22.972
2151.48	23.0533
2152.43	23.9923
2153.39	24.3478
2154.35	22.3094
2155.3	23.568
2156.26	23.7369
2157.21	22.5564
2158.17	22.8205
2159.13	21.3954
2160.08	20.8204
2161.04	23.7577
2161.99	24.1684
2162.95	26.2313
2163.9	20.5431
2164.86	22.7621
2165.81	18.8612
2166.77	24.8718
2167.72	23.5692
2168.67	22.9581
2169.63	22.1983
2170.58	21.8152
2171.54	21.9558
2172.49	20.4365
2173.44	25.2379
2174.4	24.1927
2175.35	23.0099
2176.3	24.6468
2177.26	23.3371
2178.21	23.3973
2179.16	21.5748
2180.11	20.9369
2181.07	22.4479
2182.02	25.4759
2182.97	20.6483
2183.92	24.5707
2184.87	22.5926
2185.82	21.1165
2186.78	23.4022
2187.73	21.2837
2188.68	21.2159
2189.63	24.9224
2190.58	22.3075
2191.53	21.4858
2192.48	20.6239
2193.43	23.278
2194.38	21.829
2195.33	20.6707
2196.28	23.7924
2197.23	24.8591
2198.18	22.0648
2199.13	21.8098
2200.08	20.7479
2201.03	22.5381
2201.98	21.8141
2202.93	20.3031
2203.88	21.5858
2204.83	23.5181
2205.77	23.9853
2206.72	22.7825
2207.67	20.9916
2208.62	22.0503
2209.57	19.9729
2210.52	21.9177
2211.46	21.5641
2212.41	22.6352
2213.36	22.8617
2214.31	22.6994
2215.25	22.0606
2216.2	21.4235
2217.15	23.0751
2218.09	20.7692
2219.04	23.3842
2219.99	22.0219
2220.93	22.0256
2221.88	20.2638
2222.82	18.9544
2223.77	25.6607
2224.72	25.0547
2225.66	21.9193
2226.61	23.3594
2227.55	22.6352
2228.5	23.3646
2229.44	22.2536
2230.39	21.4265
2231.33	21.8967
2232.28	21.8388
2233.22	20.1359
2234.16	22.5918
2235.11	23.359
2236.05	21.0371
2237	21.3777
2237.94	21.3389
2238.88	22.7434
2239.83	23.1403
2240.13	23
2241.08	24
2242.03	24
2242.98	22
2243.92	21
2244.87	26.5
2245.82	25
2246.76	23.5
2247.71	19.5
2248.66	20
2249.61	23
2250.55	25.5
2251.5	20
2252.45	23.5
2253.39	24.5
2254.34	21
2255.28	18.5
2256.23	21.5
2257.18	24
2258.12	19.5
2259.07	24
2260.01	24.5
2260.96	22
2261.9	25
2262.85	20.5
2263.79	24.5
2264.74	24.5
2265.68	25
2266.63	21.5
2267.57	20.5
2268.51	21.5
2269.46	21
2270.4	24
2271.35	26.5
2272.29	26
2273.23	23
2274.18	24
2275.12	24.5
2276.06	25
2277	20
2277.95	23.5
2278.89	21.5
2279.83	19.5
2280.78	24.5
2281.72	21
2282.66	24
2283.6	21
2284.54	20.5
2285.48	21.5
2286.43	22.5
2287.37	23.5
2288.31	22
2289.25	20
2290.19	24
2291.13	26
2292.07	24.5
2293.01	21
2293.95	24
2294.89	26
2295.83	21
2296.77	19.5
2297.71	24.5
2298.65	21
2299.59	23
2300.53	22
2301.47	20
2302.41	23
2303.35	25
2304.29	21.5
2305.22	25
2306.16	28
2307.1	21.5
2308.04	25
2308.98	26.5
2309.91	24.5
2310.85	22.5
2311.79	21.5
2312.73	26
2313.66	22.5
2314.6	25.5
2315.54	25.5
2316.48	22.5
2317.41	24
2318.35	22.5
2319.29	23.5
2320.22	27.5
2321.16	28
2322.09	26
2323.03	18.5
2323.97	24
2324.9	25
2325.84	26
2326.77	22
2327.71	23
2328.64	19
2329.58	26
2330.51	18
2331.45	25
2332.38	24.5
2333.32	22
2334.25	28
2335.18	25
2336.12	22
2337.05	27
2337.99	22.5
2338.92	21.5
2339.85	23
2340.79	22
2341.72	25.5
2342.65	24.5
2343.59	20
2344.52	27
2345.45	22
2346.38	22
2347.32	25
2348.25	24
2349.18	20.5
2350.11	20
2351.04	22
2351.98	23
2352.91	28
2353.84	20.5
2354.77	23
2355.7	25
2356.63	23
2357.56	25
2358.49	19.5
2359.42	21
2360.35	19.5
2361.28	20.5
2362.21	24
2363.14	21
2364.07	26
2365	21
2365.93	24
2366.86	27
2367.79	22.5
2368.72	23
2369.65	21
2370.58	27
2371.51	22.5
2372.44	22
2373.36	23
2374.29	22
2375.22	21.5
2376.15	21.5
2377.08	23
2378	24.5
2378.93	22
2379.86	20
2380.79	21
2381.71	25
2382.64	25.5
2383.57	21
2384.49	28
2385.42	23
2386.35	22
2387.27	26
2388.2	27.5
2389.13	25.5
2390.05	21
2390.98	22.5
2391.9	22.5
2392.83	25.5
2393.76	26
2394.68	26.5
2395.61	23
2396.53	22
2397.46	24
2398.38	21.5
2399.3	24.5
2400.23	23.5
2401.15	24
2402.08	23
2403	26.5
2403.93	27
2404.85	22.5
2405.77	21.5
2406.7	23
2407.62	24.5
2408.54	24
2409.47	22
2410.39	21.5
2411.31	25
2412.24	23.5
2413.16	21
2414.08	24
2415	20
2415.92	24
2416.85	23
2417.77	26.5
2418.69	22
2419.61	24
2420.53	25
2421.45	20
2422.38	27
2423.3	23
2424.22	26
2425.14	20.5
2426.06	25.5
2426.98	23
2427.9	20
2428.82	22
2429.74	22
2430.66	23.5
2431.58	25
2432.5	22
2433.42	23
2434.34	21.5
2435.26	26.5
2436.18	22
2437.1	22.5
2438.01	25
2438.93	24
2439.85	26
2440.77	24
2441.69	24
2442.61	25
2443.52	21.5
2444.44	24.5
2445.36	25.5
2446.28	20
2447.2	23.5
2448.11	22.5
2449.03	23.5
2449.95	23
2450.86	21.5
2451.78	26
2452.7	22.5
2453.61	24
2454.53	23.5
2455.45	24.5
2456.36	22
2457.28	23
2458.2	23.5
2459.11	25
2460.03	24
2460.94	24
2461.86	21
2462.77	28
2463.69	23.5
2464.6	27
2465.52	24.5
2466.43	25
2467.35	26
2468.26	25
2469.18	21
2470.09	24.5
2471	23
2471.92	25.5
2472.83	24.5
2473.74	26.5
2474.66	22
2475.57	22.5
2476.48	24
2477.4	25.5
2478.31	23
2479.22	25
2480.14	23.5
2481.05	25
2481.96	22
2482.87	23.5
2483.79	25
2484.7	25.5
2485.61	23.5
2486.52	25.5
2487.43	21.5
2488.34	24.5
2489.25	24
2490.17	25.5
2491.08	24
2491.99	27.5
2492.9	26
2493.81	25
2494.72	23
2495.63	26.5
2496.54	23.5
2497.45	24
2498.36	26.5
2499.27	24.5
2500.18	26
2501.09	25
2502	22
2502.91	27.5
2503.82	22
2504.73	24.5
2505.63	21
2506.54	24
2507.45	24
2508.36	24.5
2509.27	24
2510.18	23
2511.09	26.5
2511.99	24.5
2512.9	21
2513.81	24
2514.72	26
2515.62	24.5
2516.53	20
2517.44	25
2518.34	22
2519.25	22
2520.16	23.5
2521.06	26
2521.97	28
2522.88	25
2523.78	26
2524.69	26
2525.6	19.5
2526.5	21.5
2527.41	24
2528.31	21.5
2529.22	23.5
2530.12	23
2531.03	22.5
2531.93	26
2532.84	24
2533.74	21.5
2534.65	24.5
2535.55	24
2536.46	23
2537.36	22
2538.27	27
2539.17	24
2540.07	23
2540.98	22
2541.88	22
2542.78	26.5
2543.69	20.5
2544.59	23.5
2545.49	21
2546.4	24
2547.3	25.5
2548.2	26.5
2549.1	25
2550.01	26.5
2550.91	24
2551.81	24.5
2552.71	26.5
2553.61	24.5
2554.52	26
2555.42	27
2556.32	24
2557.22	22
2558.12	28.5
2559.02	26.5
2559.92	21
2560.82	22.5
2561.72	21.5
2562.62	22
2563.53	19.5
2564.43	21.5
2565.33	22.5
2566.23	22
2567.13	26.5
2568.03	24.5
2568.92	23
2569.82	27
2570.72	24
2571.62	22.5
2572.52	24.5
2573.42	22
2574.32	25
2575.22	26
2576.12	27
2577.02	29
2577.91	22.5
2578.81	23.5
2579.71	22.5
2580.61	25
2581.5	26
2582.4	23.5
2583.3	19.5
2584.2	22
2585.09	23
2585.99	28.5
2586.89	25.5
2587.78	23
2588.68	25.5
2589.58	24.5
2590.47	27
2591.37	23.5
2592.27	26
2593.16	21
2594.06	26.5
2594.95	23
2595.85	24.5
2596.75	24
2597.64	22
2598.54	20.5
2599.43	27
2600.33	20.5
2601.22	27
2602.12	23.5
2603.01	23.5
2603.9	22
2604.8	23.5
2605.69	25.5
2606.59	24
2607.48	24
2608.37	25
2609.27	22
2610.16	25.5
2611.05	23
2611.95	24.5
2612.84	25
2613.73	22
2614.63	19.5
2615.52	23
2616.41	27
2617.3	27.5
2618.2	24
2619.09	25
2619.98	20
2620.87	25
2621.76	25
2622.66	27
2623.55	25
2624.44	26.5
2625.33	24
2626.22	24
2627.11	20
2628	26
2628.9	20.5
2629.79	23.5
2630.68	21
2631.57	24.5
2632.46	22
2633.35	22.5
2634.24	23.5
2635.13	22
2636.02	27.5
2636.91	25.5
2637.8	26
2638.68	26.5
2639.57	24.5
2640.46	23
2641.35	23.5
2642.24	23
2643.13	25.5
2644.02	25
2644.91	23
2645.79	25
2646.68	25
2647.57	25.5
2648.46	27.5
2649.35	21
2650.23	23
2651.12	22.5
2652.01	27.5
2652.9	25
2653.78	26
2654.67	22.5
2655.56	21.5
2656.44	24
2657.33	26.5
2658.22	23.5
2659.1	27
2659.99	23.5
2660.88	21.5
2661.76	24.5
2662.65	26.5
2663.53	21
2664.42	22
2665.3	25
2666.19	21
2667.07	22
2667.96	24.5
2668.84	23
2669.73	23.5
2670.61	22
2671.5	22
2672.38	24
2673.27	25
2674.15	23
2675.04	25.5
2675.92	25.5
2676.8	24.5
2677.69	22
2678.57	22
2679.45	24.5
2680.34	26
2681.22	24
2682.1	24.5
2682.99	22.5
2683.87	25
2684.75	22.5
2685.63	24.5
2686.52	22.5
2687.4	24.5
2688.28	25
2689.16	23.5
2690.04	27.5
2690.93	22.5
2691.81	18
2692.69	26
2693.57	22.5
2694.45	25
2695.33	23
2696.21	25
2697.09	26
2697.97	24
2698.85	23
2699.74	22
2700.62	26
2701.5	25
2702.38	25.5
2703.26	28
2704.14	23
2705.02	27.5
2705.89	27.5
2706.77	25.5
2707.65	25
2708.53	27
2709.41	25
2710.29	24.5
2711.17	22.5
2712.05	25
2712.93	21.5
2713.8	22
2714.68	22
2715.56	24.5
2716.44	26
2717.32	26
2718.19	23
2719.07	27
2719.95	25
2720.83	25
2721.7	23
2722.58	24.5
2723.46	19.5
2724.33	22.5
2725.21	24
2726.09	24
2726.97	26.5
2727.84	28
2728.72	24
2729.59	22
2730.47	23.5
2731.35	24.5
2732.22	21
2733.1	27
2733.97	28
2734.85	22.5
2735.72	22
2736.6	26
2737.47	21.5
2738.35	25
2739.22	24
2740.1	27
2740.97	27.5
2741.84	27.5
2742.72	25
2743.59	22.5
2744.47	24.5
2745.34	25
2746.21	26.5
2747.09	25
2747.96	28.5
2748.83	25
2749.71	24.5
2750.58	23
2751.45	26
2752.33	25
2753.2	23
2754.07	21
2754.94	24
2755.82	23.5
2756.69	22
2757.56	24
2758.43	23
2759.3	22.5
2760.18	26.5
2761.05	28.5
2761.92	21.5
2762.79	20.5
2763.66	26
2764.53	23.5
2765.4	24.5
2766.27	25
2767.14	24.5
2768.01	22
2768.88	21
2769.75	23.5
2770.62	24.5
2771.49	26
2772.36	24.5
2773.23	25.5
2774.1	24.5
2774.97	26
2775.84	24.5
2776.71	28.5
2777.58	25.5
2778.45	25.5
2779.32	24
2780.19	25
2781.06	23
2781.92	24.5
2782.79	27.5
2783.66	21
2784.53	22
2785.4	32.5
2786.26	25.5
2787.13	22
2788	27
2788.87	24.5
2789.73	23
2790.6	27.5
2791.47	27.5
2792.34	28.5
2793.2	22.5
2794.07	25
2794.94	27
2795.8	26.5
2796.67	21.5
2797.53	22.5
2798.4	25
2799.27	26.5
2800.13	27.5
2801	25.5
2801.86	23.5
2802.73	24.5
2803.59	23
2804.46	27
2805.32	24
2806.19	28.5
2807.05	28
2807.92	22.5
2808.78	24
2809.65	31
2810.51	24.5
2811.38	28.5
2812.24	24
2813.1	26
2813.97	26
2814.83	23.5
2815.7	25
2816.56	27
2817.42	26.5
2818.29	24
2819.15	25.5
2820.01	24
2820.87	26.5
2821.74	26.5
2822.6	27
2823.46	25
2824.32	28.5
2825.19	26.5
2826.05	26.5
2826.91	27
2827.77	28.5
2828.63	26.5
2829.5	27.5
2830.36	22.5
2831.22	22
2832.08	27
2832.94	23.5
2833.8	31.5
2834.66	23.5
2835.52	28
2836.38	24.5
2837.24	29
2838.1	26
2838.96	24
2839.82	24
2840.68	26
2841.54	28.5
2842.4	27.5
2843.26	29
2844.12	26
2844.98	27
2845.84	30
2846.7	29
2847.56	23.5
2848.42	30
2849.28	25
2850.14	26.5
2850.99	28
2851.85	23.5
2852.71	25
2853.57	25.5
2854.43	22.5
2855.28	28.5
2856.14	25.5
2857	24.5
2857.86	26
2858.71	26.5
2859.57	31
2860.43	24.5
2861.28	27
2862.14	30.5
2863	23
2863.86	26.5
2864.71	25.5
2865.57	28
2866.42	25
2867.28	26
2868.14	28
2868.99	29.5
2869.85	26.5
2870.7	29
2871.56	26
2872.41	32.5
2873.27	28.5
2874.13	27
2874.98	24.5
2875.83	27
2876.69	32
2877.54	28
2878.4	28
2879.25	32.5
2880.11	28
2880.96	31
2881.81	35
2882.67	32
2883.52	34
2884.38	36
2885.23	35.5
2886.08	27.5
2886.94	36.5
2887.79	31
2888.64	35.5
2889.5	34
2890.35	37
2891.2	42.5
2892.05	36
2892.91	39
2893.76	43
2894.61	44.5
2895.46	49
2896.31	47.5
2897.17	48.5
2898.02	51
2898.87	55
2899.72	59
2900.57	61.5
2901.42	64
2902.27	59
2903.12	64
2903.98	66.5
2904.83	76
2905.68	75
2906.53	67
2907.38	68
2908.23	66.5
2909.08	74
2909.93	66
2910.78	61
2911.63	64
2912.48	59.5
2913.33	57
2914.18	56.5
2915.02	47.5
2915.87	47
2916.72	40
2917.57	39.5
2918.42	38
2919.27	37
2920.12	35
2920.97	38
2921.81	34
2922.66	38
2923.51	29.5
2924.36	31
2925.21	30.5
2926.05	32.5
2926.9	29.5
2927.75	34
2928.59	32
2929.44	26
2930.29	30
2931.14	28
2931.98	29
2932.83	32
2933.68	28
2934.52	29.5
2935.37	30.5
2936.21	31
2937.06	29
2937.91	27
2938.75	29.5
2939.6	25.5
2940.44	26
2941.29	30.5
2942.14	26
2942.98	31
2943.82	29.5
2944.67	29
2945.51	28
2946.36	26
2947.2	29
2948.05	28
2948.89	31.5
2949.74	28.5
2950.58	29.5
2951.43	29.5
2952.27	28
2953.11	30.5
2953.96	35
2954.8	35
2955.64	34
2956.49	33
2957.33	35
2958.17	37
2959.02	34
2959.86	40
2960.7	38.5
2961.54	35.5
2962.39	37
2963.23	42.5
2964.07	42.5
2964.91	44.5
2965.75	35
2966.6	40.5
2967.44	43
2968.28	38
2969.12	40
2969.96	38
2970.8	39.5
2971.64	40.9927
2972.48	42.3099
2973.33	36.0497
2974.17	35.0224
2975.01	39.2018
2975.85	36.7097
2976.69	30.0652
2977.53	33.1831
2978.37	33.4353
2979.21	32.2464
2980.05	30.3562
2980.89	25.6487
2981.73	29.1905
2982.57	28.1792
2983.41	30.9849
2984.25	27.0781
2985.08	28.818
2985.92	28.425
2986.76	26.3135
2987.6	29.0599
2988.44	27.033
2989.28	24.1164
2990.12	27.7354
2990.96	26.3516
2991.79	21.8958
2992.63	23.3087
2993.47	27.9485
2994.31	27.3465
2995.14	24.9952
2995.98	28.5385
2996.82	24.8549
2997.66	24.9805
2998.49	27.6742
2999.33	25.6363
3000.17	22.2238
3001	19.6614
3001.84	24.3946
3002.68	21.5407
3003.51	23.8576
3004.35	22.6108
3005.19	25.7238
3006.02	22.5513
3006.86	23.3735
3007.7	24.4662
3008.53	24.0948
3009.37	23.3374
3010.2	25.719
3011.04	24.7187
3011.87	25.1658
3012.71	25.0223
3013.54	23.6603
3014.38	25.404
3015.21	21.3734
3016.05	21.3635
3016.88	20.395
3017.72	21.8004
3018.55	23.366
3019.39	24.4198
3020.22	24.4522
3021.05	22.9222
3021.89	21.5312
3022.72	23.1079
3023.55	23.5617
3024.39	23.4872
3025.22	20.6262
3026.05	21.3499
3026.89	21.0919
3027.72	22.6893
3028.55	22.605
3029.39	24.7895
3030.22	25.912
3031.05	21.8667
3031.88	21.7592
3032.72	22.8066
3033.55	22.674
3034.38	23.2368
3035.21	24.3289
3036.04	24.0447
3036.88	22.5895
3037.71	20.7789
3038.54	21.1839
3039.37	21.5324
3040.2	23.1062
3041.03	25.3421
3041.86	24.5112
3042.69	23.43
3043.52	21.699
3044.36	21.201
3045.19	23.3592
3046.02	23.0119
3046.85	22.4103
3047.68	23.0114
3048.51	22.3268
3049.34	20.6182
3050.17	19.966
3051	22.2698
3051.83	22.45
3052.66	22.0243
3053.48	24.8365
3054.31	25.8198
3055.14	23.3156
3055.97	22.6783
3056.8	22.5768
3057.29	22
3058.12	19.5
3058.95	26
3059.79	23.5
3060.62	24
3061.45	21.5
3062.29	23
3063.12	22
3063.95	22.5
3064.78	23
3065.62	22
3066.45	21
3067.28	22.5
3068.11	22
3068.94	25
3069.77	23
3070.61	22
3071.44	24
3072.27	21.5
3073.1	26.5
3073.93	20
3074.76	18
3075.59	22
3076.42	20
3077.25	21
3078.08	25.5
3078.92	25
3079.74	25.5
3080.57	24
3081.41	21.5
3082.24	22.5
3083.06	24.5
3083.89	23.5
3084.72	24
3085.55	20
3086.38	21.5
3087.21	29
3088.04	20.5
3088.87	27
3089.7	22
3090.53	25.5
3091.36	23.5
3092.18	26
3093.01	22.5
3093.84	24
3094.67	22
3095.5	23.5
3096.32	21.5
3097.15	23
3097.98	22
3098.81	19.5
3099.64	24
3100.46	25
3101.29	23.5
3102.12	22.5
3102.94	28
3103.77	25
3104.6	28
3105.42	25
3106.25	23
3107.08	21
3107.9	22.5
3108.73	24
3109.56	22.5
3110.38	20.5
3111.21	24.5
3112.03	26
3112.86	24
3113.68	19.5
3114.51	24.5
3115.33	22
3116.16	26
3116.98	25.5
3117.81	26
3118.63	22
3119.46	21.5
3120.28	25
3121.11	24.5
3121.93	27.5
3122.76	23
3123.58	22.5
3124.4	22
3125.23	21
3126.05	21
3126.87	27
3127.7	24
3128.52	21
3129.34	22
3130.17	20
3130.99	24.5
3131.81	26.5
3132.64	22
3133.46	23.5
3134.28	21.5
3135.1	22.5
3135.93	27
3136.75	22.5
3137.57	26
3138.39	25
3139.21	25
3140.04	29
3140.86	23
3141.68	25
3142.5	25.5
3143.32	24
3144.14	23
3144.96	24.5
3145.78	22
3146.61	20
3147.43	24.5
3148.25	28
3149.07	19
3149.89	22
3150.71	26.5
3151.53	22.5
3152.35	22.5
3153.17	26.5
3153.99	23.5
3154.81	24.5
3155.63	19.5
3156.45	21
3157.27	22
3158.08	24.5
3158.9	22.5
3159.72	20.5
3160.54	22.5
3161.36	25
3162.18	23
3163	23.5
3163.82	26.5
3164.63	23.5
3165.45	24
3166.27	22.5
3167.09	23.5
3167.91	23
3168.72	25.5
3169.54	21
3170.36	25
3171.18	20
3171.99	23.5
3172.81	26
3173.63	23
3174.44	23.5
3175.26	26
3176.08	22.5
3176.89	22
3177.71	23.5
3178.53	24
3179.34	23
3180.16	25
3180.97	26.5
3181.79	25
3182.61	21
3183.42	22
3184.24	23.5
3185.05	22.5
3185.87	24.5
3186.68	19
3187.5	22.5
3188.31	20
3189.13	21
3189.94	22
3190.76	22
3191.57	23.5
3192.39	22
3193.2	24
3194.02	22.5
3194.83	22
3195.64	21
3196.46	25
3197.27	23
3198.08	22
3198.9	26.5
3199.71	25
3200.52	25.5
3201.34	23.5
3202.15	23.5
3202.96	25
3203.78	21.5
3204.59	23.5
3205.4	23.5
3206.21	24
3207.03	21
3207.84	27
3208.65	21.5
3209.46	26
3210.27	26.5
3211.09	24.5
3211.9	24
3212.71	23
3213.52	23
3214.33	21
3215.14	25.5
3215.95	25.5
3216.77	24.5
3217.58	22
3218.39	23
3219.2	27
3220.01	20
3220.82	24
3221.63	23
3222.44	25
3223.25	22
3224.06	21.5
3224.87	26.5
3225.68	27
3226.49	20.5
3227.3	25.5
3228.11	22
3228.92	22.5
3229.73	27.5
3230.53	21
3231.34	26
3232.15	24.5
3232.96	22
3233.77	24.5
3234.58	20
3235.39	24.5
3236.19	21.5
3237	20
3237.81	26
3238.62	22
3239.43	21.5
3240.23	21
3241.04	25.5
3241.85	25.5
3242.66	21
3243.46	24
3244.27	24
3245.08	24
3245.89	25
3246.69	24.5
3247.5	23
3248.31	21
3249.11	23.5
3249.92	21
3250.72	22
3251.53	24
3252.34	28
3253.14	23.5
3253.95	20
3254.75	22.5
3255.56	21.5
3256.36	26
3257.17	24.5
3257.98	26.5
3258.78	23
3259.59	25.5
3260.39	24
3261.19	24.5
3262	23.5
3262.8	22.5
3263.61	24
3264.41	24.5
3265.22	24
3266.02	23
3266.83	24.5
3267.63	24.5
3268.43	23.5
3269.24	23
3270.04	25
3270.84	24.5
3271.65	22.5
3272.45	21.5
3273.25	24
3274.06	21
3274.86	20
3275.66	21.5
3276.46	23
3277.27	25
3278.07	25
3278.87	24
3279.67	23
3280.48	26
3281.28	23.5
3282.08	25
3282.88	22
3283.68	27
3284.48	20
3285.29	24.5
3286.09	22
3286.89	21.5
3287.69	22.5
3288.49	24.5
3289.29	22
3290.09	23
3290.89	18.5
3291.69	25
3292.49	24
3293.29	22
3294.09	26.5
3294.89	22.5
3295.69	22
3296.49	26
3297.29	23
3298.09	25
3298.89	23.5
3299.69	26
3300.49	21
3301.29	22
3302.09	23
3302.89	20.5
3303.69	20
3304.49	23.5
3305.28	25
3306.08	28
3306.88	26.5
3307.68	23.5
3308.48	23.5
3309.28	23
3310.07	22
3310.87	25
3311.67	22.5
3312.47	26.5
3313.26	23.5
3314.06	20
3314.86	26
3315.66	24
3316.45	22
3317.25	22
3318.05	25.5
3318.84	24
3319.64	19.5
3320.44	21
3321.23	27.5
3322.03	24
3322.83	22.5
3323.62	23
3324.42	24.5
3325.21	22.5
3326.01	21
3326.81	24
3327.6	25
3328.4	21.5
3329.19	24.5
3329.99	26
3330.78	26.5
3331.58	22.5
3332.37	25.5
3333.17	26
3333.96	24.5
3334.76	23
3335.55	20
3336.34	24.5
3337.14	25.5
3337.93	26
3338.73	24.5
3339.52	25
3340.31	23
3341.11	25.5
3341.9	22.5
3342.69	28.5
3343.49	27
3344.28	23
3345.07	22
3345.87	22
3346.66	21.5
3347.45	23
3348.25	28.5
3349.04	26
3349.83	24
3350.62	21
3351.42	25
3352.21	22
3353	23.5
3353.79	22.5
3354.58	26.5
3355.37	24.5
3356.17	22
3356.96	24
3357.75	22
3358.54	25
3359.33	26.5
3360.12	24
3360.91	29
3361.7	21
3362.49	22
3363.29	25
3364.08	20.5
3364.87	23
3365.66	23.5
3366.45	27
3367.24	24
3368.03	18.5
3368.82	22.5
3369.61	26
3370.4	28
3371.19	24
3371.97	22
3372.76	24.5
3373.55	24
3374.34	23
3375.13	26
3375.92	24
3376.71	21
3377.5	22.5
3378.29	23
3379.07	19.5
3379.86	27
3380.65	26
3381.44	23
3382.23	25.5
3383.01	22
3383.8	26.5
3384.59	25
3385.38	22.5
3386.16	27.5
3386.95	23
3387.74	24
3388.53	22
3389.31	22.5
3390.1	21
3390.89	22
3391.67	17.5
3392.46	24.5
3393.25	27
3394.03	22
3394.82	27
3395.6	22
3396.39	22.5
3397.18	23.5
3397.96	22.5
3398.75	23.5
3399.53	26
3400.32	22.5
3401.1	25
3401.89	25
3402.67	22
3403.46	26.5
3404.24	26
3405.03	23.5
3405.81	26
3406.6	22.5
3407.38	25
3408.17	26
3408.95	23.5
3409.74	25.5
3410.52	22
3411.3	23.5
3412.09	23.5
3412.87	24
3413.65	24
3414.44	25.5
3415.22	24.5
3416	24
3416.79	22.5
3417.57	25.5
3418.35	26.5
3419.14	26.5
3419.92	22.5
3420.7	24.5
3421.48	29.5
3422.27	22
3423.05	23.5
3423.83	26
3424.61	25
3425.4	23
3426.18	21.5
3426.96	24
3427.74	22
3428.52	22
3429.3	22
3430.08	21.5
3430.87	27
3431.65	25.5
3432.43	21.5
3433.21	25
3433.99	25
3434.77	21.5
3435.55	26
3436.33	22.5
3437.11	26
3437.89	22.5
3438.67	20
3439.45	24.5
3440.23	19
3441.01	21
3441.79	21.5
3442.57	26.5
3443.35	22
3444.13	22.5
3444.91	24.5
3445.69	24.5
3446.47	22.5
3447.25	24
3448.03	24
3448.8	24
3449.58	25
3450.36	19.5
3451.14	23.5
3451.92	23.5
3452.7	20.5
3453.47	23.5
3454.25	20
3455.03	26
3455.81	24
3456.59	24
3457.36	24
3458.14	24
3458.92	29.5
3459.69	24.5
3460.47	23
3461.25	24
3462.03	22
3462.8	24
3463.58	25.5
3464.36	24
3465.13	24.5
3465.91	27.5
3466.69	25
3467.46	23.5
3468.24	21
3469.01	22
3469.79	21.5
3470.57	30.5
3471.34	21
3472.12	21.5
3472.89	23
3473.67	26.5
3474.44	28
3475.22	22
3475.99	22
3476.77	23.5
3477.54	25
3478.32	23
3479.09	25.5
3479.87	23.5
3480.64	21.5
3481.41	24
3482.19	21.5
3482.96	18
3483.74	23
3484.51	24.5
3485.28	24.5
3486.06	24
3486.83	24
3487.6	20
3488.38	24.5
3489.15	24.5
3489.92	27
3490.7	20
3491.47	29
3492.24	27
3493.01	24
3493.79	24.5
3494.56	23
3495.33	23.5
3496.1	24
3496.88	23
3497.65	23
3498.42	23.5
3499.19	23
3499.96	23.5
