#Acq. time (s)=	5
#Accumulations=	5
#Range (cm-ｹ)=	100...3500
#Windows=	4
#Autofocus=	Off
#AutoExposure=	Off
#Spike filter=	Multiple accum.
#Delay time (s)=	0
#Binning=	1
#Readout mode=	Signal
#DeNoise=	Off
#ICS correction=	Off
#Dark correction=	Off
#Inst. Process=	Off
#Instrument=	LabRAM HR Evol
#Detector=	Syncerity OE
#Objective=	x100_VIS
#Grating=	600 (500nm)
#ND Filter=	25%
#Laser=	633nm_Edge
#Hole=	100.021
#Range=	Visible
#Project=	verificaciones
#Sample=	at4
#Site=	plain
#Title=	bolusat4plain
#Remark=	com
#Date=	16.01.2026 17:49
#Acquired=	16.01.2026 17:49:19
100.564	27
101.847	30.5
103.131	32
104.414	28.5
105.697	27
106.979	30.5
108.262	29.5
109.544	27.5
110.826	31.5
112.109	29
113.391	31.5
114.672	30
115.954	29.5
117.235	33
118.515	26
119.796	34
121.076	28.5
122.357	28
123.637	35
124.916	31.5
126.196	32.5
127.475	32.5
128.754	33
130.033	34
131.31	32
132.589	33.5
133.867	36.5
135.145	29
136.423	33.5
137.701	37
138.978	35.5
140.256	35
141.533	35.5
142.809	38
144.086	35.5
145.361	37.5
146.637	40.5
147.913	37
149.189	38.5
150.464	42
151.74	39.5
153.014	42.5
154.288	36
155.563	39.5
156.838	42.5
158.112	40.5
159.385	38
160.659	41.5
161.932	38
163.206	43
164.479	41
165.751	39
167.024	41.5
168.296	36
169.567	36
170.84	37
172.112	41
173.383	40
174.654	37.5
175.925	38.5
177.196	35.5
178.466	41
179.737	37.5
181.007	40
182.276	38
183.546	45
184.816	35
186.085	44.5
187.354	37.5
188.624	40.5
189.891	41
191.16	45
192.427	41.5
193.696	43.5
194.964	40.5
196.231	36.5
197.499	41.5
198.765	38
200.033	37.5
201.298	40
202.566	37.5
203.831	36.5
205.098	42.5
206.363	40.5
207.629	35
208.894	34.5
210.159	37
211.424	37
212.689	34
213.953	38.5
215.218	32.5
216.481	35
217.746	33.5
219.009	35.5
220.273	34.5
221.536	34
222.798	33
224.062	34.5
225.323	30
226.587	31
227.848	30
229.109	33.5
230.372	34
231.633	31
232.894	32.5
234.156	34.5
235.416	31.5
236.678	29.5
237.937	29.5
239.197	28.5
240.457	33.5
241.717	28.5
242.976	29
244.235	32
245.495	31.5
246.754	28
248.012	26
249.27	29
250.529	31
251.787	35
253.045	29.5
254.302	31.5
255.56	25.5
256.817	30
258.074	29.5
259.33	33
260.586	27.5
261.844	29
263.1	25
264.355	31
265.611	29.5
266.866	27.5
268.121	27.5
269.377	28
270.632	31
271.886	29
273.14	23.5
274.394	27
275.648	26
276.902	30.5
278.155	23.5
279.408	29
280.663	29
281.915	28
283.168	26.5
284.42	28.5
285.673	29
286.925	31.5
288.176	30.5
289.428	29
290.679	30
291.93	29
293.181	31
294.432	25.5
295.683	29.5
296.933	29
298.183	25.5
299.433	27
300.683	27.5
301.932	31
303.182	25
304.429	27.5
305.678	31
306.927	26
308.176	29
309.424	24
310.672	24.5
311.92	29
313.168	26
314.415	28.5
315.661	25.5
316.908	27.5
318.155	31.5
319.402	27
320.648	25.5
321.895	28
323.139	29
324.385	27.5
325.631	28
326.877	30
328.122	32.5
329.366	26
330.611	28.5
331.855	26.5
333.1	24.5
334.343	30
335.587	29
336.831	30.5
338.074	29.5
339.317	29.5
340.56	27
341.803	30.5
343.044	27
344.287	25
345.53	25.5
346.771	28.5
348.013	29
349.255	30
350.495	30
351.736	31.5
352.978	29
354.217	29.5
355.458	29
356.699	27.5
357.938	27
359.178	27
360.417	25
361.657	26
362.895	29
364.135	30
365.374	26
366.612	28
367.851	27
369.088	27.5
370.327	24.5
371.564	29
372.802	29.5
374.038	26
375.276	28.5
376.512	28
377.749	27
378.985	25
380.222	28
381.457	28.5
382.692	27
383.929	26.5
385.164	26
386.4	28
387.634	29.5
388.869	28.5
390.103	23.5
391.337	24.5
392.572	28.5
393.805	29
395.038	28.5
396.273	25
397.506	29
398.74	25.5
399.972	28
401.204	31.5
402.437	26
403.669	28.5
404.901	27
406.132	26.5
407.365	25
408.596	29
409.826	28.5
411.058	26
412.289	28.5
413.519	31.5
414.749	26
415.98	26
417.21	26
418.439	29.5
419.668	26
420.897	27
422.128	26.5
423.356	30.5
424.585	28
425.813	25
427.041	27.5
428.269	26.5
429.498	29.5
430.725	29
431.952	28.5
433.179	26.5
434.406	29.5
435.633	30.5
436.859	23.5
438.085	32
439.312	31
440.537	25.5
441.764	27.5
442.99	26.5
444.215	27.5
445.44	27.5
446.665	30
447.89	31.5
449.114	30.5
450.339	30
451.563	28
452.787	30.5
454.01	28.5
455.234	28
456.457	24
457.68	26.5
458.903	31
460.126	31
461.348	32
462.569	31
463.792	31
465.013	29
466.235	31.5
467.457	29
468.678	33
469.899	31
471.12	32.5
472.341	34
473.56	39
474.781	36
476.001	40.5
477.221	42
478.441	40
479.66	41.5
480.878	48
482.098	45.5
483.317	50
484.535	53
485.754	53
486.971	60.5
488.189	59
489.407	63
490.625	62
491.842	63
493.059	46
494.276	55
495.493	47.5
496.709	52
497.926	49
499.142	47
500.357	43
501.573	38.5
502.789	38
504.003	40.5
505.219	42
506.434	40
507.648	40.5
508.863	32.5
510.078	35
511.291	37
512.505	30.5
513.718	31.5
514.932	36.5
516.145	36.5
517.358	32.5
518.572	30.5
519.783	29
520.997	27.5
522.208	35
523.421	28.5
524.632	30.5
525.844	31
527.055	33
528.266	32
529.477	32.5
530.688	30
531.898	37
533.109	28.5
534.319	30.5
535.53	26
536.739	29.5
537.948	30
539.158	28
540.366	28
541.576	28.5
542.784	31
543.994	28
545.201	32.5
546.409	27.5
547.618	30.5
548.825	25
550.032	31
551.24	28.5
552.447	27.5
553.654	28
554.861	30
556.067	29.5
557.273	26.5
558.48	30
559.686	28
560.891	25
562.096	32
563.302	29.5
564.507	26.5
565.712	27
566.916	26
568.122	29
569.326	28
570.529	28.5
571.733	26.5
572.936	29
574.141	23
575.344	30
576.547	25.5
577.75	25
578.952	26.5
580.154	28
581.358	30
582.56	30
583.761	24.5
584.963	28
586.164	27.5
587.365	31
588.566	30
589.767	29.5
590.967	29.5
592.168	27
593.369	25
594.569	29.5
595.769	26.5
596.969	30.5
598.168	28.5
599.367	24.5
600.566	25.5
601.765	27
602.964	30
604.162	30
605.361	26
606.559	24
607.757	30
608.953	31.5
610.151	26.5
611.348	30
612.545	28.5
613.742	27.5
614.939	30
616.135	29
617.332	30
618.528	24
619.724	28.5
620.918	27
622.114	30.5
623.309	25
624.505	30.5
625.7	30
626.895	28
628.088	27.5
629.282	28
630.477	25
631.671	30.5
632.865	25.5
634.057	30.5
635.251	30
636.444	30.5
637.637	30
638.829	26.5
640.022	26
641.214	31
642.407	30.5
643.598	30
644.79	31.5
645.982	28
647.172	25.5
648.364	29.5
649.555	28
650.745	28
651.936	27
653.126	30
654.315	27.5
655.506	27.5
656.696	28.5
657.885	30
659.074	33
660.263	26
661.452	23.5
662.64	27.5
663.829	27.5
665.018	30.5
666.205	27
667.394	30
668.581	31
669.769	32
670.955	31
672.143	30.5
673.329	30.5
674.517	28.5
675.703	33.5
676.89	31.5
678.075	33
679.262	31
680.447	34.5
681.632	36
682.818	36.5
684.002	35
685.188	36
686.372	36
687.556	33.5
688.741	30
689.925	31.5
691.11	31.5
692.293	34
693.476	33
694.66	34.5
695.843	31
697.025	36.5
698.209	37
699.391	35.5
700.573	34.5
701.756	37.5
702.938	40.5
704.119	45
705.3	43
706.483	46
707.664	49
708.844	52
710.025	52.5
711.206	48
712.386	49
713.566	33
714.746	39.5
715.925	33
717.106	33
718.285	33.5
719.464	32.5
720.643	28.5
721.822	29
723	30
724.178	32
725.358	28
726.536	27
727.713	31
728.891	28.5
730.068	24
731.245	31.5
732.422	28.5
733.599	26
734.775	27
735.952	28.5
737.128	25
738.304	27.5
739.48	27
740.656	27.5
741.831	31
743.006	24
744.181	25
745.356	29
746.531	27
747.706	24
748.88	28
750.054	24.5
751.228	27
752.402	24
753.576	31
754.749	29
755.922	29
757.095	29.5
758.267	29.5
759.44	29.5
760.612	24.5
761.785	27.5
762.957	29
764.129	31
765.301	29
766.471	28.5
767.642	25.5
768.814	28.5
769.985	26.5
771.156	26
772.325	30
773.495	30
774.666	26
775.836	26
777.005	28
778.174	32.5
779.344	23
780.513	26.5
781.681	30
782.85	32
784.019	24.5
785.187	33
786.355	31
787.523	29.5
788.69	30.5
789.858	30
791.026	31
792.192	35
793.36	30.5
794.526	30.5
795.693	29.5
796.86	30.5
798.025	28
799.191	26
800.356	29
801.523	28.5
802.689	29
803.853	30
805.019	28.5
806.183	25.5
807.348	26.5
808.512	29.5
809.677	27.5
810.84	26
812.005	30
813.167	28
814.332	28.5
815.494	27.5
816.657	28.5
817.82	26
818.982	26
820.146	25
821.307	27
822.47	27.5
823.632	24.5
824.793	25
825.955	23
827.116	27
828.277	27
829.439	29
830.599	27
831.759	27.5
832.92	26
834.08	25
835.24	27
836.4	29
837.56	24
838.719	24.5
839.877	30.5
841.037	26
842.196	33
843.354	29
844.512	27.5
845.672	24.5
846.83	25.5
847.987	29.5
849.145	26.5
850.302	25
851.46	27.5
852.617	27
853.774	28
854.93	29
856.087	23.5
857.243	27.5
858.4	27.5
859.556	27
860.712	26.5
861.867	23.5
863.022	30
864.177	27
865.332	28
866.487	30
867.642	31
868.796	27
869.95	30
871.104	24.5
872.258	23.5
873.412	27.5
874.565	28
875.718	29.5
876.872	28
878.024	26
879.177	28
880.33	25.5
881.482	32
882.635	26.5
883.787	29.5
884.938	25
886.09	25.5
887.242	27
888.393	28
889.544	25.5
890.695	27
891.845	27
892.995	25
894.146	27.5
895.296	24.5
896.446	24.5
897.596	23.5
898.744	26.5
899.894	25
901.043	28.5
902.193	27.5
903.342	25.5
904.489	27.5
905.638	29
906.786	26
907.935	26.5
909.081	26
910.229	28.5
911.377	28
912.525	27
913.671	30
914.818	29
915.965	23
917.111	24
918.258	27
919.404	23.5
920.549	29
921.695	24
922.84	26
923.986	28.5
925.132	25.5
926.276	25
927.421	26.5
928.565	25
929.71	26
930.855	27
931.998	25
933.142	28
934.285	27
935.429	26.5
936.572	23
937.716	24
938.858	25
940.001	24
941.143	24
942.286	23
943.428	26
944.57	24
945.712	28
946.854	24
947.995	26.5
949.135	27.5
950.277	22.5
951.418	26.5
952.559	25
953.699	23
954.839	24
955.98	26.5
957.119	28
958.258	28
959.399	27
960.538	24
961.676	27
962.816	28
963.955	27
965.093	27
966.232	26
967.37	27.5
968.508	29
969.645	26
970.784	28.75
971.921	27.5
973.058	22
974.195	26
975.333	27
976.469	27
977.605	24.5
978.741	24
979.877	23.5
981.013	24
982.15	27.5
983.285	26
984.421	27.5
985.556	24.5
986.691	25.5
987.825	24
988.96	28
990.094	24
991.228	26
992.364	26.5
993.497	27.5
994.631	27.5
995.765	28
996.898	27.5
998.031	24.5
999.164	24
1000.3	23
1001.43	29
1002.56	23
1003.69	26.5
1004.83	25.5
1005.96	24
1007.09	26.5
1008.22	25
1009.35	23.5
1010.48	24
1011.61	22
1012.74	30
1013.88	27
1015.01	25
1016.14	28
1017.27	27.5
1018.4	23
1019.53	26
1020.65	27
1021.78	24
1022.91	27.5
1024.04	30
1025.17	28.5
1026.3	27.5
1027.43	25
1028.56	25
1029.68	24
1030.81	20.5
1031.94	25
1033.07	24
1034.19	29
1035.32	26
1036.45	27
1037.58	18
1038.7	29.5
1039.83	27
1040.95	26.5
1042.08	25
1043.21	25
1044.33	24
1045.46	27.5
1046.58	25.5
1047.71	23.5
1048.83	23.5
1049.96	23
1051.08	24
1052.21	25
1053.33	24.5
1054.45	24
1055.58	27.5
1056.7	27.5
1057.82	24
1058.95	24
1060.07	24.5
1061.19	25
1062.32	28
1063.44	24.5
1064.56	25.5
1065.68	24.5
1066.81	26.5
1067.93	24.5
1069.05	18
1070.17	27
1071.29	25.5
1072.41	24
1073.53	24
1074.65	25
1075.77	26.5
1076.89	24
1078.01	25
1079.13	25.5
1080.25	25.5
1081.37	21.5
1082.49	25
1083.61	27.5
1084.73	28
1085.85	27
1086.97	21
1088.09	26.5
1089.2	27
1090.32	19.5
1091.44	20.5
1092.56	26
1093.68	25.5
1094.79	24
1095.91	23
1097.03	25
1098.14	26
1099.26	23
1100.38	27
1101.49	21.5
1102.61	26
1103.73	25.5
1104.84	27.5
1105.96	29.5
1107.07	24
1108.19	20.5
1109.3	26
1110.42	22
1111.53	27
1112.65	26.5
1113.76	24.5
1114.88	27
1115.99	26.5
1117.1	23
1118.22	27.5
1119.33	28
1120.44	24
1121.56	24.5
1122.67	23.5
1123.78	26.5
1124.89	21.5
1126.01	25.5
1127.12	24
1128.23	25
1129.34	26
1130.45	21.5
1131.56	22.5
1132.67	19
1133.79	22.5
1134.9	21
1136.01	24
1137.12	27.5
1138.23	24
1139.34	25
1140.45	26.5
1141.56	27
1142.67	20
1143.78	21
1144.89	23.5
1145.99	28.5
1147.1	23.5
1148.21	23
1149.32	24.5
1150.43	24
1151.54	28.5
1152.65	25.5
1153.75	24
1154.86	24
1155.97	22.5
1157.08	29
1158.18	26
1159.29	23.5
1160.4	28
1161.5	23
1162.61	27.5
1163.72	25.5
1164.82	25
1165.93	20
1167.03	24
1168.14	24.5
1169.24	26.5
1170.35	23
1171.45	26
1172.56	20
1173.66	29.5
1174.77	24
1175.87	24.5
1176.98	27
1178.08	26
1179.18	26
1180.29	24
1181.39	19
1182.49	25
1183.6	22.5
1184.7	24
1185.8	26.5
1186.9	25
1188	20
1189.11	26.5
1190.21	21.5
1191.31	23
1192.41	23.5
1193.51	24
1194.61	24.9872
1195.72	26.4372
1196.82	21.1456
1197.92	23.6229
1199.02	22.2283
1200.12	22.9102
1201.22	27.7444
1202.32	23.0259
1203.42	27.0423
1204.52	22.8894
1205.62	25.4574
1206.71	24.6328
1207.81	25.0752
1208.91	25.4801
1210.01	19.9
1211.11	25.1666
1212.21	25.8623
1213.31	25.9862
1214.4	22.992
1215.5	21.591
1216.6	26.7335
1217.7	25.0798
1218.79	23.4404
1219.89	20.9593
1220.99	27.4037
1222.08	22.7414
1223.18	24.8683
1224.28	24.3333
1225.37	24.2743
1226.47	27.4283
1227.56	23.7319
1228.66	22.9204
1229.76	26.4372
1230.85	26.5958
1231.95	24.8056
1233.04	26.1004
1234.14	24.521
1235.23	22.4584
1236.32	26.7847
1237.42	24.5133
1238.51	22.6551
1239.61	25.8381
1240.7	23.7511
1241.79	24.7112
1242.89	23.2687
1243.98	23.2209
1245.07	25.9667
1246.17	23.5272
1247.26	21.5662
1248.35	24.9827
1249.44	24.0743
1250.53	27.9134
1251.63	24.8467
1252.72	24.5194
1253.81	26.8629
1254.9	24.2277
1255.99	25.1075
1257.08	26.7031
1258.17	21.9842
1259.27	24.6882
1260.36	26.6536
1261.45	26.6935
1262.54	27.7181
1263.63	24.7863
1264.72	24.8081
1265.81	23.8364
1266.89	25.1958
1267.98	23.477
1269.07	24.8037
1270.16	24.6002
1271.25	25.0848
1272.34	24.2297
1273.43	21.6135
1274.52	23.4073
1275.6	24.4451
1276.69	21.7798
1277.78	23.0078
1278.87	22.328
1279.95	23.43
1281.04	21.8049
1282.13	21.8511
1283.22	23.4593
1284.3	25.2326
1285.39	25.3797
1286.48	24.9803
1287.56	23.086
1288.65	24.0607
1289.73	24.0258
1290.82	25.2321
1291.9	23.655
1292.99	25.1914
1294.07	22.1619
1295.16	22.3437
1296.24	24.824
1297.33	24.5109
1298.41	20.9427
1299.5	24.5333
1300.58	25.316
1301.66	25.2503
1302.75	25.6356
1303.83	27.0342
1304.91	22.9089
1306	21.2676
1306.4	22
1307.48	27
1308.57	21
1309.66	24.5
1310.75	20.5
1311.84	26
1312.92	25
1314.01	24
1315.1	23.5
1316.18	24.5
1317.27	25
1318.36	22
1319.44	25
1320.53	27
1321.62	26
1322.7	25.5
1323.79	24.5
1324.87	25.5
1325.96	23
1327.04	25
1328.13	25.5
1329.21	24.5
1330.3	24
1331.38	28
1332.47	27
1333.55	20.5
1334.64	23.5
1335.72	22
1336.8	23
1337.89	25
1338.97	25
1340.05	25.5
1341.14	28.5
1342.22	29
1343.3	26.5
1344.38	24.5
1345.47	23.5
1346.55	21
1347.63	25.5
1348.71	24.5
1349.79	27
1350.87	24
1351.96	23
1353.04	23
1354.12	24
1355.2	26
1356.28	23
1357.36	19
1358.44	25
1359.52	26.5
1360.6	25
1361.68	25
1362.76	22.5
1363.84	20
1364.92	28
1366	29
1367.07	29
1368.15	20
1369.23	24
1370.31	26
1371.39	26
1372.47	23
1373.54	27.5
1374.62	24
1375.7	26
1376.78	25.5
1377.85	25.5
1378.93	26.5
1380.01	27
1381.08	25.5
1382.16	28
1383.24	23
1384.31	25.5
1385.39	29
1386.46	25.5
1387.54	30
1388.61	22
1389.69	25
1390.76	28.5
1391.84	25.5
1392.91	19
1393.99	27
1395.06	24.5
1396.14	27.5
1397.21	26
1398.29	28
1399.36	29.5
1400.43	27.5
1401.51	30.5
1402.58	30
1403.65	29
1404.72	31
1405.8	28
1406.87	26.5
1407.94	31.5
1409.02	31
1410.09	28
1411.16	30.5
1412.23	31.5
1413.3	33
1414.37	34
1415.44	30.5
1416.51	30.5
1417.59	23
1418.66	24.5
1419.73	32
1420.8	24.5
1421.87	26
1422.94	29
1424.01	30
1425.08	28
1426.15	28
1427.22	26
1428.28	26
1429.35	23.5
1430.42	23.5
1431.49	24.5
1432.56	25
1433.63	28
1434.7	28
1435.76	28
1436.83	23.5
1437.9	27
1438.97	25.5
1440.03	24.5
1441.1	28
1442.17	26
1443.23	24.5
1444.3	23.5
1445.37	27.5
1446.43	28
1447.5	27.5
1448.57	25.5
1449.63	23
1450.7	27.5
1451.76	25
1452.83	25.5
1453.89	25
1454.96	23
1456.02	23
1457.09	29.5
1458.15	24.5
1459.22	24
1460.28	27.5
1461.34	24.5
1462.41	20.5
1463.47	23.5
1464.53	24
1465.6	29
1466.66	28
1467.72	27
1468.78	25
1469.85	23
1470.91	27.5
1471.97	24.5
1473.03	23
1474.1	23
1475.16	28
1476.22	23
1477.28	25
1478.34	23.5
1479.4	23
1480.46	24.5
1481.52	24
1482.58	23
1483.65	30
1484.71	27
1485.77	23
1486.82	27.5
1487.89	27
1488.94	28
1490	26
1491.06	25
1492.12	27.5
1493.18	27
1494.24	30
1495.3	23
1496.36	28.5
1497.41	26
1498.47	24.5
1499.53	27
1500.59	26.5
1501.65	28.5
1502.7	24
1503.76	27
1504.82	25
1505.87	23.5
1506.93	21.5
1507.99	26.5
1509.04	27
1510.1	31
1511.16	27
1512.21	26
1513.27	28
1514.32	26
1515.38	24
1516.43	22
1517.49	24
1518.54	22.5
1519.6	26
1520.65	25.5
1521.71	26.5
1522.76	25
1523.81	25.5
1524.87	27
1525.92	25.5
1526.98	26.5
1528.03	25
1529.08	22.5
1530.14	24
1531.19	26.5
1532.24	29
1533.29	27
1534.35	23.5
1535.4	25
1536.45	29.5
1537.5	24.5
1538.55	21.5
1539.61	23
1540.66	21.5
1541.71	25
1542.76	25.5
1543.81	26
1544.86	30
1545.91	24.5
1546.96	23.5
1548.01	22
1549.06	26.5
1550.11	29
1551.16	25
1552.21	24
1553.26	25
1554.31	27.5
1555.36	24
1556.41	28
1557.46	26
1558.5	26
1559.55	23
1560.6	26
1561.65	28.5
1562.7	27
1563.74	24
1564.79	24
1565.84	24
1566.89	20.5
1567.93	30
1568.98	26
1570.03	25.5
1571.07	27
1572.12	23
1573.17	21
1574.21	24
1575.26	22
1576.3	24
1577.35	29.5
1578.4	22
1579.44	30
1580.49	27
1581.53	28.5
1582.58	26.5
1583.62	25
1584.66	24.5
1585.71	25
1586.75	29.5
1587.8	27
1588.84	21.5
1589.88	27.5
1590.93	26
1591.97	26.5
1593.01	25
1594.06	26.5
1595.1	25.5
1596.14	26
1597.18	25.5
1598.23	24.5
1599.27	23.5
1600.31	26
1601.35	23.5
1602.39	29
1603.44	26
1604.48	27
1605.52	28.5
1606.56	33
1607.6	21.5
1608.64	26.5
1609.68	24.5
1610.72	25.5
1611.76	25
1612.8	25.5
1613.84	24
1614.88	23
1615.92	21
1616.96	24
1618	27
1619.04	27.5
1620.08	23.5
1621.12	24.5
1622.16	25
1623.19	27
1624.23	28.5
1625.27	20.5
1626.31	27
1627.35	21.5
1628.38	26
1629.42	22
1630.46	22.5
1631.49	24.5
1632.53	25.5
1633.57	25
1634.6	29.5
1635.64	23.5
1636.68	20.5
1637.71	27
1638.75	25
1639.79	21.5
1640.82	26.5
1641.86	23
1642.89	24.5
1643.93	23.5
1644.96	23
1646	28.5
1647.03	26
1648.07	26
1649.1	24
1650.13	27.5
1651.17	24.5
1652.2	21.5
1653.24	23
1654.27	24.5
1655.3	26
1656.34	25
1657.37	21
1658.4	26.5
1659.43	25.5
1660.47	25.5
1661.5	23.5
1662.53	26
1663.56	24
1664.6	26
1665.63	23
1666.66	24
1667.69	21
1668.72	24.5
1669.75	24.5
1670.78	25
1671.81	23
1672.85	28.5
1673.88	27
1674.91	23.5
1675.94	23.5
1676.97	24
1678	26
1679.03	24
1680.06	26
1681.09	25.5
1682.11	21.5
1683.14	23
1684.17	23.5
1685.2	24.5
1686.23	26
1687.26	25
1688.29	23
1689.31	24
1690.34	28
1691.37	27.5
1692.4	25
1693.42	25
1694.45	22
1695.48	24
1696.51	26
1697.53	24.5
1698.56	20.5
1699.59	31.5
1700.61	24
1701.64	23.5
1702.66	25
1703.69	24.5
1704.72	23.5
1705.74	25.5
1706.77	25
1707.79	21
1708.82	27.5
1709.84	25
1710.87	25.5
1711.89	25
1712.91	25.5
1713.94	23
1714.96	26
1715.99	25.5
1717.01	25
1718.03	24
1719.06	20.5
1720.08	21.5
1721.1	25.5
1722.13	27
1723.15	29
1724.17	28.5
1725.19	24
1726.22	25
1727.24	29
1728.26	28
1729.28	25
1730.3	26
1731.33	25.5
1732.35	27.5
1733.37	26.5
1734.39	27
1735.41	25
1736.43	29
1737.45	26
1738.47	22
1739.49	24.5
1740.51	22
1741.53	26.5
1742.55	25.5
1743.57	21.5
1744.59	26.5
1745.61	23.5
1746.63	22.5
1747.65	26
1748.67	22
1749.69	21
1750.7	24.5
1751.72	22.5
1752.74	26
1753.76	25.5
1754.78	26.5
1755.79	24.5
1756.81	24.5
1757.83	29
1758.85	26
1759.86	27.5
1760.88	22
1761.9	25.5
1762.91	25
1763.93	22
1764.95	23
1765.96	28
1766.98	24.5
1767.99	25
1769.01	25
1770.02	25
1771.04	28.5
1772.06	28.5
1773.07	27
1774.09	25
1775.1	20
1776.11	28
1777.13	23.5
1778.14	21
1779.16	26
1780.17	24
1781.18	25.5
1782.2	23.5
1783.21	27
1784.22	24
1785.24	24.5
1786.25	24.5
1787.26	24
1788.28	26
1789.29	24
1790.3	24
1791.31	19.5
1792.33	24.5
1793.34	24.5
1794.35	25
1795.36	25.5
1796.37	25
1797.38	18
1798.39	25.5
1799.4	24.5
1800.42	25.5
1801.43	26
1802.44	23.5
1803.45	24
1804.46	28
1805.47	24.5
1806.48	22
1807.49	24
1808.5	24
1809.51	24.5
1810.51	28
1811.52	24.5
1812.53	23.5
1813.54	26.5
1814.55	23.5
1815.56	24.5
1816.57	21
1817.57	24.5
1818.58	24.5
1819.59	24.5
1820.6	23
1821.61	28.5
1822.61	22
1823.62	26
1824.63	28.5
1825.63	24
1826.64	26.5
1827.65	25
1828.65	25
1829.66	25.5
1830.67	26
1831.67	22
1832.68	26.5
1833.68	22
1834.69	20
1835.69	24
1836.7	25
1837.7	25
1838.71	29.5
1839.71	24
1840.72	21
1841.72	27
1842.73	21.5
1843.73	28
1844.73	24.5
1845.74	23
1846.74	22.5
1847.74	24
1848.75	24.5
1849.75	23
1850.75	21.5
1851.76	24
1852.76	27.5
1853.76	22
1854.76	27
1855.77	22
1856.77	24.5
1857.77	24
1858.77	23
1859.77	20
1860.77	23
1861.78	22
1862.78	21
1863.78	27
1864.78	27.5
1865.78	22
1866.78	26.5
1867.78	23.5
1868.78	26.5
1869.78	24
1870.78	28
1871.78	25
1872.78	26
1873.78	24
1874.78	25.5
1875.78	24
1876.78	23.5
1877.78	23
1878.77	25.5
1879.77	27
1880.77	21
1881.77	27.5
1882.77	24
1883.77	25.5
1884.76	25
1885.76	26.5
1886.76	25
1887.75	25.5
1888.75	25
1889.75	20.5
1890.75	22
1891.74	25
1892.74	23
1893.73	22.5
1894.73	22
1895.73	26.5
1896.72	24
1897.72	27
1898.71	23.5
1899.71	28
1900.7	22.5
1901.7	20
1902.69	25
1903.69	22.5
1904.68	24
1905.68	26
1906.67	26
1907.67	25.5
1908.66	25.5
1909.65	21.5
1910.65	24
1911.64	24
1912.63	26
1913.63	23.5
1914.62	25.5
1915.61	23
1916.61	23
1917.6	27.5
1918.59	26.5
1919.58	24
1920.58	21
1921.57	26
1922.56	27
1923.55	22
1924.54	23
1925.54	23.5
1926.53	26
1927.52	20.5
1928.51	26.5
1929.5	22
1930.49	19
1931.48	24
1932.47	23
1933.46	22
1934.45	26
1935.44	23
1936.43	24.5
1937.42	24.5
1938.41	25.5
1939.4	20.5
1940.39	26
1941.38	18
1942.37	22
1943.35	22.5
1944.34	24.5
1945.33	22
1946.32	22.5
1947.31	25.5
1948.3	26.5
1949.28	27
1950.27	21
1951.26	25
1952.25	21
1953.23	24.5
1954.22	24
1955.21	21.5
1956.19	24
1957.18	24.5
1958.17	24.5
1959.15	23.5
1960.14	22
1961.12	26
1962.11	24
1963.1	22
1964.08	25
1965.07	22
1966.05	19.5
1967.04	28
1968.02	24
1969.01	24
1969.99	24
1970.98	25
1971.96	24
1972.94	24.5
1973.93	24
1974.91	21.5
1975.9	26.5
1976.88	24.5
1977.86	25
1978.85	27
1979.83	24
1980.81	25.5
1981.79	25.5
1982.78	22.5
1983.76	21
1984.74	27.5
1985.72	23.5
1986.71	25
1987.69	23.5
1988.67	24.5
1989.65	21
1990.63	22.5
1991.61	20.5
1992.59	24.5
1993.57	21.5
1994.56	27
1995.54	22
1996.52	27.5
1997.5	25.5
1998.48	25
1999.46	22.5
2000.44	26.5
2001.42	22
2002.4	19.5
2003.38	27.5
2004.36	21
2005.33	22
2006.31	23.5
2007.29	26.5
2008.27	22
2009.25	24.5
2010.23	24
2011.21	23
2012.18	22
2013.16	22.5
2014.14	21
2015.12	20.5
2016.09	24
2017.07	21
2018.05	26
2019.03	25.5
2020	26
2020.98	23
2021.96	25.5
2022.93	24.5
2023.91	22.5
2024.89	22
2025.86	26.5
2026.84	23
2027.81	26.5
2028.79	24
2029.76	25
2030.74	23
2031.71	23
2032.69	22
2033.66	21.5
2034.64	25
2035.61	27.5
2036.59	21
2037.56	25
2038.54	27.5
2039.51	24.5
2040.48	24.5
2041.46	21.5
2042.43	25
2043.4	24
2044.38	22.5
2045.35	25
2046.32	24.5
2047.29	22.5
2048.27	22.5
2049.24	26
2050.21	25
2051.18	22
2052.16	25
2053.13	16
2054.1	27
2055.07	22
2056.04	19.5
2057.01	25
2057.98	21
2058.96	22.5
2059.93	23
2060.9	21
2061.87	22.5
2062.84	22.5
2063.81	23
2064.78	22.5
2065.75	22.5
2066.72	24.5
2067.69	23.5
2068.66	18.5
2069.63	25
2070.6	23.5
2071.56	22.5
2072.53	25
2073.5	22
2074.47	26
2075.44	25
2076.41	21
2077.38	24
2078.34	24
2079.31	20.5
2080.28	23
2081.25	25.5
2082.21	21.5
2083.18	21
2084.15	23
2085.11	22
2086.08	23
2087.05	25.5
2088.01	25.5
2088.98	21
2089.95	22.5
2090.91	21
2091.88	25
2092.84	18.5
2093.81	20
2094.78	21
2095.74	25
2096.71	24
2097.67	22
2098.64	20
2099.6	24
2100.57	22.5
2101.53	27.5
2102.49	21
2103.46	23.5
2104.42	22.5
2105.39	23.5
2106.35	21.5
2107.31	22
2108.28	26.5
2109.24	26.5
2110.2	28
2111.17	27
2112.13	22.5
2113.09	21
2114.05	23
2115.02	22
2115.98	19
2116.94	24
2117.9	24.5
2118.86	23
2119.83	26.5
2120.79	24
2121.75	22
2122.71	26.5
2123.67	26
2124.63	23.5
2125.59	24
2126.55	23
2127.51	24.5
2128.47	22
2129.43	27.5
2130.39	25
2131.35	21
2132.31	24
2133.27	23.5
2134.23	26.5
2135.19	27
2136.15	23.5
2137.11	21
2138.07	22.5
2139.03	23.5
2139.99	23
2140.94	23
2141.9	22.5
2142.86	26.9767
2143.82	19.9649
2144.78	22.9434
2145.73	22.0541
2146.69	23.0476
2147.65	23.0287
2148.61	19.5063
2149.56	25.7029
2150.52	22.2709
2151.48	23.5
2152.43	22.6019
2153.39	25.6641
2154.35	22.6872
2155.3	26.0413
2156.26	18.7224
2157.21	20.9512
2158.17	21.728
2159.13	22.9249
2160.08	24.6309
2161.04	24.8922
2161.99	23.7039
2162.95	23.675
2163.9	22.9637
2164.86	23.4685
2165.81	21.9566
2166.77	22.4815
2167.72	24.4709
2168.67	20.7844
2169.63	23.98
2170.58	25.5704
2171.54	24.5
2172.49	24.7783
2173.44	22.2886
2174.4	21.121
2175.35	24.3277
2176.3	20.3574
2177.26	21.8086
2178.21	19.5362
2179.16	23.9757
2180.11	22.2312
2181.07	23.6412
2182.02	22.1918
2182.97	20.5022
2183.92	25.1308
2184.87	22.0184
2185.82	20.6453
2186.78	22.3505
2187.73	21.9023
2188.68	23.7741
2189.63	22.6987
2190.58	23.9653
2191.53	22.5426
2192.48	21.5291
2193.43	23.4844
2194.38	22.0563
2195.33	21.39
2196.28	22.67
2197.23	22.6496
2198.18	22.2341
2199.13	21.1912
2200.08	23.1156
2201.03	23.3306
2201.98	22.4068
2202.93	21.9869
2203.88	22.2928
2204.83	22.7787
2205.77	22.8499
2206.72	22.5147
2207.67	22.3721
2208.62	22.3257
2209.57	20.4729
2210.52	21.6531
2211.46	21.3197
2212.41	21.9104
2213.36	22.8168
2214.31	22.1597
2215.25	20.8562
2216.2	22.0097
2217.15	24.0198
2218.09	21.5702
2219.04	22.2064
2219.99	22.6052
2220.93	20.546
2221.88	20.5996
2222.82	20.8116
2223.77	23.0802
2224.72	22.1377
2225.66	23.3272
2226.61	23.0387
2227.55	23.7807
2228.5	24.0833
2229.44	24.1172
2230.39	21.7012
2231.33	22.7615
2232.28	22.2231
2233.22	21.1317
2234.16	21.3961
2235.11	24.5312
2236.05	23.3901
2237	22.3359
2237.94	23.4491
2238.88	23.6338
2239.83	21.4707
2240.13	20.5
2241.08	23
2242.03	25
2242.98	21
2243.92	22
2244.87	23.5
2245.82	21
2246.76	21.5
2247.71	21
2248.66	20
2249.61	23
2250.55	20.5
2251.5	22.5
2252.45	24.5
2253.39	21.5
2254.34	20
2255.28	23.5
2256.23	20
2257.18	24.5
2258.12	22
2259.07	24
2260.01	23
2260.96	20.5
2261.9	23
2262.85	21.5
2263.79	22.5
2264.74	18.5
2265.68	21
2266.63	23.5
2267.57	22.5
2268.51	23.5
2269.46	22.5
2270.4	25.5
2271.35	21
2272.29	24
2273.23	17
2274.18	22
2275.12	24
2276.06	25
2277	24
2277.95	23
2278.89	25
2279.83	19
2280.78	25
2281.72	24
2282.66	25
2283.6	22
2284.54	24.5
2285.48	21
2286.43	23
2287.37	23.5
2288.31	21.5
2289.25	20.5
2290.19	28
2291.13	24
2292.07	25.5
2293.01	26.5
2293.95	27
2294.89	24.5
2295.83	25
2296.77	24.5
2297.71	23
2298.65	25
2299.59	22
2300.53	24
2301.47	22
2302.41	24.5
2303.35	26
2304.29	25.5
2305.22	20
2306.16	24
2307.1	25
2308.04	26.5
2308.98	27
2309.91	21
2310.85	23
2311.79	25
2312.73	27.5
2313.66	22
2314.6	23
2315.54	20
2316.48	28
2317.41	21
2318.35	18.5
2319.29	24.5
2320.22	23.5
2321.16	24
2322.09	26
2323.03	23.5
2323.97	24
2324.9	26.5
2325.84	24.5
2326.77	24.5
2327.71	20
2328.64	21
2329.58	24
2330.51	23
2331.45	21
2332.38	18
2333.32	25
2334.25	32
2335.18	20.5
2336.12	21
2337.05	22.5
2337.99	21
2338.92	20
2339.85	20
2340.79	23
2341.72	21.5
2342.65	20
2343.59	26.5
2344.52	21.5
2345.45	25
2346.38	27.5
2347.32	22.5
2348.25	22.5
2349.18	22
2350.11	23
2351.04	25.5
2351.98	21
2352.91	21.5
2353.84	23
2354.77	19
2355.7	25
2356.63	25.5
2357.56	21
2358.49	25
2359.42	28.5
2360.35	22
2361.28	19.5
2362.21	24
2363.14	21
2364.07	22
2365	24.5
2365.93	25.5
2366.86	25.5
2367.79	23.5
2368.72	22.5
2369.65	24
2370.58	24
2371.51	23.5
2372.44	20.5
2373.36	22.5
2374.29	24
2375.22	20
2376.15	20
2377.08	22
2378	21.5
2378.93	27
2379.86	24
2380.79	23.5
2381.71	27.5
2382.64	25
2383.57	22.5
2384.49	25
2385.42	21
2386.35	21
2387.27	23
2388.2	23
2389.13	25
2390.05	26.5
2390.98	26.5
2391.9	22
2392.83	27
2393.76	24
2394.68	23
2395.61	22.5
2396.53	23
2397.46	22
2398.38	21
2399.3	23
2400.23	19
2401.15	22
2402.08	26
2403	22
2403.93	25
2404.85	24.5
2405.77	29
2406.7	23
2407.62	27
2408.54	22.5
2409.47	24
2410.39	24
2411.31	25
2412.24	26
2413.16	23
2414.08	25.5
2415	22.5
2415.92	21
2416.85	20.5
2417.77	22.5
2418.69	21.5
2419.61	21
2420.53	26
2421.45	26.5
2422.38	23
2423.3	24
2424.22	20.5
2425.14	25.5
2426.06	23
2426.98	21.5
2427.9	25
2428.82	25.5
2429.74	23
2430.66	23.5
2431.58	26.5
2432.5	23.5
2433.42	24
2434.34	22.5
2435.26	23
2436.18	20
2437.1	23
2438.01	23.5
2438.93	26.5
2439.85	25
2440.77	26
2441.69	21.5
2442.61	26
2443.52	23
2444.44	25
2445.36	23
2446.28	22
2447.2	21.5
2448.11	25
2449.03	20
2449.95	23
2450.86	21
2451.78	24
2452.7	24.5
2453.61	20
2454.53	22
2455.45	23
2456.36	26
2457.28	20.5
2458.2	28
2459.11	19.5
2460.03	23
2460.94	27.5
2461.86	22.5
2462.77	23
2463.69	26
2464.6	24.5
2465.52	28
2466.43	23
2467.35	26
2468.26	22
2469.18	22
2470.09	22
2471	22
2471.92	20
2472.83	22
2473.74	24.5
2474.66	22
2475.57	25
2476.48	27
2477.4	25.5
2478.31	25.5
2479.22	19
2480.14	28
2481.05	24.5
2481.96	26
2482.87	20
2483.79	26
2484.7	28
2485.61	22
2486.52	22
2487.43	17
2488.34	28
2489.25	21.5
2490.17	23
2491.08	28
2491.99	26.5
2492.9	25
2493.81	26
2494.72	22.5
2495.63	29
2496.54	24
2497.45	24
2498.36	24.5
2499.27	25.5
2500.18	23.5
2501.09	26
2502	26.5
2502.91	22.5
2503.82	22
2504.73	25.5
2505.63	24.5
2506.54	25.5
2507.45	25.5
2508.36	27.5
2509.27	25
2510.18	25
2511.09	27
2511.99	25.5
2512.9	23.5
2513.81	24
2514.72	26.5
2515.62	26.5
2516.53	23
2517.44	23
2518.34	25
2519.25	24
2520.16	28
2521.06	22
2521.97	24
2522.88	22.5
2523.78	23
2524.69	23.5
2525.6	25.5
2526.5	23
2527.41	23.5
2528.31	27
2529.22	25
2530.12	27.5
2531.03	24.5
2531.93	24.5
2532.84	28
2533.74	22
2534.65	32
2535.55	24
2536.46	25
2537.36	23
2538.27	24.5
2539.17	25.5
2540.07	23.5
2540.98	22.5
2541.88	24
2542.78	24
2543.69	22.5
2544.59	23.5
2545.49	25
2546.4	24
2547.3	25
2548.2	23
2549.1	23.5
2550.01	25.5
2550.91	25.5
2551.81	26
2552.71	21.5
2553.61	20.5
2554.52	27
2555.42	23
2556.32	26.5
2557.22	22
2558.12	26
2559.02	22.5
2559.92	24.5
2560.82	22.5
2561.72	23
2562.62	26
2563.53	22.5
2564.43	23.5
2565.33	26
2566.23	25
2567.13	24
2568.03	27
2568.92	21
2569.82	26
2570.72	24
2571.62	24.5
2572.52	25
2573.42	24
2574.32	24.5
2575.22	25
2576.12	25
2577.02	23
2577.91	22.5
2578.81	26
2579.71	25
2580.61	23.5
2581.5	25
2582.4	25
2583.3	26.5
2584.2	21.5
2585.09	22.5
2585.99	21.5
2586.89	22
2587.78	22
2588.68	22
2589.58	22
2590.47	28
2591.37	25
2592.27	22.5
2593.16	24.5
2594.06	20.5
2594.95	24.5
2595.85	23
2596.75	25.5
2597.64	21.5
2598.54	21.5
2599.43	25
2600.33	22.5
2601.22	24.5
2602.12	25
2603.01	25.5
2603.9	21
2604.8	24
2605.69	22.5
2606.59	23.5
2607.48	26.5
2608.37	23.5
2609.27	23
2610.16	24
2611.05	23
2611.95	24
2612.84	20.5
2613.73	24
2614.63	26
2615.52	23
2616.41	24.5
2617.3	22
2618.2	25.5
2619.09	25
2619.98	20
2620.87	23
2621.76	23
2622.66	25
2623.55	26.5
2624.44	24.5
2625.33	21
2626.22	25
2627.11	21
2628	25
2628.9	24.5
2629.79	28.5
2630.68	27
2631.57	25
2632.46	24.5
2633.35	24
2634.24	24
2635.13	26.5
2636.02	21
2636.91	27
2637.8	23
2638.68	25.5
2639.57	23
2640.46	27
2641.35	22
2642.24	26
2643.13	23.5
2644.02	28
2644.91	27.5
2645.79	22
2646.68	19
2647.57	26.5
2648.46	23.5
2649.35	31.5
2650.23	22
2651.12	25.5
2652.01	22
2652.9	28
2653.78	27.5
2654.67	26.5
2655.56	24.5
2656.44	25.5
2657.33	24.5
2658.22	21.5
2659.1	22.5
2659.99	22
2660.88	23.5
2661.76	21
2662.65	25.5
2663.53	27
2664.42	22.5
2665.3	22.5
2666.19	21.5
2667.07	25
2667.96	28
2668.84	20.5
2669.73	25.5
2670.61	20
2671.5	22
2672.38	25
2673.27	22
2674.15	23.5
2675.04	22
2675.92	26
2676.8	21.5
2677.69	25.5
2678.57	25
2679.45	26.5
2680.34	21.5
2681.22	21.5
2682.1	27.5
2682.99	22.5
2683.87	23.5
2684.75	25.5
2685.63	25
2686.52	22
2687.4	23
2688.28	29
2689.16	20
2690.04	24.5
2690.93	24.5
2691.81	25
2692.69	25.5
2693.57	26
2694.45	23.5
2695.33	23
2696.21	22.5
2697.09	26.5
2697.97	24
2698.85	21.5
2699.74	23.5
2700.62	23.5
2701.5	26.5
2702.38	24
2703.26	24
2704.14	26.5
2705.02	28
2705.89	26.5
2706.77	25
2707.65	24
2708.53	23
2709.41	24
2710.29	26.5
2711.17	24
2712.05	23
2712.93	23.5
2713.8	25
2714.68	22.5
2715.56	24
2716.44	24
2717.32	24
2718.19	23
2719.07	26
2719.95	22
2720.83	21.5
2721.7	28
2722.58	23.5
2723.46	21.5
2724.33	20
2725.21	18
2726.09	25.5
2726.97	22.5
2727.84	27
2728.72	26
2729.59	25.5
2730.47	21.5
2731.35	26.5
2732.22	26
2733.1	27
2733.97	26
2734.85	22.5
2735.72	26
2736.6	24.5
2737.47	24.5
2738.35	26.5
2739.22	21.5
2740.1	21.5
2740.97	24.5
2741.84	24
2742.72	27
2743.59	26
2744.47	23
2745.34	23
2746.21	25
2747.09	19
2747.96	22.5
2748.83	26
2749.71	27
2750.58	25
2751.45	24.5
2752.33	24.5
2753.2	23.5
2754.07	27
2754.94	24.5
2755.82	23
2756.69	26
2757.56	21.5
2758.43	24
2759.3	21
2760.18	23.5
2761.05	27
2761.92	22
2762.79	23.5
2763.66	26
2764.53	23.5
2765.4	26
2766.27	25
2767.14	27
2768.01	23.5
2768.88	27.5
2769.75	24
2770.62	26
2771.49	26.5
2772.36	25.5
2773.23	28.5
2774.1	23.5
2774.97	26
2775.84	27
2776.71	26.5
2777.58	24
2778.45	25
2779.32	22.5
2780.19	24.5
2781.06	22
2781.92	25
2782.79	23.5
2783.66	27
2784.53	27.5
2785.4	22
2786.26	23
2787.13	27.5
2788	27
2788.87	27
2789.73	26.5
2790.6	27
2791.47	24
2792.34	26
2793.2	26
2794.07	30
2794.94	26
2795.8	25.5
2796.67	22
2797.53	26
2798.4	26.5
2799.27	22.5
2800.13	27
2801	27
2801.86	26.5
2802.73	28.5
2803.59	26.5
2804.46	28.5
2805.32	26
2806.19	24.5
2807.05	27
2807.92	29
2808.78	21
2809.65	30.5
2810.51	28
2811.38	28
2812.24	25
2813.1	26
2813.97	23
2814.83	29.5
2815.7	27
2816.56	27
2817.42	25.5
2818.29	26.5
2819.15	27
2820.01	24
2820.87	26.5
2821.74	26.5
2822.6	25.5
2823.46	22
2824.32	24.5
2825.19	24.5
2826.05	27
2826.91	24
2827.77	23.5
2828.63	28
2829.5	27
2830.36	25.5
2831.22	28
2832.08	29
2832.94	25
2833.8	24.5
2834.66	25
2835.52	26.5
2836.38	27.5
2837.24	26
2838.1	25
2838.96	26.5
2839.82	26
2840.68	27.5
2841.54	25
2842.4	25.5
2843.26	24
2844.12	25
2844.98	24
2845.84	24
2846.7	23.5
2847.56	22.5
2848.42	21.5
2849.28	24
2850.14	27
2850.99	25
2851.85	26.5
2852.71	22
2853.57	23
2854.43	24.5
2855.28	25.5
2856.14	24
2857	28.5
2857.86	25
2858.71	25.5
2859.57	27.5
2860.43	23.5
2861.28	23.5
2862.14	20
2863	24.5
2863.86	26.5
2864.71	28.5
2865.57	28
2866.42	24
2867.28	29
2868.14	28
2868.99	32
2869.85	26
2870.7	31.5
2871.56	28
2872.41	32
2873.27	28.5
2874.13	30.5
2874.98	29.5
2875.83	30
2876.69	27
2877.54	29
2878.4	31.5
2879.25	31.5
2880.11	28.5
2880.96	28.5
2881.81	32.5
2882.67	31.5
2883.52	34
2884.38	33.5
2885.23	34.5
2886.08	33
2886.94	33
2887.79	29.5
2888.64	37
2889.5	35
2890.35	39
2891.2	38
2892.05	38
2892.91	43
2893.76	42
2894.61	39.5
2895.46	43.5
2896.31	46
2897.17	46.5
2898.02	49.5
2898.87	51
2899.72	54
2900.57	59.5
2901.42	63.5
2902.27	61
2903.12	66.5
2903.98	64
2904.83	69.5
2905.68	69.5
2906.53	74
2907.38	69
2908.23	71
2909.08	68.5
2909.93	62.5
2910.78	62
2911.63	64.5
2912.48	56
2913.33	52
2914.18	49
2915.02	50.5
2915.87	51
2916.72	46
2917.57	41.5
2918.42	40
2919.27	38
2920.12	35
2920.97	38.5
2921.81	33.5
2922.66	32
2923.51	34
2924.36	29
2925.21	32
2926.05	33.5
2926.9	29.5
2927.75	35
2928.59	31.5
2929.44	28
2930.29	27
2931.14	32
2931.98	24.5
2932.83	25.5
2933.68	28
2934.52	28.5
2935.37	27.5
2936.21	27.5
2937.06	24
2937.91	27.5
2938.75	26.5
2939.6	28.5
2940.44	25
2941.29	28.5
2942.14	28.5
2942.98	28
2943.82	28.5
2944.67	30
2945.51	26.5
2946.36	27.5
2947.2	25.5
2948.05	29
2948.89	31
2949.74	30
2950.58	25
2951.43	36
2952.27	33
2953.11	25
2953.96	33
2954.8	37.5
2955.64	33
2956.49	32.5
2957.33	35.5
2958.17	33
2959.02	32.5
2959.86	39
2960.7	42.5
2961.54	38.5
2962.39	46
2963.23	38
2964.07	46.5
2964.91	44.5
2965.75	44
2966.6	45.5
2967.44	39.5
2968.28	41
2969.12	42.5
2969.96	38
2970.8	42.5
2971.64	36.5073
2972.48	37.8606
2973.33	36.4902
2974.17	39.865
2975.01	30.1593
2975.85	34.9449
2976.69	32.7984
2977.53	30.0985
2978.37	34.8657
2979.21	28.2921
2980.05	28.4808
2980.89	32.1387
2981.73	28.6784
2982.57	28.0618
2983.41	27.2733
2984.25	26.9826
2985.08	26.7912
2985.92	26.8094
2986.76	27.473
2987.6	29.1384
2988.44	28.3483
2989.28	25.512
2990.12	25.8148
2990.96	23.458
2991.79	29.4948
2992.63	25.6495
2993.47	24.2335
2994.31	23.2187
2995.14	26.6566
2995.98	29.2371
2996.82	28.3386
2997.66	24.5833
2998.49	26.6418
2999.33	26.0331
3000.17	24.2463
3001	23.2939
3001.84	23.639
3002.68	24.7811
3003.51	22.1171
3004.35	24.4293
3005.19	23.1363
3006.02	25.0921
3006.86	22.4597
3007.7	22.1537
3008.53	26.4707
3009.37	22.0485
3010.2	22.8148
3011.04	25.0569
3011.87	23.1377
3012.71	22.1154
3013.54	23.6262
3014.38	22.404
3015.21	21.8851
3016.05	20.2094
3016.88	23.333
3017.72	25.5656
3018.55	23.9548
3019.39	23.842
3020.22	23.1958
3021.05	24.5947
3021.89	24.4662
3022.72	22.0754
3023.55	24.2817
3024.39	24
3025.22	22.4721
3026.05	22.5745
3026.89	22.8832
3027.72	24.7515
3028.55	22.526
3029.39	22.0262
3030.22	23.3503
3031.05	22.2404
3031.88	22.8898
3032.72	23.0319
3033.55	24.2197
3034.38	24.7788
3035.21	24.2361
3036.04	23.0097
3036.88	23.5243
3037.71	25.2528
3038.54	24.3513
3039.37	22.5
3040.2	23.4395
3041.03	24.2896
3041.86	22.2245
3042.69	21.6924
3043.52	21.7383
3044.36	21.7232
3045.19	21.9297
3046.02	21.3272
3046.85	21.0144
3047.68	20.7455
3048.51	21.4183
3049.34	22.697
3050.17	23.0904
3051	22.9486
3051.83	22.2562
3052.66	21.4811
3053.48	22.1503
3054.31	24.0387
3055.14	21.5121
3055.97	21.3436
3056.8	21.8124
3057.29	23
3058.12	19
3058.95	25
3059.79	24
3060.62	21
3061.45	23
3062.29	27
3063.12	21
3063.95	21.5
3064.78	20.5
3065.62	29.5
3066.45	19
3067.28	21.5
3068.11	21
3068.94	21
3069.77	22.5
3070.61	22.5
3071.44	22
3072.27	24.5
3073.1	26
3073.93	20.5
3074.76	23
3075.59	26.5
3076.42	20
3077.25	22
3078.08	21.5
3078.92	21.5
3079.74	21
3080.57	25
3081.41	23
3082.24	26
3083.06	24
3083.89	24
3084.72	23.5
3085.55	22
3086.38	22.5
3087.21	26
3088.04	24
3088.87	21.5
3089.7	20.5
3090.53	22
3091.36	23.5
3092.18	21
3093.01	23
3093.84	20
3094.67	24
3095.5	22
3096.32	26
3097.15	19.5
3097.98	23.5
3098.81	19
3099.64	26
3100.46	25
3101.29	24
3102.12	23
3102.94	23
3103.77	23.5
3104.6	25.5
3105.42	25
3106.25	20.5
3107.08	24
3107.9	26
3108.73	26
3109.56	22.5
3110.38	23.5
3111.21	23.5
3112.03	23.5
3112.86	23
3113.68	22
3114.51	23.5
3115.33	23.5
3116.16	23
3116.98	21.5
3117.81	23.5
3118.63	23.5
3119.46	22
3120.28	24
3121.11	21
3121.93	27
3122.76	21.5
3123.58	21
3124.4	24.5
3125.23	24.5
3126.05	25
3126.87	23
3127.7	23.5
3128.52	24
3129.34	22.5
3130.17	20
3130.99	21.5
3131.81	23.5
3132.64	25
3133.46	24.5
3134.28	21.5
3135.1	24.5
3135.93	27
3136.75	21
3137.57	23.5
3138.39	23.5
3139.21	27
3140.04	24.5
3140.86	24.5
3141.68	24.5
3142.5	21.5
3143.32	24
3144.14	22.5
3144.96	22.5
3145.78	24
3146.61	23.5
3147.43	19
3148.25	26.5
3149.07	22.5
3149.89	26
3150.71	24.5
3151.53	23
3152.35	24
3153.17	29.5
3153.99	23
3154.81	22.5
3155.63	23.5
3156.45	25.5
3157.27	23.5
3158.08	24
3158.9	22.5
3159.72	20
3160.54	23
3161.36	24
3162.18	24
3163	23
3163.82	20.5
3164.63	20.5
3165.45	24.5
3166.27	26
3167.09	23
3167.91	27
3168.72	24
3169.54	20
3170.36	23.5
3171.18	24
3171.99	23
3172.81	22.5
3173.63	26
3174.44	23
3175.26	21.5
3176.08	20.5
3176.89	24.5
3177.71	21.5
3178.53	24.5
3179.34	25
3180.16	21
3180.97	25
3181.79	23
3182.61	22
3183.42	24.5
3184.24	22.5
3185.05	25
3185.87	24
3186.68	24.5
3187.5	22
3188.31	21.5
3189.13	19.5
3189.94	24.5
3190.76	22.5
3191.57	20
3192.39	23
3193.2	23.5
3194.02	23
3194.83	24.5
3195.64	28
3196.46	24
3197.27	24.5
3198.08	26
3198.9	24
3199.71	20
3200.52	19.5
3201.34	20.5
3202.15	24
3202.96	25.5
3203.78	23.5
3204.59	25.5
3205.4	23.5
3206.21	23.5
3207.03	21
3207.84	25
3208.65	22.5
3209.46	25.5
3210.27	23.5
3211.09	24
3211.9	26
3212.71	25
3213.52	26
3214.33	22.5
3215.14	23.5
3215.95	21.5
3216.77	24
3217.58	22
3218.39	21.5
3219.2	22.5
3220.01	26
3220.82	26
3221.63	20.5
3222.44	24
3223.25	24
3224.06	24
3224.87	23.5
3225.68	19
3226.49	23
3227.3	23.5
3228.11	21.5
3228.92	22.5
3229.73	24.5
3230.53	25
3231.34	28.5
3232.15	23.5
3232.96	24
3233.77	23
3234.58	24.5
3235.39	24
3236.19	20.5
3237	21
3237.81	23
3238.62	21
3239.43	23
3240.23	23.5
3241.04	22
3241.85	26.5
3242.66	21
3243.46	25.5
3244.27	24
3245.08	26
3245.89	22
3246.69	22.5
3247.5	22.5
3248.31	24
3249.11	26
3249.92	23.5
3250.72	26
3251.53	21
3252.34	26
3253.14	24
3253.95	20.5
3254.75	20.5
3255.56	20.5
3256.36	23.5
3257.17	24.5
3257.98	25
3258.78	24
3259.59	25
3260.39	24
3261.19	22.5
3262	23.5
3262.8	24.5
3263.61	25.5
3264.41	23.5
3265.22	22.5
3266.02	24
3266.83	24
3267.63	25.5
3268.43	25.5
3269.24	21.5
3270.04	25.5
3270.84	24
3271.65	26
3272.45	26.5
3273.25	28.5
3274.06	21.5
3274.86	22
3275.66	24.5
3276.46	23.5
3277.27	19
3278.07	23.5
3278.87	20
3279.67	29
3280.48	24
3281.28	22
3282.08	21.5
3282.88	23
3283.68	29
3284.48	24.5
3285.29	22
3286.09	21.5
3286.89	25
3287.69	24.5
3288.49	24
3289.29	23
3290.09	23
3290.89	24.5
3291.69	24
3292.49	26.5
3293.29	26.5
3294.09	27
3294.89	21.5
3295.69	25
3296.49	26.5
3297.29	26
3298.09	27.5
3298.89	24
3299.69	23.5
3300.49	22.5
3301.29	25.5
3302.09	22.5
3302.89	23.5
3303.69	22
3304.49	24
3305.28	24
3306.08	29
3306.88	18.5
3307.68	23
3308.48	22.5
3309.28	21.5
3310.07	24
3310.87	20
3311.67	21.5
3312.47	25.5
3313.26	25.5
3314.06	23.5
3314.86	21
3315.66	23.5
3316.45	28
3317.25	23
3318.05	25.5
3318.84	25
3319.64	20.5
3320.44	24.5
3321.23	22
3322.03	19.5
3322.83	24.5
3323.62	20.5
3324.42	24
3325.21	23.5
3326.01	23.5
3326.81	23
3327.6	30
3328.4	24
3329.19	24.5
3329.99	23
3330.78	21.5
3331.58	23
3332.37	23.5
3333.17	26
3333.96	20
3334.76	21
3335.55	22
3336.34	25.5
3337.14	22
3337.93	24.5
3338.73	23.5
3339.52	28
3340.31	24.5
3341.11	22
3341.9	24.5
3342.69	25
3343.49	20
3344.28	24
3345.07	22
3345.87	22.5
3346.66	21
3347.45	23.5
3348.25	21
3349.04	26
3349.83	28
3350.62	23
3351.42	22
3352.21	24.5
3353	22
3353.79	27
3354.58	20
3355.37	25.5
3356.17	22
3356.96	27.5
3357.75	25.5
3358.54	20
3359.33	22.5
3360.12	25.5
3360.91	22.5
3361.7	23
3362.49	23
3363.29	21
3364.08	25
3364.87	27
3365.66	25
3366.45	27
3367.24	23.5
3368.03	22
3368.82	30
3369.61	24
3370.4	24.5
3371.19	22
3371.97	22.5
3372.76	21.5
3373.55	20.5
3374.34	27
3375.13	26.5
3375.92	25
3376.71	21
3377.5	25.5
3378.29	26.5
3379.07	22
3379.86	26
3380.65	25
3381.44	23.5
3382.23	23.5
3383.01	21.5
3383.8	23.5
3384.59	26
3385.38	23.5
3386.16	22
3386.95	20.5
3387.74	21.5
3388.53	23
3389.31	24.5
3390.1	25
3390.89	28
3391.67	24
3392.46	24
3393.25	20
3394.03	21
3394.82	25.5
3395.6	24.5
3396.39	28
3397.18	25.5
3397.96	23.5
3398.75	22
3399.53	26.5
3400.32	24
3401.1	21.5
3401.89	20
3402.67	22.5
3403.46	23.5
3404.24	24
3405.03	24
3405.81	26
3406.6	23.5
3407.38	25.5
3408.17	22.5
3408.95	25
3409.74	23.5
3410.52	26
3411.3	23
3412.09	25.5
3412.87	26
3413.65	24.5
3414.44	26.5
3415.22	21
3416	25
3416.79	19
3417.57	20.5
3418.35	26
3419.14	24.5
3419.92	20
3420.7	23
3421.48	25
3422.27	28.5
3423.05	22
3423.83	24
3424.61	21.5
3425.4	24.5
3426.18	24
3426.96	20.5
3427.74	24.5
3428.52	22.5
3429.3	24
3430.08	21.5
3430.87	22.5
3431.65	21
3432.43	21
3433.21	22
3433.99	23.5
3434.77	23
3435.55	22.5
3436.33	26
3437.11	21.5
3437.89	26
3438.67	26.5
3439.45	24.5
3440.23	28
3441.01	26
3441.79	27.5
3442.57	26.5
3443.35	23.5
3444.13	23.5
3444.91	29.5
3445.69	28
3446.47	24
3447.25	24.5
3448.03	25
3448.8	22
3449.58	25
3450.36	22.5
3451.14	23
3451.92	21.5
3452.7	26
3453.47	25
3454.25	21.5
3455.03	22
3455.81	23
3456.59	25
3457.36	24
3458.14	23.5
3458.92	25
3459.69	19.5
3460.47	28
3461.25	23.5
3462.03	20
3462.8	25.5
3463.58	26.5
3464.36	25.5
3465.13	22.5
3465.91	22.5
3466.69	22
3467.46	24
3468.24	25.5
3469.01	20
3469.79	25.5
3470.57	22
3471.34	25
3472.12	24.5
3472.89	21
3473.67	20
3474.44	25.5
3475.22	23.5
3475.99	27
3476.77	23.5
3477.54	26
3478.32	24
3479.09	28
3479.87	25
3480.64	24.5
3481.41	24
3482.19	28
3482.96	25.5
3483.74	27
3484.51	24
3485.28	22
3486.06	25
3486.83	25
3487.6	24
3488.38	27
3489.15	26.5
3489.92	20.5
3490.7	21.5
3491.47	24.5
3492.24	26
3493.01	22.5
3493.79	23
3494.56	22
3495.33	27
3496.1	25
3496.88	23
3497.65	25
3498.42	24
3499.19	22
3499.96	23.5
