#Acq. time (s)=	5
#Accumulations=	5
#Range (cm-¹)=	100...3500
#Windows=	4
#Autofocus=	Off
#AutoExposure=	Off
#Spike filter=	Multiple accum.
#Delay time (s)=	0
#Binning=	1
#Readout mode=	Signal
#DeNoise=	Off
#ICS correction=	Off
#Dark correction=	Off
#Inst. Process=	Off
#Instrument=	LabRAM HR Evol
#Detector=	Syncerity OE
#Objective=	x100_VIS
#Grating=	600 (500nm)
#ND Filter=	25%
#Laser=	633nm_Edge
#Hole=	100.021
#Range=	Visible
#Project=	verificaciones
#Sample=	at4
#Site=	plain
#Title=	bolusat4plain
#Remark=	com
#Date=	16.01.2026 17:21
#Acquired=	16.01.2026 17:21:08
100.564	21
101.847	27
103.131	30.5
104.414	28
105.697	28
106.979	29
108.262	26
109.544	27
110.826	29
112.109	32.5
113.391	30.5
114.672	31.5
115.954	32
117.235	33
118.515	32.5
119.796	26
121.076	31.5
122.357	28
123.637	32.5
124.916	33
126.196	34
127.475	33.5
128.754	33.5
130.033	30
131.31	34
132.589	37.5
133.867	33
135.145	35
136.423	33.5
137.701	32.5
138.978	33
140.256	34
141.533	38.5
142.809	34.5
144.086	32.5
145.361	38.5
146.637	35.5
147.913	34.5
149.189	37.5
150.464	41
151.74	31.5
153.014	38.5
154.288	38
155.563	38
156.838	37
158.112	41.5
159.385	43
160.659	41.5
161.932	37
163.206	35
164.479	32
165.751	35.5
167.024	39.5
168.296	35
169.567	37
170.84	35.5
172.112	33.5
173.383	32.5
174.654	33
175.925	36
177.196	37
178.466	40.5
179.737	36
181.007	36.5
182.276	38.5
183.546	35
184.816	37.5
186.085	38
187.354	36.5
188.624	35.5
189.891	34.5
191.16	35
192.427	36.5
193.696	34.5
194.964	35
196.231	31
197.499	36
198.765	35
200.033	32.5
201.298	40.5
202.566	36.5
203.831	33
205.098	31
206.363	34.5
207.629	36
208.894	32
210.159	34
211.424	34.5
212.689	33
213.953	28
215.218	31
216.481	31
217.746	30
219.009	33
220.273	33.5
221.536	31
222.798	33
224.062	33.5
225.323	31.5
226.587	34.5
227.848	28.5
229.109	32
230.372	30
231.633	30.5
232.894	27.5
234.156	31.5
235.416	27
236.678	31.5
237.937	28.5
239.197	31
240.457	27
241.717	32.5
242.976	29.5
244.235	31
245.495	30.5
246.754	30
248.012	28.5
249.27	30
250.529	28
251.787	29
253.045	27.5
254.302	30
255.56	27
256.817	28
258.074	28.5
259.33	27.5
260.586	28
261.844	31.5
263.1	27.5
264.355	30.5
265.611	27
266.866	32
268.121	21
269.377	30.5
270.632	31
271.886	28
273.14	25
274.394	27
275.648	28
276.902	29
278.155	28.5
279.408	28
280.663	26
281.915	31
283.168	26.5
284.42	27.5
285.673	27.5
286.925	29
288.176	30.5
289.428	27
290.679	27
291.93	25
293.181	30
294.432	29
295.683	25.5
296.933	28.5
298.183	29
299.433	28.5
300.683	26
301.932	25.5
303.182	30.5
304.429	32
305.678	27
306.927	29.5
308.176	30
309.424	27.5
310.672	27.5
311.92	27.5
313.168	31
314.415	29
315.661	29
316.908	26
318.155	22.5
319.402	30
320.648	30
321.895	32
323.139	26
324.385	29.5
325.631	27.5
326.877	28.5
328.122	29.5
329.366	26.5
330.611	26
331.855	27.5
333.1	28
334.343	27.5
335.587	24.5
336.831	27
338.074	29.5
339.317	30
340.56	29.5
341.803	33
343.044	23.5
344.287	26
345.53	30
346.771	30.5
348.013	29
349.255	27.5
350.495	30.5
351.736	30.5
352.978	26.5
354.217	31
355.458	28.5
356.699	29
357.938	29
359.178	29
360.417	28.5
361.657	27
362.895	29.5
364.135	27
365.374	24
366.612	27.5
367.851	28
369.088	30
370.327	27
371.564	26.5
372.802	26
374.038	26.5
375.276	31
376.512	28
377.749	25.5
378.985	23
380.222	27
381.457	30
382.692	30.5
383.929	31
385.164	27.5
386.4	28.5
387.634	28
388.869	25
390.103	25.5
391.337	32
392.572	29.5
393.805	29.5
395.038	30.5
396.273	30.5
397.506	25
398.74	33
399.972	26
401.204	25.5
402.437	29
403.669	26
404.901	29
406.132	24
407.365	26.5
408.596	29
409.826	29.5
411.058	29.5
412.289	26
413.519	27.5
414.749	29
415.98	28
417.21	29
418.439	29.5
419.668	31.5
420.897	30
422.128	29
423.356	29.5
424.585	30
425.813	25
427.041	27
428.269	30
429.498	27
430.725	23.5
431.952	26.5
433.179	27.5
434.406	28.5
435.633	27
436.859	24.5
438.085	30.5
439.312	30
440.537	27
441.764	29.5
442.99	28
444.215	31.5
445.44	32
446.665	29
447.89	27
449.114	31
450.339	30.5
451.563	30
452.787	28.5
454.01	28
455.234	30
456.457	27
457.68	26
458.903	26
460.126	31
461.348	29.5
462.569	27
463.792	33
465.013	29
466.235	31
467.457	28.5
468.678	28
469.899	32
471.12	35.5
472.341	37
473.56	33.5
474.781	28
476.001	35.5
477.221	38
478.441	36.5
479.66	32
480.878	43.5
482.098	46
483.317	49
484.535	47.5
485.754	49
486.971	50
488.189	50
489.407	54
490.625	51.5
491.842	53
493.059	54.5
494.276	48.5
495.493	44
496.709	42.5
497.926	48
499.142	47
500.357	40
501.573	40
502.789	43
504.003	35
505.219	38.5
506.434	38.5
507.648	32
508.863	35
510.078	39
511.291	35
512.505	36
513.718	26.5
514.932	35.5
516.145	30
517.358	32
518.572	30
519.783	29
520.997	28.5
522.208	32.5
523.421	34
524.632	33
525.844	29.5
527.055	32
528.266	26.5
529.477	30.5
530.688	33
531.898	32
533.109	31
534.319	30
535.53	28
536.739	28
537.948	27
539.158	29.5
540.366	30
541.576	27.5
542.784	27.5
543.994	27
545.201	29
546.409	31
547.618	30.5
548.825	28.5
550.032	22
551.24	27
552.447	29.5
553.654	24
554.861	29
556.067	27.5
557.273	31
558.48	27.5
559.686	27.5
560.891	28
562.096	26
563.302	30.5
564.507	29.5
565.712	32
566.916	28.5
568.122	28.5
569.326	27.5
570.529	32
571.733	25
572.936	27
574.141	27.5
575.344	34
576.547	32
577.75	30
578.952	30.5
580.154	29
581.358	24.5
582.56	28
583.761	26.5
584.963	26.5
586.164	31.5
587.365	27.5
588.566	25.5
589.767	32.5
590.967	27.5
592.168	34.5
593.369	30
594.569	26
595.769	26
596.969	25
598.168	24.5
599.367	29
600.566	29
601.765	28.5
602.964	27
604.162	27
605.361	28
606.559	31
607.757	28.5
608.953	30
610.151	31.5
611.348	32
612.545	27.5
613.742	29
614.939	30.5
616.135	30
617.332	25.5
618.528	26.5
619.724	28.5
620.918	31.5
622.114	28
623.309	28.5
624.505	24
625.7	30
626.895	32
628.088	24
629.282	25
630.477	27.5
631.671	28
632.865	28.5
634.057	29.5
635.251	28
636.444	23.5
637.637	28.5
638.829	28.5
640.022	30
641.214	27.5
642.407	28
643.598	29.5
644.79	29.5
645.982	34
647.172	23
648.364	28.5
649.555	28.5
650.745	27
651.936	30.5
653.126	31.5
654.315	29.5
655.506	28
656.696	33.5
657.885	29
659.074	26
660.263	29
661.452	28
662.64	28
663.829	27.5
665.018	27.5
666.205	29
667.394	29
668.581	32
669.769	28.5
670.955	35
672.143	32
673.329	34
674.517	28
675.703	30.5
676.89	25
678.075	32
679.262	29
680.447	30.5
681.632	32.5
682.818	29
684.002	34.5
685.188	28.5
686.372	36.5
687.556	34.5
688.741	32.5
689.925	32.5
691.11	32.5
692.293	33.5
693.476	30
694.66	34
695.843	30
697.025	35.5
698.209	36
699.391	33.5
700.573	35.5
701.756	36
702.938	38.5
704.119	37
705.3	44
706.483	40.5
707.664	45
708.844	44
710.025	43
711.206	43
712.386	47
713.566	38
714.746	38
715.925	35
717.106	32
718.285	28
719.464	31
720.643	32
721.822	32
723	31.5
724.178	33
725.358	25
726.536	29.5
727.713	25.5
728.891	26
730.068	29
731.245	29.5
732.422	28
733.599	31
734.775	30
735.952	28
737.128	30
738.304	26.5
739.48	27.5
740.656	28.5
741.831	26
743.006	30
744.181	27.5
745.356	28.5
746.531	25.5
747.706	24
748.88	28
750.054	31
751.228	29.5
752.402	25.5
753.576	27.5
754.749	29
755.922	31.5
757.095	29.5
758.267	26
759.44	27.5
760.612	28
761.785	28
762.957	28.5
764.129	27.5
765.301	29.5
766.471	29.5
767.642	26
768.814	27
769.985	28
771.156	29
772.325	27
773.495	29.5
774.666	27
775.836	28
777.005	28.5
778.174	25
779.344	27.5
780.513	30
781.681	32
782.85	27
784.019	30.5
785.187	35
786.355	34
787.523	31
788.69	34.5
789.858	29
791.026	30.5
792.192	28.5
793.36	27.5
794.526	32
795.693	30
796.86	31
798.025	25
799.191	31.5
800.356	30
801.523	29
802.689	29
803.853	29.5
805.019	29.5
806.183	29.5
807.348	27
808.512	30
809.677	26
810.84	30.5
812.005	27
813.167	26.5
814.332	31
815.494	29
816.657	28
817.82	29
818.982	28.5
820.146	26
821.307	32.5
822.47	26
823.632	28
824.793	24
825.955	28.5
827.116	29.5
828.277	29.5
829.439	26.5
830.599	26.5
831.759	26
832.92	28.5
834.08	27
835.24	28.5
836.4	29
837.56	32.5
838.719	24
839.877	30
841.037	24.5
842.196	28
843.354	25.5
844.512	29
845.672	24.5
846.83	30.5
847.987	31.5
849.145	27.5
850.302	27
851.46	29.5
852.617	24.5
853.774	32
854.93	24
856.087	27
857.243	25
858.4	26
859.556	30
860.712	25
861.867	31
863.022	31.5
864.177	32.5
865.332	32
866.487	27.5
867.642	30.5
868.796	25
869.95	32
871.104	27
872.258	28.5
873.412	30.5
874.565	30
875.718	28
876.872	30
878.024	27
879.177	23.5
880.33	32.5
881.482	29
882.635	29.5
883.787	28.5
884.938	27.5
886.09	26
887.242	23
888.393	25
889.544	25.5
890.695	26.5
891.845	28
892.995	25
894.146	29.5
895.296	26.5
896.446	24.5
897.596	27.5
898.744	29
899.894	28.5
901.043	28.5
902.193	25.5
903.342	26
904.489	27
905.638	26
906.786	24.5
907.935	28.5
909.081	29
910.229	24.5
911.377	24
912.525	28
913.671	23.5
914.818	24.5
915.965	27
917.111	23
918.258	25
919.404	24
920.549	27.5
921.695	25
922.84	26.5
923.986	33.5
925.132	23.5
926.276	24
927.421	29.5
928.565	24.5
929.71	25
930.855	26
931.998	24.5
933.142	23.5
934.285	26.5
935.429	27
936.572	26.5
937.716	27
938.858	29
940.001	27.5
941.143	27.5
942.286	28
943.428	28.5
944.57	26
945.712	30
946.854	27
947.995	26
949.135	24.5
950.277	29
951.418	28
952.559	28.5
953.699	25
954.839	31
955.98	27
957.119	28.5
958.258	28.5
959.399	26.5
960.538	24
961.676	27.5
962.816	23
963.955	29
965.093	27
966.232	26
967.37	29
968.508	26
969.645	27
970.784	26.5
971.921	24.5
973.058	24.5
974.195	28.5
975.333	32
976.469	25.5
977.605	27.5
978.741	26.5
979.877	26.5
981.013	22.5
982.15	30.5
983.285	24
984.421	31
985.556	25.5
986.691	27
987.825	26.5
988.96	27
990.094	27.5
991.228	27
992.364	27
993.497	30.5
994.631	28
995.765	26.5
996.898	27.5
998.031	27
999.164	24.5
1000.3	25
1001.43	22
1002.56	27
1003.69	28.5
1004.83	24
1005.96	25.5
1007.09	26
1008.22	28
1009.35	26
1010.48	24
1011.61	24
1012.74	27
1013.88	29
1015.01	28
1016.14	27.5
1017.27	24.5
1018.4	29.5
1019.53	24
1020.65	26
1021.78	25.5
1022.91	27
1024.04	29
1025.17	26.5
1026.3	28
1027.43	27.5
1028.56	25
1029.68	27.5
1030.81	26
1031.94	28
1033.07	27
1034.19	23.5
1035.32	24
1036.45	28
1037.58	27.5
1038.7	27
1039.83	25
1040.95	26.5
1042.08	23
1043.21	27.5
1044.33	27.5
1045.46	27
1046.58	27
1047.71	26
1048.83	28.5
1049.96	26.5
1051.08	25
1052.21	24
1053.33	25
1054.45	25.5
1055.58	26
1056.7	25
1057.82	27
1058.95	29
1060.07	27
1061.19	28.5
1062.32	28
1063.44	26.5
1064.56	24
1065.68	27
1066.81	29.5
1067.93	24
1069.05	30.5
1070.17	23.5
1071.29	27.5
1072.41	29.5
1073.53	28
1074.65	27.5
1075.77	30.5
1076.89	27
1078.01	23
1079.13	26
1080.25	23
1081.37	28
1082.49	31
1083.61	25.5
1084.73	24
1085.85	26.5
1086.97	24.5
1088.09	24.5
1089.2	28
1090.32	27
1091.44	27.5
1092.56	25
1093.68	23.5
1094.79	25
1095.91	24.5
1097.03	26
1098.14	25
1099.26	29
1100.38	25
1101.49	23.5
1102.61	28
1103.73	24
1104.84	21
1105.96	28.5
1107.07	20.5
1108.19	25.5
1109.3	24
1110.42	25.5
1111.53	24
1112.65	27.5
1113.76	24.5
1114.88	22.5
1115.99	26
1117.1	23.5
1118.22	25.5
1119.33	22
1120.44	27
1121.56	25.5
1122.67	25.5
1123.78	26
1124.89	26.5
1126.01	25.5
1127.12	28.5
1128.23	24.5
1129.34	23
1130.45	25.5
1131.56	26
1132.67	23
1133.79	25
1134.9	25.5
1136.01	26.5
1137.12	22
1138.23	25
1139.34	24.5
1140.45	22
1141.56	28
1142.67	25.5
1143.78	27
1144.89	33.5
1145.99	24
1147.1	24.5
1148.21	27
1149.32	28.5
1150.43	24
1151.54	26.5
1152.65	26
1153.75	27
1154.86	21
1155.97	22
1157.08	28.5
1158.18	20
1159.29	29
1160.4	23.5
1161.5	24
1162.61	25
1163.72	27
1164.82	29
1165.93	26.5
1167.03	26.5
1168.14	23.5
1169.24	29
1170.35	22.5
1171.45	27
1172.56	28
1173.66	29
1174.77	22.5
1175.87	25
1176.98	26.5
1178.08	24
1179.18	25
1180.29	27
1181.39	27
1182.49	23
1183.6	22
1184.7	21
1185.8	30.5
1186.9	23.5
1188	24
1189.11	26
1190.21	22
1191.31	26
1192.41	26
1193.51	28
1194.61	25.9757
1195.72	22.4882
1196.82	21.1422
1197.92	25.1313
1199.02	23.0364
1200.12	26.3005
1201.22	24.5284
1202.32	26.8285
1203.42	26.8758
1204.52	20.9697
1205.62	26.1217
1206.71	24.6328
1207.81	23.766
1208.91	26.9234
1210.01	27.0508
1211.11	24.4863
1212.21	24.7008
1213.31	22.1591
1214.4	25.4973
1215.5	24.2131
1216.6	25.5354
1217.7	25.9939
1218.79	25.7789
1219.89	24.1118
1220.99	22.8501
1222.08	24.6453
1223.18	24.6349
1224.28	23.1998
1225.37	22.4126
1226.47	27.0714
1227.56	25.0692
1228.66	28.7326
1229.76	23.3378
1230.85	25.0335
1231.95	21.0049
1233.04	23.8252
1234.14	24.976
1235.23	22.8437
1236.32	22.4457
1237.42	25.5103
1238.51	24.7551
1239.61	24.5763
1240.7	23.1637
1241.79	24.3138
1242.89	24.4298
1243.98	25.8956
1245.07	23.3339
1246.17	24.3742
1247.26	23.13
1248.35	24.7597
1249.44	26.028
1250.53	22.8943
1251.63	23.461
1252.72	25.6691
1253.81	24.716
1254.9	24.6529
1255.99	25.1009
1257.08	25.1804
1258.17	25.7876
1259.27	25.6779
1260.36	24.5407
1261.45	25.3065
1262.54	27.3385
1263.63	27.2428
1264.72	27.0719
1265.81	28.2757
1266.89	29.5479
1267.98	27.5116
1269.07	25.7977
1270.16	25.2184
1271.25	23.5572
1272.34	23.5057
1273.43	22.6325
1274.52	23.5638
1275.6	27.4012
1276.69	24.4882
1277.78	22.5213
1278.87	24.1318
1279.95	23.2585
1281.04	25.0304
1282.13	23.1401
1283.22	23.4818
1284.3	27.1382
1285.39	26.8686
1286.48	27.3756
1287.56	27.3505
1288.65	25.8011
1289.73	23.3458
1290.82	25.5395
1291.9	23.4412
1292.99	24.008
1294.07	23.3592
1295.16	23.9602
1296.24	22.9527
1297.33	22.9267
1298.41	23.7549
1299.5	24.9586
1300.58	23.6558
1301.66	22.6966
1302.75	24.7793
1303.83	24.0546
1304.91	23.9437
1306	24.177
1306.4	24
1307.48	25
1308.57	27
1309.66	24
1310.75	24.5
1311.84	23
1312.92	25.5
1314.01	22
1315.1	27.5
1316.18	27
1317.27	26
1318.36	21
1319.44	24
1320.53	23.5
1321.62	23
1322.7	25
1323.79	23
1324.87	24.5
1325.96	27.5
1327.04	27.5
1328.13	22
1329.21	24
1330.3	29
1331.38	24
1332.47	24
1333.55	24.5
1334.64	25.5
1335.72	26
1336.8	25.5
1337.89	28
1338.97	27
1340.05	28
1341.14	21
1342.22	24.5
1343.3	27.5
1344.38	31.5
1345.47	18
1346.55	25
1347.63	25.5
1348.71	25.5
1349.79	27
1350.87	23
1351.96	25
1353.04	25
1354.12	29.5
1355.2	23.5
1356.28	21.5
1357.36	25.5
1358.44	26.5
1359.52	23
1360.6	24
1361.68	26
1362.76	27
1363.84	23
1364.92	23
1366	21
1367.07	25.5
1368.15	20
1369.23	26.5
1370.31	22
1371.39	25
1372.47	22
1373.54	28.5
1374.62	25.5
1375.7	28
1376.78	26
1377.85	28
1378.93	23
1380.01	25
1381.08	26.5
1382.16	26.5
1383.24	21
1384.31	25
1385.39	26.5
1386.46	23.5
1387.54	25.5
1388.61	30
1389.69	21
1390.76	26
1391.84	27.5
1392.91	22
1393.99	22
1395.06	22
1396.14	24.5
1397.21	29.5
1398.29	26.5
1399.36	28.5
1400.43	30.5
1401.51	28
1402.58	30.5
1403.65	27.5
1404.72	25.5
1405.8	23.5
1406.87	26.5
1407.94	28
1409.02	27
1410.09	29.5
1411.16	28.5
1412.23	25.5
1413.3	30
1414.37	32.5
1415.44	27
1416.51	27
1417.59	27.5
1418.66	25.5
1419.73	28.5
1420.8	26
1421.87	27
1422.94	28
1424.01	22
1425.08	30
1426.15	29
1427.22	27
1428.28	25.5
1429.35	26.5
1430.42	26
1431.49	26
1432.56	27
1433.63	27.5
1434.7	23.5
1435.76	25
1436.83	24.5
1437.9	25
1438.97	30.5
1440.03	23.5
1441.1	23
1442.17	24.5
1443.23	24.5
1444.3	24.5
1445.37	28.5
1446.43	25
1447.5	25
1448.57	25.5
1449.63	24.5
1450.7	27.5
1451.76	26.5
1452.83	23
1453.89	29.5
1454.96	26
1456.02	25.5
1457.09	25
1458.15	28.5
1459.22	28
1460.28	27
1461.34	22.5
1462.41	23.5
1463.47	23.5
1464.53	24
1465.6	26.5
1466.66	24
1467.72	27.5
1468.78	20
1469.85	26.5
1470.91	24
1471.97	29
1473.03	29.5
1474.1	26
1475.16	26.5
1476.22	25.5
1477.28	27.5
1478.34	22.5
1479.4	27.5
1480.46	20
1481.52	28.5
1482.58	22.5
1483.65	26
1484.71	22.5
1485.77	23.5
1486.82	26
1487.89	25.5
1488.94	23.5
1490	23.5
1491.06	26
1492.12	23
1493.18	26.5
1494.24	28
1495.3	28.5
1496.36	31
1497.41	24.5
1498.47	27.5
1499.53	22.5
1500.59	27.5
1501.65	24.5
1502.7	20.5
1503.76	28.5
1504.82	25
1505.87	27.5
1506.93	28.5
1507.99	27.5
1509.04	26.5
1510.1	23
1511.16	27.5
1512.21	25
1513.27	24.5
1514.32	25
1515.38	26.5
1516.43	27
1517.49	21
1518.54	21.5
1519.6	25
1520.65	22.5
1521.71	25.5
1522.76	27
1523.81	22.5
1524.87	26
1525.92	24.5
1526.98	23.5
1528.03	26
1529.08	25
1530.14	24
1531.19	32
1532.24	29.5
1533.29	25
1534.35	25.5
1535.4	25.5
1536.45	30
1537.5	23
1538.55	23.5
1539.61	26.5
1540.66	25
1541.71	27
1542.76	24
1543.81	22.5
1544.86	27
1545.91	26
1546.96	23.5
1548.01	24
1549.06	23
1550.11	28
1551.16	25
1552.21	25
1553.26	26.5
1554.31	24.5
1555.36	27.5
1556.41	22
1557.46	28
1558.5	25
1559.55	26.5
1560.6	23
1561.65	27.5
1562.7	24
1563.74	23.5
1564.79	20
1565.84	28.5
1566.89	24.5
1567.93	27
1568.98	26
1570.03	26
1571.07	26.5
1572.12	25
1573.17	25.5
1574.21	25
1575.26	24
1576.3	26
1577.35	24.5
1578.4	27
1579.44	24
1580.49	32
1581.53	21
1582.58	26.5
1583.62	17
1584.66	27.5
1585.71	27
1586.75	24
1587.8	26
1588.84	21.5
1589.88	26
1590.93	24.5
1591.97	26.5
1593.01	25
1594.06	24.5
1595.1	24.5
1596.14	26.5
1597.18	24.5
1598.23	25.5
1599.27	27
1600.31	26
1601.35	25
1602.39	23
1603.44	22
1604.48	24
1605.52	28
1606.56	24
1607.6	23.5
1608.64	26
1609.68	28.5
1610.72	25
1611.76	27.5
1612.8	25.5
1613.84	25
1614.88	24.5
1615.92	23.5
1616.96	27
1618	25
1619.04	26.5
1620.08	23
1621.12	26.5
1622.16	23
1623.19	24
1624.23	24.5
1625.27	26.5
1626.31	24.5
1627.35	27.5
1628.38	26
1629.42	23.5
1630.46	24
1631.49	25.5
1632.53	27
1633.57	26
1634.6	24.5
1635.64	26
1636.68	22.5
1637.71	22
1638.75	23.5
1639.79	25
1640.82	28.5
1641.86	26.5
1642.89	26.5
1643.93	25
1644.96	27.5
1646	26
1647.03	28.5
1648.07	21.5
1649.1	25
1650.13	23
1651.17	26.5
1652.2	26.5
1653.24	25.5
1654.27	25
1655.3	22.5
1656.34	25.5
1657.37	28
1658.4	23.5
1659.43	25
1660.47	25.5
1661.5	26.5
1662.53	25.5
1663.56	26
1664.6	21.5
1665.63	29
1666.66	26.5
1667.69	25
1668.72	27
1669.75	22.5
1670.78	25.5
1671.81	23
1672.85	25.5
1673.88	25.5
1674.91	29
1675.94	30.5
1676.97	24.5
1678	28
1679.03	26.5
1680.06	22
1681.09	23.5
1682.11	24
1683.14	29.5
1684.17	28.5
1685.2	28
1686.23	25
1687.26	25.5
1688.29	23
1689.31	25
1690.34	21.5
1691.37	24.5
1692.4	28
1693.42	25.5
1694.45	20.5
1695.48	24.5
1696.51	27.5
1697.53	25.5
1698.56	27
1699.59	25.5
1700.61	27.5
1701.64	24
1702.66	26.5
1703.69	25.5
1704.72	24.5
1705.74	23
1706.77	26
1707.79	27.5
1708.82	21.5
1709.84	26.5
1710.87	23.5
1711.89	21
1712.91	24.5
1713.94	28
1714.96	23
1715.99	25
1717.01	25
1718.03	27
1719.06	28
1720.08	25
1721.1	28
1722.13	27
1723.15	27.5
1724.17	22.5
1725.19	29.5
1726.22	24.5
1727.24	27.5
1728.26	25
1729.28	21.5
1730.3	26.5
1731.33	27
1732.35	22
1733.37	24
1734.39	25
1735.41	26
1736.43	23
1737.45	26
1738.47	27
1739.49	25
1740.51	22
1741.53	29.5
1742.55	23.5
1743.57	24.5
1744.59	26.5
1745.61	26
1746.63	26
1747.65	26
1748.67	31
1749.69	26
1750.7	24
1751.72	25.5
1752.74	24
1753.76	25
1754.78	26
1755.79	27
1756.81	23
1757.83	27
1758.85	22
1759.86	23.5
1760.88	25
1761.9	27.5
1762.91	25.5
1763.93	25
1764.95	27
1765.96	24.5
1766.98	25
1767.99	24.5
1769.01	29
1770.02	26.5
1771.04	25.5
1772.06	24
1773.07	28
1774.09	21.5
1775.1	25
1776.11	29
1777.13	27
1778.14	24
1779.16	27
1780.17	21.5
1781.18	28.5
1782.2	23.5
1783.21	27.5
1784.22	25
1785.24	24.5
1786.25	28
1787.26	26
1788.28	25.5
1789.29	25.5
1790.3	23
1791.31	26
1792.33	25.5
1793.34	25.5
1794.35	27
1795.36	26.5
1796.37	26
1797.38	23
1798.39	29
1799.4	25
1800.42	24
1801.43	30
1802.44	26.5
1803.45	26
1804.46	26.5
1805.47	24
1806.48	24.5
1807.49	26
1808.5	29.5
1809.51	22
1810.51	24.5
1811.52	23
1812.53	28
1813.54	29
1814.55	24
1815.56	24
1816.57	27.5
1817.57	23.5
1818.58	23
1819.59	22.5
1820.6	23.5
1821.61	26.5
1822.61	24
1823.62	25.5
1824.63	26
1825.63	25.5
1826.64	23
1827.65	23
1828.65	28.5
1829.66	26
1830.67	26
1831.67	27.5
1832.68	25
1833.68	25.5
1834.69	23
1835.69	24.5
1836.7	26.5
1837.7	24
1838.71	24
1839.71	23.5
1840.72	25
1841.72	28
1842.73	24
1843.73	26
1844.73	24
1845.74	25.5
1846.74	23.5
1847.74	23.5
1848.75	24
1849.75	26
1850.75	24
1851.76	27.5
1852.76	27.5
1853.76	29.5
1854.76	26
1855.77	24.5
1856.77	24.5
1857.77	25.5
1858.77	23
1859.77	23
1860.77	26
1861.78	24
1862.78	25.5
1863.78	24
1864.78	26.5
1865.78	25
1866.78	22.5
1867.78	24
1868.78	23
1869.78	28.5
1870.78	27
1871.78	22
1872.78	24
1873.78	28
1874.78	29
1875.78	23
1876.78	24.5
1877.78	22
1878.77	23
1879.77	24.5
1880.77	25
1881.77	27
1882.77	24.5
1883.77	26.5
1884.76	25.5
1885.76	23.5
1886.76	26
1887.75	26
1888.75	24
1889.75	24.5
1890.75	28.5
1891.74	24.5
1892.74	20.5
1893.73	24.5
1894.73	24.5
1895.73	24
1896.72	23
1897.72	25.5
1898.71	25
1899.71	21.5
1900.7	22
1901.7	24.5
1902.69	23
1903.69	22.5
1904.68	23
1905.68	23
1906.67	26
1907.67	22.5
1908.66	27.5
1909.65	28.5
1910.65	26
1911.64	26.5
1912.63	24.5
1913.63	23
1914.62	22
1915.61	22
1916.61	24
1917.6	23.5
1918.59	24.5
1919.58	25
1920.58	24
1921.57	23
1922.56	20.5
1923.55	27
1924.54	26
1925.54	24.5
1926.53	25
1927.52	23
1928.51	25
1929.5	21
1930.49	25.5
1931.48	23
1932.47	22
1933.46	24.5
1934.45	23.5
1935.44	21.5
1936.43	26.5
1937.42	27.5
1938.41	26
1939.4	25.5
1940.39	23.5
1941.38	23.5
1942.37	25
1943.35	25.5
1944.34	20.5
1945.33	23.5
1946.32	26.5
1947.31	26
1948.3	25.75
1949.28	24
1950.27	23
1951.26	23
1952.25	26
1953.23	25
1954.22	20.5
1955.21	20
1956.19	24
1957.18	24
1958.17	24
1959.15	26.5
1960.14	22.5
1961.12	27
1962.11	26
1963.1	21.5
1964.08	21
1965.07	23
1966.05	25.5
1967.04	25.5
1968.02	26
1969.01	24
1969.99	23
1970.98	27.5
1971.96	25.5
1972.94	24
1973.93	24
1974.91	22.5
1975.9	25.5
1976.88	25
1977.86	25.5
1978.85	29.5
1979.83	23.5
1980.81	28
1981.79	24.5
1982.78	25
1983.76	22
1984.74	26
1985.72	26
1986.71	24.5
1987.69	26.5
1988.67	23
1989.65	20
1990.63	21.5
1991.61	24
1992.59	26
1993.57	23.5
1994.56	26.5
1995.54	23
1996.52	24.5
1997.5	25.5
1998.48	21.5
1999.46	22.5
2000.44	21.5
2001.42	22.5
2002.4	26.5
2003.38	25
2004.36	24
2005.33	22.5
2006.31	21.5
2007.29	25
2008.27	21.5
2009.25	27
2010.23	25.5
2011.21	23.5
2012.18	21
2013.16	19.5
2014.14	26.5
2015.12	23
2016.09	22.5
2017.07	20.5
2018.05	25.5
2019.03	22.5
2020	22.5
2020.98	22.5
2021.96	22
2022.93	27
2023.91	19.5
2024.89	22.5
2025.86	22.5
2026.84	27
2027.81	24
2028.79	25
2029.76	27
2030.74	23
2031.71	26
2032.69	23.5
2033.66	24.5
2034.64	24.5
2035.61	27
2036.59	23
2037.56	23.5
2038.54	25
2039.51	25
2040.48	21
2041.46	25.5
2042.43	29
2043.4	24
2044.38	21.5
2045.35	27
2046.32	23
2047.29	21
2048.27	24
2049.24	24.5
2050.21	24
2051.18	27.5
2052.16	27.5
2053.13	21
2054.1	23.5
2055.07	24
2056.04	29
2057.01	20
2057.98	25
2058.96	24.5
2059.93	24.5
2060.9	21.5
2061.87	23.5
2062.84	24
2063.81	25.5
2064.78	24
2065.75	21
2066.72	18.5
2067.69	23
2068.66	24
2069.63	24
2070.6	26.5
2071.56	23
2072.53	22.5
2073.5	22.5
2074.47	20
2075.44	25
2076.41	27
2077.38	20
2078.34	24.5
2079.31	24.5
2080.28	24.5
2081.25	22.5
2082.21	22.5
2083.18	24
2084.15	23.5
2085.11	23.5
2086.08	27
2087.05	23
2088.01	22.5
2088.98	22
2089.95	24
2090.91	21.5
2091.88	25
2092.84	22
2093.81	21
2094.78	26.5
2095.74	24.5
2096.71	21.5
2097.67	24.5
2098.64	26.5
2099.6	26.5
2100.57	20
2101.53	22
2102.49	23.5
2103.46	26
2104.42	23
2105.39	26
2106.35	27.5
2107.31	25.5
2108.28	31
2109.24	23
2110.2	26.5
2111.17	21
2112.13	26
2113.09	22
2114.05	21
2115.02	21.5
2115.98	26.5
2116.94	23
2117.9	17.5
2118.86	22.5
2119.83	26.5
2120.79	22.5
2121.75	21
2122.71	22.5
2123.67	23.5
2124.63	23.5
2125.59	26
2126.55	25
2127.51	29.5
2128.47	23
2129.43	26.5
2130.39	24
2131.35	25
2132.31	23
2133.27	23
2134.23	23.5
2135.19	24.5
2136.15	24.5
2137.11	24.5
2138.07	25
2139.03	23.5
2139.99	24
2140.94	21.5
2141.9	23.5
2142.86	23.4791
2143.82	20.0043
2144.78	23.9486
2145.73	21.5616
2146.69	23.4721
2147.65	23.0614
2148.61	26.2854
2149.56	24.1336
2150.52	21.8021
2151.48	23.6946
2152.43	21.2089
2153.39	22.7696
2154.35	23.4658
2155.3	22.3689
2156.26	21.3984
2157.21	25.0049
2158.17	22.5898
2159.13	24.2194
2160.08	23.8805
2161.04	24.7875
2161.99	24.4059
2162.95	21.6606
2163.9	25.3182
2164.86	21.9611
2165.81	21.5052
2166.77	24.6986
2167.72	24.1743
2168.67	20.8847
2169.63	21.2767
2170.58	25.5991
2171.54	21.8074
2172.49	17.1873
2173.44	21.5599
2174.4	21.9014
2175.35	24.6576
2176.3	23.0041
2177.26	21.5316
2178.21	24.1053
2179.16	23.9238
2180.11	21.2606
2181.07	19.0016
2182.02	21.8946
2182.97	23.8143
2183.92	20.9827
2184.87	21.1188
2185.82	23.2675
2186.78	21.7118
2187.73	20.4775
2188.68	21.3736
2189.63	20.5249
2190.58	23.6703
2191.53	22.3351
2192.48	22.2132
2193.43	23.6991
2194.38	22.212
2195.33	25.4902
2196.28	20.2923
2197.23	22.9145
2198.18	24.8794
2199.13	24.2321
2200.08	21.4751
2201.03	22.6287
2201.98	21.2588
2202.93	25.6957
2203.88	21.8141
2204.83	23.8053
2205.77	20.0218
2206.72	20.9477
2207.67	21.883
2208.62	20.8014
2209.57	22.9996
2210.52	22.9716
2211.46	20.3234
2212.41	21.9624
2213.36	21.3683
2214.31	21.0004
2215.25	21.7258
2216.2	22.5521
2217.15	22.9935
2218.09	23.3058
2219.04	19.662
2219.99	22.3543
2220.93	20.3214
2221.88	22.9037
2222.82	24.449
2223.77	23.3631
2224.72	22.9971
2225.66	20.7688
2226.61	23.7212
2227.55	23.1736
2228.5	24.0687
2229.44	22.9075
2230.39	24.6969
2231.33	25.1169
2232.28	25.9962
2233.22	24.4721
2234.16	22.231
2235.11	24.1973
2236.05	25.1437
2237	22.2956
2237.94	23.0439
2238.88	23.3187
2239.83	21.6415
2240.13	21
2241.08	22.5
2242.03	22.5
2242.98	22
2243.92	23
2244.87	19.5
2245.82	24.5
2246.76	21
2247.71	19.5
2248.66	19
2249.61	20.5
2250.55	25.5
2251.5	21
2252.45	23.5
2253.39	23
2254.34	22
2255.28	25
2256.23	22.5
2257.18	26
2258.12	25.5
2259.07	18
2260.01	19.5
2260.96	21
2261.9	20
2262.85	23.5
2263.79	28
2264.74	23
2265.68	25
2266.63	20.5
2267.57	26
2268.51	27.5
2269.46	22
2270.4	21.5
2271.35	26
2272.29	21
2273.23	22.5
2274.18	22
2275.12	21.5
2276.06	22.5
2277	26.5
2277.95	21.5
2278.89	23
2279.83	25.5
2280.78	20.5
2281.72	23.5
2282.66	22
2283.6	21.5
2284.54	22
2285.48	20
2286.43	23.5
2287.37	21.5
2288.31	24
2289.25	21.5
2290.19	21
2291.13	21
2292.07	23.5
2293.01	20.5
2293.95	21
2294.89	25
2295.83	20.5
2296.77	24.5
2297.71	26.5
2298.65	20
2299.59	21
2300.53	23.5
2301.47	23.5
2302.41	20.5
2303.35	24
2304.29	24.5
2305.22	19.5
2306.16	27.5
2307.1	22
2308.04	22
2308.98	23
2309.91	22
2310.85	22
2311.79	23
2312.73	19
2313.66	19.5
2314.6	24
2315.54	21.5
2316.48	23.5
2317.41	21
2318.35	23
2319.29	20
2320.22	24
2321.16	23.5
2322.09	23
2323.03	24.5
2323.97	22.5
2324.9	21.5
2325.84	22.5
2326.77	22
2327.71	21.5
2328.64	22.5
2329.58	25
2330.51	23.5
2331.45	24
2332.38	21.5
2333.32	26
2334.25	25
2335.18	25
2336.12	24.5
2337.05	21.5
2337.99	21.5
2338.92	19.5
2339.85	21
2340.79	22
2341.72	19
2342.65	28.5
2343.59	22.5
2344.52	29.5
2345.45	24.5
2346.38	21.5
2347.32	22.5
2348.25	26.5
2349.18	22.5
2350.11	21.5
2351.04	21
2351.98	27
2352.91	24
2353.84	25.5
2354.77	20.5
2355.7	23.5
2356.63	22.5
2357.56	27
2358.49	24.5
2359.42	21.5
2360.35	20.5
2361.28	24.5
2362.21	26
2363.14	24.5
2364.07	24
2365	27.5
2365.93	24
2366.86	21.5
2367.79	23.5
2368.72	23.5
2369.65	23.5
2370.58	23.5
2371.51	24
2372.44	25
2373.36	22.5
2374.29	23
2375.22	26
2376.15	22.5
2377.08	23.5
2378	24.5
2378.93	21.5
2379.86	23
2380.79	23
2381.71	22.5
2382.64	27
2383.57	24.5
2384.49	24
2385.42	26.5
2386.35	23.5
2387.27	25
2388.2	24
2389.13	24.5
2390.05	24
2390.98	21
2391.9	25
2392.83	25.5
2393.76	19
2394.68	20
2395.61	26
2396.53	20.5
2397.46	23.5
2398.38	25.5
2399.3	23
2400.23	26.5
2401.15	19.5
2402.08	27
2403	24
2403.93	24.5
2404.85	27
2405.77	21.5
2406.7	21.5
2407.62	25.5
2408.54	21
2409.47	27.5
2410.39	23.5
2411.31	25.5
2412.24	21
2413.16	23.5
2414.08	25
2415	24.5
2415.92	23
2416.85	23
2417.77	23.5
2418.69	22.5
2419.61	21.5
2420.53	19.5
2421.45	22
2422.38	20.5
2423.3	25
2424.22	21
2425.14	23
2426.06	28.5
2426.98	23
2427.9	26.5
2428.82	23
2429.74	22
2430.66	27
2431.58	21.5
2432.5	25
2433.42	23.5
2434.34	24
2435.26	22.5
2436.18	26.5
2437.1	26
2438.01	24.5
2438.93	23
2439.85	24.5
2440.77	28
2441.69	25.5
2442.61	22
2443.52	24
2444.44	24
2445.36	22
2446.28	27
2447.2	24.5
2448.11	20.5
2449.03	22
2449.95	26.5
2450.86	22
2451.78	25
2452.7	21.5
2453.61	24
2454.53	22
2455.45	21
2456.36	20.5
2457.28	23.5
2458.2	27
2459.11	24
2460.03	27.5
2460.94	21
2461.86	24
2462.77	23.5
2463.69	22.5
2464.6	23.5
2465.52	24.5
2466.43	22.5
2467.35	25
2468.26	28.5
2469.18	22.5
2470.09	19
2471	23
2471.92	22
2472.83	25.5
2473.74	24
2474.66	21
2475.57	26
2476.48	22.5
2477.4	29
2478.31	22.5
2479.22	26
2480.14	25
2481.05	23
2481.96	25.5
2482.87	19
2483.79	28
2484.7	19
2485.61	23.5
2486.52	24.5
2487.43	22
2488.34	24
2489.25	24
2490.17	23.5
2491.08	24.5
2491.99	29
2492.9	25.5
2493.81	25.5
2494.72	28
2495.63	25
2496.54	25.5
2497.45	25
2498.36	25.5
2499.27	26.5
2500.18	24.5
2501.09	24.5
2502	29
2502.91	22.5
2503.82	21.5
2504.73	26.5
2505.63	24
2506.54	23
2507.45	24
2508.36	24
2509.27	27
2510.18	25
2511.09	27.5
2511.99	24.5
2512.9	22.5
2513.81	24
2514.72	26.5
2515.62	22
2516.53	21
2517.44	23
2518.34	25.5
2519.25	23.5
2520.16	24.5
2521.06	24
2521.97	23.5
2522.88	23
2523.78	26
2524.69	20.5
2525.6	29
2526.5	22.5
2527.41	24
2528.31	25.5
2529.22	20.5
2530.12	22
2531.03	28
2531.93	26
2532.84	26.5
2533.74	26
2534.65	26.5
2535.55	24.5
2536.46	29
2537.36	25
2538.27	26
2539.17	25
2540.07	28
2540.98	24.5
2541.88	23
2542.78	21
2543.69	23
2544.59	23
2545.49	25.5
2546.4	24.5
2547.3	25
2548.2	24.5
2549.1	25.5
2550.01	20.5
2550.91	24.5
2551.81	25
2552.71	22
2553.61	27
2554.52	22.5
2555.42	23.5
2556.32	24.5
2557.22	22
2558.12	21.5
2559.02	22
2559.92	26.5
2560.82	27
2561.72	23
2562.62	22
2563.53	24
2564.43	30
2565.33	21.5
2566.23	25
2567.13	20
2568.03	19.5
2568.92	22.5
2569.82	27.5
2570.72	25
2571.62	25
2572.52	27.5
2573.42	27
2574.32	24.5
2575.22	23
2576.12	24
2577.02	22.5
2577.91	24
2578.81	24
2579.71	23
2580.61	19.5
2581.5	19.5
2582.4	25.5
2583.3	24.5
2584.2	25.5
2585.09	21
2585.99	25
2586.89	24.5
2587.78	23.5
2588.68	23
2589.58	22.5
2590.47	25
2591.37	26
2592.27	25
2593.16	27.5
2594.06	21
2594.95	19
2595.85	28.5
2596.75	22.5
2597.64	23.5
2598.54	25.5
2599.43	27.5
2600.33	27
2601.22	23.5
2602.12	26
2603.01	28.5
2603.9	25
2604.8	20
2605.69	24
2606.59	23
2607.48	26.5
2608.37	24
2609.27	24.5
2610.16	24.5
2611.05	23.5
2611.95	28.5
2612.84	24
2613.73	24
2614.63	26.5
2615.52	25.5
2616.41	28.5
2617.3	23
2618.2	26
2619.09	25
2619.98	26
2620.87	23.5
2621.76	26.5
2622.66	24
2623.55	28.5
2624.44	23
2625.33	24.5
2626.22	27.5
2627.11	24.5
2628	19.5
2628.9	22
2629.79	23.5
2630.68	24
2631.57	22.5
2632.46	24
2633.35	22.5
2634.24	23
2635.13	26
2636.02	30.5
2636.91	25
2637.8	23.5
2638.68	26
2639.57	27.5
2640.46	24
2641.35	25
2642.24	23
2643.13	22
2644.02	27
2644.91	24
2645.79	25
2646.68	16.5
2647.57	26.5
2648.46	24
2649.35	24
2650.23	23
2651.12	29
2652.01	25.5
2652.9	23
2653.78	24.5
2654.67	25
2655.56	22.5
2656.44	24
2657.33	19
2658.22	23
2659.1	19.5
2659.99	23.5
2660.88	23
2661.76	24.5
2662.65	24.5
2663.53	21.5
2664.42	23
2665.3	24
2666.19	22
2667.07	22.5
2667.96	21
2668.84	24.5
2669.73	21.5
2670.61	22.5
2671.5	24.5
2672.38	23
2673.27	22.5
2674.15	26
2675.04	26.5
2675.92	20
2676.8	22
2677.69	25.5
2678.57	21.5
2679.45	26
2680.34	26
2681.22	27
2682.1	26
2682.99	27.5
2683.87	22.5
2684.75	23
2685.63	22.5
2686.52	23
2687.4	27.5
2688.28	24.5
2689.16	24
2690.04	23.5
2690.93	23
2691.81	19.5
2692.69	25
2693.57	26
2694.45	23
2695.33	25
2696.21	25
2697.09	25
2697.97	26
2698.85	28.5
2699.74	22
2700.62	25
2701.5	23.5
2702.38	23
2703.26	22
2704.14	28.5
2705.02	23
2705.89	23
2706.77	20.5
2707.65	27
2708.53	26
2709.41	22
2710.29	25
2711.17	21
2712.05	22.5
2712.93	24.5
2713.8	22
2714.68	28
2715.56	24.5
2716.44	25
2717.32	30
2718.19	25
2719.07	27.5
2719.95	21
2720.83	23
2721.7	25.5
2722.58	23
2723.46	21.5
2724.33	25.5
2725.21	26.5
2726.09	23.5
2726.97	28
2727.84	27
2728.72	23
2729.59	27
2730.47	26
2731.35	27
2732.22	22.5
2733.1	25
2733.97	25
2734.85	24.5
2735.72	23.5
2736.6	25
2737.47	22.5
2738.35	23.5
2739.22	23.5
2740.1	22.5
2740.97	22
2741.84	24.5
2742.72	27
2743.59	28
2744.47	23.5
2745.34	24.5
2746.21	22.5
2747.09	26
2747.96	21.5
2748.83	25.5
2749.71	22.5
2750.58	24.5
2751.45	24.5
2752.33	23.5
2753.2	26
2754.07	22
2754.94	24
2755.82	24.5
2756.69	21
2757.56	24.5
2758.43	24.5
2759.3	24.5
2760.18	24.5
2761.05	21.5
2761.92	24.5
2762.79	17
2763.66	23.5
2764.53	27
2765.4	25
2766.27	22.5
2767.14	23
2768.01	27
2768.88	23
2769.75	26.5
2770.62	25.5
2771.49	26.5
2772.36	25.5
2773.23	26
2774.1	23
2774.97	24
2775.84	22
2776.71	26.5
2777.58	27
2778.45	26
2779.32	21
2780.19	22
2781.06	25
2781.92	26
2782.79	26
2783.66	24.5
2784.53	25
2785.4	26
2786.26	26.5
2787.13	27.5
2788	28
2788.87	26.5
2789.73	26.5
2790.6	23.5
2791.47	23
2792.34	27.5
2793.2	23.5
2794.07	26.5
2794.94	28
2795.8	29
2796.67	22
2797.53	22.5
2798.4	29
2799.27	22.5
2800.13	25.5
2801	27.25
2801.86	27
2802.73	24.5
2803.59	27
2804.46	27
2805.32	25
2806.19	29.5
2807.05	28
2807.92	23
2808.78	26.5
2809.65	29
2810.51	27
2811.38	26.5
2812.24	26
2813.1	21
2813.97	26
2814.83	28
2815.7	24
2816.56	22.5
2817.42	27
2818.29	25
2819.15	24.5
2820.01	24
2820.87	26
2821.74	24
2822.6	25.5
2823.46	26.5
2824.32	26
2825.19	26
2826.05	26
2826.91	23
2827.77	24.5
2828.63	24
2829.5	29
2830.36	22.5
2831.22	26.5
2832.08	27.5
2832.94	27
2833.8	22.5
2834.66	24.5
2835.52	24.5
2836.38	23
2837.24	27
2838.1	25.5
2838.96	25.5
2839.82	25
2840.68	27
2841.54	28.5
2842.4	25.5
2843.26	24
2844.12	25
2844.98	26
2845.84	28
2846.7	24
2847.56	24.5
2848.42	27.5
2849.28	28
2850.14	25.5
2850.99	24
2851.85	26
2852.71	23
2853.57	25.5
2854.43	25.5
2855.28	23.5
2856.14	24
2857	25
2857.86	23.5
2858.71	26
2859.57	26
2860.43	23.5
2861.28	26
2862.14	26
2863	24.5
2863.86	23
2864.71	23
2865.57	23.5
2866.42	26
2867.28	28
2868.14	22
2868.99	26
2869.85	26
2870.7	30.5
2871.56	20
2872.41	27
2873.27	29
2874.13	25
2874.98	28
2875.83	29
2876.69	27
2877.54	26.5
2878.4	30.5
2879.25	27.5
2880.11	31.5
2880.96	26.5
2881.81	28
2882.67	27
2883.52	29
2884.38	29.5
2885.23	27
2886.08	30.5
2886.94	30.5
2887.79	29.5
2888.64	31.5
2889.5	28.5
2890.35	33.5
2891.2	31.5
2892.05	33
2892.91	34.5
2893.76	33
2894.61	33.5
2895.46	38.5
2896.31	41.5
2897.17	36
2898.02	37.5
2898.87	41.5
2899.72	46
2900.57	45
2901.42	47
2902.27	49
2903.12	47
2903.98	52.5
2904.83	53.5
2905.68	48
2906.53	55
2907.38	58
2908.23	46
2909.08	49.5
2909.93	49
2910.78	54
2911.63	43
2912.48	48.5
2913.33	40.5
2914.18	41
2915.02	37
2915.87	42
2916.72	36
2917.57	36.5
2918.42	34.5
2919.27	28.5
2920.12	27.5
2920.97	33.5
2921.81	33
2922.66	31
2923.51	27
2924.36	31.5
2925.21	29.5
2926.05	27.5
2926.9	28
2927.75	31
2928.59	27
2929.44	26
2930.29	26
2931.14	26.5
2931.98	25.5
2932.83	24.5
2933.68	24
2934.52	28
2935.37	29.5
2936.21	25.5
2937.06	28
2937.91	22
2938.75	26
2939.6	25.5
2940.44	24.5
2941.29	22
2942.14	29
2942.98	26
2943.82	24
2944.67	27.5
2945.51	25.5
2946.36	24
2947.2	29
2948.05	29
2948.89	27.5
2949.74	28
2950.58	27
2951.43	27.5
2952.27	30
2953.11	24
2953.96	30
2954.8	32.5
2955.64	31.5
2956.49	35.5
2957.33	29
2958.17	29
2959.02	31.5
2959.86	33.5
2960.7	34
2961.54	34.5
2962.39	36.5
2963.23	36
2964.07	35
2964.91	35
2965.75	33.5
2966.6	31.5
2967.44	33.5
2968.28	35.5
2969.12	32
2969.96	30
2970.8	32
2971.64	32.4806
2972.48	29.9572
2973.33	34.3642
2974.17	33.8462
2975.01	32.9499
2975.85	32.2732
2976.69	29.7561
2977.53	31.4282
2978.37	30.2678
2979.21	26.0999
2980.05	28.1149
2980.89	27.165
2981.73	25.1578
2982.57	26.1829
2983.41	25.7729
2984.25	26.8814
2985.08	23.4175
2985.92	26.1612
2986.76	26.5494
2987.6	25.7904
2988.44	26.3461
2989.28	26.601
2990.12	24.8257
2990.96	24.2975
2991.79	21.9172
2992.63	25.14
2993.47	25.5403
2994.31	24.7269
2995.14	21.6468
2995.98	21.6968
2996.82	25.9874
2997.66	23.0802
2998.49	23.3709
2999.33	22.2246
3000.17	22.8325
3001	23.6767
3001.84	20.161
3002.68	23.624
3003.51	20.6729
3004.35	23.0178
3005.19	21.6808
3006.02	22.947
3006.86	22.403
3007.7	21.6436
3008.53	21.1749
3009.37	22.7573
3010.2	22.1267
3011.04	24.2155
3011.87	23.1383
3012.71	21.5025
3013.54	23.0181
3014.38	20.5969
3015.21	22.6524
3016.05	25.1639
3016.88	21.5286
3017.72	24.0752
3018.55	22.3218
3019.39	23.9781
3020.22	22.508
3021.05	22.265
3021.89	21.2912
3022.72	21.7015
3023.55	21.8838
3024.39	24.04
3025.22	21.9114
3026.05	21.8463
3026.89	22.3114
3027.72	22.1091
3028.55	20.3998
3029.39	22.5311
3030.22	22.7193
3031.05	22.8623
3031.88	22.2408
3032.72	22.3805
3033.55	23.7272
3034.38	22.9882
3035.21	22.5424
3036.04	22.1284
3036.88	22.6611
3037.71	23.5824
3038.54	23.6371
3039.37	24.2109
3040.2	21.3414
3041.03	21.1657
3041.86	23.9862
3042.69	22.585
3043.52	21.6269
3044.36	22.3712
3045.19	24.1266
3046.02	25.3006
3046.85	23.6848
3047.68	22.7455
3048.51	21.2724
3049.34	21.2568
3050.17	20.315
3051	20.576
3051.83	23.0316
3052.66	22.1092
3053.48	24.4736
3054.31	26.2604
3055.14	21.3366
3055.97	20.0661
3056.8	22.1323
3057.29	23
3058.12	24
3058.95	23
3059.79	24.5
3060.62	26
3061.45	21
3062.29	20.5
3063.12	24
3063.95	21
3064.78	22.5
3065.62	24
3066.45	25.5
3067.28	22
3068.11	20.5
3068.94	20
3069.77	25
3070.61	23.5
3071.44	23
3072.27	23
3073.1	25
3073.93	24.5
3074.76	22
3075.59	21.5
3076.42	21
3077.25	23
3078.08	19
3078.92	17.5
3079.74	23
3080.57	25.5
3081.41	23.5
3082.24	23
3083.06	27
3083.89	20
3084.72	25.5
3085.55	22.5
3086.38	23.5
3087.21	18
3088.04	25
3088.87	23.5
3089.7	23
3090.53	23
3091.36	21.5
3092.18	21
3093.01	24
3093.84	22.5
3094.67	18.5
3095.5	22
3096.32	23.5
3097.15	23.5
3097.98	23.5
3098.81	22
3099.64	24
3100.46	22
3101.29	24.5
3102.12	21
3102.94	22.5
3103.77	24
3104.6	20.5
3105.42	21
3106.25	24
3107.08	26.5
3107.9	20
3108.73	23.5
3109.56	24.5
3110.38	21.5
3111.21	23.5
3112.03	25.5
3112.86	25
3113.68	24.5
3114.51	22
3115.33	21
3116.16	26
3116.98	22
3117.81	22
3118.63	21
3119.46	21
3120.28	25
3121.11	21
3121.93	24
3122.76	21
3123.58	24
3124.4	24
3125.23	22.5
3126.05	20
3126.87	24
3127.7	24
3128.52	28
3129.34	22
3130.17	24
3130.99	23.5
3131.81	21.5
3132.64	23.5
3133.46	22
3134.28	21
3135.1	22.5
3135.93	22.5
3136.75	21.5
3137.57	19.5
3138.39	20.5
3139.21	24
3140.04	26.5
3140.86	27
3141.68	23
3142.5	23.5
3143.32	25.5
3144.14	24.5
3144.96	24
3145.78	21
3146.61	22
3147.43	20
3148.25	25.5
3149.07	23
3149.89	24.5
3150.71	20
3151.53	21
3152.35	25
3153.17	23
3153.99	25
3154.81	23.5
3155.63	21
3156.45	25
3157.27	21
3158.08	22
3158.9	21.5
3159.72	21
3160.54	21
3161.36	23
3162.18	20
3163	23
3163.82	24.5
3164.63	23.5
3165.45	22.5
3166.27	28.5
3167.09	26.5
3167.91	22.5
3168.72	22
3169.54	24
3170.36	24.5
3171.18	25.5
3171.99	21.5
3172.81	23.5
3173.63	23
3174.44	23
3175.26	23.5
3176.08	24.5
3176.89	23.5
3177.71	23
3178.53	25
3179.34	23
3180.16	22.5
3180.97	22.5
3181.79	22.5
3182.61	27
3183.42	21
3184.24	24.5
3185.05	29
3185.87	25
3186.68	24
3187.5	26
3188.31	24.5
3189.13	23.5
3189.94	25
3190.76	21
3191.57	25
3192.39	20.5
3193.2	22.5
3194.02	22.5
3194.83	24.5
3195.64	19.5
3196.46	26
3197.27	21.5
3198.08	23
3198.9	24.5
3199.71	21
3200.52	23.5
3201.34	23
3202.15	21.5
3202.96	25
3203.78	23
3204.59	26
3205.4	22
3206.21	25
3207.03	24
3207.84	23
3208.65	23
3209.46	23
3210.27	24
3211.09	21
3211.9	21.5
3212.71	25
3213.52	27
3214.33	26
3215.14	24.5
3215.95	19.5
3216.77	23
3217.58	25
3218.39	21
3219.2	23
3220.01	18
3220.82	23.5
3221.63	24
3222.44	23
3223.25	19
3224.06	23.5
3224.87	27.5
3225.68	21
3226.49	20.5
3227.3	23
3228.11	21.5
3228.92	22
3229.73	27.5
3230.53	24.5
3231.34	22.5
3232.15	20.5
3232.96	24.5
3233.77	22
3234.58	22
3235.39	22.5
3236.19	21.5
3237	22.5
3237.81	27.5
3238.62	19.5
3239.43	23
3240.23	24
3241.04	24
3241.85	23.5
3242.66	24
3243.46	23.5
3244.27	24
3245.08	21
3245.89	22
3246.69	24
3247.5	25
3248.31	22.5
3249.11	22
3249.92	23
3250.72	23.5
3251.53	23
3252.34	24
3253.14	25.5
3253.95	22
3254.75	24
3255.56	23
3256.36	20.5
3257.17	25.5
3257.98	23
3258.78	22
3259.59	23
3260.39	24.5
3261.19	24
3262	22.5
3262.8	24
3263.61	24
3264.41	22.5
3265.22	25
3266.02	22.5
3266.83	26
3267.63	21.5
3268.43	25
3269.24	25
3270.04	25.5
3270.84	21
3271.65	19.5
3272.45	26.5
3273.25	22.5
3274.06	23
3274.86	23.5
3275.66	21.5
3276.46	23
3277.27	25.5
3278.07	22
3278.87	24.5
3279.67	20
3280.48	24.5
3281.28	26
3282.08	24
3282.88	22.5
3283.68	22
3284.48	21.5
3285.29	23
3286.09	21
3286.89	24
3287.69	23
3288.49	20.5
3289.29	22.5
3290.09	26
3290.89	22
3291.69	26.5
3292.49	25
3293.29	23
3294.09	23.5
3294.89	26.5
3295.69	23
3296.49	22.5
3297.29	21.5
3298.09	27
3298.89	21
3299.69	20.5
3300.49	28
3301.29	23.5
3302.09	22.5
3302.89	21.5
3303.69	21
3304.49	23.5
3305.28	23
3306.08	25.5
3306.88	22
3307.68	19
3308.48	23.5
3309.28	21
3310.07	28
3310.87	27.5
3311.67	22.5
3312.47	26
3313.26	24.5
3314.06	24.5
3314.86	23.5
3315.66	26
3316.45	23.5
3317.25	26
3318.05	23
3318.84	25
3319.64	24
3320.44	26
3321.23	23
3322.03	25
3322.83	26.5
3323.62	25.5
3324.42	27
3325.21	24.5
3326.01	22.5
3326.81	26.5
3327.6	24
3328.4	20.5
3329.19	21
3329.99	21
3330.78	23
3331.58	22.5
3332.37	22.5
3333.17	24
3333.96	26
3334.76	25
3335.55	22
3336.34	24
3337.14	25
3337.93	24
3338.73	26
3339.52	21.5
3340.31	20
3341.11	27
3341.9	25.5
3342.69	19
3343.49	21.5
3344.28	21.5
3345.07	19.5
3345.87	23
3346.66	26
3347.45	24
3348.25	24
3349.04	23
3349.83	26
3350.62	23.5
3351.42	26
3352.21	22.5
3353	26
3353.79	26
3354.58	24
3355.37	21.5
3356.17	20
3356.96	23.5
3357.75	26.5
3358.54	26
3359.33	22
3360.12	23.5
3360.91	24.5
3361.7	21
3362.49	23.5
3363.29	21
3364.08	24.5
3364.87	24
3365.66	23.5
3366.45	25
3367.24	20.5
3368.03	26
3368.82	24
3369.61	23
3370.4	22.5
3371.19	23
3371.97	26.5
3372.76	21
3373.55	25.5
3374.34	21
3375.13	20.5
3375.92	26.5
3376.71	20
3377.5	24
3378.29	26
3379.07	24
3379.86	23.5
3380.65	25.5
3381.44	22.5
3382.23	25
3383.01	24.5
3383.8	25
3384.59	23.5
3385.38	23.5
3386.16	23.5
3386.95	21
3387.74	19.5
3388.53	20
3389.31	25
3390.1	26.5
3390.89	24
3391.67	23.5
3392.46	24.5
3393.25	26
3394.03	22.5
3394.82	24
3395.6	25
3396.39	26.5
3397.18	23
3397.96	26.5
3398.75	22.5
3399.53	22
3400.32	24
3401.1	23.5
3401.89	25
3402.67	24
3403.46	21
3404.24	27
3405.03	26.5
3405.81	23
3406.6	24
3407.38	22
3408.17	26
3408.95	22
3409.74	25.5
3410.52	24
3411.3	26.5
3412.09	22
3412.87	25
3413.65	24
3414.44	24
3415.22	21
3416	25
3416.79	24
3417.57	26
3418.35	26.5
3419.14	24.5
3419.92	23
3420.7	25
3421.48	27.5
3422.27	26
3423.05	23
3423.83	23
3424.61	26.5
3425.4	24.5
3426.18	25
3426.96	20.5
3427.74	22.5
3428.52	27.5
3429.3	21
3430.08	25
3430.87	25.5
3431.65	26
3432.43	23
3433.21	25
3433.99	18.5
3434.77	27.5
3435.55	22
3436.33	23.5
3437.11	23.5
3437.89	24
3438.67	22
3439.45	23.5
3440.23	20
3441.01	25.5
3441.79	25
3442.57	28
3443.35	23.5
3444.13	23
3444.91	24
3445.69	25
3446.47	21
3447.25	29.5
3448.03	23
3448.8	22.5
3449.58	26.5
3450.36	20.5
3451.14	26.5
3451.92	21.5
3452.7	24.5
3453.47	25
3454.25	21
3455.03	22
3455.81	27.5
3456.59	23
3457.36	28
3458.14	22.5
3458.92	23
3459.69	24
3460.47	20
3461.25	27
3462.03	23.5
3462.8	21
3463.58	24
3464.36	20
3465.13	21.5
3465.91	24.5
3466.69	24
3467.46	24.5
3468.24	24
3469.01	24.5
3469.79	22.5
3470.57	22.5
3471.34	27.5
3472.12	25
3472.89	23.5
3473.67	26.5
3474.44	28.5
3475.22	24.5
3475.99	19.5
3476.77	23.5
3477.54	24
3478.32	22
3479.09	29
3479.87	25
3480.64	22.5
3481.41	25
3482.19	23
3482.96	26.5
3483.74	22
3484.51	22
3485.28	22.5
3486.06	23
3486.83	22.5
3487.6	23
3488.38	23
3489.15	23.5
3489.92	25.5
3490.7	22.5
3491.47	24.5
3492.24	25
3493.01	19.5
3493.79	21.5
3494.56	22
3495.33	24.5
3496.1	25
3496.88	24
3497.65	22
3498.42	22
3499.19	22
3499.96	25.5
