#Acq. time (s)=	5
#Accumulations=	5
#Range (cm-¹)=	100...3500
#Windows=	4
#Autofocus=	Off
#AutoExposure=	Off
#Spike filter=	Multiple accum.
#Delay time (s)=	0
#Binning=	1
#Readout mode=	Signal
#DeNoise=	Off
#ICS correction=	Off
#Dark correction=	Off
#Inst. Process=	Off
#Instrument=	LabRAM HR Evol
#Detector=	Syncerity OE
#Objective=	x100_VIS
#Grating=	600 (500nm)
#ND Filter=	25%
#Laser=	633nm_Edge
#Hole=	100.021
#Range=	Visible
#Project=	verificaciones
#Sample=	at4
#Site=	lined
#Title=	bolusat4lined
#Remark=	
#Date=	14.01.2026 14:32
#Acquired=	14.01.2026 14:32:13
100.618	28
101.901	34
103.185	36
104.468	33
105.751	33.5
107.033	32
108.316	27
109.598	30.5
110.88	33
112.162	33.5
113.445	33
114.727	32
116.008	34
117.289	32
118.57	33
119.85	29
121.13	35
122.411	31
123.691	39
124.97	32
126.25	36
127.529	37
128.808	34.5
130.086	38
131.364	33
132.643	35
133.921	37
135.199	39.5
136.477	36
137.755	37
139.032	37
140.309	39
141.586	39
142.863	43
144.14	40
145.415	40.5
146.691	44.5
147.967	44.5
149.243	42.5
150.518	44
151.794	41
153.067	41
154.342	39.5
155.617	46
156.892	39
158.166	45
159.439	47
160.712	39
161.986	40.5
163.26	45.5
164.531	43.5
165.805	40.5
167.077	40
168.35	41
169.621	43
170.893	40
172.165	45
173.437	41
174.707	42
175.979	43
177.25	39.5
178.519	45
179.79	42
181.061	40.5
182.33	47
183.6	47
184.87	41
186.138	42.5
187.408	48
188.676	44
189.945	46
191.214	38
192.481	42
193.75	44.5
195.016	42
196.285	42
197.552	41.5
198.819	41
200.086	41.5
201.352	40
202.619	43
203.884	39
205.151	40
206.416	36
207.682	45
208.947	40
210.213	39
211.477	41.5
212.742	34.5
214.006	36
215.271	36
216.535	38.5
217.799	37.5
219.062	36.5
220.326	36.5
221.589	33.5
222.851	34
224.115	33.5
225.377	32
226.64	34.5
227.901	31
229.163	32.5
230.425	35
231.686	34
232.947	31
234.209	32
235.469	35
236.729	34.5
237.991	32
239.25	35.5
240.51	33
241.771	34
243.03	35.5
244.288	33
245.549	36.5
246.807	35
248.065	29
249.323	36.5
250.583	32
251.84	34
253.098	32
254.355	32.5
255.613	33.5
256.87	29.5
258.127	32
259.383	29
260.639	32
261.897	33
263.153	31
264.408	34
265.664	34.5
266.919	30.5
268.174	34.5
269.43	32.5
270.685	33
271.939	30
273.193	32
274.447	34
275.701	29
276.955	33
278.208	30
279.461	30.5
280.714	32.5
281.968	30
283.221	27.5
284.473	30
285.726	30
286.977	32.5
288.229	31.5
289.481	30
290.732	29.5
291.983	33.5
293.234	36.5
294.485	33
295.736	31.5
296.986	31
298.236	30
299.486	32.5
300.736	31
301.985	33.5
303.233	33.5
304.482	34
305.731	34
306.98	30
308.228	31.5
309.477	32
310.725	32
311.973	33
313.22	31.5
314.468	32.5
315.714	30.5
316.961	29
318.208	29
319.455	32
320.701	33
321.947	28
323.192	31
324.438	35
325.684	34
326.929	29.5
328.175	29
329.418	23
330.663	29.5
331.908	30.5
333.152	31
334.395	30
335.639	29
336.883	32.5
338.127	31
339.369	28.5
340.612	33
341.855	29
343.097	31
344.34	24.5
345.582	32
346.823	29
348.065	30.5
349.307	33
350.547	31
351.789	33
353.03	29.5
354.27	32
355.511	30
356.75	28
357.991	28.5
359.231	32.5
360.47	22.5
361.709	26
362.948	30
364.187	30.5
365.427	32
366.664	27.5
367.903	33
369.14	33.5
370.379	34.5
371.616	32.5
372.854	28.5
374.091	32.5
375.328	28.5
376.564	33.5
377.802	34
379.037	29.5
380.274	30.5
381.51	32
382.745	31.5
383.981	29.5
385.216	29.5
386.452	31
387.686	29.5
388.922	32
390.155	31
391.389	29
392.624	30
393.857	36
395.091	30.5
396.325	35
397.558	28.5
398.79	33
400.024	29
401.256	32.5
402.488	33
403.721	30
404.953	32
406.184	32
407.417	30
408.648	28
409.878	30
411.109	31
412.341	34.5
413.571	30
414.801	32.5
416.031	29.5
417.262	30
418.491	30
419.72	28
420.949	32
422.178	37.5
423.408	32
424.637	33.5
425.865	33
427.093	33.5
428.32	34
429.548	33.5
430.777	31
432.004	30
433.231	30
434.458	29
435.685	31.5
436.911	33.5
438.137	33
439.363	27
440.589	34
441.815	34.5
443.042	31.5
444.267	32
445.492	31.5
446.717	34
447.942	32.5
449.166	36.5
450.39	33
451.615	34
452.838	35.5
454.062	31
455.286	28
456.509	31.5
457.732	33.5
458.955	33.5
460.178	33
461.399	33
462.621	32.5
463.843	32.5
465.065	30.5
466.287	34.5
467.508	38
468.73	35
469.951	39
471.172	40
472.393	42
473.612	40.5
474.832	40.5
476.052	40.5
477.272	47
478.492	47
479.712	46.5
480.93	51.5
482.149	51
483.368	56.5
484.587	55.5
485.806	59.5
487.023	60
488.241	64
489.459	70
490.677	67
491.893	60
493.111	60.5
494.328	58
495.543	59
496.76	52.5
497.977	50
499.194	51.5
500.409	49
501.625	46
502.841	45.5
504.055	42.5
505.27	42.5
506.486	33
507.699	40
508.914	41.5
510.128	35
511.342	42
512.557	38
513.77	37
514.984	38
516.196	35.5
517.41	35
518.623	35
519.835	34
521.048	37
522.259	30.5
523.472	36
524.683	36
525.895	38
527.106	33
528.318	31
529.528	34
530.74	39.5
531.949	33.5
533.161	33
534.37	38
535.581	30.5
536.79	36
537.999	32.5
539.209	36.5
540.418	33.5
541.627	33
542.835	34
544.043	32
545.253	31.5
546.46	30.5
547.669	32.5
548.876	32
550.083	33.5
551.292	30
552.498	34
553.705	33.5
554.912	33.5
556.118	25.5
557.324	28.5
558.53	33
559.737	35.5
560.942	33.5
562.147	29.5
563.353	37
564.558	31
565.763	34.5
566.967	33
568.173	29.5
569.377	29.5
570.58	33
571.784	29
572.987	30.5
574.192	33.5
575.395	27
576.598	31.5
577.8	33
579.003	34
580.205	28
581.407	30
582.61	33.5
583.812	29.5
585.014	31
586.215	32.5
587.416	30.5
588.617	31.5
589.818	26
591.018	29.5
592.219	27.5
593.419	28.5
594.619	27.5
595.819	32
597.02	32
598.219	30.5
599.418	31
600.617	29
601.816	31
603.015	28.5
604.213	31.5
605.41	30
606.608	31
607.806	33
609.004	29.5
610.201	28.5
611.399	24
612.596	33.5
613.793	30
614.989	32.5
616.186	35
617.382	29
618.579	35
619.775	30.5
620.969	31
622.165	33.5
623.36	34
624.555	34
625.75	31.5
626.945	36
628.139	31.5
629.333	29.5
630.527	31.5
631.721	35
632.915	32.5
634.108	31.5
635.301	33
636.495	32
637.688	32
638.88	30
640.072	33.5
641.265	30.5
642.456	30
643.648	31.5
644.84	30.5
646.032	37
647.222	35
648.414	31
649.605	32
650.795	32.5
651.986	34
653.177	29.5
654.366	32
655.556	29
656.745	34
657.935	30
659.125	35
660.313	33.5
661.503	30.5
662.69	34.5
663.879	36
665.067	31
666.256	35.5
667.444	29
668.631	37
669.819	33.5
671.006	33
672.194	27
673.38	34.5
674.567	36
675.753	32.5
676.94	38
678.125	35.5
679.311	35
680.497	40
681.682	34.5
682.868	35.5
684.053	40
685.238	36
686.422	35
687.606	38.5
688.792	32
689.975	36
691.159	40
692.343	39
693.526	39.5
694.71	39
695.893	37
697.076	35.5
698.259	38.5
699.441	40.5
700.623	42
701.805	40
702.988	47.5
704.169	49.5
705.35	51
706.533	56.5
707.714	54
708.894	54
710.075	57
711.255	47.5
712.436	48
713.616	44.5
714.796	41
715.975	38.5
717.155	39
718.335	34.5
719.514	36
720.693	34
721.872	35.5
723.05	31
724.228	29.5
725.406	33
726.585	33.5
727.763	34.5
728.941	33
730.118	32.5
731.295	30
732.472	32
733.649	32.5
734.825	29
736.002	27
737.178	33.5
738.354	35.5
739.53	30.5
740.705	30.5
741.881	28.5
743.056	33.5
744.231	28.5
745.406	32
746.581	30
747.755	27
748.93	30
750.104	35.5
751.278	34.5
752.452	26.5
753.625	30
754.799	32.5
755.972	31
757.144	30
758.317	29.5
759.489	30.5
760.662	32.5
761.834	34
763.006	31
764.178	33
765.349	31.5
766.521	28
767.692	36
768.863	31.5
770.034	30.5
771.204	33
772.374	28
773.545	33
774.715	33
775.885	27.5
777.054	35
778.224	28
779.393	29.5
780.562	32
781.731	35
782.9	34.5
784.069	31.5
785.236	30.5
786.405	35
787.573	36
788.74	33
789.908	33
791.074	34
792.242	35
793.409	29
794.575	33
795.742	34.5
796.909	33
798.074	34.5
799.241	32
800.406	35
801.572	32
802.737	31.5
803.902	31
805.067	33
806.232	35
807.396	26
808.561	34.5
809.725	34
810.889	30
812.052	36
813.217	33
814.38	31.5
815.544	34
816.706	34.5
817.87	33.5
819.032	29
820.195	26
821.357	28.5
822.518	29
823.681	31
824.842	29.5
826.005	29
827.165	30
828.326	30.5
829.488	26
830.648	30.5
831.808	31.5
832.97	30.5
834.129	32
835.289	31
836.45	29
837.609	31
838.768	26.5
839.927	30
841.087	29
842.245	33
843.404	32
844.562	33.5
845.721	30
846.879	28.5
848.036	36.5
849.194	28.5
850.351	29.5
851.509	29.5
852.666	31.5
853.823	31
854.979	29
856.136	29
857.292	34.5
858.448	30
859.605	30
860.761	31.5
861.916	34
863.071	36.5
864.226	33
865.381	30
866.536	32
867.691	31
868.845	33.5
869.999	29.5
871.153	34.5
872.307	32
873.461	31.5
874.614	29
875.767	31.5
876.92	32.5
878.073	32
879.226	30.5
880.379	30.5
881.531	34.5
882.683	32
883.835	29
884.987	33.5
886.139	31
887.291	28.5
888.442	27.5
889.593	29
890.743	33
891.893	26.5
893.044	31
894.195	22
895.345	30
896.495	31
897.643	32
898.793	30.5
899.943	26
901.092	28
902.241	30
903.389	25.5
904.538	32.5
905.687	32
906.835	29
907.982	28.5
909.13	26
910.278	28
911.426	30
912.572	29
913.72	29
914.867	30
916.013	29
917.16	28.5
918.306	34.5
919.451	31.5
920.598	29.5
921.744	32
922.889	32
924.035	33.5
925.18	32.5
926.324	26
927.47	31
928.614	30
929.758	26
930.902	28.5
932.047	28
933.191	29.5
934.334	29.5
935.478	31
936.621	30
937.764	25.5
938.906	34
940.05	30.5
941.192	29
942.335	28.5
943.476	29
944.619	32
945.76	30
946.901	24
948.043	28.5
949.184	32
950.326	28.5
951.466	28
952.606	28.5
953.747	28.5
954.887	24
956.028	26.5
957.167	29.5
958.307	27
959.447	29
960.586	28
961.725	29.5
962.865	29
964.003	27.5
965.141	29
966.279	27.5
967.418	31
968.556	30
969.693	30.5
970.831	29.25
971.969	27
973.106	31
974.243	27.5
975.38	31
976.517	27.5
977.654	32
978.79	27
979.926	32
981.061	31
982.197	28
983.334	26
984.469	27
985.604	30
986.739	29
987.873	27
989.008	28.5
990.142	27.5
991.277	28
992.411	29
993.544	32
994.679	32.5
995.813	32
996.946	26.5
998.079	25
999.212	31
1000.35	29
1001.48	27.5
1002.61	32.5
1003.74	30.5
1004.87	29
1006.01	32.5
1007.14	32.5
1008.27	26
1009.4	29
1010.53	27
1011.66	27
1012.79	27
1013.92	29
1015.05	33
1016.18	27
1017.31	29.5
1018.44	27.5
1019.57	28.5
1020.7	30
1021.83	28.5
1022.96	27
1024.09	27
1025.22	31
1026.35	25
1027.48	28.5
1028.6	31
1029.73	26.5
1030.86	25.5
1031.99	26.5
1033.12	22
1034.24	30.5
1035.37	26
1036.5	31.5
1037.62	31.5
1038.75	27
1039.88	29
1041	27
1042.13	26
1043.25	28
1044.38	27.5
1045.5	32.5
1046.63	28
1047.76	25.5
1048.88	27.5
1050	31.5
1051.13	26.5
1052.25	23
1053.38	28
1054.5	28
1055.63	29.5
1056.75	26
1057.87	24.5
1058.99	29
1060.12	32
1061.24	32.5
1062.36	34
1063.49	29.5
1064.61	28
1065.73	28
1066.85	29
1067.97	34
1069.1	23
1070.22	28.5
1071.34	27.5
1072.46	26.5
1073.58	27.5
1074.7	27.5
1075.82	27
1076.94	26.5
1078.06	28.5
1079.18	31
1080.3	27
1081.42	28
1082.54	28.5
1083.66	27.5
1084.78	29.5
1085.9	26
1087.02	26
1088.13	23.5
1089.25	24
1090.37	25.5
1091.49	30
1092.61	28
1093.72	28.5
1094.84	25
1095.96	25
1097.08	31.5
1098.19	30
1099.31	26.5
1100.42	26.5
1101.54	28.5
1102.66	30
1103.77	25
1104.89	33
1106	25
1107.12	27
1108.23	26
1109.35	29.5
1110.46	27.5
1111.58	29.5
1112.69	27
1113.81	27.5
1114.92	31
1116.04	29
1117.15	26.5
1118.26	29
1119.38	28.5
1120.49	24
1121.6	31
1122.72	29
1123.83	28.5
1124.94	26.5
1126.05	26
1127.17	28
1128.28	24.5
1129.39	28.5
1130.5	25.5
1131.61	26
1132.72	25
1133.83	29
1134.94	24.5
1136.06	27
1137.17	23.5
1138.27	26.5
1139.39	33.5
1140.5	25
1141.61	30.5
1142.72	30.5
1143.82	25
1144.93	23
1146.04	25
1147.15	28
1148.26	24
1149.37	29.5
1150.48	27
1151.58	27
1152.69	29.5
1153.8	25.5
1154.91	25
1156.02	26.5
1157.12	25.5
1158.23	26
1159.34	30
1160.44	29.5
1161.55	26
1162.66	27.5
1163.76	28.5
1164.87	30
1165.97	22
1167.08	27.5
1168.18	29
1169.29	28
1170.39	29
1171.5	27.5
1172.6	28.5
1173.71	28.5
1174.81	27
1175.92	25.5
1177.02	27.5
1178.13	28
1179.23	31
1180.33	24
1181.44	27
1182.54	29
1183.64	27
1184.74	26
1185.85	27.5
1186.95	30
1188.05	23.5
1189.15	27
1190.26	29
1191.36	24
1192.46	25.5
1193.56	25
1194.66	29.9808
1195.76	26.9153
1196.86	25.6108
1197.96	24.2233
1199.06	24.0124
1200.16	29.9466
1201.26	27.5887
1202.36	28.3892
1203.46	27.4128
1204.56	25.9108
1205.66	25.5567
1206.76	24.444
1207.86	27.0011
1208.96	30.1077
1210.06	22.4117
1211.16	25.0752
1212.25	25.9199
1213.35	30.642
1214.45	27.0831
1215.55	29.3401
1216.65	29.3911
1217.74	25.4273
1218.84	24.9068
1219.94	25.4368
1221.03	25.2852
1222.13	24.3816
1223.23	24.4903
1224.32	25.7344
1225.42	27.4067
1226.52	28.5398
1227.61	26.1017
1228.71	24.3625
1229.8	26.4052
1230.9	25.935
1231.99	25.6699
1233.09	23.782
1234.18	23.9551
1235.28	26.046
1236.37	24.5866
1237.47	26.02
1238.56	26.931
1239.65	27.6549
1240.75	28.1808
1241.84	27.4245
1242.93	26.255
1244.03	28.1563
1245.12	25.6439
1246.21	25.6665
1247.31	25.0682
1248.4	24.3854
1249.49	28.999
1250.58	28.379
1251.67	30.2103
1252.77	26.9204
1253.86	28.7837
1254.95	27.6358
1256.04	25.5574
1257.13	27.2178
1258.22	27.7857
1259.31	28.2006
1260.4	30.6887
1261.49	27.2549
1262.58	27.651
1263.67	30.5052
1264.76	28.5311
1265.85	26.3807
1266.94	28.2407
1268.03	27.001
1269.12	26.9236
1270.21	25.3982
1271.3	26.0832
1272.39	25.4076
1273.47	27.8573
1274.56	25.9219
1275.65	27.7705
1276.74	28.1936
1277.83	27.9201
1278.91	25.5656
1280	26.3698
1281.09	28.1795
1282.17	27.9738
1283.26	28.7494
1284.35	27.5517
1285.43	26.9729
1286.52	27.2256
1287.61	27.0209
1288.69	27.7839
1289.78	27.2554
1290.86	27.7861
1291.95	25.7156
1293.03	26.0499
1294.12	24.4592
1295.2	25.2864
1296.29	25.6267
1297.37	27.2596
1298.46	27.7455
1299.54	26.2372
1300.63	26.2066
1301.71	25.9915
1302.79	26.1256
1303.88	25.7455
1304.96	25.5109
1306.04	25.4185
1306.5	25
1307.59	27.5
1308.68	31
1309.76	24.5
1310.85	24
1311.94	30
1313.03	28.5
1314.11	26
1315.2	27
1316.29	26
1317.37	25
1318.46	24.5
1319.55	23
1320.63	26
1321.72	26.5
1322.81	26.5
1323.89	21
1324.98	25.5
1326.06	26
1327.15	26.5
1328.23	25
1329.32	28
1330.4	26.5
1331.49	27.5
1332.57	27
1333.66	28
1334.74	28
1335.82	24.5
1336.91	26
1337.99	27.5
1339.07	31
1340.16	22.5
1341.24	23.5
1342.32	26
1343.4	26
1344.49	25.5
1345.57	24
1346.65	24.5
1347.73	24
1348.82	25
1349.9	24.5
1350.98	29.5
1352.06	25.5
1353.14	26
1354.22	30.5
1355.3	26.5
1356.38	27.5
1357.46	25
1358.54	24
1359.62	27
1360.7	23.5
1361.78	25
1362.86	27
1363.94	30
1365.02	30
1366.1	28
1367.18	27.5
1368.26	27.5
1369.34	31
1370.41	29.5
1371.49	27.5
1372.57	30.5
1373.65	27
1374.72	29.5
1375.8	24
1376.88	27.5
1377.96	28
1379.03	30
1380.11	28.5
1381.19	24
1382.26	27
1383.34	23
1384.42	27
1385.49	23
1386.57	27.5
1387.64	26.5
1388.72	27.5
1389.79	25.5
1390.87	26
1391.94	28
1393.02	27.5
1394.09	32
1395.17	29
1396.24	27.5
1397.31	26
1398.39	27
1399.46	34
1400.54	27
1401.61	31.5
1402.68	29.5
1403.76	31.5
1404.83	33
1405.9	26
1406.97	30
1408.05	33
1409.12	26
1410.19	35
1411.26	32
1412.33	32
1413.4	33
1414.48	41
1415.55	34
1416.62	30
1417.69	31
1418.76	33.5
1419.83	31.5
1420.9	31
1421.97	28
1423.04	31.5
1424.11	29
1425.18	29.5
1426.25	29.5
1427.32	29
1428.39	28.5
1429.46	28
1430.52	31
1431.59	27.5
1432.66	25.5
1433.73	28.5
1434.8	29.5
1435.87	26.5
1436.93	30.5
1438	28
1439.07	29
1440.14	29
1441.2	28
1442.27	24.5
1443.34	27.5
1444.4	25
1445.47	25.5
1446.54	27
1447.6	25.5
1448.67	25.5
1449.73	28.5
1450.8	26
1451.86	28.5
1452.93	31.5
1453.99	29
1455.06	25.5
1456.12	30.5
1457.19	29
1458.25	26
1459.32	26.5
1460.38	31.5
1461.45	29.5
1462.51	30
1463.57	30
1464.64	27.5
1465.7	26
1466.76	27.5
1467.82	23
1468.89	28
1469.95	26
1471.01	28
1472.07	26.5
1473.14	27.5
1474.2	30
1475.26	28
1476.32	32
1477.38	28
1478.44	25
1479.5	31.5
1480.57	26
1481.63	32
1482.69	25.5
1483.75	25.5
1484.81	27
1485.87	27
1486.93	28
1487.99	25.5
1489.05	31
1490.1	32
1491.17	29
1492.22	26.5
1493.28	26.5
1494.34	28.5
1495.4	27
1496.46	28
1497.52	28.5
1498.57	24
1499.63	27
1500.69	28.5
1501.75	29.5
1502.8	29.5
1503.86	26
1504.92	28
1505.98	29
1507.03	23
1508.09	27
1509.15	27
1510.2	26.5
1511.26	30
1512.31	28
1513.37	27.5
1514.42	31.5
1515.48	23.5
1516.53	28
1517.59	25.5
1518.64	27
1519.7	25.5
1520.75	26.5
1521.81	27.5
1522.86	28
1523.92	28.5
1524.97	26
1526.02	25
1527.08	29.5
1528.13	27
1529.18	24.5
1530.24	29
1531.29	30
1532.34	26.5
1533.39	27.5
1534.45	28
1535.5	29
1536.55	29
1537.6	26.5
1538.65	29
1539.71	22
1540.76	27.5
1541.81	26.5
1542.86	26.5
1543.91	25.5
1544.96	30
1546.01	28.5
1547.06	30
1548.11	26
1549.16	27
1550.21	28.5
1551.26	28
1552.31	26
1553.36	26
1554.41	22.5
1555.46	30
1556.51	29
1557.56	26
1558.6	23
1559.65	30
1560.7	23.5
1561.75	26.5
1562.8	29
1563.84	24.5
1564.89	27
1565.94	26
1566.99	30.5
1568.03	28.5
1569.08	24.5
1570.13	28
1571.17	30.5
1572.22	27
1573.27	28.5
1574.31	29
1575.36	29.5
1576.4	26.5
1577.45	28
1578.5	26.5
1579.54	27
1580.59	28
1581.63	28
1582.68	27
1583.72	24.5
1584.76	31.5
1585.81	27
1586.85	26
1587.9	25.5
1588.94	28
1589.98	28
1591.03	26.5
1592.07	30
1593.11	27.5
1594.16	27.5
1595.2	25.5
1596.24	27
1597.29	28
1598.33	28.5
1599.37	31
1600.41	22.5
1601.45	28
1602.49	28
1603.54	29.5
1604.58	24
1605.62	24
1606.66	28
1607.7	25.5
1608.74	24.5
1609.78	27.5
1610.82	25
1611.86	25.5
1612.9	27
1613.94	28
1614.98	25
1616.02	27.5
1617.06	26.5
1618.1	26
1619.14	28
1620.18	26.5
1621.22	27
1622.25	23.5
1623.29	28
1624.33	24.5
1625.37	26
1626.41	30
1627.45	25
1628.48	25.5
1629.52	25
1630.56	22
1631.59	27
1632.63	25
1633.67	23
1634.7	26
1635.74	27
1636.78	22
1637.81	30
1638.85	28.5
1639.88	29.5
1640.92	26
1641.96	30
1642.99	28.5
1644.03	25
1645.06	26
1646.1	26
1647.13	22
1648.17	29
1649.2	23
1650.23	28
1651.27	26.5
1652.3	27
1653.33	24
1654.37	28.5
1655.4	27.5
1656.44	24.5
1657.47	28
1658.5	28.5
1659.53	26
1660.57	27
1661.6	26
1662.63	22
1663.66	28
1664.69	28.5
1665.73	29
1666.76	25.5
1667.79	25
1668.82	23.5
1669.85	23.5
1670.88	27
1671.91	29.5
1672.94	23.5
1673.97	28
1675.01	29.5
1676.03	26
1677.07	29.5
1678.1	27.5
1679.12	29.5
1680.15	26.5
1681.18	28.5
1682.21	26
1683.24	26.5
1684.27	25.5
1685.3	27.5
1686.33	26
1687.36	27
1688.38	28
1689.41	24
1690.44	24.5
1691.47	25
1692.5	29.5
1693.52	25
1694.55	25.5
1695.58	28.5
1696.6	27
1697.63	25
1698.66	26.5
1699.68	28.5
1700.71	25
1701.74	26.5
1702.76	26
1703.79	28
1704.81	22
1705.84	26.5
1706.86	30
1707.89	25.5
1708.91	26.5
1709.94	25.5
1710.96	26
1711.99	26
1713.01	28.5
1714.04	29
1715.06	24.5
1716.08	31
1717.11	25.5
1718.13	26.5
1719.16	22.5
1720.18	25
1721.2	27.5
1722.22	29
1723.25	26.5
1724.27	31
1725.29	29
1726.31	24
1727.34	27.5
1728.36	26
1729.38	28.5
1730.4	25
1731.42	26.5
1732.44	26.5
1733.47	30
1734.49	26
1735.51	26.5
1736.53	23.5
1737.55	24
1738.57	29.5
1739.59	28.5
1740.61	27
1741.63	27
1742.65	27
1743.67	26
1744.69	27.5
1745.71	28.5
1746.73	26.5
1747.75	24
1748.76	31
1749.78	25.5
1750.8	25.5
1751.82	27.5
1752.84	30.5
1753.86	24
1754.87	26
1755.89	26
1756.91	27
1757.93	22.5
1758.94	27.5
1759.96	26
1760.98	25
1761.99	24
1763.01	27.5
1764.03	28
1765.04	26.5
1766.06	22
1767.08	28
1768.09	30.5
1769.11	31
1770.12	25.5
1771.14	26.5
1772.15	22.5
1773.17	24.5
1774.18	25.5
1775.2	30.5
1776.21	26
1777.23	28
1778.24	28
1779.25	23.5
1780.27	30
1781.28	21.5
1782.3	21
1783.31	29
1784.32	29
1785.34	27
1786.35	24
1787.36	24.5
1788.37	28
1789.39	24.5
1790.4	24.5
1791.41	25.5
1792.42	27.5
1793.43	25
1794.45	26
1795.46	26
1796.47	26
1797.48	23
1798.49	27.5
1799.5	25
1800.51	21
1801.52	25
1802.53	21.5
1803.54	27.5
1804.55	25
1805.56	26
1806.57	27.5
1807.58	29
1808.59	24.5
1809.6	24
1810.61	25
1811.62	28.5
1812.63	26.5
1813.64	26
1814.65	24
1815.66	25
1816.66	24.5
1817.67	24
1818.68	22
1819.69	27.5
1820.69	27.5
1821.7	25
1822.71	28
1823.72	26
1824.72	28.5
1825.73	25
1826.74	24
1827.74	26.5
1828.75	23.5
1829.76	26
1830.76	25
1831.77	27
1832.77	29.5
1833.78	23.5
1834.79	19
1835.79	27.5
1836.8	29
1837.8	24.5
1838.81	21.5
1839.81	27
1840.81	24
1841.82	26.5
1842.82	25
1843.83	30
1844.83	28
1845.83	27.5
1846.84	27
1847.84	25
1848.84	28
1849.85	27.5
1850.85	25
1851.85	22.5
1852.86	21.5
1853.86	27
1854.86	28
1855.86	29.5
1856.86	23.5
1857.87	24
1858.87	28
1859.87	26
1860.87	25
1861.87	25.5
1862.87	30
1863.88	24
1864.88	26
1865.88	28
1866.88	27
1867.88	24.5
1868.88	22
1869.88	27
1870.88	29
1871.88	24
1872.88	27.5
1873.88	23
1874.87	25.5
1875.87	27
1876.87	26
1877.87	26.5
1878.87	26
1879.87	21
1880.87	26
1881.86	24.5
1882.86	25
1883.86	26
1884.86	28
1885.86	29
1886.85	22
1887.85	25
1888.85	25
1889.84	25
1890.84	24.5
1891.84	28
1892.83	29.5
1893.83	25.5
1894.83	27
1895.82	27.5
1896.82	28.5
1897.81	23.5
1898.81	26
1899.81	22.5
1900.8	29.5
1901.8	22.5
1902.79	24.5
1903.78	24.5
1904.78	28
1905.77	27
1906.77	25
1907.76	28
1908.76	27.5
1909.75	27.5
1910.74	24.5
1911.74	25.5
1912.73	26.5
1913.72	27.5
1914.72	26.5
1915.71	24
1916.7	25
1917.7	29.5
1918.69	26.5
1919.68	24
1920.67	23
1921.66	23.5
1922.66	25.5
1923.65	26
1924.64	26
1925.63	24
1926.62	27.5
1927.61	27.5
1928.6	29
1929.59	25
1930.59	26
1931.58	25
1932.57	24
1933.56	27
1934.55	28
1935.54	23.5
1936.53	25
1937.52	27
1938.51	24
1939.49	26
1940.48	23.5
1941.47	24.5
1942.46	26
1943.45	25.5
1944.44	26.5
1945.43	28
1946.42	26
1947.4	24.5
1948.39	25
1949.38	25.5
1950.37	26
1951.35	26
1952.34	28
1953.33	26.5
1954.31	27.5
1955.3	25
1956.29	24.5
1957.27	27.5
1958.26	28.5
1959.25	24
1960.23	26
1961.22	28.5
1962.21	29
1963.19	23
1964.18	28.5
1965.16	26
1966.15	22
1967.13	24.5
1968.12	26.5
1969.1	26.5
1970.09	27
1971.07	29.5
1972.05	28
1973.04	25.5
1974.02	22
1975.01	25.5
1975.99	23
1976.97	24
1977.96	24
1978.94	22.5
1979.92	28
1980.91	25
1981.89	25.5
1982.87	25
1983.85	26.5
1984.84	21
1985.82	25
1986.8	28
1987.78	25.5
1988.76	25.5
1989.74	24.5
1990.73	22
1991.71	26.5
1992.69	23
1993.67	24.5
1994.65	28.5
1995.63	25
1996.61	26.5
1997.59	24.5
1998.57	24
1999.55	24.5
2000.53	22.5
2001.51	29
2002.49	25
2003.47	29
2004.45	26
2005.43	25
2006.41	30.5
2007.39	25
2008.37	26.5
2009.34	24.5
2010.32	26.5
2011.3	27
2012.28	23.5
2013.26	23
2014.23	27.5
2015.21	29
2016.19	28.5
2017.17	24.5
2018.14	26
2019.12	28
2020.1	26
2021.07	24
2022.05	26
2023.03	26.5
2024	24
2024.98	23
2025.96	25.5
2026.93	23.5
2027.91	26.5
2028.88	25.5
2029.86	22.5
2030.83	25
2031.81	26
2032.78	24
2033.76	25.5
2034.73	26.5
2035.71	23.5
2036.68	26
2037.66	27.5
2038.63	21
2039.6	24
2040.58	24
2041.55	20
2042.52	25
2043.5	27
2044.47	27
2045.44	23.5
2046.42	24.5
2047.39	26
2048.36	22.5
2049.33	25
2050.31	20.5
2051.28	24.5
2052.25	24
2053.22	23
2054.19	23.5
2055.17	26.5
2056.14	25
2057.11	23.5
2058.08	22
2059.05	27
2060.02	22.5
2060.99	23.5
2061.96	29
2062.93	28.5
2063.9	24.5
2064.87	23
2065.84	23.5
2066.81	24
2067.78	25
2068.75	24.5
2069.72	25
2070.69	23
2071.66	25.5
2072.63	22
2073.6	23
2074.56	24
2075.53	25
2076.5	24.5
2077.47	25
2078.44	26.5
2079.4	28.5
2080.37	26.5
2081.34	18.5
2082.31	21.5
2083.27	25.5
2084.24	28
2085.21	23.5
2086.18	19.5
2087.14	25
2088.11	24.5
2089.07	25.5
2090.04	26
2091.01	27
2091.97	27
2092.94	23
2093.9	23.5
2094.87	25
2095.83	28.5
2096.8	23.5
2097.76	23
2098.73	24
2099.69	25
2100.66	27.5
2101.62	22
2102.59	24
2103.55	30
2104.52	25
2105.48	25
2106.44	26.5
2107.41	26
2108.37	19
2109.33	22
2110.3	24.5
2111.26	24
2112.22	23.5
2113.18	20.5
2114.15	20
2115.11	26
2116.07	25
2117.03	27
2118	26
2118.96	28
2119.92	24.5
2120.88	25.5
2121.84	23
2122.8	24
2123.76	22
2124.72	23.5
2125.68	23
2126.65	26
2127.61	26.5
2128.57	22
2129.53	23
2130.49	23.5
2131.45	24
2132.41	24.5
2133.36	25
2134.32	23.5
2135.28	21
2136.24	21
2137.2	25.5
2138.16	21.5
2139.12	24.5
2140.08	24
2141.04	20.5
2141.99	25.5
2142.95	24.495
2143.91	24.9582
2144.87	22.5816
2145.83	24.1574
2146.78	22.7086
2147.74	27.3913
2148.7	25.4369
2149.66	24.3861
2150.61	26.5917
2151.57	25.4061
2152.53	22.415
2153.48	23.8496
2154.44	21.8426
2155.4	25.5384
2156.35	24.8564
2157.31	22.9804
2158.26	24.5076
2159.22	23.2111
2160.17	25.5374
2161.13	23.2973
2162.08	20.5845
2163.04	21.7312
2163.99	26.4051
2164.95	25.3059
2165.9	24.0609
2166.86	27.3826
2167.81	22.0639
2168.77	23.5625
2169.72	24.2433
2170.67	27.3883
2171.63	23.4207
2172.58	23.6795
2173.54	22.9565
2174.49	21.0583
2175.44	25.1371
2176.39	21.944
2177.35	23.9674
2178.3	22.4851
2179.25	25.2954
2180.2	25.7393
2181.16	23.966
2182.11	24.8579
2183.06	22.9293
2184.01	24.2412
2184.96	22.8419
2185.92	24.3956
2186.87	23.345
2187.82	23.1314
2188.77	23.7226
2189.72	23.637
2190.67	21.5296
2191.62	23.2491
2192.57	20.9182
2193.52	22.9106
2194.47	22.2063
2195.42	24.0084
2196.37	21.7939
2197.32	21.3409
2198.27	22.1229
2199.22	21.983
2200.17	19.663
2201.12	22.1942
2202.07	22.1719
2203.02	22.8064
2203.97	22.2524
2204.92	23.2328
2205.87	24.6008
2206.81	22.5868
2207.76	24.2593
2208.71	22.3239
2209.66	21.4987
2210.61	20.6997
2211.55	23.6293
2212.5	20.5722
2213.45	22.787
2214.4	23.8343
2215.34	24.951
2216.29	23.7677
2217.24	23.9892
2218.18	23.4709
2219.13	24.199
2220.08	24.4547
2221.02	22.7701
2221.97	24.3505
2222.92	24.551
2223.86	25.448
2224.81	22.8237
2225.75	24.4707
2226.7	24.5492
2227.64	25
2228.59	20.8041
2229.53	22.5203
2230.48	26.1408
2231.42	24.937
2232.37	23.9653
2233.31	23.0472
2234.26	23.2287
2235.2	22.1613
2236.14	22.8648
2237.09	23
2238.03	25.9988
2238.97	25.5737
2239.92	23.362
2240.05	23
2241	24
2241.95	23.5
2242.89	24.5
2243.84	25.5
2244.79	22.5
2245.74	28
2246.68	25
2247.63	27.5
2248.58	21
2249.53	21
2250.47	21
2251.42	24
2252.36	25
2253.31	24.5
2254.26	25.5
2255.2	25.5
2256.15	22
2257.1	25
2258.04	22
2258.99	25
2259.93	24.5
2260.88	24
2261.82	21.5
2262.77	22
2263.71	21.5
2264.66	25
2265.6	20
2266.55	24.5
2267.49	22
2268.43	27.5
2269.38	20
2270.32	23
2271.26	27.5
2272.21	25.5
2273.15	25.5
2274.09	22
2275.04	26
2275.98	26
2276.92	24
2277.87	21
2278.81	22.5
2279.75	26.5
2280.69	22.5
2281.64	26.5
2282.58	22
2283.52	22
2284.46	23
2285.4	22.5
2286.34	24
2287.29	21.5
2288.23	25
2289.17	23
2290.11	22
2291.05	26
2291.99	23.5
2292.93	23
2293.87	20
2294.81	27.5
2295.75	21.5
2296.69	22.5
2297.63	22.5
2298.57	24.5
2299.51	25.5
2300.45	24.5
2301.39	24.5
2302.33	26
2303.27	26
2304.2	20
2305.14	26.5
2306.08	24
2307.02	22.5
2307.96	18
2308.9	25.5
2309.83	23.5
2310.77	23
2311.71	20
2312.65	23
2313.58	22.5
2314.52	25
2315.46	27
2316.39	24
2317.33	25.5
2318.27	23
2319.21	22.5
2320.14	20.5
2321.08	28.5
2322.01	21.5
2322.95	19
2323.89	24
2324.82	21.5
2325.76	22
2326.69	24.5
2327.63	24
2328.56	23
2329.5	22.5
2330.43	25
2331.37	20
2332.3	23.5
2333.24	21.5
2334.17	27.5
2335.1	23
2336.04	24
2336.97	23
2337.91	22
2338.84	22
2339.77	21.5
2340.71	22
2341.64	25
2342.57	22.5
2343.51	26.5
2344.44	27.5
2345.37	29
2346.3	23.5
2347.24	26.5
2348.17	25.5
2349.1	22
2350.03	21
2350.96	26
2351.89	20.5
2352.83	26
2353.76	22.5
2354.69	24
2355.62	21.5
2356.55	22
2357.48	27
2358.41	27
2359.34	22
2360.27	26
2361.2	22
2362.13	26.5
2363.06	25.5
2363.99	23
2364.92	21
2365.85	25
2366.78	25
2367.71	22
2368.64	21
2369.57	25
2370.5	23.5
2371.43	23.5
2372.36	28
2373.28	26.5
2374.21	21
2375.14	21.5
2376.07	24.5
2377	21
2377.93	24
2378.85	24.5
2379.78	25
2380.71	25
2381.63	24
2382.56	26.5
2383.49	24
2384.42	24
2385.34	25
2386.27	22
2387.2	26
2388.12	22.5
2389.05	26
2389.97	28
2390.9	24
2391.82	24
2392.75	22
2393.68	24
2394.6	25
2395.53	20.5
2396.45	25
2397.38	24.5
2398.3	25
2399.23	22
2400.15	25.5
2401.07	24.5
2402	26.5
2402.92	23
2403.85	25.5
2404.77	27.5
2405.69	23
2406.62	23
2407.54	19.5
2408.46	26
2409.39	23.5
2410.31	25.5
2411.23	24
2412.16	23.5
2413.08	24
2414	24.5
2414.92	25.5
2415.85	28
2416.77	24.5
2417.69	26
2418.61	26.5
2419.53	21.5
2420.45	25.5
2421.38	23.5
2422.3	25
2423.22	26
2424.14	24.5
2425.06	30
2425.98	28
2426.9	22.5
2427.82	24.5
2428.74	22.5
2429.66	24
2430.58	25
2431.5	19
2432.42	23.5
2433.34	25
2434.26	25
2435.18	21.5
2436.1	27
2437.02	25.5
2437.94	28
2438.85	25
2439.77	23.5
2440.69	22
2441.61	26.5
2442.53	22.5
2443.45	25
2444.36	24.5
2445.28	26
2446.2	23
2447.12	25
2448.03	22
2448.95	23
2449.87	28.5
2450.79	22
2451.7	24.5
2452.62	19
2453.54	28
2454.45	22
2455.37	27.5
2456.28	22
2457.2	24
2458.12	23
2459.03	27
2459.95	25
2460.86	27.5
2461.78	20
2462.69	26
2463.61	23.5
2464.52	24
2465.44	22
2466.35	20.5
2467.27	24
2468.18	29
2469.1	26.5
2470.01	23.5
2470.93	24.5
2471.84	28
2472.75	25
2473.67	24.5
2474.58	24
2475.49	26.5
2476.41	24.5
2477.32	25
2478.23	24
2479.15	23.5
2480.06	23
2480.97	23.5
2481.88	23.5
2482.79	27.5
2483.71	21
2484.62	21
2485.53	24.5
2486.44	25
2487.35	26
2488.26	25
2489.18	28
2490.09	21
2491	23
2491.91	27
2492.82	20.5
2493.73	22
2494.64	23.5
2495.55	19
2496.46	26.5
2497.37	24
2498.28	26.5
2499.19	24
2500.1	26
2501.01	21.5
2501.92	26.5
2502.83	26.5
2503.74	24.5
2504.65	25.5
2505.56	26
2506.47	27.5
2507.37	29
2508.28	21
2509.19	27
2510.1	28
2511.01	21.5
2511.92	27
2512.82	25.5
2513.73	22
2514.64	26
2515.55	23
2516.45	25
2517.36	22
2518.27	24
2519.17	24
2520.08	18.5
2520.99	22.5
2521.89	23
2522.8	28.5
2523.71	26
2524.61	24
2525.52	26.5
2526.42	29
2527.33	23
2528.24	25
2529.14	21.5
2530.05	24.5
2530.95	25
2531.86	27
2532.76	22.5
2533.67	24.5
2534.57	27
2535.48	28.5
2536.38	22.5
2537.28	26
2538.19	23.5
2539.09	22
2540	25
2540.9	25.5
2541.8	23
2542.71	26
2543.61	26.5
2544.51	26
2545.42	24.5
2546.32	25
2547.22	26
2548.12	24
2549.03	25.5
2549.93	24.5
2550.83	26.5
2551.73	22.5
2552.63	24.5
2553.54	24
2554.44	26
2555.34	25.5
2556.24	23.5
2557.14	25.5
2558.04	28.5
2558.94	23.5
2559.85	25.5
2560.75	23
2561.65	24
2562.55	26.5
2563.45	25
2564.35	21
2565.25	26
2566.15	26
2567.05	23.5
2567.95	26.5
2568.85	24
2569.75	25.5
2570.65	24
2571.55	25.5
2572.44	24.5
2573.34	28
2574.24	21
2575.14	24.5
2576.04	25.5
2576.94	26.5
2577.84	28.5
2578.73	31
2579.63	25.5
2580.53	23
2581.43	20.5
2582.33	28
2583.22	24
2584.12	25.5
2585.02	27.5
2585.91	23.5
2586.81	25
2587.71	22
2588.6	26
2589.5	21
2590.4	24.5
2591.29	22
2592.19	23.5
2593.09	26
2593.98	24.5
2594.88	25
2595.77	28
2596.67	27.5
2597.56	26
2598.46	25
2599.35	27.5
2600.25	25.5
2601.14	21
2602.04	24
2602.93	26
2603.83	25
2604.72	23
2605.62	27.5
2606.51	28.5
2607.4	25.5
2608.3	27
2609.19	20.5
2610.09	27.5
2610.98	27
2611.87	24.5
2612.76	25
2613.66	27
2614.55	26.5
2615.44	25.5
2616.34	26
2617.23	25
2618.12	23
2619.01	27.5
2619.9	22
2620.8	25.5
2621.69	26
2622.58	22.5
2623.47	25.5
2624.36	22.5
2625.25	26
2626.15	25
2627.04	23.5
2627.93	25.5
2628.82	26
2629.71	24.5
2630.6	26
2631.49	30
2632.38	26.5
2633.27	23
2634.16	26
2635.05	25.5
2635.94	19.5
2636.83	23
2637.72	25.5
2638.61	22
2639.5	22
2640.39	22
2641.28	25
2642.16	25
2643.05	25.5
2643.94	23.5
2644.83	27
2645.72	22
2646.61	25
2647.49	26
2648.38	23.5
2649.27	27
2650.16	25.5
2651.05	22.5
2651.93	23.5
2652.82	30.5
2653.71	25.5
2654.59	20.5
2655.48	25.5
2656.37	26.5
2657.25	29
2658.14	26
2659.03	26
2659.91	20
2660.8	27.5
2661.69	26
2662.57	24
2663.46	21
2664.34	25
2665.23	30
2666.11	23
2667	24
2667.88	24.5
2668.77	25.5
2669.65	24
2670.54	23.5
2671.42	26.5
2672.31	22.5
2673.19	27
2674.08	24
2674.96	23.5
2675.84	21.5
2676.73	26
2677.61	25
2678.49	27.5
2679.38	23
2680.26	24
2681.14	23.5
2682.03	26
2682.91	26.5
2683.79	22.5
2684.68	26
2685.56	26.5
2686.44	23.5
2687.32	28
2688.2	24.5
2689.09	22
2689.97	21.5
2690.85	25.5
2691.73	25
2692.61	21.5
2693.49	25
2694.38	24.5
2695.26	22.5
2696.14	26
2697.02	26
2697.9	23.5
2698.78	24.5
2699.66	27.5
2700.54	23.5
2701.42	28.5
2702.3	23
2703.18	26
2704.06	21.5
2704.94	26
2705.82	27
2706.7	23.5
2707.58	24
2708.46	22
2709.34	28.5
2710.21	28
2711.09	25.5
2711.97	25
2712.85	21.5
2713.73	27
2714.61	20.5
2715.49	25
2716.36	25
2717.24	25
2718.12	22.5
2719	26
2719.87	27
2720.75	26
2721.63	20
2722.51	25
2723.38	25.5
2724.26	21.5
2725.14	24.5
2726.01	28
2726.89	26.5
2727.77	26.5
2728.64	26
2729.52	21.5
2730.39	24.5
2731.27	24
2732.15	23
2733.02	25.5
2733.9	26
2734.77	20.5
2735.65	27.5
2736.52	23.5
2737.4	25
2738.27	23.5
2739.15	24.5
2740.02	22
2740.89	24.5
2741.77	21
2742.64	27
2743.52	27
2744.39	26
2745.27	22
2746.14	24.5
2747.01	22.5
2747.89	26.5
2748.76	23.5
2749.63	24
2750.51	24
2751.38	25
2752.25	27
2753.12	27.5
2754	25
2754.87	26.5
2755.74	21.5
2756.61	28.5
2757.48	22
2758.36	23
2759.23	25
2760.1	27.5
2760.97	22.5
2761.84	23.5
2762.71	26
2763.59	24.5
2764.46	23.5
2765.33	25
2766.2	23
2767.07	22
2767.94	23
2768.81	22
2769.68	22
2770.55	23
2771.42	23
2772.29	27
2773.16	24.5
2774.03	24
2774.9	22.5
2775.77	28
2776.64	26.5
2777.51	27.5
2778.37	25.5
2779.24	24.5
2780.11	22
2780.98	25.5
2781.85	24
2782.72	24.5
2783.59	26
2784.45	26
2785.32	26.5
2786.19	22.5
2787.06	27.5
2787.92	26.5
2788.79	28.5
2789.66	26.5
2790.53	29
2791.39	22
2792.26	27
2793.13	25.5
2793.99	27.5
2794.86	29
2795.73	27.5
2796.59	28
2797.46	24
2798.33	24.5
2799.19	24.5
2800.06	29
2800.92	29.25
2801.79	29.5
2802.65	29
2803.52	24
2804.39	26
2805.25	27.5
2806.11	29.5
2806.98	26.5
2807.84	30
2808.71	25.5
2809.57	33
2810.44	28.5
2811.3	27
2812.17	26
2813.03	32
2813.89	28.5
2814.76	27
2815.62	26
2816.49	27
2817.35	25
2818.21	30.5
2819.07	30.5
2819.94	26.5
2820.8	27.5
2821.66	26
2822.53	30
2823.39	25.5
2824.25	29.5
2825.11	23.5
2825.97	26
2826.84	23.5
2827.7	24.5
2828.56	25
2829.42	27
2830.28	24.5
2831.14	27
2832.01	26
2832.87	24.5
2833.73	28
2834.59	22
2835.45	25.5
2836.31	24
2837.17	26
2838.03	25
2838.89	28
2839.75	28
2840.61	27
2841.47	27
2842.33	26.5
2843.19	27
2844.05	26.5
2844.91	23.5
2845.77	21
2846.63	29
2847.48	22.5
2848.34	26.5
2849.2	23
2850.06	28.5
2850.92	24.5
2851.78	29.5
2852.64	25.5
2853.49	28
2854.35	28
2855.21	26.5
2856.07	21.5
2856.93	28.5
2857.78	26.5
2858.64	29.5
2859.5	30
2860.35	23.5
2861.21	27.5
2862.07	27.5
2862.93	29
2863.78	25
2864.64	29
2865.49	28.5
2866.35	30
2867.21	27.5
2868.06	29
2868.92	26
2869.77	28
2870.63	29.5
2871.49	30.5
2872.34	29
2873.2	31.5
2874.05	29.5
2874.91	27.5
2875.76	29
2876.62	30.5
2877.47	31.5
2878.32	28.5
2879.18	26.5
2880.03	34
2880.89	31.5
2881.74	32
2882.6	31.5
2883.45	33
2884.3	32
2885.16	34
2886.01	37
2886.86	35.5
2887.72	29
2888.57	37
2889.42	35
2890.27	40
2891.13	40.5
2891.98	43
2892.83	42
2893.68	41
2894.54	48
2895.39	50.5
2896.24	48
2897.09	53
2897.94	53
2898.8	53
2899.65	54
2900.5	64
2901.35	63.5
2902.2	65
2903.05	70
2903.9	71.5
2904.75	67
2905.6	66
2906.45	73
2907.3	61
2908.15	74
2909.01	72
2909.85	65
2910.7	58
2911.55	55.5
2912.4	52.5
2913.25	53.5
2914.1	54.5
2914.95	52
2915.8	38
2916.65	48.5
2917.5	40
2918.35	40.5
2919.2	37
2920.04	37
2920.89	31.5
2921.74	35.5
2922.59	38
2923.44	36.5
2924.29	35.5
2925.13	33.5
2925.98	29.5
2926.83	30.5
2927.68	32
2928.52	32
2929.37	30
2930.22	31
2931.06	29.5
2931.91	30.5
2932.76	30.5
2933.6	31
2934.45	29.5
2935.3	30.5
2936.14	24.5
2936.99	32.5
2937.83	27.5
2938.68	25
2939.53	32
2940.37	26
2941.22	28.5
2942.06	26
2942.91	26.5
2943.75	28
2944.6	28
2945.44	30.5
2946.29	29
2947.13	29.5
2947.98	28
2948.82	31.5
2949.66	31
2950.51	31.5
2951.35	30.5
2952.2	32.5
2953.04	28.5
2953.88	33
2954.73	35.5
2955.57	32
2956.41	34
2957.26	35
2958.1	38.5
2958.94	38
2959.79	37.5
2960.63	39
2961.47	42.5
2962.31	40
2963.15	46
2964	46.5
2964.84	42
2965.68	42.5
2966.52	45.5
2967.37	43.5
2968.21	40.5
2969.05	42.5
2969.89	43.5
2970.73	40.5
2971.57	38.9927
2972.41	37.4143
2973.25	37.4841
2974.09	38.059
2974.93	36.3424
2975.77	36.0238
2976.62	32.76
2977.46	32.6815
2978.3	36.0547
2979.14	30.8471
2979.98	28.1895
2980.81	30.413
2981.65	29.8556
2982.49	29.5552
2983.33	30.2528
2984.17	25.8889
2985.01	31.0715
2985.85	27.1973
2986.69	25.8497
2987.53	23.9896
2988.37	26.1235
2989.21	26.8327
2990.04	27.5426
2990.88	28.0798
2991.72	24.9589
2992.56	28.2073
2993.4	24.5321
2994.23	23.276
2995.07	23.7767
2995.91	28.7502
2996.75	25.203
2997.58	23.5433
2998.42	22.5764
2999.26	24.7086
3000.1	25.551
3000.93	23.4822
3001.77	23.8642
3002.61	24.1355
3003.44	22.464
3004.28	24.4323
3005.11	23.2665
3005.95	23.9502
3006.79	25.7332
3007.62	26.3101
3008.46	22.6865
3009.29	26.971
3010.13	23.4045
3010.97	24.3826
3011.8	24.4188
3012.64	23.2015
3013.47	23.3837
3014.31	23.2018
3015.14	25.1914
3015.98	22.7795
3016.81	21.9909
3017.64	25.6273
3018.48	23.5685
3019.31	22.1802
3020.15	22.304
3020.98	21.134
3021.82	21.8654
3022.65	21.8424
3023.48	24.4741
3024.32	23.3463
3025.15	22.809
3025.98	24.3265
3026.82	22.2941
3027.65	23.2824
3028.48	24.4827
3029.31	23.3047
3030.15	23.7898
3030.98	22.0189
3031.81	22.1107
3032.64	21.945
3033.48	22.5964
3034.31	24.0802
3035.14	24.1203
3035.97	23.8776
3036.8	22.5193
3037.64	22.8261
3038.47	21.2348
3039.3	22.0677
3040.13	24.064
3040.96	22.6095
3041.79	23.2285
3042.62	24.7075
3043.45	24.1317
3044.28	24.0267
3045.12	23.5704
3045.95	24.0657
3046.78	24.5021
3047.61	22.4605
3048.44	20.9425
3049.27	22.6322
3050.1	23.0993
3050.92	22.3709
3051.75	23.7603
3052.58	21.7122
3053.41	22.2167
3054.24	24.1011
3055.07	23.2993
3055.9	25.449
3056.73	24.5977
3057.26	23
3058.09	25
3058.93	23
3059.76	20
3060.59	26.5
3061.43	26
3062.26	22
3063.09	23.5
3063.92	21.5
3064.76	25
3065.59	23
3066.42	23.5
3067.25	24
3068.08	26
3068.92	21.5
3069.75	24
3070.58	25.5
3071.41	22
3072.24	22
3073.07	22.5
3073.9	22
3074.73	22
3075.57	24
3076.4	22.5
3077.23	23.5
3078.06	21.5
3078.89	26
3079.72	24.5
3080.55	27
3081.38	24
3082.21	26.5
3083.04	24.5
3083.87	25
3084.7	25
3085.53	23
3086.36	24.5
3087.19	27
3088.01	24.5
3088.84	25
3089.67	24.5
3090.5	21
3091.33	20.5
3092.16	20.5
3092.99	24.5
3093.81	20
3094.64	24.5
3095.47	22
3096.3	25
3097.13	23.5
3097.95	22.5
3098.78	22
3099.61	23.5
3100.44	20.5
3101.26	22
3102.09	21.5
3102.92	22
3103.74	27.5
3104.57	23
3105.4	20.5
3106.22	26
3107.05	22.5
3107.88	22
3108.7	21.5
3109.53	22
3110.35	23
3111.18	24
3112.01	21
3112.83	24
3113.66	25
3114.48	21
3115.31	25
3116.13	20.5
3116.96	19.5
3117.78	23
3118.61	21.5
3119.43	26.5
3120.26	25
3121.08	20.5
3121.9	23.5
3122.73	26.5
3123.55	24
3124.38	20
3125.2	27.5
3126.02	23.5
3126.85	26.5
3127.67	23.5
3128.49	23
3129.32	22.5
3130.14	23.5
3130.96	25
3131.79	26
3132.61	24.5
3133.43	22.5
3134.25	23
3135.08	23.5
3135.9	20.5
3136.72	24
3137.54	22
3138.37	28.5
3139.19	25
3140.01	26.5
3140.83	22
3141.65	27.5
3142.47	26.5
3143.29	23
3144.12	22
3144.94	23
3145.76	24
3146.58	21
3147.4	24
3148.22	25.5
3149.04	25.5
3149.86	23
3150.68	25
3151.5	25
3152.32	22
3153.14	23.5
3153.96	21.5
3154.78	22.5
3155.6	25
3156.42	27.5
3157.24	23.5
3158.06	26
3158.88	25.5
3159.7	23
3160.51	25.5
3161.33	23
3162.15	24
3162.97	18.5
3163.79	25
3164.61	23.5
3165.42	23.5
3166.24	24.5
3167.06	26.5
3167.88	23.5
3168.7	23
3169.51	23
3170.33	24
3171.15	21.5
3171.97	28.5
3172.78	22.5
3173.6	23
3174.42	22.5
3175.23	23
3176.05	22
3176.87	23
3177.68	25
3178.5	24
3179.32	23.5
3180.13	24.5
3180.95	20
3181.76	22
3182.58	26.5
3183.4	23.5
3184.21	19
3185.03	26
3185.84	22
3186.66	22
3187.47	22
3188.29	25
3189.1	22.5
3189.92	24.5
3190.73	25.5
3191.55	23
3192.36	25.5
3193.17	21.5
3193.99	22
3194.8	24.5
3195.62	26
3196.43	26
3197.24	22.5
3198.06	26.5
3198.87	23.5
3199.68	23
3200.5	20
3201.31	26.5
3202.12	20.5
3202.94	22.5
3203.75	22
3204.56	20
3205.38	20.5
3206.19	24.5
3207	24
3207.81	27
3208.62	24.5
3209.44	24
3210.25	24.5
3211.06	28.5
3211.87	22.5
3212.68	23
3213.49	24
3214.31	25.5
3215.12	25.5
3215.93	26
3216.74	23.5
3217.55	24
3218.36	24
3219.17	24
3219.98	20
3220.79	24.5
3221.6	24.5
3222.41	26
3223.22	22
3224.03	25.5
3224.84	26
3225.65	26
3226.46	23.5
3227.27	21
3228.08	21
3228.89	21.5
3229.7	28
3230.51	23
3231.32	24.5
3232.13	27
3232.94	21.5
3233.74	28.5
3234.55	22
3235.36	24
3236.17	21
3236.98	23
3237.78	25
3238.59	19
3239.4	24.5
3240.21	28
3241.02	19.5
3241.82	26
3242.63	23
3243.44	26
3244.25	23.5
3245.05	23
3245.86	23
3246.67	25.5
3247.47	26
3248.28	23
3249.09	23
3249.89	21
3250.7	24.5
3251.5	23
3252.31	27.5
3253.12	28
3253.92	23
3254.73	22.5
3255.53	21
3256.34	23.5
3257.14	26.5
3257.95	26
3258.75	19
3259.56	25.5
3260.36	21
3261.17	27.5
3261.97	24.5
3262.78	24
3263.58	22.5
3264.39	24
3265.19	27.5
3265.99	24
3266.8	27
3267.6	23
3268.41	27
3269.21	26
3270.01	21.5
3270.82	26
3271.62	24
3272.42	21
3273.23	21.5
3274.03	23
3274.83	22
3275.64	23
3276.44	21
3277.24	26.5
3278.04	22
3278.85	28
3279.65	25
3280.45	25.5
3281.25	20
3282.05	24
3282.85	27
3283.66	20
3284.46	24
3285.26	22.5
3286.06	23
3286.86	27.5
3287.66	22.5
3288.46	29
3289.27	20
3290.07	24
3290.87	22.5
3291.67	20.5
3292.47	20.5
3293.27	26
3294.07	22.5
3294.87	26
3295.67	24
3296.47	25.5
3297.27	24.5
3298.07	23
3298.87	24
3299.67	25.5
3300.47	23
3301.26	21
3302.06	22
3302.86	27.5
3303.66	22
3304.46	25.5
3305.26	26.5
3306.06	22.5
3306.86	24.5
3307.65	26.5
3308.45	27.5
3309.25	24
3310.05	26.5
3310.85	24
3311.64	25
3312.44	25
3313.24	23.5
3314.04	26.5
3314.83	21.5
3315.63	23.5
3316.43	25
3317.22	27.5
3318.02	20.5
3318.82	26
3319.62	25.5
3320.41	26
3321.21	22.5
3322	20
3322.8	29
3323.6	22
3324.39	25
3325.19	24.5
3325.98	25
3326.78	26
3327.58	24
3328.37	23.5
3329.17	27
3329.96	19
3330.76	27.5
3331.55	20
3332.35	27
3333.14	25
3333.94	25.5
3334.73	25
3335.52	22.5
3336.32	21
3337.11	25.5
3337.91	24.5
3338.7	20.5
3339.5	25
3340.29	23.5
3341.08	28.5
3341.88	21
3342.67	27
3343.46	23.5
3344.26	23.5
3345.05	20
3345.84	25
3346.63	22.5
3347.43	23.5
3348.22	25
3349.01	26.5
3349.8	23
3350.6	22
3351.39	20.5
3352.18	24
3352.97	24
3353.77	25
3354.56	23
3355.35	22
3356.14	25.5
3356.93	26
3357.72	23
3358.51	26
3359.31	27
3360.1	23
3360.89	23
3361.68	28.5
3362.47	25
3363.26	20
3364.05	24
3364.84	22
3365.63	26
3366.42	26.5
3367.21	28.5
3368	23
3368.79	25.5
3369.58	26
3370.37	21.5
3371.16	22.5
3371.95	24
3372.74	26
3373.53	24.5
3374.32	26.5
3375.1	25
3375.89	25.5
3376.68	28.5
3377.47	22
3378.26	30
3379.05	25.5
3379.84	25
3380.62	23.5
3381.41	22
3382.2	25
3382.99	23.5
3383.78	27
3384.56	24
3385.35	28
3386.14	22
3386.93	23.5
3387.71	21.5
3388.5	21
3389.29	25.5
3390.07	19
3390.86	27
3391.65	21
3392.43	25.5
3393.22	23
3394.01	29
3394.79	24.5
3395.58	25.5
3396.36	22.5
3397.15	22
3397.94	22.5
3398.72	24
3399.51	23
3400.29	20.5
3401.08	24
3401.86	24
3402.65	20.5
3403.43	22.5
3404.22	22
3405	23
3405.79	24.5
3406.57	23.5
3407.36	29.5
3408.14	22
3408.93	31
3409.71	22.5
3410.49	23.5
3411.28	22.5
3412.06	25
3412.84	21.5
3413.63	24.5
3414.41	23
3415.2	25
3415.98	24
3416.76	26.5
3417.54	24
3418.33	23
3419.11	25.5
3419.89	23
3420.68	23
3421.46	19
3422.24	24.5
3423.02	25.5
3423.81	22
3424.59	26.5
3425.37	18.5
3426.15	22
3426.93	24
3427.71	26.5
3428.5	24
3429.28	25
3430.06	26.5
3430.84	24
3431.62	23.5
3432.4	25.5
3433.18	22
3433.96	23.5
3434.75	23
3435.53	23.5
3436.31	28.5
3437.09	25
3437.87	22
3438.65	25
3439.43	20
3440.21	23.5
3440.99	25
3441.77	25.5
3442.55	24.5
3443.33	24
3444.1	21.5
3444.88	26
3445.66	27
3446.44	28.5
3447.22	23.5
3448	22.5
3448.78	21.5
3449.56	25
3450.34	21.5
3451.11	24
3451.89	22.5
3452.67	24
3453.45	25.5
3454.23	23
3455	25.5
3455.78	20
3456.56	23
3457.34	21.5
3458.11	23.5
3458.89	25
3459.67	23.5
3460.45	26
3461.22	19.5
3462	20
3462.78	26
3463.55	26.5
3464.33	24.5
3465.11	26
3465.88	22
3466.66	23.5
3467.44	26
3468.21	22
3468.99	20
3469.76	26
3470.54	26
3471.32	24
3472.09	22
3472.87	27
3473.64	22.5
3474.42	25.5
3475.19	21
3475.97	24.5
3476.74	23
3477.52	22
3478.29	24.5
3479.07	29
3479.84	22.5
3480.61	21.5
3481.39	24
3482.16	23
3482.94	20
3483.71	23.5
3484.48	21
3485.26	23.5
3486.03	23
3486.81	22
3487.58	26.5
3488.35	28
3489.13	21.5
3489.9	22.5
3490.67	22
3491.44	25.5
3492.22	22
3492.99	27
3493.76	23.5
3494.54	25.5
3495.31	26
3496.08	24
3496.85	23.5
3497.62	21
3498.4	26.5
3499.17	23
3499.94	25
