#Acq. time (s)=	3
#Accumulations=	3
#Range (cm-¹)=	100...3000
#Windows=	3
#Autofocus=	Off
#AutoExposure=	Off
#Spike filter=	Multiple accum.
#Delay time (s)=	0
#Binning=	1
#Readout mode=	Signal
#DeNoise=	Off
#ICS correction=	Off
#Dark correction=	Off
#Inst. Process=	Off
#Instrument=	LabRAM HR Evol
#Detector=	Syncerity OE
#Objective=	x100_VIS_LWD
#Grating=	600 (500nm)
#ND Filter=	25%
#Laser=	633nm_Edge
#Hole=	100.021
#Range=	Visible
#Project=	Bolus
#Sample=	A1
#Site=	stripside
#Title=	m10
#Remark=	
#Date=	03.11.2025 18:45
#Acquired=	03.11.2025 18:45:51
100.969	25
102.252	39
103.535	36
104.818	36
106.101	26
107.384	35
108.666	32
109.948	29
111.232	30
112.514	34
113.795	35
115.077	28
116.358	30
117.639	31
118.919	26
120.2	34
121.48	32
122.76	32
124.04	35
125.32	33
126.599	37
127.879	32
129.158	30
130.436	33
131.715	26
132.992	40
134.27	34
135.548	37
136.826	32
138.104	33
139.381	30
140.658	36
141.935	36
143.212	34
144.489	39
145.763	38
147.04	42
148.315	32
149.591	40
150.867	36
152.142	40
153.416	38
154.691	40
155.965	37
157.24	42
158.514	38
159.786	40
161.06	35
162.334	43
163.607	42
164.881	40
166.152	41
167.425	45
168.698	37
169.969	39
171.241	37
172.513	44
173.785	40
175.055	34
176.326	46
177.597	41
178.867	44
180.137	38
181.408	40
182.677	40
183.947	38
185.217	42
186.485	42
187.755	42
189.022	39
190.291	34
191.56	38
192.828	34
194.096	45
195.363	40
196.631	40
197.899	40
199.165	32
200.432	30
201.698	38
202.965	38
204.23	36
205.497	37
206.762	36
208.028	38
209.293	37
210.559	38
211.823	37
213.088	34
214.352	34
215.617	33
216.88	30
218.145	32
219.408	32
220.672	36
221.934	38
223.196	39
224.46	30
225.722	34
226.985	34
228.246	31
229.508	33
230.77	30
232.031	35
233.292	32
234.554	35
235.814	34
237.074	30
238.335	34
239.595	30
240.854	30
242.115	30
243.374	32
244.633	28
245.893	32
247.151	32
248.409	30
249.667	28
250.927	30
252.184	34
253.442	36
254.699	34
255.957	24
257.214	33
258.47	26
259.727	33
260.983	32
262.24	27
263.496	32
264.752	30
266.007	28
267.262	35
268.517	34
269.773	29
271.028	30
272.282	32
273.536	31
274.79	25
276.044	35
277.297	32
278.551	28
279.804	30
281.057	28
282.31	31
283.564	22
284.816	30
286.068	28
287.32	32
288.572	30
289.823	32
291.074	32
292.325	31
293.576	31
294.827	26
296.077	33
297.328	30
298.578	33
299.828	26
301.077	32
302.325	29
303.575	30
304.824	33
306.073	28
307.321	33
308.57	26
309.818	33
311.066	37
312.314	31
313.562	30
314.808	31
316.055	33
317.302	32
318.549	34
319.796	35
321.042	34
322.288	29
323.533	30
324.779	30
326.024	32
327.27	29
328.515	24
329.759	30
331.004	33
332.248	33
333.493	28
334.736	35
335.98	32
337.223	30
338.466	30
339.709	34
340.952	28
342.195	32
343.437	32
344.68	32
345.922	28
347.163	30
348.405	30
349.647	33
350.887	32
352.128	32
353.37	34
354.609	34
355.85	34
357.089	26
358.33	28
359.57	34
360.809	34
362.049	24
363.287	28
364.526	32
365.764	32
367.003	34
368.241	32
369.479	28
370.718	32
371.955	26
373.193	32
374.429	34
375.667	29
376.903	30
378.139	32
379.376	32
380.611	32
381.848	28
383.083	28
384.319	30
385.554	32
386.79	29
388.024	24
389.258	32
390.493	30
391.727	28
392.962	36
394.195	30
395.428	33
396.663	26
397.895	34
399.128	31
400.361	31
401.593	29
402.825	33
404.058	28
405.29	31
406.521	30
407.752	30
408.985	28
410.215	32
411.446	27
412.678	28
413.908	28
415.138	30
416.367	32
417.597	26
418.828	30
420.057	27
421.286	27
422.514	32
423.743	26
424.973	29
426.201	30
427.429	26
428.657	33
429.884	22
431.112	33
432.34	34
433.567	32
434.794	35
436.02	28
437.247	22
438.473	29
439.699	33
440.925	34
442.15	29
443.376	31
444.601	30
445.826	29
447.051	32
448.275	30
449.5	32
450.724	30
451.948	30
453.172	29
454.396	28
455.619	27
456.842	24
458.065	34
459.288	35
460.511	29
461.733	28
462.956	31
464.178	31
465.4	31
466.621	35
467.843	38
469.064	36
470.285	36
471.505	32
472.726	31
473.946	34
475.166	33
476.387	37
477.606	41
478.825	40
480.044	39
481.264	41
482.483	46
483.702	47
484.921	52
486.138	52
487.356	55
488.574	55
489.792	56
491.009	50
492.226	47
493.444	50
494.661	49
495.877	53
497.094	50
498.31	48
499.525	39
500.741	28
501.958	40
503.172	42
504.388	38
505.603	36
506.817	44
508.032	40
509.247	30
510.46	39
511.675	38
512.888	37
514.102	34
515.316	35
516.528	32
517.742	30
518.954	34
520.167	35
521.378	32
522.591	34
523.802	28
525.015	36
526.226	28
527.438	34
528.648	31
529.86	33
531.07	30
532.281	35
533.491	27
534.702	34
535.911	24
537.121	30
538.33	36
539.54	33
540.749	34
541.957	32
543.167	26
544.375	33
545.584	30
546.791	34
547.999	32
549.207	30
550.414	34
551.621	30
552.829	29
554.035	32
555.241	30
556.449	33
557.655	32
558.86	28
560.066	34
561.272	30
562.477	38
563.682	35
564.888	35
566.093	28
567.297	33
568.501	24
569.705	33
570.91	30
572.114	33
573.317	30
574.52	28
575.723	30
576.927	30
578.13	35
579.332	32
580.535	34
581.737	29
582.938	30
584.14	29
585.343	27
586.544	34
587.745	30
588.946	36
590.147	29
591.347	32
592.548	26
593.748	28
594.948	32
596.147	31
597.347	35
598.546	29
599.745	30
600.944	32
602.143	30
603.342	32
604.54	33
605.738	29
606.937	30
608.134	26
609.332	26
610.529	31
611.727	28
612.924	28
614.121	32
615.317	28
616.513	32
617.709	32
618.905	30
620.101	30
621.297	33
622.492	31
623.688	35
624.883	30
626.077	30
627.271	30
628.466	32
629.66	31
630.855	31
632.047	31
633.241	31
634.435	32
635.629	26
636.82	29
638.014	28
639.207	34
640.399	29
641.59	32
642.783	33
643.975	31
645.166	26
646.357	31
647.549	32
648.741	37
649.93	31
651.122	30
652.311	30
653.502	27
654.692	24
655.881	29
657.071	32
658.261	24
659.45	32
660.639	34
661.827	24
663.016	36
664.204	36
665.393	31
666.581	28
667.769	33
668.957	32
670.143	31
671.331	32
672.518	34
673.705	37
674.891	26
676.078	31
677.264	34
678.451	29
679.636	34
680.821	33
682.007	31
683.192	30
684.378	37
685.562	33
686.747	34
687.931	33
689.115	38
690.3	34
691.483	34
692.666	34
693.851	38
695.034	36
696.216	43
697.4	36
698.582	36
699.764	40
700.948	30
702.129	37
703.311	34
704.493	38
705.674	42
706.855	40
708.036	42
709.218	51
710.399	47
711.579	42
712.759	45
713.939	47
715.12	41
716.299	41
717.478	37
718.657	32
719.836	33
721.015	34
722.195	29
723.373	37
724.552	29
725.729	34
726.907	32
728.085	31
729.262	29
730.44	35
731.617	31
732.795	32
733.972	28
735.148	33
736.324	33
737.501	32
738.677	32
739.852	27
741.028	32
742.203	28
743.379	32
744.554	27
745.729	28
746.903	24
748.078	33
749.252	30
750.426	33
751.599	31
752.772	31
753.946	32
755.119	32
756.293	28
757.466	32
758.639	28
759.811	29
760.984	33
762.155	28
763.327	25
764.499	28
765.67	32
766.842	33
768.013	32
769.183	26
770.354	31
771.525	30
772.696	30
773.865	28
775.035	30
776.205	31
777.375	32
778.544	28
779.713	38
780.882	32
782.052	31
783.219	29
784.388	29
785.557	32
786.724	34
787.892	34
789.06	37
790.227	34
791.395	35
792.562	39
793.728	35
794.895	36
796.061	28
797.228	34
798.395	32
799.56	29
800.726	35
801.891	29
803.057	30
804.221	26
805.387	32
806.551	29
807.716	32
808.879	36
810.044	31
811.208	33
812.372	36
813.535	32
814.699	28
815.862	30
817.025	31
818.188	32
819.351	28
820.513	32
821.675	30
822.837	28
823.999	34
825.161	32
826.322	32
827.483	30
828.645	30
829.805	29
830.966	32
832.127	30
833.287	25
834.447	28
835.607	28
836.767	31
837.926	28
839.085	28
840.245	29
841.404	32
842.562	26
843.72	29
844.88	33
846.038	37
847.195	31
848.353	31
849.512	33
850.669	32
851.826	31
852.983	31
854.139	32
855.296	35
856.453	32
857.609	31
858.765	29
859.921	28
861.077	33
862.232	32
863.387	33
864.542	28
865.697	28
866.852	31
868.008	28
869.162	30
870.316	29
871.47	29
872.624	30
873.778	26
874.931	34
876.084	30
877.237	32
878.39	28
879.543	26
880.695	33
881.846	30
882.999	27
884.151	29
885.302	26
886.454	32
887.606	24
888.757	28
889.908	32
891.059	29
892.21	31
893.359	32
894.509	29
895.659	35
896.81	30
897.959	28
899.109	32
900.257	30
901.407	37
902.556	29
903.705	32
904.854	34
906.001	32
907.149	28
908.298	31
909.446	22
910.592	30
911.74	31
912.888	32
914.034	24
915.181	28
916.328	28
917.473	30
918.62	29
919.766	32
920.911	32
922.058	32
923.204	29
924.348	32
925.494	31
926.638	29
927.783	29
928.928	25
930.072	24
931.216	27
932.36	30
933.504	26
934.647	34
935.791	31
936.933	22
938.077	25
939.219	29
940.363	29
941.504	32
942.647	27
943.789	30
944.932	28
946.073	28
947.215	24
948.356	26
949.498	32
950.638	30
951.778	32
952.92	28
954.06	28
955.199	26
956.34	31
957.479	20
958.62	30
959.759	33
960.898	26
962.038	28
963.176	28
964.315	24
965.453	27
966.592	32
967.73	26
968.867	28
970.006	29
971.144	29
972.281	28
973.418	28
974.554	29
975.692	31
976.829	25
977.965	26
979.101	31
980.237	30
981.374	27
982.509	32
983.645	31
984.78	29
985.915	32
987.05	22
988.184	28
989.319	24
990.453	29
991.589	22
992.722	35
993.856	22
994.99	29
996.123	28
997.257	36
998.39	26
999.523	30
1000.66	32
1001.79	32
1002.92	28
1004.05	28
1005.18	26
1006.32	30
1007.45	28
1008.58	32
1009.71	29
1010.84	26
1011.97	32
1013.1	31
1014.23	29
1015.36	29
1016.49	29
1017.62	28
1018.75	31
1019.88	30
1021.01	30
1022.14	28
1023.27	26
1024.4	32
1025.53	29
1026.66	24
1027.79	28
1028.91	30
1030.04	28
1031.17	32
1032.3	28
1033.42	24
1034.55	31
1035.68	28
1036.81	28
1037.93	31
1039.06	30
1040.18	29
1041.31	29
1042.44	25
1043.56	24
1044.69	25
1045.81	30
1046.94	28
1048.06	29
1049.19	25
1050.31	26
1051.44	32
1052.56	24
1053.69	30
1054.81	30
1055.93	28
1057.06	29
1058.18	31
1059.3	29
1060.43	28
1061.55	27
1062.67	32
1063.79	24
1064.92	29
1066.04	36
1067.16	34
1068.28	28
1069.4	27
1070.52	26
1071.65	26
1072.77	30
1073.89	29
1075.01	27
1076.13	30
1077.25	30
1078.37	32
1079.49	27
1080.61	33
1081.73	29
1082.85	30
1083.97	29
1085.09	28
1086.2	30
1087.32	27
1088.44	28
1089.56	22
1090.68	31
1091.8	30
1092.91	26
1094.03	35
1095.15	27
1096.26	22
1097.38	34
1098.5	28
1099.61	26
1100.73	27
1101.85	27
1102.96	32
1104.08	24
1105.19	24
1106.31	29
1107.43	29
1108.54	33
1109.66	30
1110.77	34
1111.88	28
1113	27
1114.11	28
1115.23	28
1116.34	32
1117.46	26
1118.57	28
1119.68	28
1120.8	29
1121.91	27
1123.02	28
1124.13	29
1125.25	24
1126.36	26
1127.47	28
1128.58	32
1129.69	30
1130.8	29
1131.92	27
1133.03	25
1134.14	24
1135.25	30
1136.36	25
1137.47	27
1138.58	26
1139.69	26
1140.8	29
1141.91	29
1143.02	29
1144.13	27
1145.24	26
1146.35	28
1147.46	25
1148.56	29
1149.67	26
1150.78	20
1151.89	28
1153	31
1154.1	29
1155.21	30
1156.32	32
1157.43	30
1158.53	24
1159.64	24
1160.75	28
1161.85	27
1162.96	28
1164.07	29
1165.17	31
1166.28	28
1167.38	29
1168.49	29
1169.59	24
1170.7	26
1171.8	31
1172.91	27
1174.01	26
1175.12	32
1176.22	26
1177.32	28
1178.43	25
1179.53	32
1180.64	24
1181.74	26
1182.84	28
1183.94	25
1185.05	29
1186.15	30
1187.25	34
1188.35	22
1189.46	24
1190.56	27
1191.66	24
1192.76	26
1193.86	30
1194.96	28
1196.06	29.9951
1197.16	26.9796
1198.26	25.9402
1199.37	28.8665
1200.47	23.2537
1201.57	25.1177
1202.67	26.9468
1203.77	27.8424
1204.86	26.8828
1205.96	30.6275
1207.06	25.367
1208.16	29.8251
1209.26	27.9402
1210.36	31.0061
1211.46	21.5612
1212.56	23.1541
1213.65	23.9111
1214.75	25.5941
1215.85	26.3743
1216.95	30.3191
1218.04	24.3379
1219.14	30.8803
1220.24	25.2529
1221.33	25.1433
1222.43	26.0656
1223.53	28.3626
1224.62	26.9697
1225.72	28.469
1226.82	31.2776
1227.91	26.8881
1229.01	30.0589
1230.1	30.6829
1231.2	26.8319
1232.29	24.5547
1233.39	26
1234.48	29.4466
1235.58	29.2953
1236.67	22.5768
1237.77	24.4624
1238.86	27.9532
1239.95	25.7819
1241.05	24.8137
1242.14	26.3072
1243.23	26.3878
1244.33	26.4399
1245.42	27.635
1246.51	24.7947
1247.61	28.8398
1248.7	25.7835
1249.79	27.2206
1250.88	28
1251.97	26.5192
1253.07	27.7702
1254.16	28.8081
1255.25	25.4562
1256.34	27.9483
1257.43	28.6802
1258.52	27.7304
1259.61	26.8863
1260.7	28.5848
1261.79	29.5731
1262.88	28.375
1263.97	27.4895
1265.06	26.4235
1266.15	26.5735
1267.24	25.4018
1268.33	26.6961
1269.42	26.8145
1270.51	29.2039
1271.6	27.2825
1272.68	28.9037
1273.77	26.7874
1274.86	22.3649
1275.95	24.9937
1277.04	25.43
1278.12	31.1465
1279.21	27.1564
1280.3	30.2911
1281.39	26.687
1282.47	28.2985
1283.56	25.4755
1284.65	24.4235
1285.73	27.0519
1286.82	27.3621
1287.91	27.3875
1288.99	25.5147
1290.08	25.3286
1291.16	22.9475
1292.25	24.2146
1293.33	24.9703
1294.42	28.2255
1295.5	27.5882
1296.59	27.1826
1297.67	24.9319
1298.76	27.5074
1299.84	23.9902
1300.92	23.1312
1302.01	30.7567
1303.09	22.9508
1304.17	29.7668
1305.26	29.0813
1306.34	29.5887
1307.34	25
1308.43	28
1309.52	30
1310.61	26
1311.7	28
1312.78	24
1313.87	24
1314.96	26
1316.04	30
1317.13	29
1318.22	30
1319.3	28
1320.39	26
1321.48	26
1322.56	30
1323.65	29
1324.73	26
1325.82	20
1326.9	25
1327.99	30
1329.07	29
1330.16	28
1331.24	26
1332.33	26
1333.41	26
1334.5	28
1335.58	26
1336.66	25
1337.75	27
1338.83	28
1339.91	24
1341	27
1342.08	25
1343.16	30
1344.24	26
1345.33	27
1346.41	26
1347.49	29
1348.57	24
1349.65	30
1350.74	30
1351.82	30
1352.9	24
1353.98	30
1355.06	27
1356.14	24
1357.22	26
1358.3	24
1359.38	22
1360.46	31
1361.54	28
1362.62	28
1363.7	26
1364.78	28
1365.86	28
1366.94	28
1368.02	28
1369.09	24
1370.17	28
1371.25	28
1372.33	26
1373.41	26
1374.48	28
1375.56	30
1376.64	28
1377.72	32
1378.79	26
1379.87	28
1380.95	30
1382.02	22
1383.1	30
1384.17	23
1385.25	27
1386.33	22
1387.4	26
1388.48	27
1389.55	24
1390.63	27
1391.7	27
1392.78	30
1393.85	29
1394.93	28
1396	25
1397.07	33
1398.15	28
1399.22	28
1400.3	30
1401.37	30
1402.44	32
1403.52	28
1404.59	32
1405.66	26
1406.73	34
1407.81	33
1408.88	32
1409.95	26
1411.02	30
1412.09	34
1413.17	32
1414.24	33
1415.31	34
1416.38	30
1417.45	31
1418.52	32
1419.59	29
1420.66	24
1421.73	31
1422.8	32
1423.87	32
1424.94	28
1426.01	24
1427.08	26
1428.15	30
1429.22	26
1430.29	24
1431.35	31
1432.42	26
1433.49	30
1434.56	28
1435.63	32
1436.69	30
1437.76	30
1438.83	29
1439.9	32
1440.96	28
1442.03	26
1443.1	27
1444.17	26
1445.23	30
1446.3	26
1447.36	30
1448.43	28
1449.49	30
1450.56	26
1451.63	28
1452.69	30
1453.76	30
1454.82	26
1455.89	28
1456.95	30
1458.01	30
1459.08	32
1460.14	27
1461.21	20
1462.27	24
1463.34	30
1464.4	30
1465.46	24
1466.52	25
1467.59	30
1468.65	29
1469.71	30
1470.77	28
1471.84	32
1472.9	26
1473.96	30
1475.02	26
1476.08	20
1477.15	22
1478.21	26
1479.27	28
1480.33	30
1481.39	28
1482.45	29
1483.51	25
1484.57	22
1485.63	24
1486.69	30
1487.75	20
1488.81	33
1489.87	35
1490.93	30
1491.99	32
1493.05	24
1494.1	28
1495.16	25
1496.22	26
1497.28	29
1498.34	26
1499.4	30
1500.45	28
1501.51	26
1502.57	28
1503.63	32
1504.68	27
1505.74	31
1506.8	25
1507.85	30
1508.91	32
1509.97	28
1511.02	30
1512.08	32
1513.13	32
1514.19	29
1515.24	34
1516.3	26
1517.35	27
1518.41	30
1519.46	25
1520.52	32
1521.57	24
1522.63	22
1523.68	27
1524.73	27
1525.79	28
1526.84	32
1527.9	31
1528.95	25
1530	32
1531.05	28
1532.11	22
1533.16	24
1534.21	30
1535.26	29
1536.32	27
1537.37	34
1538.42	30
1539.47	32
1540.52	28
1541.57	25
1542.63	28
1543.68	26
1544.73	30
1545.78	27
1546.83	30
1547.88	24
1548.93	32
1549.98	32
1551.03	29
1552.08	32
1553.13	30
1554.18	27
1555.23	29
1556.27	30
1557.32	31
1558.37	26
1559.42	26
1560.47	30
1561.52	26
1562.56	28
1563.61	24
1564.66	32
1565.71	30
1566.75	33
1567.8	27
1568.85	31
1569.9	32
1570.94	32
1571.99	28
1573.03	26
1574.08	26
1575.13	31
1576.17	28
1577.22	31
1578.26	30
1579.31	30
1580.35	20
1581.4	26
1582.44	26
1583.49	30
1584.53	26
1585.58	30
1586.62	26
1587.66	24
1588.71	31
1589.75	30
1590.8	24
1591.84	22
1592.88	29
1593.92	28
1594.97	28
1596.01	28
1597.05	33
1598.1	28
1599.14	30
1600.18	29
1601.22	24
1602.26	26
1603.3	28
1604.35	26
1605.39	29
1606.43	29
1607.47	27
1608.51	31
1609.55	28
1610.59	24
1611.63	29
1612.67	30
1613.71	30
1614.75	29
1615.79	26
1616.83	24
1617.87	29
1618.91	27
1619.95	29
1620.99	24
1622.02	20
1623.06	33
1624.1	26
1625.14	35
1626.18	31
1627.21	29
1628.25	29
1629.29	26
1630.33	30
1631.36	24
1632.4	32
1633.44	29
1634.48	30
1635.51	30
1636.55	30
1637.58	29
1638.62	23
1639.66	30
1640.69	26
1641.73	29
1642.76	26
1643.8	30
1644.83	30
1645.87	27
1646.9	31
1647.94	31
1648.97	27
1650	26
1651.04	30
1652.07	28
1653.11	29
1654.14	32
1655.17	30
1656.21	28
1657.24	28
1658.27	30
1659.31	28
1660.34	32
1661.37	26
1662.4	26
1663.43	27
1664.47	28
1665.5	24
1666.53	28
1667.56	26
1668.59	32
1669.62	26
1670.66	27
1671.69	28
1672.72	32
1673.75	24
1674.78	24
1675.81	28
1676.84	26
1677.87	33
1678.9	25
1679.93	27
1680.96	24
1681.98	26
1683.01	28
1684.04	28
1685.07	30
1686.1	30
1687.13	28
1688.16	39
1689.18	26
1690.21	28
1691.24	26
1692.27	28
1693.3	30
1694.32	27
1695.35	29
1696.38	28
1697.4	26
1698.43	33
1699.46	24
1700.48	30
1701.51	29
1702.54	26
1703.56	27
1704.59	32
1705.61	28
1706.64	27
1707.66	30
1708.69	28
1709.71	31
1710.74	28
1711.76	30
1712.79	24
1713.81	33
1714.83	28
1715.86	28
1716.88	27
1717.91	32
1718.93	32
1719.95	27
1720.98	26
1722	28
1723.02	33
1724.04	33
1725.07	30
1726.09	28
1727.11	31
1728.13	30
1729.15	26
1730.18	28
1731.2	26
1732.22	26
1733.24	30
1734.26	25
1735.28	30
1736.3	32
1737.32	30
1738.34	29
1739.36	27
1740.38	25
1741.4	27
1742.42	32
1743.44	29
1744.46	29
1745.48	26
1746.5	22
1747.52	25
1748.54	26
1749.56	29
1750.58	27
1751.6	28
1752.61	25
1753.63	27
1754.65	27
1755.67	27
1756.68	31
1757.7	27
1758.72	28
1759.74	34
1760.75	31
1761.77	31
1762.79	30
1763.8	29
1764.82	26
1765.83	28
1766.85	30
1767.87	29
1768.88	29
1769.9	26
1770.91	29
1771.93	31
1772.94	29
1773.96	26
1774.97	29
1775.99	26
1777	28
1778.02	28
1779.03	28
1780.04	33
1781.06	28
1782.07	36
1783.09	29
1784.1	22
1785.11	26
1786.13	30
1787.14	31
1788.15	29
1789.16	29
1790.18	28
1791.19	30
1792.2	24
1793.21	30
1794.22	27
1795.23	26
1796.25	29
1797.26	30
1798.27	25
1799.28	30
1800.29	25
1801.3	26
1802.31	24
1803.32	24
1804.33	28
1805.34	33
1806.35	28
1807.36	27
1808.37	30
1809.38	32
1810.39	30
1811.4	27
1812.41	29
1813.42	26
1814.42	26
1815.43	26
1816.44	24
1817.45	28
1818.46	29
1819.47	27
1820.47	28
1821.48	28
1822.49	27
1823.49	32
1824.5	28
1825.51	30
1826.52	30
1827.52	30
1828.53	26
1829.53	26
1830.54	27
1831.55	30
1832.55	26
1833.56	30
1834.56	29
1835.57	27
1836.57	24
1837.58	24
1838.58	32
1839.59	25
1840.59	31
1841.6	30
1842.6	28
1843.61	28
1844.61	24
1845.61	28
1846.62	30
1847.62	28
1848.62	32
1849.63	28
1850.63	31
1851.63	28
1852.64	24
1853.64	29
1854.64	28
1855.64	26
1856.64	35
1857.65	26
1858.65	30
1859.65	26
1860.65	30
1861.65	28
1862.65	22
1863.65	26
1864.66	35
1865.66	30
1866.66	26
1867.66	28
1868.66	27
1869.66	26
1870.66	31
1871.66	27
1872.66	26
1873.66	30
1874.66	26
1875.65	28
1876.65	32
1877.65	25
1878.65	26
1879.65	28
1880.65	30
1881.65	28
1882.64	31
1883.64	27
1884.64	27
1885.64	24
1886.63	26
1887.63	27
1888.63	32
1889.63	26
1890.62	23
1891.62	24
1892.62	24
1893.61	24
1894.61	30
1895.6	26
1896.6	26
1897.6	30
1898.59	30
1899.59	28
1900.58	27
1901.58	28
1902.57	28
1903.57	25
1904.56	29
1905.56	27
1906.55	24
1907.54	28
1908.54	27
1909.53	29
1910.53	29
1911.52	28
1912.51	20
1913.51	30
1914.5	26
1915.49	26
1916.49	27
1917.48	26
1918.47	24
1919.46	27
1920.46	26
1921.45	29
1922.44	28
1923.43	26
1924.42	26
1925.41	29
1926.41	28
1927.4	26
1928.39	31
1929.38	30
1930.37	28
1931.36	25
1932.35	26
1933.34	28
1934.33	29
1935.32	31
1936.31	25
1937.3	28
1938.29	26
1939.28	29
1940.27	30
1941.26	30
1942.24	28
1943.23	24
1944.22	25
1945.21	26
1946.2	30
1947.19	26
1948.17	29
1949.16	27
1950.15	27.5
1951.14	28
1952.12	28
1953.11	30
1954.1	30
1955.09	26
1956.07	27
1957.06	27
1958.05	32
1959.03	30
1960.02	32
1961	24
1961.99	32
1962.98	22
1963.96	25
1964.95	28
1965.93	26
1966.92	24
1967.9	24
1968.89	25
1969.87	30
1970.85	26
1971.84	31
1972.82	22
1973.81	26
1974.79	28
1975.78	34
1976.76	29
1977.74	22
1978.73	28
1979.71	30
1980.69	26
1981.67	28
1982.66	28
1983.64	26
1984.62	29
1985.6	28
1986.59	22
1987.57	26
1988.55	26
1989.53	28
1990.51	29
1991.49	20
1992.47	29
1993.45	24
1994.44	27
1995.42	26
1996.4	29
1997.38	24
1998.36	30
1999.34	26
2000.32	24
2001.3	28
2002.28	30
2003.26	28
2004.24	26
2005.22	24
2006.19	26
2007.17	26
2008.15	31
2009.13	24
2010.11	28
2011.09	26
2012.06	24
2013.04	26
2014.02	25
2015	26
2015.98	22
2016.95	31
2017.93	20
2018.91	32
2019.88	27
2020.86	26
2021.84	27
2022.81	26
2023.79	27
2024.77	25
2025.74	26
2026.72	29
2027.69	23
2028.67	25
2029.65	30
2030.62	28
2031.6	26
2032.57	26
2033.55	23
2034.52	28
2035.5	22
2036.47	26
2037.44	32
2038.42	24
2039.39	26
2040.36	26
2041.34	25
2042.31	30
2043.29	24
2044.26	26
2045.23	29
2046.2	20
2047.18	26
2048.15	26
2049.12	25
2050.09	27
2051.07	27
2052.04	20
2053.01	28
2053.98	29
2054.95	24
2055.93	23
2056.9	26
2057.87	31
2058.84	28
2059.81	27
2060.78	28
2061.75	27
2062.72	26
2063.69	29
2064.66	24
2065.63	28
2066.6	24
2067.57	29
2068.54	28
2069.51	26
2070.48	32
2071.45	26
2072.42	24
2073.38	24
2074.35	28
2075.32	28
2076.29	25
2077.26	25
2078.23	26
2079.19	22
2080.16	26
2081.13	26
2082.1	28
2083.06	22
2084.03	27
2085	31
2085.96	32
2086.93	26
2087.9	28
2088.86	24
2089.83	22
2090.8	24
2091.76	29
2092.73	32
2093.69	26
2094.66	25
2095.62	23
2096.59	20
2097.55	26
2098.52	27
2099.48	25
2100.45	28
2101.41	24
2102.38	27
2103.34	24
2104.31	24
2105.27	30
2106.23	25
2107.2	28
2108.16	24
2109.12	26
2110.09	26
2111.05	24
2112.01	27
2112.98	28
2113.94	26
2114.9	22
2115.86	27
2116.82	26
2117.79	33
2118.75	27
2119.71	25
2120.67	24
2121.63	26
2122.59	28
2123.55	23
2124.52	22
2125.48	26
2126.44	22
2127.4	26
2128.36	26
2129.32	26
2130.28	28
2131.24	23
2132.2	26
2133.16	25
2134.12	30
2135.08	30
2136.04	25
2136.99	29
2137.95	29
2138.91	27
2139.87	25
2140.83	25
2141.79	26
2142.75	25
2143.7	24
2144.66	24
2145.62	24.0089
2146.58	24.992
2147.53	29.9755
2148.49	26.0945
2149.45	25.0272
2150.41	24.7996
2151.36	22.1954
2152.32	25.0647
2153.27	24.0093
2154.23	24.1766
2155.19	24.019
2156.14	20.8786
2157.1	20.3811
2158.06	25.1324
2159.01	25.9852
2159.97	25.4051
2160.92	27.6715
2161.88	22.3468
2162.83	26.8186
2163.79	27.6176
2164.74	22.0038
2165.7	24.4136
2166.65	23.2269
2167.61	26.668
2168.56	26.892
2169.51	26.2204
2170.47	21.0392
2171.42	22.5392
2172.38	27.416
2173.33	26.2748
2174.28	23.2124
2175.24	25.5303
2176.19	23.8729
2177.14	26
2178.09	21.7879
2179.05	26.5029
2180	23.4513
2180.95	21.6709
2181.9	25.6825
2182.86	23.9363
2183.81	30.4775
2184.76	25.0929
2185.71	27.0217
2186.66	27.5441
2187.61	26.6536
2188.57	25.7295
2189.52	22.9738
2190.47	25.0686
2191.42	25.049
2192.37	21.7352
2193.32	26.6231
2194.27	24.7309
2195.22	27.5706
2196.17	27.6884
2197.12	23.4557
2198.07	24.7534
2199.02	27.5772
2199.97	24.5976
2200.92	22.6722
2201.87	26.5903
2202.82	24.903
2203.76	26.7941
2204.71	22.7193
2205.66	24.5892
2206.61	25.8729
2207.56	24.9597
2208.51	21.9625
2209.45	22.8387
2210.4	23.9612
2211.35	27.2944
2212.3	27.6671
2213.24	26.9171
2214.19	24.7671
2215.14	22.1918
2216.09	26.3531
2217.03	25.5752
2217.98	24.8476
2218.93	24.8382
2219.87	25.7706
2220.82	28.0189
2221.77	27.9257
2222.71	24.9069
2223.66	23.6678
2224.6	24.5677
2225.55	24.1314
2226.49	27.4819
2227.44	27.1463
2228.38	24.0376
2229.33	22.8989
2230.27	23.5098
2231.22	25.5808
2232.16	28.0575
2233.11	27.9222
2234.05	25.0552
2235	24.5079
2235.94	25.3175
2236.88	26.5193
2237.83	27.1324
2238.77	26.8971
2239.71	28.7982
2240.66	28.7891
2241.6	27.4186
2242	27
2242.95	29
2243.9	29
2244.84	27
2245.79	20
2246.74	28
2247.69	24
2248.63	24
2249.58	26
2250.53	25
2251.47	26
2252.42	27
2253.37	26
2254.31	27
2255.26	24
2256.2	16
2257.15	25
2258.1	23
2259.04	24
2259.99	28
2260.93	26
2261.88	24
2262.82	28
2263.77	26
2264.71	24
2265.65	27
2266.6	26
2267.54	26
2268.49	30
2269.43	29
2270.38	28
2271.32	34
2272.26	29
2273.21	28
2274.15	30
2275.09	25
2276.04	22
2276.98	16
2277.92	20
2278.86	24
2279.81	20
2280.75	29
2281.69	24
2282.63	26
2283.57	28
2284.52	22
2285.46	28
2286.4	26
2287.34	22
2288.28	24
2289.22	22
2290.16	30
2291.1	23
2292.04	30
2292.98	29
2293.93	20
2294.86	28
2295.8	25
2296.74	30
2297.69	20
2298.62	25
2299.56	28
2300.5	24
2301.44	24
2302.38	27
2303.32	26
2304.26	26
2305.2	26
2306.14	24
2307.07	26
2308.01	29
2308.95	29
2309.89	22
2310.83	26
2311.76	25
2312.7	22
2313.64	24
2314.58	27
2315.51	23
2316.45	25
2317.39	22
2318.32	27
2319.26	24
2320.2	23
2321.13	23
2322.07	28
2323	23
2323.94	27
2324.88	22
2325.81	24
2326.75	29
2327.68	22
2328.62	28
2329.55	27
2330.49	24
2331.42	26
2332.36	24
2333.29	26
2334.22	26
2335.16	26
2336.09	27
2337.03	31
2337.96	27
2338.89	28
2339.83	23
2340.76	25
2341.69	27
2342.63	24
2343.56	29
2344.49	26
2345.43	26
2346.36	25
2347.29	26
2348.22	20
2349.15	28
2350.09	27
2351.02	28
2351.95	31
2352.88	22
2353.81	27
2354.74	28
2355.67	28
2356.61	25
2357.54	27
2358.47	31
2359.4	25
2360.33	26
2361.26	22
2362.19	30
2363.12	20
2364.05	27
2364.98	28
2365.91	24
2366.84	32
2367.77	23
2368.7	28
2369.62	28
2370.55	26
2371.48	26
2372.41	28
2373.34	29
2374.27	27
2375.2	25
2376.12	27
2377.05	28
2377.98	28
2378.91	24
2379.83	27
2380.76	24
2381.69	28
2382.62	20
2383.54	31
2384.47	31
2385.4	32
2386.32	26
2387.25	28
2388.18	27
2389.1	25
2390.03	28
2390.95	27
2391.88	27
2392.81	29
2393.73	25
2394.66	24
2395.58	29
2396.51	29
2397.43	25
2398.36	24
2399.28	29
2400.2	22
2401.13	29
2402.05	27
2402.98	31
2403.9	27
2404.83	28
2405.75	26
2406.67	26
2407.6	24
2408.52	30
2409.44	28
2410.37	26
2411.29	24
2412.21	28
2413.13	25
2414.06	26
2414.98	25
2415.9	26
2416.82	28
2417.74	30
2418.67	26
2419.59	26
2420.51	26
2421.43	29
2422.35	28
2423.27	27
2424.19	30
2425.11	24
2426.03	24
2426.96	28
2427.88	27
2428.8	26
2429.72	31
2430.64	32
2431.56	25
2432.48	28
2433.39	29
2434.31	24
2435.23	25
2436.15	23
2437.07	24
2437.99	27
2438.91	24
2439.83	26
2440.75	26
2441.67	22
2442.58	25
2443.5	31
2444.42	28
2445.34	23
2446.26	31
2447.17	23
2448.09	22
2449.01	29
2449.92	26
2450.84	25
2451.76	21
2452.68	26
2453.59	25
2454.51	26
2455.42	30
2456.34	26
2457.26	26
2458.17	26
2459.09	26
2460	27
2460.92	30
2461.83	24
2462.75	27
2463.66	29
2464.58	18
2465.49	32
2466.41	28
2467.32	28
2468.24	26
2469.15	29
2470.07	28
2470.98	28
2471.89	28
2472.81	29
2473.72	22
2474.64	28
2475.55	28
2476.46	26
2477.37	24
2478.29	28
2479.2	26
2480.11	27
2481.03	25
2481.94	28
2482.85	22
2483.76	27
2484.67	26
2485.59	22
2486.5	26
2487.41	28
2488.32	22
2489.23	24
2490.14	26
2491.05	29
2491.97	25
2492.88	26
2493.79	26
2494.7	24
2495.61	24
2496.52	23
2497.43	24
2498.34	27
2499.25	24
2500.16	28
2501.07	23
2501.98	31
2502.89	27
2503.79	26
2504.7	28
2505.61	24
2506.52	24
2507.43	28
2508.34	26
2509.25	26
2510.16	32
2511.06	29
2511.97	33
2512.88	29
2513.79	27
2514.69	26
2515.6	27
2516.51	32
2517.42	28
2518.32	24
2519.23	33
2520.14	26
2521.04	29
2521.95	31
2522.86	29
2523.76	26
2524.67	28
2525.57	23
2526.48	25
2527.39	26
2528.29	26
2529.2	26
2530.1	28
2531.01	26
2531.91	30
2532.82	26
2533.72	24
2534.63	22
2535.53	27
2536.44	29
2537.34	25
2538.24	28
2539.15	29
2540.05	32
2540.96	24
2541.86	24
2542.76	27
2543.67	29
2544.57	24
2545.47	26
2546.37	31
2547.28	20
2548.18	26
2549.08	26
2549.99	28
2550.89	28
2551.79	30
2552.69	26
2553.59	28
2554.49	30
2555.4	30
2556.3	30
2557.2	27
2558.1	26
2559	28
2559.9	25
2560.8	30
2561.7	25
2562.6	28
2563.5	29
2564.4	24
2565.3	26
2566.2	26
2567.1	22
2568	29
2568.9	26
2569.8	30
2570.7	27
2571.6	25
2572.5	22
2573.4	32
2574.3	31
2575.2	33
2576.1	26
2576.99	26
2577.89	22
2578.79	26
2579.69	26
2580.59	28
2581.48	30
2582.38	31
2583.28	26
2584.18	28
2585.07	28
2585.97	29
2586.87	26
2587.76	32
2588.66	26
2589.56	28
2590.45	19
2591.35	26
2592.25	30
2593.14	26
2594.04	27
2594.93	31
2595.83	27
2596.73	27
2597.62	26
2598.52	28
2599.41	32
2600.31	28
2601.2	28
2602.1	24
2602.99	24
2603.88	24
2604.78	22
2605.67	27
2606.57	25
2607.46	34
2608.35	29
2609.25	26
2610.14	29
2611.03	26
2611.93	28
2612.82	26
2613.71	27
2614.61	22
2615.5	26
2616.39	28
2617.29	30
2618.18	28
2619.07	31
2619.96	26
2620.85	32
2621.75	26
2622.64	26
2623.53	25
2624.42	28
2625.31	27
2626.2	27
2627.09	24
2627.98	26
2628.88	27
2629.77	30
2630.66	29
2631.55	24
2632.44	27
2633.33	29
2634.22	30
2635.11	20
2636	24
2636.89	29
2637.78	31
2638.66	33
2639.55	29
2640.44	24
2641.33	26
2642.22	27
2643.11	35
2644	20
2644.89	26
2645.78	28
2646.66	28
2647.55	32
2648.44	24
2649.33	27
2650.21	30
2651.1	30
2651.99	26
2652.88	28
2653.76	22
2654.65	30
2655.54	30
2656.42	31
2657.31	31
2658.2	30
2659.08	26
2659.97	30
2660.86	26
2661.74	26
2662.63	31
2663.51	30
2664.4	28
2665.29	27
2666.17	26
2667.06	23
2667.94	22
2668.83	30
2669.71	28
2670.6	29
2671.48	30
2672.36	31
2673.25	24
2674.13	27
2675.02	26
2675.9	24
2676.78	26
2677.67	25
2678.55	30
2679.43	30
2680.32	27
2681.2	27
2682.08	29
2682.97	26
2683.85	29
2684.73	29
2685.61	31
2686.5	26
2687.38	28
2688.26	24
2689.14	30
2690.03	27
2690.91	30
2691.79	31
2692.67	28
2693.55	31
2694.43	26
2695.31	24
2696.19	28
2697.08	26
2697.96	26
2698.84	31
2699.72	27
2700.6	31
2701.48	24
2702.36	24
2703.24	31
2704.12	24
2705	24
2705.88	26
2706.76	29
2707.64	27
2708.51	27
2709.39	24
2710.27	30
2711.15	26
2712.03	29
2712.91	20
2713.79	28
2714.67	28
2715.54	19
2716.42	28
2717.3	29
2718.18	27
2719.05	27
2719.93	27
2720.81	24
2721.69	33
2722.56	28
2723.44	25
2724.32	31
2725.19	27
2726.07	28
2726.95	30
2727.82	29
2728.7	30
2729.58	26
2730.45	29
2731.33	23
2732.2	22
2733.08	24
2733.95	27
2734.83	30
2735.7	31
2736.58	26
2737.45	26
2738.33	29
2739.2	25
2740.08	28
2740.95	30
2741.83	20
2742.7	22
2743.58	27
2744.45	29
2745.32	27
2746.2	26
2747.07	24
2747.94	26
2748.82	22
2749.69	25
2750.56	33
2751.44	29
2752.31	29
2753.18	25
2754.05	24
2754.93	29
2755.8	27
2756.67	27
2757.54	28
2758.42	26
2759.29	28
2760.16	27
2761.03	26
2761.9	26
2762.77	28
2763.64	24
2764.51	31
2765.38	25
2766.26	28
2767.13	24
2768	28
2768.87	22
2769.74	23
2770.61	23
2771.48	29
2772.35	27
2773.22	30
2774.09	18
2774.96	28
2775.83	28
2776.7	28
2777.56	27
2778.43	30
2779.3	25
2780.17	26
2781.04	27
2781.91	30
2782.78	26
2783.64	30
2784.51	28
2785.38	26
2786.25	22
2787.12	31
2787.98	27
2788.85	27
2789.72	26
2790.59	27
2791.45	26
2792.32	28
2793.19	26
2794.05	29
2794.92	30
2795.79	32
2796.65	28
2797.52	32
2798.38	29
2799.25	29
2800.12	26
2800.98	28
2801.85	26
2802.71	28
2803.58	27
2804.44	26
2805.31	24
2806.17	26
2807.04	31
2807.9	24
2808.77	24
2809.63	26
2810.5	30
2811.36	32
2812.22	32
2813.09	28
2813.95	29
2814.82	23
2815.68	26
2816.54	30
2817.41	28
2818.27	27
2819.13	25
2820	31
2820.86	28
2821.72	26
2822.58	25
2823.45	25
2824.31	29
2825.17	29
2826.03	26
2826.9	20
2827.76	25
2828.62	24
2829.48	29
2830.34	31
2831.2	30
2832.06	33
2832.92	26
2833.79	33
2834.65	28
2835.51	29
2836.37	32
2837.23	31
2838.09	30
2838.95	28
2839.81	26
2840.67	30
2841.53	29
2842.39	29
2843.25	26
2844.11	34
2844.97	30
2845.83	31
2846.68	32
2847.54	35
2848.4	26
2849.26	31
2850.12	27
2850.98	26
2851.84	31
2852.69	27
2853.55	28
2854.41	26
2855.27	32
2856.13	27
2856.98	25
2857.84	28
2858.7	24
2859.56	28
2860.41	26
2861.27	29
2862.13	27
2862.98	30
2863.84	30
2864.7	29
2865.55	26
2866.41	30
2867.27	26
2868.12	28
2868.98	34
2869.83	27
2870.69	33
2871.54	32
2872.4	26
2873.25	25
2874.11	25
2874.96	32
2875.82	22
2876.68	32
2877.53	30
2878.38	26
2879.24	34
2880.09	34
2880.95	33
2881.8	32
2882.65	32
2883.51	33
2884.36	31
2885.22	30
2886.07	35
2886.92	36
2887.77	32
2888.63	35
2889.48	33
2890.33	39
2891.19	36
2892.04	39
2892.89	38
2893.74	37
2894.6	34
2895.45	43
2896.3	45
2897.15	47
2898	45
2898.85	46
2899.71	54
2900.56	57
2901.41	58
2902.26	52
2903.11	53
2903.96	52
2904.81	58
2905.66	58
2906.51	61
2907.36	66
2908.21	56
2909.06	58
2909.91	58
2910.76	54
2911.61	55
2912.46	54
2913.31	57
2914.16	52
2915.01	40
2915.86	38
2916.71	36
2917.56	46
2918.41	34
2919.26	39
2920.1	39
2920.95	38
2921.8	38
2922.65	34
2923.5	33
2924.34	34
2925.19	35
2926.04	38
2926.89	36
2927.74	31
2928.58	28
2929.43	32
2930.28	30
2931.12	30
2931.97	28
2932.82	34
2933.66	32
2934.51	31
2935.36	36
2936.2	29
2937.05	28
2937.89	30
2938.74	26
2939.59	28
2940.43	32
2941.28	30
2942.12	28
2942.97	30
2943.81	29
2944.66	28
2945.5	31
2946.35	30
2947.19	28
2948.04	28
2948.88	30
2949.72	26
2950.57	35
2951.41	31
2952.26	29
2953.1	30
2953.94	34
2954.79	27
2955.63	35
2956.47	33
2957.32	35
2958.16	31
2959	32
2959.85	42
2960.69	40
2961.53	36
2962.37	35
2963.22	39
2964.06	42
2964.9	38
2965.74	38
2966.58	34
2967.42	42
2968.27	44
2969.11	40
2969.95	42
2970.79	34
2971.63	39
2972.47	35
2973.31	30
2974.15	36
2974.99	32
2975.83	32
2976.68	36
2977.52	34
2978.36	28
2979.2	32
2980.04	28
2980.88	30
2981.71	30
2982.55	33
2983.39	33
2984.23	27
2985.07	26
2985.91	31
2986.75	29
2987.59	30
2988.43	29
2989.27	26
2990.1	31
2990.94	24
2991.78	26
2992.62	30
2993.46	28
2994.3	31
2995.13	24
2995.97	28
2996.81	25
2997.64	29
2998.48	34
2999.32	27
