#Acq. time (s)=	3
#Accumulations=	3
#Range (cm-¹)=	100...3000
#Windows=	3
#Autofocus=	Off
#AutoExposure=	Off
#Spike filter=	Multiple accum.
#Delay time (s)=	0
#Binning=	1
#Readout mode=	Signal
#DeNoise=	Off
#ICS correction=	Off
#Dark correction=	Off
#Inst. Process=	Off
#Instrument=	LabRAM HR Evol
#Detector=	Syncerity OE
#Objective=	x100_VIS_LWD
#Grating=	600 (500nm)
#ND Filter=	25%
#Laser=	633nm_Edge
#Hole=	100.021
#Range=	Visible
#Project=	Bolus
#Sample=	A1
#Site=	stripside
#Title=	m16
#Remark=	
#Date=	03.11.2025 18:54
#Acquired=	03.11.2025 18:54:19
100.969	30
102.252	36
103.535	39
104.818	32
106.101	30
107.384	37
108.666	33
109.948	32
111.232	32
112.514	28
113.795	33
115.077	35
116.358	34
117.639	30
118.919	32
120.2	30
121.48	30
122.76	32
124.04	34
125.32	29
126.599	34
127.879	32
129.158	32
130.436	30
131.715	41
132.992	40
134.27	35
135.548	37
136.826	35
138.104	37
139.381	40
140.658	40
141.935	40
143.212	38
144.489	38
145.763	40
147.04	36
148.315	37
149.591	39
150.867	40
152.142	34
153.416	42
154.691	38
155.965	40
157.24	43
158.514	40
159.786	40
161.06	39
162.334	40
163.607	40
164.881	36
166.152	42
167.425	43
168.698	40
169.969	40
171.241	46
172.513	43
173.785	30
175.055	32
176.326	41
177.597	41
178.867	38
180.137	43
181.408	39
182.677	46
183.947	39
185.217	41
186.485	44
187.755	46
189.022	44
190.291	40
191.56	42
192.828	38
194.096	37
195.363	43
196.631	46
197.899	43
199.165	40
200.432	37
201.698	44
202.965	38
204.23	34
205.497	36
206.762	34
208.028	41
209.293	38
210.559	41
211.823	36
213.088	36
214.352	38
215.617	32
216.88	36
218.145	33
219.408	35
220.672	39
221.934	32
223.196	35
224.46	28
225.722	36
226.985	34
228.246	30
229.508	30
230.77	29
232.031	34
233.292	29
234.554	32
235.814	32
237.074	28
238.335	38
239.595	29
240.854	38
242.115	37
243.374	28
244.633	36
245.893	33
247.151	31
248.409	28
249.667	26
250.927	34
252.184	30
253.442	35
254.699	32
255.957	36
257.214	32
258.47	29
259.727	30
260.983	28
262.24	32
263.496	30
264.752	33
266.007	36
267.262	38
268.517	30
269.773	29
271.028	33
272.282	32
273.536	32
274.79	33
276.044	33
277.297	29
278.551	33
279.804	35
281.057	32
282.31	27
283.564	34
284.816	28
286.068	30
287.32	31
288.572	30
289.823	29
291.074	30
292.325	28
293.576	30
294.827	26
296.077	29
297.328	32
298.578	28
299.828	32
301.077	30
302.325	32
303.575	32
304.824	30
306.073	32
307.321	33
308.57	31
309.818	35
311.066	32
312.314	28
313.562	30
314.808	28
316.055	34
317.302	30
318.549	37
319.796	36
321.042	33
322.288	33
323.533	33
324.779	31
326.024	30
327.27	31
328.515	26
329.759	34
331.004	28
332.248	30
333.493	30
334.736	30
335.98	33
337.223	32
338.466	31
339.709	31
340.952	30
342.195	31
343.437	26
344.68	30
345.922	27
347.163	28
348.405	30
349.647	34
350.887	31
352.128	33
353.37	32
354.609	34
355.85	32
357.089	28
358.33	31
359.57	26
360.809	29
362.049	28
363.287	32
364.526	31
365.764	29
367.003	33
368.241	32
369.479	26
370.718	30
371.955	32
373.193	34
374.429	30
375.667	32
376.903	30
378.139	33
379.376	30
380.611	30
381.848	30
383.083	30
384.319	31
385.554	35
386.79	28
388.024	31
389.258	28
390.493	34
391.727	30
392.962	28
394.195	37
395.428	29
396.663	30
397.895	36
399.128	30
400.361	31
401.593	22
402.825	27
404.058	31
405.29	30
406.521	32
407.752	33
408.985	34
410.215	29
411.446	35
412.678	30
413.908	35
415.138	28
416.367	31
417.597	38
418.828	26
420.057	34
421.286	36
422.514	32
423.743	30
424.973	24
426.201	33
427.429	32
428.657	35
429.884	31
431.112	35
432.34	28
433.567	28
434.794	31
436.02	28
437.247	30
438.473	32
439.699	27
440.925	34
442.15	35
443.376	26
444.601	26
445.826	24
447.051	30
448.275	33
449.5	30
450.724	32
451.948	32
453.172	34
454.396	26
455.619	38
456.842	34
458.065	32
459.288	29
460.511	35
461.733	35
462.956	35
464.178	33
465.4	36
466.621	36
467.843	39
469.064	37
470.285	30
471.505	41
472.726	32
473.946	36
475.166	40
476.387	38
477.606	40
478.825	48
480.044	46
481.264	47
482.483	50
483.702	51
484.921	55
486.138	54
487.356	58
488.574	56
489.792	56
491.009	61
492.226	57
493.444	50
494.661	50
495.877	47
497.094	50
498.31	55
499.525	48
500.741	46
501.958	46
503.172	47
504.388	42
505.603	28
506.817	43
508.032	36
509.247	39
510.46	36
511.675	37
512.888	36
514.102	36
515.316	36
516.528	36
517.742	34
518.954	40
520.167	34
521.378	40
522.591	36
523.802	34
525.015	36
526.226	35
527.438	34
528.648	35
529.86	24
531.07	28
532.281	38
533.491	34
534.702	35
535.911	28
537.121	30
538.33	30
539.54	31
540.749	32
541.957	33
543.167	34
544.375	32
545.584	32
546.791	32
547.999	32
549.207	32
550.414	28
551.621	28
552.829	32
554.035	30
555.241	35
556.449	28
557.655	28
558.86	33
560.066	26
561.272	29
562.477	34
563.682	33
564.888	31
566.093	32
567.297	29
568.501	30
569.705	32
570.91	34
572.114	31
573.317	31
574.52	34
575.723	30
576.927	34
578.13	30
579.332	30
580.535	28
581.737	35
582.938	30
584.14	31
585.343	35
586.544	31
587.745	28
588.946	34
590.147	29
591.347	34
592.548	37
593.748	32
594.948	22
596.147	32
597.347	30
598.546	36
599.745	32
600.944	29
602.143	32
603.342	29
604.54	24
605.738	39
606.937	30
608.134	26
609.332	28
610.529	29
611.727	34
612.924	31
614.121	35
615.317	27
616.513	28
617.709	30
618.905	32
620.101	30
621.297	30
622.492	29
623.688	32
624.883	31
626.077	26
627.271	29
628.466	31
629.66	28
630.855	32
632.047	34
633.241	32
634.435	31
635.629	30
636.82	36
638.014	34
639.207	34
640.399	29
641.59	31
642.783	28
643.975	34
645.166	28
646.357	34
647.549	31
648.741	34
649.93	34
651.122	26
652.311	31
653.502	30
654.692	28
655.881	33
657.071	33
658.261	28
659.45	32
660.639	33
661.827	30
663.016	32
664.204	28
665.393	32
666.581	36
667.769	30
668.957	28
670.143	32
671.331	35
672.518	36
673.705	36
674.891	37
676.078	35
677.264	28
678.451	29
679.636	36
680.821	34
682.007	34
683.192	33
684.378	38
685.562	36
686.747	40
687.931	34
689.115	36
690.3	34
691.483	34
692.666	34
693.851	37
695.034	36
696.216	40
697.4	42
698.582	36
699.764	40
700.948	36
702.129	36
703.311	37
704.493	40
705.674	47
706.855	46
708.036	42
709.218	52
710.399	52
711.579	48
712.759	44
713.939	43
715.12	38
716.299	40
717.478	36
718.657	42
719.836	37
721.015	33
722.195	35
723.373	32
724.552	35
725.729	23
726.907	32
728.085	34
729.262	38
730.44	31
731.617	32
732.795	31
733.972	36
735.148	34
736.324	31
737.501	28
738.677	36
739.852	32
741.028	32
742.203	31
743.379	36
744.554	22
745.729	32
746.903	31
748.078	36
749.252	29
750.426	28
751.599	33
752.772	29
753.946	37
755.119	34
756.293	32
757.466	30
758.639	29
759.811	31
760.984	30
762.155	32
763.327	34
764.499	24
765.67	24
766.842	35
768.013	28
769.183	30
770.354	34
771.525	29
772.696	34
773.865	30
775.035	30
776.205	38
777.375	32
778.544	34
779.713	34
780.882	30
782.052	34
783.219	29
784.388	38
785.557	34
786.724	34
787.892	33
789.06	37
790.227	32
791.395	40
792.562	34
793.728	34
794.895	28
796.061	31
797.228	33
798.395	27
799.56	30
800.726	34
801.891	30
803.057	33
804.221	33
805.387	35
806.551	27
807.716	28
808.879	27
810.044	28
811.208	36
812.372	35
813.535	37
814.699	36
815.862	32
817.025	37
818.188	30
819.351	28
820.513	30
821.675	25
822.837	31
823.999	29
825.161	29
826.322	31
827.483	30
828.645	33
829.805	35
830.966	29
832.127	34
833.287	29
834.447	32
835.607	31
836.767	32
837.926	32
839.085	29
840.245	31
841.404	24
842.562	32
843.72	34
844.88	33
846.038	31
847.195	26
848.353	30
849.512	28
850.669	30
851.826	32
852.983	27
854.139	32
855.296	28
856.453	31
857.609	32
858.765	34
859.921	27
861.077	34
862.232	34
863.387	38
864.542	32
865.697	32
866.852	33
868.008	32
869.162	31
870.316	33
871.47	30
872.624	34
873.778	34
874.931	30
876.084	26
877.237	26
878.39	30
879.543	31
880.695	36
881.846	30
882.999	33
884.151	33
885.302	28
886.454	34
887.606	23
888.757	27
889.908	32
891.059	30
892.21	31
893.359	31
894.509	34
895.659	28
896.81	29
897.959	32
899.109	28
900.257	32
901.407	32
902.556	30
903.705	34
904.854	26
906.001	32
907.149	30
908.298	34
909.446	33
910.592	28
911.74	31
912.888	26
914.034	31
915.181	32
916.328	32
917.473	30
918.62	32
919.766	25
920.911	28
922.058	32
923.204	30
924.348	28
925.494	34
926.638	32
927.783	28
928.928	36
930.072	36
931.216	33
932.36	33
933.504	27
934.647	22
935.791	25
936.933	28
938.077	30
939.219	36
940.363	30
941.504	34
942.647	31
943.789	33
944.932	28
946.073	28
947.215	32
948.356	30
949.498	28
950.638	29
951.778	32
952.92	32
954.06	30
955.199	30
956.34	28
957.479	32
958.62	26
959.759	30
960.898	26
962.038	30
963.176	36
964.315	26
965.453	33
966.592	26
967.73	31
968.867	30
970.006	29
971.144	29
972.281	29
973.418	29
974.554	30
975.692	30
976.829	27
977.965	28
979.101	30
980.237	31
981.374	26
982.509	35
983.645	26
984.78	31
985.915	33
987.05	25
988.184	24
989.319	30
990.453	23
991.589	28
992.722	28
993.856	32
994.99	29
996.123	36
997.257	30
998.39	26
999.523	32
1000.66	26
1001.79	30
1002.92	28
1004.05	28
1005.18	27
1006.32	32
1007.45	24
1008.58	37
1009.71	27
1010.84	28
1011.97	26
1013.1	34
1014.23	26
1015.36	28
1016.49	26
1017.62	30
1018.75	30
1019.88	27
1021.01	30
1022.14	22
1023.27	27
1024.4	32
1025.53	26
1026.66	31
1027.79	27
1028.91	27
1030.04	32
1031.17	30
1032.3	31
1033.42	30
1034.55	31
1035.68	30
1036.81	33
1037.93	30
1039.06	28
1040.18	24
1041.31	24
1042.44	30
1043.56	33
1044.69	28
1045.81	29
1046.94	29
1048.06	29
1049.19	30
1050.31	28
1051.44	30
1052.56	34
1053.69	31
1054.81	28
1055.93	29
1057.06	35
1058.18	24
1059.3	28
1060.43	28
1061.55	26
1062.67	30
1063.79	28
1064.92	24
1066.04	29
1067.16	29
1068.28	32
1069.4	30
1070.52	26
1071.65	30
1072.77	33
1073.89	30
1075.01	30
1076.13	28
1077.25	20
1078.37	33
1079.49	34
1080.61	30
1081.73	27
1082.85	30
1083.97	33
1085.09	29
1086.2	24
1087.32	31
1088.44	35
1089.56	30
1090.68	32
1091.8	32
1092.91	24
1094.03	32
1095.15	28
1096.26	29
1097.38	28
1098.5	30
1099.61	26
1100.73	28
1101.85	28
1102.96	20
1104.08	25
1105.19	26
1106.31	27
1107.43	28
1108.54	33
1109.66	28
1110.77	20
1111.88	27
1113	26
1114.11	25
1115.23	27
1116.34	30
1117.46	26
1118.57	31
1119.68	29
1120.8	28
1121.91	24
1123.02	27
1124.13	30
1125.25	29
1126.36	22
1127.47	30
1128.58	24
1129.69	22
1130.8	30
1131.92	28
1133.03	28
1134.14	27
1135.25	31
1136.36	29
1137.47	26
1138.58	25
1139.69	28
1140.8	28
1141.91	26
1143.02	28
1144.13	27
1145.24	32
1146.35	26
1147.46	30
1148.56	27
1149.67	32
1150.78	31
1151.89	30
1153	29
1154.1	30
1155.21	30
1156.32	30
1157.43	34
1158.53	28
1159.64	30
1160.75	22
1161.85	29
1162.96	30
1164.07	31
1165.17	33
1166.28	30
1167.38	25
1168.49	30
1169.59	32
1170.7	25
1171.8	29
1172.91	26
1174.01	29
1175.12	25
1176.22	25
1177.32	34
1178.43	22
1179.53	30
1180.64	28
1181.74	26
1182.84	34
1183.94	22
1185.05	31
1186.15	31
1187.25	28
1188.35	28
1189.46	33
1190.56	30
1191.66	26
1192.76	27
1193.86	30
1194.96	30
1196.06	29.9608
1197.16	22.0332
1198.26	31.8529
1199.37	29.9009
1200.47	27.0684
1201.57	28.8824
1202.67	29.7503
1203.77	26.0341
1204.86	28.6172
1205.96	26.8238
1207.06	29.7449
1208.16	25.7591
1209.26	29.0254
1210.36	25.8697
1211.46	32.0049
1212.56	26.0757
1213.65	30.952
1214.75	28.9706
1215.85	27.9175
1216.95	28.12
1218.04	24.6982
1219.14	29.7761
1220.24	27.6222
1221.33	29.1381
1222.43	29.8647
1223.53	27.1621
1224.62	27.7117
1225.72	29.6983
1226.82	28.5488
1227.91	27.4665
1229.01	30.5295
1230.1	27.9265
1231.2	30.9468
1232.29	28.9052
1233.39	24.4123
1234.48	27.7917
1235.58	28.7842
1236.67	26.9587
1237.77	28.33
1238.86	30.2892
1239.95	27.2059
1241.05	27.4901
1242.14	28.3072
1243.23	29.9534
1244.33	28.1598
1245.42	26.8654
1246.51	29.8761
1247.61	27.1131
1248.7	29.259
1249.79	27.3529
1250.88	22.7939
1251.97	30.1582
1253.07	28.1349
1254.16	28.6598
1255.25	30.241
1256.34	27.8277
1257.43	29.3235
1258.52	28.3824
1259.61	25.6663
1260.7	26.9167
1261.79	29.3069
1262.88	30.8838
1263.97	27.4385
1265.06	29.8343
1266.15	30.4322
1267.24	27.9731
1268.33	29.6725
1269.42	28.6641
1270.51	26.0753
1271.6	24.8716
1272.68	24.7772
1273.77	28.0443
1274.86	30.4767
1275.95	25.1176
1277.04	26.7763
1278.12	27.8936
1279.21	28.4479
1280.3	28.5002
1281.39	27.4398
1282.47	22.6405
1283.56	27.2647
1284.65	27.4069
1285.73	25.6176
1286.82	27.0438
1287.91	26.3137
1288.99	27
1290.08	27.2376
1291.16	29.4314
1292.25	28.976
1293.33	27.578
1294.42	30.9479
1295.5	25.7653
1296.59	28.3688
1297.67	25.7159
1298.76	26.6233
1299.84	22.6568
1300.92	26.3126
1302.01	26.9559
1303.09	27.3694
1304.17	29.8031
1305.26	27.8226
1306.34	25.9804
1307.34	26
1308.43	29
1309.52	26
1310.61	31
1311.7	27
1312.78	28
1313.87	29
1314.96	30
1316.04	24
1317.13	28
1318.22	28
1319.3	27
1320.39	32
1321.48	29
1322.56	26
1323.65	28
1324.73	28
1325.82	27
1326.9	26
1327.99	24
1329.07	24
1330.16	30
1331.24	32
1332.33	27
1333.41	29
1334.5	28
1335.58	25
1336.66	30
1337.75	28
1338.83	30
1339.91	28
1341	30
1342.08	30
1343.16	32
1344.24	23
1345.33	24
1346.41	26
1347.49	23
1348.57	28
1349.65	31
1350.74	26
1351.82	24
1352.9	28
1353.98	29
1355.06	22
1356.14	30
1357.22	34
1358.3	27
1359.38	30
1360.46	27
1361.54	30
1362.62	24
1363.7	28
1364.78	30
1365.86	27
1366.94	24
1368.02	28
1369.09	25
1370.17	30
1371.25	27
1372.33	28
1373.41	26
1374.48	29
1375.56	24
1376.64	30
1377.72	25
1378.79	29
1379.87	29
1380.95	32
1382.02	30
1383.1	25
1384.17	24
1385.25	28
1386.33	27
1387.4	24
1388.48	28
1389.55	22
1390.63	29
1391.7	32
1392.78	32
1393.85	28
1394.93	30
1396	30
1397.07	28
1398.15	31
1399.22	31
1400.3	24
1401.37	31
1402.44	31
1403.52	34
1404.59	32
1405.66	32
1406.73	30
1407.81	32
1408.88	38
1409.95	32
1411.02	30
1412.09	34
1413.17	32
1414.24	34
1415.31	34
1416.38	37
1417.45	31
1418.52	35
1419.59	35
1420.66	30
1421.73	31
1422.8	31
1423.87	28
1424.94	28
1426.01	31
1427.08	28
1428.15	34
1429.22	32
1430.29	26
1431.35	24
1432.42	27
1433.49	24
1434.56	28
1435.63	22
1436.69	30
1437.76	32
1438.83	26
1439.9	24
1440.96	27
1442.03	31
1443.1	26
1444.17	28
1445.23	30
1446.3	26
1447.36	26
1448.43	24
1449.49	27
1450.56	33
1451.63	26
1452.69	28
1453.76	30
1454.82	29
1455.89	28
1456.95	24
1458.01	30
1459.08	27
1460.14	32
1461.21	28
1462.27	32
1463.34	29
1464.4	28
1465.46	30
1466.52	32
1467.59	26
1468.65	22
1469.71	31
1470.77	27
1471.84	30
1472.9	24
1473.96	29
1475.02	34
1476.08	32
1477.15	30
1478.21	33
1479.27	24
1480.33	28
1481.39	28
1482.45	30
1483.51	32
1484.57	27
1485.63	29
1486.69	32
1487.75	30
1488.81	34
1489.87	32
1490.93	28
1491.99	31
1493.05	24
1494.1	29
1495.16	30
1496.22	32
1497.28	31
1498.34	30
1499.4	28
1500.45	30
1501.51	32
1502.57	26
1503.63	26
1504.68	28
1505.74	30
1506.8	31
1507.85	32
1508.91	32
1509.97	29
1511.02	31
1512.08	26
1513.13	22
1514.19	26
1515.24	30
1516.3	27
1517.35	28
1518.41	30
1519.46	26
1520.52	24
1521.57	36
1522.63	26
1523.68	23
1524.73	28
1525.79	30
1526.84	34
1527.9	27
1528.95	29
1530	22
1531.05	24
1532.11	26
1533.16	28
1534.21	30
1535.26	32
1536.32	30
1537.37	25
1538.42	34
1539.47	30
1540.52	24
1541.57	24
1542.63	24
1543.68	25
1544.73	30
1545.78	30
1546.83	24
1547.88	26
1548.93	30
1549.98	28
1551.03	33
1552.08	33
1553.13	29
1554.18	26
1555.23	28
1556.27	33
1557.32	28
1558.37	28
1559.42	34
1560.47	34
1561.52	28
1562.56	28
1563.61	33
1564.66	35
1565.71	25
1566.75	28
1567.8	30
1568.85	26
1569.9	34
1570.94	32
1571.99	30
1573.03	30
1574.08	28
1575.13	29
1576.17	30
1577.22	26
1578.26	30
1579.31	26
1580.35	32
1581.4	31
1582.44	28
1583.49	27
1584.53	27
1585.58	28
1586.62	26
1587.66	25
1588.71	30
1589.75	26
1590.8	28
1591.84	33
1592.88	26
1593.92	24
1594.97	28
1596.01	28
1597.05	24
1598.1	29
1599.14	22
1600.18	26
1601.22	25
1602.26	31
1603.3	24
1604.35	32
1605.39	28
1606.43	26
1607.47	27
1608.51	34
1609.55	24
1610.59	30
1611.63	30
1612.67	32
1613.71	28
1614.75	26
1615.79	22
1616.83	28
1617.87	26
1618.91	24
1619.95	34
1620.99	32
1622.02	32
1623.06	28
1624.1	27
1625.14	30
1626.18	22
1627.21	24
1628.25	31
1629.29	29
1630.33	28
1631.36	29
1632.4	29
1633.44	28
1634.48	24
1635.51	29
1636.55	27
1637.58	33
1638.62	24
1639.66	27
1640.69	26
1641.73	27
1642.76	26
1643.8	29
1644.83	34
1645.87	21
1646.9	24
1647.94	30
1648.97	26
1650	26
1651.04	32
1652.07	28
1653.11	32
1654.14	24
1655.17	26
1656.21	30
1657.24	29
1658.27	28
1659.31	28
1660.34	27
1661.37	26
1662.4	33
1663.43	26
1664.47	28
1665.5	27
1666.53	26
1667.56	33
1668.59	34
1669.62	26
1670.66	31
1671.69	28
1672.72	24
1673.75	26
1674.78	31
1675.81	29
1676.84	33
1677.87	30
1678.9	28
1679.93	30
1680.96	32
1681.98	32
1683.01	31
1684.04	31
1685.07	26
1686.1	22
1687.13	30
1688.16	31
1689.18	34
1690.21	26
1691.24	30
1692.27	31
1693.3	24
1694.32	32
1695.35	27
1696.38	22
1697.4	26
1698.43	28
1699.46	31
1700.48	29
1701.51	28
1702.54	29
1703.56	24
1704.59	28
1705.61	29
1706.64	26
1707.66	31
1708.69	27
1709.71	30
1710.74	28
1711.76	28
1712.79	30
1713.81	27
1714.83	30
1715.86	25
1716.88	32
1717.91	29
1718.93	32
1719.95	29
1720.98	34
1722	28
1723.02	25
1724.04	31
1725.07	32
1726.09	29
1727.11	30
1728.13	28
1729.15	30
1730.18	26
1731.2	26
1732.22	26
1733.24	26
1734.26	28
1735.28	30
1736.3	33
1737.32	27
1738.34	31
1739.36	28
1740.38	27
1741.4	30
1742.42	30
1743.44	27
1744.46	28
1745.48	28
1746.5	28
1747.52	30
1748.54	29
1749.56	24
1750.58	29
1751.6	28
1752.61	28
1753.63	28
1754.65	26
1755.67	27
1756.68	30
1757.7	24
1758.72	26
1759.74	32
1760.75	33
1761.77	29
1762.79	32
1763.8	34
1764.82	26
1765.83	30
1766.85	22
1767.87	28
1768.88	28
1769.9	29
1770.91	25
1771.93	30
1772.94	30
1773.96	28
1774.97	27
1775.99	28
1777	24
1778.02	34
1779.03	29
1780.04	32
1781.06	30
1782.07	28
1783.09	30
1784.1	29
1785.11	28
1786.13	28
1787.14	30
1788.15	27
1789.16	25
1790.18	28
1791.19	22
1792.2	26
1793.21	30
1794.22	27
1795.23	24
1796.25	30
1797.26	30
1798.27	31
1799.28	27
1800.29	30
1801.3	27
1802.31	27
1803.32	26
1804.33	29
1805.34	29
1806.35	33
1807.36	28
1808.37	30
1809.38	25
1810.39	27
1811.4	28
1812.41	28
1813.42	34
1814.42	28
1815.43	27
1816.44	26
1817.45	28
1818.46	26
1819.47	28
1820.47	27
1821.48	32
1822.49	26
1823.49	33
1824.5	29
1825.51	28
1826.52	26
1827.52	26
1828.53	30
1829.53	26
1830.54	25
1831.55	28
1832.55	31
1833.56	25
1834.56	29
1835.57	30
1836.57	28
1837.58	22
1838.58	29
1839.59	26
1840.59	30
1841.6	26
1842.6	30
1843.61	27
1844.61	29
1845.61	30
1846.62	24
1847.62	27
1848.62	33
1849.63	32
1850.63	24
1851.63	28
1852.64	28
1853.64	28
1854.64	27
1855.64	28
1856.64	32
1857.65	24
1858.65	32
1859.65	24
1860.65	26
1861.65	26
1862.65	29
1863.65	24
1864.66	29
1865.66	32
1866.66	31
1867.66	33
1868.66	28
1869.66	27
1870.66	20
1871.66	29
1872.66	26
1873.66	24
1874.66	32
1875.65	26
1876.65	30
1877.65	24
1878.65	26
1879.65	29
1880.65	27
1881.65	27
1882.64	29
1883.64	28
1884.64	28
1885.64	27
1886.63	27
1887.63	29
1888.63	26
1889.63	28
1890.62	22
1891.62	30
1892.62	24
1893.61	28
1894.61	27
1895.6	29
1896.6	29
1897.6	26
1898.59	26
1899.59	23
1900.58	26
1901.58	27
1902.57	25
1903.57	32
1904.56	26
1905.56	24
1906.55	27
1907.54	27
1908.54	24
1909.53	28
1910.53	24
1911.52	28
1912.51	26
1913.51	27
1914.5	30
1915.49	30
1916.49	26
1917.48	28
1918.47	31
1919.46	24
1920.46	27
1921.45	26
1922.44	30
1923.43	27
1924.42	28
1925.41	25
1926.41	29
1927.4	30
1928.39	28
1929.38	22
1930.37	30
1931.36	34
1932.35	26
1933.34	27
1934.33	29
1935.32	30
1936.31	31
1937.3	28
1938.29	28
1939.28	30
1940.27	26
1941.26	26
1942.24	32
1943.23	30
1944.22	25
1945.21	24
1946.2	27
1947.19	32
1948.17	22
1949.16	32
1950.15	30
1951.14	28
1952.12	24
1953.11	31
1954.1	30
1955.09	29
1956.07	27
1957.06	24
1958.05	28
1959.03	30
1960.02	22
1961	28
1961.99	22
1962.98	30
1963.96	24
1964.95	23
1965.93	26
1966.92	20
1967.9	26
1968.89	29
1969.87	29
1970.85	30
1971.84	28
1972.82	28
1973.81	20
1974.79	27
1975.78	26
1976.76	27
1977.74	27
1978.73	27
1979.71	28
1980.69	27
1981.67	29
1982.66	27
1983.64	28
1984.62	32
1985.6	25
1986.59	26
1987.57	30
1988.55	23
1989.53	33
1990.51	24
1991.49	27
1992.47	29
1993.45	24
1994.44	28
1995.42	31
1996.4	24
1997.38	24
1998.36	32
1999.34	24
2000.32	28
2001.3	24
2002.28	30
2003.26	28
2004.24	29
2005.22	31
2006.19	32
2007.17	28
2008.15	32
2009.13	28
2010.11	32
2011.09	26
2012.06	29
2013.04	22
2014.02	25
2015	26
2015.98	28
2016.95	26
2017.93	26
2018.91	26
2019.88	32
2020.86	28
2021.84	31
2022.81	24
2023.79	30
2024.77	30
2025.74	26
2026.72	27
2027.69	20
2028.67	28
2029.65	25
2030.62	29
2031.6	30
2032.57	28
2033.55	26
2034.52	26
2035.5	27
2036.47	24
2037.44	29
2038.42	28
2039.39	26
2040.36	25
2041.34	26
2042.31	29
2043.29	26
2044.26	28
2045.23	25
2046.2	20
2047.18	24
2048.15	30
2049.12	26
2050.09	29
2051.07	23
2052.04	28
2053.01	26
2053.98	31
2054.95	22
2055.93	26
2056.9	24
2057.87	28
2058.84	22
2059.81	29
2060.78	30
2061.75	27
2062.72	26
2063.69	29
2064.66	27
2065.63	28
2066.6	24
2067.57	29
2068.54	28
2069.51	21
2070.48	25
2071.45	26
2072.42	22
2073.38	26
2074.35	24
2075.32	28
2076.29	24
2077.26	24
2078.23	27
2079.19	25
2080.16	24
2081.13	27
2082.1	30
2083.06	26
2084.03	24
2085	20
2085.96	29
2086.93	24
2087.9	28
2088.86	24
2089.83	26
2090.8	26
2091.76	20
2092.73	31
2093.69	28
2094.66	28
2095.62	24
2096.59	28
2097.55	26
2098.52	25
2099.48	26
2100.45	27
2101.41	20
2102.38	24
2103.34	28
2104.31	23
2105.27	27
2106.23	24
2107.2	26
2108.16	24
2109.12	22
2110.09	27
2111.05	28
2112.01	31
2112.98	24
2113.94	22
2114.9	26
2115.86	26
2116.82	24
2117.79	30
2118.75	24
2119.71	18
2120.67	24
2121.63	28
2122.59	24
2123.55	23
2124.52	29
2125.48	25
2126.44	27
2127.4	24
2128.36	26
2129.32	26
2130.28	26
2131.24	28
2132.2	24
2133.16	28
2134.12	28
2135.08	30
2136.04	27
2136.99	29
2137.95	30
2138.91	30
2139.87	20
2140.83	27
2141.79	23
2142.75	27
2143.7	29
2144.66	27
2145.62	26
2146.58	24.0321
2147.53	26.0448
2148.49	27.9314
2149.45	26.0068
2150.41	28.9461
2151.36	29.8472
2152.32	26.6501
2153.27	25.9907
2154.23	23.1125
2155.19	26.1679
2156.14	27.1167
2157.1	27.5188
2158.06	24.2647
2159.01	24.2917
2159.97	26.291
2160.92	25.6765
2161.88	25.6496
2162.83	24.0974
2163.79	24.8088
2164.74	26.1959
2165.7	26.1489
2166.65	26.2081
2167.61	24.7835
2168.56	26.2223
2169.51	25.037
2170.47	24.9733
2171.42	25.9892
2172.38	26.2938
2173.33	27.3209
2174.28	31.7551
2175.24	27.549
2176.19	27.4069
2177.14	24.611
2178.09	27.9496
2179.05	27.0165
2180	28.6722
2180.95	24.504
2181.9	29.2089
2182.86	25.9941
2183.81	27.2298
2184.76	24.0791
2185.71	28.0133
2186.66	22.5294
2187.61	21.326
2188.57	26
2189.52	23.0359
2190.47	24.5343
2191.42	24.5738
2192.37	23.0588
2193.32	26
2194.27	25.7211
2195.22	24.8847
2196.17	24
2197.12	23.0686
2198.07	28.5042
2199.02	26.3022
2199.97	24.91
2200.92	25.6409
2201.87	25.3055
2202.82	24.4069
2203.76	25.898
2204.71	25.4025
2205.66	27.099
2206.61	23.5777
2207.56	24.3412
2208.51	24.8006
2209.45	24.4849
2210.4	25.4566
2211.35	26.6412
2212.3	26.4559
2213.24	27.3191
2214.19	25.8266
2215.14	25.6765
2216.09	24.5392
2217.03	26.3477
2217.98	26.3802
2218.93	26.6744
2219.87	24.4627
2220.82	23.1176
2221.77	25.1766
2222.71	25.8921
2223.66	25.1634
2224.6	25.0954
2225.55	23.3412
2226.49	24.1508
2227.44	23.0719
2228.38	26.195
2229.33	28.3971
2230.27	26.3096
2231.22	25.2267
2232.16	25.4342
2233.11	24.711
2234.05	27.8338
2235	28.1425
2235.94	25.5365
2236.88	24.4807
2237.83	24.6618
2238.77	25.8146
2239.71	28.2506
2240.66	27.6077
2241.6	25.4137
2242	25
2242.95	25
2243.9	27
2244.84	30
2245.79	27
2246.74	28
2247.69	26
2248.63	26
2249.58	28
2250.53	20
2251.47	26
2252.42	26
2253.37	26
2254.31	29
2255.26	26
2256.2	29
2257.15	28
2258.1	28
2259.04	26
2259.99	29
2260.93	20
2261.88	24
2262.82	30
2263.77	29
2264.71	24
2265.65	29
2266.6	25
2267.54	23
2268.49	18
2269.43	28
2270.38	26
2271.32	29
2272.26	27
2273.21	24
2274.15	27
2275.09	20
2276.04	32
2276.98	22
2277.92	25
2278.86	22
2279.81	25
2280.75	20
2281.69	22
2282.63	24
2283.57	27
2284.52	28
2285.46	24
2286.4	28
2287.34	24
2288.28	28
2289.22	28
2290.16	26
2291.1	22
2292.04	24
2292.98	24
2293.93	24
2294.86	28
2295.8	23
2296.74	27
2297.69	30
2298.62	26
2299.56	24
2300.5	25
2301.44	24
2302.38	28
2303.32	25
2304.26	26
2305.2	22
2306.14	24
2307.07	24
2308.01	25
2308.95	24
2309.89	24
2310.83	29
2311.76	28
2312.7	23
2313.64	28
2314.58	24
2315.51	23
2316.45	26
2317.39	26
2318.32	22
2319.26	22
2320.2	28
2321.13	22
2322.07	31
2323	26
2323.94	22
2324.88	26
2325.81	27
2326.75	24
2327.68	28
2328.62	28
2329.55	27
2330.49	24
2331.42	31
2332.36	28
2333.29	24
2334.22	26
2335.16	26
2336.09	30
2337.03	31
2337.96	26
2338.89	29
2339.83	28
2340.76	26
2341.69	27
2342.63	27
2343.56	25
2344.49	22
2345.43	26
2346.36	27
2347.29	27
2348.22	31
2349.15	27
2350.09	28
2351.02	26
2351.95	30
2352.88	27
2353.81	28
2354.74	22
2355.67	29
2356.61	27
2357.54	24
2358.47	29
2359.4	22
2360.33	26
2361.26	31
2362.19	28
2363.12	20
2364.05	22
2364.98	31
2365.91	26
2366.84	30
2367.77	29
2368.7	26
2369.62	30
2370.55	26
2371.48	23
2372.41	26
2373.34	27
2374.27	26
2375.2	26
2376.12	29
2377.05	28
2377.98	26
2378.91	27
2379.83	26
2380.76	27
2381.69	25
2382.62	28
2383.54	24
2384.47	31
2385.4	26
2386.32	28
2387.25	26
2388.18	24
2389.1	27
2390.03	24
2390.95	25
2391.88	28
2392.81	22
2393.73	28
2394.66	26
2395.58	27
2396.51	24
2397.43	25
2398.36	27
2399.28	29
2400.2	22
2401.13	30
2402.05	24
2402.98	26
2403.9	30
2404.83	22
2405.75	26
2406.67	22
2407.6	26
2408.52	28
2409.44	26
2410.37	28
2411.29	29
2412.21	28
2413.13	31
2414.06	28
2414.98	20
2415.9	30
2416.82	29
2417.74	24
2418.67	27
2419.59	24
2420.51	28
2421.43	22
2422.35	32
2423.27	32
2424.19	28
2425.11	24
2426.03	28
2426.96	26
2427.88	26
2428.8	30
2429.72	30
2430.64	28
2431.56	24
2432.48	24
2433.39	30
2434.31	30
2435.23	28
2436.15	27
2437.07	25
2437.99	30
2438.91	32
2439.83	24
2440.75	24
2441.67	26
2442.58	22
2443.5	30
2444.42	25
2445.34	24
2446.26	27
2447.17	18
2448.09	31
2449.01	29
2449.92	30
2450.84	27
2451.76	26
2452.68	29
2453.59	30
2454.51	28
2455.42	24
2456.34	24
2457.26	28
2458.17	22
2459.09	26
2460	28
2460.92	26
2461.83	25
2462.75	26
2463.66	27
2464.58	25
2465.49	31
2466.41	28
2467.32	24
2468.24	26
2469.15	28
2470.07	28
2470.98	30
2471.89	25
2472.81	24
2473.72	25
2474.64	30
2475.55	28
2476.46	28
2477.37	30
2478.29	27
2479.2	25
2480.11	24
2481.03	26
2481.94	27
2482.85	29
2483.76	20
2484.67	28
2485.59	23
2486.5	26
2487.41	29
2488.32	27
2489.23	24
2490.14	25
2491.05	25
2491.97	31
2492.88	30
2493.79	20
2494.7	24
2495.61	28
2496.52	31
2497.43	30
2498.34	28
2499.25	27
2500.16	28
2501.07	22
2501.98	24
2502.89	24
2503.79	28
2504.7	30
2505.61	27
2506.52	30
2507.43	24
2508.34	26
2509.25	29
2510.16	30
2511.06	29
2511.97	22
2512.88	24
2513.79	28
2514.69	28
2515.6	26
2516.51	26
2517.42	28
2518.32	32
2519.23	27
2520.14	28
2521.04	25
2521.95	22
2522.86	27
2523.76	26
2524.67	27
2525.57	26
2526.48	28
2527.39	23
2528.29	26
2529.2	31
2530.1	29
2531.01	27
2531.91	31
2532.82	30
2533.72	24
2534.63	28
2535.53	27
2536.44	25
2537.34	23
2538.24	28
2539.15	24
2540.05	32
2540.96	26
2541.86	26
2542.76	27
2543.67	23
2544.57	23
2545.47	28
2546.37	20
2547.28	28
2548.18	33
2549.08	26
2549.99	28
2550.89	29
2551.79	25
2552.69	28
2553.59	29
2554.49	28
2555.4	20
2556.3	26
2557.2	32
2558.1	29
2559	26
2559.9	24
2560.8	30
2561.7	23
2562.6	25
2563.5	26
2564.4	28
2565.3	22
2566.2	30
2567.1	30
2568	23
2568.9	26
2569.8	31
2570.7	29
2571.6	28
2572.5	25
2573.4	28
2574.3	30
2575.2	20
2576.1	26
2576.99	30
2577.89	26
2578.79	29
2579.69	28
2580.59	24
2581.48	26
2582.38	28
2583.28	26
2584.18	26
2585.07	30
2585.97	32
2586.87	26
2587.76	32
2588.66	28
2589.56	28
2590.45	27
2591.35	28
2592.25	24
2593.14	28
2594.04	26
2594.93	32
2595.83	26
2596.73	30
2597.62	28
2598.52	22
2599.41	24
2600.31	25
2601.2	28
2602.1	22
2602.99	24
2603.88	30
2604.78	32
2605.67	28
2606.57	28
2607.46	27
2608.35	29
2609.25	30
2610.14	29
2611.03	26
2611.93	26
2612.82	26
2613.71	28
2614.61	26
2615.5	28
2616.39	26
2617.29	27
2618.18	28
2619.07	30
2619.96	28
2620.85	29
2621.75	26
2622.64	26
2623.53	23
2624.42	26
2625.31	28
2626.2	25
2627.09	30
2627.98	28
2628.88	29
2629.77	24
2630.66	27
2631.55	28
2632.44	25
2633.33	27
2634.22	28
2635.11	26
2636	29
2636.89	25
2637.78	28
2638.66	24
2639.55	30
2640.44	22
2641.33	26
2642.22	26
2643.11	24
2644	28
2644.89	22
2645.78	28
2646.66	26
2647.55	28
2648.44	33
2649.33	30
2650.21	26
2651.1	20
2651.99	29
2652.88	34
2653.76	28
2654.65	26
2655.54	30
2656.42	27
2657.31	28
2658.2	25
2659.08	26
2659.97	26
2660.86	27
2661.74	27
2662.63	22
2663.51	30
2664.4	28
2665.29	26
2666.17	23
2667.06	31
2667.94	29
2668.83	24
2669.71	31
2670.6	25
2671.48	30
2672.36	29
2673.25	35
2674.13	26
2675.02	20
2675.9	27
2676.78	24
2677.67	31
2678.55	30
2679.43	28
2680.32	27
2681.2	27
2682.08	28
2682.97	22
2683.85	29
2684.73	32
2685.61	27
2686.5	24
2687.38	26
2688.26	29
2689.14	24
2690.03	28
2690.91	25
2691.79	29
2692.67	26
2693.55	23
2694.43	24
2695.31	27
2696.19	28
2697.08	26
2697.96	23
2698.84	26
2699.72	26
2700.6	26
2701.48	26
2702.36	26
2703.24	28
2704.12	29
2705	29
2705.88	30
2706.76	31
2707.64	30
2708.51	29
2709.39	28
2710.27	25
2711.15	31
2712.03	27
2712.91	27
2713.79	28
2714.67	28
2715.54	28
2716.42	28
2717.3	30
2718.18	31
2719.05	30
2719.93	27
2720.81	28
2721.69	27
2722.56	24
2723.44	26
2724.32	26
2725.19	24
2726.07	29
2726.95	24
2727.82	27
2728.7	22
2729.58	28
2730.45	24
2731.33	26
2732.2	25
2733.08	25
2733.95	29
2734.83	29
2735.7	31
2736.58	26
2737.45	24
2738.33	26
2739.2	25
2740.08	24
2740.95	26
2741.83	28
2742.7	26
2743.58	25
2744.45	24
2745.32	28
2746.2	29
2747.07	27
2747.94	30
2748.82	26
2749.69	28
2750.56	28
2751.44	32
2752.31	28
2753.18	28
2754.05	26
2754.93	27
2755.8	25
2756.67	26
2757.54	30
2758.42	24
2759.29	26
2760.16	28
2761.03	27
2761.9	29
2762.77	30
2763.64	24
2764.51	31
2765.38	22
2766.26	27
2767.13	26
2768	27
2768.87	28
2769.74	27
2770.61	32
2771.48	26
2772.35	27
2773.22	30
2774.09	26
2774.96	26
2775.83	27
2776.7	26
2777.56	25
2778.43	27
2779.3	29
2780.17	28
2781.04	26
2781.91	31
2782.78	26
2783.64	22
2784.51	28
2785.38	25
2786.25	31
2787.12	29
2787.98	28
2788.85	30
2789.72	30
2790.59	30
2791.45	26
2792.32	22
2793.19	28
2794.05	28
2794.92	26
2795.79	26
2796.65	33
2797.52	28
2798.38	27
2799.25	29
2800.12	30
2800.98	27
2801.85	25
2802.71	22
2803.58	28
2804.44	29
2805.31	29
2806.17	24
2807.04	31
2807.9	26
2808.77	27
2809.63	25
2810.5	28
2811.36	24
2812.22	33
2813.09	26
2813.95	25
2814.82	32
2815.68	27
2816.54	28
2817.41	26
2818.27	27
2819.13	26
2820	26
2820.86	31
2821.72	32
2822.58	28
2823.45	26
2824.31	30
2825.17	34
2826.03	26
2826.9	29
2827.76	28
2828.62	20
2829.48	28
2830.34	30
2831.2	28
2832.06	30
2832.92	25
2833.79	26
2834.65	28
2835.51	30
2836.37	27
2837.23	28
2838.09	27
2838.95	30
2839.81	24
2840.67	25
2841.53	28
2842.39	30
2843.25	25
2844.11	26
2844.97	31
2845.83	26
2846.68	28
2847.54	24
2848.4	26
2849.26	27
2850.12	26
2850.98	26
2851.84	28
2852.69	28
2853.55	28
2854.41	29
2855.27	28
2856.13	24
2856.98	24
2857.84	29
2858.7	30
2859.56	24
2860.41	31
2861.27	29
2862.13	28
2862.98	32
2863.84	27
2864.7	28
2865.55	26
2866.41	30
2867.27	32
2868.12	33
2868.98	28
2869.83	28
2870.69	32
2871.54	27
2872.4	26
2873.25	34
2874.11	33
2874.96	31
2875.82	31
2876.68	32
2877.53	33
2878.38	33
2879.24	29
2880.09	34
2880.95	30
2881.8	32
2882.65	38
2883.51	32
2884.36	34
2885.22	30
2886.07	32
2886.92	36
2887.77	38
2888.63	34
2889.48	32
2890.33	36
2891.19	40
2892.04	35
2892.89	32
2893.74	45
2894.6	43
2895.45	38
2896.3	46
2897.15	44
2898	46
2898.85	50
2899.71	48
2900.56	52
2901.41	48
2902.26	57
2903.11	57
2903.96	56
2904.81	58
2905.66	61
2906.51	64
2907.36	60
2908.21	70
2909.06	65
2909.91	64
2910.76	64
2911.61	53
2912.46	55
2913.31	52
2914.16	52
2915.01	42
2915.86	44
2916.71	44
2917.56	46
2918.41	34
2919.26	34
2920.1	35
2920.95	38
2921.8	35
2922.65	36
2923.5	34
2924.34	34
2925.19	39
2926.04	32
2926.89	34
2927.74	37
2928.58	32
2929.43	29
2930.28	31
2931.12	31
2931.97	34
2932.82	25
2933.66	30
2934.51	32
2935.36	32
2936.2	28
2937.05	29
2937.89	25
2938.74	32
2939.59	30
2940.43	33
2941.28	28
2942.12	30
2942.97	32
2943.81	35
2944.66	28
2945.5	24
2946.35	28
2947.19	32
2948.04	32
2948.88	24
2949.72	33
2950.57	32
2951.41	35
2952.26	31
2953.1	37
2953.94	30
2954.79	37
2955.63	30
2956.47	35
2957.32	30
2958.16	41
2959	34
2959.85	37
2960.69	38
2961.53	38
2962.37	39
2963.22	46
2964.06	39
2964.9	38
2965.74	44
2966.58	44
2967.42	45
2968.27	41
2969.11	40
2969.95	36
2970.79	43
2971.63	41
2972.47	39
2973.31	34
2974.15	32
2974.99	38
2975.83	30
2976.68	37
2977.52	36
2978.36	30
2979.2	36
2980.04	24
2980.88	30
2981.71	33
2982.55	30
2983.39	31
2984.23	29
2985.07	33
2985.91	28
2986.75	34
2987.59	24
2988.43	29
2989.27	24
2990.1	26
2990.94	34
2991.78	27
2992.62	29
2993.46	31
2994.3	27
2995.13	29
2995.97	26
2996.81	27
2997.64	27
2998.48	34
2999.32	28
