#Acq. time (s)=	3
#Accumulations=	3
#Range (cm-¹)=	100...3000
#Windows=	3
#Autofocus=	Off
#AutoExposure=	Off
#Spike filter=	Multiple accum.
#Delay time (s)=	0
#Binning=	1
#Readout mode=	Signal
#DeNoise=	Off
#ICS correction=	Off
#Dark correction=	Off
#Inst. Process=	Off
#Instrument=	LabRAM HR Evol
#Detector=	Syncerity OE
#Objective=	x100_VIS_LWD
#Grating=	600 (500nm)
#ND Filter=	25%
#Laser=	633nm_Edge
#Hole=	100.021
#Range=	Visible
#Project=	Bolus
#Sample=	A1
#Site=	stripside
#Title=	m15
#Remark=	
#Date=	03.11.2025 18:52
#Acquired=	03.11.2025 18:52:17
100.969	33
102.252	33
103.535	34
104.818	32
106.101	30
107.384	31
108.666	30
109.948	30
111.232	27
112.514	32
113.795	33
115.077	30
116.358	35
117.639	28
118.919	34
120.2	32
121.48	33
122.76	28
124.04	30
125.32	30
126.599	35
127.879	30
129.158	28
130.436	36
131.715	34
132.992	28
134.27	36
135.548	36
136.826	38
138.104	46
139.381	36
140.658	40
141.935	36
143.212	42
144.489	37
145.763	42
147.04	41
148.315	32
149.591	28
150.867	40
152.142	39
153.416	40
154.691	36
155.965	32
157.24	41
158.514	40
159.786	40
161.06	40
162.334	38
163.607	42
164.881	34
166.152	36
167.425	44
168.698	44
169.969	28
171.241	35
172.513	39
173.785	30
175.055	30
176.326	41
177.597	40
178.867	44
180.137	38
181.408	36
182.677	38
183.947	38
185.217	40
186.485	34
187.755	38
189.022	42
190.291	41
191.56	36
192.828	42
194.096	38
195.363	34
196.631	30
197.899	40
199.165	39
200.432	36
201.698	34
202.965	34
204.23	36
205.497	32
206.762	40
208.028	38
209.293	36
210.559	33
211.823	37
213.088	32
214.352	38
215.617	38
216.88	30
218.145	38
219.408	40
220.672	30
221.934	36
223.196	32
224.46	36
225.722	32
226.985	34
228.246	32
229.508	34
230.77	28
232.031	31
233.292	26
234.554	30
235.814	34
237.074	29
238.335	36
239.595	22
240.854	33
242.115	33
243.374	30
244.633	28
245.893	32
247.151	29
248.409	34
249.667	30
250.927	32
252.184	33
253.442	35
254.699	33
255.957	28
257.214	24
258.47	34
259.727	36
260.983	33
262.24	32
263.496	28
264.752	35
266.007	28
267.262	36
268.517	28
269.773	30
271.028	36
272.282	31
273.536	32
274.79	28
276.044	32
277.297	33
278.551	26
279.804	26
281.057	26
282.31	32
283.564	28
284.816	32
286.068	32
287.32	28
288.572	28
289.823	33
291.074	32
292.325	36
293.576	28
294.827	34
296.077	28
297.328	32
298.578	31
299.828	30
301.077	27
302.325	34
303.575	28
304.824	30
306.073	32
307.321	32
308.57	34
309.818	32
311.066	32
312.314	29
313.562	28
314.808	35
316.055	32
317.302	32
318.549	24
319.796	30
321.042	29
322.288	28
323.533	32
324.779	28
326.024	30
327.27	26
328.515	28
329.759	32
331.004	28
332.248	32
333.493	31
334.736	30
335.98	33
337.223	32
338.466	30
339.709	34
340.952	30
342.195	36
343.437	26
344.68	29
345.922	30
347.163	30
348.405	31
349.647	28
350.887	32
352.128	33
353.37	31
354.609	30
355.85	32
357.089	29
358.33	31
359.57	30
360.809	28
362.049	25
363.287	31
364.526	30
365.764	34
367.003	30
368.241	29
369.479	30
370.718	30
371.955	30
373.193	35
374.429	30
375.667	29
376.903	32
378.139	30
379.376	35
380.611	34
381.848	33
383.083	34
384.319	28
385.554	28
386.79	30
388.024	31
389.258	31
390.493	28
391.727	30
392.962	31
394.195	28
395.428	35
396.663	28
397.895	30
399.128	28
400.361	32
401.593	34
402.825	30
404.058	36
405.29	34
406.521	30
407.752	29
408.985	26
410.215	32
411.446	31
412.678	32
413.908	36
415.138	33
416.367	35
417.597	29
418.828	30
420.057	28
421.286	32
422.514	30
423.743	32
424.973	28
426.201	30
427.429	26
428.657	33
429.884	28
431.112	35
432.34	29
433.567	30
434.794	33
436.02	32
437.247	30
438.473	36
439.699	30
440.925	31
442.15	30
443.376	27
444.601	24
445.826	31
447.051	30
448.275	37
449.5	30
450.724	38
451.948	26
453.172	30
454.396	33
455.619	30
456.842	37
458.065	33
459.288	36
460.511	32
461.733	32
462.956	34
464.178	33
465.4	32
466.621	30
467.843	30
469.064	30
470.285	30
471.505	39
472.726	31
473.946	36
475.166	40
476.387	40
477.606	30
478.825	42
480.044	42
481.264	45
482.483	46
483.702	44
484.921	45
486.138	55
487.356	52
488.574	46
489.792	52
491.009	51
492.226	50
493.444	52
494.661	48
495.877	49
497.094	42
498.31	40
499.525	38
500.741	49
501.958	43
503.172	38
504.388	38
505.603	37
506.817	36
508.032	41
509.247	34
510.46	35
511.675	35
512.888	34
514.102	34
515.316	35
516.528	34
517.742	34
518.954	37
520.167	28
521.378	32
522.591	30
523.802	35
525.015	39
526.226	30
527.438	30
528.648	32
529.86	32
531.07	39
532.281	34
533.491	32
534.702	33
535.911	34
537.121	32
538.33	32
539.54	32
540.749	36
541.957	31
543.167	30
544.375	30
545.584	32
546.791	26
547.999	35
549.207	28
550.414	32
551.621	31
552.829	26
554.035	30
555.241	34
556.449	35
557.655	32
558.86	32
560.066	31
561.272	32
562.477	32
563.682	28
564.888	29
566.093	28
567.297	32
568.501	31
569.705	34
570.91	34
572.114	30
573.317	36
574.52	24
575.723	30
576.927	38
578.13	32
579.332	30
580.535	28
581.737	34
582.938	29
584.14	30
585.343	29
586.544	32
587.745	38
588.946	30
590.147	34
591.347	30
592.548	30
593.748	26
594.948	30
596.147	28
597.347	34
598.546	32
599.745	34
600.944	34
602.143	32
603.342	35
604.54	36
605.738	33
606.937	32
608.134	32
609.332	30
610.529	36
611.727	30
612.924	32
614.121	34
615.317	34
616.513	36
617.709	30
618.905	30
620.101	36
621.297	24
622.492	27
623.688	32
624.883	32
626.077	34
627.271	36
628.466	36
629.66	30
630.855	27
632.047	32
633.241	26
634.435	34
635.629	26
636.82	32
638.014	29
639.207	30
640.399	34
641.59	36
642.783	34
643.975	35
645.166	30
646.357	33
647.549	26
648.741	35
649.93	24
651.122	31
652.311	31
653.502	30
654.692	26
655.881	32
657.071	32
658.261	32
659.45	33
660.639	26
661.827	26
663.016	36
664.204	28
665.393	33
666.581	33
667.769	30
668.957	34
670.143	34
671.331	34
672.518	35
673.705	31
674.891	34
676.078	34
677.264	32
678.451	36
679.636	36
680.821	36
682.007	33
683.192	37
684.378	30
685.562	41
686.747	39
687.931	38
689.115	32
690.3	40
691.483	30
692.666	35
693.851	35
695.034	38
696.216	37
697.4	35
698.582	40
699.764	39
700.948	34
702.129	34
703.311	43
704.493	44
705.674	48
706.855	43
708.036	48
709.218	48
710.399	47
711.579	48
712.759	40
713.939	45
715.12	36
716.299	38
717.478	33
718.657	34
719.836	34
721.015	41
722.195	34
723.373	35
724.552	32
725.729	28
726.907	30
728.085	32
729.262	32
730.44	31
731.617	36
732.795	30
733.972	30
735.148	30
736.324	32
737.501	35
738.677	35
739.852	35
741.028	28
742.203	34
743.379	32
744.554	32
745.729	24
746.903	34
748.078	36
749.252	32
750.426	36
751.599	30
752.772	30
753.946	31
755.119	32
756.293	30
757.466	30
758.639	32
759.811	29
760.984	29
762.155	33
763.327	31
764.499	28
765.67	32
766.842	36
768.013	30
769.183	27
770.354	26
771.525	34
772.696	28
773.865	32
775.035	30
776.205	30
777.375	36
778.544	36
779.713	36
780.882	30
782.052	32
783.219	37
784.388	28
785.557	33
786.724	31
787.892	32
789.06	36
790.227	32
791.395	37
792.562	32
793.728	26
794.895	34
796.061	34
797.228	32
798.395	35
799.56	35
800.726	34
801.891	32
803.057	33
804.221	32
805.387	34
806.551	31
807.716	29
808.879	33
810.044	30
811.208	30
812.372	35
813.535	30
814.699	32
815.862	26
817.025	24
818.188	39
819.351	28
820.513	31
821.675	27
822.837	33
823.999	28
825.161	34
826.322	28
827.483	34
828.645	30
829.805	28
830.966	32
832.127	30
833.287	30
834.447	31
835.607	31
836.767	32
837.926	35
839.085	37
840.245	27
841.404	31
842.562	34
843.72	28
844.88	32
846.038	31
847.195	33
848.353	32
849.512	32
850.669	26
851.826	33
852.983	32
854.139	30
855.296	32
856.453	31
857.609	33
858.765	30
859.921	34
861.077	32
862.232	24
863.387	36
864.542	30
865.697	27
866.852	32
868.008	30
869.162	33
870.316	37
871.47	36
872.624	32
873.778	32
874.931	34
876.084	28
877.237	30
878.39	34
879.543	34
880.695	32
881.846	36
882.999	32
884.151	30
885.302	35
886.454	35
887.606	33
888.757	35
889.908	28
891.059	32
892.21	32
893.359	28
894.509	31
895.659	32
896.81	31
897.959	34
899.109	28
900.257	32
901.407	30
902.556	32
903.705	32
904.854	30
906.001	37
907.149	37
908.298	28
909.446	32
910.592	27
911.74	31
912.888	34
914.034	28
915.181	36
916.328	34
917.473	27
918.62	30
919.766	30
920.911	30
922.058	28
923.204	32
924.348	31
925.494	32
926.638	28
927.783	31
928.928	30
930.072	30
931.216	22
932.36	34
933.504	26
934.647	28
935.791	32
936.933	28
938.077	20
939.219	28
940.363	29
941.504	31
942.647	30
943.789	29
944.932	30
946.073	32
947.215	32
948.356	32
949.498	26
950.638	31
951.778	26
952.92	31
954.06	28
955.199	28
956.34	28
957.479	30
958.62	35
959.759	36
960.898	32
962.038	31
963.176	30
964.315	24
965.453	32
966.592	29
967.73	32
968.867	26
970.006	30
971.144	29.5
972.281	26
973.418	31
974.554	27
975.692	30
976.829	28
977.965	32
979.101	30
980.237	26
981.374	30
982.509	34
983.645	30
984.78	24
985.915	34
987.05	30
988.184	26
989.319	32
990.453	24
991.589	27
992.722	33
993.856	28
994.99	35
996.123	30
997.257	30
998.39	31
999.523	33
1000.66	28
1001.79	29
1002.92	30
1004.05	31
1005.18	34
1006.32	28
1007.45	24
1008.58	31
1009.71	28
1010.84	28
1011.97	32
1013.1	28
1014.23	32
1015.36	31
1016.49	31
1017.62	24
1018.75	27
1019.88	32
1021.01	24
1022.14	32
1023.27	30
1024.4	31
1025.53	36
1026.66	34
1027.79	33
1028.91	25
1030.04	36
1031.17	32
1032.3	30
1033.42	35
1034.55	32
1035.68	24
1036.81	26
1037.93	29
1039.06	30
1040.18	28
1041.31	36
1042.44	31
1043.56	29
1044.69	33
1045.81	31
1046.94	29
1048.06	33
1049.19	31
1050.31	30
1051.44	30
1052.56	29
1053.69	32
1054.81	27
1055.93	29
1057.06	22
1058.18	22
1059.3	26
1060.43	28
1061.55	30
1062.67	28
1063.79	30
1064.92	32
1066.04	30
1067.16	27
1068.28	29
1069.4	30
1070.52	31
1071.65	26
1072.77	30
1073.89	34
1075.01	34
1076.13	33
1077.25	30
1078.37	30
1079.49	27
1080.61	32
1081.73	29
1082.85	29
1083.97	29
1085.09	30
1086.2	32
1087.32	31
1088.44	26
1089.56	33
1090.68	30
1091.8	26
1092.91	32
1094.03	32
1095.15	30
1096.26	33
1097.38	27
1098.5	30
1099.61	33
1100.73	28
1101.85	32
1102.96	28
1104.08	32
1105.19	32
1106.31	29
1107.43	22
1108.54	30
1109.66	30
1110.77	32
1111.88	28
1113	30
1114.11	32
1115.23	28
1116.34	33
1117.46	24
1118.57	30
1119.68	22
1120.8	28
1121.91	29
1123.02	30
1124.13	29
1125.25	30
1126.36	26
1127.47	31
1128.58	26
1129.69	29
1130.8	34
1131.92	36
1133.03	28
1134.14	28
1135.25	32
1136.36	31
1137.47	29
1138.58	31
1139.69	33
1140.8	29
1141.91	24
1143.02	26
1144.13	29
1145.24	31
1146.35	27
1147.46	30
1148.56	22
1149.67	28
1150.78	30
1151.89	24
1153	31
1154.1	30
1155.21	32
1156.32	31
1157.43	32
1158.53	24
1159.64	27
1160.75	24
1161.85	21
1162.96	27
1164.07	32
1165.17	30
1166.28	32
1167.38	29
1168.49	30
1169.59	30
1170.7	31
1171.8	28
1172.91	30
1174.01	25
1175.12	24
1176.22	26
1177.32	28
1178.43	25
1179.53	27
1180.64	26
1181.74	32
1182.84	28
1183.94	30
1185.05	32
1186.15	29
1187.25	28
1188.35	32
1189.46	25
1190.56	32
1191.66	27
1192.76	33
1193.86	31
1194.96	32
1196.06	31.9657
1197.16	27.9227
1198.26	30.8783
1199.37	29.9238
1200.47	25.0927
1201.57	27.9706
1202.67	25.093
1203.77	32.4853
1204.86	31.5
1205.96	27.8628
1207.06	26.1567
1208.16	26.3421
1209.26	23.8578
1210.36	29.6641
1211.46	33.7929
1212.56	27.0005
1213.65	28.5944
1214.75	25.1758
1215.85	29.4443
1216.95	27.9162
1218.04	29.3867
1219.14	27.9012
1220.24	24.3547
1221.33	26.0972
1222.43	27.2141
1223.53	31.5247
1224.62	30.1175
1225.72	29.088
1226.82	30.1259
1227.91	31.1324
1229.01	29.5735
1230.1	27.4791
1231.2	27.4069
1232.29	29.511
1233.39	30
1234.48	26.833
1235.58	27.5684
1236.67	28
1237.77	27.4149
1238.86	27.6567
1239.95	28.1501
1241.05	26.3236
1242.14	25.4036
1243.23	26.5429
1244.33	26
1245.42	24.8156
1246.51	26.8541
1247.61	28.1535
1248.7	29.1336
1249.79	25.7353
1250.88	30.3646
1251.97	28.168
1253.07	25.6714
1254.16	27.6777
1255.25	28.669
1256.34	27.7462
1257.43	28.2304
1258.52	25.8726
1259.61	23.2263
1260.7	27.5845
1261.79	28
1262.88	27.6029
1263.97	27.3913
1265.06	25.5168
1266.15	26.5968
1267.24	26.6278
1268.33	26.211
1269.42	30.5158
1270.51	29.0188
1271.6	29.5931
1272.68	27.6603
1273.77	24.4102
1274.86	25.208
1275.95	29.4287
1277.04	28.652
1278.12	28.1936
1279.21	25.5521
1280.3	26.1613
1281.39	25.1863
1282.47	28.8323
1283.56	25.2605
1284.65	29.5598
1285.73	31.392
1286.82	27.8602
1287.91	23.3226
1288.99	28.4247
1290.08	29.2181
1291.16	31.4106
1292.25	31.3469
1293.33	30.3973
1294.42	26.8819
1295.5	26.3894
1296.59	24.8174
1297.67	27.4507
1298.76	26.2941
1299.84	26.054
1300.92	24.8083
1302.01	28.5769
1303.09	24.5814
1304.17	29.0119
1305.26	28.2734
1306.34	30.6083
1307.34	26
1308.43	30
1309.52	27
1310.61	33
1311.7	27
1312.78	32
1313.87	24
1314.96	31
1316.04	22
1317.13	26
1318.22	22
1319.3	32
1320.39	25
1321.48	26
1322.56	29
1323.65	29
1324.73	31
1325.82	28
1326.9	32
1327.99	25
1329.07	29
1330.16	26
1331.24	26
1332.33	30
1333.41	25
1334.5	25
1335.58	28
1336.66	27
1337.75	30
1338.83	28
1339.91	27
1341	32
1342.08	22
1343.16	28
1344.24	26
1345.33	32
1346.41	29
1347.49	29
1348.57	30
1349.65	23
1350.74	25
1351.82	27
1352.9	30
1353.98	29
1355.06	32
1356.14	22
1357.22	28
1358.3	27
1359.38	24
1360.46	25
1361.54	29
1362.62	26
1363.7	28
1364.78	20
1365.86	31
1366.94	26
1368.02	28
1369.09	28
1370.17	29
1371.25	26
1372.33	27
1373.41	28
1374.48	25
1375.56	31
1376.64	30
1377.72	28
1378.79	29
1379.87	29
1380.95	26
1382.02	33
1383.1	28
1384.17	27
1385.25	27
1386.33	27
1387.4	30
1388.48	30
1389.55	30
1390.63	28
1391.7	31
1392.78	32
1393.85	30
1394.93	30
1396	27
1397.07	28
1398.15	28
1399.22	34
1400.3	31
1401.37	31
1402.44	28
1403.52	28
1404.59	30
1405.66	34
1406.73	32
1407.81	33
1408.88	35
1409.95	31
1411.02	35
1412.09	31
1413.17	28
1414.24	34
1415.31	36
1416.38	30
1417.45	32
1418.52	35
1419.59	32
1420.66	26
1421.73	30
1422.8	24
1423.87	29
1424.94	27
1426.01	30
1427.08	32
1428.15	33
1429.22	26
1430.29	27
1431.35	27
1432.42	28
1433.49	29
1434.56	24
1435.63	33
1436.69	29
1437.76	35
1438.83	28
1439.9	24
1440.96	29
1442.03	29
1443.1	30
1444.17	27
1445.23	29
1446.3	26
1447.36	28
1448.43	32
1449.49	26
1450.56	24
1451.63	26
1452.69	29
1453.76	26
1454.82	27
1455.89	30
1456.95	26
1458.01	30
1459.08	28
1460.14	24
1461.21	23
1462.27	24
1463.34	28
1464.4	33
1465.46	28
1466.52	27
1467.59	28
1468.65	27
1469.71	27
1470.77	28
1471.84	31
1472.9	30
1473.96	28
1475.02	26
1476.08	32
1477.15	28
1478.21	20
1479.27	30
1480.33	26
1481.39	26
1482.45	32
1483.51	28
1484.57	31
1485.63	27
1486.69	31
1487.75	26
1488.81	32
1489.87	28
1490.93	25
1491.99	32
1493.05	26
1494.1	27
1495.16	26
1496.22	29
1497.28	29
1498.34	31
1499.4	31
1500.45	28
1501.51	25
1502.57	20
1503.63	35
1504.68	26
1505.74	24
1506.8	29
1507.85	31
1508.91	27
1509.97	30
1511.02	34
1512.08	30
1513.13	26
1514.19	26
1515.24	30
1516.3	24
1517.35	31
1518.41	29
1519.46	28
1520.52	32
1521.57	28
1522.63	29
1523.68	28
1524.73	29
1525.79	28
1526.84	29
1527.9	18
1528.95	26
1530	31
1531.05	30
1532.11	24
1533.16	32
1534.21	28
1535.26	31
1536.32	32
1537.37	28
1538.42	26
1539.47	29
1540.52	30
1541.57	33
1542.63	31
1543.68	31
1544.73	28
1545.78	28
1546.83	24
1547.88	24
1548.93	32
1549.98	28
1551.03	35
1552.08	22
1553.13	28
1554.18	26
1555.23	24
1556.27	29
1557.32	26
1558.37	29
1559.42	26
1560.47	26
1561.52	30
1562.56	26
1563.61	32
1564.66	30
1565.71	27
1566.75	28
1567.8	26
1568.85	25
1569.9	30
1570.94	31
1571.99	28
1573.03	29
1574.08	31
1575.13	31
1576.17	28
1577.22	31
1578.26	31
1579.31	27
1580.35	27
1581.4	30
1582.44	30
1583.49	28
1584.53	33
1585.58	26
1586.62	27
1587.66	30
1588.71	24
1589.75	29
1590.8	31
1591.84	25
1592.88	28
1593.92	31
1594.97	28
1596.01	32
1597.05	28
1598.1	28
1599.14	26
1600.18	31
1601.22	33
1602.26	33
1603.3	27
1604.35	32
1605.39	26
1606.43	30
1607.47	33
1608.51	30
1609.55	26
1610.59	28
1611.63	30
1612.67	34
1613.71	30
1614.75	30
1615.79	26
1616.83	26
1617.87	28
1618.91	32
1619.95	25
1620.99	26
1622.02	28
1623.06	27
1624.1	26
1625.14	34
1626.18	31
1627.21	34
1628.25	28
1629.29	26
1630.33	28
1631.36	32
1632.4	26
1633.44	36
1634.48	30
1635.51	24
1636.55	34
1637.58	25
1638.62	23
1639.66	30
1640.69	30
1641.73	27
1642.76	32
1643.8	27
1644.83	25
1645.87	28
1646.9	29
1647.94	28
1648.97	28
1650	27
1651.04	31
1652.07	27
1653.11	29
1654.14	26
1655.17	28
1656.21	27
1657.24	29
1658.27	27
1659.31	31
1660.34	26
1661.37	26
1662.4	30
1663.43	32
1664.47	24
1665.5	31
1666.53	24
1667.56	27
1668.59	32
1669.62	24
1670.66	32
1671.69	24
1672.72	31
1673.75	28
1674.78	28
1675.81	27
1676.84	28
1677.87	36
1678.9	33
1679.93	29
1680.96	31
1681.98	31
1683.01	26
1684.04	30
1685.07	31
1686.1	29
1687.13	29
1688.16	30
1689.18	28
1690.21	24
1691.24	32
1692.27	26
1693.3	32
1694.32	26
1695.35	28
1696.38	28
1697.4	28
1698.43	31
1699.46	24
1700.48	26
1701.51	36
1702.54	29
1703.56	29
1704.59	27
1705.61	25
1706.64	30
1707.66	26
1708.69	27
1709.71	26
1710.74	32
1711.76	24
1712.79	22
1713.81	28
1714.83	24
1715.86	25
1716.88	29
1717.91	32
1718.93	26
1719.95	26
1720.98	28
1722	28
1723.02	32
1724.04	29
1725.07	30
1726.09	28
1727.11	30
1728.13	30
1729.15	30
1730.18	28
1731.2	25
1732.22	32
1733.24	30
1734.26	31
1735.28	28
1736.3	26
1737.32	27
1738.34	28
1739.36	29
1740.38	30
1741.4	31
1742.42	28
1743.44	30
1744.46	28
1745.48	30
1746.5	30
1747.52	32
1748.54	30
1749.56	31
1750.58	28
1751.6	28
1752.61	24
1753.63	30
1754.65	33
1755.67	31
1756.68	36
1757.7	28
1758.72	26
1759.74	35
1760.75	21
1761.77	30
1762.79	30
1763.8	31
1764.82	34
1765.83	28
1766.85	26
1767.87	25
1768.88	26
1769.9	30
1770.91	29
1771.93	27
1772.94	29
1773.96	30
1774.97	27
1775.99	24
1777	29
1778.02	29
1779.03	29
1780.04	26
1781.06	30
1782.07	27
1783.09	31
1784.1	23
1785.11	27
1786.13	32
1787.14	28
1788.15	24
1789.16	24
1790.18	24
1791.19	26
1792.2	29
1793.21	30
1794.22	31
1795.23	32
1796.25	30
1797.26	31
1798.27	28
1799.28	27
1800.29	24
1801.3	29
1802.31	30
1803.32	30
1804.33	22
1805.34	28
1806.35	30
1807.36	29
1808.37	25
1809.38	33
1810.39	30
1811.4	27
1812.41	30
1813.42	22
1814.42	28
1815.43	32
1816.44	23
1817.45	27
1818.46	32
1819.47	28
1820.47	22
1821.48	29
1822.49	26
1823.49	30
1824.5	26
1825.51	29
1826.52	32
1827.52	28
1828.53	30
1829.53	29
1830.54	31
1831.55	26
1832.55	25
1833.56	29
1834.56	30
1835.57	25
1836.57	28
1837.58	34
1838.58	33
1839.59	28
1840.59	28
1841.6	30
1842.6	23
1843.61	26
1844.61	28
1845.61	31
1846.62	23
1847.62	28
1848.62	26
1849.63	32
1850.63	26
1851.63	20
1852.64	25
1853.64	32
1854.64	30
1855.64	25
1856.64	28
1857.65	32
1858.65	28
1859.65	24
1860.65	28
1861.65	26
1862.65	30
1863.65	28
1864.66	30
1865.66	27
1866.66	32
1867.66	26
1868.66	30
1869.66	25
1870.66	26
1871.66	26
1872.66	24
1873.66	28
1874.66	27
1875.65	26
1876.65	29
1877.65	35
1878.65	29
1879.65	24
1880.65	26
1881.65	33
1882.64	26
1883.64	25
1884.64	29
1885.64	27
1886.63	31
1887.63	22
1888.63	32
1889.63	23
1890.62	32
1891.62	27
1892.62	28
1893.61	27
1894.61	29
1895.6	26
1896.6	26
1897.6	32
1898.59	26
1899.59	26
1900.58	24
1901.58	34
1902.57	26
1903.57	22
1904.56	32
1905.56	34
1906.55	29
1907.54	27
1908.54	28
1909.53	29
1910.53	30
1911.52	28
1912.51	28
1913.51	32
1914.5	28
1915.49	26
1916.49	26
1917.48	30
1918.47	26
1919.46	28
1920.46	28
1921.45	30
1922.44	20
1923.43	30
1924.42	29
1925.41	32
1926.41	24
1927.4	31
1928.39	28
1929.38	27
1930.37	20
1931.36	22
1932.35	30
1933.34	27
1934.33	26
1935.32	24
1936.31	28
1937.3	20
1938.29	25
1939.28	28
1940.27	29
1941.26	25
1942.24	25
1943.23	30
1944.22	27
1945.21	27
1946.2	26
1947.19	30
1948.17	30
1949.16	29
1950.15	31.5
1951.14	33
1952.12	27
1953.11	26
1954.1	26
1955.09	30
1956.07	32
1957.06	26
1958.05	28
1959.03	30
1960.02	31
1961	30
1961.99	33
1962.98	27
1963.96	27
1964.95	28
1965.93	26
1966.92	26
1967.9	26
1968.89	27
1969.87	22
1970.85	28
1971.84	30
1972.82	30
1973.81	24
1974.79	26
1975.78	25
1976.76	32
1977.74	30
1978.73	25
1979.71	22
1980.69	22
1981.67	26
1982.66	32
1983.64	22
1984.62	24
1985.6	26
1986.59	25
1987.57	28
1988.55	24
1989.53	24
1990.51	28
1991.49	28
1992.47	24
1993.45	24
1994.44	30
1995.42	26
1996.4	28
1997.38	30
1998.36	26
1999.34	24
2000.32	25
2001.3	23
2002.28	24
2003.26	30
2004.24	26
2005.22	28
2006.19	27
2007.17	23
2008.15	29
2009.13	26
2010.11	22
2011.09	24
2012.06	28
2013.04	31
2014.02	29
2015	27
2015.98	26
2016.95	31
2017.93	27
2018.91	27
2019.88	28
2020.86	22
2021.84	24
2022.81	24
2023.79	26
2024.77	30
2025.74	28
2026.72	27
2027.69	25
2028.67	28
2029.65	27
2030.62	28
2031.6	25
2032.57	28
2033.55	30
2034.52	24
2035.5	29
2036.47	28
2037.44	26
2038.42	27
2039.39	26
2040.36	29
2041.34	32
2042.31	24
2043.29	20
2044.26	25
2045.23	25
2046.2	24
2047.18	22
2048.15	28
2049.12	30
2050.09	24
2051.07	30
2052.04	29
2053.01	27
2053.98	24
2054.95	26
2055.93	26
2056.9	28
2057.87	27
2058.84	29
2059.81	22
2060.78	25
2061.75	23
2062.72	30
2063.69	26
2064.66	29
2065.63	29
2066.6	22
2067.57	27
2068.54	27
2069.51	24
2070.48	28
2071.45	29
2072.42	25
2073.38	30
2074.35	24
2075.32	26
2076.29	26
2077.26	30
2078.23	26
2079.19	24
2080.16	24
2081.13	30
2082.1	28
2083.06	28
2084.03	22
2085	27
2085.96	20
2086.93	26
2087.9	26
2088.86	21
2089.83	24
2090.8	23
2091.76	28
2092.73	25
2093.69	20
2094.66	29
2095.62	22
2096.59	29
2097.55	25
2098.52	22
2099.48	25
2100.45	30
2101.41	30
2102.38	22
2103.34	30
2104.31	26
2105.27	27
2106.23	28
2107.2	30
2108.16	26
2109.12	22
2110.09	28
2111.05	25
2112.01	28
2112.98	32
2113.94	23
2114.9	28
2115.86	22
2116.82	25
2117.79	26
2118.75	26
2119.71	29
2120.67	31
2121.63	23
2122.59	26
2123.55	25
2124.52	30
2125.48	26
2126.44	28
2127.4	26
2128.36	24
2129.32	24
2130.28	26
2131.24	28
2132.2	26
2133.16	28
2134.12	24
2135.08	22
2136.04	30
2136.99	30
2137.95	28
2138.91	26
2139.87	23
2140.83	26
2141.79	28
2142.75	24
2143.7	22
2144.66	30
2145.62	26.0114
2146.58	23.9759
2147.53	22.0897
2148.49	26.834
2149.45	25.9084
2150.41	24.8998
2151.36	30.6134
2152.32	25.8707
2153.27	24.3055
2154.23	22.0145
2155.19	25.0048
2156.14	24.2162
2157.1	24.8864
2158.06	26.8595
2159.01	24.0074
2159.97	23.4623
2160.92	22.9706
2161.88	21.3543
2162.83	28.6507
2163.79	29.2353
2164.74	24.6009
2165.7	25.2048
2166.65	30.1145
2167.61	27.8619
2168.56	22.9488
2169.51	27.0148
2170.47	24.0249
2171.42	25.1001
2172.38	26.6658
2173.33	23.3886
2174.28	28.8202
2175.24	24.0372
2176.19	25.2771
2177.14	24.6569
2178.09	23.4959
2179.05	27.4036
2180	25.7023
2180.95	25.3342
2181.9	25.4374
2182.86	26.6068
2183.81	25.0983
2184.76	25.9519
2185.71	27.11
2186.66	25.6985
2187.61	28.8905
2188.57	26.5631
2189.52	27.7514
2190.47	26.005
2191.42	29.8189
2192.37	26.7647
2193.32	26.9706
2194.27	26.9574
2195.22	22.8859
2196.17	24.8615
2197.12	27.6554
2198.07	24.7752
2199.02	26.9325
2199.97	24.3976
2200.92	23.7733
2201.87	27.0139
2202.82	26.7833
2203.76	25.7442
2204.71	22.3168
2205.66	24.9206
2206.61	20.7836
2207.56	25.7796
2208.51	27.5033
2209.45	24.8222
2210.4	23.3431
2211.35	21.2105
2212.3	23.8998
2213.24	27.1132
2214.19	23.367
2215.14	23.764
2216.09	25.8481
2217.03	24.8742
2217.98	21.0547
2218.93	26.8529
2219.87	27.0803
2220.82	23.8746
2221.77	27.4077
2222.71	25.9168
2223.66	23.6176
2224.6	25.6395
2225.55	22.998
2226.49	26.2098
2227.44	23.826
2228.38	23.0997
2229.33	24.2224
2230.27	26.7441
2231.22	27.6618
2232.16	26.4566
2233.11	23.7264
2234.05	23.0695
2235	25.3722
2235.94	28.1622
2236.88	25.0905
2237.83	25.0441
2238.77	26.4942
2239.71	23.5778
2240.66	24.3335
2241.6	25.4137
2242	25
2242.95	23
2243.9	24
2244.84	28
2245.79	26
2246.74	23
2247.69	27
2248.63	28
2249.58	26
2250.53	22
2251.47	30
2252.42	30
2253.37	22
2254.31	25
2255.26	24
2256.2	27
2257.15	26
2258.1	24
2259.04	30
2259.99	22
2260.93	23
2261.88	28
2262.82	22
2263.77	29
2264.71	24
2265.65	24
2266.6	28
2267.54	22
2268.49	28
2269.43	30
2270.38	26
2271.32	30
2272.26	24
2273.21	30
2274.15	28
2275.09	22
2276.04	26
2276.98	27
2277.92	31
2278.86	30
2279.81	27
2280.75	30
2281.69	25
2282.63	26
2283.57	24
2284.52	27
2285.46	23
2286.4	27
2287.34	24
2288.28	18
2289.22	25
2290.16	25
2291.1	28
2292.04	24
2292.98	30
2293.93	24
2294.86	26
2295.8	24
2296.74	28
2297.69	25
2298.62	24
2299.56	25
2300.5	25
2301.44	28
2302.38	29
2303.32	24
2304.26	26
2305.2	25
2306.14	23
2307.07	22
2308.01	31
2308.95	24
2309.89	22
2310.83	25
2311.76	28
2312.7	27
2313.64	29
2314.58	24
2315.51	27
2316.45	25
2317.39	29
2318.32	29
2319.26	27
2320.2	24
2321.13	26
2322.07	28
2323	24
2323.94	29
2324.88	29
2325.81	28
2326.75	28
2327.68	25
2328.62	30
2329.55	26
2330.49	24
2331.42	27
2332.36	26
2333.29	26
2334.22	28
2335.16	25
2336.09	25
2337.03	33
2337.96	27
2338.89	25
2339.83	21
2340.76	26
2341.69	24
2342.63	27
2343.56	26
2344.49	30
2345.43	26
2346.36	30
2347.29	27
2348.22	27
2349.15	28
2350.09	25
2351.02	26
2351.95	30
2352.88	30
2353.81	27
2354.74	23
2355.67	26
2356.61	24
2357.54	28
2358.47	26
2359.4	26
2360.33	25
2361.26	31
2362.19	26
2363.12	26
2364.05	25
2364.98	27
2365.91	28
2366.84	26
2367.77	28
2368.7	28
2369.62	28
2370.55	20
2371.48	31
2372.41	24
2373.34	26
2374.27	26
2375.2	30
2376.12	30
2377.05	30
2377.98	29
2378.91	27
2379.83	28
2380.76	28
2381.69	26
2382.62	28
2383.54	24
2384.47	25
2385.4	28
2386.32	23
2387.25	28
2388.18	29
2389.1	24
2390.03	30
2390.95	25
2391.88	25
2392.81	30
2393.73	20
2394.66	26
2395.58	24
2396.51	31
2397.43	27
2398.36	30
2399.28	29
2400.2	28
2401.13	25
2402.05	33
2402.98	24
2403.9	29
2404.83	23
2405.75	23
2406.67	27
2407.6	20
2408.52	26
2409.44	32
2410.37	26
2411.29	27
2412.21	26
2413.13	29
2414.06	26
2414.98	28
2415.9	28
2416.82	22
2417.74	27
2418.67	29
2419.59	27
2420.51	26
2421.43	28
2422.35	27
2423.27	29
2424.19	26
2425.11	18
2426.03	30
2426.96	20
2427.88	28
2428.8	22
2429.72	26
2430.64	22
2431.56	26
2432.48	22
2433.39	28
2434.31	28
2435.23	28
2436.15	24
2437.07	27
2437.99	28
2438.91	30
2439.83	26
2440.75	30
2441.67	30
2442.58	28
2443.5	32
2444.42	23
2445.34	25
2446.26	23
2447.17	26
2448.09	24
2449.01	24
2449.92	28
2450.84	26
2451.76	26
2452.68	28
2453.59	24
2454.51	30
2455.42	26
2456.34	20
2457.26	30
2458.17	28
2459.09	27
2460	24
2460.92	31
2461.83	26
2462.75	22
2463.66	29
2464.58	27
2465.49	32
2466.41	24
2467.32	23
2468.24	24
2469.15	29
2470.07	27
2470.98	30
2471.89	24
2472.81	30
2473.72	28
2474.64	26
2475.55	26
2476.46	25
2477.37	26
2478.29	25
2479.2	29
2480.11	27
2481.03	26
2481.94	23
2482.85	30
2483.76	28
2484.67	30
2485.59	24
2486.5	26
2487.41	30
2488.32	28
2489.23	28
2490.14	26
2491.05	28
2491.97	24
2492.88	26
2493.79	25
2494.7	28
2495.61	24
2496.52	30
2497.43	25
2498.34	27
2499.25	27
2500.16	26
2501.07	24
2501.98	22
2502.89	28
2503.79	26
2504.7	28
2505.61	30
2506.52	28
2507.43	23
2508.34	32
2509.25	30
2510.16	29
2511.06	27
2511.97	30
2512.88	27
2513.79	25
2514.69	26
2515.6	28
2516.51	25
2517.42	31
2518.32	26
2519.23	30
2520.14	24
2521.04	20
2521.95	25
2522.86	28
2523.76	26
2524.67	28
2525.57	25
2526.48	28
2527.39	24
2528.29	31
2529.2	23
2530.1	29
2531.01	28
2531.91	29
2532.82	30
2533.72	29
2534.63	27
2535.53	30
2536.44	29
2537.34	27
2538.24	28
2539.15	30
2540.05	26
2540.96	24
2541.86	23
2542.76	30
2543.67	29
2544.57	27
2545.47	31
2546.37	23
2547.28	25
2548.18	28
2549.08	29
2549.99	27
2550.89	23
2551.79	28
2552.69	26
2553.59	31
2554.49	25
2555.4	31
2556.3	26
2557.2	24
2558.1	26
2559	26
2559.9	33
2560.8	26
2561.7	30
2562.6	24
2563.5	24
2564.4	28
2565.3	32
2566.2	26
2567.1	22
2568	26
2568.9	28
2569.8	29
2570.7	26
2571.6	29
2572.5	24
2573.4	30
2574.3	32
2575.2	27
2576.1	26
2576.99	29
2577.89	30
2578.79	31
2579.69	22
2580.59	22
2581.48	24
2582.38	24
2583.28	26
2584.18	32
2585.07	24
2585.97	23
2586.87	25
2587.76	28
2588.66	23
2589.56	27
2590.45	28
2591.35	26
2592.25	26
2593.14	30
2594.04	26
2594.93	26
2595.83	30
2596.73	29
2597.62	25
2598.52	27
2599.41	22
2600.31	29
2601.2	22
2602.1	26
2602.99	24
2603.88	30
2604.78	24
2605.67	28
2606.57	26
2607.46	31
2608.35	28
2609.25	27
2610.14	28
2611.03	26
2611.93	31
2612.82	29
2613.71	23
2614.61	28
2615.5	27
2616.39	30
2617.29	26
2618.18	27
2619.07	26
2619.96	28
2620.85	26
2621.75	26
2622.64	28
2623.53	26
2624.42	23
2625.31	27
2626.2	33
2627.09	31
2627.98	28
2628.88	24
2629.77	26
2630.66	25
2631.55	30
2632.44	28
2633.33	32
2634.22	23
2635.11	28
2636	29
2636.89	29
2637.78	29
2638.66	24
2639.55	25
2640.44	29
2641.33	33
2642.22	27
2643.11	24
2644	24
2644.89	27
2645.78	22
2646.66	26
2647.55	29
2648.44	22
2649.33	31
2650.21	30
2651.1	26
2651.99	28
2652.88	28
2653.76	26
2654.65	23
2655.54	30
2656.42	20
2657.31	29
2658.2	28
2659.08	29
2659.97	28
2660.86	27
2661.74	32
2662.63	22
2663.51	31
2664.4	31
2665.29	29
2666.17	26
2667.06	26
2667.94	27
2668.83	28
2669.71	27
2670.6	26
2671.48	29
2672.36	30
2673.25	27
2674.13	27
2675.02	25
2675.9	24
2676.78	28
2677.67	31
2678.55	28
2679.43	27
2680.32	22
2681.2	28
2682.08	24
2682.97	28
2683.85	25
2684.73	27
2685.61	26
2686.5	26
2687.38	28
2688.26	28
2689.14	26
2690.03	33
2690.91	31
2691.79	26
2692.67	22
2693.55	28
2694.43	31
2695.31	32
2696.19	26
2697.08	27
2697.96	29
2698.84	29
2699.72	27
2700.6	22
2701.48	28
2702.36	29
2703.24	24
2704.12	29
2705	25
2705.88	24
2706.76	28
2707.64	28
2708.51	30
2709.39	30
2710.27	28
2711.15	24
2712.03	28
2712.91	28
2713.79	23
2714.67	22
2715.54	27
2716.42	26
2717.3	26
2718.18	28
2719.05	30
2719.93	27
2720.81	31
2721.69	33
2722.56	29
2723.44	29
2724.32	26
2725.19	24
2726.07	26
2726.95	27
2727.82	27
2728.7	24
2729.58	27
2730.45	28
2731.33	29
2732.2	30
2733.08	30
2733.95	26
2734.83	22
2735.7	31
2736.58	23
2737.45	26
2738.33	24
2739.2	32
2740.08	26
2740.95	29
2741.83	24
2742.7	28
2743.58	25
2744.45	25
2745.32	29
2746.2	30
2747.07	28
2747.94	23
2748.82	22
2749.69	27
2750.56	27
2751.44	26
2752.31	26
2753.18	31
2754.05	26
2754.93	20
2755.8	28
2756.67	28
2757.54	23
2758.42	26
2759.29	28
2760.16	26
2761.03	24
2761.9	27
2762.77	30
2763.64	28
2764.51	29
2765.38	24
2766.26	30
2767.13	28
2768	25
2768.87	27
2769.74	27
2770.61	29
2771.48	29
2772.35	27
2773.22	29
2774.09	24
2774.96	30
2775.83	32
2776.7	29
2777.56	29
2778.43	27
2779.3	26
2780.17	31
2781.04	29
2781.91	30
2782.78	26
2783.64	28
2784.51	26
2785.38	28
2786.25	32
2787.12	28
2787.98	25
2788.85	24
2789.72	27
2790.59	29
2791.45	22
2792.32	30
2793.19	22
2794.05	30
2794.92	29
2795.79	30
2796.65	30
2797.52	23
2798.38	24
2799.25	32
2800.12	26
2800.98	30
2801.85	32
2802.71	22
2803.58	26
2804.44	30
2805.31	27
2806.17	22
2807.04	27
2807.9	24
2808.77	25
2809.63	27
2810.5	28
2811.36	26
2812.22	29
2813.09	27
2813.95	24
2814.82	33
2815.68	29
2816.54	27
2817.41	24
2818.27	30
2819.13	27
2820	31
2820.86	30
2821.72	28
2822.58	28
2823.45	29
2824.31	28
2825.17	29
2826.03	28
2826.9	30
2827.76	28
2828.62	32
2829.48	30
2830.34	29
2831.2	29
2832.06	32
2832.92	26
2833.79	32
2834.65	28
2835.51	28
2836.37	31
2837.23	28
2838.09	29
2838.95	24
2839.81	26
2840.67	26
2841.53	29
2842.39	28
2843.25	28
2844.11	31
2844.97	29
2845.83	34
2846.68	31
2847.54	28
2848.4	20
2849.26	26
2850.12	26
2850.98	27
2851.84	25
2852.69	24
2853.55	20
2854.41	28
2855.27	33
2856.13	25
2856.98	30
2857.84	24
2858.7	24
2859.56	25
2860.41	25
2861.27	33
2862.13	29
2862.98	25
2863.84	31
2864.7	29
2865.55	26
2866.41	29
2867.27	28
2868.12	28
2868.98	34
2869.83	28
2870.69	30
2871.54	30
2872.4	32
2873.25	28
2874.11	30
2874.96	30
2875.82	27
2876.68	29
2877.53	31
2878.38	26
2879.24	29
2880.09	32
2880.95	32
2881.8	30
2882.65	33
2883.51	31
2884.36	34
2885.22	36
2886.07	32
2886.92	31
2887.77	30
2888.63	37
2889.48	36
2890.33	38
2891.19	38
2892.04	36
2892.89	38
2893.74	34
2894.6	37
2895.45	40
2896.3	42
2897.15	46
2898	50
2898.85	48
2899.71	57
2900.56	48
2901.41	52
2902.26	54
2903.11	58
2903.96	57
2904.81	60
2905.66	56
2906.51	56
2907.36	57
2908.21	59
2909.06	61
2909.91	52
2910.76	54
2911.61	53
2912.46	56
2913.31	50
2914.16	36
2915.01	48
2915.86	44
2916.71	38
2917.56	44
2918.41	40
2919.26	42
2920.1	38
2920.95	38
2921.8	33
2922.65	35
2923.5	38
2924.34	32
2925.19	33
2926.04	32
2926.89	31
2927.74	34
2928.58	31
2929.43	32
2930.28	34
2931.12	28
2931.97	31
2932.82	24
2933.66	33
2934.51	30
2935.36	27
2936.2	33
2937.05	31
2937.89	31
2938.74	30
2939.59	30
2940.43	29
2941.28	34
2942.12	26
2942.97	29
2943.81	30
2944.66	35
2945.5	29
2946.35	38
2947.19	26
2948.04	30
2948.88	30
2949.72	29
2950.57	32
2951.41	29
2952.26	31
2953.1	28
2953.94	28
2954.79	30
2955.63	30
2956.47	32
2957.32	36
2958.16	35
2959	36
2959.85	35
2960.69	41
2961.53	32
2962.37	39
2963.22	42
2964.06	38
2964.9	38
2965.74	40
2966.58	44
2967.42	43
2968.27	42
2969.11	42
2969.95	39
2970.79	35
2971.63	44
2972.47	28
2973.31	34
2974.15	34
2974.99	30
2975.83	37
2976.68	34
2977.52	32
2978.36	35
2979.2	29
2980.04	36
2980.88	34
2981.71	30
2982.55	28
2983.39	29
2984.23	30
2985.07	26
2985.91	30
2986.75	28
2987.59	24
2988.43	28
2989.27	33
2990.1	26
2990.94	29
2991.78	28
2992.62	31
2993.46	22
2994.3	31
2995.13	26
2995.97	34
2996.81	24
2997.64	27
2998.48	28
2999.32	24
