#Acq. time (s)=	3
#Accumulations=	3
#Range (cm-¹)=	100...3000
#Windows=	3
#Autofocus=	Off
#AutoExposure=	Off
#Spike filter=	Multiple accum.
#Delay time (s)=	0
#Binning=	1
#Readout mode=	Signal
#DeNoise=	Off
#ICS correction=	Off
#Dark correction=	Off
#Inst. Process=	Off
#Instrument=	LabRAM HR Evol
#Detector=	Syncerity OE
#Objective=	x100_VIS_LWD
#Grating=	600 (500nm)
#ND Filter=	25%
#Laser=	633nm_Edge
#Hole=	100.021
#Range=	Visible
#Project=	Bolus
#Sample=	A1
#Site=	stripside
#Title=	m13
#Remark=	
#Date=	03.11.2025 18:49
#Acquired=	03.11.2025 18:49:44
100.969	29
102.252	34
103.535	40
104.818	32
106.101	36
107.384	35
108.666	32
109.948	35
111.232	26
112.514	37
113.795	38
115.077	31
116.358	37
117.639	30
118.919	33
120.2	34
121.48	34
122.76	38
124.04	35
125.32	37
126.599	34
127.879	33
129.158	35
130.436	41
131.715	40
132.992	41
134.27	36
135.548	40
136.826	36
138.104	34
139.381	42
140.658	34
141.935	35
143.212	39
144.489	40
145.763	40
147.04	45
148.315	43
149.591	37
150.867	40
152.142	41
153.416	38
154.691	39
155.965	43
157.24	41
158.514	43
159.786	48
161.06	42
162.334	40
163.607	32
164.881	39
166.152	40
167.425	44
168.698	41
169.969	36
171.241	41
172.513	42
173.785	44
175.055	40
176.326	38
177.597	42
178.867	42
180.137	42
181.408	36
182.677	40
183.947	38
185.217	48
186.485	44
187.755	44
189.022	37
190.291	42
191.56	46
192.828	44
194.096	39
195.363	42
196.631	42
197.899	43
199.165	40
200.432	45
201.698	40
202.965	42
204.23	38
205.497	35
206.762	36
208.028	40
209.293	35
210.559	38
211.823	38
213.088	31
214.352	38
215.617	35
216.88	38
218.145	36
219.408	32
220.672	37
221.934	36
223.196	37
224.46	38
225.722	34
226.985	34
228.246	41
229.508	39
230.77	33
232.031	42
233.292	35
234.554	30
235.814	38
237.074	32
238.335	35
239.595	34
240.854	33
242.115	34
243.374	36
244.633	32
245.893	38
247.151	32
248.409	34
249.667	37
250.927	33
252.184	38
253.442	37
254.699	34
255.957	34
257.214	36
258.47	37
259.727	37
260.983	40
262.24	32
263.496	32
264.752	34
266.007	34
267.262	34
268.517	28
269.773	32
271.028	33
272.282	34
273.536	37
274.79	32
276.044	29
277.297	32
278.551	34
279.804	33
281.057	32
282.31	36
283.564	30
284.816	32
286.068	37
287.32	30
288.572	26
289.823	36
291.074	32
292.325	32
293.576	32
294.827	33
296.077	34
297.328	30
298.578	37
299.828	34
301.077	32
302.325	32
303.575	37
304.824	36
306.073	33
307.321	36
308.57	30
309.818	34
311.066	35
312.314	38
313.562	28
314.808	36
316.055	32
317.302	32
318.549	33
319.796	36
321.042	35
322.288	32
323.533	33
324.779	35
326.024	31
327.27	33
328.515	34
329.759	32
331.004	28
332.248	33
333.493	38
334.736	32
335.98	40
337.223	34
338.466	37
339.709	36
340.952	34
342.195	32
343.437	31
344.68	38
345.922	33
347.163	33
348.405	40
349.647	36
350.887	36
352.128	37
353.37	35
354.609	34
355.85	34
357.089	34
358.33	29
359.57	38
360.809	34
362.049	37
363.287	33
364.526	38
365.764	34
367.003	36
368.241	37
369.479	33
370.718	34
371.955	34
373.193	33
374.429	30
375.667	34
376.903	34
378.139	36
379.376	36
380.611	30
381.848	36
383.083	34
384.319	33
385.554	34
386.79	34
388.024	32
389.258	38
390.493	38
391.727	35
392.962	35
394.195	34
395.428	38
396.663	35
397.895	37
399.128	34
400.361	34
401.593	35
402.825	37
404.058	34
405.29	39
406.521	30
407.752	35
408.985	38
410.215	35
411.446	30
412.678	34
413.908	37
415.138	34
416.367	34
417.597	37
418.828	40
420.057	33
421.286	35
422.514	32
423.743	34
424.973	34
426.201	34
427.429	32
428.657	34
429.884	35
431.112	35
432.34	31
433.567	37
434.794	33
436.02	28
437.247	35
438.473	34
439.699	36
440.925	35
442.15	36
443.376	34
444.601	36
445.826	30
447.051	36
448.275	38
449.5	36
450.724	34
451.948	40
453.172	30
454.396	34
455.619	30
456.842	35
458.065	32
459.288	36
460.511	38
461.733	39
462.956	37
464.178	41
465.4	36
466.621	34
467.843	42
469.064	36
470.285	40
471.505	38
472.726	38
473.946	39
475.166	37
476.387	40
477.606	48
478.825	49
480.044	44
481.264	46
482.483	50
483.702	60
484.921	52
486.138	60
487.356	59
488.574	53
489.792	62
491.009	60
492.226	54
493.444	55
494.661	51
495.877	50
497.094	53
498.31	50
499.525	50
500.741	44
501.958	49
503.172	51
504.388	43
505.603	48
506.817	44
508.032	40
509.247	39
510.46	42
511.675	41
512.888	41
514.102	36
515.316	32
516.528	34
517.742	36
518.954	36
520.167	39
521.378	40
522.591	40
523.802	34
525.015	37
526.226	39
527.438	35
528.648	46
529.86	32
531.07	38
532.281	33
533.491	37
534.702	32
535.911	34
537.121	39
538.33	34
539.54	32
540.749	34
541.957	36
543.167	31
544.375	45
545.584	31
546.791	38
547.999	38
549.207	36
550.414	30
551.621	36
552.829	40
554.035	40
555.241	36
556.449	35
557.655	30
558.86	38
560.066	37
561.272	35
562.477	36
563.682	34
564.888	37
566.093	32
567.297	30
568.501	30
569.705	33
570.91	30
572.114	35
573.317	38
574.52	35
575.723	34
576.927	32
578.13	39
579.332	34
580.535	32
581.737	37
582.938	36
584.14	31
585.343	35
586.544	37
587.745	36
588.946	35
590.147	38
591.347	36
592.548	32
593.748	33
594.948	33
596.147	30
597.347	28
598.546	35
599.745	38
600.944	30
602.143	33
603.342	38
604.54	28
605.738	34
606.937	33
608.134	36
609.332	41
610.529	40
611.727	33
612.924	40
614.121	40
615.317	34
616.513	33
617.709	32
618.905	34
620.101	36
621.297	38
622.492	36
623.688	24
624.883	34
626.077	33
627.271	28
628.466	29
629.66	26
630.855	31
632.047	33
633.241	30
634.435	38
635.629	38
636.82	30
638.014	32
639.207	38
640.399	34
641.59	37
642.783	41
643.975	29
645.166	34
646.357	34
647.549	37
648.741	32
649.93	34
651.122	30
652.311	36
653.502	33
654.692	34
655.881	38
657.071	39
658.261	35
659.45	38
660.639	37
661.827	36
663.016	36
664.204	37
665.393	32
666.581	33
667.769	38
668.957	38
670.143	41
671.331	36
672.518	41
673.705	32
674.891	36
676.078	41
677.264	39
678.451	37
679.636	40
680.821	40
682.007	34
683.192	36
684.378	34
685.562	40
686.747	42
687.931	38
689.115	44
690.3	35
691.483	36
692.666	41
693.851	43
695.034	41
696.216	43
697.4	39
698.582	40
699.764	41
700.948	42
702.129	46
703.311	45
704.493	48
705.674	47
706.855	44
708.036	57
709.218	47
710.399	49
711.579	55
712.759	47
713.939	44
715.12	38
716.299	42
717.478	40
718.657	40
719.836	39
721.015	41
722.195	37
723.373	32
724.552	36
725.729	37
726.907	36
728.085	34
729.262	38
730.44	34
731.617	38
732.795	36
733.972	35
735.148	30
736.324	35
737.501	38
738.677	34
739.852	39
741.028	32
742.203	30
743.379	28
744.554	35
745.729	32
746.903	38
748.078	34
749.252	34
750.426	36
751.599	33
752.772	42
753.946	34
755.119	35
756.293	38
757.466	36
758.639	35
759.811	32
760.984	33
762.155	34
763.327	32
764.499	36
765.67	37
766.842	30
768.013	32
769.183	35
770.354	38
771.525	34
772.696	37
773.865	35
775.035	36
776.205	38
777.375	31
778.544	40
779.713	34
780.882	38
782.052	37
783.219	38
784.388	36
785.557	40
786.724	40
787.892	36
789.06	37
790.227	36
791.395	38
792.562	40
793.728	35
794.895	36
796.061	36
797.228	34
798.395	36
799.56	32
800.726	38
801.891	37
803.057	34
804.221	32
805.387	40
806.551	38
807.716	34
808.879	34
810.044	38
811.208	36
812.372	35
813.535	34
814.699	36
815.862	32
817.025	36
818.188	33
819.351	40
820.513	32
821.675	32
822.837	32
823.999	37
825.161	42
826.322	34
827.483	24
828.645	35
829.805	34
830.966	33
832.127	30
833.287	32
834.447	32
835.607	36
836.767	28
837.926	35
839.085	32
840.245	39
841.404	36
842.562	28
843.72	38
844.88	33
846.038	36
847.195	36
848.353	28
849.512	32
850.669	35
851.826	37
852.983	36
854.139	35
855.296	36
856.453	33
857.609	33
858.765	33
859.921	38
861.077	36
862.232	34
863.387	37
864.542	37
865.697	35
866.852	30
868.008	35
869.162	34
870.316	34
871.47	37
872.624	34
873.778	36
874.931	32
876.084	36
877.237	33
878.39	34
879.543	34
880.695	35
881.846	36
882.999	38
884.151	36
885.302	33
886.454	28
887.606	38
888.757	37
889.908	37
891.059	32
892.21	34
893.359	37
894.509	31
895.659	36
896.81	31
897.959	30
899.109	40
900.257	35
901.407	34
902.556	34
903.705	34
904.854	35
906.001	35
907.149	38
908.298	35
909.446	30
910.592	34
911.74	30
912.888	34
914.034	32
915.181	36
916.328	31
917.473	34
918.62	28
919.766	36
920.911	30
922.058	34
923.204	38
924.348	38
925.494	32
926.638	35
927.783	32
928.928	34
930.072	36
931.216	39
932.36	31
933.504	34
934.647	36
935.791	30
936.933	36
938.077	31
939.219	32
940.363	28
941.504	34
942.647	37
943.789	36
944.932	33
946.073	36
947.215	28
948.356	26
949.498	35
950.638	32
951.778	36
952.92	38
954.06	33
955.199	30
956.34	36
957.479	32
958.62	30
959.759	32
960.898	32
962.038	26
963.176	36
964.315	34
965.453	31
966.592	33
967.73	29
968.867	32
970.006	37
971.144	35.5
972.281	33
973.418	30
974.554	26
975.692	34
976.829	32
977.965	32
979.101	26
980.237	30
981.374	33
982.509	37
983.645	33
984.78	35
985.915	33
987.05	37
988.184	33
989.319	33
990.453	32
991.589	33
992.722	24
993.856	30
994.99	38
996.123	32
997.257	30
998.39	30
999.523	28
1000.66	30
1001.79	33
1002.92	35
1004.05	35
1005.18	32
1006.32	34
1007.45	35
1008.58	32
1009.71	28
1010.84	32
1011.97	24
1013.1	34
1014.23	30
1015.36	32
1016.49	38
1017.62	33
1018.75	33
1019.88	32
1021.01	40
1022.14	32
1023.27	36
1024.4	30
1025.53	32
1026.66	30
1027.79	34
1028.91	33
1030.04	31
1031.17	32
1032.3	34
1033.42	33
1034.55	35
1035.68	28
1036.81	32
1037.93	33
1039.06	28
1040.18	29
1041.31	30
1042.44	31
1043.56	34
1044.69	37
1045.81	30
1046.94	33
1048.06	38
1049.19	36
1050.31	38
1051.44	36
1052.56	30
1053.69	28
1054.81	36
1055.93	33
1057.06	34
1058.18	32
1059.3	28
1060.43	28
1061.55	32
1062.67	29
1063.79	30
1064.92	31
1066.04	36
1067.16	40
1068.28	30
1069.4	32
1070.52	28
1071.65	31
1072.77	32
1073.89	28
1075.01	33
1076.13	31
1077.25	34
1078.37	34
1079.49	32
1080.61	34
1081.73	32
1082.85	27
1083.97	30
1085.09	33
1086.2	28
1087.32	32
1088.44	34
1089.56	39
1090.68	25
1091.8	34
1092.91	28
1094.03	33
1095.15	28
1096.26	29
1097.38	34
1098.5	33
1099.61	32
1100.73	32
1101.85	28
1102.96	34
1104.08	33
1105.19	22
1106.31	31
1107.43	32
1108.54	30
1109.66	30
1110.77	30
1111.88	36
1113	31
1114.11	34
1115.23	26
1116.34	36
1117.46	34
1118.57	30
1119.68	30
1120.8	34
1121.91	30
1123.02	30
1124.13	32
1125.25	30
1126.36	28
1127.47	31
1128.58	32
1129.69	33
1130.8	33
1131.92	29
1133.03	38
1134.14	32
1135.25	31
1136.36	26
1137.47	35
1138.58	30
1139.69	34
1140.8	29
1141.91	36
1143.02	35
1144.13	38
1145.24	31
1146.35	34
1147.46	30
1148.56	32
1149.67	40
1150.78	32
1151.89	33
1153	34
1154.1	28
1155.21	30
1156.32	30
1157.43	28
1158.53	31
1159.64	28
1160.75	28
1161.85	31
1162.96	31
1164.07	33
1165.17	35
1166.28	31
1167.38	31
1168.49	32
1169.59	29
1170.7	34
1171.8	34
1172.91	32
1174.01	29
1175.12	27
1176.22	35
1177.32	30
1178.43	26
1179.53	28
1180.64	28
1181.74	30
1182.84	29
1183.94	35
1185.05	32
1186.15	31
1187.25	31
1188.35	25
1189.46	31
1190.56	29
1191.66	33
1192.76	30
1193.86	28
1194.96	26
1196.06	30.0147
1197.16	31.9732
1198.26	28.0549
1199.37	32.9466
1200.47	31.8831
1201.57	32.7892
1202.67	30.9018
1203.77	32.6665
1204.86	28.0443
1205.96	35.5935
1207.06	30.9328
1208.16	29.6618
1209.26	31.45
1210.36	29.4665
1211.46	31.1487
1212.56	29.3932
1213.65	27.5124
1214.75	26.9958
1215.85	29.6373
1216.95	30.7014
1218.04	29.6292
1219.14	28.7497
1220.24	28.3151
1221.33	25.4643
1222.43	30.2794
1223.53	29.5741
1224.62	27.2509
1225.72	32.1769
1226.82	25.1318
1227.91	31.464
1229.01	31.1133
1230.1	30.0149
1231.2	27.6281
1232.29	32.0329
1233.39	31.1522
1234.48	29.8087
1235.58	30.4316
1236.67	30.6879
1237.77	30.9804
1238.86	30.7339
1239.95	31.867
1241.05	26.9802
1242.14	26.8333
1243.23	32.0613
1244.33	31.9389
1245.42	28.7926
1246.51	30.2184
1247.61	29.5424
1248.7	30.6852
1249.79	30.7647
1250.88	27.1977
1251.97	30.3021
1253.07	27.6278
1254.16	29.3789
1255.25	31.0069
1256.34	30.434
1257.43	29.0585
1258.52	30.6814
1259.61	28.7257
1260.7	30.5845
1261.79	30.2606
1262.88	29.8956
1263.97	30.285
1265.06	33.053
1266.15	31.0124
1267.24	28.5345
1268.33	26.7433
1269.42	28.6765
1270.51	28.6692
1271.6	25.1943
1272.68	26.4684
1273.77	27.8971
1274.86	28.1824
1275.95	29.6827
1277.04	28.1894
1278.12	28.1918
1279.21	29.3383
1280.3	23.4494
1281.39	27.313
1282.47	26.0033
1283.56	24.8304
1284.65	25.5098
1285.73	29.6609
1286.82	31.0445
1287.91	30.417
1288.99	28.8494
1290.08	30.1765
1291.16	31.4631
1292.25	28.5876
1293.33	25.8553
1294.42	26.3436
1295.5	27.7429
1296.59	29.2767
1297.67	32.8522
1298.76	28.7978
1299.84	30.1275
1300.92	29.6013
1302.01	26.7638
1303.09	24.2665
1304.17	27.5163
1305.26	31
1306.34	30.9755
1307.34	31
1308.43	24
1309.52	28
1310.61	28
1311.7	33
1312.78	26
1313.87	26
1314.96	26
1316.04	31
1317.13	26
1318.22	28
1319.3	28
1320.39	26
1321.48	28
1322.56	32
1323.65	30
1324.73	25
1325.82	26
1326.9	28
1327.99	28
1329.07	32
1330.16	32
1331.24	26
1332.33	28
1333.41	27
1334.5	30
1335.58	27
1336.66	27
1337.75	32
1338.83	31
1339.91	31
1341	28
1342.08	30
1343.16	26
1344.24	30
1345.33	26
1346.41	24
1347.49	28
1348.57	20
1349.65	26
1350.74	26
1351.82	32
1352.9	25
1353.98	30
1355.06	28
1356.14	24
1357.22	29
1358.3	31
1359.38	30
1360.46	31
1361.54	29
1362.62	29
1363.7	26
1364.78	32
1365.86	24
1366.94	36
1368.02	29
1369.09	26
1370.17	32
1371.25	32
1372.33	28
1373.41	27
1374.48	32
1375.56	29
1376.64	29
1377.72	29
1378.79	29
1379.87	25
1380.95	30
1382.02	27
1383.1	32
1384.17	26
1385.25	34
1386.33	29
1387.4	27
1388.48	26
1389.55	31
1390.63	30
1391.7	36
1392.78	29
1393.85	28
1394.93	28
1396	29
1397.07	30
1398.15	30
1399.22	36
1400.3	27
1401.37	31
1402.44	31
1403.52	33
1404.59	30
1405.66	31
1406.73	30
1407.81	32
1408.88	30
1409.95	38
1411.02	38
1412.09	32
1413.17	32
1414.24	34
1415.31	35
1416.38	38
1417.45	34
1418.52	32
1419.59	34
1420.66	32
1421.73	31
1422.8	31
1423.87	32
1424.94	29
1426.01	27
1427.08	30
1428.15	33
1429.22	32
1430.29	27
1431.35	26
1432.42	28
1433.49	28
1434.56	28
1435.63	27
1436.69	28
1437.76	34
1438.83	29
1439.9	28
1440.96	33
1442.03	27
1443.1	26
1444.17	31
1445.23	29
1446.3	31
1447.36	33
1448.43	33
1449.49	27
1450.56	32
1451.63	28
1452.69	24
1453.76	22
1454.82	32
1455.89	28
1456.95	25
1458.01	34
1459.08	28
1460.14	24
1461.21	30
1462.27	28
1463.34	28
1464.4	29
1465.46	29
1466.52	28
1467.59	29
1468.65	30
1469.71	26
1470.77	34
1471.84	26
1472.9	27
1473.96	31
1475.02	26
1476.08	29
1477.15	30
1478.21	31
1479.27	31
1480.33	29
1481.39	29
1482.45	28
1483.51	30
1484.57	32
1485.63	24
1486.69	30
1487.75	33
1488.81	25
1489.87	30
1490.93	26
1491.99	27
1493.05	27
1494.1	34
1495.16	22
1496.22	28
1497.28	31
1498.34	25
1499.4	34
1500.45	31
1501.51	33
1502.57	30
1503.63	36
1504.68	33
1505.74	31
1506.8	28
1507.85	28
1508.91	28
1509.97	35
1511.02	30
1512.08	32
1513.13	24
1514.19	32
1515.24	24
1516.3	30
1517.35	30
1518.41	34
1519.46	26
1520.52	33
1521.57	24
1522.63	30
1523.68	26
1524.73	30
1525.79	31
1526.84	27
1527.9	31
1528.95	26
1530	29
1531.05	26
1532.11	28
1533.16	32
1534.21	27
1535.26	28
1536.32	28
1537.37	27
1538.42	27
1539.47	31
1540.52	27
1541.57	26
1542.63	31
1543.68	22
1544.73	33
1545.78	34
1546.83	31
1547.88	32
1548.93	29
1549.98	30
1551.03	33
1552.08	24
1553.13	28
1554.18	28
1555.23	22
1556.27	32
1557.32	34
1558.37	28
1559.42	31
1560.47	27
1561.52	30
1562.56	25
1563.61	31
1564.66	34
1565.71	31
1566.75	28
1567.8	34
1568.85	29
1569.9	32
1570.94	34
1571.99	26
1573.03	30
1574.08	27
1575.13	27
1576.17	20
1577.22	29
1578.26	26
1579.31	28
1580.35	26
1581.4	30
1582.44	26
1583.49	31
1584.53	32
1585.58	26
1586.62	28
1587.66	29
1588.71	26
1589.75	28
1590.8	35
1591.84	34
1592.88	26
1593.92	28
1594.97	26
1596.01	32
1597.05	32
1598.1	27
1599.14	30
1600.18	30
1601.22	30
1602.26	32
1603.3	32
1604.35	27
1605.39	32
1606.43	31
1607.47	27
1608.51	28
1609.55	26
1610.59	31
1611.63	30
1612.67	26
1613.71	32
1614.75	30
1615.79	31
1616.83	30
1617.87	30
1618.91	28
1619.95	31
1620.99	25
1622.02	31
1623.06	26
1624.1	24
1625.14	28
1626.18	28
1627.21	30
1628.25	30
1629.29	34
1630.33	27
1631.36	26
1632.4	30
1633.44	30
1634.48	29
1635.51	23
1636.55	32
1637.58	32
1638.62	27
1639.66	33
1640.69	34
1641.73	29
1642.76	28
1643.8	33
1644.83	28
1645.87	30
1646.9	27
1647.94	26
1648.97	30
1650	24
1651.04	28
1652.07	30
1653.11	28
1654.14	35
1655.17	28
1656.21	29
1657.24	28
1658.27	32
1659.31	30
1660.34	28
1661.37	30
1662.4	24
1663.43	26
1664.47	32
1665.5	28
1666.53	32
1667.56	30
1668.59	30
1669.62	33
1670.66	25
1671.69	27
1672.72	28
1673.75	27
1674.78	32
1675.81	28
1676.84	26
1677.87	34
1678.9	24
1679.93	29
1680.96	26
1681.98	30
1683.01	24
1684.04	29
1685.07	30
1686.1	26
1687.13	28
1688.16	32
1689.18	32
1690.21	26
1691.24	32
1692.27	28
1693.3	30
1694.32	27
1695.35	26
1696.38	23
1697.4	30
1698.43	30
1699.46	31
1700.48	28
1701.51	31
1702.54	28
1703.56	32
1704.59	26
1705.61	28
1706.64	28
1707.66	31
1708.69	24
1709.71	31
1710.74	28
1711.76	29
1712.79	26
1713.81	28
1714.83	31
1715.86	26
1716.88	29
1717.91	26
1718.93	30
1719.95	26
1720.98	35
1722	32
1723.02	26
1724.04	29
1725.07	29
1726.09	32
1727.11	29
1728.13	29
1729.15	34
1730.18	28
1731.2	29
1732.22	29
1733.24	20
1734.26	27
1735.28	24
1736.3	29
1737.32	29
1738.34	34
1739.36	25
1740.38	24
1741.4	25
1742.42	28
1743.44	30
1744.46	34
1745.48	24
1746.5	32
1747.52	24
1748.54	30
1749.56	33
1750.58	33
1751.6	29
1752.61	29
1753.63	30
1754.65	26
1755.67	27
1756.68	30
1757.7	28
1758.72	30
1759.74	32
1760.75	30
1761.77	26
1762.79	30
1763.8	29
1764.82	28
1765.83	34
1766.85	27
1767.87	22
1768.88	27
1769.9	24
1770.91	26
1771.93	24
1772.94	32
1773.96	31
1774.97	28
1775.99	27
1777	31
1778.02	33
1779.03	29
1780.04	27
1781.06	28
1782.07	31
1783.09	33
1784.1	34
1785.11	28
1786.13	30
1787.14	31
1788.15	28
1789.16	27
1790.18	26
1791.19	27
1792.2	28
1793.21	27
1794.22	30
1795.23	34
1796.25	29
1797.26	24
1798.27	30
1799.28	26
1800.29	28
1801.3	26
1802.31	28
1803.32	28
1804.33	33
1805.34	16
1806.35	30
1807.36	29
1808.37	26
1809.38	32
1810.39	29
1811.4	26
1812.41	31
1813.42	33
1814.42	31
1815.43	31
1816.44	22
1817.45	32
1818.46	29
1819.47	29
1820.47	28
1821.48	28
1822.49	30
1823.49	26
1824.5	24
1825.51	28
1826.52	24
1827.52	24
1828.53	26
1829.53	30
1830.54	27
1831.55	30
1832.55	30
1833.56	32
1834.56	30
1835.57	30
1836.57	28
1837.58	30
1838.58	29
1839.59	30
1840.59	24
1841.6	30
1842.6	31
1843.61	30
1844.61	30
1845.61	27
1846.62	27
1847.62	26
1848.62	26
1849.63	28
1850.63	28
1851.63	28
1852.64	30
1853.64	32
1854.64	28
1855.64	29
1856.64	28
1857.65	29
1858.65	28
1859.65	28
1860.65	24
1861.65	28
1862.65	27
1863.65	20
1864.66	30
1865.66	26
1866.66	33
1867.66	26
1868.66	26
1869.66	27
1870.66	30
1871.66	28
1872.66	33
1873.66	28
1874.66	27
1875.65	31
1876.65	33
1877.65	28
1878.65	25
1879.65	27
1880.65	28
1881.65	28
1882.64	30
1883.64	30
1884.64	28
1885.64	22
1886.63	29
1887.63	27
1888.63	29
1889.63	34
1890.62	30
1891.62	29
1892.62	30
1893.61	24
1894.61	28
1895.6	30
1896.6	26
1897.6	28
1898.59	28
1899.59	27
1900.58	29
1901.58	26
1902.57	28
1903.57	31
1904.56	28
1905.56	31
1906.55	22
1907.54	27
1908.54	26
1909.53	26
1910.53	32
1911.52	22
1912.51	24
1913.51	26
1914.5	31
1915.49	26
1916.49	28
1917.48	28
1918.47	31
1919.46	31
1920.46	26
1921.45	24
1922.44	36
1923.43	26
1924.42	30
1925.41	28
1926.41	28
1927.4	27
1928.39	32
1929.38	25
1930.37	32
1931.36	26
1932.35	22
1933.34	24
1934.33	28
1935.32	27
1936.31	32
1937.3	28
1938.29	24
1939.28	30
1940.27	27
1941.26	26
1942.24	28
1943.23	26
1944.22	30
1945.21	31
1946.2	28
1947.19	28
1948.17	30
1949.16	25
1950.15	27
1951.14	29
1952.12	30
1953.11	29
1954.1	27
1955.09	26
1956.07	29
1957.06	24
1958.05	31
1959.03	26
1960.02	32
1961	27
1961.99	30
1962.98	28
1963.96	26
1964.95	28
1965.93	24
1966.92	30
1967.9	22
1968.89	22
1969.87	28
1970.85	28
1971.84	28
1972.82	28
1973.81	18
1974.79	28
1975.78	26
1976.76	32
1977.74	29
1978.73	26
1979.71	28
1980.69	30
1981.67	35
1982.66	32
1983.64	30
1984.62	32
1985.6	32
1986.59	32
1987.57	26
1988.55	24
1989.53	25
1990.51	29
1991.49	24
1992.47	26
1993.45	23
1994.44	30
1995.42	28
1996.4	28
1997.38	25
1998.36	28
1999.34	30
2000.32	30
2001.3	30
2002.28	30
2003.26	29
2004.24	30
2005.22	26
2006.19	26
2007.17	26
2008.15	26
2009.13	29
2010.11	27
2011.09	26
2012.06	31
2013.04	32
2014.02	29
2015	27
2015.98	28
2016.95	29
2017.93	30
2018.91	28
2019.88	25
2020.86	29
2021.84	22
2022.81	26
2023.79	29
2024.77	22
2025.74	31
2026.72	28
2027.69	27
2028.67	22
2029.65	28
2030.62	24
2031.6	24
2032.57	24
2033.55	29
2034.52	27
2035.5	27
2036.47	26
2037.44	27
2038.42	32
2039.39	28
2040.36	27
2041.34	22
2042.31	26
2043.29	28
2044.26	18
2045.23	26
2046.2	22
2047.18	31
2048.15	30
2049.12	28
2050.09	28
2051.07	29
2052.04	24
2053.01	32
2053.98	26
2054.95	26
2055.93	26
2056.9	25
2057.87	32
2058.84	32
2059.81	27
2060.78	26
2061.75	28
2062.72	26
2063.69	29
2064.66	22
2065.63	32
2066.6	26
2067.57	33
2068.54	29
2069.51	25
2070.48	25
2071.45	30
2072.42	29
2073.38	31
2074.35	22
2075.32	31
2076.29	24
2077.26	26
2078.23	27
2079.19	29
2080.16	22
2081.13	28
2082.1	30
2083.06	24
2084.03	22
2085	22
2085.96	29
2086.93	28
2087.9	27
2088.86	28
2089.83	27
2090.8	28
2091.76	26
2092.73	30
2093.69	26
2094.66	27
2095.62	22
2096.59	26
2097.55	28
2098.52	29
2099.48	24
2100.45	30
2101.41	32
2102.38	26
2103.34	31
2104.31	26
2105.27	24
2106.23	27
2107.2	28
2108.16	27
2109.12	29
2110.09	24
2111.05	28
2112.01	20
2112.98	27
2113.94	27
2114.9	26
2115.86	24
2116.82	32
2117.79	28
2118.75	32
2119.71	29
2120.67	24
2121.63	28
2122.59	24
2123.55	22
2124.52	28
2125.48	25
2126.44	24
2127.4	26
2128.36	29
2129.32	24
2130.28	28
2131.24	26
2132.2	28
2133.16	24
2134.12	29
2135.08	24
2136.04	29
2136.99	28
2137.95	25
2138.91	27
2139.87	28
2140.83	25
2141.79	29
2142.75	25
2143.7	27
2144.66	29
2145.62	20.0117
2146.58	26.9853
2147.53	27.9593
2148.49	24.2115
2149.45	28.1629
2150.41	29.8998
2151.36	22.4761
2152.32	28.5119
2153.27	24.3472
2154.23	24.6277
2155.19	27.7894
2156.14	25.8873
2157.1	23.2451
2158.06	25.8717
2159.01	27.7009
2159.97	25.4051
2160.92	25.9876
2161.88	26.8118
2162.83	24.7244
2163.79	26.1912
2164.74	24.2029
2165.7	28.5744
2166.65	25.7857
2167.61	28.6223
2168.56	27.9761
2169.51	27.0296
2170.47	24.9786
2171.42	24.7546
2172.38	28.8949
2173.33	26.4833
2174.28	28.718
2175.24	28.1666
2176.19	28.1297
2177.14	20.7027
2178.09	23.9496
2179.05	24.9613
2180	27.9565
2180.95	25.6658
2181.9	25.6825
2182.86	28.1416
2183.81	25.9582
2184.76	24.4516
2185.71	26.4734
2186.66	23.4853
2187.61	29.3276
2188.57	26.4424
2189.52	21.4081
2190.47	25.7355
2191.42	25.5943
2192.37	25
2193.32	28.1857
2194.27	25.8946
2195.22	25.9412
2196.17	24.5984
2197.12	26.8179
2198.07	23.2383
2199.02	23.905
2199.97	24.6912
2200.92	26.8867
2201.87	26.632
2202.82	23.2108
2203.76	27.8323
2204.71	27.5642
2205.66	29.7606
2206.61	26.6434
2207.56	25.552
2208.51	26.3105
2209.45	23.9844
2210.4	26.1709
2211.35	27.6373
2212.3	24.635
2213.24	26.598
2214.19	26.7488
2215.14	22.7811
2216.09	21.9919
2217.03	25.6752
2217.98	24.2175
2218.93	27.4895
2219.87	25.0811
2220.82	25.9451
2221.77	28.265
2222.71	27.1594
2223.66	26.3824
2224.6	23.6065
2225.55	26.0716
2226.49	29.2721
2227.44	27.3121
2228.38	24.5969
2229.33	23.5717
2230.27	25.4257
2231.22	25.549
2232.16	26.257
2233.11	27.7547
2234.05	23.1105
2235	23.2919
2235.94	27.2259
2236.88	27.9415
2237.83	26.5
2238.77	28.2975
2239.71	25.3517
2240.66	23.2109
2241.6	21.6938
2242	20
2242.95	22
2243.9	22
2244.84	26
2245.79	30
2246.74	28
2247.69	30
2248.63	20
2249.58	24
2250.53	27
2251.47	22
2252.42	26
2253.37	26
2254.31	26
2255.26	22
2256.2	26
2257.15	24
2258.1	27
2259.04	26
2259.99	24
2260.93	30
2261.88	30
2262.82	22
2263.77	26
2264.71	26
2265.65	26
2266.6	23
2267.54	31
2268.49	26
2269.43	26
2270.38	25
2271.32	30
2272.26	22
2273.21	28
2274.15	28
2275.09	23
2276.04	29
2276.98	22
2277.92	30
2278.86	22
2279.81	31
2280.75	29
2281.69	22
2282.63	27
2283.57	28
2284.52	24
2285.46	24
2286.4	24
2287.34	30
2288.28	27
2289.22	27
2290.16	32
2291.1	27
2292.04	27
2292.98	27
2293.93	29
2294.86	30
2295.8	22
2296.74	28
2297.69	28
2298.62	23
2299.56	26
2300.5	28
2301.44	24
2302.38	24
2303.32	24
2304.26	22
2305.2	26
2306.14	25
2307.07	22
2308.01	27
2308.95	28
2309.89	24
2310.83	25
2311.76	30
2312.7	26
2313.64	24
2314.58	24
2315.51	34
2316.45	24
2317.39	26
2318.32	27
2319.26	29
2320.2	26
2321.13	28
2322.07	26
2323	25
2323.94	28
2324.88	30
2325.81	29
2326.75	25
2327.68	26
2328.62	25
2329.55	26
2330.49	27
2331.42	30
2332.36	27
2333.29	28
2334.22	31
2335.16	30
2336.09	26
2337.03	33
2337.96	27
2338.89	30
2339.83	30
2340.76	28
2341.69	28
2342.63	26
2343.56	28
2344.49	26
2345.43	31
2346.36	28
2347.29	30
2348.22	28
2349.15	27
2350.09	20
2351.02	22
2351.95	28
2352.88	31
2353.81	26
2354.74	28
2355.67	22
2356.61	26
2357.54	28
2358.47	29
2359.4	26
2360.33	25
2361.26	24
2362.19	30
2363.12	29
2364.05	29
2364.98	31
2365.91	26
2366.84	26
2367.77	26
2368.7	32
2369.62	26
2370.55	33
2371.48	24
2372.41	26
2373.34	23
2374.27	28
2375.2	26
2376.12	22
2377.05	26
2377.98	30
2378.91	26
2379.83	32
2380.76	27
2381.69	26
2382.62	28
2383.54	24
2384.47	24
2385.4	25
2386.32	20
2387.25	28
2388.18	26
2389.1	26
2390.03	27
2390.95	28
2391.88	30
2392.81	28
2393.73	24
2394.66	30
2395.58	28
2396.51	24
2397.43	32
2398.36	25
2399.28	29
2400.2	26
2401.13	30
2402.05	28
2402.98	23
2403.9	28
2404.83	32
2405.75	30
2406.67	27
2407.6	26
2408.52	25
2409.44	27
2410.37	33
2411.29	29
2412.21	27
2413.13	26
2414.06	32
2414.98	20
2415.9	27
2416.82	20
2417.74	21
2418.67	25
2419.59	33
2420.51	26
2421.43	26
2422.35	28
2423.27	20
2424.19	29
2425.11	26
2426.03	28
2426.96	30
2427.88	26
2428.8	29
2429.72	22
2430.64	28
2431.56	30
2432.48	28
2433.39	26
2434.31	30
2435.23	28
2436.15	28
2437.07	29
2437.99	25
2438.91	31
2439.83	26
2440.75	27
2441.67	28
2442.58	27
2443.5	28
2444.42	28
2445.34	29
2446.26	31
2447.17	30
2448.09	26
2449.01	30
2449.92	30
2450.84	26
2451.76	27
2452.68	27
2453.59	29
2454.51	28
2455.42	28
2456.34	27
2457.26	29
2458.17	26
2459.09	30
2460	23
2460.92	24
2461.83	29
2462.75	25
2463.66	29
2464.58	24
2465.49	26
2466.41	28
2467.32	30
2468.24	26
2469.15	22
2470.07	24
2470.98	30
2471.89	22
2472.81	30
2473.72	22
2474.64	32
2475.55	27
2476.46	27
2477.37	26
2478.29	31
2479.2	26
2480.11	25
2481.03	29
2481.94	27
2482.85	24
2483.76	24
2484.67	30
2485.59	27
2486.5	30
2487.41	30
2488.32	25
2489.23	28
2490.14	26
2491.05	29
2491.97	22
2492.88	27
2493.79	32
2494.7	28
2495.61	24
2496.52	28
2497.43	26
2498.34	24
2499.25	25
2500.16	22
2501.07	27
2501.98	22
2502.89	25
2503.79	30
2504.7	28
2505.61	26
2506.52	33
2507.43	27
2508.34	26
2509.25	28
2510.16	29
2511.06	24
2511.97	30
2512.88	20
2513.79	27
2514.69	28
2515.6	30
2516.51	28
2517.42	24
2518.32	28
2519.23	27
2520.14	29
2521.04	23
2521.95	30
2522.86	27
2523.76	25
2524.67	22
2525.57	31
2526.48	20
2527.39	24
2528.29	34
2529.2	28
2530.1	26
2531.01	28
2531.91	29
2532.82	26
2533.72	30
2534.63	25
2535.53	28
2536.44	30
2537.34	26
2538.24	29
2539.15	26
2540.05	30
2540.96	24
2541.86	25
2542.76	30
2543.67	27
2544.57	31
2545.47	25
2546.37	22
2547.28	28
2548.18	32
2549.08	25
2549.99	29
2550.89	32
2551.79	28
2552.69	28
2553.59	30
2554.49	27
2555.4	26
2556.3	30
2557.2	27
2558.1	28
2559	26
2559.9	26
2560.8	26
2561.7	24
2562.6	28
2563.5	28
2564.4	25
2565.3	28
2566.2	26
2567.1	26
2568	27
2568.9	29
2569.8	24
2570.7	28
2571.6	31
2572.5	22
2573.4	28
2574.3	26
2575.2	27
2576.1	20
2576.99	27
2577.89	33
2578.79	28
2579.69	28
2580.59	24
2581.48	20
2582.38	27
2583.28	25
2584.18	28
2585.07	29
2585.97	24
2586.87	24
2587.76	24
2588.66	25
2589.56	28
2590.45	26
2591.35	26
2592.25	29
2593.14	29
2594.04	22
2594.93	26
2595.83	32
2596.73	28
2597.62	30
2598.52	29
2599.41	24
2600.31	25
2601.2	29
2602.1	26
2602.99	30
2603.88	23
2604.78	27
2605.67	29
2606.57	31
2607.46	29
2608.35	31
2609.25	24
2610.14	26
2611.03	27
2611.93	29
2612.82	24
2613.71	27
2614.61	26
2615.5	26
2616.39	27
2617.29	27
2618.18	28
2619.07	27
2619.96	31
2620.85	29
2621.75	26
2622.64	27
2623.53	22
2624.42	28
2625.31	25
2626.2	28
2627.09	28
2627.98	22
2628.88	26
2629.77	26
2630.66	27
2631.55	28
2632.44	29
2633.33	29
2634.22	26
2635.11	25
2636	31
2636.89	28
2637.78	25
2638.66	25
2639.55	30
2640.44	26
2641.33	29
2642.22	26
2643.11	31
2644	28
2644.89	30
2645.78	28
2646.66	30
2647.55	27
2648.44	28
2649.33	24
2650.21	33
2651.1	20
2651.99	25
2652.88	30
2653.76	30
2654.65	30
2655.54	24
2656.42	29
2657.31	26
2658.2	22
2659.08	29
2659.97	26
2660.86	31
2661.74	28
2662.63	28
2663.51	30
2664.4	29
2665.29	26
2666.17	23
2667.06	30
2667.94	25
2668.83	28
2669.71	27
2670.6	26
2671.48	30
2672.36	26
2673.25	28
2674.13	31
2675.02	26
2675.9	32
2676.78	25
2677.67	29
2678.55	25
2679.43	27
2680.32	26
2681.2	27
2682.08	23
2682.97	31
2683.85	30
2684.73	30
2685.61	28
2686.5	29
2687.38	27
2688.26	26
2689.14	26
2690.03	24
2690.91	26
2691.79	27
2692.67	18
2693.55	26
2694.43	28
2695.31	25
2696.19	28
2697.08	27
2697.96	28
2698.84	28
2699.72	32
2700.6	30
2701.48	28
2702.36	30
2703.24	29
2704.12	29
2705	29
2705.88	30
2706.76	25
2707.64	29
2708.51	28
2709.39	25
2710.27	32
2711.15	26
2712.03	24
2712.91	29
2713.79	29
2714.67	24
2715.54	26
2716.42	25
2717.3	27
2718.18	31
2719.05	27
2719.93	26
2720.81	28
2721.69	29
2722.56	30
2723.44	28
2724.32	25
2725.19	24
2726.07	28
2726.95	27
2727.82	23
2728.7	28
2729.58	30
2730.45	31
2731.33	22
2732.2	26
2733.08	28
2733.95	31
2734.83	29
2735.7	28
2736.58	26
2737.45	24
2738.33	30
2739.2	26
2740.08	32
2740.95	26
2741.83	29
2742.7	23
2743.58	26
2744.45	26
2745.32	24
2746.2	27
2747.07	27
2747.94	26
2748.82	25
2749.69	30
2750.56	24
2751.44	28
2752.31	26
2753.18	26
2754.05	27
2754.93	33
2755.8	27
2756.67	30
2757.54	22
2758.42	29
2759.29	26
2760.16	28
2761.03	31
2761.9	29
2762.77	24
2763.64	26
2764.51	27
2765.38	26
2766.26	26
2767.13	28
2768	30
2768.87	26
2769.74	29
2770.61	28
2771.48	24
2772.35	22
2773.22	28
2774.09	24
2774.96	29
2775.83	30
2776.7	26
2777.56	31
2778.43	29
2779.3	26
2780.17	26
2781.04	29
2781.91	26
2782.78	29
2783.64	22
2784.51	30
2785.38	28
2786.25	27
2787.12	26
2787.98	30
2788.85	30
2789.72	31
2790.59	31
2791.45	26
2792.32	28
2793.19	27
2794.05	26
2794.92	30
2795.79	31
2796.65	30
2797.52	26
2798.38	28
2799.25	30
2800.12	24
2800.98	28
2801.85	30
2802.71	29
2803.58	28.5
2804.44	28
2805.31	26
2806.17	26
2807.04	28
2807.9	23
2808.77	30
2809.63	28
2810.5	28
2811.36	26
2812.22	28
2813.09	30
2813.95	28
2814.82	29
2815.68	29
2816.54	28
2817.41	28
2818.27	28
2819.13	27
2820	28
2820.86	27
2821.72	30
2822.58	24
2823.45	23
2824.31	31
2825.17	26
2826.03	28
2826.9	30
2827.76	30
2828.62	30
2829.48	22
2830.34	25
2831.2	29
2832.06	28
2832.92	26
2833.79	28
2834.65	26
2835.51	24
2836.37	27
2837.23	28
2838.09	30
2838.95	30
2839.81	27
2840.67	26
2841.53	27
2842.39	26
2843.25	28
2844.11	32
2844.97	26
2845.83	32
2846.68	24
2847.54	30
2848.4	26
2849.26	25
2850.12	30
2850.98	24
2851.84	31
2852.69	30
2853.55	27
2854.41	26
2855.27	32
2856.13	29
2856.98	29
2857.84	31
2858.7	32
2859.56	33
2860.41	27
2861.27	32
2862.13	29
2862.98	32
2863.84	30
2864.7	26
2865.55	33
2866.41	30
2867.27	26
2868.12	29
2868.98	24
2869.83	29
2870.69	34
2871.54	35
2872.4	27
2873.25	32
2874.11	31
2874.96	28
2875.82	26
2876.68	30
2877.53	32
2878.38	26
2879.24	33
2880.09	31
2880.95	31
2881.8	34
2882.65	33
2883.51	32
2884.36	32
2885.22	35
2886.07	32
2886.92	35
2887.77	30
2888.63	26
2889.48	38
2890.33	41
2891.19	36
2892.04	34
2892.89	40
2893.74	43
2894.6	45
2895.45	39
2896.3	49
2897.15	45
2898	44
2898.85	52
2899.71	50
2900.56	53
2901.41	61
2902.26	54
2903.11	55
2903.96	56
2904.81	56
2905.66	52
2906.51	52
2907.36	50
2908.21	59
2909.06	54
2909.91	55
2910.76	54
2911.61	52
2912.46	57
2913.31	48
2914.16	48
2915.01	47
2915.86	47
2916.71	44
2917.56	43
2918.41	36
2919.26	34
2920.1	36
2920.95	34
2921.8	39
2922.65	35
2923.5	37
2924.34	34
2925.19	32
2926.04	28
2926.89	28
2927.74	28
2928.58	34
2929.43	26
2930.28	30
2931.12	32
2931.97	32
2932.82	31
2933.66	29
2934.51	26
2935.36	30
2936.2	28
2937.05	34
2937.89	26
2938.74	28
2939.59	27
2940.43	26
2941.28	26
2942.12	29
2942.97	31
2943.81	34
2944.66	26
2945.5	36
2946.35	31
2947.19	32
2948.04	30
2948.88	27
2949.72	30
2950.57	28
2951.41	31
2952.26	34
2953.1	32
2953.94	40
2954.79	31
2955.63	33
2956.47	35
2957.32	37
2958.16	35
2959	37
2959.85	35
2960.69	42
2961.53	38
2962.37	38
2963.22	44
2964.06	32
2964.9	42
2965.74	46
2966.58	38
2967.42	43
2968.27	42
2969.11	42
2969.95	30
2970.79	42
2971.63	40
2972.47	37
2973.31	36
2974.15	36
2974.99	35
2975.83	31
2976.68	32
2977.52	35
2978.36	31
2979.2	28
2980.04	27
2980.88	28
2981.71	30
2982.55	34
2983.39	26
2984.23	24
2985.07	29
2985.91	32
2986.75	31
2987.59	28
2988.43	28
2989.27	24
2990.1	26
2990.94	27
2991.78	28
2992.62	30
2993.46	28
2994.3	30
2995.13	28
2995.97	23
2996.81	22
2997.64	24
2998.48	30
2999.32	30
