#Acq. time (s)=	3
#Accumulations=	3
#Range (cm-¹)=	100...3000
#Windows=	3
#Autofocus=	Off
#AutoExposure=	Off
#Spike filter=	Multiple accum.
#Delay time (s)=	0
#Binning=	1
#Readout mode=	Signal
#DeNoise=	Off
#ICS correction=	Off
#Dark correction=	Off
#Inst. Process=	Off
#Instrument=	LabRAM HR Evol
#Detector=	Syncerity OE
#Objective=	x100_VIS_LWD
#Grating=	600 (500nm)
#ND Filter=	25%
#Laser=	633nm_Edge
#Hole=	100.021
#Range=	Visible
#Project=	Bolus
#Sample=	A1
#Site=	stripside
#Title=	m03
#Remark=	
#Date=	03.11.2025 18:36
#Acquired=	03.11.2025 18:36:30
100.969	24
102.252	34
103.535	35
104.818	26
106.101	38
107.384	28
108.666	31
109.948	28
111.232	31
112.514	28
113.795	32
115.077	24
116.358	30
117.639	34
118.919	30
120.2	31
121.48	32
122.76	30
124.04	35
125.32	30
126.599	30
127.879	32
129.158	33
130.436	30
131.715	32
132.992	36
134.27	31
135.548	31
136.826	30
138.104	38
139.381	37
140.658	36
141.935	38
143.212	36
144.489	37
145.763	36
147.04	36
148.315	37
149.591	38
150.867	31
152.142	40
153.416	34
154.691	40
155.965	37
157.24	38
158.514	38
159.786	38
161.06	43
162.334	37
163.607	40
164.881	40
166.152	37
167.425	37
168.698	43
169.969	35
171.241	35
172.513	38
173.785	42
175.055	42
176.326	40
177.597	36
178.867	36
180.137	36
181.408	34
182.677	41
183.947	40
185.217	32
186.485	42
187.755	41
189.022	45
190.291	38
191.56	32
192.828	40
194.096	36
195.363	35
196.631	37
197.899	34
199.165	34
200.432	36
201.698	30
202.965	32
204.23	39
205.497	36
206.762	38
208.028	38
209.293	36
210.559	36
211.823	36
213.088	34
214.352	34
215.617	32
216.88	32
218.145	32
219.408	38
220.672	36
221.934	36
223.196	36
224.46	32
225.722	36
226.985	30
228.246	39
229.508	26
230.77	32
232.031	30
233.292	41
234.554	36
235.814	32
237.074	35
238.335	26
239.595	34
240.854	32
242.115	26
243.374	26
244.633	33
245.893	30
247.151	31
248.409	29
249.667	24
250.927	36
252.184	30
253.442	29
254.699	24
255.957	32
257.214	32
258.47	28
259.727	28
260.983	30
262.24	38
263.496	29
264.752	30
266.007	26
267.262	30
268.517	26
269.773	34
271.028	32
272.282	33
273.536	30
274.79	34
276.044	31
277.297	33
278.551	33
279.804	32
281.057	28
282.31	32
283.564	35
284.816	34
286.068	30
287.32	32
288.572	26
289.823	32
291.074	28
292.325	31
293.576	31
294.827	32
296.077	34
297.328	36
298.578	34
299.828	30
301.077	28
302.325	34
303.575	31
304.824	28
306.073	34
307.321	30
308.57	34
309.818	30
311.066	32
312.314	33
313.562	31
314.808	34
316.055	30
317.302	30
318.549	35
319.796	28
321.042	31
322.288	36
323.533	29
324.779	28
326.024	32
327.27	34
328.515	30
329.759	28
331.004	33
332.248	29
333.493	37
334.736	34
335.98	34
337.223	33
338.466	35
339.709	26
340.952	33
342.195	30
343.437	32
344.68	31
345.922	36
347.163	28
348.405	32
349.647	33
350.887	26
352.128	29
353.37	31
354.609	37
355.85	30
357.089	31
358.33	35
359.57	33
360.809	32
362.049	29
363.287	31
364.526	37
365.764	35
367.003	32
368.241	29
369.479	29
370.718	30
371.955	33
373.193	26
374.429	28
375.667	28
376.903	35
378.139	31
379.376	34
380.611	35
381.848	32
383.083	34
384.319	30
385.554	33
386.79	33
388.024	28
389.258	28
390.493	32
391.727	31
392.962	31
394.195	32
395.428	34
396.663	37
397.895	30
399.128	29
400.361	31
401.593	37
402.825	29
404.058	32
405.29	34
406.521	31
407.752	34
408.985	35
410.215	32
411.446	30
412.678	32
413.908	32
415.138	30
416.367	33
417.597	27
418.828	34
420.057	32
421.286	31
422.514	24
423.743	30
424.973	29
426.201	28
427.429	35
428.657	34
429.884	34
431.112	33
432.34	30
433.567	26
434.794	35
436.02	34
437.247	29
438.473	34
439.699	31
440.925	33
442.15	27
443.376	32
444.601	32
445.826	30
447.051	32
448.275	32
449.5	32
450.724	36
451.948	34
453.172	34
454.396	30
455.619	32
456.842	26
458.065	30
459.288	33
460.511	32
461.733	36
462.956	30
464.178	35
465.4	35
466.621	38
467.843	30
469.064	37
470.285	37
471.505	36
472.726	36
473.946	28
475.166	36
476.387	36
477.606	36
478.825	42
480.044	47
481.264	44
482.483	41
483.702	44
484.921	36
486.138	51
487.356	42
488.574	49
489.792	50
491.009	49
492.226	57
493.444	58
494.661	46
495.877	46
497.094	52
498.31	47
499.525	43
500.741	42
501.958	44
503.172	44
504.388	39
505.603	39
506.817	42
508.032	36
509.247	34
510.46	36
511.675	34
512.888	38
514.102	36
515.316	36
516.528	36
517.742	36
518.954	35
520.167	35
521.378	36
522.591	32
523.802	36
525.015	30
526.226	38
527.438	36
528.648	38
529.86	35
531.07	32
532.281	32
533.491	30
534.702	33
535.911	36
537.121	32
538.33	26
539.54	28
540.749	31
541.957	35
543.167	33
544.375	34
545.584	30
546.791	34
547.999	28
549.207	30
550.414	32
551.621	32
552.829	34
554.035	35
555.241	31
556.449	33
557.655	36
558.86	30
560.066	32
561.272	31
562.477	34
563.682	34
564.888	30
566.093	28
567.297	24
568.501	28
569.705	33
570.91	24
572.114	37
573.317	27
574.52	28
575.723	35
576.927	30
578.13	34
579.332	30
580.535	24
581.737	30
582.938	30
584.14	34
585.343	37
586.544	37
587.745	33
588.946	32
590.147	33
591.347	30
592.548	26
593.748	27
594.948	34
596.147	30
597.347	32
598.546	30
599.745	30
600.944	30
602.143	32
603.342	27
604.54	32
605.738	33
606.937	31
608.134	26
609.332	30
610.529	30
611.727	32
612.924	34
614.121	32
615.317	31
616.513	31
617.709	34
618.905	31
620.101	28
621.297	36
622.492	32
623.688	26
624.883	30
626.077	32
627.271	31
628.466	32
629.66	32
630.855	32
632.047	27
633.241	34
634.435	34
635.629	34
636.82	28
638.014	33
639.207	34
640.399	34
641.59	33
642.783	35
643.975	30
645.166	34
646.357	32
647.549	31
648.741	34
649.93	31
651.122	31
652.311	33
653.502	33
654.692	31
655.881	34
657.071	34
658.261	28
659.45	30
660.639	34
661.827	32
663.016	31
664.204	34
665.393	33
666.581	32
667.769	34
668.957	28
670.143	37
671.331	26
672.518	37
673.705	32
674.891	34
676.078	33
677.264	31
678.451	32
679.636	32
680.821	33
682.007	32
683.192	40
684.378	31
685.562	36
686.747	41
687.931	39
689.115	28
690.3	43
691.483	36
692.666	40
693.851	39
695.034	41
696.216	34
697.4	41
698.582	32
699.764	32
700.948	36
702.129	42
703.311	37
704.493	42
705.674	41
706.855	44
708.036	50
709.218	38
710.399	50
711.579	44
712.759	42
713.939	43
715.12	36
716.299	41
717.478	36
718.657	36
719.836	33
721.015	42
722.195	34
723.373	32
724.552	34
725.729	28
726.907	31
728.085	33
729.262	38
730.44	30
731.617	36
732.795	34
733.972	28
735.148	33
736.324	30
737.501	32
738.677	28
739.852	34
741.028	29
742.203	20
743.379	34
744.554	28
745.729	34
746.903	35
748.078	28
749.252	32
750.426	36
751.599	30
752.772	28
753.946	30
755.119	32
756.293	33
757.466	30
758.639	32
759.811	33
760.984	31
762.155	28
763.327	34
764.499	32
765.67	31
766.842	34
768.013	35
769.183	28
770.354	30
771.525	31
772.696	31
773.865	33
775.035	32
776.205	33
777.375	33
778.544	28
779.713	32
780.882	32
782.052	36
783.219	31
784.388	32
785.557	32
786.724	34
787.892	35
789.06	36
790.227	33
791.395	36
792.562	34
793.728	36
794.895	33
796.061	32
797.228	26
798.395	30
799.56	31
800.726	30
801.891	32
803.057	35
804.221	28
805.387	34
806.551	30
807.716	32
808.879	31
810.044	30
811.208	35
812.372	27
813.535	31
814.699	34
815.862	30
817.025	36
818.188	31
819.351	36
820.513	33
821.675	31
822.837	28
823.999	32
825.161	30
826.322	34
827.483	32
828.645	31
829.805	38
830.966	26
832.127	34
833.287	31
834.447	31
835.607	30
836.767	34
837.926	30
839.085	29
840.245	32
841.404	34
842.562	36
843.72	32
844.88	31
846.038	33
847.195	27
848.353	32
849.512	32
850.669	32
851.826	29
852.983	28
854.139	32
855.296	25
856.453	30
857.609	32
858.765	37
859.921	34
861.077	34
862.232	32
863.387	40
864.542	37
865.697	34
866.852	37
868.008	31
869.162	34
870.316	33
871.47	34
872.624	34
873.778	35
874.931	29
876.084	30
877.237	32
878.39	32
879.543	32
880.695	30
881.846	30
882.999	32
884.151	33
885.302	32
886.454	37
887.606	29
888.757	29
889.908	28
891.059	28
892.21	28
893.359	34
894.509	34
895.659	29
896.81	27
897.959	33
899.109	28
900.257	30
901.407	26
902.556	29
903.705	26
904.854	28
906.001	31
907.149	34
908.298	29
909.446	30
910.592	30
911.74	28
912.888	28
914.034	31
915.181	31
916.328	30
917.473	32
918.62	25
919.766	27
920.911	30
922.058	31
923.204	33
924.348	35
925.494	36
926.638	30
927.783	32
928.928	30
930.072	30
931.216	33
932.36	33
933.504	33
934.647	26
935.791	32
936.933	33
938.077	30
939.219	32
940.363	36
941.504	34
942.647	28
943.789	32
944.932	29
946.073	30
947.215	30
948.356	32
949.498	32
950.638	29
951.778	30
952.92	32
954.06	32
955.199	26
956.34	30
957.479	28
958.62	37
959.759	34
960.898	30
962.038	31
963.176	30
964.315	27
965.453	30
966.592	30
967.73	33
968.867	28
970.006	30
971.144	32
972.281	32
973.418	34
974.554	32
975.692	30
976.829	32
977.965	33
979.101	33
980.237	31
981.374	28
982.509	30
983.645	26
984.78	26
985.915	26
987.05	22
988.184	33
989.319	26
990.453	33
991.589	22
992.722	26
993.856	32
994.99	36
996.123	28
997.257	25
998.39	27
999.523	33
1000.66	26
1001.79	31
1002.92	24
1004.05	33
1005.18	28
1006.32	35
1007.45	26
1008.58	34
1009.71	31
1010.84	30
1011.97	28
1013.1	34
1014.23	30
1015.36	31
1016.49	29
1017.62	34
1018.75	20
1019.88	32
1021.01	28
1022.14	32
1023.27	29
1024.4	34
1025.53	28
1026.66	20
1027.79	30
1028.91	30
1030.04	31
1031.17	24
1032.3	34
1033.42	31
1034.55	33
1035.68	28
1036.81	28
1037.93	33
1039.06	36
1040.18	32
1041.31	30
1042.44	30
1043.56	34
1044.69	20
1045.81	28
1046.94	25
1048.06	32
1049.19	28
1050.31	34
1051.44	29
1052.56	30
1053.69	34
1054.81	30
1055.93	30
1057.06	28
1058.18	32
1059.3	28
1060.43	30
1061.55	32
1062.67	32
1063.79	28
1064.92	32
1066.04	30
1067.16	30
1068.28	28
1069.4	32
1070.52	26
1071.65	30
1072.77	30
1073.89	28
1075.01	30
1076.13	34
1077.25	28
1078.37	28
1079.49	30
1080.61	27
1081.73	28
1082.85	35
1083.97	33
1085.09	35
1086.2	32
1087.32	28
1088.44	29
1089.56	32
1090.68	32
1091.8	28
1092.91	28
1094.03	30
1095.15	24
1096.26	28
1097.38	30
1098.5	30
1099.61	29
1100.73	34
1101.85	31
1102.96	28
1104.08	28
1105.19	28
1106.31	24
1107.43	28
1108.54	36
1109.66	27
1110.77	27
1111.88	30
1113	26
1114.11	36
1115.23	29
1116.34	31
1117.46	33
1118.57	28
1119.68	32
1120.8	28
1121.91	30
1123.02	24
1124.13	26
1125.25	24
1126.36	33
1127.47	30
1128.58	36
1129.69	32
1130.8	26
1131.92	32
1133.03	33
1134.14	22
1135.25	32
1136.36	26
1137.47	27
1138.58	23
1139.69	27
1140.8	28
1141.91	29
1143.02	29
1144.13	28
1145.24	26
1146.35	24
1147.46	31
1148.56	29
1149.67	27
1150.78	23
1151.89	28
1153	29
1154.1	31
1155.21	32
1156.32	28
1157.43	30
1158.53	30
1159.64	25
1160.75	32
1161.85	32
1162.96	28
1164.07	32
1165.17	36
1166.28	26
1167.38	32
1168.49	30
1169.59	26
1170.7	26
1171.8	28
1172.91	20
1174.01	28
1175.12	26
1176.22	29
1177.32	24
1178.43	29
1179.53	22
1180.64	31
1181.74	34
1182.84	28
1183.94	29
1185.05	35
1186.15	32
1187.25	32
1188.35	31
1189.46	34
1190.56	29
1191.66	28
1192.76	24
1193.86	26
1194.96	29
1196.06	27.9902
1197.16	24.0211
1198.26	29.9186
1199.37	28.0381
1200.47	29.9515
1201.57	27.8824
1202.67	29.6866
1203.77	23.457
1204.86	29.1172
1205.96	29.0982
1207.06	27.9328
1208.16	27.8988
1209.26	27.7434
1210.36	27.2059
1211.46	29.4347
1212.56	25.3055
1213.65	28.6696
1214.75	28.0921
1215.85	30.0111
1216.95	29.6618
1218.04	25.5028
1219.14	29.3137
1220.24	25.7477
1221.33	26.3362
1222.43	29.4104
1223.53	25.6868
1224.62	25.8862
1225.72	26.6034
1226.82	30.5671
1227.91	28.7108
1229.01	29.3385
1230.1	28.6326
1231.2	28.8582
1232.29	28.8797
1233.39	26.2749
1234.48	27.5806
1235.58	30.4894
1236.67	29.038
1237.77	27.6461
1238.86	26.7475
1239.95	28.5594
1241.05	27.8534
1242.14	24.6717
1243.23	28.992
1244.33	24.2764
1245.42	27.954
1246.51	30.4027
1247.61	24.3971
1248.7	27.7766
1249.79	27.0294
1250.88	26.9874
1251.97	26.0098
1253.07	24.9021
1254.16	30.5914
1255.25	29.2341
1256.34	27.6433
1257.43	26.7641
1258.52	30.8334
1259.61	27.5588
1260.7	28.0009
1261.79	28.0743
1262.88	27.3574
1263.97	28.3278
1265.06	28.5892
1266.15	28.3444
1267.24	26.6099
1268.33	30.7197
1269.42	30.9752
1270.51	33.0376
1271.6	31.3226
1272.68	30.3595
1273.77	28.2923
1274.86	25.3649
1275.95	28.0253
1277.04	29.6156
1278.12	31.5196
1279.21	29.6458
1280.3	26.6692
1281.39	27.3263
1282.47	25.8758
1283.56	30.7785
1284.65	26.6529
1285.73	27.6089
1286.82	29.6373
1287.91	29.7307
1288.99	27.5753
1290.08	26.8233
1291.16	28.784
1292.25	25.7179
1293.33	28.2476
1294.42	26.7585
1295.5	24.8682
1296.59	28.0931
1297.67	27.9507
1298.76	26.4301
1299.84	27.7451
1300.92	27.9031
1302.01	26.7197
1303.09	24.2665
1304.17	26.864
1305.26	24.4949
1306.34	28.7434
1307.34	26
1308.43	33
1309.52	28
1310.61	31
1311.7	23
1312.78	26
1313.87	29
1314.96	26
1316.04	28
1317.13	26
1318.22	26
1319.3	26
1320.39	32
1321.48	26
1322.56	29
1323.65	29
1324.73	32
1325.82	26
1326.9	26
1327.99	29
1329.07	28
1330.16	29
1331.24	28
1332.33	29
1333.41	25
1334.5	29
1335.58	22
1336.66	28
1337.75	26
1338.83	20
1339.91	34
1341	30
1342.08	27
1343.16	26
1344.24	27
1345.33	27
1346.41	30
1347.49	30
1348.57	30
1349.65	30
1350.74	31
1351.82	33
1352.9	31
1353.98	26
1355.06	29
1356.14	24
1357.22	26
1358.3	28
1359.38	29
1360.46	27
1361.54	26
1362.62	27
1363.7	29
1364.78	26
1365.86	26
1366.94	25
1368.02	30
1369.09	32
1370.17	29
1371.25	33
1372.33	28
1373.41	24
1374.48	31
1375.56	28
1376.64	24
1377.72	31
1378.79	32
1379.87	30
1380.95	30
1382.02	26
1383.1	26
1384.17	28
1385.25	26
1386.33	28
1387.4	28
1388.48	28
1389.55	35
1390.63	25
1391.7	30
1392.78	26
1393.85	32
1394.93	27
1396	28
1397.07	31
1398.15	24
1399.22	31
1400.3	28
1401.37	34
1402.44	30
1403.52	33
1404.59	24
1405.66	28
1406.73	27
1407.81	26
1408.88	30
1409.95	36
1411.02	30
1412.09	31
1413.17	31
1414.24	26
1415.31	31
1416.38	35
1417.45	31
1418.52	30
1419.59	32
1420.66	32
1421.73	28
1422.8	30
1423.87	32
1424.94	28
1426.01	30
1427.08	32
1428.15	32
1429.22	28
1430.29	31
1431.35	29
1432.42	30
1433.49	28
1434.56	27
1435.63	26
1436.69	32
1437.76	32
1438.83	27
1439.9	31
1440.96	32
1442.03	31
1443.1	26
1444.17	26
1445.23	28
1446.3	33
1447.36	30
1448.43	30
1449.49	30
1450.56	34
1451.63	26
1452.69	27
1453.76	30
1454.82	23
1455.89	26
1456.95	28
1458.01	24
1459.08	30
1460.14	31
1461.21	26
1462.27	33
1463.34	28
1464.4	30
1465.46	27
1466.52	31
1467.59	26
1468.65	32
1469.71	35
1470.77	28
1471.84	32
1472.9	27
1473.96	29
1475.02	28
1476.08	24
1477.15	30
1478.21	31
1479.27	22
1480.33	31
1481.39	27
1482.45	25
1483.51	30
1484.57	24
1485.63	27
1486.69	30
1487.75	26
1488.81	25
1489.87	33
1490.93	25
1491.99	30
1493.05	27
1494.1	30
1495.16	25
1496.22	25
1497.28	26
1498.34	24
1499.4	30
1500.45	26
1501.51	28
1502.57	30
1503.63	32
1504.68	26
1505.74	30
1506.8	28
1507.85	30
1508.91	29
1509.97	25
1511.02	28
1512.08	24
1513.13	22
1514.19	32
1515.24	32
1516.3	31
1517.35	31
1518.41	26
1519.46	22
1520.52	32
1521.57	24
1522.63	32
1523.68	30
1524.73	28
1525.79	31
1526.84	23
1527.9	24
1528.95	25
1530	29
1531.05	34
1532.11	31
1533.16	30
1534.21	28
1535.26	29
1536.32	28
1537.37	30
1538.42	32
1539.47	28
1540.52	28
1541.57	28
1542.63	32
1543.68	28
1544.73	30
1545.78	27
1546.83	33
1547.88	28
1548.93	24
1549.98	31
1551.03	28
1552.08	29
1553.13	32
1554.18	27
1555.23	31
1556.27	24
1557.32	28
1558.37	26
1559.42	32
1560.47	27
1561.52	23
1562.56	24
1563.61	37
1564.66	30
1565.71	31
1566.75	28
1567.8	29
1568.85	29
1569.9	32
1570.94	32
1571.99	30
1573.03	32
1574.08	26
1575.13	30
1576.17	22
1577.22	29
1578.26	28
1579.31	29
1580.35	33
1581.4	32
1582.44	28
1583.49	27
1584.53	31
1585.58	26
1586.62	30
1587.66	22
1588.71	26
1589.75	30
1590.8	26
1591.84	27
1592.88	29
1593.92	30
1594.97	30
1596.01	29
1597.05	31
1598.1	28
1599.14	32
1600.18	29
1601.22	24
1602.26	32
1603.3	30
1604.35	26
1605.39	22
1606.43	34
1607.47	28
1608.51	26
1609.55	30
1610.59	33
1611.63	24
1612.67	30
1613.71	30
1614.75	28
1615.79	28
1616.83	27
1617.87	26
1618.91	32
1619.95	35
1620.99	34
1622.02	28
1623.06	24
1624.1	29
1625.14	30
1626.18	28
1627.21	30
1628.25	38
1629.29	25
1630.33	32
1631.36	29
1632.4	29
1633.44	22
1634.48	33
1635.51	30
1636.55	34
1637.58	24
1638.62	29
1639.66	28
1640.69	33
1641.73	30
1642.76	30
1643.8	30
1644.83	35
1645.87	30
1646.9	29
1647.94	22
1648.97	30
1650	28
1651.04	32
1652.07	28
1653.11	28
1654.14	26
1655.17	29
1656.21	30
1657.24	28
1658.27	29
1659.31	28
1660.34	35
1661.37	28
1662.4	26
1663.43	28
1664.47	27
1665.5	24
1666.53	27
1667.56	27
1668.59	32
1669.62	30
1670.66	31
1671.69	26
1672.72	28
1673.75	27
1674.78	28
1675.81	28
1676.84	30
1677.87	31
1678.9	32
1679.93	32
1680.96	28
1681.98	33
1683.01	33
1684.04	28
1685.07	26
1686.1	30
1687.13	33
1688.16	28
1689.18	26
1690.21	30
1691.24	32
1692.27	31
1693.3	32
1694.32	24
1695.35	32
1696.38	27
1697.4	29
1698.43	24
1699.46	27
1700.48	22
1701.51	26
1702.54	30
1703.56	27
1704.59	20
1705.61	28
1706.64	26
1707.66	32
1708.69	30
1709.71	22
1710.74	31
1711.76	30
1712.79	30
1713.81	32
1714.83	26
1715.86	22
1716.88	24
1717.91	22
1718.93	27
1719.95	30
1720.98	30
1722	28
1723.02	31
1724.04	26
1725.07	26
1726.09	30
1727.11	30
1728.13	28
1729.15	22
1730.18	24
1731.2	28
1732.22	29
1733.24	30
1734.26	32
1735.28	29
1736.3	29
1737.32	26
1738.34	28
1739.36	26
1740.38	29
1741.4	26
1742.42	29
1743.44	32
1744.46	26
1745.48	25
1746.5	27
1747.52	27
1748.54	29
1749.56	22
1750.58	34
1751.6	27
1752.61	30
1753.63	26
1754.65	31
1755.67	26
1756.68	32
1757.7	30
1758.72	31
1759.74	31
1760.75	32
1761.77	29
1762.79	30
1763.8	34
1764.82	27
1765.83	31
1766.85	32
1767.87	30
1768.88	26
1769.9	32
1770.91	27
1771.93	28
1772.94	30
1773.96	26
1774.97	26
1775.99	26
1777	33
1778.02	31
1779.03	26
1780.04	34
1781.06	26
1782.07	26
1783.09	28
1784.1	26
1785.11	32
1786.13	26
1787.14	29
1788.15	24
1789.16	27
1790.18	26
1791.19	26
1792.2	27
1793.21	26
1794.22	26
1795.23	26
1796.25	30
1797.26	29
1798.27	22
1799.28	22
1800.29	31
1801.3	24
1802.31	29
1803.32	32
1804.33	32
1805.34	24
1806.35	29
1807.36	31
1808.37	23
1809.38	26
1810.39	27
1811.4	26
1812.41	32
1813.42	31
1814.42	25
1815.43	26
1816.44	34
1817.45	29
1818.46	29
1819.47	37
1820.47	29
1821.48	25
1822.49	26
1823.49	23
1824.5	29
1825.51	27
1826.52	31
1827.52	28
1828.53	27
1829.53	30
1830.54	27
1831.55	26
1832.55	27
1833.56	32
1834.56	29
1835.57	26
1836.57	27
1837.58	28
1838.58	28
1839.59	23
1840.59	25
1841.6	25
1842.6	30
1843.61	28
1844.61	30
1845.61	31
1846.62	26
1847.62	26
1848.62	31
1849.63	29
1850.63	28
1851.63	26
1852.64	30
1853.64	32
1854.64	30
1855.64	29
1856.64	32
1857.65	28
1858.65	30
1859.65	18
1860.65	30
1861.65	26
1862.65	29
1863.65	29
1864.66	29
1865.66	28
1866.66	31
1867.66	28
1868.66	26
1869.66	26
1870.66	31
1871.66	25
1872.66	33
1873.66	26
1874.66	28
1875.65	31
1876.65	26
1877.65	24
1878.65	28
1879.65	25
1880.65	29
1881.65	26
1882.64	30
1883.64	26
1884.64	32
1885.64	30
1886.63	28
1887.63	28
1888.63	30
1889.63	24
1890.62	28
1891.62	24
1892.62	28
1893.61	31
1894.61	27
1895.6	29
1896.6	28
1897.6	26
1898.59	22
1899.59	30
1900.58	28
1901.58	26
1902.57	31
1903.57	22
1904.56	25
1905.56	27
1906.55	24
1907.54	29
1908.54	30
1909.53	22
1910.53	22
1911.52	28
1912.51	27
1913.51	30
1914.5	24
1915.49	24
1916.49	26
1917.48	26
1918.47	32
1919.46	28
1920.46	25
1921.45	31
1922.44	32
1923.43	28
1924.42	26
1925.41	29
1926.41	30
1927.4	25
1928.39	31
1929.38	30
1930.37	30
1931.36	29
1932.35	24
1933.34	26
1934.33	29
1935.32	28
1936.31	26
1937.3	32
1938.29	25
1939.28	24
1940.27	32
1941.26	30
1942.24	30
1943.23	31
1944.22	28
1945.21	24
1946.2	28
1947.19	29
1948.17	32
1949.16	28
1950.15	28.5
1951.14	26
1952.12	30
1953.11	28
1954.1	29
1955.09	26
1956.07	26
1957.06	28
1958.05	24
1959.03	32
1960.02	31
1961	30
1961.99	27
1962.98	28
1963.96	29
1964.95	29
1965.93	27
1966.92	30
1967.9	26
1968.89	28
1969.87	24
1970.85	31
1971.84	27
1972.82	25
1973.81	28
1974.79	24
1975.78	30
1976.76	31
1977.74	33
1978.73	26
1979.71	26
1980.69	24
1981.67	28
1982.66	24
1983.64	26
1984.62	26
1985.6	30
1986.59	26
1987.57	26
1988.55	31
1989.53	26
1990.51	26
1991.49	26
1992.47	28
1993.45	29
1994.44	25
1995.42	24
1996.4	24
1997.38	28
1998.36	23
1999.34	28
2000.32	25
2001.3	32
2002.28	28
2003.26	28
2004.24	28
2005.22	26
2006.19	27
2007.17	25
2008.15	29
2009.13	28
2010.11	24
2011.09	26
2012.06	26
2013.04	28
2014.02	29
2015	28
2015.98	29
2016.95	27
2017.93	28
2018.91	25
2019.88	28
2020.86	27
2021.84	25
2022.81	28
2023.79	24
2024.77	31
2025.74	28
2026.72	27
2027.69	27
2028.67	29
2029.65	27
2030.62	28
2031.6	26
2032.57	26
2033.55	24
2034.52	29
2035.5	24
2036.47	29
2037.44	26
2038.42	29
2039.39	22
2040.36	25
2041.34	29
2042.31	28
2043.29	27
2044.26	24
2045.23	27
2046.2	32
2047.18	22
2048.15	27
2049.12	25
2050.09	30
2051.07	28
2052.04	26
2053.01	26
2053.98	28
2054.95	30
2055.93	28
2056.9	24
2057.87	30
2058.84	26
2059.81	24
2060.78	26
2061.75	22
2062.72	23
2063.69	24
2064.66	26
2065.63	29
2066.6	26
2067.57	30
2068.54	28
2069.51	27
2070.48	22
2071.45	27
2072.42	27
2073.38	24
2074.35	26
2075.32	31
2076.29	26
2077.26	24
2078.23	29
2079.19	27
2080.16	28
2081.13	32
2082.1	24
2083.06	28
2084.03	21
2085	28
2085.96	28
2086.93	25
2087.9	22
2088.86	26
2089.83	26
2090.8	26
2091.76	27
2092.73	28
2093.69	26
2094.66	28
2095.62	22
2096.59	28
2097.55	26
2098.52	22
2099.48	28
2100.45	27
2101.41	28
2102.38	29
2103.34	26
2104.31	26
2105.27	27
2106.23	27
2107.2	26
2108.16	24
2109.12	29
2110.09	28
2111.05	26
2112.01	28
2112.98	26
2113.94	24
2114.9	20
2115.86	25
2116.82	27
2117.79	30
2118.75	24
2119.71	29
2120.67	29
2121.63	22
2122.59	28
2123.55	28
2124.52	27
2125.48	24
2126.44	27
2127.4	28
2128.36	26
2129.32	30
2130.28	26
2131.24	27
2132.2	26
2133.16	27
2134.12	24
2135.08	24
2136.04	28
2136.99	26
2137.95	24
2138.91	25
2139.87	23
2140.83	31
2141.79	28
2142.75	28
2143.7	28
2144.66	23
2145.62	23.0138
2146.58	29.9198
2147.53	28.0448
2148.49	27.9944
2149.45	26.0237
2150.41	28.2428
2151.36	27.8683
2152.32	25.922
2153.27	27.6852
2154.23	26.1766
2155.19	24.1774
2156.14	25.3515
2157.1	25.1225
2158.06	28.6152
2159.01	25.5649
2159.97	27.1326
2160.92	25.3579
2161.88	22.3468
2162.83	25.1835
2163.79	28
2164.74	29.5969
2165.7	25.5784
2166.65	25.4318
2167.61	26.6408
2168.56	25.2163
2169.51	27.0148
2170.47	25.4804
2171.42	23.4825
2172.38	22.5337
2173.33	24.8719
2174.28	23.131
2175.24	27.0921
2176.19	25.5102
2177.14	31.0753
2178.09	26.7227
2179.05	27.547
2180	23.2539
2180.95	25.9665
2181.9	24.7549
2182.86	27.9221
2183.81	22.3585
2184.76	25.1863
2185.71	23.14
2186.66	24.7794
2187.61	28.9085
2188.57	25.3968
2189.52	23.3985
2190.47	24.9364
2191.42	22.4265
2192.37	25.0294
2193.32	26.4374
2194.27	23.9377
2195.22	23.63
2196.17	25.828
2197.12	27.5343
2198.07	25.7206
2199.02	27.9957
2199.97	24.3636
2200.92	22.6557
2201.87	23.5416
2202.82	25.1617
2203.76	26.5255
2204.71	27.5271
2205.66	27.252
2206.61	23.7463
2207.56	23.5652
2208.51	24.6387
2209.45	25.3227
2210.4	29.1655
2211.35	27.46
2212.3	22.0333
2213.24	23.9154
2214.19	27.0974
2215.14	27.8752
2216.09	25.4738
2217.03	25.2693
2217.98	24.9675
2218.93	23.7444
2219.87	25.6148
2220.82	22.5546
2221.77	23.4416
2222.71	25.2377
2223.66	24.9472
2224.6	23.709
2225.55	26.9
2226.49	27.8896
2227.44	25.0221
2228.38	26.3797
2229.33	25.6251
2230.27	25.8623
2231.22	26.2255
2232.16	26
2233.11	25.4316
2234.05	28.6672
2235	27.6346
2235.94	26.6361
2236.88	23.972
2237.83	23.4118
2238.77	25.8604
2239.71	25.8502
2240.66	24.9559
2241.6	19.816
2242	16
2242.95	30
2243.9	26
2244.84	22
2245.79	25
2246.74	22
2247.69	26
2248.63	24
2249.58	25
2250.53	24
2251.47	22
2252.42	27
2253.37	27
2254.31	22
2255.26	25
2256.2	28
2257.15	27
2258.1	24
2259.04	26
2259.99	30
2260.93	26
2261.88	22
2262.82	29
2263.77	29
2264.71	28
2265.65	25
2266.6	21
2267.54	28
2268.49	23
2269.43	24
2270.38	25
2271.32	32
2272.26	26
2273.21	23
2274.15	30
2275.09	29
2276.04	23
2276.98	24
2277.92	30
2278.86	24
2279.81	29
2280.75	24
2281.69	26
2282.63	22
2283.57	26
2284.52	24
2285.46	22
2286.4	27
2287.34	26
2288.28	29
2289.22	26
2290.16	28
2291.1	24
2292.04	26
2292.98	24
2293.93	28
2294.86	22
2295.8	29
2296.74	26
2297.69	28
2298.62	24
2299.56	29
2300.5	27
2301.44	26
2302.38	25
2303.32	26
2304.26	27
2305.2	28
2306.14	27
2307.07	25
2308.01	26
2308.95	30
2309.89	25
2310.83	30
2311.76	29
2312.7	28
2313.64	31
2314.58	30
2315.51	26
2316.45	28
2317.39	27
2318.32	22
2319.26	26
2320.2	22
2321.13	22
2322.07	28
2323	21
2323.94	27
2324.88	30
2325.81	24
2326.75	28
2327.68	28
2328.62	25
2329.55	22
2330.49	32
2331.42	24
2332.36	26
2333.29	32
2334.22	26
2335.16	30
2336.09	27
2337.03	29
2337.96	28
2338.89	27
2339.83	28
2340.76	25
2341.69	26
2342.63	27
2343.56	25
2344.49	27
2345.43	26
2346.36	28
2347.29	27
2348.22	25
2349.15	23
2350.09	25
2351.02	26
2351.95	29
2352.88	26
2353.81	22
2354.74	26
2355.67	30
2356.61	29
2357.54	31
2358.47	32
2359.4	26
2360.33	23
2361.26	32
2362.19	26
2363.12	28
2364.05	26
2364.98	24
2365.91	28
2366.84	30
2367.77	22
2368.7	24
2369.62	28
2370.55	28
2371.48	29
2372.41	30
2373.34	26
2374.27	28
2375.2	23
2376.12	28
2377.05	27
2377.98	29
2378.91	22
2379.83	26
2380.76	30
2381.69	24
2382.62	26
2383.54	28
2384.47	28
2385.4	28
2386.32	27
2387.25	29
2388.18	27
2389.1	25
2390.03	25
2390.95	24
2391.88	29
2392.81	31
2393.73	22
2394.66	34
2395.58	26
2396.51	26
2397.43	28
2398.36	30
2399.28	25
2400.2	30
2401.13	28
2402.05	28
2402.98	21
2403.9	25
2404.83	27
2405.75	26
2406.67	26
2407.6	26
2408.52	30
2409.44	26
2410.37	24
2411.29	25
2412.21	28
2413.13	26
2414.06	24
2414.98	28
2415.9	28
2416.82	26
2417.74	29
2418.67	22
2419.59	28
2420.51	24
2421.43	25
2422.35	29
2423.27	32
2424.19	22
2425.11	30
2426.03	28
2426.96	26
2427.88	27
2428.8	22
2429.72	30
2430.64	25
2431.56	22
2432.48	29
2433.39	27
2434.31	24
2435.23	28
2436.15	32
2437.07	24
2437.99	29
2438.91	28
2439.83	32
2440.75	29
2441.67	20
2442.58	25
2443.5	24
2444.42	32
2445.34	25
2446.26	22
2447.17	21
2448.09	24
2449.01	24
2449.92	27
2450.84	26
2451.76	29
2452.68	28
2453.59	28
2454.51	26
2455.42	26
2456.34	26
2457.26	26
2458.17	28
2459.09	28
2460	26
2460.92	28
2461.83	33
2462.75	26
2463.66	24
2464.58	27
2465.49	33
2466.41	26
2467.32	26
2468.24	26
2469.15	27
2470.07	25
2470.98	28
2471.89	24
2472.81	25
2473.72	28
2474.64	30
2475.55	26
2476.46	28
2477.37	33
2478.29	30
2479.2	27
2480.11	24
2481.03	34
2481.94	34
2482.85	29
2483.76	23
2484.67	26
2485.59	29
2486.5	28
2487.41	28
2488.32	27
2489.23	26
2490.14	26
2491.05	28
2491.97	29
2492.88	28
2493.79	29
2494.7	28
2495.61	26
2496.52	29
2497.43	21
2498.34	30
2499.25	26
2500.16	30
2501.07	24
2501.98	28
2502.89	28
2503.79	28
2504.7	31
2505.61	28
2506.52	32
2507.43	25
2508.34	30
2509.25	30
2510.16	26
2511.06	29
2511.97	26
2512.88	28
2513.79	31
2514.69	24
2515.6	27
2516.51	27
2517.42	30
2518.32	30
2519.23	30
2520.14	30
2521.04	24
2521.95	26
2522.86	25
2523.76	25
2524.67	29
2525.57	27
2526.48	26
2527.39	26
2528.29	28
2529.2	29
2530.1	28
2531.01	27
2531.91	33
2532.82	26
2533.72	26
2534.63	29
2535.53	30
2536.44	27
2537.34	32
2538.24	27
2539.15	22
2540.05	28
2540.96	29
2541.86	30
2542.76	30
2543.67	24
2544.57	28
2545.47	22
2546.37	24
2547.28	29
2548.18	28
2549.08	24
2549.99	30
2550.89	26
2551.79	27
2552.69	27
2553.59	24
2554.49	26
2555.4	22
2556.3	29
2557.2	27
2558.1	31
2559	28
2559.9	26
2560.8	26
2561.7	28
2562.6	20
2563.5	30
2564.4	28
2565.3	24
2566.2	27
2567.1	29
2568	29
2568.9	25
2569.8	30
2570.7	31
2571.6	29
2572.5	30
2573.4	25
2574.3	18
2575.2	30
2576.1	26
2576.99	28
2577.89	26
2578.79	24
2579.69	30
2580.59	20
2581.48	22
2582.38	31
2583.28	26
2584.18	24
2585.07	20
2585.97	26
2586.87	24
2587.76	29
2588.66	27
2589.56	29
2590.45	29
2591.35	25
2592.25	29
2593.14	26
2594.04	28
2594.93	26
2595.83	26
2596.73	28
2597.62	27
2598.52	26
2599.41	24
2600.31	26
2601.2	29
2602.1	29
2602.99	30
2603.88	26
2604.78	28
2605.67	24
2606.57	28
2607.46	27
2608.35	26
2609.25	33
2610.14	26
2611.03	25
2611.93	25
2612.82	29
2613.71	29
2614.61	28
2615.5	30
2616.39	28
2617.29	28
2618.18	31
2619.07	24
2619.96	24
2620.85	26
2621.75	26
2622.64	24
2623.53	26
2624.42	28
2625.31	24
2626.2	28
2627.09	26
2627.98	25
2628.88	27
2629.77	32
2630.66	26
2631.55	22
2632.44	31
2633.33	26
2634.22	28
2635.11	26
2636	31
2636.89	24
2637.78	30
2638.66	25
2639.55	28
2640.44	27
2641.33	27
2642.22	30
2643.11	27
2644	24
2644.89	27
2645.78	24
2646.66	24
2647.55	30
2648.44	28
2649.33	27
2650.21	27
2651.1	28
2651.99	24
2652.88	26
2653.76	27
2654.65	25
2655.54	26
2656.42	26
2657.31	27
2658.2	26
2659.08	28
2659.97	30
2660.86	28
2661.74	26
2662.63	31
2663.51	26
2664.4	24
2665.29	26
2666.17	30
2667.06	26
2667.94	20
2668.83	30
2669.71	28
2670.6	31
2671.48	24
2672.36	26
2673.25	25
2674.13	26
2675.02	28
2675.9	28
2676.78	30
2677.67	29
2678.55	29
2679.43	23
2680.32	33
2681.2	20
2682.08	33
2682.97	29
2683.85	24
2684.73	29
2685.61	28
2686.5	24
2687.38	28
2688.26	29
2689.14	28
2690.03	27
2690.91	32
2691.79	25
2692.67	27
2693.55	22
2694.43	32
2695.31	20
2696.19	30
2697.08	26
2697.96	30
2698.84	27
2699.72	27
2700.6	22
2701.48	20
2702.36	25
2703.24	29
2704.12	24
2705	27
2705.88	24
2706.76	26
2707.64	29
2708.51	18
2709.39	29
2710.27	24
2711.15	26
2712.03	28
2712.91	27
2713.79	26
2714.67	27
2715.54	28
2716.42	27
2717.3	26
2718.18	27
2719.05	27
2719.93	26
2720.81	30
2721.69	29
2722.56	24
2723.44	27
2724.32	23
2725.19	26
2726.07	28
2726.95	30
2727.82	20
2728.7	26
2729.58	26
2730.45	26
2731.33	26
2732.2	26
2733.08	26
2733.95	26
2734.83	29
2735.7	26
2736.58	32
2737.45	27
2738.33	32
2739.2	28
2740.08	24
2740.95	26
2741.83	27
2742.7	32
2743.58	29
2744.45	24
2745.32	30
2746.2	26
2747.07	31
2747.94	34
2748.82	26
2749.69	26
2750.56	33
2751.44	24
2752.31	25
2753.18	28
2754.05	28
2754.93	25
2755.8	27
2756.67	24
2757.54	24
2758.42	28
2759.29	30
2760.16	28
2761.03	27
2761.9	26
2762.77	27
2763.64	25
2764.51	26
2765.38	27
2766.26	20
2767.13	31
2768	29
2768.87	28
2769.74	27
2770.61	24
2771.48	31
2772.35	31
2773.22	28
2774.09	30
2774.96	30
2775.83	30
2776.7	22
2777.56	30
2778.43	26
2779.3	25
2780.17	30
2781.04	31
2781.91	26
2782.78	29
2783.64	24
2784.51	30
2785.38	31
2786.25	24
2787.12	30
2787.98	32
2788.85	28
2789.72	28
2790.59	24
2791.45	29
2792.32	28
2793.19	29
2794.05	30
2794.92	24
2795.79	29
2796.65	29
2797.52	25
2798.38	24
2799.25	26
2800.12	28
2800.98	29
2801.85	26
2802.71	31
2803.58	31.5
2804.44	32
2805.31	29
2806.17	26
2807.04	24
2807.9	28
2808.77	28
2809.63	29
2810.5	31
2811.36	28
2812.22	33
2813.09	22
2813.95	28
2814.82	32
2815.68	30
2816.54	26
2817.41	35
2818.27	30
2819.13	27
2820	28
2820.86	29
2821.72	32
2822.58	27
2823.45	28
2824.31	25
2825.17	26
2826.03	34
2826.9	26
2827.76	29
2828.62	30
2829.48	30
2830.34	30
2831.2	24
2832.06	32
2832.92	30
2833.79	25
2834.65	26
2835.51	22
2836.37	28
2837.23	28
2838.09	28
2838.95	22
2839.81	29
2840.67	20
2841.53	26
2842.39	24
2843.25	28
2844.11	33
2844.97	26
2845.83	28
2846.68	30
2847.54	32
2848.4	28
2849.26	28
2850.12	27
2850.98	26
2851.84	24
2852.69	28
2853.55	30
2854.41	28
2855.27	28
2856.13	30
2856.98	24
2857.84	24
2858.7	30
2859.56	33
2860.41	28
2861.27	29
2862.13	30
2862.98	29
2863.84	31
2864.7	20
2865.55	32
2866.41	26
2867.27	31
2868.12	32
2868.98	28
2869.83	29
2870.69	30
2871.54	26
2872.4	28
2873.25	30
2874.11	31
2874.96	26
2875.82	32
2876.68	35
2877.53	26
2878.38	32
2879.24	29
2880.09	29
2880.95	33
2881.8	29
2882.65	35
2883.51	37
2884.36	24
2885.22	33
2886.07	35
2886.92	31
2887.77	28
2888.63	32
2889.48	38
2890.33	34
2891.19	35
2892.04	40
2892.89	35
2893.74	40
2894.6	36
2895.45	38
2896.3	40
2897.15	39
2898	42
2898.85	46
2899.71	48
2900.56	42
2901.41	57
2902.26	53
2903.11	54
2903.96	50
2904.81	50
2905.66	56
2906.51	57
2907.36	60
2908.21	54
2909.06	55
2909.91	56
2910.76	55
2911.61	49
2912.46	50
2913.31	50
2914.16	47
2915.01	42
2915.86	43
2916.71	44
2917.56	43
2918.41	37
2919.26	32
2920.1	32
2920.95	36
2921.8	36
2922.65	32
2923.5	28
2924.34	36
2925.19	29
2926.04	35
2926.89	26
2927.74	27
2928.58	31
2929.43	34
2930.28	32
2931.12	34
2931.97	29
2932.82	32
2933.66	30
2934.51	28
2935.36	27
2936.2	26
2937.05	33
2937.89	28
2938.74	26
2939.59	30
2940.43	31
2941.28	28
2942.12	33
2942.97	24
2943.81	34
2944.66	26
2945.5	31
2946.35	32
2947.19	26
2948.04	27
2948.88	28
2949.72	28
2950.57	34
2951.41	28
2952.26	26
2953.1	24
2953.94	32
2954.79	36
2955.63	33
2956.47	30
2957.32	34
2958.16	32
2959	26
2959.85	34
2960.69	36
2961.53	32
2962.37	36
2963.22	41
2964.06	39
2964.9	36
2965.74	35
2966.58	43
2967.42	42
2968.27	34
2969.11	41
2969.95	40
2970.79	35
2971.63	40
2972.47	32
2973.31	36
2974.15	33
2974.99	28
2975.83	31
2976.68	34
2977.52	29
2978.36	32
2979.2	28
2980.04	30
2980.88	24
2981.71	26
2982.55	31
2983.39	32
2984.23	25
2985.07	27
2985.91	29
2986.75	28
2987.59	29
2988.43	30
2989.27	28
2990.1	27
2990.94	28
2991.78	28
2992.62	31
2993.46	22
2994.3	30
2995.13	29
2995.97	27
2996.81	27
2997.64	22
2998.48	27
2999.32	28
