#Acq. time (s)=	3
#Accumulations=	3
#Range (cm-¹)=	100...3000
#Windows=	3
#Autofocus=	Off
#AutoExposure=	Off
#Spike filter=	Multiple accum.
#Delay time (s)=	0
#Binning=	1
#Readout mode=	Signal
#DeNoise=	Off
#ICS correction=	Off
#Dark correction=	Off
#Inst. Process=	Off
#Instrument=	LabRAM HR Evol
#Detector=	Syncerity OE
#Objective=	x100_VIS_LWD
#Grating=	600 (500nm)
#ND Filter=	25%
#Laser=	633nm_Edge
#Hole=	100.021
#Range=	Visible
#Project=	Bolus
#Sample=	A1
#Site=	stripside
#Title=	m04
#Remark=	
#Date=	03.11.2025 18:37
#Acquired=	03.11.2025 18:37:47
100.969	28
102.252	34
103.535	35
104.818	34
106.101	32
107.384	36
108.666	35
109.948	37
111.232	33
112.514	31
113.795	37
115.077	32
116.358	34
117.639	32
118.919	36
120.2	31
121.48	34
122.76	38
124.04	37
125.32	35
126.599	35
127.879	36
129.158	38
130.436	38
131.715	33
132.992	40
134.27	32
135.548	37
136.826	40
138.104	36
139.381	38
140.658	36
141.935	36
143.212	38
144.489	45
145.763	42
147.04	38
148.315	38
149.591	41
150.867	36
152.142	40
153.416	42
154.691	42
155.965	39
157.24	41
158.514	42
159.786	45
161.06	43
162.334	34
163.607	42
164.881	42
166.152	38
167.425	42
168.698	43
169.969	45
171.241	44
172.513	38
173.785	42
175.055	40
176.326	38
177.597	42
178.867	41
180.137	40
181.408	43
182.677	41
183.947	40
185.217	38
186.485	50
187.755	42
189.022	38
190.291	40
191.56	42
192.828	40
194.096	44
195.363	42
196.631	37
197.899	38
199.165	44
200.432	36
201.698	44
202.965	42
204.23	38
205.497	38
206.762	38
208.028	37
209.293	31
210.559	36
211.823	36
213.088	32
214.352	40
215.617	32
216.88	35
218.145	38
219.408	37
220.672	41
221.934	36
223.196	38
224.46	39
225.722	34
226.985	35
228.246	34
229.508	38
230.77	39
232.031	34
233.292	34
234.554	36
235.814	34
237.074	32
238.335	37
239.595	38
240.854	38
242.115	37
243.374	37
244.633	34
245.893	24
247.151	40
248.409	34
249.667	26
250.927	41
252.184	32
253.442	38
254.699	36
255.957	33
257.214	38
258.47	30
259.727	32
260.983	34
262.24	32
263.496	35
264.752	33
266.007	34
267.262	37
268.517	31
269.773	35
271.028	43
272.282	30
273.536	36
274.79	34
276.044	34
277.297	41
278.551	36
279.804	34
281.057	34
282.31	34
283.564	35
284.816	34
286.068	35
287.32	30
288.572	34
289.823	33
291.074	34
292.325	32
293.576	36
294.827	36
296.077	36
297.328	38
298.578	37
299.828	30
301.077	36
302.325	32
303.575	40
304.824	32
306.073	33
307.321	32
308.57	34
309.818	30
311.066	35
312.314	31
313.562	24
314.808	40
316.055	32
317.302	33
318.549	36
319.796	32
321.042	34
322.288	34
323.533	34
324.779	38
326.024	38
327.27	31
328.515	30
329.759	37
331.004	34
332.248	32
333.493	32
334.736	35
335.98	36
337.223	32
338.466	35
339.709	34
340.952	32
342.195	34
343.437	30
344.68	29
345.922	35
347.163	37
348.405	33
349.647	33
350.887	31
352.128	34
353.37	36
354.609	39
355.85	30
357.089	34
358.33	39
359.57	36
360.809	35
362.049	28
363.287	31
364.526	33
365.764	34
367.003	39
368.241	34
369.479	39
370.718	33
371.955	37
373.193	32
374.429	31
375.667	35
376.903	38
378.139	37
379.376	33
380.611	34
381.848	32
383.083	35
384.319	30
385.554	36
386.79	32
388.024	30
389.258	34
390.493	32
391.727	32
392.962	38
394.195	33
395.428	32
396.663	31
397.895	37
399.128	28
400.361	34
401.593	30
402.825	34
404.058	28
405.29	26
406.521	30
407.752	31
408.985	34
410.215	37
411.446	38
412.678	38
413.908	34
415.138	32
416.367	37
417.597	30
418.828	37
420.057	36
421.286	36
422.514	30
423.743	30
424.973	28
426.201	32
427.429	32
428.657	34
429.884	34
431.112	35
432.34	32
433.567	29
434.794	35
436.02	29
437.247	30
438.473	32
439.699	30
440.925	36
442.15	32
443.376	32
444.601	30
445.826	38
447.051	26
448.275	36
449.5	34
450.724	34
451.948	32
453.172	31
454.396	26
455.619	26
456.842	37
458.065	32
459.288	34
460.511	32
461.733	34
462.956	35
464.178	34
465.4	36
466.621	30
467.843	33
469.064	36
470.285	37
471.505	38
472.726	38
473.946	42
475.166	40
476.387	40
477.606	42
478.825	44
480.044	45
481.264	44
482.483	52
483.702	46
484.921	48
486.138	50
487.356	56
488.574	59
489.792	52
491.009	54
492.226	58
493.444	53
494.661	46
495.877	55
497.094	51
498.31	53
499.525	44
500.741	46
501.958	46
503.172	42
504.388	40
505.603	41
506.817	43
508.032	44
509.247	40
510.46	40
511.675	40
512.888	42
514.102	37
515.316	37
516.528	38
517.742	36
518.954	41
520.167	42
521.378	34
522.591	36
523.802	31
525.015	37
526.226	37
527.438	30
528.648	39
529.86	26
531.07	32
532.281	40
533.491	30
534.702	32
535.911	34
537.121	36
538.33	36
539.54	33
540.749	33
541.957	30
543.167	39
544.375	34
545.584	35
546.791	41
547.999	32
549.207	24
550.414	36
551.621	41
552.829	38
554.035	35
555.241	33
556.449	34
557.655	32
558.86	38
560.066	33
561.272	28
562.477	38
563.682	30
564.888	34
566.093	34
567.297	30
568.501	33
569.705	33
570.91	29
572.114	28
573.317	35
574.52	34
575.723	42
576.927	34
578.13	38
579.332	30
580.535	34
581.737	28
582.938	31
584.14	34
585.343	34
586.544	35
587.745	34
588.946	35
590.147	32
591.347	36
592.548	33
593.748	34
594.948	32
596.147	32
597.347	32
598.546	32
599.745	36
600.944	31
602.143	37
603.342	30
604.54	38
605.738	34
606.937	38
608.134	34
609.332	35
610.529	38
611.727	32
612.924	31
614.121	36
615.317	31
616.513	27
617.709	32
618.905	30
620.101	35
621.297	38
622.492	35
623.688	34
624.883	36
626.077	30
627.271	37
628.466	32
629.66	37
630.855	30
632.047	32
633.241	34
634.435	34
635.629	28
636.82	38
638.014	34
639.207	33
640.399	34
641.59	29
642.783	32
643.975	28
645.166	32
646.357	34
647.549	35
648.741	32
649.93	35
651.122	32
652.311	36
653.502	40
654.692	33
655.881	32
657.071	34
658.261	38
659.45	26
660.639	32
661.827	36
663.016	34
664.204	39
665.393	33
666.581	34
667.769	31
668.957	34
670.143	34
671.331	32
672.518	36
673.705	36
674.891	39
676.078	26
677.264	36
678.451	30
679.636	36
680.821	34
682.007	39
683.192	39
684.378	43
685.562	38
686.747	38
687.931	41
689.115	36
690.3	35
691.483	38
692.666	39
693.851	40
695.034	34
696.216	41
697.4	34
698.582	40
699.764	44
700.948	44
702.129	39
703.311	38
704.493	47
705.674	46
706.855	44
708.036	48
709.218	44
710.399	52
711.579	55
712.759	38
713.939	49
715.12	40
716.299	41
717.478	35
718.657	43
719.836	36
721.015	40
722.195	34
723.373	32
724.552	34
725.729	35
726.907	33
728.085	32
729.262	30
730.44	38
731.617	35
732.795	36
733.972	36
735.148	32
736.324	37
737.501	38
738.677	31
739.852	34
741.028	38
742.203	32
743.379	33
744.554	28
745.729	30
746.903	35
748.078	37
749.252	33
750.426	33
751.599	37
752.772	36
753.946	33
755.119	34
756.293	35
757.466	36
758.639	36
759.811	34
760.984	26
762.155	29
763.327	34
764.499	38
765.67	36
766.842	32
768.013	34
769.183	32
770.354	36
771.525	32
772.696	32
773.865	42
775.035	34
776.205	33
777.375	30
778.544	34
779.713	34
780.882	38
782.052	36
783.219	30
784.388	38
785.557	35
786.724	32
787.892	36
789.06	37
790.227	34
791.395	36
792.562	38
793.728	33
794.895	35
796.061	31
797.228	36
798.395	26
799.56	40
800.726	34
801.891	35
803.057	37
804.221	28
805.387	30
806.551	35
807.716	32
808.879	35
810.044	32
811.208	31
812.372	32
813.535	36
814.699	32
815.862	39
817.025	36
818.188	36
819.351	34
820.513	34
821.675	33
822.837	30
823.999	38
825.161	33
826.322	38
827.483	31
828.645	33
829.805	31
830.966	32
832.127	33
833.287	30
834.447	32
835.607	36
836.767	34
837.926	34
839.085	28
840.245	32
841.404	36
842.562	35
843.72	30
844.88	39
846.038	38
847.195	32
848.353	28
849.512	34
850.669	37
851.826	30
852.983	28
854.139	37
855.296	37
856.453	34
857.609	34
858.765	33
859.921	38
861.077	32
862.232	30
863.387	38
864.542	37
865.697	36
866.852	36
868.008	34
869.162	34
870.316	32
871.47	36
872.624	37
873.778	31
874.931	30
876.084	33
877.237	36
878.39	36
879.543	28
880.695	38
881.846	34
882.999	32
884.151	28
885.302	32
886.454	32
887.606	26
888.757	26
889.908	32
891.059	28
892.21	32
893.359	34
894.509	30
895.659	32
896.81	32
897.959	34
899.109	22
900.257	33
901.407	33
902.556	34
903.705	33
904.854	36
906.001	28
907.149	37
908.298	31
909.446	37
910.592	30
911.74	31
912.888	32
914.034	30
915.181	30
916.328	28
917.473	30
918.62	34
919.766	35
920.911	36
922.058	31
923.204	30
924.348	36
925.494	30
926.638	28
927.783	34
928.928	33
930.072	31
931.216	30
932.36	36
933.504	32
934.647	33
935.791	34
936.933	32
938.077	32
939.219	28
940.363	31
941.504	34
942.647	31
943.789	31
944.932	33
946.073	28
947.215	26
948.356	31
949.498	30
950.638	32
951.778	31
952.92	30
954.06	34
955.199	34
956.34	32
957.479	32
958.62	34
959.759	32
960.898	30
962.038	36
963.176	34
964.315	32
965.453	36
966.592	35
967.73	32
968.867	35
970.006	30
971.144	30
972.281	29
973.418	32
974.554	33
975.692	34
976.829	32
977.965	30
979.101	32
980.237	35
981.374	30
982.509	37
983.645	32
984.78	32
985.915	35
987.05	28
988.184	30
989.319	28
990.453	31
991.589	30
992.722	30
993.856	30
994.99	35
996.123	30
997.257	31
998.39	32
999.523	36
1000.66	30
1001.79	26
1002.92	32
1004.05	30
1005.18	33
1006.32	32
1007.45	28
1008.58	32
1009.71	26
1010.84	32
1011.97	28
1013.1	26
1014.23	32
1015.36	26
1016.49	32
1017.62	30
1018.75	28
1019.88	28
1021.01	31
1022.14	33
1023.27	32
1024.4	28
1025.53	30
1026.66	24
1027.79	31
1028.91	29
1030.04	34
1031.17	30
1032.3	33
1033.42	33
1034.55	30
1035.68	34
1036.81	30
1037.93	30
1039.06	32
1040.18	33
1041.31	32
1042.44	32
1043.56	37
1044.69	28
1045.81	34
1046.94	31
1048.06	32
1049.19	30
1050.31	34
1051.44	28
1052.56	30
1053.69	35
1054.81	30
1055.93	31
1057.06	31
1058.18	28
1059.3	31
1060.43	30
1061.55	34
1062.67	33
1063.79	34
1064.92	30
1066.04	32
1067.16	33
1068.28	28
1069.4	31
1070.52	32
1071.65	29
1072.77	37
1073.89	31
1075.01	29
1076.13	30
1077.25	34
1078.37	35
1079.49	36
1080.61	32
1081.73	31
1082.85	28
1083.97	28
1085.09	31
1086.2	32
1087.32	33
1088.44	30
1089.56	34
1090.68	29
1091.8	30
1092.91	30
1094.03	28
1095.15	30
1096.26	29
1097.38	31
1098.5	30
1099.61	30
1100.73	32
1101.85	30
1102.96	30
1104.08	31
1105.19	26
1106.31	29
1107.43	29
1108.54	24
1109.66	35
1110.77	28
1111.88	31
1113	31
1114.11	30
1115.23	33
1116.34	30
1117.46	28
1118.57	28
1119.68	28
1120.8	30
1121.91	28
1123.02	33
1124.13	29
1125.25	36
1126.36	28
1127.47	29
1128.58	27
1129.69	37
1130.8	30
1131.92	28
1133.03	32
1134.14	30
1135.25	29
1136.36	29
1137.47	30
1138.58	26
1139.69	30
1140.8	30
1141.91	34
1143.02	28
1144.13	32
1145.24	32
1146.35	36
1147.46	32
1148.56	26
1149.67	32
1150.78	31
1151.89	28
1153	26
1154.1	28
1155.21	30
1156.32	30
1157.43	29
1158.53	36
1159.64	29
1160.75	31
1161.85	30
1162.96	28
1164.07	30
1165.17	35
1166.28	33
1167.38	28
1168.49	30
1169.59	32
1170.7	28
1171.8	29
1172.91	28
1174.01	33
1175.12	28
1176.22	28
1177.32	29
1178.43	34
1179.53	35
1180.64	24
1181.74	33
1182.84	29
1183.94	24
1185.05	27
1186.15	34
1187.25	24
1188.35	25
1189.46	34
1190.56	35
1191.66	28
1192.76	26
1193.86	30
1194.96	29
1196.06	26
1197.16	32.9137
1198.26	33.9352
1199.37	34
1200.47	28.1919
1201.57	29.9657
1202.67	31.7451
1203.77	29.1629
1204.86	29.8907
1205.96	27.7747
1207.06	28.1119
1208.16	27.0429
1209.26	30.7693
1210.36	28.8555
1211.46	28.1479
1212.56	27.695
1213.65	32.8699
1214.75	30.1422
1215.85	27.7251
1216.95	31.1358
1218.04	31.1008
1219.14	26.2108
1220.24	32.9677
1221.33	28.9503
1222.43	24.677
1223.53	24.9121
1224.62	31.4127
1225.72	30.3099
1226.82	34.3994
1227.91	30.5141
1229.01	29.147
1230.1	30.2773
1231.2	32.451
1232.29	27.8066
1233.39	28.5498
1234.48	31.4408
1235.58	28.0681
1236.67	31.5024
1237.77	23.1184
1238.86	31.1787
1239.95	32.3051
1241.05	26.7451
1242.14	29.2108
1243.23	29.2714
1244.33	29.9101
1245.42	27.2425
1246.51	29.4944
1247.61	30.6029
1248.7	27.4265
1249.79	28.2941
1250.88	28.3128
1251.97	31.3262
1253.07	27.7769
1254.16	27.7267
1255.25	30.331
1256.34	29.6798
1257.43	30.5046
1258.52	31.3088
1259.61	29.4994
1260.7	29.2503
1261.79	29.7018
1262.88	29.2133
1263.97	31.166
1265.06	32.7549
1266.15	31.6324
1267.24	30.9856
1268.33	28.7166
1269.42	26.6765
1270.51	25.5053
1271.6	27.6413
1272.68	28.5625
1273.77	31.5357
1274.86	26.8421
1275.95	24.311
1277.04	27.9675
1278.12	30.6731
1279.21	31.0989
1280.3	29.5826
1281.39	25.8081
1282.47	31.0283
1283.56	30.5117
1284.65	30.3706
1285.73	29.3824
1286.82	28.8595
1287.91	25.2249
1288.99	28.2023
1290.08	31.9586
1291.16	27.2526
1292.25	28.3643
1293.33	26.7303
1294.42	28.4617
1295.5	29.6688
1296.59	27.594
1297.67	21.7899
1298.76	26.3143
1299.84	29.1102
1300.92	31.6122
1302.01	28.1973
1303.09	31.3298
1304.17	25.8031
1305.26	24.443
1306.34	27.6955
1307.34	24
1308.43	29
1309.52	30
1310.61	30
1311.7	29
1312.78	27
1313.87	27
1314.96	22
1316.04	28
1317.13	31
1318.22	30
1319.3	32
1320.39	28
1321.48	31
1322.56	27
1323.65	27
1324.73	32
1325.82	27
1326.9	30
1327.99	34
1329.07	26
1330.16	28
1331.24	30
1332.33	33
1333.41	27
1334.5	33
1335.58	32
1336.66	29
1337.75	31
1338.83	36
1339.91	26
1341	30
1342.08	23
1343.16	32
1344.24	30
1345.33	32
1346.41	32
1347.49	29
1348.57	27
1349.65	28
1350.74	24
1351.82	31
1352.9	26
1353.98	27
1355.06	32
1356.14	30
1357.22	24
1358.3	25
1359.38	20
1360.46	28
1361.54	24
1362.62	30
1363.7	32
1364.78	29
1365.86	26
1366.94	31
1368.02	29
1369.09	30
1370.17	31
1371.25	31
1372.33	31
1373.41	28
1374.48	27
1375.56	33
1376.64	27
1377.72	35
1378.79	31
1379.87	26
1380.95	30
1382.02	23
1383.1	32
1384.17	24
1385.25	29
1386.33	29
1387.4	28
1388.48	28
1389.55	34
1390.63	30
1391.7	29
1392.78	29
1393.85	30
1394.93	31
1396	34
1397.07	30
1398.15	34
1399.22	35
1400.3	28
1401.37	32
1402.44	35
1403.52	36
1404.59	34
1405.66	32
1406.73	37
1407.81	32
1408.88	30
1409.95	32
1411.02	35
1412.09	31
1413.17	34
1414.24	32
1415.31	34
1416.38	39
1417.45	36
1418.52	32
1419.59	32
1420.66	28
1421.73	32
1422.8	32
1423.87	29
1424.94	30
1426.01	27
1427.08	36
1428.15	32
1429.22	29
1430.29	28
1431.35	30
1432.42	34
1433.49	32
1434.56	31
1435.63	30
1436.69	29
1437.76	31
1438.83	26
1439.9	29
1440.96	35
1442.03	29
1443.1	29
1444.17	35
1445.23	32
1446.3	31
1447.36	26
1448.43	31
1449.49	34
1450.56	33
1451.63	31
1452.69	28
1453.76	22
1454.82	30
1455.89	28
1456.95	33
1458.01	30
1459.08	29
1460.14	28
1461.21	30
1462.27	32
1463.34	30
1464.4	31
1465.46	24
1466.52	29
1467.59	28
1468.65	30
1469.71	30
1470.77	28
1471.84	28
1472.9	24
1473.96	28
1475.02	33
1476.08	34
1477.15	31
1478.21	28
1479.27	29
1480.33	28
1481.39	33
1482.45	32
1483.51	28
1484.57	24
1485.63	34
1486.69	26
1487.75	33
1488.81	32
1489.87	24
1490.93	31
1491.99	28
1493.05	31
1494.1	28
1495.16	28
1496.22	30
1497.28	30
1498.34	29
1499.4	26
1500.45	29
1501.51	35
1502.57	37
1503.63	30
1504.68	28
1505.74	34
1506.8	33
1507.85	26
1508.91	30
1509.97	32
1511.02	31
1512.08	30
1513.13	29
1514.19	32
1515.24	31
1516.3	26
1517.35	32
1518.41	28
1519.46	32
1520.52	30
1521.57	29
1522.63	22
1523.68	32
1524.73	28
1525.79	30
1526.84	30
1527.9	31
1528.95	28
1530	24
1531.05	32
1532.11	29
1533.16	28
1534.21	30
1535.26	30
1536.32	26
1537.37	27
1538.42	32
1539.47	30
1540.52	32
1541.57	30
1542.63	26
1543.68	28
1544.73	26
1545.78	28
1546.83	28
1547.88	31
1548.93	29
1549.98	30
1551.03	32
1552.08	32
1553.13	32
1554.18	33
1555.23	28
1556.27	28
1557.32	26
1558.37	30
1559.42	26
1560.47	33
1561.52	28
1562.56	32
1563.61	29
1564.66	30
1565.71	32
1566.75	31
1567.8	24
1568.85	31
1569.9	32
1570.94	31
1571.99	31
1573.03	30
1574.08	28
1575.13	27
1576.17	29
1577.22	28
1578.26	28
1579.31	33
1580.35	31
1581.4	28
1582.44	29
1583.49	36
1584.53	30
1585.58	32
1586.62	32
1587.66	28
1588.71	26
1589.75	29
1590.8	28
1591.84	31
1592.88	29
1593.92	25
1594.97	28
1596.01	32
1597.05	29
1598.1	28
1599.14	31
1600.18	30
1601.22	35
1602.26	27
1603.3	31
1604.35	32
1605.39	30
1606.43	32
1607.47	26
1608.51	28
1609.55	32
1610.59	32
1611.63	34
1612.67	29
1613.71	32
1614.75	28
1615.79	30
1616.83	29
1617.87	29
1618.91	32
1619.95	33
1620.99	26
1622.02	30
1623.06	24
1624.1	27
1625.14	34
1626.18	30
1627.21	26
1628.25	30
1629.29	30
1630.33	32
1631.36	31
1632.4	32
1633.44	26
1634.48	30
1635.51	31
1636.55	30
1637.58	34
1638.62	33
1639.66	32
1640.69	30
1641.73	28
1642.76	28
1643.8	27
1644.83	32
1645.87	28
1646.9	31
1647.94	30
1648.97	32
1650	33
1651.04	32
1652.07	29
1653.11	29
1654.14	32
1655.17	32
1656.21	32
1657.24	29
1658.27	28
1659.31	32
1660.34	26
1661.37	29
1662.4	26
1663.43	30
1664.47	28
1665.5	28
1666.53	31
1667.56	30
1668.59	30
1669.62	33
1670.66	24
1671.69	28
1672.72	33
1673.75	31
1674.78	32
1675.81	32
1676.84	28
1677.87	31
1678.9	26
1679.93	26
1680.96	32
1681.98	24
1683.01	28
1684.04	33
1685.07	28
1686.1	30
1687.13	29
1688.16	32
1689.18	31
1690.21	30
1691.24	32
1692.27	32
1693.3	26
1694.32	26
1695.35	31
1696.38	28
1697.4	31
1698.43	32
1699.46	25
1700.48	28
1701.51	27
1702.54	28
1703.56	32
1704.59	35
1705.61	34
1706.64	28
1707.66	30
1708.69	29
1709.71	33
1710.74	24
1711.76	31
1712.79	32
1713.81	27
1714.83	32
1715.86	24
1716.88	30
1717.91	32
1718.93	29
1719.95	29
1720.98	28
1722	28
1723.02	32
1724.04	28
1725.07	30
1726.09	32
1727.11	36
1728.13	29
1729.15	32
1730.18	33
1731.2	24
1732.22	30
1733.24	30
1734.26	30
1735.28	32
1736.3	28
1737.32	28
1738.34	25
1739.36	28
1740.38	26
1741.4	34
1742.42	28
1743.44	33
1744.46	24
1745.48	28
1746.5	29
1747.52	28
1748.54	32
1749.56	32
1750.58	30
1751.6	32
1752.61	26
1753.63	27
1754.65	30
1755.67	26
1756.68	27
1757.7	36
1758.72	28
1759.74	26
1760.75	30
1761.77	32
1762.79	30
1763.8	30
1764.82	26
1765.83	30
1766.85	31
1767.87	27
1768.88	32
1769.9	32
1770.91	30
1771.93	26
1772.94	28
1773.96	26
1774.97	31
1775.99	34
1777	30
1778.02	30
1779.03	35
1780.04	26
1781.06	30
1782.07	36
1783.09	33
1784.1	30
1785.11	26
1786.13	29
1787.14	27
1788.15	30
1789.16	29
1790.18	32
1791.19	30
1792.2	26
1793.21	28
1794.22	33
1795.23	31
1796.25	26
1797.26	26
1798.27	27
1799.28	32
1800.29	30
1801.3	26
1802.31	32
1803.32	33
1804.33	33
1805.34	28
1806.35	28
1807.36	29
1808.37	36
1809.38	34
1810.39	34
1811.4	26
1812.41	33
1813.42	31
1814.42	34
1815.43	32
1816.44	30
1817.45	29
1818.46	29
1819.47	28
1820.47	34
1821.48	29
1822.49	28
1823.49	28
1824.5	27
1825.51	30
1826.52	30
1827.52	31
1828.53	24
1829.53	28
1830.54	30
1831.55	33
1832.55	32
1833.56	28
1834.56	30
1835.57	30
1836.57	27
1837.58	26
1838.58	30
1839.59	27
1840.59	34
1841.6	29
1842.6	32
1843.61	30
1844.61	28
1845.61	30
1846.62	27
1847.62	30
1848.62	31
1849.63	24
1850.63	28
1851.63	30
1852.64	32
1853.64	26
1854.64	26
1855.64	22
1856.64	38
1857.65	29
1858.65	32
1859.65	32
1860.65	31
1861.65	28
1862.65	30
1863.65	28
1864.66	30
1865.66	32
1866.66	29
1867.66	28
1868.66	33
1869.66	34
1870.66	28
1871.66	30
1872.66	28
1873.66	30
1874.66	24
1875.65	33
1876.65	28
1877.65	30
1878.65	32
1879.65	28
1880.65	26
1881.65	30
1882.64	34
1883.64	26
1884.64	25
1885.64	30
1886.63	28
1887.63	27
1888.63	30
1889.63	31
1890.62	29
1891.62	28
1892.62	28
1893.61	31
1894.61	26
1895.6	36
1896.6	26
1897.6	32
1898.59	31
1899.59	27
1900.58	30
1901.58	31
1902.57	28
1903.57	31
1904.56	31
1905.56	26
1906.55	27
1907.54	22
1908.54	29
1909.53	32
1910.53	28
1911.52	32
1912.51	26
1913.51	32
1914.5	24
1915.49	30
1916.49	29
1917.48	34
1918.47	32
1919.46	28
1920.46	22
1921.45	30
1922.44	35
1923.43	26
1924.42	31
1925.41	28
1926.41	28
1927.4	28
1928.39	32
1929.38	26
1930.37	29
1931.36	26
1932.35	29
1933.34	31
1934.33	22
1935.32	30
1936.31	30
1937.3	23
1938.29	26
1939.28	30
1940.27	31
1941.26	24
1942.24	20
1943.23	25
1944.22	28
1945.21	30
1946.2	30
1947.19	26
1948.17	26
1949.16	28
1950.15	29.5
1951.14	31
1952.12	27
1953.11	30
1954.1	25
1955.09	26
1956.07	22
1957.06	28
1958.05	30
1959.03	27
1960.02	32
1961	27
1961.99	31
1962.98	28
1963.96	26
1964.95	30
1965.93	30
1966.92	28
1967.9	28
1968.89	28
1969.87	24
1970.85	30
1971.84	29
1972.82	22
1973.81	26
1974.79	30
1975.78	29
1976.76	29
1977.74	29
1978.73	26
1979.71	28
1980.69	28
1981.67	25
1982.66	34
1983.64	28
1984.62	24
1985.6	26
1986.59	27
1987.57	30
1988.55	30
1989.53	22
1990.51	33
1991.49	27
1992.47	32
1993.45	18
1994.44	31
1995.42	30
1996.4	29
1997.38	28
1998.36	26
1999.34	27
2000.32	28
2001.3	29
2002.28	32
2003.26	22
2004.24	24
2005.22	26
2006.19	28
2007.17	26
2008.15	29
2009.13	26
2010.11	27
2011.09	35
2012.06	28
2013.04	29
2014.02	27
2015	27
2015.98	31
2016.95	26
2017.93	28
2018.91	32
2019.88	28
2020.86	25
2021.84	28
2022.81	28
2023.79	27
2024.77	30
2025.74	26
2026.72	26
2027.69	24
2028.67	30
2029.65	28
2030.62	29
2031.6	27
2032.57	29
2033.55	25
2034.52	28
2035.5	28
2036.47	28
2037.44	28
2038.42	26
2039.39	33
2040.36	30
2041.34	26
2042.31	30
2043.29	28
2044.26	33
2045.23	26
2046.2	20
2047.18	24
2048.15	28
2049.12	24
2050.09	27
2051.07	28
2052.04	28
2053.01	28
2053.98	29
2054.95	29
2055.93	29
2056.9	28
2057.87	29
2058.84	29
2059.81	32
2060.78	22
2061.75	28
2062.72	24
2063.69	26
2064.66	28
2065.63	28
2066.6	27
2067.57	24
2068.54	30
2069.51	29
2070.48	25
2071.45	31
2072.42	29
2073.38	30
2074.35	24
2075.32	28
2076.29	31
2077.26	26
2078.23	29
2079.19	28
2080.16	29
2081.13	27
2082.1	29
2083.06	32
2084.03	25
2085	27
2085.96	24
2086.93	28
2087.9	28
2088.86	33
2089.83	29
2090.8	26
2091.76	31
2092.73	24
2093.69	28
2094.66	29
2095.62	20
2096.59	30
2097.55	24
2098.52	29
2099.48	31
2100.45	29
2101.41	28
2102.38	24
2103.34	31
2104.31	30
2105.27	28
2106.23	22
2107.2	28
2108.16	31
2109.12	31
2110.09	24
2111.05	28
2112.01	27
2112.98	24
2113.94	28
2114.9	30
2115.86	30
2116.82	29
2117.79	32
2118.75	31
2119.71	32
2120.67	26
2121.63	28
2122.59	20
2123.55	35
2124.52	24
2125.48	28
2126.44	33
2127.4	26
2128.36	24
2129.32	26
2130.28	28
2131.24	25
2132.2	28
2133.16	31
2134.12	30
2135.08	22
2136.04	16
2136.99	28
2137.95	26
2138.91	26
2139.87	28
2140.83	26
2141.79	29
2142.75	33
2143.7	29
2144.66	33
2145.62	27.9962
2146.58	25.9171
2147.53	23.0329
2148.49	24.1345
2149.45	27.9491
2150.41	26.9036
2151.36	25.1827
2152.32	26.0178
2153.27	22.6574
2154.23	27.0931
2155.19	27.0792
2156.14	23.9199
2157.1	29.0956
2158.06	20.5294
2159.01	20.5686
2159.97	24.848
2160.92	28.1912
2161.88	27.3174
2162.83	26.0021
2163.79	27.1912
2164.74	25.6007
2165.7	26.4056
2166.65	27.311
2167.61	26.7974
2168.56	25.7658
2169.51	27.4926
2170.47	25.4982
2171.42	24.9432
2172.38	28.912
2173.33	24.2994
2174.28	28.1681
2175.24	31.3079
2176.19	21.7824
2177.14	29.2285
2178.09	24.0294
2179.05	26.0552
2180	26.9565
2180.95	25.9665
2181.9	28.6102
2182.86	27.7296
2183.81	26.0418
2184.76	27.5484
2185.71	25.7416
2186.66	26.0147
2187.61	28.5997
2188.57	21.459
2189.52	25.0836
2190.47	24.9361
2191.42	25.1964
2192.37	27.647
2193.32	25.2614
2194.27	24.6824
2195.22	25.8871
2196.17	28.4345
2197.12	25.8189
2198.07	24.2639
2199.02	23.8374
2199.97	27.9287
2200.92	28.5857
2201.87	26.882
2202.82	28.1579
2203.76	24.1794
2204.71	27.3292
2205.66	26.1127
2206.61	26.6565
2207.56	25.776
2208.51	29.5342
2209.45	27.8222
2210.4	28.0093
2211.35	27.5361
2212.3	29.5361
2213.24	26.7959
2214.19	24.2892
2215.14	25.1176
2216.09	24
2217.03	25.0392
2217.98	23.9349
2218.93	25.0462
2219.87	27.1531
2220.82	27.7977
2221.77	26.0339
2222.71	24
2223.66	24
2224.6	26.3935
2225.55	26.4069
2226.49	24.9706
2227.44	24.2018
2228.38	24.6781
2229.33	28.2738
2230.27	26.4429
2231.22	26.0341
2232.16	28.514
2233.11	29.3385
2234.05	26.9719
2235	27.6301
2235.94	27.4554
2236.88	25.7843
2237.83	24.6765
2238.77	24.0343
2239.71	25.2969
2240.66	26.576
2241.6	26.9853
2242	27
2242.95	29
2243.9	28
2244.84	30
2245.79	23
2246.74	28
2247.69	28
2248.63	24
2249.58	28
2250.53	29
2251.47	26
2252.42	26
2253.37	25
2254.31	31
2255.26	26
2256.2	27
2257.15	28
2258.1	28
2259.04	28
2259.99	26
2260.93	24
2261.88	29
2262.82	23
2263.77	25
2264.71	28
2265.65	26
2266.6	29
2267.54	31
2268.49	27
2269.43	28
2270.38	26
2271.32	27
2272.26	26
2273.21	24
2274.15	26
2275.09	28
2276.04	30
2276.98	25
2277.92	25
2278.86	24
2279.81	25
2280.75	28
2281.69	25
2282.63	28
2283.57	26
2284.52	26
2285.46	29
2286.4	28
2287.34	28
2288.28	26
2289.22	28
2290.16	24
2291.1	28
2292.04	25
2292.98	28
2293.93	20
2294.86	22
2295.8	20
2296.74	30
2297.69	25
2298.62	25
2299.56	24
2300.5	28
2301.44	25
2302.38	24
2303.32	24
2304.26	28
2305.2	27
2306.14	24
2307.07	28
2308.01	28
2308.95	29
2309.89	26
2310.83	21
2311.76	26
2312.7	28
2313.64	23
2314.58	29
2315.51	25
2316.45	28
2317.39	26
2318.32	27
2319.26	28
2320.2	28
2321.13	30
2322.07	24
2323	30
2323.94	28
2324.88	26
2325.81	26
2326.75	24
2327.68	26
2328.62	26
2329.55	25
2330.49	24
2331.42	27
2332.36	22
2333.29	31
2334.22	28
2335.16	22
2336.09	26
2337.03	32
2337.96	28
2338.89	20
2339.83	27
2340.76	25
2341.69	27
2342.63	24
2343.56	27
2344.49	28
2345.43	24
2346.36	30
2347.29	22
2348.22	22
2349.15	29
2350.09	26
2351.02	29
2351.95	26
2352.88	28
2353.81	30
2354.74	29
2355.67	24
2356.61	26
2357.54	24
2358.47	29
2359.4	20
2360.33	24
2361.26	25
2362.19	29
2363.12	30
2364.05	28
2364.98	28
2365.91	24
2366.84	27
2367.77	26
2368.7	26
2369.62	30
2370.55	28
2371.48	20
2372.41	25
2373.34	27
2374.27	31
2375.2	20
2376.12	27
2377.05	22
2377.98	32
2378.91	28
2379.83	29
2380.76	22
2381.69	27
2382.62	30
2383.54	24
2384.47	24
2385.4	25
2386.32	26
2387.25	27
2388.18	24
2389.1	24
2390.03	28
2390.95	30
2391.88	29
2392.81	27
2393.73	27
2394.66	26
2395.58	26
2396.51	28
2397.43	30
2398.36	26
2399.28	28
2400.2	23
2401.13	25
2402.05	29
2402.98	29
2403.9	32
2404.83	30
2405.75	30
2406.67	32
2407.6	29
2408.52	29
2409.44	30
2410.37	28
2411.29	28
2412.21	30
2413.13	29
2414.06	29
2414.98	27
2415.9	30
2416.82	25
2417.74	27
2418.67	28
2419.59	27
2420.51	24
2421.43	25
2422.35	26
2423.27	28
2424.19	22
2425.11	34
2426.03	29
2426.96	26
2427.88	24
2428.8	22
2429.72	25
2430.64	28
2431.56	28
2432.48	27
2433.39	28
2434.31	27
2435.23	27
2436.15	29
2437.07	22
2437.99	28
2438.91	28
2439.83	28
2440.75	32
2441.67	28
2442.58	29
2443.5	28
2444.42	26
2445.34	24
2446.26	24
2447.17	27
2448.09	32
2449.01	30
2449.92	31
2450.84	29
2451.76	24
2452.68	31
2453.59	26
2454.51	28
2455.42	28
2456.34	28
2457.26	22
2458.17	24
2459.09	29
2460	27
2460.92	26
2461.83	27
2462.75	28
2463.66	30
2464.58	26
2465.49	29
2466.41	28
2467.32	29
2468.24	32
2469.15	28
2470.07	29
2470.98	30
2471.89	30
2472.81	29
2473.72	28
2474.64	29
2475.55	30
2476.46	24
2477.37	28
2478.29	25
2479.2	32
2480.11	28
2481.03	26
2481.94	31
2482.85	30
2483.76	26
2484.67	30
2485.59	28
2486.5	27
2487.41	27
2488.32	32
2489.23	29
2490.14	30
2491.05	22
2491.97	27
2492.88	29
2493.79	28
2494.7	29
2495.61	26
2496.52	27
2497.43	27
2498.34	27
2499.25	23
2500.16	30
2501.07	32
2501.98	30
2502.89	26
2503.79	32
2504.7	22
2505.61	29
2506.52	22
2507.43	26
2508.34	29
2509.25	32
2510.16	28
2511.06	28
2511.97	27
2512.88	32
2513.79	26
2514.69	32
2515.6	26
2516.51	27
2517.42	27
2518.32	30
2519.23	26
2520.14	32
2521.04	27
2521.95	27
2522.86	24
2523.76	28
2524.67	25
2525.57	32
2526.48	28
2527.39	24
2528.29	27
2529.2	26
2530.1	32
2531.01	32
2531.91	28
2532.82	35
2533.72	26
2534.63	26
2535.53	26
2536.44	24
2537.34	31
2538.24	32
2539.15	22
2540.05	26
2540.96	28
2541.86	26
2542.76	29
2543.67	30
2544.57	28
2545.47	30
2546.37	21
2547.28	28
2548.18	29
2549.08	30
2549.99	24
2550.89	29
2551.79	20
2552.69	28
2553.59	30
2554.49	28
2555.4	31
2556.3	28
2557.2	22
2558.1	28
2559	28
2559.9	24
2560.8	31
2561.7	24
2562.6	29
2563.5	24
2564.4	28
2565.3	28
2566.2	28
2567.1	24
2568	26
2568.9	26
2569.8	28
2570.7	30
2571.6	30
2572.5	28
2573.4	24
2574.3	32
2575.2	29
2576.1	31
2576.99	26
2577.89	22
2578.79	25
2579.69	22
2580.59	25
2581.48	26
2582.38	28
2583.28	28
2584.18	29
2585.07	26
2585.97	29
2586.87	22
2587.76	26
2588.66	28
2589.56	22
2590.45	26
2591.35	25
2592.25	28
2593.14	26
2594.04	25
2594.93	31
2595.83	28
2596.73	27
2597.62	27
2598.52	32
2599.41	29
2600.31	26
2601.2	29
2602.1	29
2602.99	27
2603.88	25
2604.78	26
2605.67	32
2606.57	34
2607.46	30
2608.35	28
2609.25	30
2610.14	31
2611.03	29
2611.93	24
2612.82	27
2613.71	31
2614.61	28
2615.5	29
2616.39	24
2617.29	29
2618.18	24
2619.07	30
2619.96	32
2620.85	28
2621.75	31
2622.64	31
2623.53	30
2624.42	28
2625.31	28
2626.2	25
2627.09	30
2627.98	28
2628.88	30
2629.77	20
2630.66	26
2631.55	28
2632.44	26
2633.33	31
2634.22	28
2635.11	29
2636	30
2636.89	24
2637.78	34
2638.66	24
2639.55	26
2640.44	24
2641.33	30
2642.22	26
2643.11	28
2644	29
2644.89	31
2645.78	22
2646.66	26
2647.55	30
2648.44	29
2649.33	31
2650.21	26
2651.1	24
2651.99	26
2652.88	28
2653.76	27
2654.65	29
2655.54	29
2656.42	31
2657.31	26
2658.2	28
2659.08	29
2659.97	32
2660.86	27
2661.74	31
2662.63	29
2663.51	30
2664.4	28
2665.29	25
2666.17	29
2667.06	24
2667.94	26
2668.83	27
2669.71	33
2670.6	30
2671.48	32
2672.36	28
2673.25	26
2674.13	26
2675.02	35
2675.9	32
2676.78	26
2677.67	30
2678.55	25
2679.43	26
2680.32	29
2681.2	27
2682.08	31
2682.97	29
2683.85	29
2684.73	31
2685.61	26
2686.5	26
2687.38	24
2688.26	28
2689.14	29
2690.03	27
2690.91	28
2691.79	26
2692.67	24
2693.55	27
2694.43	29
2695.31	26
2696.19	28
2697.08	26
2697.96	24
2698.84	23
2699.72	31
2700.6	22
2701.48	26
2702.36	29
2703.24	25
2704.12	29
2705	26
2705.88	29
2706.76	24
2707.64	33
2708.51	30
2709.39	28
2710.27	24
2711.15	28
2712.03	30
2712.91	26
2713.79	29
2714.67	30
2715.54	27
2716.42	28
2717.3	30
2718.18	26
2719.05	27
2719.93	33
2720.81	25
2721.69	30
2722.56	28
2723.44	28
2724.32	28
2725.19	27
2726.07	24
2726.95	31
2727.82	25
2728.7	18
2729.58	28
2730.45	31
2731.33	30
2732.2	28
2733.08	22
2733.95	30
2734.83	30
2735.7	30
2736.58	28
2737.45	29
2738.33	29
2739.2	30
2740.08	29
2740.95	26
2741.83	26
2742.7	26
2743.58	20
2744.45	26
2745.32	26
2746.2	28
2747.07	34
2747.94	26
2748.82	26
2749.69	28
2750.56	26
2751.44	32
2752.31	28
2753.18	27
2754.05	25
2754.93	26
2755.8	27
2756.67	27
2757.54	25
2758.42	24
2759.29	27
2760.16	26
2761.03	26
2761.9	27
2762.77	31
2763.64	24
2764.51	25
2765.38	34
2766.26	29
2767.13	28
2768	28
2768.87	28
2769.74	29
2770.61	24
2771.48	29
2772.35	31
2773.22	27
2774.09	24
2774.96	28
2775.83	28
2776.7	25
2777.56	28
2778.43	28
2779.3	33
2780.17	24
2781.04	28
2781.91	28
2782.78	26
2783.64	29
2784.51	31
2785.38	24
2786.25	30
2787.12	26
2787.98	26
2788.85	30
2789.72	24
2790.59	32
2791.45	28
2792.32	28
2793.19	24
2794.05	34
2794.92	26
2795.79	28
2796.65	26
2797.52	26
2798.38	30
2799.25	27
2800.12	28
2800.98	26
2801.85	29
2802.71	31
2803.58	32
2804.44	33
2805.31	27
2806.17	26
2807.04	28
2807.9	31
2808.77	34
2809.63	32
2810.5	25
2811.36	29
2812.22	32
2813.09	25
2813.95	29
2814.82	30
2815.68	28
2816.54	27
2817.41	27
2818.27	26
2819.13	32
2820	23
2820.86	26
2821.72	32
2822.58	30
2823.45	24
2824.31	28
2825.17	28
2826.03	32
2826.9	30
2827.76	27
2828.62	26
2829.48	34
2830.34	30
2831.2	28
2832.06	34
2832.92	33
2833.79	28
2834.65	30
2835.51	25
2836.37	27
2837.23	36
2838.09	31
2838.95	31
2839.81	26
2840.67	28
2841.53	26
2842.39	27
2843.25	29
2844.11	26
2844.97	27
2845.83	28
2846.68	22
2847.54	22
2848.4	26
2849.26	30
2850.12	29
2850.98	29
2851.84	30
2852.69	31
2853.55	30
2854.41	25
2855.27	27
2856.13	30
2856.98	22
2857.84	26
2858.7	28
2859.56	26
2860.41	36
2861.27	30
2862.13	32
2862.98	24
2863.84	27
2864.7	29
2865.55	26
2866.41	33
2867.27	28
2868.12	30
2868.98	29
2869.83	31
2870.69	26
2871.54	31
2872.4	32
2873.25	28
2874.11	35
2874.96	32
2875.82	34
2876.68	34
2877.53	30
2878.38	28
2879.24	32
2880.09	33
2880.95	32
2881.8	35
2882.65	36
2883.51	34
2884.36	34
2885.22	36
2886.07	36
2886.92	40
2887.77	38
2888.63	38
2889.48	38
2890.33	38
2891.19	36
2892.04	38
2892.89	38
2893.74	40
2894.6	46
2895.45	47
2896.3	43
2897.15	42
2898	47
2898.85	44
2899.71	50
2900.56	51
2901.41	58
2902.26	58
2903.11	60
2903.96	56
2904.81	60
2905.66	62
2906.51	58
2907.36	62
2908.21	64
2909.06	61
2909.91	53
2910.76	63
2911.61	54
2912.46	50
2913.31	55
2914.16	46
2915.01	47
2915.86	50
2916.71	46
2917.56	42
2918.41	36
2919.26	38
2920.1	36
2920.95	38
2921.8	38
2922.65	36
2923.5	36
2924.34	30
2925.19	34
2926.04	30
2926.89	39
2927.74	31
2928.58	30
2929.43	28
2930.28	34
2931.12	30
2931.97	28
2932.82	32
2933.66	35
2934.51	32
2935.36	28
2936.2	28
2937.05	33
2937.89	32
2938.74	28
2939.59	29
2940.43	26
2941.28	33
2942.12	29
2942.97	32
2943.81	28
2944.66	26
2945.5	33
2946.35	32
2947.19	35
2948.04	32
2948.88	26
2949.72	35
2950.57	24
2951.41	35
2952.26	30
2953.1	32
2953.94	37
2954.79	37
2955.63	32
2956.47	34
2957.32	38
2958.16	35
2959	34
2959.85	32
2960.69	36
2961.53	35
2962.37	36
2963.22	40
2964.06	38
2964.9	42
2965.74	37
2966.58	49
2967.42	45
2968.27	45
2969.11	42
2969.95	36
2970.79	40
2971.63	34
2972.47	36
2973.31	36
2974.15	36
2974.99	38
2975.83	30
2976.68	38
2977.52	35
2978.36	32
2979.2	32
2980.04	30
2980.88	32
2981.71	32
2982.55	26
2983.39	30
2984.23	30
2985.07	29
2985.91	30
2986.75	24
2987.59	28
2988.43	25
2989.27	27
2990.1	29
2990.94	30
2991.78	27
2992.62	29
2993.46	26
2994.3	27
2995.13	30
2995.97	28
2996.81	28
2997.64	35
2998.48	32
2999.32	28
