#Acq. time (s)=	3
#Accumulations=	3
#Range (cm-¹)=	100...3000
#Windows=	3
#Autofocus=	Off
#AutoExposure=	Off
#Spike filter=	Multiple accum.
#Delay time (s)=	0
#Binning=	1
#Readout mode=	Signal
#DeNoise=	Off
#ICS correction=	Off
#Dark correction=	Off
#Inst. Process=	Off
#Instrument=	LabRAM HR Evol
#Detector=	Syncerity OE
#Objective=	x100_VIS_LWD
#Grating=	600 (500nm)
#ND Filter=	25%
#Laser=	633nm_Edge
#Hole=	100.021
#Range=	Visible
#Project=	Bolus
#Sample=	A1
#Site=	stripside
#Title=	m08
#Remark=	
#Date=	03.11.2025 18:43
#Acquired=	03.11.2025 18:43:07
100.969	24
102.252	33
103.535	38
104.818	36
106.101	28
107.384	26
108.666	34
109.948	33
111.232	26
112.514	28
113.795	40
115.077	26
116.358	24
117.639	36
118.919	29
120.2	32
121.48	40
122.76	31
124.04	32
125.32	34
126.599	30
127.879	32
129.158	36
130.436	37
131.715	36
132.992	38
134.27	37
135.548	34
136.826	42
138.104	34
139.381	34
140.658	35
141.935	32
143.212	38
144.489	37
145.763	41
147.04	33
148.315	38
149.591	39
150.867	37
152.142	38
153.416	36
154.691	35
155.965	40
157.24	39
158.514	40
159.786	35
161.06	37
162.334	36
163.607	37
164.881	30
166.152	39
167.425	39
168.698	42
169.969	35
171.241	42
172.513	34
173.785	36
175.055	37
176.326	36
177.597	35
178.867	38
180.137	30
181.408	38
182.677	38
183.947	38
185.217	39
186.485	41
187.755	34
189.022	46
190.291	42
191.56	44
192.828	44
194.096	36
195.363	41
196.631	42
197.899	41
199.165	37
200.432	35
201.698	36
202.965	36
204.23	31
205.497	38
206.762	33
208.028	37
209.293	37
210.559	38
211.823	37
213.088	32
214.352	32
215.617	34
216.88	36
218.145	37
219.408	35
220.672	36
221.934	36
223.196	36
224.46	30
225.722	38
226.985	34
228.246	34
229.508	35
230.77	29
232.031	28
233.292	34
234.554	32
235.814	35
237.074	31
238.335	30
239.595	31
240.854	36
242.115	34
243.374	24
244.633	33
245.893	32
247.151	33
248.409	32
249.667	30
250.927	32
252.184	35
253.442	36
254.699	32
255.957	27
257.214	33
258.47	30
259.727	30
260.983	31
262.24	31
263.496	32
264.752	32
266.007	35
267.262	42
268.517	26
269.773	35
271.028	32
272.282	32
273.536	32
274.79	34
276.044	32
277.297	30
278.551	29
279.804	34
281.057	31
282.31	32
283.564	29
284.816	35
286.068	36
287.32	30
288.572	30
289.823	30
291.074	35
292.325	30
293.576	28
294.827	32
296.077	37
297.328	35
298.578	36
299.828	36
301.077	34
302.325	30
303.575	34
304.824	31
306.073	28
307.321	28
308.57	33
309.818	28
311.066	36
312.314	33
313.562	36
314.808	31
316.055	32
317.302	30
318.549	38
319.796	32
321.042	39
322.288	30
323.533	31
324.779	36
326.024	34
327.27	34
328.515	36
329.759	30
331.004	35
332.248	28
333.493	30
334.736	37
335.98	30
337.223	33
338.466	32
339.709	34
340.952	31
342.195	32
343.437	36
344.68	36
345.922	34
347.163	34
348.405	28
349.647	31
350.887	26
352.128	30
353.37	31
354.609	39
355.85	36
357.089	35
358.33	32
359.57	34
360.809	30
362.049	32
363.287	33
364.526	30
365.764	33
367.003	31
368.241	32
369.479	28
370.718	28
371.955	37
373.193	36
374.429	33
375.667	34
376.903	33
378.139	28
379.376	36
380.611	33
381.848	30
383.083	32
384.319	34
385.554	31
386.79	30
388.024	31
389.258	34
390.493	36
391.727	34
392.962	26
394.195	32
395.428	37
396.663	33
397.895	35
399.128	34
400.361	36
401.593	32
402.825	32
404.058	34
405.29	30
406.521	34
407.752	32
408.985	30
410.215	35
411.446	25
412.678	34
413.908	38
415.138	33
416.367	32
417.597	32
418.828	32
420.057	34
421.286	30
422.514	35
423.743	32
424.973	30
426.201	28
427.429	30
428.657	34
429.884	37
431.112	36
432.34	35
433.567	30
434.794	30
436.02	31
437.247	33
438.473	33
439.699	31
440.925	34
442.15	36
443.376	32
444.601	37
445.826	32
447.051	36
448.275	34
449.5	39
450.724	30
451.948	33
453.172	35
454.396	32
455.619	40
456.842	30
458.065	34
459.288	33
460.511	30
461.733	36
462.956	36
464.178	35
465.4	38
466.621	32
467.843	34
469.064	33
470.285	37
471.505	32
472.726	30
473.946	38
475.166	38
476.387	43
477.606	42
478.825	39
480.044	46
481.264	44
482.483	52
483.702	49
484.921	50
486.138	54
487.356	56
488.574	48
489.792	60
491.009	50
492.226	46
493.444	46
494.661	49
495.877	48
497.094	46
498.31	46
499.525	41
500.741	42
501.958	42
503.172	41
504.388	41
505.603	43
506.817	40
508.032	43
509.247	36
510.46	38
511.675	40
512.888	34
514.102	35
515.316	35
516.528	38
517.742	40
518.954	28
520.167	32
521.378	32
522.591	37
523.802	37
525.015	37
526.226	35
527.438	30
528.648	30
529.86	36
531.07	30
532.281	34
533.491	32
534.702	38
535.911	32
537.121	32
538.33	28
539.54	30
540.749	33
541.957	34
543.167	34
544.375	30
545.584	36
546.791	30
547.999	31
549.207	30
550.414	29
551.621	31
552.829	28
554.035	32
555.241	32
556.449	32
557.655	28
558.86	35
560.066	32
561.272	36
562.477	28
563.682	29
564.888	38
566.093	32
567.297	26
568.501	34
569.705	29
570.91	32
572.114	32
573.317	33
574.52	32
575.723	33
576.927	32
578.13	28
579.332	33
580.535	30
581.737	22
582.938	31
584.14	29
585.343	31
586.544	36
587.745	30
588.946	34
590.147	28
591.347	31
592.548	34
593.748	28
594.948	31
596.147	32
597.347	31
598.546	36
599.745	28
600.944	36
602.143	34
603.342	28
604.54	40
605.738	37
606.937	35
608.134	28
609.332	30
610.529	32
611.727	33
612.924	36
614.121	34
615.317	36
616.513	33
617.709	34
618.905	32
620.101	26
621.297	37
622.492	33
623.688	32
624.883	30
626.077	37
627.271	37
628.466	28
629.66	32
630.855	38
632.047	32
633.241	32
634.435	31
635.629	35
636.82	37
638.014	40
639.207	36
640.399	36
641.59	30
642.783	34
643.975	32
645.166	34
646.357	40
647.549	33
648.741	28
649.93	31
651.122	32
652.311	33
653.502	31
654.692	32
655.881	38
657.071	32
658.261	34
659.45	37
660.639	32
661.827	35
663.016	28
664.204	36
665.393	30
666.581	33
667.769	28
668.957	37
670.143	32
671.331	32
672.518	34
673.705	32
674.891	28
676.078	36
677.264	35
678.451	32
679.636	37
680.821	31
682.007	33
683.192	41
684.378	35
685.562	35
686.747	38
687.931	35
689.115	38
690.3	38
691.483	40
692.666	42
693.851	44
695.034	32
696.216	30
697.4	35
698.582	39
699.764	36
700.948	36
702.129	38
703.311	43
704.493	34
705.674	47
706.855	44
708.036	42
709.218	42
710.399	48
711.579	47
712.759	39
713.939	42
715.12	43
716.299	39
717.478	40
718.657	33
719.836	35
721.015	39
722.195	38
723.373	37
724.552	33
725.729	31
726.907	31
728.085	32
729.262	36
730.44	33
731.617	28
732.795	29
733.972	36
735.148	31
736.324	34
737.501	40
738.677	29
739.852	32
741.028	33
742.203	38
743.379	31
744.554	28
745.729	33
746.903	33
748.078	30
749.252	32
750.426	28
751.599	30
752.772	34
753.946	32
755.119	24
756.293	34
757.466	28
758.639	29
759.811	32
760.984	33
762.155	36
763.327	32
764.499	30
765.67	31
766.842	34
768.013	31
769.183	30
770.354	28
771.525	28
772.696	36
773.865	32
775.035	34
776.205	37
777.375	31
778.544	31
779.713	29
780.882	31
782.052	34
783.219	30
784.388	32
785.557	35
786.724	37
787.892	35
789.06	32
790.227	31
791.395	36
792.562	30
793.728	30
794.895	32
796.061	40
797.228	24
798.395	34
799.56	32
800.726	36
801.891	32
803.057	33
804.221	35
805.387	36
806.551	36
807.716	30
808.879	37
810.044	39
811.208	35
812.372	34
813.535	30
814.699	29
815.862	33
817.025	26
818.188	30
819.351	31
820.513	34
821.675	35
822.837	33
823.999	28
825.161	30
826.322	29
827.483	33
828.645	34
829.805	33
830.966	28
832.127	35
833.287	30
834.447	29
835.607	33
836.767	31
837.926	34
839.085	34
840.245	28
841.404	30
842.562	30
843.72	31
844.88	32
846.038	42
847.195	34
848.353	36
849.512	35
850.669	28
851.826	36
852.983	35
854.139	36
855.296	31
856.453	26
857.609	28
858.765	34
859.921	32
861.077	28
862.232	35
863.387	37
864.542	36
865.697	34
866.852	30
868.008	27
869.162	28
870.316	28
871.47	33
872.624	30
873.778	30
874.931	31
876.084	31
877.237	33
878.39	31
879.543	24
880.695	32
881.846	35
882.999	36
884.151	30
885.302	28
886.454	33
887.606	33
888.757	34
889.908	32
891.059	35
892.21	30
893.359	28
894.509	34
895.659	30
896.81	28
897.959	32
899.109	31
900.257	31
901.407	28
902.556	33
903.705	33
904.854	29
906.001	32
907.149	35
908.298	22
909.446	28
910.592	31
911.74	34
912.888	29
914.034	26
915.181	33
916.328	32
917.473	31
918.62	33
919.766	30
920.911	32
922.058	33
923.204	31
924.348	28
925.494	34
926.638	28
927.783	25
928.928	32
930.072	30
931.216	32
932.36	32
933.504	33
934.647	28
935.791	32
936.933	22
938.077	30
939.219	32
940.363	32
941.504	33
942.647	29
943.789	37
944.932	28
946.073	26
947.215	29
948.356	28
949.498	30
950.638	26
951.778	32
952.92	32
954.06	28
955.199	37
956.34	29
957.479	28
958.62	34
959.759	31
960.898	31
962.038	24
963.176	34
964.315	28
965.453	29
966.592	34
967.73	28
968.867	30
970.006	32
971.144	32
972.281	32
973.418	30
974.554	29
975.692	34
976.829	31
977.965	30
979.101	31
980.237	28
981.374	36
982.509	28
983.645	29
984.78	34
985.915	28
987.05	22
988.184	26
989.319	32
990.453	27
991.589	30
992.722	35
993.856	30
994.99	32
996.123	30
997.257	30
998.39	28
999.523	30
1000.66	30
1001.79	27
1002.92	30
1004.05	30
1005.18	32
1006.32	34
1007.45	29
1008.58	30
1009.71	28
1010.84	32
1011.97	30
1013.1	26
1014.23	30
1015.36	32
1016.49	24
1017.62	32
1018.75	28
1019.88	24
1021.01	32
1022.14	29
1023.27	30
1024.4	33
1025.53	24
1026.66	30
1027.79	29
1028.91	30
1030.04	32
1031.17	28
1032.3	31
1033.42	32
1034.55	24
1035.68	34
1036.81	35
1037.93	28
1039.06	25
1040.18	28
1041.31	30
1042.44	31
1043.56	30
1044.69	28
1045.81	29
1046.94	31
1048.06	30
1049.19	30
1050.31	30
1051.44	33
1052.56	30
1053.69	30
1054.81	31
1055.93	28
1057.06	34
1058.18	28
1059.3	34
1060.43	22
1061.55	30
1062.67	30
1063.79	28
1064.92	24
1066.04	34
1067.16	28
1068.28	30
1069.4	28
1070.52	27
1071.65	32
1072.77	31
1073.89	31
1075.01	33
1076.13	20
1077.25	34
1078.37	30
1079.49	30
1080.61	32
1081.73	32
1082.85	33
1083.97	30
1085.09	22
1086.2	30
1087.32	32
1088.44	32
1089.56	28
1090.68	29
1091.8	31
1092.91	31
1094.03	30
1095.15	28
1096.26	26
1097.38	25
1098.5	34
1099.61	30
1100.73	28
1101.85	27
1102.96	28
1104.08	34
1105.19	32
1106.31	27
1107.43	30
1108.54	32
1109.66	28
1110.77	26
1111.88	28
1113	26
1114.11	32
1115.23	30
1116.34	31
1117.46	26
1118.57	29
1119.68	29
1120.8	30
1121.91	24
1123.02	27
1124.13	32
1125.25	28
1126.36	30
1127.47	28
1128.58	28
1129.69	30
1130.8	28
1131.92	24
1133.03	29
1134.14	28
1135.25	26
1136.36	28
1137.47	36
1138.58	30
1139.69	28
1140.8	25
1141.91	26
1143.02	27
1144.13	31
1145.24	30
1146.35	28
1147.46	31
1148.56	32
1149.67	30
1150.78	24
1151.89	26
1153	26
1154.1	35
1155.21	31
1156.32	34
1157.43	28
1158.53	30
1159.64	29
1160.75	32
1161.85	30
1162.96	30
1164.07	35
1165.17	26
1166.28	24
1167.38	30
1168.49	24
1169.59	32
1170.7	21
1171.8	28
1172.91	24
1174.01	28
1175.12	30
1176.22	24
1177.32	28
1178.43	32
1179.53	26
1180.64	33
1181.74	29
1182.84	29
1183.94	26
1185.05	26
1186.15	34
1187.25	28
1188.35	22
1189.46	27
1190.56	32
1191.66	26
1192.76	32
1193.86	28
1194.96	24
1196.06	30.9559
1197.16	29.8906
1198.26	30.8176
1199.37	27.9771
1200.47	28.9956
1201.57	22.3235
1202.67	28.069
1203.77	24.4412
1204.86	27.0729
1205.96	24.8968
1207.06	26.0179
1208.16	22.7271
1209.26	28.5668
1210.36	27.6722
1211.46	25.9277
1212.56	27.5436
1213.65	29.3529
1214.75	27.5732
1215.85	27.2803
1216.95	24.2671
1218.04	30.3018
1219.14	29.5653
1220.24	23.6465
1221.33	29.3362
1222.43	26.8734
1223.53	27.5494
1224.62	27.1921
1225.72	32.3182
1226.82	30.7106
1227.91	19.86
1229.01	29.1424
1230.1	30.3907
1231.2	28.9296
1232.29	29.0731
1233.39	26.5243
1234.48	29.6107
1235.58	31.0683
1236.67	28.3407
1237.77	26.8912
1238.86	26.5659
1239.95	29.0558
1241.05	25.0687
1242.14	29.1928
1243.23	24.8836
1244.33	23.7451
1245.42	27.5807
1246.51	29
1247.61	28.3055
1248.7	25.259
1249.79	26.2206
1250.88	28.3548
1251.97	27.0045
1253.07	25.284
1254.16	24.7549
1255.25	26.312
1256.34	30.4151
1257.43	28.8374
1258.52	30.2696
1259.61	28.7404
1260.7	25.6649
1261.79	25.8857
1262.88	27.8617
1263.97	23.3195
1265.06	26.2117
1266.15	26.6736
1267.24	26.9973
1268.33	29.5385
1269.42	30.6673
1270.51	26.9853
1271.6	27.2745
1272.68	26.9265
1273.77	27.3366
1274.86	25.7103
1275.95	26.2985
1277.04	28.5392
1278.12	27.7524
1279.21	24.5053
1280.3	29.8901
1281.39	28.666
1282.47	25.6405
1283.56	28.9893
1284.65	27.0049
1285.73	26.3824
1286.82	27.2732
1287.91	28.1626
1288.99	25.3044
1290.08	28.2402
1291.16	28.6052
1292.25	26.8937
1293.33	24.8503
1294.42	26.5276
1295.5	23.4453
1296.59	26.4295
1297.67	24.6232
1298.76	28.581
1299.84	25.5661
1300.92	29.2669
1302.01	28
1303.09	27.8627
1304.17	27.8269
1305.26	24.1921
1306.34	26.1792
1307.34	28
1308.43	26
1309.52	30
1310.61	26
1311.7	24
1312.78	32
1313.87	24
1314.96	29
1316.04	28
1317.13	26
1318.22	25
1319.3	26
1320.39	31
1321.48	32
1322.56	26
1323.65	27
1324.73	30
1325.82	24
1326.9	26
1327.99	28
1329.07	30
1330.16	27
1331.24	26
1332.33	26
1333.41	30
1334.5	24
1335.58	29
1336.66	27
1337.75	26
1338.83	28
1339.91	28
1341	35
1342.08	26
1343.16	30
1344.24	30
1345.33	27
1346.41	30
1347.49	28
1348.57	20
1349.65	29
1350.74	29
1351.82	28
1352.9	27
1353.98	32
1355.06	28
1356.14	26
1357.22	32
1358.3	26
1359.38	26
1360.46	31
1361.54	30
1362.62	26
1363.7	25
1364.78	20
1365.86	30
1366.94	27
1368.02	30
1369.09	28
1370.17	24
1371.25	30
1372.33	24
1373.41	30
1374.48	20
1375.56	26
1376.64	27
1377.72	28
1378.79	28
1379.87	24
1380.95	24
1382.02	30
1383.1	29
1384.17	30
1385.25	26
1386.33	32
1387.4	24
1388.48	29
1389.55	29
1390.63	32
1391.7	30
1392.78	24
1393.85	26
1394.93	29
1396	34
1397.07	27
1398.15	28
1399.22	28
1400.3	29
1401.37	31
1402.44	31
1403.52	30
1404.59	34
1405.66	33
1406.73	32
1407.81	30
1408.88	30
1409.95	31
1411.02	30
1412.09	30
1413.17	32
1414.24	33
1415.31	38
1416.38	34
1417.45	33
1418.52	34
1419.59	29
1420.66	30
1421.73	35
1422.8	34
1423.87	32
1424.94	28
1426.01	26
1427.08	33
1428.15	30
1429.22	32
1430.29	31
1431.35	28
1432.42	27
1433.49	27
1434.56	30
1435.63	28
1436.69	27
1437.76	28
1438.83	28
1439.9	29
1440.96	32
1442.03	29
1443.1	29
1444.17	31
1445.23	30
1446.3	26
1447.36	26
1448.43	28
1449.49	28
1450.56	31
1451.63	22
1452.69	32
1453.76	31
1454.82	25
1455.89	24
1456.95	28
1458.01	28
1459.08	28
1460.14	26
1461.21	27
1462.27	30
1463.34	28
1464.4	28
1465.46	26
1466.52	28
1467.59	24
1468.65	30
1469.71	23
1470.77	26
1471.84	28
1472.9	31
1473.96	24
1475.02	26
1476.08	28
1477.15	27
1478.21	24
1479.27	28
1480.33	22
1481.39	28
1482.45	32
1483.51	27
1484.57	27
1485.63	26
1486.69	24
1487.75	26
1488.81	28
1489.87	29
1490.93	29
1491.99	31
1493.05	28
1494.1	25
1495.16	27
1496.22	24
1497.28	34
1498.34	33
1499.4	28
1500.45	29
1501.51	26
1502.57	30
1503.63	26
1504.68	26
1505.74	26
1506.8	30
1507.85	32
1508.91	27
1509.97	34
1511.02	28
1512.08	26
1513.13	29
1514.19	32
1515.24	28
1516.3	26
1517.35	28
1518.41	30
1519.46	27
1520.52	32
1521.57	30
1522.63	33
1523.68	26
1524.73	26
1525.79	30
1526.84	31
1527.9	24
1528.95	31
1530	28
1531.05	31
1532.11	32
1533.16	27
1534.21	29
1535.26	23
1536.32	26
1537.37	28
1538.42	30
1539.47	32
1540.52	28
1541.57	34
1542.63	32
1543.68	26
1544.73	28
1545.78	30
1546.83	28
1547.88	25
1548.93	36
1549.98	23
1551.03	26
1552.08	28
1553.13	28
1554.18	28
1555.23	31
1556.27	22
1557.32	20
1558.37	26
1559.42	29
1560.47	28
1561.52	30
1562.56	28
1563.61	32
1564.66	26
1565.71	26
1566.75	30
1567.8	28
1568.85	22
1569.9	30
1570.94	26
1571.99	28
1573.03	31
1574.08	22
1575.13	32
1576.17	28
1577.22	26
1578.26	28
1579.31	28
1580.35	28
1581.4	25
1582.44	30
1583.49	33
1584.53	26
1585.58	26
1586.62	27
1587.66	28
1588.71	26
1589.75	28
1590.8	28
1591.84	26
1592.88	28
1593.92	26
1594.97	28
1596.01	27
1597.05	31
1598.1	28
1599.14	28
1600.18	30
1601.22	33
1602.26	26
1603.3	26
1604.35	28
1605.39	28
1606.43	28
1607.47	28
1608.51	22
1609.55	32
1610.59	28
1611.63	31
1612.67	29
1613.71	33
1614.75	24
1615.79	26
1616.83	29
1617.87	32
1618.91	28
1619.95	31
1620.99	31
1622.02	29
1623.06	29
1624.1	24
1625.14	31
1626.18	28
1627.21	26
1628.25	16
1629.29	31
1630.33	28
1631.36	27
1632.4	34
1633.44	28
1634.48	26
1635.51	28
1636.55	28
1637.58	31
1638.62	32
1639.66	29
1640.69	31
1641.73	34
1642.76	29
1643.8	30
1644.83	24
1645.87	33
1646.9	30
1647.94	28
1648.97	27
1650	29
1651.04	28
1652.07	26
1653.11	28
1654.14	24
1655.17	30
1656.21	24
1657.24	26
1658.27	26
1659.31	29
1660.34	32
1661.37	26
1662.4	28
1663.43	28
1664.47	32
1665.5	28
1666.53	30
1667.56	29
1668.59	30
1669.62	26
1670.66	24
1671.69	32
1672.72	29
1673.75	36
1674.78	26
1675.81	26
1676.84	29
1677.87	27
1678.9	31
1679.93	28
1680.96	33
1681.98	25
1683.01	28
1684.04	27
1685.07	29
1686.1	26
1687.13	30
1688.16	32
1689.18	27
1690.21	27
1691.24	25
1692.27	31
1693.3	25
1694.32	24
1695.35	25
1696.38	28
1697.4	26
1698.43	24
1699.46	31
1700.48	24
1701.51	28
1702.54	33
1703.56	33
1704.59	24
1705.61	29
1706.64	26
1707.66	20
1708.69	28
1709.71	30
1710.74	31
1711.76	30
1712.79	28
1713.81	30
1714.83	29
1715.86	28
1716.88	30
1717.91	38
1718.93	22
1719.95	32
1720.98	27
1722	28
1723.02	29
1724.04	31
1725.07	30
1726.09	32
1727.11	28
1728.13	28
1729.15	26
1730.18	27
1731.2	30
1732.22	29
1733.24	29
1734.26	30
1735.28	27
1736.3	30
1737.32	24
1738.34	30
1739.36	30
1740.38	20
1741.4	30
1742.42	20
1743.44	29
1744.46	30
1745.48	25
1746.5	30
1747.52	28
1748.54	33
1749.56	30
1750.58	30
1751.6	24
1752.61	28
1753.63	26
1754.65	30
1755.67	28
1756.68	31
1757.7	30
1758.72	26
1759.74	28
1760.75	30
1761.77	32
1762.79	29
1763.8	28
1764.82	26
1765.83	31
1766.85	31
1767.87	26
1768.88	33
1769.9	30
1770.91	28
1771.93	28
1772.94	26
1773.96	26
1774.97	22
1775.99	29
1777	30
1778.02	30
1779.03	30
1780.04	31
1781.06	28
1782.07	28
1783.09	30
1784.1	29
1785.11	26
1786.13	31
1787.14	22
1788.15	29
1789.16	30
1790.18	28
1791.19	26
1792.2	29
1793.21	30
1794.22	24
1795.23	28
1796.25	28
1797.26	30
1798.27	32
1799.28	34
1800.29	24
1801.3	26
1802.31	22
1803.32	29
1804.33	32
1805.34	28
1806.35	27
1807.36	29
1808.37	22
1809.38	25
1810.39	26
1811.4	28
1812.41	26
1813.42	32
1814.42	26
1815.43	30
1816.44	30
1817.45	28
1818.46	28
1819.47	24
1820.47	29
1821.48	31
1822.49	27
1823.49	32
1824.5	24
1825.51	31
1826.52	28
1827.52	32
1828.53	31
1829.53	28
1830.54	26
1831.55	30
1832.55	29
1833.56	30
1834.56	27
1835.57	27
1836.57	24
1837.58	30
1838.58	29
1839.59	23
1840.59	26
1841.6	22
1842.6	30
1843.61	33
1844.61	26
1845.61	32
1846.62	29
1847.62	30
1848.62	26
1849.63	28
1850.63	32
1851.63	24
1852.64	27
1853.64	24
1854.64	29
1855.64	28
1856.64	29
1857.65	28
1858.65	31
1859.65	29
1860.65	28
1861.65	25
1862.65	27
1863.65	27
1864.66	32
1865.66	24
1866.66	33
1867.66	24
1868.66	26
1869.66	22
1870.66	29
1871.66	24
1872.66	24
1873.66	27
1874.66	24
1875.65	30
1876.65	30
1877.65	25
1878.65	28
1879.65	31
1880.65	23
1881.65	24
1882.64	28
1883.64	28
1884.64	29
1885.64	26
1886.63	27
1887.63	30
1888.63	24
1889.63	23
1890.62	27
1891.62	34
1892.62	25
1893.61	32
1894.61	22
1895.6	30
1896.6	30
1897.6	30
1898.59	22
1899.59	24
1900.58	32
1901.58	30
1902.57	25
1903.57	28
1904.56	28
1905.56	28
1906.55	22
1907.54	28
1908.54	28
1909.53	31
1910.53	26
1911.52	29
1912.51	27
1913.51	26
1914.5	27
1915.49	27
1916.49	30
1917.48	31
1918.47	24
1919.46	28
1920.46	26
1921.45	25
1922.44	26
1923.43	22
1924.42	30
1925.41	34
1926.41	27
1927.4	26
1928.39	29
1929.38	28
1930.37	28
1931.36	26
1932.35	28
1933.34	29
1934.33	28
1935.32	29
1936.31	25
1937.3	22
1938.29	26
1939.28	28
1940.27	29
1941.26	28
1942.24	31
1943.23	24
1944.22	27
1945.21	25
1946.2	28
1947.19	26
1948.17	22
1949.16	20
1950.15	25
1951.14	29
1952.12	28
1953.11	26
1954.1	29
1955.09	28
1956.07	28
1957.06	24
1958.05	30
1959.03	23
1960.02	29
1961	25
1961.99	29
1962.98	29
1963.96	26
1964.95	26
1965.93	30
1966.92	27
1967.9	22
1968.89	27
1969.87	26
1970.85	33
1971.84	29
1972.82	28
1973.81	28
1974.79	29
1975.78	28
1976.76	29
1977.74	32
1978.73	21
1979.71	27
1980.69	30
1981.67	28
1982.66	28
1983.64	28
1984.62	25
1985.6	20
1986.59	23
1987.57	24
1988.55	22
1989.53	28
1990.51	28
1991.49	26
1992.47	27
1993.45	24
1994.44	32
1995.42	26
1996.4	30
1997.38	23
1998.36	32
1999.34	28
2000.32	29
2001.3	25
2002.28	30
2003.26	24
2004.24	30
2005.22	25
2006.19	27
2007.17	25
2008.15	28
2009.13	27
2010.11	27
2011.09	25
2012.06	25
2013.04	25
2014.02	28
2015	28
2015.98	25
2016.95	30
2017.93	28
2018.91	28
2019.88	24
2020.86	27
2021.84	31
2022.81	28
2023.79	24
2024.77	28
2025.74	26
2026.72	30
2027.69	26
2028.67	28
2029.65	25
2030.62	28
2031.6	26
2032.57	26
2033.55	26
2034.52	32
2035.5	16
2036.47	24
2037.44	27
2038.42	29
2039.39	28
2040.36	27
2041.34	28
2042.31	31
2043.29	30
2044.26	28
2045.23	26
2046.2	24
2047.18	28
2048.15	30
2049.12	26
2050.09	28
2051.07	29
2052.04	26
2053.01	29
2053.98	24
2054.95	27
2055.93	27
2056.9	29
2057.87	31
2058.84	26
2059.81	27
2060.78	20
2061.75	22
2062.72	26
2063.69	26
2064.66	27
2065.63	24
2066.6	30
2067.57	28
2068.54	30
2069.51	25
2070.48	28
2071.45	28
2072.42	26
2073.38	29
2074.35	28
2075.32	24
2076.29	27
2077.26	26
2078.23	18
2079.19	27
2080.16	25
2081.13	26
2082.1	22
2083.06	30
2084.03	23
2085	28
2085.96	32
2086.93	27
2087.9	30
2088.86	30
2089.83	22
2090.8	29
2091.76	25
2092.73	26
2093.69	28
2094.66	25
2095.62	28
2096.59	24
2097.55	27
2098.52	27
2099.48	25
2100.45	29
2101.41	30
2102.38	29
2103.34	26
2104.31	26
2105.27	25
2106.23	22
2107.2	26
2108.16	25
2109.12	20
2110.09	22
2111.05	24
2112.01	27
2112.98	24
2113.94	28
2114.9	33
2115.86	22
2116.82	25
2117.79	24
2118.75	22
2119.71	28
2120.67	24
2121.63	28
2122.59	28
2123.55	21
2124.52	26
2125.48	26
2126.44	25
2127.4	29
2128.36	24
2129.32	25
2130.28	24
2131.24	26
2132.2	25
2133.16	27
2134.12	28
2135.08	28
2136.04	27
2136.99	32
2137.95	23
2138.91	22
2139.87	23
2140.83	26
2141.79	22
2142.75	26
2143.7	26
2144.66	28
2145.62	25.9927
2146.58	23.9519
2147.53	22.1429
2148.49	23.1057
2149.45	25.095
2150.41	25.2004
2151.36	26.8599
2152.32	23.8529
2153.27	21.1019
2154.23	24.1717
2155.19	24.8036
2156.14	27.6384
2157.1	25.3006
2158.06	24.5131
2159.01	25.7009
2159.97	26.8037
2160.92	24.321
2161.88	25.8211
2162.83	23.4612
2163.79	29.2353
2164.74	24.602
2165.7	24.2148
2166.65	23.6586
2167.61	25.5485
2168.56	28.5588
2169.51	26.0296
2170.47	24.6796
2171.42	23.4174
2172.38	29.7396
2173.33	25.0994
2174.28	28.701
2175.24	27.6411
2176.19	28.1735
2177.14	22.2211
2178.09	25.2227
2179.05	24.663
2180	25.8797
2180.95	23.4706
2181.9	27.9276
2182.86	25.9941
2183.81	21.4481
2184.76	26.6379
2185.71	26.7367
2186.66	28.3971
2187.61	23.3464
2188.57	26.541
2189.52	25.1291
2190.47	25.6641
2191.42	25.2379
2192.37	25.9412
2193.32	29.3404
2194.27	25.8323
2195.22	21.7118
2196.17	24.2309
2197.12	23.5081
2198.07	25.4559
2199.02	27.2347
2199.97	24.1801
2200.92	23.2794
2201.87	24.6459
2202.82	22.652
2203.76	24.8323
2204.71	26.4786
2205.66	23.1795
2206.61	23.7285
2207.56	26.3578
2208.51	22.3237
2209.45	27.0338
2210.4	26.2911
2211.35	24.9879
2212.3	26.4064
2213.24	26.8868
2214.19	26.8217
2215.14	28.3974
2216.09	24.0342
2217.03	25.6562
2217.98	26.8802
2218.93	26.1548
2219.87	24.0009
2220.82	27.1438
2221.77	24.2247
2222.71	23.6445
2223.66	27.3159
2224.6	24.7786
2225.55	25.8324
2226.49	27.0514
2227.44	23.7182
2228.38	22.5828
2229.33	25.2002
2230.27	24.9419
2231.22	26.5978
2232.16	25.6337
2233.11	25.6025
2234.05	26.6391
2235	25.793
2235.94	24.6999
2236.88	27.8123
2237.83	28.0147
2238.77	26.4599
2239.71	26.5259
2240.66	26.3799
2241.6	24.2704
2242	23
2242.95	28
2243.9	27
2244.84	27
2245.79	26
2246.74	24
2247.69	28
2248.63	28
2249.58	27
2250.53	26
2251.47	25
2252.42	22
2253.37	27
2254.31	26
2255.26	21
2256.2	25
2257.15	25
2258.1	22
2259.04	29
2259.99	22
2260.93	24
2261.88	26
2262.82	25
2263.77	24
2264.71	27
2265.65	26
2266.6	26
2267.54	27
2268.49	25
2269.43	30
2270.38	30
2271.32	24
2272.26	27
2273.21	30
2274.15	28
2275.09	23
2276.04	22
2276.98	27
2277.92	29
2278.86	26
2279.81	25
2280.75	28
2281.69	29
2282.63	29
2283.57	24
2284.52	23
2285.46	28
2286.4	26
2287.34	22
2288.28	30
2289.22	27
2290.16	26
2291.1	22
2292.04	22
2292.98	32
2293.93	24
2294.86	25
2295.8	23
2296.74	24
2297.69	26
2298.62	22
2299.56	26
2300.5	19
2301.44	20
2302.38	25
2303.32	24
2304.26	26
2305.2	24
2306.14	27
2307.07	24
2308.01	25
2308.95	24
2309.89	25
2310.83	24
2311.76	27
2312.7	24
2313.64	24
2314.58	28
2315.51	26
2316.45	26
2317.39	24
2318.32	27
2319.26	26
2320.2	32
2321.13	30
2322.07	18
2323	29
2323.94	27
2324.88	27
2325.81	24
2326.75	24
2327.68	26
2328.62	22
2329.55	25
2330.49	24
2331.42	27
2332.36	24
2333.29	26
2334.22	26
2335.16	22
2336.09	27
2337.03	26
2337.96	22
2338.89	26
2339.83	23
2340.76	28
2341.69	27
2342.63	28
2343.56	20
2344.49	31
2345.43	22
2346.36	24
2347.29	32
2348.22	24
2349.15	25
2350.09	31
2351.02	26
2351.95	29
2352.88	29
2353.81	20
2354.74	22
2355.67	22
2356.61	25
2357.54	30
2358.47	28
2359.4	29
2360.33	25
2361.26	24
2362.19	26
2363.12	30
2364.05	28
2364.98	29
2365.91	27
2366.84	27
2367.77	20
2368.7	26
2369.62	21
2370.55	26
2371.48	25
2372.41	27
2373.34	24
2374.27	27
2375.2	29
2376.12	27
2377.05	26
2377.98	26
2378.91	24
2379.83	28
2380.76	28
2381.69	27
2382.62	25
2383.54	28
2384.47	27
2385.4	28
2386.32	28
2387.25	30
2388.18	20
2389.1	29
2390.03	26
2390.95	26
2391.88	24
2392.81	24
2393.73	24
2394.66	29
2395.58	25
2396.51	30
2397.43	24
2398.36	25
2399.28	26
2400.2	28
2401.13	28
2402.05	32
2402.98	30
2403.9	25
2404.83	26
2405.75	26
2406.67	24
2407.6	30
2408.52	31
2409.44	24
2410.37	29
2411.29	29
2412.21	24
2413.13	26
2414.06	28
2414.98	29
2415.9	31
2416.82	29
2417.74	28
2418.67	28
2419.59	24
2420.51	23
2421.43	24
2422.35	28
2423.27	33
2424.19	29
2425.11	26
2426.03	26
2426.96	30
2427.88	25
2428.8	24
2429.72	26
2430.64	27
2431.56	26
2432.48	27
2433.39	28
2434.31	30
2435.23	24
2436.15	25
2437.07	23
2437.99	18
2438.91	28
2439.83	25
2440.75	26
2441.67	29
2442.58	25
2443.5	28
2444.42	22
2445.34	26
2446.26	28
2447.17	26
2448.09	30
2449.01	27
2449.92	34
2450.84	28
2451.76	22
2452.68	26
2453.59	34
2454.51	24
2455.42	25
2456.34	25
2457.26	27
2458.17	22
2459.09	26
2460	20
2460.92	28
2461.83	28
2462.75	28
2463.66	26
2464.58	31
2465.49	29
2466.41	29
2467.32	26
2468.24	30
2469.15	26
2470.07	26
2470.98	30
2471.89	20
2472.81	27
2473.72	26
2474.64	28
2475.55	26
2476.46	28
2477.37	20
2478.29	24
2479.2	24
2480.11	30
2481.03	29
2481.94	29
2482.85	24
2483.76	30
2484.67	22
2485.59	29
2486.5	20
2487.41	25
2488.32	27
2489.23	27
2490.14	28
2491.05	27
2491.97	28
2492.88	28
2493.79	26
2494.7	30
2495.61	24
2496.52	29
2497.43	31
2498.34	28
2499.25	28
2500.16	20
2501.07	32
2501.98	26
2502.89	30
2503.79	24
2504.7	24
2505.61	29
2506.52	28
2507.43	26
2508.34	24
2509.25	32
2510.16	22
2511.06	25
2511.97	25
2512.88	22
2513.79	27
2514.69	27
2515.6	28
2516.51	24
2517.42	22
2518.32	29
2519.23	28
2520.14	28
2521.04	30
2521.95	23
2522.86	29
2523.76	29
2524.67	28
2525.57	28
2526.48	24
2527.39	24
2528.29	30
2529.2	29
2530.1	29
2531.01	20
2531.91	28
2532.82	26
2533.72	27
2534.63	28
2535.53	26
2536.44	28
2537.34	24
2538.24	31
2539.15	26
2540.05	29
2540.96	27
2541.86	27
2542.76	26
2543.67	30
2544.57	28
2545.47	30
2546.37	30
2547.28	28
2548.18	26
2549.08	27
2549.99	27
2550.89	28
2551.79	24
2552.69	24
2553.59	24
2554.49	28
2555.4	24
2556.3	27
2557.2	26
2558.1	26
2559	20
2559.9	26
2560.8	26
2561.7	24
2562.6	28
2563.5	25
2564.4	29
2565.3	33
2566.2	26
2567.1	30
2568	29
2568.9	22
2569.8	28
2570.7	28
2571.6	27
2572.5	24
2573.4	25
2574.3	25
2575.2	23
2576.1	25
2576.99	28
2577.89	26
2578.79	26
2579.69	32
2580.59	29
2581.48	24
2582.38	28
2583.28	26
2584.18	26
2585.07	28
2585.97	26
2586.87	30
2587.76	30
2588.66	27
2589.56	22
2590.45	35
2591.35	26
2592.25	27
2593.14	29
2594.04	29
2594.93	28
2595.83	22
2596.73	31
2597.62	27
2598.52	24
2599.41	32
2600.31	28
2601.2	23
2602.1	28
2602.99	30
2603.88	30
2604.78	26
2605.67	24
2606.57	28
2607.46	35
2608.35	29
2609.25	29
2610.14	29
2611.03	29
2611.93	25
2612.82	26
2613.71	26
2614.61	26
2615.5	23
2616.39	27
2617.29	29
2618.18	24
2619.07	28
2619.96	29
2620.85	32
2621.75	27
2622.64	26
2623.53	29
2624.42	28
2625.31	24
2626.2	31
2627.09	24
2627.98	24
2628.88	26
2629.77	26
2630.66	28
2631.55	28
2632.44	26
2633.33	32
2634.22	30
2635.11	22
2636	31
2636.89	28
2637.78	20
2638.66	31
2639.55	28
2640.44	28
2641.33	26
2642.22	28
2643.11	31
2644	24
2644.89	27
2645.78	22
2646.66	28
2647.55	26
2648.44	25
2649.33	30
2650.21	26
2651.1	27
2651.99	24
2652.88	30
2653.76	27
2654.65	26
2655.54	33
2656.42	30
2657.31	26
2658.2	29
2659.08	30
2659.97	25
2660.86	20
2661.74	27
2662.63	32
2663.51	29
2664.4	24
2665.29	28
2666.17	20
2667.06	22
2667.94	27
2668.83	30
2669.71	21
2670.6	30
2671.48	28
2672.36	28
2673.25	30
2674.13	26
2675.02	29
2675.9	28
2676.78	25
2677.67	30
2678.55	25
2679.43	31
2680.32	26
2681.2	26
2682.08	29
2682.97	28
2683.85	24
2684.73	26
2685.61	30
2686.5	20
2687.38	26
2688.26	20
2689.14	24
2690.03	26
2690.91	28
2691.79	25
2692.67	28
2693.55	25
2694.43	28
2695.31	29
2696.19	22
2697.08	27
2697.96	26
2698.84	30
2699.72	24
2700.6	28
2701.48	30
2702.36	26
2703.24	24
2704.12	25
2705	28
2705.88	28
2706.76	28
2707.64	30
2708.51	28
2709.39	26
2710.27	26
2711.15	25
2712.03	28
2712.91	30
2713.79	29
2714.67	27
2715.54	24
2716.42	28
2717.3	27
2718.18	24
2719.05	22
2719.93	29
2720.81	26
2721.69	28
2722.56	29
2723.44	27
2724.32	25
2725.19	29
2726.07	31
2726.95	24
2727.82	26
2728.7	26
2729.58	25
2730.45	32
2731.33	30
2732.2	27
2733.08	20
2733.95	26
2734.83	27
2735.7	29
2736.58	27
2737.45	21
2738.33	25
2739.2	24
2740.08	21
2740.95	20
2741.83	24
2742.7	28
2743.58	22
2744.45	28
2745.32	30
2746.2	20
2747.07	30
2747.94	29
2748.82	27
2749.69	27
2750.56	30
2751.44	27
2752.31	26
2753.18	27
2754.05	29
2754.93	27
2755.8	26
2756.67	24
2757.54	21
2758.42	26
2759.29	28
2760.16	28
2761.03	26
2761.9	26
2762.77	27
2763.64	28
2764.51	28
2765.38	23
2766.26	23
2767.13	30
2768	32
2768.87	30
2769.74	23
2770.61	22
2771.48	26
2772.35	27
2773.22	32
2774.09	26
2774.96	27
2775.83	24
2776.7	26
2777.56	24
2778.43	24
2779.3	24
2780.17	28
2781.04	26
2781.91	28
2782.78	28
2783.64	32
2784.51	26
2785.38	23
2786.25	22
2787.12	30
2787.98	29
2788.85	24
2789.72	29
2790.59	24
2791.45	26
2792.32	24
2793.19	26
2794.05	27
2794.92	29
2795.79	23
2796.65	28
2797.52	32
2798.38	29
2799.25	27
2800.12	30
2800.98	20
2801.85	28
2802.71	26
2803.58	29.5
2804.44	28
2805.31	30
2806.17	24
2807.04	24
2807.9	27
2808.77	24
2809.63	28
2810.5	37
2811.36	25
2812.22	29
2813.09	31
2813.95	27
2814.82	30
2815.68	27
2816.54	26
2817.41	30
2818.27	34
2819.13	32
2820	30
2820.86	28
2821.72	30
2822.58	26
2823.45	26
2824.31	22
2825.17	30
2826.03	18
2826.9	30
2827.76	22
2828.62	32
2829.48	29
2830.34	31
2831.2	29
2832.06	31
2832.92	29
2833.79	24
2834.65	28
2835.51	29
2836.37	28
2837.23	28
2838.09	29
2838.95	29
2839.81	30
2840.67	30
2841.53	25
2842.39	24
2843.25	29
2844.11	28
2844.97	26
2845.83	27
2846.68	31
2847.54	26
2848.4	29
2849.26	22
2850.12	28
2850.98	26
2851.84	26
2852.69	24
2853.55	30
2854.41	26
2855.27	26
2856.13	29
2856.98	20
2857.84	27
2858.7	29
2859.56	22
2860.41	33
2861.27	26
2862.13	26
2862.98	30
2863.84	28
2864.7	29
2865.55	26
2866.41	32
2867.27	24
2868.12	28
2868.98	31
2869.83	26
2870.69	26
2871.54	28
2872.4	28
2873.25	28
2874.11	30
2874.96	28
2875.82	26
2876.68	31
2877.53	34
2878.38	28
2879.24	30
2880.09	36
2880.95	31
2881.8	28
2882.65	37
2883.51	35
2884.36	30
2885.22	38
2886.07	34
2886.92	36
2887.77	38
2888.63	40
2889.48	34
2890.33	30
2891.19	36
2892.04	38
2892.89	38
2893.74	37
2894.6	38
2895.45	49
2896.3	36
2897.15	41
2898	44
2898.85	49
2899.71	46
2900.56	46
2901.41	55
2902.26	51
2903.11	51
2903.96	56
2904.81	48
2905.66	55
2906.51	54
2907.36	54
2908.21	58
2909.06	48
2909.91	57
2910.76	48
2911.61	51
2912.46	48
2913.31	48
2914.16	44
2915.01	43
2915.86	45
2916.71	40
2917.56	43
2918.41	34
2919.26	36
2920.1	36
2920.95	32
2921.8	36
2922.65	38
2923.5	28
2924.34	38
2925.19	28
2926.04	31
2926.89	34
2927.74	33
2928.58	28
2929.43	26
2930.28	36
2931.12	28
2931.97	28
2932.82	28
2933.66	29
2934.51	29
2935.36	28
2936.2	34
2937.05	30
2937.89	32
2938.74	31
2939.59	27
2940.43	24
2941.28	28
2942.12	26
2942.97	24
2943.81	28
2944.66	30
2945.5	31
2946.35	25
2947.19	30
2948.04	29
2948.88	25
2949.72	30
2950.57	32
2951.41	32
2952.26	30
2953.1	33
2953.94	37
2954.79	33
2955.63	34
2956.47	35
2957.32	30
2958.16	35
2959	37
2959.85	34
2960.69	38
2961.53	41
2962.37	39
2963.22	41
2964.06	38
2964.9	39
2965.74	42
2966.58	45
2967.42	39
2968.27	38
2969.11	37
2969.95	32
2970.79	36
2971.63	39
2972.47	41
2973.31	36
2974.15	33
2974.99	35
2975.83	32
2976.68	35
2977.52	32
2978.36	31
2979.2	33
2980.04	36
2980.88	30
2981.71	30
2982.55	30
2983.39	33
2984.23	32
2985.07	31
2985.91	29
2986.75	28
2987.59	26
2988.43	27
2989.27	31
2990.1	26
2990.94	24
2991.78	30
2992.62	30
2993.46	26
2994.3	28
2995.13	27
2995.97	26
2996.81	30
2997.64	26
2998.48	32
2999.32	33
