#Acq. time (s)=	3
#Accumulations=	3
#Range (cm-¹)=	100...3000
#Windows=	3
#Autofocus=	Off
#AutoExposure=	Off
#Spike filter=	Multiple accum.
#Delay time (s)=	0
#Binning=	1
#Readout mode=	Signal
#DeNoise=	Off
#ICS correction=	Off
#Dark correction=	Off
#Inst. Process=	Off
#Instrument=	LabRAM HR Evol
#Detector=	Syncerity OE
#Objective=	x100_VIS_LWD
#Grating=	600 (500nm)
#ND Filter=	25%
#Laser=	633nm_Edge
#Hole=	100.021
#Range=	Visible
#Project=	Bolus
#Sample=	A1
#Site=	stripside
#Title=	m09
#Remark=	
#Date=	03.11.2025 18:44
#Acquired=	03.11.2025 18:44:26
100.969	31
102.252	33
103.535	36
104.818	28
106.101	32
107.384	35
108.666	32
109.948	34
111.232	26
112.514	34
113.795	29
115.077	34
116.358	30
117.639	32
118.919	33
120.2	32
121.48	30
122.76	33
124.04	28
125.32	31
126.599	37
127.879	34
129.158	28
130.436	33
131.715	36
132.992	32
134.27	37
135.548	26
136.826	32
138.104	29
139.381	33
140.658	37
141.935	36
143.212	37
144.489	36
145.763	36
147.04	34
148.315	37
149.591	30
150.867	40
152.142	36
153.416	34
154.691	38
155.965	36
157.24	38
158.514	35
159.786	36
161.06	39
162.334	32
163.607	40
164.881	37
166.152	38
167.425	36
168.698	38
169.969	40
171.241	37
172.513	38
173.785	34
175.055	40
176.326	40
177.597	42
178.867	34
180.137	33
181.408	40
182.677	34
183.947	37
185.217	37
186.485	43
187.755	30
189.022	36
190.291	39
191.56	36
192.828	37
194.096	38
195.363	41
196.631	28
197.899	36
199.165	36
200.432	34
201.698	37
202.965	37
204.23	36
205.497	38
206.762	36
208.028	39
209.293	34
210.559	33
211.823	36
213.088	32
214.352	34
215.617	36
216.88	32
218.145	30
219.408	32
220.672	28
221.934	34
223.196	32
224.46	34
225.722	31
226.985	38
228.246	38
229.508	34
230.77	27
232.031	34
233.292	32
234.554	34
235.814	28
237.074	35
238.335	28
239.595	36
240.854	34
242.115	24
243.374	36
244.633	31
245.893	30
247.151	30
248.409	24
249.667	24
250.927	31
252.184	27
253.442	34
254.699	30
255.957	30
257.214	37
258.47	28
259.727	26
260.983	30
262.24	28
263.496	28
264.752	28
266.007	32
267.262	34
268.517	33
269.773	28
271.028	36
272.282	26
273.536	27
274.79	30
276.044	33
277.297	34
278.551	30
279.804	24
281.057	30
282.31	26
283.564	33
284.816	36
286.068	34
287.32	32
288.572	29
289.823	36
291.074	32
292.325	32
293.576	26
294.827	35
296.077	34
297.328	34
298.578	31
299.828	30
301.077	26
302.325	34
303.575	34
304.824	34
306.073	28
307.321	31
308.57	35
309.818	29
311.066	36
312.314	29
313.562	29
314.808	26
316.055	31
317.302	33
318.549	28
319.796	32
321.042	34
322.288	32
323.533	28
324.779	26
326.024	30
327.27	31
328.515	32
329.759	26
331.004	31
332.248	32
333.493	26
334.736	30
335.98	28
337.223	28
338.466	31
339.709	29
340.952	35
342.195	31
343.437	30
344.68	28
345.922	27
347.163	31
348.405	33
349.647	27
350.887	30
352.128	24
353.37	28
354.609	26
355.85	34
357.089	32
358.33	32
359.57	34
360.809	26
362.049	30
363.287	31
364.526	29
365.764	32
367.003	36
368.241	31
369.479	31
370.718	29
371.955	33
373.193	31
374.429	32
375.667	33
376.903	30
378.139	30
379.376	31
380.611	33
381.848	32
383.083	33
384.319	28
385.554	32
386.79	32
388.024	26
389.258	26
390.493	33
391.727	28
392.962	31
394.195	30
395.428	28
396.663	36
397.895	31
399.128	32
400.361	30
401.593	33
402.825	33
404.058	34
405.29	34
406.521	26
407.752	32
408.985	29
410.215	34
411.446	30
412.678	31
413.908	28
415.138	37
416.367	26
417.597	31
418.828	35
420.057	33
421.286	31
422.514	32
423.743	30
424.973	28
426.201	32
427.429	30
428.657	34
429.884	31
431.112	26
432.34	31
433.567	33
434.794	33
436.02	34
437.247	26
438.473	24
439.699	36
440.925	34
442.15	30
443.376	34
444.601	34
445.826	28
447.051	30
448.275	34
449.5	32
450.724	30
451.948	34
453.172	31
454.396	34
455.619	34
456.842	28
458.065	31
459.288	28
460.511	29
461.733	30
462.956	33
464.178	36
465.4	30
466.621	32
467.843	39
469.064	32
470.285	37
471.505	34
472.726	32
473.946	33
475.166	37
476.387	37
477.606	40
478.825	42
480.044	42
481.264	41
482.483	42
483.702	48
484.921	44
486.138	41
487.356	54
488.574	46
489.792	52
491.009	55
492.226	50
493.444	46
494.661	50
495.877	46
497.094	45
498.31	51
499.525	45
500.741	38
501.958	40
503.172	40
504.388	44
505.603	36
506.817	36
508.032	37
509.247	36
510.46	39
511.675	32
512.888	34
514.102	34
515.316	34
516.528	28
517.742	36
518.954	36
520.167	37
521.378	35
522.591	32
523.802	35
525.015	30
526.226	36
527.438	34
528.648	35
529.86	30
531.07	34
532.281	33
533.491	29
534.702	30
535.911	28
537.121	30
538.33	28
539.54	35
540.749	31
541.957	33
543.167	30
544.375	34
545.584	32
546.791	34
547.999	26
549.207	33
550.414	30
551.621	32
552.829	39
554.035	31
555.241	30
556.449	32
557.655	34
558.86	34
560.066	30
561.272	28
562.477	35
563.682	34
564.888	35
566.093	27
567.297	27
568.501	30
569.705	30
570.91	32
572.114	34
573.317	34
574.52	26
575.723	34
576.927	31
578.13	37
579.332	36
580.535	28
581.737	32
582.938	20
584.14	33
585.343	35
586.544	29
587.745	32
588.946	33
590.147	31
591.347	32
592.548	30
593.748	33
594.948	28
596.147	29
597.347	32
598.546	27
599.745	31
600.944	35
602.143	30
603.342	25
604.54	32
605.738	34
606.937	29
608.134	29
609.332	29
610.529	32
611.727	34
612.924	30
614.121	28
615.317	30
616.513	30
617.709	33
618.905	30
620.101	35
621.297	35
622.492	30
623.688	32
624.883	28
626.077	34
627.271	28
628.466	30
629.66	30
630.855	29
632.047	32
633.241	34
634.435	35
635.629	33
636.82	26
638.014	32
639.207	35
640.399	28
641.59	34
642.783	32
643.975	32
645.166	32
646.357	30
647.549	24
648.741	31
649.93	36
651.122	29
652.311	29
653.502	31
654.692	30
655.881	35
657.071	34
658.261	32
659.45	31
660.639	30
661.827	30
663.016	33
664.204	35
665.393	31
666.581	32
667.769	36
668.957	37
670.143	36
671.331	34
672.518	28
673.705	30
674.891	35
676.078	37
677.264	34
678.451	32
679.636	28
680.821	33
682.007	32
683.192	24
684.378	31
685.562	36
686.747	37
687.931	40
689.115	28
690.3	36
691.483	30
692.666	32
693.851	33
695.034	32
696.216	30
697.4	44
698.582	36
699.764	38
700.948	38
702.129	34
703.311	38
704.493	42
705.674	42
706.855	42
708.036	46
709.218	46
710.399	48
711.579	46
712.759	45
713.939	41
715.12	39
716.299	34
717.478	33
718.657	32
719.836	32
721.015	30
722.195	35
723.373	30
724.552	36
725.729	28
726.907	30
728.085	26
729.262	32
730.44	30
731.617	31
732.795	32
733.972	31
735.148	29
736.324	24
737.501	34
738.677	28
739.852	32
741.028	32
742.203	24
743.379	31
744.554	28
745.729	35
746.903	34
748.078	28
749.252	28
750.426	36
751.599	32
752.772	29
753.946	32
755.119	30
756.293	35
757.466	34
758.639	37
759.811	26
760.984	32
762.155	35
763.327	34
764.499	28
765.67	29
766.842	31
768.013	32
769.183	33
770.354	30
771.525	30
772.696	30
773.865	30
775.035	32
776.205	29
777.375	37
778.544	31
779.713	28
780.882	32
782.052	22
783.219	28
784.388	30
785.557	38
786.724	38
787.892	36
789.06	32
790.227	32
791.395	30
792.562	32
793.728	30
794.895	37
796.061	32
797.228	34
798.395	38
799.56	30
800.726	34
801.891	32
803.057	29
804.221	29
805.387	30
806.551	36
807.716	32
808.879	34
810.044	29
811.208	33
812.372	31
813.535	32
814.699	32
815.862	29
817.025	33
818.188	32
819.351	30
820.513	38
821.675	35
822.837	28
823.999	36
825.161	30
826.322	33
827.483	30
828.645	26
829.805	26
830.966	29
832.127	30
833.287	34
834.447	34
835.607	35
836.767	30
837.926	30
839.085	30
840.245	22
841.404	32
842.562	30
843.72	34
844.88	36
846.038	34
847.195	30
848.353	28
849.512	32
850.669	31
851.826	30
852.983	32
854.139	32
855.296	32
856.453	34
857.609	28
858.765	27
859.921	35
861.077	29
862.232	22
863.387	36
864.542	32
865.697	34
866.852	29
868.008	31
869.162	27
870.316	30
871.47	32
872.624	33
873.778	28
874.931	34
876.084	32
877.237	30
878.39	29
879.543	31
880.695	35
881.846	32
882.999	30
884.151	30
885.302	30
886.454	30
887.606	32
888.757	28
889.908	32
891.059	28
892.21	31
893.359	28
894.509	24
895.659	31
896.81	30
897.959	30
899.109	32
900.257	22
901.407	34
902.556	28
903.705	26
904.854	25
906.001	30
907.149	28
908.298	32
909.446	26
910.592	32
911.74	34
912.888	29
914.034	33
915.181	24
916.328	28
917.473	29
918.62	31
919.766	24
920.911	24
922.058	25
923.204	31
924.348	36
925.494	28
926.638	32
927.783	22
928.928	30
930.072	31
931.216	31
932.36	33
933.504	28
934.647	31
935.791	32
936.933	32
938.077	34
939.219	30
940.363	30
941.504	26
942.647	32
943.789	34
944.932	31
946.073	24
947.215	30
948.356	29
949.498	30
950.638	32
951.778	32
952.92	30
954.06	26
955.199	27
956.34	28
957.479	29
958.62	36
959.759	31
960.898	27
962.038	32
963.176	26
964.315	34
965.453	32
966.592	29
967.73	34
968.867	34
970.006	26
971.144	29
972.281	29
973.418	29
974.554	29
975.692	26
976.829	29
977.965	22
979.101	29
980.237	26
981.374	33
982.509	35
983.645	28
984.78	32
985.915	31
987.05	29
988.184	25
989.319	28
990.453	24
991.589	32
992.722	31
993.856	28
994.99	32
996.123	24
997.257	30
998.39	24
999.523	28
1000.66	30
1001.79	24
1002.92	28
1004.05	28
1005.18	31
1006.32	33
1007.45	28
1008.58	31
1009.71	31
1010.84	24
1011.97	30
1013.1	22
1014.23	28
1015.36	30
1016.49	33
1017.62	34
1018.75	25
1019.88	28
1021.01	31
1022.14	26
1023.27	34
1024.4	28
1025.53	30
1026.66	28
1027.79	31
1028.91	30
1030.04	32
1031.17	25
1032.3	26
1033.42	33
1034.55	36
1035.68	29
1036.81	28
1037.93	29
1039.06	31
1040.18	34
1041.31	22
1042.44	28
1043.56	26
1044.69	31
1045.81	32
1046.94	31
1048.06	22
1049.19	28
1050.31	26
1051.44	36
1052.56	28
1053.69	32
1054.81	26
1055.93	29
1057.06	27
1058.18	30
1059.3	26
1060.43	24
1061.55	30
1062.67	30
1063.79	26
1064.92	36
1066.04	28
1067.16	31
1068.28	25
1069.4	30
1070.52	30
1071.65	28
1072.77	30
1073.89	25
1075.01	24
1076.13	23
1077.25	30
1078.37	30
1079.49	28
1080.61	31
1081.73	24
1082.85	30
1083.97	30
1085.09	34
1086.2	26
1087.32	32
1088.44	33
1089.56	27
1090.68	28
1091.8	31
1092.91	30
1094.03	24
1095.15	28
1096.26	31
1097.38	30
1098.5	28
1099.61	24
1100.73	26
1101.85	30
1102.96	29
1104.08	31
1105.19	28
1106.31	34
1107.43	24
1108.54	32
1109.66	28
1110.77	30
1111.88	30
1113	26
1114.11	29
1115.23	26
1116.34	28
1117.46	30
1118.57	26
1119.68	24
1120.8	30
1121.91	31
1123.02	24
1124.13	29
1125.25	27
1126.36	28
1127.47	31
1128.58	25
1129.69	28
1130.8	32
1131.92	31
1133.03	26
1134.14	29
1135.25	34
1136.36	28
1137.47	31
1138.58	30
1139.69	26
1140.8	28
1141.91	26
1143.02	28
1144.13	24
1145.24	28
1146.35	29
1147.46	20
1148.56	25
1149.67	29
1150.78	29
1151.89	30
1153	30
1154.1	22
1155.21	27
1156.32	31
1157.43	27
1158.53	28
1159.64	28
1160.75	29
1161.85	29
1162.96	29
1164.07	29
1165.17	31
1166.28	26
1167.38	28
1168.49	32
1169.59	30
1170.7	20
1171.8	34
1172.91	24
1174.01	29
1175.12	26
1176.22	26
1177.32	32
1178.43	29
1179.53	29
1180.64	26
1181.74	26
1182.84	29
1183.94	30
1185.05	29
1186.15	30
1187.25	27
1188.35	30
1189.46	31
1190.56	29
1191.66	28
1192.76	29
1193.86	29
1194.96	30
1196.06	31.9608
1197.16	29.9035
1198.26	24.0715
1199.37	26.1182
1200.47	26.1324
1201.57	30.8039
1202.67	25.931
1203.77	28.6324
1204.86	22.2995
1205.96	26.1422
1207.06	30.5837
1208.16	29.6073
1209.26	25.0569
1210.36	28.0081
1211.46	28.4971
1212.56	26.5327
1213.65	28.6788
1214.75	29.1464
1215.85	19.2638
1216.95	28.1675
1218.04	28.6133
1219.14	27.2371
1220.24	23.1895
1221.33	29.5579
1222.43	27.869
1223.53	26.8379
1224.62	29.0569
1225.72	27.6116
1226.82	26.9541
1227.91	27.0128
1229.01	30.9314
1230.1	31.0735
1231.2	30.1152
1232.29	27.241
1233.39	28.9219
1234.48	28.8376
1235.58	25.4213
1236.67	26.3709
1237.77	27.0988
1238.86	28.1922
1239.95	32.7145
1241.05	26.5099
1242.14	26.8906
1243.23	27.0698
1244.33	24.8798
1245.42	26.3153
1246.51	27.6148
1247.61	27.6649
1248.7	26.944
1249.79	24.8382
1250.88	23.4811
1251.97	28.0089
1253.07	24.2698
1254.16	26.2706
1255.25	29.0095
1256.34	29.0366
1257.43	25.0475
1258.52	29.5245
1259.61	29.073
1260.7	27.4167
1261.79	28.1286
1262.88	27.0471
1263.97	27.7235
1265.06	30.5489
1266.15	28.0028
1267.24	26.1202
1268.33	26.4913
1269.42	27.9977
1270.51	27.3202
1271.6	28.7576
1272.68	26.7243
1273.77	29.3479
1274.86	25.629
1275.95	26.8761
1277.04	27.111
1278.12	24.8265
1279.21	26.1564
1280.3	29.9012
1281.39	26.9216
1282.47	27.8328
1283.56	30.7118
1284.65	28.8588
1285.73	27.8962
1286.82	28.4121
1287.91	27.2474
1288.99	28.9585
1290.08	26.674
1291.16	27.7474
1292.25	25.488
1293.33	25.2154
1294.42	27.3235
1295.5	28.2282
1296.59	29.2187
1297.67	27.2348
1298.76	24.6396
1299.84	27.7451
1300.92	28.1078
1302.01	27.9896
1303.09	26.3896
1304.17	29.4711
1305.26	25.2215
1306.34	27.1547
1307.34	29
1308.43	26
1309.52	28
1310.61	26
1311.7	25
1312.78	28
1313.87	30
1314.96	26
1316.04	28
1317.13	24
1318.22	25
1319.3	28
1320.39	24
1321.48	29
1322.56	24
1323.65	26
1324.73	32
1325.82	30
1326.9	28
1327.99	28
1329.07	28
1330.16	26
1331.24	30
1332.33	27
1333.41	28
1334.5	30
1335.58	30
1336.66	26
1337.75	26
1338.83	31
1339.91	32
1341	31
1342.08	30
1343.16	27
1344.24	31
1345.33	24
1346.41	30
1347.49	26
1348.57	30
1349.65	26
1350.74	30
1351.82	30
1352.9	24
1353.98	28
1355.06	27
1356.14	30
1357.22	21
1358.3	26
1359.38	33
1360.46	27
1361.54	23
1362.62	31
1363.7	27
1364.78	26
1365.86	28
1366.94	32
1368.02	25
1369.09	29
1370.17	33
1371.25	26
1372.33	22
1373.41	28
1374.48	26
1375.56	22
1376.64	30
1377.72	26
1378.79	28
1379.87	27
1380.95	30
1382.02	31
1383.1	32
1384.17	30
1385.25	30
1386.33	29
1387.4	29
1388.48	30
1389.55	29
1390.63	32
1391.7	26
1392.78	33
1393.85	28
1394.93	32
1396	27
1397.07	34
1398.15	27
1399.22	28
1400.3	31
1401.37	30
1402.44	29
1403.52	30
1404.59	30
1405.66	33
1406.73	32
1407.81	28
1408.88	30
1409.95	29
1411.02	26
1412.09	35
1413.17	35
1414.24	34
1415.31	36
1416.38	31
1417.45	32
1418.52	33
1419.59	32
1420.66	30
1421.73	28
1422.8	30
1423.87	28
1424.94	32
1426.01	29
1427.08	26
1428.15	24
1429.22	30
1430.29	27
1431.35	32
1432.42	27
1433.49	24
1434.56	32
1435.63	30
1436.69	25
1437.76	29
1438.83	29
1439.9	33
1440.96	20
1442.03	33
1443.1	30
1444.17	26
1445.23	28
1446.3	30
1447.36	28
1448.43	33
1449.49	26
1450.56	28
1451.63	30
1452.69	25
1453.76	28
1454.82	31
1455.89	30
1456.95	28
1458.01	28
1459.08	32
1460.14	28
1461.21	31
1462.27	25
1463.34	30
1464.4	29
1465.46	25
1466.52	30
1467.59	34
1468.65	24
1469.71	28
1470.77	28
1471.84	26
1472.9	29
1473.96	29
1475.02	28
1476.08	24
1477.15	30
1478.21	33
1479.27	26
1480.33	27
1481.39	26
1482.45	23
1483.51	30
1484.57	26
1485.63	24
1486.69	27
1487.75	24
1488.81	29
1489.87	32
1490.93	32
1491.99	23
1493.05	24
1494.1	25
1495.16	27
1496.22	31
1497.28	29
1498.34	30
1499.4	32
1500.45	28
1501.51	30
1502.57	26
1503.63	32
1504.68	25
1505.74	23
1506.8	33
1507.85	30
1508.91	28
1509.97	28
1511.02	30
1512.08	28
1513.13	29
1514.19	26
1515.24	31
1516.3	33
1517.35	28
1518.41	31
1519.46	28
1520.52	29
1521.57	32
1522.63	26
1523.68	30
1524.73	32
1525.79	30
1526.84	31
1527.9	31
1528.95	27
1530	26
1531.05	29
1532.11	29
1533.16	29
1534.21	31
1535.26	27
1536.32	30
1537.37	31
1538.42	28
1539.47	30
1540.52	28
1541.57	26
1542.63	27
1543.68	28
1544.73	30
1545.78	24
1546.83	27
1547.88	30
1548.93	27
1549.98	31
1551.03	29
1552.08	28
1553.13	28
1554.18	31
1555.23	32
1556.27	28
1557.32	27
1558.37	28
1559.42	27
1560.47	28
1561.52	30
1562.56	29
1563.61	28
1564.66	28
1565.71	29
1566.75	30
1567.8	30
1568.85	25
1569.9	30
1570.94	29
1571.99	29
1573.03	22
1574.08	20
1575.13	34
1576.17	28
1577.22	28
1578.26	18
1579.31	26
1580.35	26
1581.4	31
1582.44	30
1583.49	31
1584.53	31
1585.58	31
1586.62	26
1587.66	26
1588.71	26
1589.75	26
1590.8	30
1591.84	26
1592.88	27
1593.92	24
1594.97	29
1596.01	30
1597.05	30
1598.1	30
1599.14	26
1600.18	29
1601.22	28
1602.26	22
1603.3	28
1604.35	32
1605.39	27
1606.43	18
1607.47	30
1608.51	32
1609.55	28
1610.59	28
1611.63	26
1612.67	32
1613.71	28
1614.75	28
1615.79	32
1616.83	28
1617.87	32
1618.91	28
1619.95	33
1620.99	30
1622.02	32
1623.06	31
1624.1	26
1625.14	26
1626.18	28
1627.21	26
1628.25	35
1629.29	22
1630.33	28
1631.36	27
1632.4	29
1633.44	27
1634.48	24
1635.51	27
1636.55	26
1637.58	23
1638.62	34
1639.66	30
1640.69	34
1641.73	28
1642.76	30
1643.8	30
1644.83	24
1645.87	30
1646.9	29
1647.94	28
1648.97	28
1650	32
1651.04	31
1652.07	28
1653.11	32
1654.14	28
1655.17	26
1656.21	31
1657.24	33
1658.27	25
1659.31	28
1660.34	26
1661.37	32
1662.4	34
1663.43	28
1664.47	27
1665.5	29
1666.53	30
1667.56	26
1668.59	29
1669.62	27
1670.66	26
1671.69	28
1672.72	31
1673.75	22
1674.78	26
1675.81	24
1676.84	29
1677.87	32
1678.9	26
1679.93	32
1680.96	28
1681.98	31
1683.01	29
1684.04	30
1685.07	28
1686.1	31
1687.13	30
1688.16	25
1689.18	30
1690.21	28
1691.24	26
1692.27	26
1693.3	32
1694.32	26
1695.35	26
1696.38	26
1697.4	29
1698.43	24
1699.46	29
1700.48	28
1701.51	27
1702.54	28
1703.56	26
1704.59	24
1705.61	27
1706.64	30
1707.66	26
1708.69	23
1709.71	28
1710.74	25
1711.76	29
1712.79	28
1713.81	31
1714.83	26
1715.86	28
1716.88	29
1717.91	27
1718.93	26
1719.95	28
1720.98	29
1722	29
1723.02	28
1724.04	31
1725.07	28
1726.09	26
1727.11	30
1728.13	27
1729.15	30
1730.18	32
1731.2	28
1732.22	30
1733.24	28
1734.26	31
1735.28	25
1736.3	30
1737.32	28
1738.34	32
1739.36	24
1740.38	26
1741.4	29
1742.42	32
1743.44	28
1744.46	24
1745.48	29
1746.5	29
1747.52	31
1748.54	26
1749.56	26
1750.58	31
1751.6	29
1752.61	26
1753.63	28
1754.65	26
1755.67	30
1756.68	33
1757.7	28
1758.72	28
1759.74	28
1760.75	25
1761.77	31
1762.79	29
1763.8	30
1764.82	24
1765.83	26
1766.85	26
1767.87	26
1768.88	24
1769.9	30
1770.91	16
1771.93	28
1772.94	30
1773.96	26
1774.97	28
1775.99	25
1777	27
1778.02	28
1779.03	24
1780.04	30
1781.06	30
1782.07	34
1783.09	26
1784.1	28
1785.11	32
1786.13	29
1787.14	26
1788.15	27
1789.16	32
1790.18	31
1791.19	26
1792.2	34
1793.21	26
1794.22	26
1795.23	26
1796.25	27
1797.26	26
1798.27	33
1799.28	24
1800.29	24
1801.3	26
1802.31	22
1803.32	28
1804.33	34
1805.34	31
1806.35	28
1807.36	30
1808.37	32
1809.38	28
1810.39	24
1811.4	31
1812.41	32
1813.42	28
1814.42	29
1815.43	32
1816.44	28
1817.45	31
1818.46	32
1819.47	27
1820.47	28
1821.48	26
1822.49	28
1823.49	26
1824.5	26
1825.51	20
1826.52	30
1827.52	26
1828.53	28
1829.53	27
1830.54	26
1831.55	32
1832.55	27
1833.56	31
1834.56	28
1835.57	31
1836.57	27
1837.58	32
1838.58	26
1839.59	18
1840.59	26
1841.6	29
1842.6	30
1843.61	28
1844.61	28
1845.61	31
1846.62	25
1847.62	22
1848.62	27
1849.63	30
1850.63	26
1851.63	29
1852.64	26
1853.64	28
1854.64	29
1855.64	26
1856.64	28
1857.65	29
1858.65	29
1859.65	27
1860.65	26
1861.65	24
1862.65	27
1863.65	26
1864.66	22
1865.66	28
1866.66	30
1867.66	29
1868.66	30
1869.66	31
1870.66	28
1871.66	25
1872.66	32
1873.66	28
1874.66	26
1875.65	25
1876.65	26
1877.65	28
1878.65	26
1879.65	32
1880.65	27
1881.65	31
1882.64	30
1883.64	28
1884.64	24
1885.64	26
1886.63	29
1887.63	27
1888.63	33
1889.63	29
1890.62	31
1891.62	25
1892.62	29
1893.61	28
1894.61	25
1895.6	28
1896.6	33
1897.6	26
1898.59	25
1899.59	24
1900.58	28
1901.58	27
1902.57	28
1903.57	22
1904.56	29
1905.56	28
1906.55	24
1907.54	24
1908.54	32
1909.53	28
1910.53	26
1911.52	24
1912.51	23
1913.51	22
1914.5	30
1915.49	30
1916.49	28
1917.48	28
1918.47	30
1919.46	26
1920.46	32
1921.45	27
1922.44	27
1923.43	32
1924.42	26
1925.41	27
1926.41	22
1927.4	28
1928.39	30
1929.38	30
1930.37	29
1931.36	28
1932.35	32
1933.34	28
1934.33	26
1935.32	27
1936.31	24
1937.3	26
1938.29	22
1939.28	29
1940.27	28
1941.26	29
1942.24	29
1943.23	25
1944.22	27
1945.21	30
1946.2	29
1947.19	26
1948.17	26
1949.16	24
1950.15	25.5
1951.14	26
1952.12	27
1953.11	29
1954.1	27
1955.09	31
1956.07	26
1957.06	33
1958.05	31
1959.03	28
1960.02	31
1961	30
1961.99	27
1962.98	26
1963.96	28
1964.95	26
1965.93	27
1966.92	25
1967.9	30
1968.89	28
1969.87	29
1970.85	26
1971.84	30
1972.82	26
1973.81	29
1974.79	28
1975.78	24
1976.76	27
1977.74	24
1978.73	31
1979.71	25
1980.69	31
1981.67	27
1982.66	31
1983.64	31
1984.62	29
1985.6	27
1986.59	28
1987.57	30
1988.55	26
1989.53	32
1990.51	22
1991.49	24
1992.47	29
1993.45	27
1994.44	28
1995.42	30
1996.4	24
1997.38	31
1998.36	26
1999.34	24
2000.32	31
2001.3	28
2002.28	30
2003.26	26
2004.24	28
2005.22	22
2006.19	27
2007.17	27
2008.15	29
2009.13	26
2010.11	24
2011.09	25
2012.06	32
2013.04	30
2014.02	26
2015	31
2015.98	28
2016.95	24
2017.93	34
2018.91	28
2019.88	28
2020.86	28
2021.84	29
2022.81	23
2023.79	20
2024.77	29
2025.74	28
2026.72	33
2027.69	26
2028.67	30
2029.65	24
2030.62	30
2031.6	31
2032.57	22
2033.55	29
2034.52	32
2035.5	28
2036.47	26
2037.44	28
2038.42	28
2039.39	27
2040.36	27
2041.34	31
2042.31	29
2043.29	26
2044.26	26
2045.23	27
2046.2	27
2047.18	28
2048.15	26
2049.12	27
2050.09	25
2051.07	26
2052.04	20
2053.01	28
2053.98	30
2054.95	26
2055.93	26
2056.9	28
2057.87	27
2058.84	28
2059.81	26
2060.78	24
2061.75	28
2062.72	21
2063.69	26
2064.66	24
2065.63	23
2066.6	26
2067.57	27
2068.54	29
2069.51	24
2070.48	26
2071.45	26
2072.42	26
2073.38	24
2074.35	28
2075.32	26
2076.29	28
2077.26	23
2078.23	31
2079.19	27
2080.16	22
2081.13	22
2082.1	18
2083.06	20
2084.03	22
2085	33
2085.96	28
2086.93	22
2087.9	25
2088.86	26
2089.83	31
2090.8	26
2091.76	27
2092.73	26
2093.69	29
2094.66	30
2095.62	22
2096.59	26
2097.55	27
2098.52	22
2099.48	26
2100.45	27
2101.41	30
2102.38	30
2103.34	27
2104.31	27
2105.27	18
2106.23	25
2107.2	28
2108.16	26
2109.12	26
2110.09	28
2111.05	27
2112.01	25
2112.98	25
2113.94	24
2114.9	28
2115.86	24
2116.82	24
2117.79	22
2118.75	32
2119.71	27
2120.67	27
2121.63	24
2122.59	27
2123.55	28
2124.52	22
2125.48	26
2126.44	24
2127.4	25
2128.36	27
2129.32	24
2130.28	20
2131.24	30
2132.2	29
2133.16	26
2134.12	26
2135.08	28
2136.04	24
2136.99	32
2137.95	24
2138.91	25
2139.87	25
2140.83	28
2141.79	26
2142.75	28
2143.7	22
2144.66	28
2145.62	23.0119
2146.58	24.9345
2147.53	25.0287
2148.49	27.0231
2149.45	26.8676
2150.41	25.8883
2151.36	18.3313
2152.32	26
2153.27	29.6528
2154.23	23.9359
2155.19	24.5005
2156.14	25.1034
2157.1	27.4829
2158.06	24.99
2159.01	25.6997
2159.97	26.9968
2160.92	26.8407
2161.88	25.3413
2162.83	25.9936
2163.79	24.8529
2164.74	22.7982
2165.7	27.996
2166.65	28.9969
2167.61	22.9355
2168.56	29.0392
2169.51	26
2170.47	24.5196
2171.42	27.2939
2172.38	26.6235
2173.33	25.4778
2174.28	25.8808
2175.24	27.1294
2176.19	25.9793
2177.14	26.0606
2178.09	25.3235
2179.05	30.4753
2180	26.4814
2180.95	22.7739
2181.9	21.8758
2182.86	23.1865
2183.81	24.5193
2184.76	25.1863
2185.71	26.9167
2186.66	25.5441
2187.61	27.6544
2188.57	28.9323
2189.52	23.6108
2190.47	26.0689
2191.42	25.0208
2192.37	27.3383
2193.32	24.3094
2194.27	27.1775
2195.22	27.1424
2196.17	25.5245
2197.12	26.0524
2198.07	27.6143
2199.02	25.6575
2199.97	24.7286
2200.92	25.2389
2201.87	23.2986
2202.82	26.5058
2203.76	24.0755
2204.71	24.4206
2205.66	24.0069
2206.61	25.6082
2207.56	28.1172
2208.51	26.8204
2209.45	25.4866
2210.4	26.486
2211.35	27.2214
2212.3	25.4892
2213.24	22.3516
2214.19	26.9847
2215.14	25.236
2216.09	26.3219
2217.03	27.0095
2217.98	24.3047
2218.93	25.876
2219.87	28.6148
2220.82	28.7977
2221.77	27.9116
2222.71	22.8604
2223.66	25.3409
2224.6	21.4087
2225.55	24.1775
2226.49	26.4448
2227.44	27.826
2228.38	26.6111
2229.33	27.1213
2230.27	27.2647
2231.22	26.3053
2232.16	25.8747
2233.11	27.6121
2234.05	25.9024
2235	25.8575
2235.94	26.2364
2236.88	23.4913
2237.83	22.0441
2238.77	25.5835
2239.71	27.951
2240.66	30.2452
2241.6	27.3582
2242	24
2242.95	29
2243.9	28
2244.84	28
2245.79	26
2246.74	22
2247.69	28
2248.63	23
2249.58	24
2250.53	23
2251.47	27
2252.42	28
2253.37	31
2254.31	20
2255.26	23
2256.2	24
2257.15	24
2258.1	22
2259.04	24
2259.99	20
2260.93	24
2261.88	28
2262.82	28
2263.77	26
2264.71	26
2265.65	24
2266.6	18
2267.54	22
2268.49	29
2269.43	22
2270.38	26
2271.32	24
2272.26	31
2273.21	24
2274.15	29
2275.09	24
2276.04	24
2276.98	26
2277.92	27
2278.86	26
2279.81	24
2280.75	27
2281.69	28
2282.63	24
2283.57	26
2284.52	26
2285.46	24
2286.4	26
2287.34	25
2288.28	28
2289.22	33
2290.16	22
2291.1	25
2292.04	27
2292.98	22
2293.93	24
2294.86	26
2295.8	26
2296.74	26
2297.69	24
2298.62	26
2299.56	28
2300.5	21
2301.44	26
2302.38	28
2303.32	28
2304.26	26
2305.2	28
2306.14	28
2307.07	27
2308.01	24
2308.95	26
2309.89	22
2310.83	28
2311.76	29
2312.7	31
2313.64	26
2314.58	28
2315.51	29
2316.45	24
2317.39	30
2318.32	26
2319.26	27
2320.2	28
2321.13	26
2322.07	24
2323	23
2323.94	30
2324.88	28
2325.81	25
2326.75	29
2327.68	27
2328.62	25
2329.55	25
2330.49	29
2331.42	28
2332.36	22
2333.29	20
2334.22	28
2335.16	20
2336.09	22
2337.03	29
2337.96	25
2338.89	28
2339.83	27
2340.76	28
2341.69	24
2342.63	27
2343.56	27
2344.49	31
2345.43	25
2346.36	31
2347.29	28
2348.22	23
2349.15	25
2350.09	25
2351.02	25
2351.95	25
2352.88	28
2353.81	28
2354.74	23
2355.67	24
2356.61	27
2357.54	28
2358.47	25
2359.4	27
2360.33	26
2361.26	28
2362.19	28
2363.12	27
2364.05	21
2364.98	23
2365.91	26
2366.84	30
2367.77	28
2368.7	28
2369.62	30
2370.55	26
2371.48	24
2372.41	28
2373.34	26
2374.27	28
2375.2	28
2376.12	26
2377.05	28
2377.98	26
2378.91	28
2379.83	22
2380.76	26
2381.69	29
2382.62	24
2383.54	28
2384.47	18
2385.4	26
2386.32	26
2387.25	25
2388.18	26
2389.1	28
2390.03	26
2390.95	30
2391.88	26
2392.81	24
2393.73	24
2394.66	28
2395.58	27
2396.51	29
2397.43	20
2398.36	27
2399.28	25
2400.2	27
2401.13	26
2402.05	25
2402.98	28
2403.9	22
2404.83	32
2405.75	28
2406.67	22
2407.6	28
2408.52	29
2409.44	28
2410.37	24
2411.29	22
2412.21	29
2413.13	25
2414.06	28
2414.98	28
2415.9	27
2416.82	25
2417.74	28
2418.67	30
2419.59	25
2420.51	27
2421.43	24
2422.35	26
2423.27	26
2424.19	26
2425.11	28
2426.03	29
2426.96	27
2427.88	22
2428.8	27
2429.72	22
2430.64	22
2431.56	27
2432.48	28
2433.39	23
2434.31	26
2435.23	26
2436.15	28
2437.07	24
2437.99	25
2438.91	33
2439.83	27
2440.75	28
2441.67	28
2442.58	22
2443.5	24
2444.42	32
2445.34	24
2446.26	25
2447.17	22
2448.09	26
2449.01	30
2449.92	27
2450.84	25
2451.76	29
2452.68	27
2453.59	26
2454.51	26
2455.42	30
2456.34	24
2457.26	28
2458.17	26
2459.09	28
2460	30
2460.92	28
2461.83	29
2462.75	26
2463.66	27
2464.58	30
2465.49	29
2466.41	22
2467.32	28
2468.24	26
2469.15	30
2470.07	20
2470.98	32
2471.89	32
2472.81	27
2473.72	30
2474.64	26
2475.55	28
2476.46	29
2477.37	22
2478.29	33
2479.2	29
2480.11	22
2481.03	27
2481.94	22
2482.85	23
2483.76	28
2484.67	28
2485.59	27
2486.5	24
2487.41	22
2488.32	26
2489.23	24
2490.14	28
2491.05	24
2491.97	27
2492.88	27
2493.79	26
2494.7	28
2495.61	26
2496.52	29
2497.43	28
2498.34	29
2499.25	29
2500.16	25
2501.07	30
2501.98	25
2502.89	26
2503.79	32
2504.7	28
2505.61	30
2506.52	24
2507.43	25
2508.34	26
2509.25	24
2510.16	26
2511.06	26
2511.97	26
2512.88	28
2513.79	25
2514.69	31
2515.6	26
2516.51	28
2517.42	26
2518.32	24
2519.23	27
2520.14	28
2521.04	27
2521.95	24
2522.86	31
2523.76	28
2524.67	29
2525.57	29
2526.48	26
2527.39	31
2528.29	30
2529.2	24
2530.1	28
2531.01	29
2531.91	30
2532.82	30
2533.72	31
2534.63	23
2535.53	30
2536.44	26
2537.34	26
2538.24	26
2539.15	30
2540.05	30
2540.96	30
2541.86	30
2542.76	28
2543.67	24
2544.57	24
2545.47	26
2546.37	24
2547.28	28
2548.18	28
2549.08	24
2549.99	27
2550.89	24
2551.79	27
2552.69	24
2553.59	28
2554.49	25
2555.4	24
2556.3	28
2557.2	27
2558.1	28
2559	32
2559.9	23
2560.8	29
2561.7	28
2562.6	28
2563.5	31
2564.4	29
2565.3	28
2566.2	27
2567.1	26
2568	27
2568.9	32
2569.8	22
2570.7	23
2571.6	27
2572.5	28
2573.4	26
2574.3	26
2575.2	30
2576.1	27
2576.99	32
2577.89	27
2578.79	27
2579.69	30
2580.59	30
2581.48	27
2582.38	27
2583.28	23
2584.18	30
2585.07	23
2585.97	24
2586.87	29
2587.76	23
2588.66	32
2589.56	31
2590.45	33
2591.35	29
2592.25	28
2593.14	28
2594.04	29
2594.93	28
2595.83	27
2596.73	26
2597.62	29
2598.52	28
2599.41	26
2600.31	28
2601.2	26
2602.1	32
2602.99	31
2603.88	26
2604.78	26
2605.67	26
2606.57	24
2607.46	30
2608.35	30
2609.25	28
2610.14	28
2611.03	25
2611.93	27
2612.82	27
2613.71	27
2614.61	29
2615.5	24
2616.39	28
2617.29	26
2618.18	20
2619.07	32
2619.96	26
2620.85	24
2621.75	28
2622.64	24
2623.53	25
2624.42	31
2625.31	22
2626.2	30
2627.09	27
2627.98	29
2628.88	26
2629.77	24
2630.66	26
2631.55	27
2632.44	25
2633.33	28
2634.22	28
2635.11	28
2636	24
2636.89	33
2637.78	28
2638.66	30
2639.55	26
2640.44	32
2641.33	27
2642.22	26
2643.11	26
2644	24
2644.89	24
2645.78	32
2646.66	26
2647.55	28
2648.44	28
2649.33	29
2650.21	29
2651.1	28
2651.99	26
2652.88	20
2653.76	26
2654.65	22
2655.54	24
2656.42	27
2657.31	30
2658.2	28
2659.08	33
2659.97	31
2660.86	28
2661.74	27
2662.63	32
2663.51	26
2664.4	24
2665.29	18
2666.17	24
2667.06	23
2667.94	26
2668.83	24
2669.71	24
2670.6	28
2671.48	20
2672.36	27
2673.25	23
2674.13	26
2675.02	25
2675.9	26
2676.78	28
2677.67	30
2678.55	28
2679.43	26
2680.32	27
2681.2	30
2682.08	27
2682.97	20
2683.85	28
2684.73	28
2685.61	25
2686.5	26
2687.38	27
2688.26	22
2689.14	26
2690.03	29
2690.91	28
2691.79	22
2692.67	25
2693.55	29
2694.43	26
2695.31	30
2696.19	24
2697.08	30
2697.96	24
2698.84	28
2699.72	30
2700.6	24
2701.48	30
2702.36	24
2703.24	27
2704.12	30
2705	24
2705.88	30
2706.76	25
2707.64	28
2708.51	30
2709.39	24
2710.27	25
2711.15	27
2712.03	26
2712.91	30
2713.79	26
2714.67	25
2715.54	23
2716.42	26
2717.3	28
2718.18	28
2719.05	30
2719.93	28
2720.81	22
2721.69	29
2722.56	32
2723.44	26
2724.32	24
2725.19	26
2726.07	18
2726.95	30
2727.82	31
2728.7	28
2729.58	32
2730.45	27
2731.33	30
2732.2	25
2733.08	28
2733.95	29
2734.83	28
2735.7	31
2736.58	28
2737.45	24
2738.33	19
2739.2	28
2740.08	23
2740.95	28
2741.83	28
2742.7	23
2743.58	31
2744.45	28
2745.32	29
2746.2	28
2747.07	26
2747.94	29
2748.82	28
2749.69	29
2750.56	30
2751.44	32
2752.31	30
2753.18	30
2754.05	26
2754.93	28
2755.8	29
2756.67	26
2757.54	30
2758.42	29
2759.29	20
2760.16	29
2761.03	28
2761.9	27
2762.77	27
2763.64	26
2764.51	22
2765.38	30
2766.26	29
2767.13	25
2768	30
2768.87	30
2769.74	22
2770.61	26
2771.48	26
2772.35	22
2773.22	30
2774.09	26
2774.96	27
2775.83	29
2776.7	27
2777.56	24
2778.43	28
2779.3	32
2780.17	27
2781.04	26
2781.91	28
2782.78	23
2783.64	27
2784.51	31
2785.38	30
2786.25	26
2787.12	28
2787.98	28
2788.85	26
2789.72	28
2790.59	28
2791.45	25
2792.32	30
2793.19	28
2794.05	26
2794.92	25
2795.79	32
2796.65	20
2797.52	27
2798.38	28
2799.25	25
2800.12	31
2800.98	25
2801.85	28
2802.71	26
2803.58	28
2804.44	28
2805.31	30
2806.17	27
2807.04	25
2807.9	28
2808.77	26
2809.63	26
2810.5	26
2811.36	27
2812.22	32
2813.09	31
2813.95	25
2814.82	28
2815.68	28
2816.54	26
2817.41	29
2818.27	22
2819.13	28
2820	30
2820.86	26
2821.72	28
2822.58	30
2823.45	27
2824.31	30
2825.17	31
2826.03	22
2826.9	29
2827.76	34
2828.62	22
2829.48	26
2830.34	27
2831.2	22
2832.06	29
2832.92	30
2833.79	29
2834.65	24
2835.51	28
2836.37	30
2837.23	27
2838.09	28
2838.95	29
2839.81	29
2840.67	29
2841.53	30
2842.39	27
2843.25	28
2844.11	30
2844.97	28
2845.83	30
2846.68	26
2847.54	26
2848.4	28
2849.26	23
2850.12	28
2850.98	28
2851.84	26
2852.69	29
2853.55	29
2854.41	26
2855.27	26
2856.13	32
2856.98	25
2857.84	30
2858.7	28
2859.56	32
2860.41	33
2861.27	26
2862.13	29
2862.98	30
2863.84	26
2864.7	28
2865.55	24
2866.41	24
2867.27	32
2868.12	30
2868.98	26
2869.83	28
2870.69	32
2871.54	30
2872.4	34
2873.25	29
2874.11	29
2874.96	30
2875.82	31
2876.68	30
2877.53	36
2878.38	29
2879.24	28
2880.09	30
2880.95	32
2881.8	34
2882.65	33
2883.51	31
2884.36	31
2885.22	34
2886.07	33
2886.92	29
2887.77	32
2888.63	26
2889.48	38
2890.33	39
2891.19	35
2892.04	38
2892.89	38
2893.74	42
2894.6	40
2895.45	41
2896.3	44
2897.15	40
2898	46
2898.85	46
2899.71	53
2900.56	44
2901.41	51
2902.26	48
2903.11	51
2903.96	53
2904.81	50
2905.66	52
2906.51	57
2907.36	58
2908.21	59
2909.06	56
2909.91	53
2910.76	54
2911.61	54
2912.46	49
2913.31	50
2914.16	49
2915.01	42
2915.86	42
2916.71	44
2917.56	36
2918.41	37
2919.26	37
2920.1	39
2920.95	37
2921.8	28
2922.65	31
2923.5	33
2924.34	28
2925.19	26
2926.04	36
2926.89	34
2927.74	31
2928.58	32
2929.43	25
2930.28	35
2931.12	26
2931.97	34
2932.82	36
2933.66	25
2934.51	24
2935.36	36
2936.2	25
2937.05	28
2937.89	30
2938.74	28
2939.59	33
2940.43	30
2941.28	32
2942.12	28
2942.97	27
2943.81	31
2944.66	24
2945.5	31
2946.35	29
2947.19	31
2948.04	32
2948.88	22
2949.72	32
2950.57	31
2951.41	26
2952.26	30
2953.1	31
2953.94	33
2954.79	34
2955.63	32
2956.47	34
2957.32	35
2958.16	34
2959	33
2959.85	32
2960.69	32
2961.53	32
2962.37	38
2963.22	39
2964.06	37
2964.9	42
2965.74	38
2966.58	40
2967.42	36
2968.27	39
2969.11	36
2969.95	36
2970.79	39
2971.63	42
2972.47	31
2973.31	36
2974.15	37
2974.99	38
2975.83	37
2976.68	32
2977.52	34
2978.36	37
2979.2	31
2980.04	31
2980.88	33
2981.71	30
2982.55	32
2983.39	29
2984.23	31
2985.07	34
2985.91	28
2986.75	28
2987.59	26
2988.43	30
2989.27	31
2990.1	27
2990.94	27
2991.78	26
2992.62	29
2993.46	26
2994.3	29
2995.13	23
2995.97	24
2996.81	27
2997.64	26
2998.48	24
2999.32	30
