#Acq. time (s)=	3
#Accumulations=	3
#Range (cm-¹)=	100...3000
#Windows=	3
#Autofocus=	Off
#AutoExposure=	Off
#Spike filter=	Multiple accum.
#Delay time (s)=	0
#Binning=	1
#Readout mode=	Signal
#DeNoise=	Off
#ICS correction=	Off
#Dark correction=	Off
#Inst. Process=	Off
#Instrument=	LabRAM HR Evol
#Detector=	Syncerity OE
#Objective=	x100_VIS_LWD
#Grating=	600 (500nm)
#ND Filter=	25%
#Laser=	633nm_Edge
#Hole=	100.021
#Range=	Visible
#Project=	Bolus
#Sample=	B5
#Site=	stripside
#Title=	m14
#Remark=	
#Date=	03.11.2025 19:16
#Acquired=	03.11.2025 19:16:11
100.969	28
102.252	31
103.535	36
104.818	34
106.101	34
107.384	32
108.666	26
109.948	34
111.232	29
112.514	31
113.795	34
115.077	33
116.358	28
117.639	28
118.919	34
120.2	33
121.48	33
122.76	28
124.04	31
125.32	32
126.599	30
127.879	30
129.158	31
130.436	39
131.715	30
132.992	33
134.27	30
135.548	34
136.826	34
138.104	33
139.381	40
140.658	32
141.935	36
143.212	38
144.489	30
145.763	36
147.04	38
148.315	35
149.591	38
150.867	40
152.142	38
153.416	37
154.691	37
155.965	41
157.24	43
158.514	32
159.786	43
161.06	38
162.334	36
163.607	36
164.881	40
166.152	40
167.425	38
168.698	36
169.969	39
171.241	43
172.513	36
173.785	32
175.055	37
176.326	40
177.597	41
178.867	40
180.137	34
181.408	45
182.677	41
183.947	38
185.217	43
186.485	36
187.755	39
189.022	41
190.291	42
191.56	36
192.828	43
194.096	39
195.363	42
196.631	40
197.899	40
199.165	41
200.432	40
201.698	39
202.965	39
204.23	38
205.497	32
206.762	37
208.028	34
209.293	40
210.559	32
211.823	37
213.088	34
214.352	38
215.617	24
216.88	32
218.145	26
219.408	32
220.672	36
221.934	38
223.196	32
224.46	28
225.722	32
226.985	35
228.246	26
229.508	33
230.77	28
232.031	33
233.292	32
234.554	28
235.814	31
237.074	34
238.335	32
239.595	34
240.854	30
242.115	37
243.374	34
244.633	36
245.893	29
247.151	31
248.409	33
249.667	32
250.927	29
252.184	33
253.442	34
254.699	30
255.957	28
257.214	31
258.47	35
259.727	26
260.983	34
262.24	32
263.496	28
264.752	26
266.007	33
267.262	32
268.517	27
269.773	30
271.028	32
272.282	28
273.536	29
274.79	30
276.044	31
277.297	28
278.551	31
279.804	29
281.057	33
282.31	33
283.564	34
284.816	27
286.068	31
287.32	32
288.572	30
289.823	24
291.074	29
292.325	31
293.576	29
294.827	32
296.077	32
297.328	32
298.578	32
299.828	30
301.077	30
302.325	28
303.575	35
304.824	24
306.073	24
307.321	29
308.57	30
309.818	32
311.066	28
312.314	29
313.562	32
314.808	34
316.055	30
317.302	31
318.549	33
319.796	31
321.042	27
322.288	34
323.533	24
324.779	26
326.024	32
327.27	30
328.515	28
329.759	27
331.004	26
332.248	31
333.493	31
334.736	34
335.98	30
337.223	33
338.466	28
339.709	31
340.952	34
342.195	32
343.437	27
344.68	28
345.922	30
347.163	26
348.405	34
349.647	30
350.887	31
352.128	28
353.37	32
354.609	28
355.85	34
357.089	30
358.33	28
359.57	28
360.809	29
362.049	30
363.287	32
364.526	30
365.764	30
367.003	27
368.241	28
369.479	33
370.718	32
371.955	28
373.193	32
374.429	28
375.667	32
376.903	29
378.139	30
379.376	26
380.611	22
381.848	30
383.083	28
384.319	27
385.554	34
386.79	30
388.024	30
389.258	34
390.493	28
391.727	28
392.962	32
394.195	32
395.428	26
396.663	30
397.895	26
399.128	29
400.361	31
401.593	29
402.825	31
404.058	30
405.29	32
406.521	28
407.752	28
408.985	28
410.215	31
411.446	34
412.678	28
413.908	33
415.138	37
416.367	28
417.597	30
418.828	34
420.057	33
421.286	31
422.514	24
423.743	28
424.973	27
426.201	34
427.429	30
428.657	27
429.884	32
431.112	31
432.34	34
433.567	29
434.794	31
436.02	28
437.247	29
438.473	30
439.699	24
440.925	28
442.15	32
443.376	28
444.601	29
445.826	34
447.051	32
448.275	34
449.5	30
450.724	31
451.948	28
453.172	26
454.396	30
455.619	32
456.842	24
458.065	29
459.288	36
460.511	29
461.733	33
462.956	22
464.178	32
465.4	33
466.621	34
467.843	26
469.064	36
470.285	37
471.505	34
472.726	28
473.946	38
475.166	39
476.387	36
477.606	38
478.825	38
480.044	42
481.264	48
482.483	44
483.702	46
484.921	46
486.138	50
487.356	51
488.574	53
489.792	50
491.009	50
492.226	61
493.444	52
494.661	52
495.877	48
497.094	45
498.31	44
499.525	44
500.741	44
501.958	44
503.172	39
504.388	41
505.603	40
506.817	40
508.032	39
509.247	36
510.46	33
511.675	34
512.888	35
514.102	34
515.316	33
516.528	40
517.742	29
518.954	32
520.167	31
521.378	30
522.591	33
523.802	35
525.015	33
526.226	32
527.438	37
528.648	31
529.86	31
531.07	26
532.281	35
533.491	31
534.702	34
535.911	32
537.121	29
538.33	31
539.54	32
540.749	35
541.957	30
543.167	31
544.375	31
545.584	34
546.791	28
547.999	28
549.207	37
550.414	33
551.621	34
552.829	30
554.035	30
555.241	30
556.449	28
557.655	33
558.86	34
560.066	30
561.272	34
562.477	30
563.682	22
564.888	30
566.093	35
567.297	31
568.501	25
569.705	31
570.91	30
572.114	34
573.317	29
574.52	36
575.723	32
576.927	31
578.13	26
579.332	28
580.535	26
581.737	32
582.938	29
584.14	30
585.343	24
586.544	26
587.745	27
588.946	28
590.147	33
591.347	32
592.548	32
593.748	29
594.948	30
596.147	26
597.347	30
598.546	32
599.745	32
600.944	31
602.143	28
603.342	32
604.54	31
605.738	29
606.937	31
608.134	30
609.332	32
610.529	32
611.727	32
612.924	29
614.121	22
615.317	31
616.513	28
617.709	35
618.905	29
620.101	30
621.297	26
622.492	30
623.688	34
624.883	27
626.077	28
627.271	29
628.466	29
629.66	22
630.855	34
632.047	27
633.241	28
634.435	28
635.629	30
636.82	32
638.014	29
639.207	31
640.399	32
641.59	30
642.783	30
643.975	35
645.166	32
646.357	29
647.549	30
648.741	37
649.93	30
651.122	30
652.311	31
653.502	30
654.692	28
655.881	26
657.071	26
658.261	29
659.45	34
660.639	30
661.827	33
663.016	32
664.204	34
665.393	32
666.581	30
667.769	32
668.957	32
670.143	32
671.331	30
672.518	30
673.705	30
674.891	32
676.078	34
677.264	32
678.451	36
679.636	28
680.821	32
682.007	28
683.192	36
684.378	39
685.562	38
686.747	38
687.931	35
689.115	30
690.3	38
691.483	32
692.666	28
693.851	38
695.034	36
696.216	39
697.4	33
698.582	32
699.764	37
700.948	34
702.129	38
703.311	41
704.493	44
705.674	41
706.855	48
708.036	44
709.218	46
710.399	47
711.579	49
712.759	43
713.939	42
715.12	42
716.299	36
717.478	34
718.657	32
719.836	30
721.015	33
722.195	24
723.373	34
724.552	24
725.729	31
726.907	31
728.085	35
729.262	30
730.44	33
731.617	32
732.795	32
733.972	26
735.148	28
736.324	31
737.501	31
738.677	30
739.852	31
741.028	29
742.203	26
743.379	38
744.554	29
745.729	32
746.903	34
748.078	23
749.252	26
750.426	31
751.599	30
752.772	26
753.946	26
755.119	32
756.293	29
757.466	30
758.639	28
759.811	28
760.984	30
762.155	29
763.327	34
764.499	28
765.67	28
766.842	29
768.013	30
769.183	25
770.354	28
771.525	31
772.696	39
773.865	33
775.035	31
776.205	22
777.375	32
778.544	31
779.713	31
780.882	30
782.052	32
783.219	34
784.388	32
785.557	34
786.724	37
787.892	32
789.06	35
790.227	37
791.395	31
792.562	29
793.728	33
794.895	28
796.061	31
797.228	30
798.395	31
799.56	37
800.726	31
801.891	32
803.057	32
804.221	36
805.387	30
806.551	25
807.716	33
808.879	31
810.044	31
811.208	30
812.372	34
813.535	33
814.699	27
815.862	33
817.025	28
818.188	29
819.351	30
820.513	35
821.675	28
822.837	26
823.999	32
825.161	30
826.322	30
827.483	31
828.645	24
829.805	32
830.966	24
832.127	24
833.287	32
834.447	32
835.607	34
836.767	32
837.926	32
839.085	33
840.245	32
841.404	29
842.562	30
843.72	28
844.88	30
846.038	32
847.195	30
848.353	24
849.512	28
850.669	26
851.826	28
852.983	31
854.139	32
855.296	30
856.453	33
857.609	35
858.765	26
859.921	26
861.077	34
862.232	32
863.387	34
864.542	32
865.697	31
866.852	31
868.008	26
869.162	34
870.316	26
871.47	30
872.624	26
873.778	32
874.931	32
876.084	29
877.237	26
878.39	31
879.543	32
880.695	31
881.846	38
882.999	30
884.151	28
885.302	30
886.454	26
887.606	32
888.757	28
889.908	28
891.059	26
892.21	32
893.359	30
894.509	26
895.659	26
896.81	30
897.959	27
899.109	28
900.257	28
901.407	32
902.556	31
903.705	28
904.854	27
906.001	30
907.149	24
908.298	32
909.446	34
910.592	26
911.74	31
912.888	25
914.034	32
915.181	24
916.328	28
917.473	31
918.62	30
919.766	28
920.911	32
922.058	30
923.204	31
924.348	30
925.494	32
926.638	27
927.783	31
928.928	28
930.072	29
931.216	30
932.36	28
933.504	27
934.647	30
935.791	30
936.933	24
938.077	28
939.219	26
940.363	25
941.504	30
942.647	31
943.789	28
944.932	29
946.073	30
947.215	31
948.356	30
949.498	29
950.638	30
951.778	30
952.92	28
954.06	28
955.199	32
956.34	20
957.479	27
958.62	32
959.759	28
960.898	26
962.038	24
963.176	28
964.315	28
965.453	29
966.592	30
967.73	26
968.867	29
970.006	28
971.144	29.5
972.281	28
973.418	27
974.554	27
975.692	29
976.829	30
977.965	31
979.101	30
980.237	22
981.374	30
982.509	35
983.645	24
984.78	26
985.915	29
987.05	30
988.184	27
989.319	28
990.453	24
991.589	32
992.722	25
993.856	34
994.99	33
996.123	26
997.257	26
998.39	28
999.523	32
1000.66	30
1001.79	28
1002.92	32
1004.05	29
1005.18	35
1006.32	28
1007.45	28
1008.58	32
1009.71	26
1010.84	24
1011.97	28
1013.1	24
1014.23	27
1015.36	31
1016.49	29
1017.62	28
1018.75	24
1019.88	31
1021.01	26
1022.14	26
1023.27	26
1024.4	26
1025.53	24
1026.66	32
1027.79	28
1028.91	25
1030.04	26
1031.17	28
1032.3	22
1033.42	22
1034.55	32
1035.68	28
1036.81	22
1037.93	28
1039.06	22
1040.18	29
1041.31	28
1042.44	29
1043.56	28
1044.69	29
1045.81	26
1046.94	34
1048.06	28
1049.19	30
1050.31	30
1051.44	31
1052.56	22
1053.69	34
1054.81	25
1055.93	28
1057.06	28
1058.18	29
1059.3	30
1060.43	28
1061.55	23
1062.67	27
1063.79	32
1064.92	29
1066.04	24
1067.16	29
1068.28	25
1069.4	27
1070.52	26
1071.65	26
1072.77	28
1073.89	30
1075.01	30
1076.13	27
1077.25	28
1078.37	24
1079.49	30
1080.61	24
1081.73	28
1082.85	32
1083.97	28
1085.09	24
1086.2	29
1087.32	31
1088.44	25
1089.56	28
1090.68	30
1091.8	30
1092.91	26
1094.03	27
1095.15	28
1096.26	31
1097.38	26
1098.5	28
1099.61	33
1100.73	28
1101.85	29
1102.96	26
1104.08	29
1105.19	26
1106.31	24
1107.43	26
1108.54	26
1109.66	28
1110.77	29
1111.88	30
1113	28
1114.11	31
1115.23	26
1116.34	26
1117.46	28
1118.57	29
1119.68	27
1120.8	24
1121.91	29
1123.02	28
1124.13	26
1125.25	26
1126.36	25
1127.47	31
1128.58	25
1129.69	29
1130.8	28
1131.92	26
1133.03	30
1134.14	26
1135.25	29
1136.36	24
1137.47	28
1138.58	27
1139.69	24
1140.8	26
1141.91	25
1143.02	26
1144.13	20
1145.24	24
1146.35	32
1147.46	31
1148.56	28
1149.67	25
1150.78	27
1151.89	29
1153	28
1154.1	29
1155.21	27
1156.32	27
1157.43	32
1158.53	24
1159.64	30
1160.75	29
1161.85	26
1162.96	32
1164.07	28
1165.17	31
1166.28	22
1167.38	25
1168.49	22
1169.59	24
1170.7	27
1171.8	33
1172.91	31
1174.01	23
1175.12	29
1176.22	28
1177.32	25
1178.43	32
1179.53	27
1180.64	33
1181.74	28
1182.84	34
1183.94	24
1185.05	29
1186.15	28
1187.25	29
1188.35	28
1189.46	26
1190.56	26
1191.66	28
1192.76	30
1193.86	27
1194.96	28
1196.06	26.9755
1197.16	28.8971
1198.26	28.9656
1199.37	24.2364
1200.47	26.2735
1201.57	26.2255
1202.67	26.1327
1203.77	25.9447
1204.86	25.7109
1205.96	24.1032
1207.06	29.53
1208.16	27.7822
1209.26	25.2422
1210.36	24.4663
1211.46	28.7855
1212.56	26.6209
1213.65	27.3507
1214.75	24.4226
1215.85	25.1929
1216.95	27.052
1218.04	28.3922
1219.14	18.7443
1220.24	25.8184
1221.33	26.2866
1222.43	24.323
1223.53	26
1224.62	25.4127
1225.72	25.6342
1226.82	28.2235
1227.91	23.5115
1229.01	24.6861
1230.1	24.5209
1231.2	25.9559
1232.29	25.8468
1233.39	25.6092
1234.48	27.0899
1235.58	24.9893
1236.67	23.2296
1237.77	25.9722
1238.86	24.0468
1239.95	26.0656
1241.05	27.0687
1242.14	24.6536
1243.23	28.1164
1244.33	26.5314
1245.42	26.1346
1246.51	26.7738
1247.61	27.5047
1248.7	26.1048
1249.79	23.5882
1250.88	27.8303
1251.97	28.5094
1253.07	27.6278
1254.16	26.1573
1255.25	27.7872
1256.34	31.1613
1257.43	26
1258.52	27.7451
1259.61	26.6674
1260.7	28.4988
1261.79	28.2925
1262.88	29.8338
1263.97	28.7787
1265.06	25.3969
1266.15	26.5968
1267.24	28.417
1268.33	26.559
1269.42	28.8247
1270.51	28.208
1271.6	24.7545
1272.68	25.5647
1273.77	27.6829
1274.86	28.0757
1275.95	29.0063
1277.04	28.5755
1278.12	26.5126
1279.21	22.6042
1280.3	24
1281.39	24.6085
1282.47	25.146
1283.56	26.4323
1284.65	29.1196
1285.73	27.4343
1286.82	25.4559
1287.91	25.0444
1288.99	25.2335
1290.08	25.3479
1291.16	27.8737
1292.25	26.002
1293.33	22.1857
1294.42	27.2968
1295.5	23.6288
1296.59	24.7993
1297.67	26.8826
1298.76	28.6747
1299.84	28.2647
1300.92	29.0839
1302.01	25.3297
1303.09	28.6245
1304.17	24.2957
1305.26	28.1921
1306.34	29.9951
1307.34	30
1308.43	31
1309.52	27
1310.61	29
1311.7	26
1312.78	30
1313.87	26
1314.96	24
1316.04	27
1317.13	27
1318.22	30
1319.3	26
1320.39	26
1321.48	25
1322.56	26
1323.65	27
1324.73	22
1325.82	24
1326.9	30
1327.99	24
1329.07	27
1330.16	31
1331.24	27
1332.33	29
1333.41	28
1334.5	24
1335.58	30
1336.66	26
1337.75	28
1338.83	29
1339.91	32
1341	33
1342.08	27
1343.16	27
1344.24	22
1345.33	28
1346.41	28
1347.49	26
1348.57	24
1349.65	24
1350.74	26
1351.82	24
1352.9	26
1353.98	24
1355.06	22
1356.14	30
1357.22	25
1358.3	23
1359.38	28
1360.46	25
1361.54	28
1362.62	29
1363.7	28
1364.78	30
1365.86	24
1366.94	30
1368.02	25
1369.09	22
1370.17	24
1371.25	25
1372.33	30
1373.41	29
1374.48	24
1375.56	29
1376.64	28
1377.72	27
1378.79	26
1379.87	28
1380.95	22
1382.02	28
1383.1	24
1384.17	24
1385.25	27
1386.33	27
1387.4	29
1388.48	26
1389.55	24
1390.63	25
1391.7	28
1392.78	32
1393.85	27
1394.93	30
1396	24
1397.07	28
1398.15	26
1399.22	30
1400.3	29
1401.37	32
1402.44	29
1403.52	34
1404.59	33
1405.66	34
1406.73	31
1407.81	31
1408.88	32
1409.95	32
1411.02	36
1412.09	29
1413.17	32
1414.24	31
1415.31	30
1416.38	35
1417.45	25
1418.52	34
1419.59	28
1420.66	32
1421.73	34
1422.8	30
1423.87	30
1424.94	25
1426.01	29
1427.08	31
1428.15	30
1429.22	28
1430.29	31
1431.35	26
1432.42	28
1433.49	30
1434.56	27
1435.63	34
1436.69	26
1437.76	32
1438.83	27
1439.9	29
1440.96	26
1442.03	28
1443.1	26
1444.17	29
1445.23	31
1446.3	27
1447.36	26
1448.43	29
1449.49	26
1450.56	30
1451.63	28
1452.69	24
1453.76	33
1454.82	28
1455.89	28
1456.95	26
1458.01	28
1459.08	24
1460.14	29
1461.21	27
1462.27	28
1463.34	23
1464.4	32
1465.46	32
1466.52	27
1467.59	27
1468.65	28
1469.71	26
1470.77	28
1471.84	32
1472.9	26
1473.96	32
1475.02	28
1476.08	28
1477.15	26
1478.21	30
1479.27	28
1480.33	30
1481.39	27
1482.45	32
1483.51	34
1484.57	30
1485.63	30
1486.69	27
1487.75	27
1488.81	20
1489.87	31
1490.93	27
1491.99	30
1493.05	28
1494.1	32
1495.16	30
1496.22	31
1497.28	28
1498.34	26
1499.4	25
1500.45	28
1501.51	30
1502.57	27
1503.63	29
1504.68	26
1505.74	28
1506.8	26
1507.85	34
1508.91	32
1509.97	26
1511.02	30
1512.08	27
1513.13	30
1514.19	26
1515.24	30
1516.3	28
1517.35	28
1518.41	27
1519.46	26
1520.52	31
1521.57	29
1522.63	29
1523.68	33
1524.73	26
1525.79	31
1526.84	30
1527.9	26
1528.95	27
1530	25
1531.05	29
1532.11	28
1533.16	28
1534.21	26
1535.26	27
1536.32	28
1537.37	28
1538.42	30
1539.47	22
1540.52	26
1541.57	26
1542.63	30
1543.68	26
1544.73	23
1545.78	30
1546.83	30
1547.88	25
1548.93	31
1549.98	24
1551.03	33
1552.08	30
1553.13	30
1554.18	29
1555.23	28
1556.27	29
1557.32	26
1558.37	31
1559.42	32
1560.47	28
1561.52	28
1562.56	29
1563.61	28
1564.66	32
1565.71	29
1566.75	29
1567.8	31
1568.85	28
1569.9	30
1570.94	26
1571.99	33
1573.03	26
1574.08	24
1575.13	31
1576.17	34
1577.22	30
1578.26	32
1579.31	28
1580.35	28
1581.4	22
1582.44	27
1583.49	30
1584.53	27
1585.58	28
1586.62	28
1587.66	32
1588.71	22
1589.75	30
1590.8	28
1591.84	28
1592.88	30
1593.92	30
1594.97	33
1596.01	26
1597.05	24
1598.1	22
1599.14	30
1600.18	30
1601.22	28
1602.26	28
1603.3	26
1604.35	26
1605.39	28
1606.43	23
1607.47	28
1608.51	28
1609.55	28
1610.59	25
1611.63	23
1612.67	29
1613.71	29
1614.75	27
1615.79	33
1616.83	31
1617.87	28
1618.91	28
1619.95	26
1620.99	31
1622.02	32
1623.06	29
1624.1	29
1625.14	27
1626.18	27
1627.21	30
1628.25	26
1629.29	30
1630.33	24
1631.36	30
1632.4	26
1633.44	28
1634.48	24
1635.51	31
1636.55	26
1637.58	28
1638.62	26
1639.66	32
1640.69	28
1641.73	24
1642.76	26
1643.8	30
1644.83	29
1645.87	30
1646.9	33
1647.94	30
1648.97	30
1650	30
1651.04	32
1652.07	20
1653.11	28
1654.14	23
1655.17	31
1656.21	28
1657.24	30
1658.27	30
1659.31	25
1660.34	28
1661.37	30
1662.4	26
1663.43	29
1664.47	32
1665.5	28
1666.53	27
1667.56	24
1668.59	34
1669.62	28
1670.66	28
1671.69	27
1672.72	24
1673.75	29
1674.78	29
1675.81	28
1676.84	27
1677.87	26
1678.9	30
1679.93	27
1680.96	28
1681.98	32
1683.01	27
1684.04	30
1685.07	16
1686.1	33
1687.13	28
1688.16	31
1689.18	29
1690.21	24
1691.24	33
1692.27	34
1693.3	28
1694.32	28
1695.35	28
1696.38	20
1697.4	32
1698.43	24
1699.46	25
1700.48	28
1701.51	31
1702.54	22
1703.56	27
1704.59	26
1705.61	31
1706.64	30
1707.66	31
1708.69	32
1709.71	24
1710.74	28
1711.76	26
1712.79	25
1713.81	29
1714.83	28
1715.86	26
1716.88	28
1717.91	33
1718.93	22
1719.95	22
1720.98	27
1722	26
1723.02	25
1724.04	18
1725.07	35
1726.09	26
1727.11	26
1728.13	22
1729.15	26
1730.18	26
1731.2	28
1732.22	26
1733.24	26
1734.26	29
1735.28	24
1736.3	24
1737.32	30
1738.34	32
1739.36	30
1740.38	23
1741.4	33
1742.42	26
1743.44	29
1744.46	24
1745.48	22
1746.5	28
1747.52	30
1748.54	31
1749.56	27
1750.58	32
1751.6	22
1752.61	26
1753.63	26
1754.65	31
1755.67	29
1756.68	26
1757.7	26
1758.72	28
1759.74	29
1760.75	28
1761.77	27
1762.79	30
1763.8	28
1764.82	30
1765.83	30
1766.85	22
1767.87	28
1768.88	28
1769.9	29
1770.91	32
1771.93	31
1772.94	32
1773.96	30
1774.97	25
1775.99	26
1777	30
1778.02	26
1779.03	22
1780.04	27
1781.06	28
1782.07	24
1783.09	28
1784.1	29
1785.11	28
1786.13	26
1787.14	24
1788.15	31
1789.16	27
1790.18	30
1791.19	27
1792.2	22
1793.21	27
1794.22	28
1795.23	28
1796.25	30
1797.26	29
1798.27	26
1799.28	21
1800.29	29
1801.3	28
1802.31	24
1803.32	28
1804.33	29
1805.34	28
1806.35	28
1807.36	29
1808.37	28
1809.38	29
1810.39	27
1811.4	33
1812.41	31
1813.42	30
1814.42	26
1815.43	26
1816.44	22
1817.45	26
1818.46	16
1819.47	27
1820.47	28
1821.48	30
1822.49	26
1823.49	28
1824.5	30
1825.51	26
1826.52	27
1827.52	27
1828.53	28
1829.53	28
1830.54	28
1831.55	27
1832.55	29
1833.56	30
1834.56	25
1835.57	28
1836.57	28
1837.58	26
1838.58	28
1839.59	26
1840.59	32
1841.6	32
1842.6	26
1843.61	30
1844.61	30
1845.61	29
1846.62	20
1847.62	30
1848.62	27
1849.63	27
1850.63	25
1851.63	26
1852.64	30
1853.64	30
1854.64	29
1855.64	26
1856.64	26
1857.65	28
1858.65	22
1859.65	29
1860.65	29
1861.65	28
1862.65	22
1863.65	26
1864.66	20
1865.66	24
1866.66	22
1867.66	29
1868.66	24
1869.66	26
1870.66	24
1871.66	27
1872.66	31
1873.66	26
1874.66	27
1875.65	28
1876.65	28
1877.65	28
1878.65	31
1879.65	22
1880.65	29
1881.65	18
1882.64	30
1883.64	24
1884.64	27
1885.64	29
1886.63	29
1887.63	25
1888.63	22
1889.63	29
1890.62	32
1891.62	29
1892.62	28
1893.61	30
1894.61	27
1895.6	27
1896.6	34
1897.6	26
1898.59	30
1899.59	27
1900.58	27
1901.58	28
1902.57	26
1903.57	24
1904.56	29
1905.56	29
1906.55	30
1907.54	30
1908.54	26
1909.53	24
1910.53	26
1911.52	29
1912.51	28
1913.51	30
1914.5	25
1915.49	31
1916.49	30
1917.48	24
1918.47	23
1919.46	27
1920.46	31
1921.45	28
1922.44	27
1923.43	30
1924.42	26
1925.41	23
1926.41	30
1927.4	31
1928.39	32
1929.38	26
1930.37	24
1931.36	31
1932.35	26
1933.34	28
1934.33	22
1935.32	28
1936.31	28
1937.3	22
1938.29	22
1939.28	30
1940.27	30
1941.26	24
1942.24	28
1943.23	30
1944.22	32
1945.21	22
1946.2	27
1947.19	35
1948.17	29
1949.16	29
1950.15	31
1951.14	31
1952.12	28
1953.11	27
1954.1	30
1955.09	24
1956.07	28
1957.06	26
1958.05	30
1959.03	25
1960.02	28
1961	24
1961.99	29
1962.98	27
1963.96	28
1964.95	22
1965.93	26
1966.92	27
1967.9	32
1968.89	27
1969.87	25
1970.85	31
1971.84	26
1972.82	24
1973.81	30
1974.79	24
1975.78	29
1976.76	26
1977.74	27
1978.73	21
1979.71	26
1980.69	26
1981.67	22
1982.66	33
1983.64	24
1984.62	26
1985.6	27
1986.59	26
1987.57	28
1988.55	21
1989.53	27
1990.51	26
1991.49	26
1992.47	28
1993.45	30
1994.44	26
1995.42	30
1996.4	18
1997.38	23
1998.36	22
1999.34	24
2000.32	24
2001.3	29
2002.28	22
2003.26	24
2004.24	24
2005.22	27
2006.19	27
2007.17	26
2008.15	28
2009.13	26
2010.11	28
2011.09	20
2012.06	23
2013.04	26
2014.02	20
2015	25
2015.98	30
2016.95	26
2017.93	24
2018.91	25
2019.88	24
2020.86	23
2021.84	26
2022.81	28
2023.79	29
2024.77	27
2025.74	22
2026.72	26
2027.69	24
2028.67	27
2029.65	26
2030.62	32
2031.6	30
2032.57	28
2033.55	22
2034.52	24
2035.5	28
2036.47	27
2037.44	22
2038.42	27
2039.39	30
2040.36	27
2041.34	20
2042.31	23
2043.29	24
2044.26	27
2045.23	23
2046.2	24
2047.18	26
2048.15	26
2049.12	24
2050.09	26
2051.07	26
2052.04	32
2053.01	29
2053.98	27
2054.95	26
2055.93	27
2056.9	28
2057.87	26
2058.84	29
2059.81	22
2060.78	26
2061.75	26
2062.72	22
2063.69	29
2064.66	26
2065.63	26
2066.6	26
2067.57	27
2068.54	28
2069.51	24
2070.48	32
2071.45	27
2072.42	25
2073.38	30
2074.35	31
2075.32	26
2076.29	28
2077.26	24
2078.23	28
2079.19	24
2080.16	25
2081.13	22
2082.1	30
2083.06	26
2084.03	29
2085	27
2085.96	25
2086.93	29
2087.9	28
2088.86	27
2089.83	25
2090.8	28
2091.76	28
2092.73	26
2093.69	27
2094.66	25
2095.62	20
2096.59	30
2097.55	28
2098.52	24
2099.48	20
2100.45	29
2101.41	22
2102.38	27
2103.34	23
2104.31	20
2105.27	24
2106.23	26
2107.2	29
2108.16	26
2109.12	24
2110.09	24
2111.05	29
2112.01	25
2112.98	28
2113.94	25
2114.9	30
2115.86	28
2116.82	22
2117.79	26
2118.75	30
2119.71	26
2120.67	29
2121.63	30
2122.59	28
2123.55	26
2124.52	30
2125.48	26
2126.44	28
2127.4	16
2128.36	28
2129.32	26
2130.28	25
2131.24	26
2132.2	25
2133.16	27
2134.12	27
2135.08	30
2136.04	30
2136.99	30
2137.95	28
2138.91	34
2139.87	25
2140.83	22
2141.79	24
2142.75	28
2143.7	26
2144.66	24
2145.62	25.9858
2146.58	27.9439
2147.53	26.0021
2148.49	24.1113
2149.45	22.3462
2150.41	26.0772
2151.36	20.9531
2152.32	23.9822
2153.27	25.5417
2154.23	28.098
2155.19	22.7903
2156.14	26.5443
2157.1	28.1377
2158.06	26.2303
2159.01	24.4265
2159.97	29.5215
2160.92	21.6914
2161.88	25.9982
2162.83	24.1814
2163.79	24.1912
2164.74	29.9931
2165.7	24.4136
2166.65	24.8761
2167.61	24.0185
2168.56	26.2223
2169.51	25.5
2170.47	25.758
2171.42	25.7304
2172.38	22.5714
2173.33	26.2461
2174.28	24.7498
2175.24	26.9441
2176.19	23.1686
2177.14	25.5193
2178.09	25.3635
2179.05	20.7843
2180	25.3578
2180.95	25.0695
2181.9	26.3775
2182.86	25.2456
2183.81	23.0032
2184.76	25.5484
2185.71	25.43
2186.66	25.0956
2187.61	27.018
2188.57	26.5539
2189.52	27.6324
2190.47	27.0686
2191.42	23.4962
2192.37	23.6617
2193.32	23.3306
2194.27	27.1873
2195.22	24.4294
2196.17	25.4675
2197.12	24.8365
2198.07	24.0219
2199.02	26.0318
2199.97	23.3824
2200.92	24.6869
2201.87	24.9514
2202.82	26.2852
2203.76	26.2569
2204.71	28.4149
2205.66	23.4511
2206.61	25.1817
2207.56	23.2406
2208.51	24.5276
2209.45	26.5004
2210.4	28.0093
2211.35	21.8188
2212.3	21.5843
2213.24	23.4545
2214.19	25.1734
2215.14	24.0373
2216.09	23.9869
2217.03	23.4222
2217.98	22.7175
2218.93	23.5504
2219.87	25.3069
2220.82	24.2791
2221.77	24.1769
2222.71	25.3089
2223.66	23.0942
2224.6	22.7255
2225.55	24.5549
2226.49	23.6175
2227.44	22.9118
2228.38	25.2233
2229.33	25.0534
2230.27	26.2539
2231.22	25.6288
2232.16	26.2346
2233.11	24.1676
2234.05	23.8195
2235	23.4299
2235.94	23.6361
2236.88	24.1078
2237.83	21.7059
2238.77	24.7323
2239.71	25.7004
2240.66	24.5466
2241.6	26.1482
2242	27
2242.95	24
2243.9	22
2244.84	28
2245.79	26
2246.74	28
2247.69	26
2248.63	28
2249.58	22
2250.53	25
2251.47	26
2252.42	22
2253.37	26
2254.31	23
2255.26	27
2256.2	24
2257.15	31
2258.1	29
2259.04	24
2259.99	26
2260.93	22
2261.88	26
2262.82	24
2263.77	30
2264.71	30
2265.65	20
2266.6	27
2267.54	26
2268.49	23
2269.43	27
2270.38	28
2271.32	25
2272.26	22
2273.21	29
2274.15	31
2275.09	26
2276.04	27
2276.98	24
2277.92	25
2278.86	27
2279.81	22
2280.75	25
2281.69	24
2282.63	22
2283.57	30
2284.52	29
2285.46	25
2286.4	27
2287.34	23
2288.28	27
2289.22	24
2290.16	25
2291.1	29
2292.04	24
2292.98	27
2293.93	28
2294.86	30
2295.8	26
2296.74	28
2297.69	31
2298.62	24
2299.56	28
2300.5	25
2301.44	25
2302.38	20
2303.32	29
2304.26	22
2305.2	28
2306.14	22
2307.07	29
2308.01	24
2308.95	27
2309.89	25
2310.83	28
2311.76	22
2312.7	34
2313.64	26
2314.58	26
2315.51	30
2316.45	24
2317.39	28
2318.32	26
2319.26	30
2320.2	34
2321.13	26
2322.07	28
2323	28
2323.94	26
2324.88	29
2325.81	30
2326.75	31
2327.68	25
2328.62	26
2329.55	29
2330.49	27
2331.42	29
2332.36	25
2333.29	30
2334.22	25
2335.16	30
2336.09	26
2337.03	31
2337.96	27
2338.89	27
2339.83	24
2340.76	24
2341.69	24
2342.63	29
2343.56	25
2344.49	28
2345.43	28
2346.36	26
2347.29	28
2348.22	27
2349.15	27
2350.09	31
2351.02	25
2351.95	24
2352.88	26
2353.81	26
2354.74	26
2355.67	22
2356.61	27
2357.54	28
2358.47	27
2359.4	24
2360.33	24
2361.26	30
2362.19	30
2363.12	27
2364.05	28
2364.98	26
2365.91	26
2366.84	30
2367.77	25
2368.7	26
2369.62	29
2370.55	24
2371.48	25
2372.41	27
2373.34	28
2374.27	26
2375.2	21
2376.12	32
2377.05	24
2377.98	26
2378.91	24
2379.83	30
2380.76	22
2381.69	28
2382.62	26
2383.54	28
2384.47	28
2385.4	24
2386.32	27
2387.25	26
2388.18	26
2389.1	30
2390.03	26
2390.95	29
2391.88	23
2392.81	24
2393.73	24
2394.66	28
2395.58	29
2396.51	28
2397.43	27
2398.36	30
2399.28	24
2400.2	30
2401.13	29
2402.05	30
2402.98	28
2403.9	24
2404.83	29
2405.75	26
2406.67	21
2407.6	27
2408.52	22
2409.44	22
2410.37	24
2411.29	24
2412.21	28
2413.13	26
2414.06	30
2414.98	28
2415.9	30
2416.82	25
2417.74	24
2418.67	29
2419.59	27
2420.51	26
2421.43	28
2422.35	26
2423.27	29
2424.19	24
2425.11	28
2426.03	22
2426.96	28
2427.88	22
2428.8	28
2429.72	29
2430.64	31
2431.56	28
2432.48	24
2433.39	26
2434.31	18
2435.23	30
2436.15	24
2437.07	29
2437.99	26
2438.91	26
2439.83	26
2440.75	29
2441.67	26
2442.58	28
2443.5	28
2444.42	26
2445.34	25
2446.26	32
2447.17	30
2448.09	29
2449.01	24
2449.92	28
2450.84	24
2451.76	28
2452.68	24
2453.59	29
2454.51	24
2455.42	24
2456.34	27
2457.26	23
2458.17	26
2459.09	29
2460	24
2460.92	26
2461.83	29
2462.75	30
2463.66	20
2464.58	26
2465.49	26
2466.41	27
2467.32	25
2468.24	30
2469.15	27
2470.07	28
2470.98	30
2471.89	25
2472.81	24
2473.72	25
2474.64	28
2475.55	25
2476.46	26
2477.37	29
2478.29	23
2479.2	24
2480.11	29
2481.03	28
2481.94	30
2482.85	22
2483.76	24
2484.67	24
2485.59	25
2486.5	31
2487.41	23
2488.32	29
2489.23	26
2490.14	29
2491.05	28
2491.97	28
2492.88	26
2493.79	20
2494.7	24
2495.61	24
2496.52	23
2497.43	27
2498.34	23
2499.25	29
2500.16	26
2501.07	20
2501.98	26
2502.89	30
2503.79	24
2504.7	26
2505.61	28
2506.52	28
2507.43	26
2508.34	22
2509.25	32
2510.16	22
2511.06	24
2511.97	32
2512.88	25
2513.79	34
2514.69	27
2515.6	24
2516.51	29
2517.42	27
2518.32	24
2519.23	28
2520.14	22
2521.04	28
2521.95	30
2522.86	30
2523.76	25
2524.67	20
2525.57	33
2526.48	25
2527.39	27
2528.29	30
2529.2	21
2530.1	28
2531.01	26
2531.91	35
2532.82	26
2533.72	28
2534.63	26
2535.53	29
2536.44	24
2537.34	30
2538.24	30
2539.15	24
2540.05	29
2540.96	29
2541.86	24
2542.76	28
2543.67	26
2544.57	26
2545.47	26
2546.37	30
2547.28	27
2548.18	27
2549.08	18
2549.99	30
2550.89	25
2551.79	30
2552.69	31
2553.59	24
2554.49	32
2555.4	28
2556.3	26
2557.2	33
2558.1	29
2559	28
2559.9	24
2560.8	26
2561.7	26
2562.6	25
2563.5	29
2564.4	24
2565.3	30
2566.2	26
2567.1	29
2568	30
2568.9	25
2569.8	29
2570.7	23
2571.6	25
2572.5	22
2573.4	28
2574.3	30
2575.2	24
2576.1	33
2576.99	24
2577.89	24
2578.79	24
2579.69	34
2580.59	27
2581.48	31
2582.38	31
2583.28	28
2584.18	25
2585.07	24
2585.97	26
2586.87	24
2587.76	31
2588.66	24
2589.56	26
2590.45	23
2591.35	29
2592.25	27
2593.14	31
2594.04	26
2594.93	28
2595.83	27
2596.73	28
2597.62	24
2598.52	27
2599.41	28
2600.31	29
2601.2	28
2602.1	23
2602.99	29
2603.88	30
2604.78	25
2605.67	28
2606.57	22
2607.46	25
2608.35	30
2609.25	28
2610.14	27
2611.03	28
2611.93	24
2612.82	25
2613.71	26
2614.61	22
2615.5	27
2616.39	28
2617.29	28
2618.18	22
2619.07	26
2619.96	25
2620.85	25
2621.75	24
2622.64	22
2623.53	25
2624.42	27
2625.31	30
2626.2	26
2627.09	30
2627.98	29
2628.88	28
2629.77	30
2630.66	27
2631.55	28
2632.44	27
2633.33	29
2634.22	28
2635.11	30
2636	24
2636.89	30
2637.78	24
2638.66	27
2639.55	24
2640.44	28
2641.33	30
2642.22	27
2643.11	30
2644	23
2644.89	32
2645.78	24
2646.66	28
2647.55	27
2648.44	24
2649.33	25
2650.21	22
2651.1	28
2651.99	30
2652.88	16
2653.76	27
2654.65	27
2655.54	32
2656.42	30
2657.31	33
2658.2	30
2659.08	25
2659.97	29
2660.86	29
2661.74	26
2662.63	22
2663.51	27
2664.4	26
2665.29	26
2666.17	30
2667.06	29
2667.94	22
2668.83	29
2669.71	27
2670.6	29
2671.48	25
2672.36	28
2673.25	28
2674.13	23
2675.02	26
2675.9	20
2676.78	29
2677.67	30
2678.55	24
2679.43	27
2680.32	26
2681.2	20
2682.08	27
2682.97	28
2683.85	30
2684.73	28
2685.61	27
2686.5	26
2687.38	25
2688.26	29
2689.14	26
2690.03	28
2690.91	26
2691.79	31
2692.67	24
2693.55	28
2694.43	22
2695.31	28
2696.19	21
2697.08	27
2697.96	28
2698.84	25
2699.72	28
2700.6	23
2701.48	33
2702.36	20
2703.24	25
2704.12	27
2705	26
2705.88	28
2706.76	31
2707.64	30
2708.51	28
2709.39	26
2710.27	29
2711.15	26
2712.03	26
2712.91	26
2713.79	23
2714.67	28
2715.54	24
2716.42	28
2717.3	28
2718.18	25
2719.05	26
2719.93	29
2720.81	27
2721.69	31
2722.56	28
2723.44	27
2724.32	30
2725.19	27
2726.07	29
2726.95	25
2727.82	28
2728.7	26
2729.58	26
2730.45	27
2731.33	32
2732.2	26
2733.08	22
2733.95	27
2734.83	24
2735.7	30
2736.58	23
2737.45	26
2738.33	31
2739.2	26
2740.08	24
2740.95	27
2741.83	29
2742.7	23
2743.58	27
2744.45	24
2745.32	26
2746.2	24
2747.07	29
2747.94	28
2748.82	28
2749.69	24
2750.56	30
2751.44	26
2752.31	26
2753.18	26
2754.05	27
2754.93	29
2755.8	24
2756.67	24
2757.54	28
2758.42	26
2759.29	30
2760.16	27
2761.03	31
2761.9	27
2762.77	27
2763.64	30
2764.51	29
2765.38	31
2766.26	26
2767.13	30
2768	25
2768.87	29
2769.74	32
2770.61	26
2771.48	30
2772.35	26
2773.22	26
2774.09	30
2774.96	22
2775.83	27
2776.7	29
2777.56	28
2778.43	25
2779.3	28
2780.17	32
2781.04	28
2781.91	29
2782.78	33
2783.64	31
2784.51	30
2785.38	28
2786.25	33
2787.12	25
2787.98	24
2788.85	25
2789.72	24
2790.59	28
2791.45	26
2792.32	28
2793.19	30
2794.05	30
2794.92	26
2795.79	30
2796.65	28
2797.52	26
2798.38	26
2799.25	32
2800.12	24
2800.98	28
2801.85	28
2802.71	22
2803.58	24
2804.44	26
2805.31	20
2806.17	25
2807.04	28
2807.9	28
2808.77	28
2809.63	28
2810.5	28
2811.36	31
2812.22	35
2813.09	25
2813.95	28
2814.82	30
2815.68	26
2816.54	29
2817.41	29
2818.27	30
2819.13	27
2820	28
2820.86	30
2821.72	30
2822.58	32
2823.45	28
2824.31	32
2825.17	31
2826.03	24
2826.9	28
2827.76	26
2828.62	30
2829.48	26
2830.34	30
2831.2	26
2832.06	30
2832.92	30
2833.79	25
2834.65	29
2835.51	28
2836.37	27
2837.23	30
2838.09	28
2838.95	27
2839.81	30
2840.67	28
2841.53	28
2842.39	29
2843.25	26
2844.11	26
2844.97	30
2845.83	28
2846.68	31
2847.54	26
2848.4	32
2849.26	30
2850.12	26
2850.98	28
2851.84	26
2852.69	26
2853.55	26
2854.41	31
2855.27	31
2856.13	20
2856.98	27
2857.84	28
2858.7	27
2859.56	26
2860.41	22
2861.27	30
2862.13	28
2862.98	26
2863.84	32
2864.7	29
2865.55	27
2866.41	32
2867.27	24
2868.12	29
2868.98	29
2869.83	31
2870.69	31
2871.54	26
2872.4	29
2873.25	25
2874.11	34
2874.96	32
2875.82	30
2876.68	33
2877.53	36
2878.38	35
2879.24	30
2880.09	32
2880.95	32
2881.8	30
2882.65	29
2883.51	30
2884.36	28
2885.22	36
2886.07	34
2886.92	36
2887.77	32
2888.63	34
2889.48	34
2890.33	35
2891.19	41
2892.04	36
2892.89	35
2893.74	36
2894.6	40
2895.45	46
2896.3	47
2897.15	46
2898	49
2898.85	47
2899.71	50
2900.56	44
2901.41	52
2902.26	48
2903.11	60
2903.96	58
2904.81	58
2905.66	58
2906.51	54
2907.36	60
2908.21	62
2909.06	63
2909.91	61
2910.76	56
2911.61	56
2912.46	45
2913.31	42
2914.16	48
2915.01	51
2915.86	42
2916.71	39
2917.56	42
2918.41	39
2919.26	38
2920.1	42
2920.95	34
2921.8	38
2922.65	34
2923.5	33
2924.34	32
2925.19	32
2926.04	35
2926.89	32
2927.74	32
2928.58	30
2929.43	30
2930.28	31
2931.12	27
2931.97	34
2932.82	25
2933.66	30
2934.51	31
2935.36	29
2936.2	30
2937.05	32
2937.89	29
2938.74	30
2939.59	34
2940.43	31
2941.28	30
2942.12	26
2942.97	34
2943.81	26
2944.66	32
2945.5	32
2946.35	30
2947.19	30
2948.04	28
2948.88	30
2949.72	34
2950.57	32
2951.41	38
2952.26	30
2953.1	33
2953.94	32
2954.79	37
2955.63	27
2956.47	41
2957.32	36
2958.16	34
2959	34
2959.85	40
2960.69	37
2961.53	36
2962.37	38
2963.22	40
2964.06	38
2964.9	36
2965.74	40
2966.58	40
2967.42	43
2968.27	44
2969.11	42
2969.95	36
2970.79	42
2971.63	34
2972.47	41
2973.31	38
2974.15	34
2974.99	34
2975.83	37
2976.68	34
2977.52	26
2978.36	36
2979.2	36
2980.04	38
2980.88	37
2981.71	32
2982.55	36
2983.39	28
2984.23	30
2985.07	28
2985.91	26
2986.75	28
2987.59	24
2988.43	27
2989.27	29
2990.1	28
2990.94	24
2991.78	27
2992.62	27
2993.46	30
2994.3	24
2995.13	27
2995.97	29
2996.81	28
2997.64	24
2998.48	25
2999.32	29
