#Acq. time (s)=	3
#Accumulations=	3
#Range (cm-¹)=	100...3000
#Windows=	3
#Autofocus=	Off
#AutoExposure=	Off
#Spike filter=	Multiple accum.
#Delay time (s)=	0
#Binning=	1
#Readout mode=	Signal
#DeNoise=	Off
#ICS correction=	Off
#Dark correction=	Off
#Inst. Process=	Off
#Instrument=	LabRAM HR Evol
#Detector=	Syncerity OE
#Objective=	x100_VIS_LWD
#Grating=	600 (500nm)
#ND Filter=	25%
#Laser=	633nm_Edge
#Hole=	100.021
#Range=	Visible
#Project=	Bolus
#Sample=	B5
#Site=	stripside
#Title=	m12
#Remark=	
#Date=	03.11.2025 19:13
#Acquired=	03.11.2025 19:13:44
100.969	33
102.252	36
103.535	37
104.818	41
106.101	37
107.384	34
108.666	36
109.948	34
111.232	39
112.514	35
113.795	38
115.077	32
116.358	33
117.639	34
118.919	39
120.2	42
121.48	33
122.76	36
124.04	39
125.32	43
126.599	42
127.879	40
129.158	35
130.436	37
131.715	42
132.992	34
134.27	36
135.548	40
136.826	43
138.104	40
139.381	47
140.658	45
141.935	42
143.212	38
144.489	42
145.763	40
147.04	40
148.315	40
149.591	40
150.867	42
152.142	38
153.416	46
154.691	50
155.965	40
157.24	47
158.514	40
159.786	48
161.06	43
162.334	48
163.607	40
164.881	45
166.152	41
167.425	46
168.698	42
169.969	46
171.241	36
172.513	43
173.785	43
175.055	41
176.326	45
177.597	41
178.867	38
180.137	45
181.408	40
182.677	45
183.947	42
185.217	40
186.485	42
187.755	41
189.022	42
190.291	49
191.56	48
192.828	40
194.096	42
195.363	36
196.631	46
197.899	46
199.165	42
200.432	42
201.698	44
202.965	44
204.23	40
205.497	38
206.762	45
208.028	38
209.293	42
210.559	43
211.823	40
213.088	38
214.352	41
215.617	40
216.88	45
218.145	38
219.408	42
220.672	36
221.934	32
223.196	39
224.46	35
225.722	34
226.985	40
228.246	37
229.508	38
230.77	36
232.031	32
233.292	34
234.554	37
235.814	36
237.074	40
238.335	36
239.595	40
240.854	39
242.115	37
243.374	31
244.633	34
245.893	37
247.151	34
248.409	35
249.667	30
250.927	38
252.184	34
253.442	36
254.699	36
255.957	36
257.214	32
258.47	34
259.727	33
260.983	34
262.24	32
263.496	38
264.752	38
266.007	34
267.262	38
268.517	40
269.773	32
271.028	30
272.282	32
273.536	37
274.79	36
276.044	35
277.297	32
278.551	33
279.804	34
281.057	38
282.31	37
283.564	33
284.816	34
286.068	36
287.32	34
288.572	34
289.823	32
291.074	30
292.325	33
293.576	31
294.827	32
296.077	36
297.328	38
298.578	34
299.828	36
301.077	36
302.325	31
303.575	34
304.824	33
306.073	30
307.321	36
308.57	36
309.818	34
311.066	40
312.314	35
313.562	32
314.808	36
316.055	36
317.302	34
318.549	34
319.796	31
321.042	34
322.288	30
323.533	36
324.779	36
326.024	36
327.27	37
328.515	36
329.759	33
331.004	31
332.248	34
333.493	34
334.736	34
335.98	30
337.223	38
338.466	32
339.709	35
340.952	34
342.195	32
343.437	30
344.68	32
345.922	38
347.163	39
348.405	35
349.647	34
350.887	36
352.128	39
353.37	33
354.609	34
355.85	32
357.089	38
358.33	33
359.57	30
360.809	38
362.049	37
363.287	36
364.526	40
365.764	27
367.003	32
368.241	38
369.479	27
370.718	37
371.955	37
373.193	32
374.429	37
375.667	35
376.903	35
378.139	35
379.376	37
380.611	26
381.848	34
383.083	36
384.319	33
385.554	34
386.79	34
388.024	30
389.258	26
390.493	28
391.727	32
392.962	36
394.195	34
395.428	34
396.663	34
397.895	34
399.128	34
400.361	34
401.593	34
402.825	33
404.058	36
405.29	34
406.521	34
407.752	38
408.985	34
410.215	37
411.446	39
412.678	28
413.908	31
415.138	31
416.367	30
417.597	34
418.828	32
420.057	32
421.286	30
422.514	34
423.743	35
424.973	33
426.201	32
427.429	28
428.657	28
429.884	34
431.112	30
432.34	38
433.567	34
434.794	35
436.02	32
437.247	30
438.473	32
439.699	36
440.925	38
442.15	32
443.376	32
444.601	33
445.826	37
447.051	29
448.275	32
449.5	36
450.724	32
451.948	26
453.172	34
454.396	34
455.619	32
456.842	26
458.065	36
459.288	36
460.511	33
461.733	35
462.956	32
464.178	30
465.4	38
466.621	41
467.843	36
469.064	40
470.285	36
471.505	36
472.726	39
473.946	38
475.166	36
476.387	36
477.606	36
478.825	50
480.044	40
481.264	51
482.483	52
483.702	50
484.921	56
486.138	55
487.356	59
488.574	58
489.792	57
491.009	61
492.226	57
493.444	55
494.661	55
495.877	55
497.094	50
498.31	52
499.525	49
500.741	42
501.958	45
503.172	43
504.388	40
505.603	44
506.817	38
508.032	44
509.247	38
510.46	40
511.675	42
512.888	40
514.102	32
515.316	37
516.528	34
517.742	30
518.954	34
520.167	36
521.378	35
522.591	38
523.802	34
525.015	36
526.226	35
527.438	35
528.648	36
529.86	35
531.07	38
532.281	34
533.491	36
534.702	32
535.911	35
537.121	33
538.33	31
539.54	37
540.749	34
541.957	30
543.167	31
544.375	28
545.584	30
546.791	39
547.999	33
549.207	34
550.414	36
551.621	34
552.829	37
554.035	38
555.241	34
556.449	32
557.655	32
558.86	35
560.066	30
561.272	30
562.477	31
563.682	32
564.888	32
566.093	38
567.297	37
568.501	26
569.705	36
570.91	36
572.114	33
573.317	31
574.52	34
575.723	33
576.927	32
578.13	30
579.332	32
580.535	32
581.737	33
582.938	36
584.14	32
585.343	35
586.544	32
587.745	29
588.946	36
590.147	32
591.347	32
592.548	34
593.748	26
594.948	36
596.147	32
597.347	38
598.546	33
599.745	34
600.944	36
602.143	32
603.342	32
604.54	32
605.738	32
606.937	33
608.134	31
609.332	27
610.529	32
611.727	29
612.924	30
614.121	40
615.317	30
616.513	35
617.709	32
618.905	39
620.101	24
621.297	34
622.492	28
623.688	34
624.883	33
626.077	33
627.271	37
628.466	36
629.66	32
630.855	28
632.047	30
633.241	36
634.435	33
635.629	38
636.82	34
638.014	32
639.207	32
640.399	30
641.59	33
642.783	35
643.975	33
645.166	32
646.357	36
647.549	36
648.741	28
649.93	30
651.122	34
652.311	34
653.502	27
654.692	37
655.881	38
657.071	30
658.261	37
659.45	32
660.639	33
661.827	30
663.016	40
664.204	35
665.393	32
666.581	34
667.769	36
668.957	34
670.143	37
671.331	28
672.518	33
673.705	34
674.891	32
676.078	34
677.264	34
678.451	32
679.636	40
680.821	35
682.007	35
683.192	32
684.378	34
685.562	44
686.747	39
687.931	36
689.115	38
690.3	32
691.483	33
692.666	28
693.851	37
695.034	34
696.216	35
697.4	36
698.582	35
699.764	36
700.948	38
702.129	38
703.311	41
704.493	42
705.674	49
706.855	46
708.036	50
709.218	46
710.399	50
711.579	54
712.759	47
713.939	45
715.12	45
716.299	40
717.478	40
718.657	34
719.836	37
721.015	33
722.195	38
723.373	34
724.552	30
725.729	36
726.907	36
728.085	36
729.262	32
730.44	34
731.617	34
732.795	34
733.972	34
735.148	35
736.324	34
737.501	34
738.677	32
739.852	34
741.028	28
742.203	28
743.379	34
744.554	31
745.729	32
746.903	26
748.078	35
749.252	33
750.426	33
751.599	31
752.772	35
753.946	33
755.119	30
756.293	36
757.466	28
758.639	32
759.811	32
760.984	33
762.155	32
763.327	34
764.499	31
765.67	28
766.842	33
768.013	31
769.183	31
770.354	38
771.525	31
772.696	33
773.865	34
775.035	37
776.205	33
777.375	34
778.544	34
779.713	30
780.882	30
782.052	37
783.219	35
784.388	33
785.557	34
786.724	36
787.892	36
789.06	32
790.227	32
791.395	30
792.562	36
793.728	34
794.895	37
796.061	34
797.228	28
798.395	39
799.56	31
800.726	33
801.891	28
803.057	30
804.221	28
805.387	40
806.551	34
807.716	30
808.879	30
810.044	31
811.208	26
812.372	28
813.535	29
814.699	29
815.862	30
817.025	28
818.188	24
819.351	32
820.513	32
821.675	26
822.837	33
823.999	26
825.161	28
826.322	29
827.483	32
828.645	27
829.805	32
830.966	34
832.127	32
833.287	30
834.447	28
835.607	30
836.767	31
837.926	34
839.085	28
840.245	30
841.404	34
842.562	30
843.72	29
844.88	34
846.038	32
847.195	29
848.353	32
849.512	30
850.669	34
851.826	32
852.983	32
854.139	34
855.296	26
856.453	32
857.609	35
858.765	33
859.921	33
861.077	31
862.232	24
863.387	35
864.542	34
865.697	32
866.852	39
868.008	31
869.162	30
870.316	28
871.47	34
872.624	33
873.778	35
874.931	34
876.084	33
877.237	30
878.39	35
879.543	28
880.695	34
881.846	34
882.999	34
884.151	33
885.302	35
886.454	29
887.606	34
888.757	28
889.908	26
891.059	30
892.21	30
893.359	34
894.509	34
895.659	27
896.81	34
897.959	24
899.109	36
900.257	25
901.407	28
902.556	35
903.705	32
904.854	30
906.001	31
907.149	29
908.298	30
909.446	31
910.592	32
911.74	24
912.888	28
914.034	33
915.181	30
916.328	30
917.473	26
918.62	33
919.766	28
920.911	31
922.058	32
923.204	32
924.348	32
925.494	34
926.638	32
927.783	30
928.928	27
930.072	32
931.216	30
932.36	28
933.504	28
934.647	32
935.791	32
936.933	29
938.077	30
939.219	22
940.363	34
941.504	26
942.647	28
943.789	31
944.932	33
946.073	30
947.215	30
948.356	26
949.498	35
950.638	32
951.778	36
952.92	26
954.06	31
955.199	30
956.34	28
957.479	33
958.62	30
959.759	32
960.898	32
962.038	26
963.176	28
964.315	32
965.453	28
966.592	27
967.73	32
968.867	30
970.006	32
971.144	34
972.281	32
973.418	29
974.554	32
975.692	29
976.829	28
977.965	31
979.101	29
980.237	32
981.374	34
982.509	37
983.645	32
984.78	28
985.915	26
987.05	28
988.184	28
989.319	25
990.453	32
991.589	28
992.722	22
993.856	28
994.99	32
996.123	33
997.257	20
998.39	28
999.523	34
1000.66	28
1001.79	28
1002.92	28
1004.05	35
1005.18	30
1006.32	31
1007.45	34
1008.58	32
1009.71	34
1010.84	28
1011.97	31
1013.1	30
1014.23	32
1015.36	38
1016.49	24
1017.62	31
1018.75	31
1019.88	26
1021.01	31
1022.14	32
1023.27	28
1024.4	31
1025.53	34
1026.66	32
1027.79	32
1028.91	30
1030.04	32
1031.17	29
1032.3	27
1033.42	35
1034.55	26
1035.68	32
1036.81	30
1037.93	28
1039.06	28
1040.18	30
1041.31	30
1042.44	33
1043.56	29
1044.69	28
1045.81	31
1046.94	28
1048.06	31
1049.19	31
1050.31	30
1051.44	27
1052.56	33
1053.69	30
1054.81	30
1055.93	26
1057.06	29
1058.18	30
1059.3	27
1060.43	26
1061.55	28
1062.67	26
1063.79	26
1064.92	26
1066.04	30
1067.16	32
1068.28	30
1069.4	35
1070.52	31
1071.65	26
1072.77	30
1073.89	28
1075.01	24
1076.13	30
1077.25	28
1078.37	33
1079.49	28
1080.61	34
1081.73	32
1082.85	29
1083.97	28
1085.09	32
1086.2	26
1087.32	24
1088.44	29
1089.56	33
1090.68	32
1091.8	33
1092.91	22
1094.03	31
1095.15	35
1096.26	31
1097.38	28
1098.5	26
1099.61	31
1100.73	28
1101.85	30
1102.96	30
1104.08	28
1105.19	28
1106.31	28
1107.43	33
1108.54	28
1109.66	32
1110.77	28
1111.88	27
1113	32
1114.11	32
1115.23	22
1116.34	32
1117.46	28
1118.57	29
1119.68	30
1120.8	30
1121.91	22
1123.02	29
1124.13	30
1125.25	31
1126.36	32
1127.47	23
1128.58	34
1129.69	25
1130.8	30
1131.92	26
1133.03	27
1134.14	23
1135.25	32
1136.36	28
1137.47	30
1138.58	24
1139.69	28
1140.8	30
1141.91	27
1143.02	20
1144.13	26
1145.24	28
1146.35	32
1147.46	29
1148.56	28
1149.67	33
1150.78	24
1151.89	28
1153	28
1154.1	28
1155.21	30
1156.32	28
1157.43	32
1158.53	34
1159.64	30
1160.75	28
1161.85	22
1162.96	35
1164.07	24
1165.17	33
1166.28	29
1167.38	31
1168.49	30
1169.59	27
1170.7	32
1171.8	30
1172.91	28
1174.01	28
1175.12	29
1176.22	32
1177.32	28
1178.43	29
1179.53	28
1180.64	30
1181.74	26
1182.84	24
1183.94	29
1185.05	31
1186.15	34
1187.25	26
1188.35	28
1189.46	29
1190.56	24
1191.66	31
1192.76	28
1193.86	28
1194.96	32
1196.06	28.0049
1197.16	30.9291
1198.26	30.8559
1199.37	29.958
1200.47	24.236
1201.57	28.8285
1202.67	28.0555
1203.77	26.2783
1204.86	27.0443
1205.96	29.9119
1207.06	24.4028
1208.16	27.5413
1209.26	23.9431
1210.36	25.6661
1211.46	30.0066
1212.56	18.9886
1213.65	25.5944
1214.75	25.6569
1215.85	27.1867
1216.95	29.3033
1218.04	27.2218
1219.14	25.7048
1220.24	28.1499
1221.33	27.7509
1222.43	26.0436
1223.53	26.7006
1224.62	26.4039
1225.72	28.342
1226.82	29.8365
1227.91	25.7159
1229.01	28.299
1230.1	29.3005
1231.2	23.5399
1232.29	25.4453
1233.39	24.9367
1234.48	27.3039
1235.58	24.8637
1236.67	24.7892
1237.77	28.0236
1238.86	25.7412
1239.95	30.6054
1241.05	26
1242.14	26.8594
1243.23	22.6361
1244.33	27.0591
1245.42	26.1117
1246.51	28.3388
1247.61	29.4361
1248.7	27.5312
1249.79	27.6765
1250.88	26.9958
1251.97	27.5334
1253.07	28.3752
1254.16	24.9331
1255.25	30.5531
1256.34	30.5034
1257.43	29.0585
1258.52	28.6667
1259.61	25.0345
1260.7	29.1673
1261.79	27.4102
1262.88	31.1838
1263.97	28.5022
1265.06	31.4165
1266.15	28.3676
1267.24	28.7157
1268.33	25.2157
1269.42	26.9977
1270.51	27.638
1271.6	28.9599
1272.68	29.7015
1273.77	28.9737
1274.86	27.2642
1275.95	27.4349
1277.04	26.7266
1278.12	26.4054
1279.21	26.3074
1280.3	30.3109
1281.39	28.4608
1282.47	27.9935
1283.56	30.7502
1284.65	28.5167
1285.73	27.4178
1286.82	29.0896
1287.91	25.3137
1288.99	26.9706
1290.08	25.8287
1291.16	22.432
1292.25	27.6377
1293.33	24.4751
1294.42	28.8565
1295.5	27.0694
1296.59	24.9106
1297.67	27.3428
1298.76	25.3364
1299.84	24.8577
1300.92	29.957
1302.01	29.1921
1303.09	31.4045
1304.17	28.0862
1305.26	29.0078
1306.34	29.8932
1307.34	29
1308.43	24
1309.52	27
1310.61	24
1311.7	28
1312.78	24
1313.87	28
1314.96	25
1316.04	28
1317.13	26
1318.22	25
1319.3	26
1320.39	26
1321.48	24
1322.56	32
1323.65	28
1324.73	29
1325.82	31
1326.9	24
1327.99	27
1329.07	28
1330.16	20
1331.24	27
1332.33	26
1333.41	31
1334.5	20
1335.58	27
1336.66	27
1337.75	34
1338.83	35
1339.91	29
1341	29
1342.08	25
1343.16	31
1344.24	30
1345.33	33
1346.41	27
1347.49	25
1348.57	28
1349.65	26
1350.74	26
1351.82	30
1352.9	26
1353.98	31
1355.06	32
1356.14	29
1357.22	22
1358.3	24
1359.38	33
1360.46	26
1361.54	27
1362.62	25
1363.7	27
1364.78	26
1365.86	26
1366.94	25
1368.02	32
1369.09	31
1370.17	27
1371.25	30
1372.33	26
1373.41	31
1374.48	29
1375.56	28
1376.64	27
1377.72	30
1378.79	32
1379.87	24
1380.95	28
1382.02	33
1383.1	29
1384.17	28
1385.25	27
1386.33	30
1387.4	27
1388.48	30
1389.55	31
1390.63	29
1391.7	27
1392.78	28
1393.85	25
1394.93	28
1396	24
1397.07	30
1398.15	32
1399.22	28
1400.3	29
1401.37	26
1402.44	25
1403.52	28
1404.59	32
1405.66	28
1406.73	35
1407.81	30
1408.88	30
1409.95	32
1411.02	29
1412.09	37
1413.17	34
1414.24	30
1415.31	32
1416.38	39
1417.45	32
1418.52	30
1419.59	31
1420.66	30
1421.73	32
1422.8	32
1423.87	25
1424.94	32
1426.01	28
1427.08	29
1428.15	30
1429.22	33
1430.29	33
1431.35	34
1432.42	18
1433.49	26
1434.56	24
1435.63	30
1436.69	30
1437.76	30
1438.83	24
1439.9	28
1440.96	28
1442.03	30
1443.1	32
1444.17	29
1445.23	29
1446.3	28
1447.36	25
1448.43	29
1449.49	29
1450.56	28
1451.63	25
1452.69	29
1453.76	34
1454.82	31
1455.89	30
1456.95	28
1458.01	30
1459.08	29
1460.14	28
1461.21	28
1462.27	28
1463.34	28
1464.4	29
1465.46	30
1466.52	32
1467.59	28
1468.65	29
1469.71	29
1470.77	26
1471.84	28
1472.9	26
1473.96	28
1475.02	29
1476.08	34
1477.15	29
1478.21	28
1479.27	28
1480.33	29
1481.39	29
1482.45	20
1483.51	28
1484.57	24
1485.63	26
1486.69	29
1487.75	27
1488.81	24
1489.87	24
1490.93	30
1491.99	22
1493.05	32
1494.1	26
1495.16	26
1496.22	28
1497.28	29
1498.34	28
1499.4	28
1500.45	30
1501.51	30
1502.57	26
1503.63	26
1504.68	28
1505.74	30
1506.8	28
1507.85	29
1508.91	28
1509.97	28
1511.02	28
1512.08	24
1513.13	28
1514.19	31
1515.24	32
1516.3	29
1517.35	24
1518.41	24
1519.46	28
1520.52	24
1521.57	26
1522.63	30
1523.68	32
1524.73	18
1525.79	28
1526.84	28
1527.9	34
1528.95	26
1530	28
1531.05	26
1532.11	28
1533.16	30
1534.21	27
1535.26	26
1536.32	27
1537.37	29
1538.42	30
1539.47	30
1540.52	25
1541.57	28
1542.63	26
1543.68	26
1544.73	26
1545.78	31
1546.83	30
1547.88	22
1548.93	28
1549.98	30
1551.03	27
1552.08	31
1553.13	27
1554.18	31
1555.23	28
1556.27	26
1557.32	33
1558.37	22
1559.42	30
1560.47	27
1561.52	35
1562.56	30
1563.61	34
1564.66	30
1565.71	26
1566.75	33
1567.8	30
1568.85	30
1569.9	30
1570.94	24
1571.99	30
1573.03	30
1574.08	29
1575.13	29
1576.17	25
1577.22	27
1578.26	31
1579.31	28
1580.35	26
1581.4	26
1582.44	28
1583.49	26
1584.53	24
1585.58	30
1586.62	29
1587.66	26
1588.71	27
1589.75	26
1590.8	27
1591.84	30
1592.88	28
1593.92	29
1594.97	27
1596.01	25
1597.05	31
1598.1	26
1599.14	22
1600.18	32
1601.22	28
1602.26	24
1603.3	29
1604.35	26
1605.39	31
1606.43	28
1607.47	24
1608.51	24
1609.55	26
1610.59	28
1611.63	25
1612.67	28
1613.71	30
1614.75	27
1615.79	27
1616.83	28
1617.87	31
1618.91	32
1619.95	29
1620.99	30
1622.02	30
1623.06	28
1624.1	22
1625.14	31
1626.18	28
1627.21	27
1628.25	27
1629.29	24
1630.33	30
1631.36	35
1632.4	28
1633.44	30
1634.48	31
1635.51	34
1636.55	27
1637.58	29
1638.62	20
1639.66	30
1640.69	30
1641.73	28
1642.76	26
1643.8	28
1644.83	28
1645.87	26
1646.9	26
1647.94	27
1648.97	27
1650	28
1651.04	28
1652.07	26
1653.11	28
1654.14	27
1655.17	28
1656.21	24
1657.24	27
1658.27	22
1659.31	32
1660.34	26
1661.37	28
1662.4	24
1663.43	22
1664.47	31
1665.5	26
1666.53	27
1667.56	28
1668.59	30
1669.62	28
1670.66	26
1671.69	21
1672.72	32
1673.75	26
1674.78	31
1675.81	27
1676.84	22
1677.87	28
1678.9	28
1679.93	24
1680.96	32
1681.98	28
1683.01	32
1684.04	30
1685.07	30
1686.1	28
1687.13	32
1688.16	28
1689.18	32
1690.21	22
1691.24	26
1692.27	27
1693.3	30
1694.32	29
1695.35	30
1696.38	30
1697.4	27
1698.43	34
1699.46	30
1700.48	25
1701.51	29
1702.54	32
1703.56	32
1704.59	28
1705.61	29
1706.64	26
1707.66	28
1708.69	27
1709.71	27
1710.74	31
1711.76	32
1712.79	28
1713.81	30
1714.83	20
1715.86	32
1716.88	29
1717.91	26
1718.93	34
1719.95	25
1720.98	31
1722	25
1723.02	32
1724.04	28
1725.07	28
1726.09	27
1727.11	28
1728.13	28
1729.15	27
1730.18	28
1731.2	28
1732.22	27
1733.24	28
1734.26	26
1735.28	27
1736.3	32
1737.32	28
1738.34	32
1739.36	29
1740.38	28
1741.4	27
1742.42	32
1743.44	26
1744.46	26
1745.48	28
1746.5	22
1747.52	31
1748.54	36
1749.56	32
1750.58	36
1751.6	25
1752.61	26
1753.63	33
1754.65	30
1755.67	28
1756.68	32
1757.7	28
1758.72	32
1759.74	30
1760.75	33
1761.77	31
1762.79	29
1763.8	28
1764.82	30
1765.83	22
1766.85	26
1767.87	32
1768.88	28
1769.9	31
1770.91	28
1771.93	20
1772.94	27
1773.96	29
1774.97	28
1775.99	29
1777	26
1778.02	30
1779.03	24
1780.04	28
1781.06	31
1782.07	28
1783.09	31
1784.1	26
1785.11	26
1786.13	24
1787.14	28
1788.15	32
1789.16	30
1790.18	35
1791.19	28
1792.2	29
1793.21	29
1794.22	24
1795.23	24
1796.25	29
1797.26	24
1798.27	29
1799.28	30
1800.29	26
1801.3	28
1802.31	26
1803.32	28
1804.33	27
1805.34	28
1806.35	30
1807.36	28
1808.37	28
1809.38	27
1810.39	27
1811.4	24
1812.41	30
1813.42	33
1814.42	29
1815.43	22
1816.44	31
1817.45	28
1818.46	26
1819.47	30
1820.47	24
1821.48	34
1822.49	25
1823.49	27
1824.5	24
1825.51	28
1826.52	26
1827.52	26
1828.53	28
1829.53	25
1830.54	26
1831.55	26
1832.55	27
1833.56	27
1834.56	28
1835.57	25
1836.57	29
1837.58	25
1838.58	30
1839.59	28
1840.59	26
1841.6	22
1842.6	28
1843.61	30
1844.61	24
1845.61	29
1846.62	32
1847.62	26
1848.62	27
1849.63	25
1850.63	32
1851.63	32
1852.64	28
1853.64	30
1854.64	33
1855.64	31
1856.64	32
1857.65	29
1858.65	24
1859.65	29
1860.65	30
1861.65	26
1862.65	29
1863.65	24
1864.66	33
1865.66	27
1866.66	24
1867.66	28
1868.66	28
1869.66	28
1870.66	30
1871.66	31
1872.66	35
1873.66	26
1874.66	30
1875.65	26
1876.65	26
1877.65	28
1878.65	20
1879.65	28
1880.65	29
1881.65	24
1882.64	26
1883.64	32
1884.64	26
1885.64	29
1886.63	29
1887.63	29
1888.63	28
1889.63	30
1890.62	28
1891.62	29
1892.62	22
1893.61	31
1894.61	29
1895.6	28
1896.6	27
1897.6	27
1898.59	24
1899.59	24
1900.58	30
1901.58	26
1902.57	27
1903.57	24
1904.56	30
1905.56	30
1906.55	26
1907.54	26
1908.54	27
1909.53	32
1910.53	27
1911.52	29
1912.51	24
1913.51	26
1914.5	24
1915.49	26
1916.49	28
1917.48	30
1918.47	30
1919.46	24
1920.46	25
1921.45	33
1922.44	29
1923.43	29
1924.42	26
1925.41	21
1926.41	29
1927.4	27
1928.39	27
1929.38	26
1930.37	27
1931.36	26
1932.35	24
1933.34	24
1934.33	22
1935.32	26
1936.31	27
1937.3	26
1938.29	33
1939.28	29
1940.27	28
1941.26	28
1942.24	27
1943.23	28
1944.22	24
1945.21	25
1946.2	28
1947.19	23
1948.17	30
1949.16	27
1950.15	27
1951.14	24
1952.12	28
1953.11	29
1954.1	29
1955.09	29
1956.07	23
1957.06	27
1958.05	27
1959.03	32
1960.02	30
1961	24
1961.99	22
1962.98	28
1963.96	27
1964.95	26
1965.93	22
1966.92	26
1967.9	29
1968.89	28
1969.87	26
1970.85	32
1971.84	29
1972.82	27
1973.81	31
1974.79	28
1975.78	27
1976.76	28
1977.74	30
1978.73	29
1979.71	27
1980.69	30
1981.67	25
1982.66	30
1983.64	26
1984.62	24
1985.6	26
1986.59	27
1987.57	29
1988.55	30
1989.53	28
1990.51	29
1991.49	22
1992.47	28
1993.45	30
1994.44	26
1995.42	30
1996.4	25
1997.38	27
1998.36	31
1999.34	29
2000.32	24
2001.3	29
2002.28	30
2003.26	28
2004.24	25
2005.22	25
2006.19	31
2007.17	26
2008.15	31
2009.13	26
2010.11	27
2011.09	31
2012.06	24
2013.04	26
2014.02	29
2015	30
2015.98	22
2016.95	23
2017.93	20
2018.91	28
2019.88	26
2020.86	24
2021.84	30
2022.81	25
2023.79	26
2024.77	30
2025.74	25
2026.72	23
2027.69	28
2028.67	30
2029.65	30
2030.62	28
2031.6	32
2032.57	30
2033.55	26
2034.52	22
2035.5	29
2036.47	28
2037.44	28
2038.42	27
2039.39	31
2040.36	22
2041.34	29
2042.31	24
2043.29	26
2044.26	29
2045.23	22
2046.2	29
2047.18	22
2048.15	27
2049.12	28
2050.09	32
2051.07	30
2052.04	29
2053.01	24
2053.98	30
2054.95	22
2055.93	24
2056.9	20
2057.87	25
2058.84	26
2059.81	28
2060.78	26
2061.75	32
2062.72	26
2063.69	23
2064.66	26
2065.63	29
2066.6	31
2067.57	30
2068.54	22
2069.51	26
2070.48	29
2071.45	26
2072.42	24
2073.38	25
2074.35	27
2075.32	30
2076.29	30
2077.26	14
2078.23	25
2079.19	26
2080.16	26
2081.13	29
2082.1	24
2083.06	25
2084.03	22
2085	29
2085.96	26
2086.93	28
2087.9	30
2088.86	29
2089.83	30
2090.8	30
2091.76	24
2092.73	28
2093.69	27
2094.66	32
2095.62	23
2096.59	24
2097.55	25
2098.52	26
2099.48	24
2100.45	26
2101.41	27
2102.38	27
2103.34	28
2104.31	27
2105.27	30
2106.23	22
2107.2	25
2108.16	22
2109.12	25
2110.09	29
2111.05	28
2112.01	22
2112.98	26
2113.94	28
2114.9	28
2115.86	26
2116.82	22
2117.79	28
2118.75	31
2119.71	20
2120.67	30
2121.63	26
2122.59	30
2123.55	26
2124.52	26
2125.48	31
2126.44	30
2127.4	22
2128.36	28
2129.32	27
2130.28	22
2131.24	28
2132.2	22
2133.16	22
2134.12	25
2135.08	27
2136.04	27
2136.99	26
2137.95	26
2138.91	26
2139.87	23
2140.83	27
2141.79	22
2142.75	30
2143.7	32
2144.66	24
2145.62	24.0222
2146.58	29.9144
2147.53	26.9922
2148.49	22.3893
2149.45	24.0815
2150.41	26.8421
2151.36	28.7451
2152.32	27.7838
2153.27	28.7454
2154.23	25.0048
2155.19	22.4118
2156.14	20.6811
2157.1	27.8775
2158.06	27.8717
2159.01	28.8578
2159.97	27.1584
2160.92	29.9876
2161.88	26.655
2162.83	27.2756
2163.79	24.1912
2164.74	25.999
2165.7	20.012
2166.65	25.7637
2167.61	23.7789
2168.56	27.2675
2169.51	28
2170.47	24.5107
2171.42	27.9324
2172.38	29.3235
2173.33	26.2605
2174.28	26.0163
2175.24	22.6549
2176.19	27.4925
2177.14	24.5651
2178.09	27.0462
2179.05	29.177
2180	25.0167
2180.95	25.2312
2181.9	26.8915
2182.86	27.3483
2183.81	25.7284
2184.76	21.6722
2185.71	25.105
2186.66	26.0515
2187.61	26.7803
2188.57	23.3019
2189.52	25.2385
2190.47	25.5368
2191.42	24.8114
2192.37	28.4706
2193.32	25.9031
2194.27	27.1539
2195.22	26.1129
2196.17	25.9429
2197.12	24.3446
2198.07	25.445
2199.02	25.9915
2199.97	25.3837
2200.92	25.2389
2201.87	26.4584
2202.82	24.4942
2203.76	25.4235
2204.71	24.1065
2205.66	26.1324
2206.61	25.1203
2207.56	24.8828
2208.51	25.5342
2209.45	24.6747
2210.4	25.8371
2211.35	25.2776
2212.3	25.0254
2213.24	25.0303
2214.19	24.5024
2215.14	24.6833
2216.09	25.2566
2217.03	23.6428
2217.98	23.9675
2218.93	23.666
2219.87	23.2294
2220.82	23.9817
2221.77	24.6324
2222.71	24.402
2223.66	23.4766
2224.6	24.5748
2225.55	25.6843
2226.49	26.059
2227.44	24.0442
2228.38	23.2609
2229.33	27.9244
2230.27	28.2066
2231.22	26.7586
2232.16	24.5819
2233.11	25.5094
2234.05	25.4305
2235	26.4163
2235.94	28.3175
2236.88	25.8642
2237.83	24.1765
2238.77	27.5492
2239.71	27.6023
2240.66	24.848
2241.6	26.8876
2242	29
2242.95	26
2243.9	29
2244.84	27
2245.79	27
2246.74	26
2247.69	24
2248.63	27
2249.58	29
2250.53	26
2251.47	26
2252.42	23
2253.37	26
2254.31	26
2255.26	27
2256.2	24
2257.15	23
2258.1	25
2259.04	18
2259.99	29
2260.93	31
2261.88	28
2262.82	26
2263.77	27
2264.71	26
2265.65	23
2266.6	20
2267.54	25
2268.49	24
2269.43	29
2270.38	26
2271.32	27
2272.26	24
2273.21	30
2274.15	29
2275.09	25
2276.04	24
2276.98	24
2277.92	28
2278.86	26
2279.81	27
2280.75	30
2281.69	29
2282.63	24
2283.57	25
2284.52	26
2285.46	22
2286.4	22
2287.34	22
2288.28	22
2289.22	22
2290.16	18
2291.1	26
2292.04	26
2292.98	24
2293.93	28
2294.86	24
2295.8	28
2296.74	23
2297.69	26
2298.62	26
2299.56	26
2300.5	24
2301.44	27
2302.38	27
2303.32	29
2304.26	27
2305.2	24
2306.14	18
2307.07	22
2308.01	24
2308.95	30
2309.89	29
2310.83	26
2311.76	24
2312.7	32
2313.64	23
2314.58	26
2315.51	24
2316.45	30
2317.39	24
2318.32	28
2319.26	28
2320.2	30
2321.13	26
2322.07	23
2323	31
2323.94	27
2324.88	21
2325.81	28
2326.75	22
2327.68	24
2328.62	24
2329.55	27
2330.49	25
2331.42	30
2332.36	28
2333.29	24
2334.22	28
2335.16	25
2336.09	33
2337.03	30
2337.96	26
2338.89	22
2339.83	28
2340.76	26
2341.69	24
2342.63	24
2343.56	31
2344.49	26
2345.43	22
2346.36	28
2347.29	26
2348.22	23
2349.15	28
2350.09	28
2351.02	28
2351.95	24
2352.88	26
2353.81	26
2354.74	22
2355.67	32
2356.61	30
2357.54	30
2358.47	26
2359.4	26
2360.33	27
2361.26	28
2362.19	28
2363.12	33
2364.05	26
2364.98	28
2365.91	27
2366.84	24
2367.77	27
2368.7	30
2369.62	29
2370.55	22
2371.48	25
2372.41	28
2373.34	30
2374.27	28
2375.2	24
2376.12	26
2377.05	30
2377.98	27
2378.91	27
2379.83	27
2380.76	26
2381.69	30
2382.62	26
2383.54	29
2384.47	29
2385.4	31
2386.32	28
2387.25	26
2388.18	29
2389.1	26
2390.03	22
2390.95	23
2391.88	25
2392.81	27
2393.73	26
2394.66	26
2395.58	28
2396.51	27
2397.43	30
2398.36	26
2399.28	28
2400.2	31
2401.13	26
2402.05	28
2402.98	29
2403.9	25
2404.83	25
2405.75	25
2406.67	29
2407.6	28
2408.52	24
2409.44	30
2410.37	26
2411.29	24
2412.21	30
2413.13	29
2414.06	23
2414.98	25
2415.9	32
2416.82	23
2417.74	22
2418.67	28
2419.59	31
2420.51	22
2421.43	30
2422.35	23
2423.27	26
2424.19	27
2425.11	28
2426.03	30
2426.96	28
2427.88	24
2428.8	25
2429.72	24
2430.64	28
2431.56	26
2432.48	28
2433.39	20
2434.31	30
2435.23	26
2436.15	23
2437.07	20
2437.99	25
2438.91	31
2439.83	34
2440.75	24
2441.67	27
2442.58	27
2443.5	26
2444.42	24
2445.34	28
2446.26	28
2447.17	30
2448.09	22
2449.01	27
2449.92	29
2450.84	29
2451.76	23
2452.68	26
2453.59	23
2454.51	26
2455.42	30
2456.34	32
2457.26	27
2458.17	25
2459.09	23
2460	25
2460.92	27
2461.83	22
2462.75	26
2463.66	28
2464.58	20
2465.49	31
2466.41	24
2467.32	24
2468.24	30
2469.15	30
2470.07	28
2470.98	27
2471.89	33
2472.81	28
2473.72	22
2474.64	29
2475.55	24
2476.46	27
2477.37	30
2478.29	22
2479.2	30
2480.11	26
2481.03	25
2481.94	20
2482.85	34
2483.76	24
2484.67	28
2485.59	22
2486.5	26
2487.41	24
2488.32	25
2489.23	26
2490.14	29
2491.05	16
2491.97	26
2492.88	26
2493.79	26
2494.7	30
2495.61	26
2496.52	28
2497.43	22
2498.34	27
2499.25	26
2500.16	26
2501.07	28
2501.98	29
2502.89	26
2503.79	28
2504.7	30
2505.61	26
2506.52	29
2507.43	24
2508.34	28
2509.25	27
2510.16	30
2511.06	27
2511.97	34
2512.88	26
2513.79	30
2514.69	30
2515.6	26
2516.51	25
2517.42	31
2518.32	30
2519.23	26
2520.14	28
2521.04	29
2521.95	29
2522.86	22
2523.76	26
2524.67	28
2525.57	26
2526.48	24
2527.39	31
2528.29	27
2529.2	28
2530.1	29
2531.01	28
2531.91	28
2532.82	26
2533.72	23
2534.63	28
2535.53	28
2536.44	26
2537.34	24
2538.24	27
2539.15	34
2540.05	28
2540.96	32
2541.86	28
2542.76	25
2543.67	25
2544.57	27
2545.47	25
2546.37	26
2547.28	29
2548.18	26
2549.08	30
2549.99	27
2550.89	26
2551.79	24
2552.69	31
2553.59	30
2554.49	26
2555.4	34
2556.3	28
2557.2	28
2558.1	31
2559	18
2559.9	24
2560.8	28
2561.7	29
2562.6	31
2563.5	30
2564.4	22
2565.3	28
2566.2	29
2567.1	26
2568	28
2568.9	26
2569.8	26
2570.7	26
2571.6	25
2572.5	27
2573.4	23
2574.3	34
2575.2	28
2576.1	24
2576.99	25
2577.89	22
2578.79	26
2579.69	28
2580.59	24
2581.48	26
2582.38	30
2583.28	29
2584.18	24
2585.07	26
2585.97	26
2586.87	25
2587.76	30
2588.66	28
2589.56	30
2590.45	27
2591.35	26
2592.25	27
2593.14	28
2594.04	32
2594.93	22
2595.83	33
2596.73	27
2597.62	26
2598.52	29
2599.41	25
2600.31	31
2601.2	26
2602.1	30
2602.99	26
2603.88	28
2604.78	22
2605.67	22
2606.57	27
2607.46	31
2608.35	29
2609.25	24
2610.14	26
2611.03	25
2611.93	30
2612.82	29
2613.71	28
2614.61	30
2615.5	27
2616.39	26
2617.29	26
2618.18	29
2619.07	26
2619.96	22
2620.85	24
2621.75	27
2622.64	25
2623.53	32
2624.42	25
2625.31	29
2626.2	26
2627.09	29
2627.98	22
2628.88	28
2629.77	26
2630.66	22
2631.55	27
2632.44	23
2633.33	29
2634.22	32
2635.11	28
2636	24
2636.89	30
2637.78	28
2638.66	27
2639.55	28
2640.44	24
2641.33	25
2642.22	32
2643.11	29
2644	26
2644.89	30
2645.78	27
2646.66	28
2647.55	27
2648.44	26
2649.33	29
2650.21	26
2651.1	30
2651.99	30
2652.88	29
2653.76	26
2654.65	26
2655.54	28
2656.42	30
2657.31	25
2658.2	27
2659.08	27
2659.97	31
2660.86	24
2661.74	25
2662.63	26
2663.51	29
2664.4	26
2665.29	26
2666.17	24
2667.06	27
2667.94	28
2668.83	27
2669.71	29
2670.6	27
2671.48	26
2672.36	30
2673.25	28
2674.13	23
2675.02	23
2675.9	29
2676.78	22
2677.67	26
2678.55	22
2679.43	22
2680.32	27
2681.2	30
2682.08	27
2682.97	28
2683.85	29
2684.73	28
2685.61	28
2686.5	28
2687.38	29
2688.26	22
2689.14	20
2690.03	28
2690.91	23
2691.79	26
2692.67	22
2693.55	24
2694.43	26
2695.31	29
2696.19	27
2697.08	29
2697.96	28
2698.84	30
2699.72	27
2700.6	29
2701.48	27
2702.36	25
2703.24	27
2704.12	24
2705	23
2705.88	28
2706.76	28
2707.64	29
2708.51	29
2709.39	20
2710.27	24
2711.15	30
2712.03	22
2712.91	22
2713.79	26
2714.67	29
2715.54	23
2716.42	28
2717.3	30
2718.18	29
2719.05	27
2719.93	28
2720.81	28
2721.69	31
2722.56	26
2723.44	22
2724.32	26
2725.19	27
2726.07	28
2726.95	26
2727.82	32
2728.7	27
2729.58	30
2730.45	30
2731.33	30
2732.2	23
2733.08	30
2733.95	22
2734.83	26
2735.7	30
2736.58	30
2737.45	32
2738.33	28
2739.2	28
2740.08	24
2740.95	23
2741.83	29
2742.7	27
2743.58	29
2744.45	28
2745.32	22
2746.2	29
2747.07	29
2747.94	26
2748.82	28
2749.69	31
2750.56	26
2751.44	26
2752.31	30
2753.18	32
2754.05	27
2754.93	30
2755.8	31
2756.67	30
2757.54	30
2758.42	30
2759.29	26
2760.16	28
2761.03	29
2761.9	28
2762.77	30
2763.64	25
2764.51	26
2765.38	22
2766.26	27
2767.13	26
2768	24
2768.87	26
2769.74	25
2770.61	31
2771.48	28
2772.35	25
2773.22	24
2774.09	24
2774.96	28
2775.83	29
2776.7	24
2777.56	26
2778.43	28
2779.3	32
2780.17	28
2781.04	25
2781.91	26
2782.78	34
2783.64	24
2784.51	26
2785.38	28
2786.25	27
2787.12	32
2787.98	26
2788.85	31
2789.72	26
2790.59	28
2791.45	28
2792.32	28
2793.19	29
2794.05	32
2794.92	32
2795.79	32
2796.65	29
2797.52	26
2798.38	29
2799.25	32
2800.12	26
2800.98	30
2801.85	26
2802.71	27
2803.58	28.5
2804.44	28
2805.31	26
2806.17	31
2807.04	25
2807.9	30
2808.77	23
2809.63	25
2810.5	30
2811.36	29
2812.22	33
2813.09	26
2813.95	30
2814.82	26
2815.68	29
2816.54	27
2817.41	25
2818.27	26
2819.13	26
2820	26
2820.86	24
2821.72	24
2822.58	27
2823.45	25
2824.31	27
2825.17	31
2826.03	30
2826.9	26
2827.76	24
2828.62	24
2829.48	27
2830.34	30
2831.2	26
2832.06	26
2832.92	27
2833.79	25
2834.65	26
2835.51	25
2836.37	26
2837.23	26
2838.09	30
2838.95	27
2839.81	31
2840.67	26
2841.53	29
2842.39	29
2843.25	31
2844.11	27
2844.97	29
2845.83	28
2846.68	27
2847.54	30
2848.4	26
2849.26	26
2850.12	29
2850.98	22
2851.84	27
2852.69	27
2853.55	27
2854.41	29
2855.27	24
2856.13	26
2856.98	30
2857.84	28
2858.7	26
2859.56	31
2860.41	27
2861.27	29
2862.13	27
2862.98	26
2863.84	30
2864.7	28
2865.55	33
2866.41	32
2867.27	31
2868.12	31
2868.98	26
2869.83	31
2870.69	31
2871.54	26
2872.4	28
2873.25	32
2874.11	28
2874.96	24
2875.82	26
2876.68	30
2877.53	30
2878.38	30
2879.24	32
2880.09	31
2880.95	32
2881.8	32
2882.65	31
2883.51	32
2884.36	34
2885.22	33
2886.07	36
2886.92	36
2887.77	32
2888.63	34
2889.48	38
2890.33	38
2891.19	37
2892.04	36
2892.89	44
2893.74	44
2894.6	46
2895.45	42
2896.3	43
2897.15	40
2898	51
2898.85	48
2899.71	46
2900.56	50
2901.41	52
2902.26	52
2903.11	58
2903.96	57
2904.81	56
2905.66	63
2906.51	61
2907.36	50
2908.21	60
2909.06	56
2909.91	63
2910.76	58
2911.61	55
2912.46	49
2913.31	53
2914.16	53
2915.01	47
2915.86	44
2916.71	40
2917.56	46
2918.41	40
2919.26	41
2920.1	40
2920.95	34
2921.8	30
2922.65	33
2923.5	40
2924.34	29
2925.19	28
2926.04	28
2926.89	35
2927.74	31
2928.58	32
2929.43	28
2930.28	30
2931.12	34
2931.97	26
2932.82	25
2933.66	27
2934.51	24
2935.36	33
2936.2	29
2937.05	30
2937.89	31
2938.74	25
2939.59	28
2940.43	24
2941.28	30
2942.12	24
2942.97	30
2943.81	27
2944.66	29
2945.5	26
2946.35	28
2947.19	28
2948.04	28
2948.88	32
2949.72	28
2950.57	27
2951.41	28
2952.26	32
2953.1	32
2953.94	30
2954.79	34
2955.63	26
2956.47	36
2957.32	36
2958.16	35
2959	30
2959.85	32
2960.69	35
2961.53	40
2962.37	39
2963.22	40
2964.06	38
2964.9	47
2965.74	44
2966.58	46
2967.42	45
2968.27	43
2969.11	40
2969.95	41
2970.79	40
2971.63	34
2972.47	35
2973.31	44
2974.15	31
2974.99	37
2975.83	33
2976.68	36
2977.52	40
2978.36	34
2979.2	30
2980.04	32
2980.88	27
2981.71	32
2982.55	33
2983.39	30
2984.23	33
2985.07	27
2985.91	29
2986.75	32
2987.59	28
2988.43	26
2989.27	30
2990.1	28
2990.94	29
2991.78	27
2992.62	28
2993.46	28
2994.3	22
2995.13	25
2995.97	29
2996.81	28
2997.64	24
2998.48	28
2999.32	28
