#Acq. time (s)=	3
#Accumulations=	3
#Range (cm-¹)=	100...3000
#Windows=	3
#Autofocus=	Off
#AutoExposure=	Off
#Spike filter=	Multiple accum.
#Delay time (s)=	0
#Binning=	1
#Readout mode=	Signal
#DeNoise=	Off
#ICS correction=	Off
#Dark correction=	Off
#Inst. Process=	Off
#Instrument=	LabRAM HR Evol
#Detector=	Syncerity OE
#Objective=	x100_VIS_LWD
#Grating=	600 (500nm)
#ND Filter=	25%
#Laser=	633nm_Edge
#Hole=	100.021
#Range=	Visible
#Project=	Bolus
#Sample=	B5
#Site=	stripside
#Title=	m01
#Remark=	
#Date=	03.11.2025 18:58
#Acquired=	03.11.2025 18:58:39
100.969	26
102.252	29
103.535	31
104.818	34
106.101	34
107.384	30
108.666	32
109.948	28
111.232	30
112.514	30
113.795	30
115.077	35
116.358	32
117.639	31
118.919	30
120.2	25
121.48	34
122.76	34
124.04	38
125.32	32
126.599	28
127.879	38
129.158	32
130.436	38
131.715	34
132.992	37
134.27	37
135.548	36
136.826	30
138.104	38
139.381	38
140.658	37
141.935	36
143.212	35
144.489	36
145.763	36
147.04	32
148.315	32
149.591	38
150.867	37
152.142	35
153.416	39
154.691	38
155.965	36
157.24	39
158.514	45
159.786	41
161.06	38
162.334	37
163.607	41
164.881	36
166.152	43
167.425	39
168.698	38
169.969	40
171.241	32
172.513	41
173.785	36
175.055	40
176.326	39
177.597	42
178.867	38
180.137	39
181.408	37
182.677	39
183.947	40
185.217	37
186.485	40
187.755	40
189.022	40
190.291	43
191.56	37
192.828	38
194.096	32
195.363	37
196.631	36
197.899	44
199.165	35
200.432	39
201.698	41
202.965	40
204.23	38
205.497	38
206.762	33
208.028	32
209.293	28
210.559	38
211.823	34
213.088	30
214.352	36
215.617	36
216.88	37
218.145	29
219.408	34
220.672	34
221.934	38
223.196	30
224.46	38
225.722	31
226.985	34
228.246	34
229.508	32
230.77	30
232.031	31
233.292	26
234.554	31
235.814	34
237.074	37
238.335	34
239.595	30
240.854	35
242.115	33
243.374	28
244.633	32
245.893	30
247.151	33
248.409	28
249.667	34
250.927	34
252.184	26
253.442	32
254.699	33
255.957	24
257.214	28
258.47	34
259.727	33
260.983	29
262.24	27
263.496	36
264.752	31
266.007	32
267.262	32
268.517	30
269.773	29
271.028	26
272.282	32
273.536	30
274.79	25
276.044	35
277.297	26
278.551	26
279.804	32
281.057	33
282.31	28
283.564	34
284.816	30
286.068	33
287.32	32
288.572	31
289.823	35
291.074	33
292.325	32
293.576	34
294.827	26
296.077	30
297.328	30
298.578	34
299.828	34
301.077	32
302.325	32
303.575	25
304.824	32
306.073	31
307.321	28
308.57	35
309.818	30
311.066	29
312.314	28
313.562	34
314.808	30
316.055	27
317.302	29
318.549	36
319.796	32
321.042	29
322.288	29
323.533	29
324.779	30
326.024	31
327.27	33
328.515	32
329.759	32
331.004	33
332.248	34
333.493	30
334.736	35
335.98	26
337.223	29
338.466	26
339.709	30
340.952	31
342.195	31
343.437	32
344.68	34
345.922	32
347.163	28
348.405	30
349.647	34
350.887	24
352.128	33
353.37	34
354.609	36
355.85	32
357.089	33
358.33	31
359.57	27
360.809	29
362.049	24
363.287	30
364.526	33
365.764	31
367.003	32
368.241	35
369.479	30
370.718	34
371.955	32
373.193	32
374.429	28
375.667	28
376.903	24
378.139	30
379.376	31
380.611	32
381.848	30
383.083	28
384.319	28
385.554	31
386.79	28
388.024	31
389.258	39
390.493	29
391.727	33
392.962	28
394.195	33
395.428	29
396.663	37
397.895	30
399.128	32
400.361	26
401.593	28
402.825	32
404.058	28
405.29	30
406.521	34
407.752	33
408.985	22
410.215	30
411.446	30
412.678	28
413.908	29
415.138	32
416.367	33
417.597	33
418.828	30
420.057	28
421.286	32
422.514	35
423.743	29
424.973	35
426.201	31
427.429	33
428.657	27
429.884	33
431.112	37
432.34	30
433.567	28
434.794	25
436.02	22
437.247	29
438.473	30
439.699	34
440.925	36
442.15	33
443.376	32
444.601	30
445.826	32
447.051	32
448.275	32
449.5	31
450.724	32
451.948	30
453.172	36
454.396	32
455.619	36
456.842	35
458.065	30
459.288	32
460.511	36
461.733	30
462.956	30
464.178	35
465.4	35
466.621	31
467.843	33
469.064	34
470.285	34
471.505	36
472.726	34
473.946	34
475.166	38
476.387	38
477.606	46
478.825	39
480.044	46
481.264	42
482.483	46
483.702	46
484.921	47
486.138	53
487.356	55
488.574	59
489.792	63
491.009	59
492.226	54
493.444	55
494.661	44
495.877	46
497.094	50
498.31	48
499.525	41
500.741	47
501.958	45
503.172	43
504.388	40
505.603	38
506.817	39
508.032	38
509.247	32
510.46	39
511.675	32
512.888	34
514.102	34
515.316	30
516.528	35
517.742	32
518.954	34
520.167	34
521.378	32
522.591	30
523.802	32
525.015	33
526.226	32
527.438	36
528.648	30
529.86	34
531.07	28
532.281	36
533.491	30
534.702	32
535.911	30
537.121	29
538.33	34
539.54	28
540.749	32
541.957	31
543.167	31
544.375	31
545.584	32
546.791	26
547.999	31
549.207	28
550.414	36
551.621	32
552.829	35
554.035	30
555.241	24
556.449	29
557.655	36
558.86	31
560.066	32
561.272	34
562.477	31
563.682	26
564.888	32
566.093	30
567.297	34
568.501	30
569.705	34
570.91	28
572.114	29
573.317	29
574.52	28
575.723	31
576.927	28
578.13	34
579.332	28
580.535	25
581.737	30
582.938	26
584.14	26
585.343	35
586.544	28
587.745	32
588.946	30
590.147	28
591.347	30
592.548	34
593.748	28
594.948	34
596.147	26
597.347	34
598.546	26
599.745	30
600.944	29
602.143	30
603.342	28
604.54	30
605.738	29
606.937	31
608.134	29
609.332	30
610.529	31
611.727	30
612.924	28
614.121	32
615.317	36
616.513	35
617.709	30
618.905	36
620.101	30
621.297	26
622.492	32
623.688	31
624.883	32
626.077	30
627.271	35
628.466	34
629.66	26
630.855	31
632.047	28
633.241	30
634.435	31
635.629	28
636.82	30
638.014	32
639.207	26
640.399	32
641.59	30
642.783	27
643.975	29
645.166	26
646.357	36
647.549	33
648.741	33
649.93	32
651.122	34
652.311	32
653.502	32
654.692	35
655.881	29
657.071	28
658.261	30
659.45	26
660.639	32
661.827	32
663.016	33
664.204	34
665.393	30
666.581	31
667.769	31
668.957	32
670.143	32
671.331	32
672.518	31
673.705	36
674.891	34
676.078	39
677.264	29
678.451	31
679.636	36
680.821	38
682.007	32
683.192	34
684.378	34
685.562	40
686.747	35
687.931	35
689.115	35
690.3	34
691.483	35
692.666	34
693.851	35
695.034	42
696.216	36
697.4	30
698.582	38
699.764	30
700.948	37
702.129	39
703.311	40
704.493	42
705.674	40
706.855	44
708.036	42
709.218	46
710.399	48
711.579	46
712.759	44
713.939	42
715.12	44
716.299	36
717.478	38
718.657	35
719.836	34
721.015	30
722.195	32
723.373	38
724.552	36
725.729	31
726.907	29
728.085	28
729.262	32
730.44	28
731.617	32
732.795	31
733.972	28
735.148	29
736.324	28
737.501	28
738.677	32
739.852	31
741.028	33
742.203	34
743.379	28
744.554	33
745.729	34
746.903	32
748.078	32
749.252	30
750.426	32
751.599	28
752.772	31
753.946	34
755.119	29
756.293	32
757.466	32
758.639	30
759.811	30
760.984	27
762.155	30
763.327	24
764.499	32
765.67	29
766.842	36
768.013	27
769.183	36
770.354	38
771.525	32
772.696	26
773.865	28
775.035	33
776.205	30
777.375	33
778.544	38
779.713	30
780.882	32
782.052	30
783.219	33
784.388	30
785.557	34
786.724	36
787.892	34
789.06	32
790.227	32
791.395	34
792.562	26
793.728	34
794.895	30
796.061	33
797.228	34
798.395	32
799.56	37
800.726	30
801.891	36
803.057	34
804.221	29
805.387	31
806.551	30
807.716	33
808.879	28
810.044	30
811.208	32
812.372	30
813.535	40
814.699	32
815.862	28
817.025	33
818.188	32
819.351	29
820.513	27
821.675	30
822.837	36
823.999	26
825.161	30
826.322	28
827.483	28
828.645	31
829.805	29
830.966	28
832.127	29
833.287	24
834.447	29
835.607	36
836.767	36
837.926	26
839.085	28
840.245	26
841.404	32
842.562	30
843.72	28
844.88	30
846.038	29
847.195	30
848.353	32
849.512	34
850.669	32
851.826	32
852.983	31
854.139	31
855.296	28
856.453	35
857.609	36
858.765	35
859.921	27
861.077	35
862.232	30
863.387	35
864.542	32
865.697	30
866.852	34
868.008	32
869.162	31
870.316	31
871.47	28
872.624	31
873.778	34
874.931	31
876.084	30
877.237	29
878.39	30
879.543	31
880.695	32
881.846	33
882.999	30
884.151	24
885.302	31
886.454	28
887.606	26
888.757	28
889.908	28
891.059	28
892.21	28
893.359	30
894.509	29
895.659	30
896.81	28
897.959	36
899.109	28
900.257	30
901.407	28
902.556	34
903.705	29
904.854	30
906.001	28
907.149	29
908.298	28
909.446	31
910.592	26
911.74	30
912.888	28
914.034	29
915.181	30
916.328	32
917.473	33
918.62	27
919.766	31
920.911	32
922.058	24
923.204	30
924.348	28
925.494	31
926.638	33
927.783	38
928.928	32
930.072	29
931.216	27
932.36	30
933.504	24
934.647	31
935.791	26
936.933	32
938.077	30
939.219	26
940.363	37
941.504	30
942.647	35
943.789	28
944.932	34
946.073	29
947.215	35
948.356	27
949.498	30
950.638	26
951.778	35
952.92	34
954.06	28
955.199	30
956.34	29
957.479	31
958.62	32
959.759	28
960.898	29
962.038	31
963.176	35
964.315	25
965.453	30
966.592	26
967.73	29
968.867	28
970.006	28
971.144	30.5
972.281	31
973.418	30
974.554	30
975.692	30
976.829	22
977.965	30
979.101	31
980.237	28
981.374	29
982.509	30
983.645	29
984.78	26
985.915	29
987.05	30
988.184	30
989.319	32
990.453	24
991.589	28
992.722	30
993.856	24
994.99	32
996.123	33
997.257	30
998.39	29
999.523	26
1000.66	30
1001.79	29
1002.92	24
1004.05	30
1005.18	33
1006.32	28
1007.45	30
1008.58	31
1009.71	26
1010.84	28
1011.97	28
1013.1	26
1014.23	31
1015.36	32
1016.49	30
1017.62	26
1018.75	33
1019.88	25
1021.01	26
1022.14	31
1023.27	32
1024.4	30
1025.53	28
1026.66	28
1027.79	28
1028.91	28
1030.04	27
1031.17	33
1032.3	29
1033.42	31
1034.55	28
1035.68	28
1036.81	26
1037.93	31
1039.06	28
1040.18	31
1041.31	29
1042.44	31
1043.56	27
1044.69	26
1045.81	30
1046.94	28
1048.06	24
1049.19	30
1050.31	25
1051.44	26
1052.56	25
1053.69	26
1054.81	28
1055.93	30
1057.06	31
1058.18	26
1059.3	30
1060.43	25
1061.55	30
1062.67	29
1063.79	29
1064.92	30
1066.04	32
1067.16	28
1068.28	28
1069.4	30
1070.52	26
1071.65	29
1072.77	28
1073.89	30
1075.01	30
1076.13	27
1077.25	22
1078.37	26
1079.49	34
1080.61	31
1081.73	32
1082.85	31
1083.97	22
1085.09	26
1086.2	26
1087.32	23
1088.44	28
1089.56	32
1090.68	31
1091.8	30
1092.91	25
1094.03	28
1095.15	28
1096.26	25
1097.38	26
1098.5	30
1099.61	28
1100.73	26
1101.85	30
1102.96	32
1104.08	30
1105.19	28
1106.31	27
1107.43	28
1108.54	27
1109.66	34
1110.77	26
1111.88	32
1113	28
1114.11	26
1115.23	29
1116.34	30
1117.46	24
1118.57	30
1119.68	26
1120.8	26
1121.91	31
1123.02	22
1124.13	28
1125.25	26
1126.36	27
1127.47	29
1128.58	28
1129.69	31
1130.8	27
1131.92	30
1133.03	26
1134.14	30
1135.25	33
1136.36	24
1137.47	31
1138.58	29
1139.69	32
1140.8	28
1141.91	30
1143.02	24
1144.13	27
1145.24	18
1146.35	28
1147.46	31
1148.56	26
1149.67	29
1150.78	30
1151.89	30
1153	28
1154.1	32
1155.21	30
1156.32	31
1157.43	36
1158.53	27
1159.64	32
1160.75	29
1161.85	28
1162.96	32
1164.07	31
1165.17	34
1166.28	26
1167.38	32
1168.49	29
1169.59	28
1170.7	28
1171.8	30
1172.91	28
1174.01	32
1175.12	26
1176.22	29
1177.32	25
1178.43	27
1179.53	31
1180.64	26
1181.74	27
1182.84	30
1183.94	24
1185.05	31
1186.15	32
1187.25	33
1188.35	22
1189.46	29
1190.56	28
1191.66	29
1192.76	22
1193.86	31
1194.96	28
1196.06	29
1197.16	28.0064
1198.26	27.9863
1199.37	29.9161
1200.47	24.1279
1201.57	29.8431
1202.67	29.6656
1203.77	28.6823
1204.86	27.9167
1205.96	26.9509
1207.06	26.9508
1208.16	28.6579
1209.26	26.6295
1210.36	26.0733
1211.46	27.355
1212.56	31.1656
1213.65	27.7516
1214.75	31.2343
1215.85	26.439
1216.95	26.4976
1218.04	29.1961
1219.14	29.2557
1220.24	25.1736
1221.33	26.8532
1222.43	29.061
1223.53	30.0632
1224.62	29.5373
1225.72	29.3966
1226.82	28.1935
1227.91	29.257
1229.01	29.0835
1230.1	28.5358
1231.2	23.9118
1232.29	28.27
1233.39	29.5622
1234.48	25.167
1235.58	22.5732
1236.67	26.6703
1237.77	25.8163
1238.86	27.31
1239.95	26.8376
1241.05	25.7451
1242.14	26.8906
1243.23	25.9693
1244.33	28.5673
1245.42	27.6037
1246.51	27.0498
1247.61	28.7631
1248.7	28.4061
1249.79	27.0294
1250.88	28.5021
1251.97	28.6488
1253.07	28.6572
1254.16	32.6404
1255.25	30.7754
1256.34	27.5849
1257.43	29.1024
1258.52	30.6912
1259.61	27.8716
1260.7	25.2521
1261.79	28.5188
1262.88	30.6029
1263.97	30.6127
1265.06	31.8009
1266.15	28.797
1267.24	30
1268.33	31.0441
1269.42	29.6618
1270.51	29.8337
1271.6	29.7215
1272.68	27.7544
1273.77	27.1225
1274.86	25.1313
1275.95	25.0128
1277.04	26.6903
1278.12	28.1055
1279.21	29.8436
1280.3	25.9491
1281.39	28.0959
1282.47	26.7331
1283.56	27.7118
1284.65	26.5431
1285.73	27.3139
1286.82	31.1376
1287.91	29.8359
1288.99	28.9585
1290.08	27.0221
1291.16	25.4314
1292.25	26.512
1293.33	27.6374
1294.42	26
1295.5	25.5547
1296.59	23.6881
1297.67	25.6819
1298.76	28.7593
1299.84	26.3382
1300.92	30.1939
1302.01	30.7463
1303.09	20.5531
1304.17	26.717
1305.26	24.1627
1306.34	26.1068
1307.34	27
1308.43	29
1309.52	24
1310.61	27
1311.7	30
1312.78	28
1313.87	28
1314.96	26
1316.04	29
1317.13	29
1318.22	22
1319.3	25
1320.39	24
1321.48	24
1322.56	26
1323.65	28
1324.73	31
1325.82	25
1326.9	32
1327.99	28
1329.07	28
1330.16	24
1331.24	24
1332.33	30
1333.41	28
1334.5	22
1335.58	28
1336.66	26
1337.75	28
1338.83	30
1339.91	26
1341	30
1342.08	29
1343.16	31
1344.24	33
1345.33	28
1346.41	29
1347.49	27
1348.57	29
1349.65	28
1350.74	30
1351.82	36
1352.9	23
1353.98	25
1355.06	28
1356.14	24
1357.22	28
1358.3	22
1359.38	29
1360.46	31
1361.54	26
1362.62	28
1363.7	31
1364.78	26
1365.86	30
1366.94	23
1368.02	22
1369.09	29
1370.17	26
1371.25	29
1372.33	27
1373.41	29
1374.48	24
1375.56	28
1376.64	28
1377.72	26
1378.79	21
1379.87	30
1380.95	29
1382.02	25
1383.1	28
1384.17	26
1385.25	28
1386.33	29
1387.4	25
1388.48	32
1389.55	24
1390.63	26
1391.7	22
1392.78	30
1393.85	28
1394.93	30
1396	32
1397.07	24
1398.15	30
1399.22	28
1400.3	32
1401.37	34
1402.44	24
1403.52	30
1404.59	32
1405.66	30
1406.73	30
1407.81	30
1408.88	31
1409.95	32
1411.02	32
1412.09	34
1413.17	35
1414.24	35
1415.31	33
1416.38	33
1417.45	30
1418.52	28
1419.59	34
1420.66	27
1421.73	33
1422.8	34
1423.87	36
1424.94	26
1426.01	33
1427.08	35
1428.15	30
1429.22	32
1430.29	30
1431.35	30
1432.42	30
1433.49	32
1434.56	33
1435.63	26
1436.69	30
1437.76	32
1438.83	29
1439.9	30
1440.96	28
1442.03	26
1443.1	24
1444.17	31
1445.23	28
1446.3	30
1447.36	33
1448.43	29
1449.49	32
1450.56	30
1451.63	26
1452.69	30
1453.76	26
1454.82	28
1455.89	24
1456.95	24
1458.01	27
1459.08	29
1460.14	30
1461.21	30
1462.27	30
1463.34	28
1464.4	16
1465.46	29
1466.52	26
1467.59	32
1468.65	28
1469.71	31
1470.77	25
1471.84	28
1472.9	28
1473.96	28
1475.02	29
1476.08	31
1477.15	24
1478.21	29
1479.27	30
1480.33	28
1481.39	29
1482.45	31
1483.51	29
1484.57	27
1485.63	29
1486.69	28
1487.75	33
1488.81	28
1489.87	31
1490.93	30
1491.99	27
1493.05	29
1494.1	30
1495.16	28
1496.22	28
1497.28	32
1498.34	30
1499.4	26
1500.45	32
1501.51	29
1502.57	28
1503.63	30
1504.68	29
1505.74	31
1506.8	28
1507.85	27
1508.91	30
1509.97	26
1511.02	24
1512.08	28
1513.13	30
1514.19	27
1515.24	26
1516.3	28
1517.35	32
1518.41	28
1519.46	28
1520.52	28
1521.57	27
1522.63	30
1523.68	24
1524.73	28
1525.79	32
1526.84	29
1527.9	28
1528.95	28
1530	32
1531.05	28
1532.11	28
1533.16	33
1534.21	28
1535.26	33
1536.32	31
1537.37	28
1538.42	29
1539.47	30
1540.52	24
1541.57	28
1542.63	24
1543.68	28
1544.73	34
1545.78	26
1546.83	26
1547.88	26
1548.93	23
1549.98	26
1551.03	30
1552.08	24
1553.13	32
1554.18	26
1555.23	26
1556.27	24
1557.32	31
1558.37	29
1559.42	24
1560.47	32
1561.52	36
1562.56	26
1563.61	31
1564.66	26
1565.71	24
1566.75	30
1567.8	29
1568.85	28
1569.9	36
1570.94	28
1571.99	26
1573.03	27
1574.08	29
1575.13	28
1576.17	29
1577.22	29
1578.26	30
1579.31	32
1580.35	28
1581.4	28
1582.44	30
1583.49	24
1584.53	30
1585.58	24
1586.62	27
1587.66	30
1588.71	32
1589.75	26
1590.8	27
1591.84	29
1592.88	29
1593.92	30
1594.97	26
1596.01	24
1597.05	32
1598.1	28
1599.14	25
1600.18	27
1601.22	30
1602.26	25
1603.3	28
1604.35	31
1605.39	29
1606.43	26
1607.47	30
1608.51	31
1609.55	33
1610.59	32
1611.63	33
1612.67	25
1613.71	28
1614.75	28
1615.79	26
1616.83	26
1617.87	27
1618.91	30
1619.95	32
1620.99	31
1622.02	26
1623.06	26
1624.1	26
1625.14	28
1626.18	27
1627.21	28
1628.25	30
1629.29	28
1630.33	36
1631.36	28
1632.4	29
1633.44	24
1634.48	30
1635.51	26
1636.55	30
1637.58	32
1638.62	26
1639.66	20
1640.69	26
1641.73	29
1642.76	28
1643.8	34
1644.83	26
1645.87	32
1646.9	28
1647.94	26
1648.97	26
1650	34
1651.04	31
1652.07	35
1653.11	32
1654.14	26
1655.17	32
1656.21	32
1657.24	26
1658.27	31
1659.31	28
1660.34	28
1661.37	26
1662.4	32
1663.43	29
1664.47	33
1665.5	26
1666.53	31
1667.56	30
1668.59	30
1669.62	28
1670.66	32
1671.69	24
1672.72	32
1673.75	32
1674.78	31
1675.81	28
1676.84	24
1677.87	30
1678.9	30
1679.93	22
1680.96	28
1681.98	26
1683.01	26
1684.04	28
1685.07	32
1686.1	32
1687.13	32
1688.16	28
1689.18	28
1690.21	30
1691.24	27
1692.27	30
1693.3	29
1694.32	29
1695.35	28
1696.38	30
1697.4	27
1698.43	26
1699.46	28
1700.48	28
1701.51	31
1702.54	28
1703.56	28
1704.59	24
1705.61	27
1706.64	31
1707.66	26
1708.69	31
1709.71	26
1710.74	27
1711.76	31
1712.79	24
1713.81	26
1714.83	30
1715.86	26
1716.88	28
1717.91	28
1718.93	29
1719.95	29
1720.98	31
1722	28
1723.02	28
1724.04	26
1725.07	32
1726.09	24
1727.11	30
1728.13	26
1729.15	30
1730.18	31
1731.2	27
1732.22	28
1733.24	28
1734.26	34
1735.28	29
1736.3	28
1737.32	29
1738.34	24
1739.36	24
1740.38	31
1741.4	30
1742.42	32
1743.44	35
1744.46	28
1745.48	28
1746.5	28
1747.52	30
1748.54	28
1749.56	27
1750.58	28
1751.6	30
1752.61	28
1753.63	20
1754.65	29
1755.67	27
1756.68	31
1757.7	28
1758.72	26
1759.74	26
1760.75	31
1761.77	30
1762.79	33
1763.8	29
1764.82	31
1765.83	28
1766.85	36
1767.87	24
1768.88	28
1769.9	26
1770.91	30
1771.93	27
1772.94	30
1773.96	30
1774.97	27
1775.99	30
1777	26
1778.02	26
1779.03	25
1780.04	32
1781.06	27
1782.07	30
1783.09	26
1784.1	30
1785.11	28
1786.13	31
1787.14	24
1788.15	34
1789.16	31
1790.18	29
1791.19	30
1792.2	26
1793.21	28
1794.22	31
1795.23	25
1796.25	26
1797.26	26
1798.27	28
1799.28	27
1800.29	24
1801.3	28
1802.31	26
1803.32	25
1804.33	29
1805.34	27
1806.35	27
1807.36	25
1808.37	28
1809.38	25
1810.39	35
1811.4	30
1812.41	27
1813.42	28
1814.42	24
1815.43	24
1816.44	26
1817.45	31
1818.46	26
1819.47	28
1820.47	32
1821.48	30
1822.49	28
1823.49	32
1824.5	26
1825.51	28
1826.52	33
1827.52	32
1828.53	30
1829.53	24
1830.54	29
1831.55	30
1832.55	28
1833.56	28
1834.56	27
1835.57	26
1836.57	30
1837.58	28
1838.58	32
1839.59	26
1840.59	24
1841.6	28
1842.6	29
1843.61	25
1844.61	28
1845.61	30
1846.62	29
1847.62	31
1848.62	30
1849.63	31
1850.63	30
1851.63	25
1852.64	27
1853.64	23
1854.64	34
1855.64	28
1856.64	28
1857.65	30
1858.65	30
1859.65	28
1860.65	30
1861.65	28
1862.65	22
1863.65	26
1864.66	28
1865.66	29
1866.66	26
1867.66	28
1868.66	26
1869.66	28
1870.66	27
1871.66	30
1872.66	30
1873.66	30
1874.66	30
1875.65	26
1876.65	23
1877.65	28
1878.65	33
1879.65	26
1880.65	30
1881.65	22
1882.64	24
1883.64	30
1884.64	30
1885.64	32
1886.63	25
1887.63	26
1888.63	28
1889.63	29
1890.62	26
1891.62	26
1892.62	24
1893.61	29
1894.61	22
1895.6	24
1896.6	28
1897.6	25
1898.59	32
1899.59	30
1900.58	24
1901.58	25
1902.57	28
1903.57	26
1904.56	30
1905.56	22
1906.55	29
1907.54	26
1908.54	32
1909.53	26
1910.53	32
1911.52	29
1912.51	28
1913.51	31
1914.5	24
1915.49	25
1916.49	29
1917.48	24
1918.47	28
1919.46	27
1920.46	31
1921.45	27
1922.44	29
1923.43	24
1924.42	26
1925.41	31
1926.41	30
1927.4	30
1928.39	30
1929.38	29
1930.37	24
1931.36	34
1932.35	29
1933.34	27
1934.33	24
1935.32	32
1936.31	30
1937.3	23
1938.29	29
1939.28	25
1940.27	32
1941.26	26
1942.24	28
1943.23	30
1944.22	29
1945.21	26
1946.2	20
1947.19	28
1948.17	26
1949.16	24
1950.15	26.5
1951.14	28
1952.12	30
1953.11	29
1954.1	23
1955.09	28
1956.07	28
1957.06	28
1958.05	25
1959.03	31
1960.02	31
1961	29
1961.99	30
1962.98	29
1963.96	29
1964.95	28
1965.93	24
1966.92	27
1967.9	27
1968.89	28
1969.87	24
1970.85	34
1971.84	28
1972.82	22
1973.81	26
1974.79	30
1975.78	22
1976.76	28
1977.74	31
1978.73	30
1979.71	24
1980.69	28
1981.67	26
1982.66	28
1983.64	30
1984.62	28
1985.6	24
1986.59	29
1987.57	22
1988.55	31
1989.53	30
1990.51	26
1991.49	24
1992.47	24
1993.45	26
1994.44	25
1995.42	28
1996.4	32
1997.38	24
1998.36	32
1999.34	26
2000.32	32
2001.3	32
2002.28	27
2003.26	28
2004.24	31
2005.22	27
2006.19	28
2007.17	18
2008.15	31
2009.13	25
2010.11	28
2011.09	26
2012.06	27
2013.04	31
2014.02	22
2015	26
2015.98	27
2016.95	32
2017.93	29
2018.91	16
2019.88	28
2020.86	28
2021.84	27
2022.81	24
2023.79	26
2024.77	32
2025.74	27
2026.72	27
2027.69	24
2028.67	25
2029.65	25
2030.62	24
2031.6	26
2032.57	24
2033.55	26
2034.52	26
2035.5	24
2036.47	27
2037.44	24
2038.42	29
2039.39	24
2040.36	29
2041.34	29
2042.31	29
2043.29	24
2044.26	26
2045.23	28
2046.2	26
2047.18	23
2048.15	25
2049.12	30
2050.09	26
2051.07	24
2052.04	28
2053.01	26
2053.98	26
2054.95	26
2055.93	24
2056.9	26
2057.87	28
2058.84	32
2059.81	25
2060.78	28
2061.75	28
2062.72	28
2063.69	23
2064.66	27
2065.63	28
2066.6	31
2067.57	27
2068.54	26
2069.51	26
2070.48	30
2071.45	32
2072.42	26
2073.38	24
2074.35	28
2075.32	22
2076.29	26
2077.26	18
2078.23	34
2079.19	27
2080.16	26
2081.13	26
2082.1	26
2083.06	18
2084.03	24
2085	28
2085.96	26
2086.93	26
2087.9	30
2088.86	26
2089.83	22
2090.8	24
2091.76	28
2092.73	29
2093.69	28
2094.66	28
2095.62	26
2096.59	26
2097.55	26
2098.52	30
2099.48	29
2100.45	29
2101.41	24
2102.38	32
2103.34	18
2104.31	28
2105.27	30
2106.23	28
2107.2	29
2108.16	25
2109.12	26
2110.09	30
2111.05	26
2112.01	24
2112.98	31
2113.94	28
2114.9	22
2115.86	29
2116.82	25
2117.79	28
2118.75	26
2119.71	27
2120.67	26
2121.63	25
2122.59	27
2123.55	24
2124.52	27
2125.48	24
2126.44	28
2127.4	25
2128.36	26
2129.32	25
2130.28	26
2131.24	25
2132.2	22
2133.16	24
2134.12	29
2135.08	26
2136.04	24
2136.99	24
2137.95	30
2138.91	31
2139.87	29
2140.83	22
2141.79	26
2142.75	26
2143.7	22
2144.66	22
2145.62	24
2146.58	24.008
2147.53	26.0855
2148.49	29.8165
2149.45	26.2173
2150.41	23.7071
2151.36	24.1317
2152.32	26.0558
2153.27	23.9213
2154.23	28.5295
2155.19	26.5835
2156.14	22.014
2157.1	27.6458
2158.06	24.5294
2159.01	23.696
2159.97	25.7058
2160.92	27.8333
2161.88	24.1734
2162.83	24.3627
2163.79	29.2353
2164.74	22.8028
2165.7	23.0439
2166.65	25.5682
2167.61	22.9123
2168.56	25.5315
2169.51	27
2170.47	22.5196
2171.42	26.1912
2172.38	26.8824
2173.33	27.9425
2174.28	24.0534
2175.24	24.3079
2176.19	29.1735
2177.14	26.7027
2178.09	24.4139
2179.05	24.0276
2180	29.1774
2180.95	24.2368
2181.9	24.6949
2182.86	27.2314
2183.81	27.0418
2184.76	27.2311
2185.71	25.2633
2186.66	29.3161
2187.61	23.5105
2188.57	25.8207
2189.52	27.8185
2190.47	24.137
2191.42	26.4622
2192.37	27.1177
2193.32	27.4951
2194.27	24.4716
2195.22	23.8847
2196.17	26.2465
2197.12	27.2235
2198.07	25.8525
2199.02	25.0043
2199.97	28.1814
2200.92	25.9326
2201.87	25.25
2202.82	27.099
2203.76	23.2451
2204.71	26.5547
2205.66	26.0069
2206.61	27.3676
2207.56	26.5083
2208.51	26
2209.45	21.9688
2210.4	27.303
2211.35	21.4279
2212.3	23.3637
2213.24	25.1132
2214.19	26.9056
2215.14	26.515
2216.09	27.1308
2217.03	25.9323
2217.98	23.1849
2218.93	24.8606
2219.87	24.846
2220.82	25.2833
2221.77	22.98
2222.71	25.3357
2223.66	24.9722
2224.6	24.5512
2225.55	27.3451
2226.49	25.1322
2227.44	23.6961
2228.38	27.6498
2229.33	26.0645
2230.27	25.1762
2231.22	26.6947
2232.16	23.2674
2233.11	23.6802
2234.05	22.8052
2235	25.5057
2235.94	27.4276
2236.88	26.5346
2237.83	23.7059
2238.77	24.6406
2239.71	28.948
2240.66	29.1984
2241.6	25.6644
2242	24
2242.95	29
2243.9	24
2244.84	29
2245.79	20
2246.74	25
2247.69	27
2248.63	27
2249.58	30
2250.53	24
2251.47	25
2252.42	27
2253.37	26
2254.31	26
2255.26	23
2256.2	28
2257.15	26
2258.1	26
2259.04	26
2259.99	24
2260.93	27
2261.88	29
2262.82	30
2263.77	29
2264.71	26
2265.65	27
2266.6	27
2267.54	26
2268.49	28
2269.43	22
2270.38	29
2271.32	27
2272.26	27
2273.21	25
2274.15	24
2275.09	25
2276.04	29
2276.98	19
2277.92	30
2278.86	26
2279.81	31
2280.75	24
2281.69	26
2282.63	28
2283.57	27
2284.52	22
2285.46	28
2286.4	27
2287.34	29
2288.28	26
2289.22	27
2290.16	22
2291.1	32
2292.04	24
2292.98	24
2293.93	25
2294.86	29
2295.8	24
2296.74	25
2297.69	22
2298.62	26
2299.56	25
2300.5	27
2301.44	24
2302.38	26
2303.32	21
2304.26	28
2305.2	26
2306.14	28
2307.07	28
2308.01	26
2308.95	27
2309.89	23
2310.83	28
2311.76	26
2312.7	29
2313.64	29
2314.58	24
2315.51	26
2316.45	25
2317.39	27
2318.32	25
2319.26	29
2320.2	27
2321.13	24
2322.07	28
2323	24
2323.94	29
2324.88	26
2325.81	27
2326.75	25
2327.68	27
2328.62	24
2329.55	27
2330.49	28
2331.42	27
2332.36	29
2333.29	28
2334.22	27
2335.16	24
2336.09	28
2337.03	29
2337.96	28
2338.89	24
2339.83	24
2340.76	26
2341.69	27
2342.63	26
2343.56	25
2344.49	24
2345.43	26
2346.36	29
2347.29	28
2348.22	24
2349.15	26
2350.09	22
2351.02	28
2351.95	29
2352.88	28
2353.81	26
2354.74	27
2355.67	28
2356.61	20
2357.54	27
2358.47	24
2359.4	26
2360.33	28
2361.26	27
2362.19	24
2363.12	27
2364.05	28
2364.98	29
2365.91	16
2366.84	22
2367.77	24
2368.7	30
2369.62	26
2370.55	28
2371.48	26
2372.41	28
2373.34	26
2374.27	26
2375.2	29
2376.12	24
2377.05	27
2377.98	21
2378.91	31
2379.83	26
2380.76	24
2381.69	22
2382.62	26
2383.54	28
2384.47	29
2385.4	30
2386.32	29
2387.25	28
2388.18	30
2389.1	28
2390.03	24
2390.95	28
2391.88	24
2392.81	27
2393.73	25
2394.66	26
2395.58	28
2396.51	26
2397.43	25
2398.36	26
2399.28	25
2400.2	24
2401.13	28
2402.05	24
2402.98	30
2403.9	29
2404.83	24
2405.75	29
2406.67	27
2407.6	27
2408.52	27
2409.44	25
2410.37	32
2411.29	27
2412.21	26
2413.13	25
2414.06	24
2414.98	26
2415.9	30
2416.82	31
2417.74	23
2418.67	26
2419.59	24
2420.51	29
2421.43	26
2422.35	24
2423.27	22
2424.19	26
2425.11	26
2426.03	29
2426.96	27
2427.88	22
2428.8	25
2429.72	26
2430.64	26
2431.56	29
2432.48	26
2433.39	32
2434.31	25
2435.23	24
2436.15	28
2437.07	28
2437.99	26
2438.91	32
2439.83	32
2440.75	22
2441.67	26
2442.58	26
2443.5	26
2444.42	26
2445.34	30
2446.26	25
2447.17	32
2448.09	30
2449.01	26
2449.92	28
2450.84	27
2451.76	26
2452.68	30
2453.59	24
2454.51	30
2455.42	29
2456.34	23
2457.26	26
2458.17	30
2459.09	26
2460	24
2460.92	22
2461.83	28
2462.75	29
2463.66	25
2464.58	27
2465.49	33
2466.41	29
2467.32	31
2468.24	28
2469.15	30
2470.07	24
2470.98	30
2471.89	28
2472.81	24
2473.72	27
2474.64	29
2475.55	34
2476.46	24
2477.37	28
2478.29	28
2479.2	32
2480.11	26
2481.03	29
2481.94	28
2482.85	31
2483.76	26
2484.67	26
2485.59	26
2486.5	26
2487.41	28
2488.32	27
2489.23	24
2490.14	24
2491.05	26
2491.97	24
2492.88	30
2493.79	30
2494.7	30
2495.61	24
2496.52	32
2497.43	29
2498.34	24
2499.25	29
2500.16	30
2501.07	28
2501.98	31
2502.89	28
2503.79	28
2504.7	31
2505.61	31
2506.52	28
2507.43	29
2508.34	25
2509.25	27
2510.16	28
2511.06	30
2511.97	30
2512.88	28
2513.79	26
2514.69	30
2515.6	26
2516.51	26
2517.42	27
2518.32	28
2519.23	24
2520.14	25
2521.04	28
2521.95	27
2522.86	27
2523.76	25
2524.67	29
2525.57	28
2526.48	28
2527.39	24
2528.29	30
2529.2	26
2530.1	30
2531.01	25
2531.91	26
2532.82	25
2533.72	28
2534.63	27
2535.53	26
2536.44	29
2537.34	24
2538.24	24
2539.15	31
2540.05	31
2540.96	24
2541.86	26
2542.76	26
2543.67	30
2544.57	25
2545.47	28
2546.37	31
2547.28	24
2548.18	29
2549.08	28
2549.99	28
2550.89	25
2551.79	22
2552.69	32
2553.59	30
2554.49	30
2555.4	22
2556.3	27
2557.2	32
2558.1	28
2559	23
2559.9	31
2560.8	28
2561.7	24
2562.6	25
2563.5	29
2564.4	25
2565.3	32
2566.2	22
2567.1	26
2568	27
2568.9	29
2569.8	24
2570.7	25
2571.6	26
2572.5	31
2573.4	25
2574.3	29
2575.2	29
2576.1	28
2576.99	30
2577.89	30
2578.79	28
2579.69	26
2580.59	24
2581.48	20
2582.38	27
2583.28	28
2584.18	26
2585.07	26
2585.97	25
2586.87	26
2587.76	27
2588.66	18
2589.56	23
2590.45	22
2591.35	28
2592.25	24
2593.14	27
2594.04	26
2594.93	24
2595.83	31
2596.73	31
2597.62	29
2598.52	28
2599.41	31
2600.31	28
2601.2	24
2602.1	32
2602.99	24
2603.88	31
2604.78	25
2605.67	20
2606.57	26
2607.46	27
2608.35	27
2609.25	28
2610.14	26
2611.03	27
2611.93	29
2612.82	30
2613.71	22
2614.61	28
2615.5	28
2616.39	26
2617.29	26
2618.18	27
2619.07	28
2619.96	34
2620.85	28
2621.75	28
2622.64	24
2623.53	26
2624.42	26
2625.31	24
2626.2	18
2627.09	24
2627.98	28
2628.88	31
2629.77	30
2630.66	28
2631.55	29
2632.44	28
2633.33	29
2634.22	24
2635.11	29
2636	32
2636.89	30
2637.78	26
2638.66	30
2639.55	24
2640.44	26
2641.33	25
2642.22	28
2643.11	21
2644	28
2644.89	27
2645.78	24
2646.66	30
2647.55	30
2648.44	26
2649.33	25
2650.21	25
2651.1	26
2651.99	27
2652.88	30
2653.76	27
2654.65	26
2655.54	27
2656.42	31
2657.31	28
2658.2	30
2659.08	26
2659.97	26
2660.86	25
2661.74	26
2662.63	30
2663.51	29
2664.4	26
2665.29	28
2666.17	29
2667.06	26
2667.94	31
2668.83	26
2669.71	28
2670.6	28
2671.48	23
2672.36	26
2673.25	24
2674.13	26
2675.02	26
2675.9	24
2676.78	30
2677.67	22
2678.55	23
2679.43	28
2680.32	26
2681.2	27
2682.08	28
2682.97	24
2683.85	24
2684.73	28
2685.61	28
2686.5	26
2687.38	28
2688.26	30
2689.14	27
2690.03	26
2690.91	26
2691.79	26
2692.67	24
2693.55	24
2694.43	27
2695.31	22
2696.19	28
2697.08	24
2697.96	26
2698.84	30
2699.72	29
2700.6	24
2701.48	30
2702.36	30
2703.24	25
2704.12	26
2705	24
2705.88	24
2706.76	32
2707.64	30
2708.51	28
2709.39	28
2710.27	29
2711.15	21
2712.03	28
2712.91	22
2713.79	32
2714.67	27
2715.54	26
2716.42	26
2717.3	21
2718.18	28
2719.05	23
2719.93	24
2720.81	29
2721.69	28
2722.56	23
2723.44	24
2724.32	31
2725.19	29
2726.07	31
2726.95	28
2727.82	26
2728.7	28
2729.58	24
2730.45	30
2731.33	27
2732.2	26
2733.08	24
2733.95	33
2734.83	29
2735.7	29
2736.58	24
2737.45	27
2738.33	28
2739.2	26
2740.08	31
2740.95	26
2741.83	27
2742.7	30
2743.58	34
2744.45	28
2745.32	24
2746.2	18
2747.07	27
2747.94	26
2748.82	28
2749.69	32
2750.56	22
2751.44	24
2752.31	32
2753.18	24
2754.05	24
2754.93	25
2755.8	30
2756.67	24
2757.54	27
2758.42	28
2759.29	27
2760.16	29
2761.03	29
2761.9	28
2762.77	32
2763.64	24
2764.51	25
2765.38	28
2766.26	30
2767.13	25
2768	31
2768.87	26
2769.74	30
2770.61	26
2771.48	31
2772.35	25
2773.22	29
2774.09	26
2774.96	28
2775.83	25
2776.7	28
2777.56	28
2778.43	29
2779.3	28
2780.17	30
2781.04	29
2781.91	29
2782.78	27
2783.64	23
2784.51	33
2785.38	30
2786.25	22
2787.12	24
2787.98	31
2788.85	20
2789.72	27
2790.59	31
2791.45	26
2792.32	23
2793.19	29
2794.05	32
2794.92	27
2795.79	30
2796.65	26
2797.52	26
2798.38	32
2799.25	29
2800.12	26
2800.98	25
2801.85	31
2802.71	22
2803.58	22
2804.44	22
2805.31	28
2806.17	35
2807.04	29
2807.9	20
2808.77	31
2809.63	25
2810.5	32
2811.36	27
2812.22	32
2813.09	30
2813.95	24
2814.82	23
2815.68	28
2816.54	28
2817.41	26
2818.27	29
2819.13	30
2820	27
2820.86	27
2821.72	33
2822.58	22
2823.45	26
2824.31	28
2825.17	26
2826.03	28
2826.9	30
2827.76	26
2828.62	25
2829.48	26
2830.34	31
2831.2	33
2832.06	27
2832.92	27
2833.79	24
2834.65	30
2835.51	26
2836.37	26
2837.23	34
2838.09	27
2838.95	30
2839.81	28
2840.67	28
2841.53	26
2842.39	26
2843.25	29
2844.11	28
2844.97	26
2845.83	29
2846.68	28
2847.54	30
2848.4	24
2849.26	25
2850.12	30
2850.98	28
2851.84	30
2852.69	22
2853.55	32
2854.41	26
2855.27	26
2856.13	30
2856.98	28
2857.84	28
2858.7	26
2859.56	26
2860.41	26
2861.27	28
2862.13	31
2862.98	28
2863.84	25
2864.7	25
2865.55	26
2866.41	29
2867.27	30
2868.12	28
2868.98	28
2869.83	29
2870.69	32
2871.54	29
2872.4	30
2873.25	36
2874.11	32
2874.96	30
2875.82	28
2876.68	34
2877.53	34
2878.38	29
2879.24	26
2880.09	27
2880.95	35
2881.8	29
2882.65	30
2883.51	28
2884.36	32
2885.22	31
2886.07	33
2886.92	34
2887.77	33
2888.63	32
2889.48	34
2890.33	35
2891.19	36
2892.04	40
2892.89	34
2893.74	38
2894.6	36
2895.45	43
2896.3	43
2897.15	44
2898	43
2898.85	46
2899.71	46
2900.56	50
2901.41	46
2902.26	60
2903.11	56
2903.96	55
2904.81	60
2905.66	58
2906.51	56
2907.36	54
2908.21	60
2909.06	46
2909.91	52
2910.76	64
2911.61	52
2912.46	47
2913.31	50
2914.16	48
2915.01	44
2915.86	44
2916.71	34
2917.56	45
2918.41	34
2919.26	34
2920.1	34
2920.95	42
2921.8	30
2922.65	32
2923.5	30
2924.34	34
2925.19	30
2926.04	35
2926.89	28
2927.74	29
2928.58	28
2929.43	32
2930.28	29
2931.12	26
2931.97	27
2932.82	32
2933.66	28
2934.51	31
2935.36	28
2936.2	31
2937.05	29
2937.89	26
2938.74	26
2939.59	28
2940.43	27
2941.28	33
2942.12	32
2942.97	30
2943.81	34
2944.66	31
2945.5	34
2946.35	28
2947.19	28
2948.04	24
2948.88	29
2949.72	32
2950.57	33
2951.41	32
2952.26	27
2953.1	33
2953.94	29
2954.79	28
2955.63	30
2956.47	32
2957.32	37
2958.16	40
2959	34
2959.85	38
2960.69	40
2961.53	34
2962.37	36
2963.22	39
2964.06	40
2964.9	41
2965.74	40
2966.58	42
2967.42	43
2968.27	44
2969.11	40
2969.95	42
2970.79	40
2971.63	38
2972.47	30
2973.31	36
2974.15	37
2974.99	38
2975.83	33
2976.68	32
2977.52	33
2978.36	32
2979.2	32
2980.04	31
2980.88	30
2981.71	33
2982.55	34
2983.39	26
2984.23	30
2985.07	30
2985.91	28
2986.75	33
2987.59	30
2988.43	28
2989.27	29
2990.1	28
2990.94	30
2991.78	29
2992.62	22
2993.46	26
2994.3	30
2995.13	24
2995.97	25
2996.81	30
2997.64	29
2998.48	27
2999.32	22
