#Acq. time (s)=	3
#Accumulations=	3
#Range (cm-¹)=	100...3000
#Windows=	3
#Autofocus=	Off
#AutoExposure=	Off
#Spike filter=	Multiple accum.
#Delay time (s)=	0
#Binning=	1
#Readout mode=	Signal
#DeNoise=	Off
#ICS correction=	Off
#Dark correction=	Off
#Inst. Process=	Off
#Instrument=	LabRAM HR Evol
#Detector=	Syncerity OE
#Objective=	x100_VIS_LWD
#Grating=	600 (500nm)
#ND Filter=	25%
#Laser=	633nm_Edge
#Hole=	100.021
#Range=	Visible
#Project=	Bolus
#Sample=	B5
#Site=	stripside
#Title=	m15
#Remark=	
#Date=	03.11.2025 19:17
#Acquired=	03.11.2025 19:17:24
100.969	32
102.252	32
103.535	42
104.818	27
106.101	34
107.384	33
108.666	32
109.948	30
111.232	35
112.514	32
113.795	34
115.077	34
116.358	35
117.639	32
118.919	36
120.2	33
121.48	28
122.76	29
124.04	33
125.32	36
126.599	38
127.879	26
129.158	30
130.436	30
131.715	34
132.992	34
134.27	34
135.548	39
136.826	34
138.104	37
139.381	33
140.658	34
141.935	39
143.212	30
144.489	41
145.763	36
147.04	35
148.315	34
149.591	38
150.867	38
152.142	42
153.416	35
154.691	34
155.965	43
157.24	36
158.514	36
159.786	45
161.06	38
162.334	38
163.607	40
164.881	28
166.152	38
167.425	38
168.698	34
169.969	39
171.241	35
172.513	38
173.785	38
175.055	34
176.326	36
177.597	37
178.867	40
180.137	35
181.408	40
182.677	37
183.947	38
185.217	32
186.485	40
187.755	34
189.022	38
190.291	45
191.56	34
192.828	38
194.096	38
195.363	36
196.631	35
197.899	38
199.165	40
200.432	32
201.698	36
202.965	38
204.23	42
205.497	40
206.762	38
208.028	35
209.293	32
210.559	34
211.823	35
213.088	35
214.352	36
215.617	34
216.88	33
218.145	34
219.408	33
220.672	33
221.934	30
223.196	37
224.46	34
225.722	30
226.985	35
228.246	28
229.508	31
230.77	36
232.031	32
233.292	36
234.554	36
235.814	36
237.074	37
238.335	32
239.595	34
240.854	27
242.115	29
243.374	29
244.633	26
245.893	36
247.151	29
248.409	30
249.667	32
250.927	26
252.184	26
253.442	34
254.699	32
255.957	26
257.214	30
258.47	30
259.727	33
260.983	32
262.24	32
263.496	30
264.752	34
266.007	33
267.262	31
268.517	34
269.773	26
271.028	29
272.282	34
273.536	30
274.79	32
276.044	30
277.297	32
278.551	30
279.804	30
281.057	27
282.31	33
283.564	30
284.816	28
286.068	26
287.32	28
288.572	30
289.823	33
291.074	26
292.325	34
293.576	32
294.827	29
296.077	24
297.328	30
298.578	30
299.828	30
301.077	22
302.325	32
303.575	31
304.824	31
306.073	34
307.321	24
308.57	24
309.818	26
311.066	33
312.314	28
313.562	33
314.808	26
316.055	25
317.302	31
318.549	26
319.796	30
321.042	31
322.288	30
323.533	28
324.779	32
326.024	32
327.27	28
328.515	33
329.759	28
331.004	30
332.248	30
333.493	30
334.736	29
335.98	28
337.223	26
338.466	30
339.709	31
340.952	34
342.195	34
343.437	31
344.68	26
345.922	30
347.163	25
348.405	26
349.647	32
350.887	30
352.128	26
353.37	30
354.609	36
355.85	29
357.089	32
358.33	32
359.57	31
360.809	31
362.049	26
363.287	32
364.526	31
365.764	31
367.003	35
368.241	29
369.479	28
370.718	26
371.955	32
373.193	30
374.429	33
375.667	28
376.903	32
378.139	33
379.376	24
380.611	30
381.848	30
383.083	26
384.319	28
385.554	28
386.79	28
388.024	31
389.258	35
390.493	32
391.727	30
392.962	30
394.195	31
395.428	34
396.663	28
397.895	32
399.128	30
400.361	28
401.593	30
402.825	35
404.058	26
405.29	30
406.521	29
407.752	30
408.985	30
410.215	28
411.446	30
412.678	26
413.908	29
415.138	28
416.367	32
417.597	32
418.828	32
420.057	26
421.286	30
422.514	33
423.743	29
424.973	31
426.201	32
427.429	29
428.657	28
429.884	20
431.112	30
432.34	33
433.567	28
434.794	28
436.02	32
437.247	32
438.473	30
439.699	28
440.925	32
442.15	30
443.376	28
444.601	26
445.826	33
447.051	31
448.275	31
449.5	30
450.724	24
451.948	34
453.172	28
454.396	29
455.619	32
456.842	34
458.065	31
459.288	37
460.511	30
461.733	29
462.956	37
464.178	28
465.4	29
466.621	34
467.843	34
469.064	34
470.285	32
471.505	34
472.726	32
473.946	38
475.166	31
476.387	36
477.606	35
478.825	40
480.044	40
481.264	44
482.483	42
483.702	51
484.921	48
486.138	47
487.356	48
488.574	46
489.792	54
491.009	53
492.226	49
493.444	52
494.661	48
495.877	44
497.094	44
498.31	40
499.525	42
500.741	39
501.958	41
503.172	40
504.388	38
505.603	37
506.817	37
508.032	34
509.247	36
510.46	31
511.675	38
512.888	32
514.102	32
515.316	32
516.528	32
517.742	34
518.954	36
520.167	34
521.378	34
522.591	26
523.802	36
525.015	39
526.226	31
527.438	28
528.648	35
529.86	28
531.07	30
532.281	34
533.491	33
534.702	36
535.911	36
537.121	32
538.33	30
539.54	32
540.749	33
541.957	28
543.167	33
544.375	34
545.584	30
546.791	31
547.999	32
549.207	32
550.414	30
551.621	31
552.829	30
554.035	29
555.241	34
556.449	32
557.655	25
558.86	30
560.066	32
561.272	32
562.477	33
563.682	36
564.888	29
566.093	22
567.297	32
568.501	30
569.705	31
570.91	31
572.114	31
573.317	36
574.52	26
575.723	24
576.927	30
578.13	30
579.332	34
580.535	32
581.737	30
582.938	31
584.14	32
585.343	32
586.544	29
587.745	30
588.946	22
590.147	28
591.347	32
592.548	31
593.748	31
594.948	30
596.147	33
597.347	30
598.546	28
599.745	31
600.944	25
602.143	24
603.342	32
604.54	33
605.738	32
606.937	24
608.134	30
609.332	28
610.529	28
611.727	26
612.924	33
614.121	27
615.317	31
616.513	30
617.709	32
618.905	31
620.101	33
621.297	32
622.492	33
623.688	33
624.883	34
626.077	35
627.271	30
628.466	32
629.66	35
630.855	30
632.047	31
633.241	28
634.435	32
635.629	34
636.82	29
638.014	28
639.207	32
640.399	30
641.59	32
642.783	33
643.975	33
645.166	30
646.357	28
647.549	31
648.741	33
649.93	34
651.122	24
652.311	33
653.502	30
654.692	26
655.881	24
657.071	28
658.261	28
659.45	32
660.639	30
661.827	28
663.016	30
664.204	36
665.393	33
666.581	30
667.769	32
668.957	32
670.143	30
671.331	34
672.518	36
673.705	33
674.891	26
676.078	33
677.264	30
678.451	31
679.636	30
680.821	36
682.007	33
683.192	30
684.378	33
685.562	35
686.747	34
687.931	31
689.115	35
690.3	32
691.483	34
692.666	32
693.851	28
695.034	31
696.216	33
697.4	35
698.582	35
699.764	38
700.948	40
702.129	37
703.311	38
704.493	44
705.674	38
706.855	45
708.036	38
709.218	48
710.399	49
711.579	45
712.759	43
713.939	34
715.12	38
716.299	36
717.478	34
718.657	33
719.836	35
721.015	30
722.195	28
723.373	28
724.552	32
725.729	30
726.907	31
728.085	32
729.262	34
730.44	26
731.617	30
732.795	31
733.972	28
735.148	28
736.324	34
737.501	29
738.677	28
739.852	31
741.028	31
742.203	30
743.379	28
744.554	26
745.729	29
746.903	34
748.078	33
749.252	25
750.426	30
751.599	29
752.772	27
753.946	32
755.119	29
756.293	29
757.466	29
758.639	30
759.811	28
760.984	34
762.155	32
763.327	29
764.499	25
765.67	28
766.842	32
768.013	32
769.183	30
770.354	26
771.525	33
772.696	30
773.865	33
775.035	28
776.205	28
777.375	32
778.544	29
779.713	29
780.882	29
782.052	32
783.219	34
784.388	28
785.557	32
786.724	28
787.892	30
789.06	36
790.227	32
791.395	35
792.562	34
793.728	32
794.895	32
796.061	35
797.228	36
798.395	35
799.56	32
800.726	31
801.891	32
803.057	37
804.221	32
805.387	30
806.551	32
807.716	30
808.879	30
810.044	28
811.208	26
812.372	31
813.535	32
814.699	29
815.862	36
817.025	33
818.188	32
819.351	29
820.513	30
821.675	31
822.837	31
823.999	31
825.161	30
826.322	32
827.483	30
828.645	28
829.805	34
830.966	25
832.127	30
833.287	24
834.447	36
835.607	28
836.767	32
837.926	30
839.085	32
840.245	28
841.404	32
842.562	34
843.72	30
844.88	30
846.038	31
847.195	29
848.353	25
849.512	31
850.669	24
851.826	30
852.983	31
854.139	28
855.296	34
856.453	28
857.609	30
858.765	32
859.921	32
861.077	34
862.232	30
863.387	32
864.542	32
865.697	30
866.852	26
868.008	30
869.162	30
870.316	30
871.47	30
872.624	27
873.778	29
874.931	32
876.084	28
877.237	34
878.39	27
879.543	35
880.695	32
881.846	34
882.999	32
884.151	32
885.302	34
886.454	32
887.606	36
888.757	27
889.908	30
891.059	29
892.21	30
893.359	26
894.509	24
895.659	32
896.81	29
897.959	32
899.109	28
900.257	29
901.407	31
902.556	30
903.705	30
904.854	29
906.001	29
907.149	29
908.298	28
909.446	28
910.592	30
911.74	28
912.888	24
914.034	30
915.181	27
916.328	25
917.473	22
918.62	26
919.766	29
920.911	31
922.058	32
923.204	30
924.348	31
925.494	30
926.638	31
927.783	30
928.928	29
930.072	24
931.216	29
932.36	28
933.504	28
934.647	30
935.791	28
936.933	29
938.077	29
939.219	24
940.363	27
941.504	28
942.647	28
943.789	32
944.932	34
946.073	29
947.215	30
948.356	27
949.498	36
950.638	31
951.778	28
952.92	31
954.06	28
955.199	28
956.34	28
957.479	30
958.62	28
959.759	29
960.898	26
962.038	26
963.176	22
964.315	30
965.453	25
966.592	32
967.73	30
968.867	28
970.006	30
971.144	30
972.281	29
973.418	26
974.554	29
975.692	29
976.829	33
977.965	30
979.101	32
980.237	36
981.374	28
982.509	34
983.645	18
984.78	28
985.915	26
987.05	26
988.184	31
989.319	33
990.453	32
991.589	28
992.722	31
993.856	26
994.99	34
996.123	29
997.257	30
998.39	28
999.523	26
1000.66	27
1001.79	28
1002.92	28
1004.05	30
1005.18	29
1006.32	27
1007.45	31
1008.58	35
1009.71	28
1010.84	30
1011.97	26
1013.1	28
1014.23	30
1015.36	32
1016.49	26
1017.62	28
1018.75	31
1019.88	31
1021.01	32
1022.14	26
1023.27	31
1024.4	28
1025.53	27
1026.66	30
1027.79	30
1028.91	29
1030.04	28
1031.17	18
1032.3	30
1033.42	28
1034.55	29
1035.68	24
1036.81	31
1037.93	28
1039.06	30
1040.18	25
1041.31	31
1042.44	24
1043.56	30
1044.69	28
1045.81	26
1046.94	27
1048.06	26
1049.19	26
1050.31	22
1051.44	26
1052.56	26
1053.69	30
1054.81	26
1055.93	29
1057.06	31
1058.18	32
1059.3	20
1060.43	28
1061.55	31
1062.67	34
1063.79	31
1064.92	26
1066.04	25
1067.16	30
1068.28	30
1069.4	26
1070.52	32
1071.65	32
1072.77	32
1073.89	31
1075.01	33
1076.13	32
1077.25	27
1078.37	33
1079.49	32
1080.61	26
1081.73	28
1082.85	35
1083.97	26
1085.09	26
1086.2	29
1087.32	28
1088.44	30
1089.56	33
1090.68	30
1091.8	25
1092.91	32
1094.03	22
1095.15	29
1096.26	30
1097.38	23
1098.5	29
1099.61	26
1100.73	29
1101.85	24
1102.96	30
1104.08	26
1105.19	24
1106.31	27
1107.43	29
1108.54	29
1109.66	30
1110.77	27
1111.88	30
1113	24
1114.11	30
1115.23	26
1116.34	31
1117.46	30
1118.57	30
1119.68	28
1120.8	24
1121.91	26
1123.02	31
1124.13	30
1125.25	28
1126.36	26
1127.47	34
1128.58	29
1129.69	26
1130.8	28
1131.92	27
1133.03	26
1134.14	22
1135.25	29
1136.36	26
1137.47	32
1138.58	31
1139.69	28
1140.8	29
1141.91	32
1143.02	26
1144.13	23
1145.24	26
1146.35	28
1147.46	30
1148.56	26
1149.67	26
1150.78	28
1151.89	28
1153	28
1154.1	28
1155.21	24
1156.32	32
1157.43	27
1158.53	26
1159.64	24
1160.75	29
1161.85	28
1162.96	24
1164.07	31
1165.17	30
1166.28	26
1167.38	31
1168.49	29
1169.59	31
1170.7	24
1171.8	31
1172.91	31
1174.01	26
1175.12	26
1176.22	28
1177.32	29
1178.43	27
1179.53	26
1180.64	28
1181.74	31
1182.84	29
1183.94	29
1185.05	22
1186.15	32
1187.25	28
1188.35	26
1189.46	32
1190.56	25
1191.66	26
1192.76	24
1193.86	27
1194.96	27
1196.06	20.0392
1197.16	28.9936
1198.26	25.1255
1199.37	31.8704
1200.47	23.0838
1201.57	26.0098
1202.67	21.3081
1203.77	24.1576
1204.86	26.9505
1205.96	25.9069
1207.06	27.7449
1208.16	27.8328
1209.26	27.0627
1210.36	28.8005
1211.46	29.645
1212.56	28.2271
1213.65	24.4536
1214.75	31.4186
1215.85	32.3619
1216.95	28.2592
1218.04	25.7502
1219.14	31.1029
1220.24	26.7082
1221.33	27.0035
1222.43	25.5068
1223.53	23.5494
1224.62	29.2775
1225.72	28.0403
1226.82	28.6388
1227.91	26.1324
1229.01	26.0394
1230.1	27.1869
1231.2	25.3015
1232.29	26.6863
1233.39	26.6471
1234.48	25.9559
1235.58	27.4949
1236.67	25.1679
1237.77	29.6225
1238.86	29.168
1239.95	29.6152
1241.05	30.4412
1242.14	26.3594
1243.23	25.5895
1244.33	29.9712
1245.42	28
1246.51	28.4525
1247.61	26.9381
1248.7	28.6362
1249.79	24.4265
1250.88	27.3338
1251.97	29.7015
1253.07	26.2698
1254.16	26.2912
1255.25	23.2624
1256.34	26.3202
1257.43	28.9507
1258.52	29.2696
1259.61	29.8665
1260.7	28.417
1261.79	28.3325
1262.88	28.6426
1263.97	28.5573
1265.06	27.8482
1266.15	28.8738
1267.24	26.7157
1268.33	25.8362
1269.42	27.5057
1270.51	27.0524
1271.6	26.7986
1272.68	27.6176
1273.77	26.3839
1274.86	26.0762
1275.95	28.8508
1277.04	27.111
1278.12	25.3932
1279.21	27.1979
1280.3	25.2203
1281.39	24.8564
1282.47	25.2244
1283.56	29.9268
1284.65	23.6509
1285.73	27.8088
1286.82	26.7268
1287.91	25.0164
1288.99	28.2215
1290.08	28.0221
1291.16	26.2105
1292.25	25.0394
1293.33	30.1794
1294.42	25.4563
1295.5	25.9082
1296.59	26.8318
1297.67	27.892
1298.76	26.7703
1299.84	22.8577
1300.92	27.9461
1302.01	27.6366
1303.09	26.109
1304.17	27.4339
1305.26	22.6135
1306.34	28.3136
1307.34	20
1308.43	29
1309.52	32
1310.61	33
1311.7	28
1312.78	22
1313.87	26
1314.96	26
1316.04	25
1317.13	28
1318.22	27
1319.3	27
1320.39	27
1321.48	28
1322.56	18
1323.65	27
1324.73	26
1325.82	24
1326.9	28
1327.99	29
1329.07	25
1330.16	22
1331.24	26
1332.33	23
1333.41	31
1334.5	34
1335.58	27
1336.66	29
1337.75	32
1338.83	30
1339.91	24
1341	32
1342.08	31
1343.16	22
1344.24	29
1345.33	26
1346.41	27
1347.49	26
1348.57	27
1349.65	26
1350.74	28
1351.82	26
1352.9	27
1353.98	24
1355.06	30
1356.14	27
1357.22	26
1358.3	27
1359.38	31
1360.46	31
1361.54	29
1362.62	30
1363.7	29
1364.78	29
1365.86	22
1366.94	28
1368.02	29
1369.09	29
1370.17	27
1371.25	29
1372.33	24
1373.41	26
1374.48	24
1375.56	33
1376.64	26
1377.72	22
1378.79	29
1379.87	28
1380.95	30
1382.02	22
1383.1	30
1384.17	26
1385.25	26
1386.33	28
1387.4	30
1388.48	23
1389.55	30
1390.63	25
1391.7	26
1392.78	29
1393.85	26
1394.93	29
1396	30
1397.07	27
1398.15	26
1399.22	30
1400.3	26
1401.37	34
1402.44	32
1403.52	32
1404.59	29
1405.66	29
1406.73	30
1407.81	31
1408.88	34
1409.95	31
1411.02	30
1412.09	33
1413.17	35
1414.24	31
1415.31	37
1416.38	38
1417.45	29
1418.52	34
1419.59	33
1420.66	29
1421.73	29
1422.8	28
1423.87	24
1424.94	26
1426.01	27
1427.08	30
1428.15	28
1429.22	33
1430.29	24
1431.35	29
1432.42	28
1433.49	30
1434.56	23
1435.63	28
1436.69	26
1437.76	26
1438.83	26
1439.9	31
1440.96	28
1442.03	30
1443.1	26
1444.17	32
1445.23	30
1446.3	30
1447.36	24
1448.43	30
1449.49	30
1450.56	22
1451.63	26
1452.69	28
1453.76	26
1454.82	31
1455.89	32
1456.95	33
1458.01	24
1459.08	24
1460.14	22
1461.21	26
1462.27	27
1463.34	26
1464.4	32
1465.46	28
1466.52	30
1467.59	28
1468.65	26
1469.71	28
1470.77	30
1471.84	26
1472.9	30
1473.96	29
1475.02	28
1476.08	32
1477.15	27
1478.21	29
1479.27	26
1480.33	26
1481.39	29
1482.45	26
1483.51	31
1484.57	24
1485.63	29
1486.69	32
1487.75	24
1488.81	27
1489.87	24
1490.93	26
1491.99	33
1493.05	28
1494.1	30
1495.16	30
1496.22	26
1497.28	27
1498.34	30
1499.4	24
1500.45	28
1501.51	33
1502.57	24
1503.63	26
1504.68	25
1505.74	27
1506.8	26
1507.85	29
1508.91	27
1509.97	26
1511.02	26
1512.08	29
1513.13	28
1514.19	31
1515.24	30
1516.3	26
1517.35	28
1518.41	29
1519.46	27
1520.52	30
1521.57	31
1522.63	32
1523.68	30
1524.73	28
1525.79	24
1526.84	28
1527.9	22
1528.95	27
1530	29
1531.05	27
1532.11	24
1533.16	26
1534.21	30
1535.26	26
1536.32	30
1537.37	22
1538.42	32
1539.47	27
1540.52	29
1541.57	30
1542.63	29
1543.68	26
1544.73	32
1545.78	26
1546.83	26
1547.88	28
1548.93	27
1549.98	31
1551.03	30
1552.08	28
1553.13	36
1554.18	23
1555.23	25
1556.27	25
1557.32	28
1558.37	26
1559.42	30
1560.47	22
1561.52	29
1562.56	27
1563.61	30
1564.66	24
1565.71	26
1566.75	29
1567.8	28
1568.85	29
1569.9	30
1570.94	26
1571.99	29
1573.03	28
1574.08	33
1575.13	28
1576.17	26
1577.22	26
1578.26	26
1579.31	27
1580.35	28
1581.4	28
1582.44	32
1583.49	26
1584.53	32
1585.58	25
1586.62	25
1587.66	28
1588.71	30
1589.75	28
1590.8	24
1591.84	31
1592.88	28
1593.92	26
1594.97	22
1596.01	22
1597.05	26
1598.1	26
1599.14	30
1600.18	30
1601.22	31
1602.26	22
1603.3	24
1604.35	23
1605.39	28
1606.43	25
1607.47	36
1608.51	30
1609.55	26
1610.59	30
1611.63	28
1612.67	30
1613.71	28
1614.75	24
1615.79	31
1616.83	32
1617.87	29
1618.91	31
1619.95	31
1620.99	28
1622.02	27
1623.06	28
1624.1	30
1625.14	28
1626.18	26
1627.21	27
1628.25	27
1629.29	33
1630.33	27
1631.36	24
1632.4	28
1633.44	30
1634.48	28
1635.51	27
1636.55	24
1637.58	29
1638.62	30
1639.66	26
1640.69	28
1641.73	26
1642.76	31
1643.8	24
1644.83	26
1645.87	31
1646.9	29
1647.94	31
1648.97	25
1650	31
1651.04	26
1652.07	27
1653.11	31
1654.14	31
1655.17	28
1656.21	31
1657.24	28
1658.27	31
1659.31	27
1660.34	30
1661.37	28
1662.4	30
1663.43	27
1664.47	31
1665.5	30
1666.53	29
1667.56	28
1668.59	30
1669.62	24
1670.66	20
1671.69	24
1672.72	33
1673.75	28
1674.78	30
1675.81	28
1676.84	28
1677.87	30
1678.9	20
1679.93	31
1680.96	29
1681.98	30
1683.01	30
1684.04	25
1685.07	26
1686.1	28
1687.13	29
1688.16	30
1689.18	31
1690.21	29
1691.24	22
1692.27	27
1693.3	23
1694.32	30
1695.35	28
1696.38	29
1697.4	24
1698.43	31
1699.46	30
1700.48	29
1701.51	26
1702.54	28
1703.56	26
1704.59	28
1705.61	26
1706.64	26
1707.66	29
1708.69	31
1709.71	26
1710.74	27
1711.76	25
1712.79	24
1713.81	28
1714.83	28
1715.86	24
1716.88	28
1717.91	30
1718.93	25
1719.95	29
1720.98	28
1722	30
1723.02	25
1724.04	29
1725.07	28
1726.09	28
1727.11	27
1728.13	26
1729.15	27
1730.18	32
1731.2	25
1732.22	30
1733.24	27
1734.26	32
1735.28	28
1736.3	30
1737.32	27
1738.34	32
1739.36	22
1740.38	26
1741.4	29
1742.42	35
1743.44	24
1744.46	22
1745.48	34
1746.5	28
1747.52	25
1748.54	31
1749.56	30
1750.58	22
1751.6	28
1752.61	24
1753.63	26
1754.65	32
1755.67	29
1756.68	27
1757.7	32
1758.72	28
1759.74	26
1760.75	26
1761.77	23
1762.79	29
1763.8	32
1764.82	30
1765.83	28
1766.85	32
1767.87	32
1768.88	29
1769.9	28
1770.91	29
1771.93	32
1772.94	25
1773.96	31
1774.97	25
1775.99	27
1777	28
1778.02	33
1779.03	27
1780.04	27
1781.06	31
1782.07	22
1783.09	28
1784.1	22
1785.11	26
1786.13	22
1787.14	30
1788.15	26
1789.16	28
1790.18	30
1791.19	27
1792.2	30
1793.21	27
1794.22	28
1795.23	33
1796.25	32
1797.26	30
1798.27	27
1799.28	30
1800.29	32
1801.3	28
1802.31	28
1803.32	29
1804.33	28
1805.34	28
1806.35	26
1807.36	26
1808.37	30
1809.38	28
1810.39	27
1811.4	35
1812.41	26
1813.42	28
1814.42	28
1815.43	28
1816.44	24
1817.45	26
1818.46	28
1819.47	28
1820.47	27
1821.48	22
1822.49	26
1823.49	28
1824.5	24
1825.51	22
1826.52	29
1827.52	26
1828.53	26
1829.53	28
1830.54	29
1831.55	28
1832.55	31
1833.56	29
1834.56	25
1835.57	28
1836.57	30
1837.58	26
1838.58	31
1839.59	28
1840.59	28
1841.6	30
1842.6	28
1843.61	26
1844.61	29
1845.61	24
1846.62	18
1847.62	26
1848.62	26
1849.63	27
1850.63	26
1851.63	22
1852.64	26
1853.64	28
1854.64	24
1855.64	29
1856.64	33
1857.65	26
1858.65	25
1859.65	31
1860.65	24
1861.65	28
1862.65	24
1863.65	31
1864.66	30
1865.66	25
1866.66	29
1867.66	28
1868.66	29
1869.66	30
1870.66	29
1871.66	26
1872.66	30
1873.66	31
1874.66	32
1875.65	26
1876.65	28
1877.65	31
1878.65	27
1879.65	27
1880.65	22
1881.65	30
1882.64	32
1883.64	28
1884.64	25
1885.64	28
1886.63	26
1887.63	28
1888.63	20
1889.63	28
1890.62	24
1891.62	23
1892.62	29
1893.61	23
1894.61	27
1895.6	25
1896.6	33
1897.6	26
1898.59	30
1899.59	28
1900.58	28
1901.58	20
1902.57	32
1903.57	26
1904.56	26
1905.56	26
1906.55	27
1907.54	26
1908.54	29
1909.53	30
1910.53	32
1911.52	30
1912.51	27
1913.51	26
1914.5	24
1915.49	32
1916.49	29
1917.48	30
1918.47	26
1919.46	28
1920.46	26
1921.45	22
1922.44	26
1923.43	28
1924.42	28
1925.41	25
1926.41	27
1927.4	28
1928.39	25
1929.38	24
1930.37	28
1931.36	28
1932.35	30
1933.34	30
1934.33	27
1935.32	26
1936.31	26
1937.3	30
1938.29	20
1939.28	30
1940.27	30
1941.26	28
1942.24	28
1943.23	29
1944.22	34
1945.21	22
1946.2	28
1947.19	26
1948.17	24
1949.16	25
1950.15	27
1951.14	25
1952.12	28
1953.11	30
1954.1	27
1955.09	22
1956.07	31
1957.06	27
1958.05	28
1959.03	26
1960.02	28
1961	24
1961.99	28
1962.98	28
1963.96	20
1964.95	32
1965.93	24
1966.92	28
1967.9	25
1968.89	32
1969.87	29
1970.85	32
1971.84	22
1972.82	29
1973.81	24
1974.79	31
1975.78	28
1976.76	29
1977.74	31
1978.73	26
1979.71	31
1980.69	29
1981.67	29
1982.66	24
1983.64	25
1984.62	28
1985.6	27
1986.59	25
1987.57	32
1988.55	27
1989.53	31
1990.51	26
1991.49	27
1992.47	28
1993.45	28
1994.44	25
1995.42	27
1996.4	32
1997.38	30
1998.36	27
1999.34	22
2000.32	27
2001.3	26
2002.28	27
2003.26	23
2004.24	27
2005.22	24
2006.19	29
2007.17	22
2008.15	32
2009.13	27
2010.11	26
2011.09	26
2012.06	24
2013.04	31
2014.02	29
2015	26
2015.98	29
2016.95	25
2017.93	28
2018.91	28
2019.88	22
2020.86	26
2021.84	26
2022.81	26
2023.79	26
2024.77	25
2025.74	28
2026.72	30
2027.69	24
2028.67	26
2029.65	29
2030.62	28
2031.6	28
2032.57	27
2033.55	30
2034.52	25
2035.5	30
2036.47	30
2037.44	24
2038.42	28
2039.39	22
2040.36	30
2041.34	22
2042.31	31
2043.29	30
2044.26	27
2045.23	30
2046.2	25
2047.18	30
2048.15	30
2049.12	27
2050.09	31
2051.07	26
2052.04	27
2053.01	31
2053.98	31
2054.95	28
2055.93	29
2056.9	30
2057.87	28
2058.84	29
2059.81	21
2060.78	26
2061.75	20
2062.72	26
2063.69	20
2064.66	26
2065.63	23
2066.6	34
2067.57	22
2068.54	28
2069.51	26
2070.48	28
2071.45	22
2072.42	27
2073.38	26
2074.35	30
2075.32	26
2076.29	28
2077.26	22
2078.23	25
2079.19	22
2080.16	30
2081.13	29
2082.1	24
2083.06	26
2084.03	24
2085	26
2085.96	30
2086.93	26
2087.9	26
2088.86	24
2089.83	24
2090.8	29
2091.76	24
2092.73	26
2093.69	27
2094.66	24
2095.62	28
2096.59	30
2097.55	22
2098.52	28
2099.48	20
2100.45	34
2101.41	29
2102.38	25
2103.34	27
2104.31	25
2105.27	24
2106.23	25
2107.2	27
2108.16	26
2109.12	24
2110.09	23
2111.05	24
2112.01	28
2112.98	24
2113.94	29
2114.9	30
2115.86	28
2116.82	30
2117.79	25
2118.75	27
2119.71	25
2120.67	27
2121.63	28
2122.59	28
2123.55	20
2124.52	28
2125.48	28
2126.44	24
2127.4	26
2128.36	25
2129.32	25
2130.28	25
2131.24	25
2132.2	29
2133.16	25
2134.12	28
2135.08	24
2136.04	29
2136.99	22
2137.95	28
2138.91	26
2139.87	27
2140.83	25
2141.79	26
2142.75	22
2143.7	26
2144.66	30
2145.62	25.9715
2146.58	23.9826
2147.53	24.1653
2148.49	27.0315
2149.45	25.0916
2150.41	31.7805
2151.36	22.3102
2152.32	29.6235
2153.27	24.838
2154.23	23.0883
2155.19	21.2011
2156.14	27.3282
2157.1	23.8999
2158.06	28
2159.01	28.8541
2159.97	26.1487
2160.92	25.99
2161.88	23.6587
2162.83	23.8218
2163.79	28.4265
2164.74	22.8028
2165.7	29.7293
2166.65	24.0935
2167.61	24.7881
2168.56	25.9881
2169.51	26.75
2170.47	24.758
2171.42	27.4391
2172.38	24.0251
2173.33	24.5497
2174.28	25.1635
2175.24	28.2902
2176.19	27.425
2177.14	26
2178.09	27.6365
2179.05	22.1158
2180	27.9399
2180.95	26.4371
2181.9	26.6711
2182.86	27.7603
2183.81	28.0239
2184.76	25.2549
2185.71	26.2549
2186.66	27.7647
2187.61	23.491
2188.57	25.4954
2189.52	26.2385
2190.47	25.3381
2191.42	25.7209
2192.37	23.6323
2193.32	23.6694
2194.27	26.0235
2195.22	24.3435
2196.17	24.5165
2197.12	26.1549
2198.07	25.6324
2199.02	25.6618
2199.97	23.4537
2200.92	24.9204
2201.87	24.7014
2202.82	24.9373
2203.76	28.3578
2204.71	25.6279
2205.66	22.1336
2206.61	23.8687
2207.56	26.2344
2208.51	29.9493
2209.45	26.6436
2210.4	22.6863
2211.35	24.5771
2212.3	24.6658
2213.24	24.3716
2214.19	27.3517
2215.14	22.7948
2216.09	25.4527
2217.03	25.2016
2217.98	23.75
2218.93	24.7206
2219.87	26.0756
2220.82	23.735
2221.77	22.7547
2222.71	25.9753
2223.66	26.0164
2224.6	27.4652
2225.55	25.4451
2226.49	25.4339
2227.44	26.8121
2228.38	27.5735
2229.33	24.7998
2230.27	24.4946
2231.22	24.7733
2232.16	26.0575
2233.11	23.4528
2234.05	24.2505
2235	27.1403
2235.94	23.6107
2236.88	26.267
2237.83	26.4265
2238.77	24.0686
2239.71	22.8992
2240.66	20.9656
2241.6	25.785
2242	30
2242.95	20
2243.9	29
2244.84	30
2245.79	21
2246.74	28
2247.69	28
2248.63	22
2249.58	30
2250.53	26
2251.47	30
2252.42	24
2253.37	20
2254.31	26
2255.26	27
2256.2	26
2257.15	23
2258.1	28
2259.04	25
2259.99	20
2260.93	22
2261.88	30
2262.82	28
2263.77	28
2264.71	22
2265.65	29
2266.6	24
2267.54	24
2268.49	24
2269.43	27
2270.38	26
2271.32	33
2272.26	24
2273.21	30
2274.15	25
2275.09	27
2276.04	25
2276.98	29
2277.92	28
2278.86	33
2279.81	22
2280.75	28
2281.69	22
2282.63	27
2283.57	27
2284.52	26
2285.46	24
2286.4	28
2287.34	24
2288.28	24
2289.22	26
2290.16	26
2291.1	29
2292.04	25
2292.98	24
2293.93	30
2294.86	28
2295.8	28
2296.74	26
2297.69	22
2298.62	30
2299.56	24
2300.5	26
2301.44	28
2302.38	28
2303.32	26
2304.26	30
2305.2	27
2306.14	26
2307.07	16
2308.01	20
2308.95	23
2309.89	24
2310.83	18
2311.76	26
2312.7	25
2313.64	29
2314.58	25
2315.51	28
2316.45	26
2317.39	28
2318.32	25
2319.26	26
2320.2	26
2321.13	24
2322.07	26
2323	29
2323.94	26
2324.88	28
2325.81	27
2326.75	28
2327.68	26
2328.62	28
2329.55	30
2330.49	24
2331.42	28
2332.36	31
2333.29	28
2334.22	23
2335.16	28
2336.09	24
2337.03	28
2337.96	26
2338.89	32
2339.83	28
2340.76	21
2341.69	27
2342.63	28
2343.56	26
2344.49	26
2345.43	25
2346.36	31
2347.29	31
2348.22	24
2349.15	26
2350.09	30
2351.02	27
2351.95	24
2352.88	23
2353.81	27
2354.74	25
2355.67	26
2356.61	25
2357.54	26
2358.47	30
2359.4	33
2360.33	29
2361.26	25
2362.19	26
2363.12	30
2364.05	23
2364.98	26
2365.91	20
2366.84	24
2367.77	23
2368.7	26
2369.62	23
2370.55	20
2371.48	25
2372.41	26
2373.34	28
2374.27	25
2375.2	28
2376.12	26
2377.05	28
2377.98	29
2378.91	26
2379.83	26
2380.76	27
2381.69	24
2382.62	26
2383.54	25
2384.47	22
2385.4	28
2386.32	24
2387.25	28
2388.18	25
2389.1	27
2390.03	24
2390.95	26
2391.88	26
2392.81	28
2393.73	26
2394.66	22
2395.58	28
2396.51	26
2397.43	22
2398.36	22
2399.28	26
2400.2	26
2401.13	27
2402.05	28
2402.98	30
2403.9	26
2404.83	24
2405.75	24
2406.67	31
2407.6	30
2408.52	27
2409.44	26
2410.37	32
2411.29	26
2412.21	29
2413.13	27
2414.06	28
2414.98	22
2415.9	26
2416.82	30
2417.74	30
2418.67	24
2419.59	29
2420.51	27
2421.43	25
2422.35	26
2423.27	27
2424.19	28
2425.11	31
2426.03	26
2426.96	23
2427.88	30
2428.8	26
2429.72	27
2430.64	28
2431.56	24
2432.48	28
2433.39	30
2434.31	24
2435.23	29
2436.15	21
2437.07	24
2437.99	22
2438.91	30
2439.83	26
2440.75	28
2441.67	28
2442.58	28
2443.5	26
2444.42	30
2445.34	26
2446.26	28
2447.17	29
2448.09	29
2449.01	26
2449.92	30
2450.84	27
2451.76	28
2452.68	28
2453.59	29
2454.51	26
2455.42	26
2456.34	24
2457.26	26
2458.17	29
2459.09	26
2460	30
2460.92	23
2461.83	29
2462.75	29
2463.66	28
2464.58	28
2465.49	25
2466.41	24
2467.32	26
2468.24	24
2469.15	26
2470.07	26
2470.98	28
2471.89	32
2472.81	26
2473.72	29
2474.64	30
2475.55	26
2476.46	30
2477.37	31
2478.29	30
2479.2	26
2480.11	26
2481.03	24
2481.94	28
2482.85	26
2483.76	26
2484.67	21
2485.59	26
2486.5	26
2487.41	32
2488.32	24
2489.23	25
2490.14	25
2491.05	24
2491.97	26
2492.88	27
2493.79	27
2494.7	28
2495.61	24
2496.52	24
2497.43	31
2498.34	30
2499.25	32
2500.16	24
2501.07	28
2501.98	26
2502.89	30
2503.79	32
2504.7	29
2505.61	24
2506.52	28
2507.43	25
2508.34	24
2509.25	24
2510.16	29
2511.06	26
2511.97	28
2512.88	24
2513.79	24
2514.69	25
2515.6	22
2516.51	27
2517.42	27
2518.32	26
2519.23	25
2520.14	26
2521.04	26
2521.95	34
2522.86	26
2523.76	28
2524.67	29
2525.57	18
2526.48	22
2527.39	26
2528.29	32
2529.2	25
2530.1	32
2531.01	26
2531.91	29
2532.82	31
2533.72	24
2534.63	28
2535.53	23
2536.44	26
2537.34	23
2538.24	27
2539.15	26
2540.05	30
2540.96	28
2541.86	30
2542.76	24
2543.67	28
2544.57	30
2545.47	29
2546.37	23
2547.28	28
2548.18	20
2549.08	32
2549.99	20
2550.89	27
2551.79	30
2552.69	23
2553.59	26
2554.49	23
2555.4	22
2556.3	26
2557.2	26
2558.1	27
2559	26
2559.9	33
2560.8	28
2561.7	24
2562.6	28
2563.5	31
2564.4	26
2565.3	29
2566.2	27
2567.1	26
2568	26
2568.9	28
2569.8	27
2570.7	24
2571.6	28
2572.5	26
2573.4	27
2574.3	28
2575.2	24
2576.1	24
2576.99	26
2577.89	24
2578.79	24
2579.69	30
2580.59	29
2581.48	25
2582.38	22
2583.28	30
2584.18	29
2585.07	27
2585.97	24
2586.87	29
2587.76	26
2588.66	30
2589.56	28
2590.45	30
2591.35	22
2592.25	28
2593.14	24
2594.04	24
2594.93	29
2595.83	26
2596.73	27
2597.62	24
2598.52	28
2599.41	28
2600.31	30
2601.2	28
2602.1	31
2602.99	26
2603.88	28
2604.78	30
2605.67	25
2606.57	29
2607.46	29
2608.35	27
2609.25	32
2610.14	28
2611.03	24
2611.93	24
2612.82	23
2613.71	30
2614.61	26
2615.5	29
2616.39	28
2617.29	29
2618.18	29
2619.07	24
2619.96	34
2620.85	22
2621.75	28
2622.64	26
2623.53	23
2624.42	27
2625.31	30
2626.2	27
2627.09	29
2627.98	32
2628.88	20
2629.77	26
2630.66	29
2631.55	24
2632.44	30
2633.33	26
2634.22	26
2635.11	25
2636	24
2636.89	30
2637.78	24
2638.66	26
2639.55	26
2640.44	27
2641.33	30
2642.22	25
2643.11	26
2644	27
2644.89	30
2645.78	26
2646.66	29
2647.55	28
2648.44	29
2649.33	32
2650.21	24
2651.1	28
2651.99	20
2652.88	28
2653.76	26
2654.65	30
2655.54	30
2656.42	28
2657.31	31
2658.2	31
2659.08	28
2659.97	26
2660.86	26
2661.74	26
2662.63	29
2663.51	26
2664.4	23
2665.29	30
2666.17	22
2667.06	28
2667.94	28
2668.83	24
2669.71	25
2670.6	26
2671.48	28
2672.36	26
2673.25	27
2674.13	31
2675.02	29
2675.9	27
2676.78	26
2677.67	28
2678.55	27
2679.43	30
2680.32	26
2681.2	27
2682.08	24
2682.97	30
2683.85	33
2684.73	27
2685.61	34
2686.5	29
2687.38	29
2688.26	31
2689.14	29
2690.03	26
2690.91	27
2691.79	32
2692.67	20
2693.55	30
2694.43	28
2695.31	31
2696.19	28
2697.08	22
2697.96	31
2698.84	26
2699.72	24
2700.6	33
2701.48	28
2702.36	28
2703.24	25
2704.12	26
2705	22
2705.88	26
2706.76	26
2707.64	24
2708.51	26
2709.39	32
2710.27	28
2711.15	24
2712.03	30
2712.91	29
2713.79	30
2714.67	28
2715.54	30
2716.42	31
2717.3	28
2718.18	28
2719.05	29
2719.93	24
2720.81	30
2721.69	26
2722.56	20
2723.44	28
2724.32	30
2725.19	27
2726.07	30
2726.95	22
2727.82	25
2728.7	26
2729.58	24
2730.45	28
2731.33	27
2732.2	20
2733.08	27
2733.95	29
2734.83	31
2735.7	28
2736.58	24
2737.45	26
2738.33	31
2739.2	27
2740.08	22
2740.95	26
2741.83	30
2742.7	26
2743.58	24
2744.45	30
2745.32	33
2746.2	31
2747.07	32
2747.94	24
2748.82	22
2749.69	27
2750.56	28
2751.44	24
2752.31	26
2753.18	26
2754.05	30
2754.93	21
2755.8	28
2756.67	24
2757.54	28
2758.42	24
2759.29	26
2760.16	30
2761.03	25
2761.9	26
2762.77	28
2763.64	33
2764.51	22
2765.38	26
2766.26	28
2767.13	26
2768	28
2768.87	30
2769.74	30
2770.61	28
2771.48	29
2772.35	29
2773.22	27
2774.09	29
2774.96	25
2775.83	24
2776.7	27
2777.56	30
2778.43	30
2779.3	26
2780.17	25
2781.04	28
2781.91	27
2782.78	29
2783.64	25
2784.51	28
2785.38	32
2786.25	27
2787.12	27
2787.98	32
2788.85	26
2789.72	31
2790.59	27
2791.45	28
2792.32	30
2793.19	27
2794.05	27
2794.92	29
2795.79	24
2796.65	27
2797.52	33
2798.38	28
2799.25	24
2800.12	28
2800.98	24
2801.85	27
2802.71	28
2803.58	26
2804.44	24
2805.31	27
2806.17	26
2807.04	29
2807.9	27
2808.77	27
2809.63	28
2810.5	32
2811.36	27
2812.22	30
2813.09	26
2813.95	27
2814.82	30
2815.68	32
2816.54	25
2817.41	29
2818.27	26
2819.13	25
2820	26
2820.86	24
2821.72	31
2822.58	28
2823.45	28
2824.31	29
2825.17	31
2826.03	25
2826.9	28
2827.76	26
2828.62	30
2829.48	28
2830.34	33
2831.2	24
2832.06	29
2832.92	30
2833.79	28
2834.65	31
2835.51	30
2836.37	27
2837.23	26
2838.09	26
2838.95	28
2839.81	30
2840.67	26
2841.53	28
2842.39	26
2843.25	26
2844.11	35
2844.97	32
2845.83	32
2846.68	31
2847.54	36
2848.4	31
2849.26	30
2850.12	30
2850.98	27
2851.84	27
2852.69	28
2853.55	23
2854.41	28
2855.27	31
2856.13	31
2856.98	31
2857.84	24
2858.7	26
2859.56	26
2860.41	27
2861.27	25
2862.13	28
2862.98	29
2863.84	30
2864.7	34
2865.55	29
2866.41	25
2867.27	28
2868.12	34
2868.98	24
2869.83	28
2870.69	29
2871.54	32
2872.4	34
2873.25	32
2874.11	32
2874.96	33
2875.82	28
2876.68	30
2877.53	28
2878.38	36
2879.24	30
2880.09	30
2880.95	36
2881.8	31
2882.65	34
2883.51	34
2884.36	36
2885.22	30
2886.07	34
2886.92	32
2887.77	28
2888.63	35
2889.48	34
2890.33	36
2891.19	36
2892.04	40
2892.89	36
2893.74	43
2894.6	40
2895.45	47
2896.3	45
2897.15	40
2898	45
2898.85	45
2899.71	46
2900.56	48
2901.41	54
2902.26	51
2903.11	53
2903.96	56
2904.81	56
2905.66	52
2906.51	56
2907.36	62
2908.21	58
2909.06	57
2909.91	62
2910.76	53
2911.61	51
2912.46	50
2913.31	47
2914.16	44
2915.01	42
2915.86	45
2916.71	45
2917.56	40
2918.41	41
2919.26	38
2920.1	44
2920.95	38
2921.8	31
2922.65	34
2923.5	34
2924.34	34
2925.19	32
2926.04	32
2926.89	31
2927.74	32
2928.58	32
2929.43	28
2930.28	30
2931.12	28
2931.97	29
2932.82	26
2933.66	34
2934.51	24
2935.36	30
2936.2	29
2937.05	34
2937.89	28
2938.74	22
2939.59	25
2940.43	28
2941.28	29
2942.12	30
2942.97	25
2943.81	32
2944.66	33
2945.5	33
2946.35	30
2947.19	32
2948.04	29
2948.88	30
2949.72	32
2950.57	34
2951.41	26
2952.26	31
2953.1	24
2953.94	28
2954.79	34
2955.63	32
2956.47	32
2957.32	37
2958.16	31
2959	30
2959.85	35
2960.69	35
2961.53	38
2962.37	39
2963.22	39
2964.06	40
2964.9	41
2965.74	38
2966.58	40
2967.42	43
2968.27	36
2969.11	39
2969.95	32
2970.79	35
2971.63	36
2972.47	35
2973.31	35
2974.15	30
2974.99	35
2975.83	38
2976.68	32
2977.52	38
2978.36	24
2979.2	34
2980.04	32
2980.88	30
2981.71	30
2982.55	29
2983.39	31
2984.23	30
2985.07	25
2985.91	31
2986.75	24
2987.59	32
2988.43	25
2989.27	26
2990.1	29
2990.94	29
2991.78	30
2992.62	30
2993.46	27
2994.3	32
2995.13	24
2995.97	33
2996.81	26
2997.64	26
2998.48	32
2999.32	32
