#Acq. time (s)=	3
#Accumulations=	3
#Range (cm-¹)=	100...3000
#Windows=	3
#Autofocus=	Off
#AutoExposure=	Off
#Spike filter=	Multiple accum.
#Delay time (s)=	0
#Binning=	1
#Readout mode=	Signal
#DeNoise=	Off
#ICS correction=	Off
#Dark correction=	Off
#Inst. Process=	Off
#Instrument=	LabRAM HR Evol
#Detector=	Syncerity OE
#Objective=	x100_VIS_LWD
#Grating=	600 (500nm)
#ND Filter=	25%
#Laser=	633nm_Edge
#Hole=	100.021
#Range=	Visible
#Project=	Bolus
#Sample=	B5
#Site=	stripside
#Title=	m16
#Remark=	
#Date=	03.11.2025 19:18
#Acquired=	03.11.2025 19:18:46
100.969	32
102.252	32
103.535	35
104.818	32
106.101	33
107.384	32
108.666	32
109.948	28
111.232	36
112.514	31
113.795	32
115.077	38
116.358	38
117.639	28
118.919	34
120.2	28
121.48	36
122.76	34
124.04	31
125.32	32
126.599	35
127.879	31
129.158	34
130.436	38
131.715	34
132.992	38
134.27	33
135.548	38
136.826	41
138.104	41
139.381	42
140.658	36
141.935	37
143.212	38
144.489	30
145.763	43
147.04	40
148.315	41
149.591	32
150.867	46
152.142	44
153.416	40
154.691	42
155.965	42
157.24	42
158.514	44
159.786	36
161.06	38
162.334	40
163.607	46
164.881	41
166.152	44
167.425	43
168.698	42
169.969	36
171.241	42
172.513	40
173.785	41
175.055	45
176.326	32
177.597	42
178.867	41
180.137	46
181.408	40
182.677	40
183.947	44
185.217	47
186.485	41
187.755	40
189.022	44
190.291	42
191.56	40
192.828	42
194.096	47
195.363	43
196.631	43
197.899	45
199.165	35
200.432	46
201.698	34
202.965	34
204.23	40
205.497	40
206.762	40
208.028	42
209.293	40
210.559	42
211.823	38
213.088	41
214.352	39
215.617	34
216.88	41
218.145	38
219.408	40
220.672	40
221.934	41
223.196	37
224.46	36
225.722	37
226.985	42
228.246	37
229.508	40
230.77	31
232.031	38
233.292	39
234.554	38
235.814	42
237.074	38
238.335	32
239.595	34
240.854	36
242.115	35
243.374	31
244.633	33
245.893	35
247.151	30
248.409	37
249.667	36
250.927	31
252.184	36
253.442	32
254.699	37
255.957	35
257.214	41
258.47	36
259.727	34
260.983	36
262.24	34
263.496	30
264.752	40
266.007	33
267.262	30
268.517	36
269.773	33
271.028	34
272.282	34
273.536	39
274.79	34
276.044	34
277.297	32
278.551	35
279.804	30
281.057	35
282.31	36
283.564	32
284.816	30
286.068	32
287.32	30
288.572	33
289.823	32
291.074	32
292.325	29
293.576	37
294.827	30
296.077	34
297.328	32
298.578	33
299.828	30
301.077	34
302.325	42
303.575	38
304.824	35
306.073	34
307.321	36
308.57	35
309.818	38
311.066	28
312.314	38
313.562	38
314.808	35
316.055	34
317.302	32
318.549	41
319.796	40
321.042	32
322.288	34
323.533	39
324.779	38
326.024	35
327.27	36
328.515	42
329.759	34
331.004	36
332.248	38
333.493	30
334.736	30
335.98	32
337.223	34
338.466	33
339.709	38
340.952	34
342.195	37
343.437	38
344.68	41
345.922	30
347.163	37
348.405	37
349.647	30
350.887	37
352.128	38
353.37	40
354.609	37
355.85	40
357.089	34
358.33	34
359.57	39
360.809	38
362.049	43
363.287	31
364.526	38
365.764	38
367.003	38
368.241	34
369.479	37
370.718	37
371.955	37
373.193	36
374.429	30
375.667	34
376.903	34
378.139	36
379.376	32
380.611	38
381.848	40
383.083	34
384.319	34
385.554	34
386.79	35
388.024	38
389.258	36
390.493	38
391.727	36
392.962	28
394.195	36
395.428	38
396.663	32
397.895	34
399.128	36
400.361	39
401.593	34
402.825	29
404.058	40
405.29	28
406.521	35
407.752	36
408.985	36
410.215	39
411.446	34
412.678	36
413.908	35
415.138	39
416.367	37
417.597	30
418.828	32
420.057	35
421.286	37
422.514	30
423.743	41
424.973	36
426.201	34
427.429	34
428.657	40
429.884	40
431.112	34
432.34	37
433.567	30
434.794	40
436.02	43
437.247	32
438.473	38
439.699	36
440.925	37
442.15	36
443.376	37
444.601	36
445.826	32
447.051	36
448.275	36
449.5	38
450.724	30
451.948	34
453.172	32
454.396	30
455.619	36
456.842	38
458.065	31
459.288	36
460.511	36
461.733	34
462.956	36
464.178	40
465.4	36
466.621	37
467.843	39
469.064	42
470.285	36
471.505	37
472.726	40
473.946	42
475.166	42
476.387	42
477.606	44
478.825	45
480.044	45
481.264	54
482.483	50
483.702	53
484.921	58
486.138	59
487.356	64
488.574	56
489.792	62
491.009	66
492.226	65
493.444	60
494.661	58
495.877	50
497.094	56
498.31	53
499.525	48
500.741	49
501.958	46
503.172	52
504.388	45
505.603	42
506.817	44
508.032	51
509.247	45
510.46	43
511.675	47
512.888	42
514.102	40
515.316	39
516.528	38
517.742	34
518.954	39
520.167	37
521.378	30
522.591	42
523.802	39
525.015	40
526.226	37
527.438	34
528.648	40
529.86	34
531.07	33
532.281	34
533.491	31
534.702	34
535.911	36
537.121	36
538.33	34
539.54	36
540.749	33
541.957	24
543.167	36
544.375	30
545.584	39
546.791	37
547.999	34
549.207	32
550.414	33
551.621	30
552.829	36
554.035	32
555.241	31
556.449	38
557.655	37
558.86	33
560.066	32
561.272	28
562.477	32
563.682	39
564.888	38
566.093	34
567.297	31
568.501	30
569.705	36
570.91	42
572.114	38
573.317	37
574.52	34
575.723	30
576.927	34
578.13	37
579.332	40
580.535	32
581.737	30
582.938	37
584.14	32
585.343	36
586.544	35
587.745	37
588.946	36
590.147	30
591.347	35
592.548	34
593.748	33
594.948	35
596.147	37
597.347	33
598.546	35
599.745	35
600.944	29
602.143	34
603.342	28
604.54	35
605.738	26
606.937	32
608.134	32
609.332	32
610.529	33
611.727	38
612.924	34
614.121	36
615.317	34
616.513	26
617.709	36
618.905	38
620.101	38
621.297	33
622.492	42
623.688	36
624.883	37
626.077	34
627.271	43
628.466	37
629.66	32
630.855	24
632.047	35
633.241	28
634.435	35
635.629	36
636.82	34
638.014	30
639.207	36
640.399	32
641.59	38
642.783	33
643.975	32
645.166	35
646.357	34
647.549	32
648.741	29
649.93	33
651.122	36
652.311	39
653.502	34
654.692	40
655.881	38
657.071	37
658.261	36
659.45	36
660.639	36
661.827	39
663.016	40
664.204	34
665.393	40
666.581	36
667.769	42
668.957	36
670.143	34
671.331	39
672.518	30
673.705	38
674.891	28
676.078	39
677.264	40
678.451	35
679.636	33
680.821	34
682.007	41
683.192	42
684.378	38
685.562	42
686.747	44
687.931	38
689.115	36
690.3	41
691.483	34
692.666	39
693.851	39
695.034	40
696.216	40
697.4	45
698.582	46
699.764	39
700.948	41
702.129	42
703.311	42
704.493	44
705.674	48
706.855	48
708.036	50
709.218	54
710.399	46
711.579	52
712.759	51
713.939	44
715.12	42
716.299	40
717.478	38
718.657	35
719.836	38
721.015	32
722.195	37
723.373	36
724.552	36
725.729	38
726.907	36
728.085	26
729.262	35
730.44	38
731.617	33
732.795	36
733.972	40
735.148	36
736.324	34
737.501	37
738.677	28
739.852	36
741.028	38
742.203	30
743.379	35
744.554	33
745.729	32
746.903	32
748.078	32
749.252	33
750.426	37
751.599	34
752.772	32
753.946	32
755.119	32
756.293	30
757.466	35
758.639	28
759.811	34
760.984	32
762.155	34
763.327	35
764.499	33
765.67	28
766.842	37
768.013	28
769.183	36
770.354	38
771.525	33
772.696	34
773.865	33
775.035	26
776.205	34
777.375	34
778.544	38
779.713	32
780.882	31
782.052	32
783.219	36
784.388	39
785.557	34
786.724	33
787.892	32
789.06	42
790.227	28
791.395	36
792.562	37
793.728	32
794.895	32
796.061	36
797.228	36
798.395	35
799.56	34
800.726	34
801.891	34
803.057	35
804.221	37
805.387	34
806.551	28
807.716	34
808.879	38
810.044	31
811.208	34
812.372	32
813.535	34
814.699	33
815.862	33
817.025	37
818.188	34
819.351	39
820.513	33
821.675	31
822.837	28
823.999	29
825.161	29
826.322	29
827.483	41
828.645	30
829.805	31
830.966	40
832.127	35
833.287	34
834.447	31
835.607	31
836.767	33
837.926	34
839.085	30
840.245	38
841.404	38
842.562	30
843.72	35
844.88	31
846.038	34
847.195	32
848.353	31
849.512	32
850.669	34
851.826	32
852.983	33
854.139	40
855.296	34
856.453	32
857.609	26
858.765	36
859.921	34
861.077	38
862.232	36
863.387	39
864.542	32
865.697	39
866.852	33
868.008	31
869.162	30
870.316	31
871.47	32
872.624	26
873.778	34
874.931	32
876.084	34
877.237	36
878.39	36
879.543	32
880.695	33
881.846	37
882.999	34
884.151	34
885.302	28
886.454	33
887.606	33
888.757	34
889.908	32
891.059	33
892.21	36
893.359	28
894.509	31
895.659	31
896.81	32
897.959	31
899.109	32
900.257	32
901.407	32
902.556	31
903.705	34
904.854	31
906.001	35
907.149	31
908.298	28
909.446	31
910.592	30
911.74	34
912.888	28
914.034	28
915.181	31
916.328	34
917.473	32
918.62	33
919.766	26
920.911	32
922.058	32
923.204	30
924.348	36
925.494	34
926.638	29
927.783	36
928.928	30
930.072	36
931.216	31
932.36	33
933.504	33
934.647	32
935.791	35
936.933	32
938.077	28
939.219	32
940.363	35
941.504	33
942.647	28
943.789	32
944.932	36
946.073	32
947.215	34
948.356	32
949.498	32
950.638	29
951.778	30
952.92	28
954.06	30
955.199	34
956.34	33
957.479	32
958.62	35
959.759	30
960.898	38
962.038	32
963.176	30
964.315	28
965.453	34
966.592	30
967.73	35
968.867	26
970.006	29
971.144	30
972.281	29
973.418	30
974.554	38
975.692	34
976.829	36
977.965	32
979.101	36
980.237	34
981.374	28
982.509	35
983.645	32
984.78	28
985.915	34
987.05	34
988.184	32
989.319	29
990.453	35
991.589	31
992.722	32
993.856	30
994.99	37
996.123	33
997.257	26
998.39	29
999.523	28
1000.66	33
1001.79	29
1002.92	34
1004.05	34
1005.18	34
1006.32	33
1007.45	33
1008.58	34
1009.71	30
1010.84	31
1011.97	35
1013.1	30
1014.23	26
1015.36	26
1016.49	35
1017.62	33
1018.75	30
1019.88	34
1021.01	31
1022.14	39
1023.27	35
1024.4	29
1025.53	35
1026.66	31
1027.79	29
1028.91	28
1030.04	26
1031.17	30
1032.3	32
1033.42	28
1034.55	36
1035.68	31
1036.81	32
1037.93	34
1039.06	36
1040.18	28
1041.31	28
1042.44	29
1043.56	26
1044.69	34
1045.81	32
1046.94	30
1048.06	26
1049.19	30
1050.31	35
1051.44	35
1052.56	32
1053.69	35
1054.81	26
1055.93	30
1057.06	33
1058.18	29
1059.3	26
1060.43	30
1061.55	32
1062.67	33
1063.79	31
1064.92	28
1066.04	31
1067.16	32
1068.28	34
1069.4	31
1070.52	36
1071.65	30
1072.77	37
1073.89	30
1075.01	31
1076.13	30
1077.25	30
1078.37	30
1079.49	28
1080.61	24
1081.73	32
1082.85	28
1083.97	30
1085.09	30
1086.2	29
1087.32	32
1088.44	26
1089.56	30
1090.68	35
1091.8	22
1092.91	28
1094.03	33
1095.15	30
1096.26	28
1097.38	33
1098.5	30
1099.61	33
1100.73	34
1101.85	34
1102.96	28
1104.08	31
1105.19	32
1106.31	26
1107.43	29
1108.54	28
1109.66	32
1110.77	30
1111.88	33
1113	29
1114.11	32
1115.23	31
1116.34	32
1117.46	28
1118.57	30
1119.68	28
1120.8	31
1121.91	33
1123.02	26
1124.13	30
1125.25	28
1126.36	30
1127.47	28
1128.58	26
1129.69	34
1130.8	30
1131.92	32
1133.03	30
1134.14	26
1135.25	30
1136.36	30
1137.47	26
1138.58	28
1139.69	28
1140.8	28
1141.91	29
1143.02	29
1144.13	29
1145.24	24
1146.35	33
1147.46	28
1148.56	28
1149.67	29
1150.78	34
1151.89	24
1153	28
1154.1	34
1155.21	34
1156.32	29
1157.43	30
1158.53	22
1159.64	32
1160.75	30
1161.85	28
1162.96	33
1164.07	26
1165.17	33
1166.28	28
1167.38	20
1168.49	26
1169.59	32
1170.7	28
1171.8	34
1172.91	29
1174.01	27
1175.12	32
1176.22	33
1177.32	31
1178.43	24
1179.53	28
1180.64	35
1181.74	29
1182.84	28
1183.94	29
1185.05	29
1186.15	31
1187.25	31
1188.35	31
1189.46	29
1190.56	24
1191.66	26
1192.76	34
1193.86	22
1194.96	28
1196.06	24.0294
1197.16	28.0045
1198.26	29.9813
1199.37	26.0763
1200.47	29.8721
1201.57	31.8725
1202.67	29.0585
1203.77	31.5824
1204.86	28.8489
1205.96	30.7596
1207.06	20.828
1208.16	28.7668
1209.26	26.0029
1210.36	26.1995
1211.46	27.857
1212.56	27.9989
1213.65	27.3258
1214.75	31.4811
1215.85	31.6373
1216.95	30.8088
1218.04	29.201
1219.14	26.9419
1220.24	30.6929
1221.33	23.9115
1222.43	29.9561
1223.53	27.6126
1224.62	26.1441
1225.72	31.095
1226.82	30.7823
1227.91	26.9755
1229.01	29.2648
1230.1	28.4075
1231.2	25.7346
1232.29	30.1826
1233.39	29.5877
1234.48	29.515
1235.58	30.7159
1236.67	27.6466
1237.77	27.6603
1238.86	29.2525
1239.95	28.1936
1241.05	26.897
1242.14	27.6928
1243.23	28.2941
1244.33	28.4451
1245.42	25.85
1246.51	29.8376
1247.61	30.144
1248.7	27.6295
1249.79	29.4118
1250.88	25.9664
1251.97	29.2019
1253.07	28.4483
1254.16	25.6108
1255.25	30.0283
1256.34	30.5332
1257.43	29.3345
1258.52	27.9755
1259.61	32.1324
1260.7	30.9161
1261.79	28.8137
1262.88	28.7941
1263.97	30.6003
1265.06	30.9137
1266.15	29.2647
1267.24	31.6547
1268.33	29.293
1269.42	29.0114
1270.51	32.0294
1271.6	30.6364
1272.68	26.5544
1273.77	28.0556
1274.86	28.8676
1275.95	27.3464
1277.04	23.3135
1278.12	28.5588
1279.21	28.0989
1280.3	27.8586
1281.39	31.1135
1282.47	26.4444
1283.56	25.5508
1284.65	28.5765
1285.73	26.6089
1286.82	29.4552
1287.91	30.1551
1288.99	26.0606
1290.08	25.9506
1291.16	31.4948
1292.25	27.7527
1293.33	26.3676
1294.42	25.5383
1295.5	25.497
1296.59	29.2794
1297.67	29.6232
1298.76	34.0202
1299.84	35.5222
1300.92	27.6013
1302.01	25.5996
1303.09	29.5276
1304.17	27.4309
1305.26	31.2317
1306.34	24.3241
1307.34	28
1308.43	28
1309.52	32
1310.61	26
1311.7	30
1312.78	28
1313.87	29
1314.96	26
1316.04	28
1317.13	28
1318.22	35
1319.3	29
1320.39	28
1321.48	26
1322.56	28
1323.65	30
1324.73	30
1325.82	22
1326.9	29
1327.99	30
1329.07	24
1330.16	30
1331.24	28
1332.33	30
1333.41	30
1334.5	29
1335.58	31
1336.66	30
1337.75	28
1338.83	27
1339.91	28
1341	32
1342.08	28
1343.16	26
1344.24	26
1345.33	28
1346.41	27
1347.49	30
1348.57	28
1349.65	30
1350.74	27
1351.82	26
1352.9	27
1353.98	29
1355.06	28
1356.14	27
1357.22	28
1358.3	28
1359.38	30
1360.46	32
1361.54	34
1362.62	32
1363.7	32
1364.78	26
1365.86	33
1366.94	26
1368.02	29
1369.09	30
1370.17	26
1371.25	28
1372.33	28
1373.41	26
1374.48	29
1375.56	32
1376.64	32
1377.72	24
1378.79	28
1379.87	36
1380.95	18
1382.02	27
1383.1	29
1384.17	26
1385.25	28
1386.33	33
1387.4	33
1388.48	32
1389.55	29
1390.63	29
1391.7	27
1392.78	26
1393.85	30
1394.93	28
1396	28
1397.07	30
1398.15	28
1399.22	31
1400.3	33
1401.37	35
1402.44	31
1403.52	33
1404.59	30
1405.66	32
1406.73	32
1407.81	34
1408.88	33
1409.95	34
1411.02	30
1412.09	32
1413.17	32
1414.24	30
1415.31	33
1416.38	32
1417.45	28
1418.52	28
1419.59	26
1420.66	33
1421.73	32
1422.8	32
1423.87	33
1424.94	26
1426.01	29
1427.08	32
1428.15	30
1429.22	32
1430.29	28
1431.35	29
1432.42	32
1433.49	30
1434.56	32
1435.63	28
1436.69	27
1437.76	30
1438.83	28
1439.9	30
1440.96	28
1442.03	30
1443.1	24
1444.17	30
1445.23	26
1446.3	27
1447.36	30
1448.43	27
1449.49	30
1450.56	30
1451.63	30
1452.69	28
1453.76	25
1454.82	30
1455.89	26
1456.95	31
1458.01	28
1459.08	27
1460.14	28
1461.21	33
1462.27	31
1463.34	28
1464.4	26
1465.46	28
1466.52	30
1467.59	32
1468.65	28
1469.71	28
1470.77	29
1471.84	30
1472.9	29
1473.96	26
1475.02	25
1476.08	30
1477.15	27
1478.21	26
1479.27	22
1480.33	32
1481.39	24
1482.45	29
1483.51	32
1484.57	26
1485.63	30
1486.69	28
1487.75	28
1488.81	29
1489.87	25
1490.93	28
1491.99	31
1493.05	33
1494.1	31
1495.16	31
1496.22	27
1497.28	30
1498.34	28
1499.4	31
1500.45	30
1501.51	29
1502.57	30
1503.63	28
1504.68	32
1505.74	33
1506.8	36
1507.85	28
1508.91	24
1509.97	31
1511.02	26
1512.08	31
1513.13	28
1514.19	31
1515.24	35
1516.3	26
1517.35	32
1518.41	26
1519.46	26
1520.52	26
1521.57	29
1522.63	26
1523.68	34
1524.73	31
1525.79	32
1526.84	30
1527.9	27
1528.95	29
1530	29
1531.05	33
1532.11	28
1533.16	33
1534.21	34
1535.26	30
1536.32	28
1537.37	29
1538.42	32
1539.47	29
1540.52	31
1541.57	27
1542.63	22
1543.68	32
1544.73	30
1545.78	32
1546.83	27
1547.88	29
1548.93	26
1549.98	31
1551.03	28
1552.08	33
1553.13	28
1554.18	28
1555.23	20
1556.27	26
1557.32	31
1558.37	28
1559.42	28
1560.47	32
1561.52	26
1562.56	30
1563.61	30
1564.66	30
1565.71	30
1566.75	30
1567.8	28
1568.85	34
1569.9	32
1570.94	29
1571.99	29
1573.03	28
1574.08	31
1575.13	27
1576.17	30
1577.22	30
1578.26	26
1579.31	31
1580.35	34
1581.4	28
1582.44	34
1583.49	30
1584.53	26
1585.58	28
1586.62	28
1587.66	28
1588.71	29
1589.75	32
1590.8	27
1591.84	26
1592.88	30
1593.92	28
1594.97	28
1596.01	36
1597.05	25
1598.1	27
1599.14	32
1600.18	32
1601.22	28
1602.26	29
1603.3	29
1604.35	29
1605.39	31
1606.43	29
1607.47	30
1608.51	26
1609.55	30
1610.59	26
1611.63	28
1612.67	26
1613.71	33
1614.75	31
1615.79	32
1616.83	28
1617.87	26
1618.91	29
1619.95	26
1620.99	34
1622.02	26
1623.06	32
1624.1	29
1625.14	31
1626.18	28
1627.21	27
1628.25	31
1629.29	30
1630.33	31
1631.36	30
1632.4	26
1633.44	35
1634.48	28
1635.51	29
1636.55	22
1637.58	32
1638.62	22
1639.66	31
1640.69	29
1641.73	32
1642.76	29
1643.8	28
1644.83	29
1645.87	28
1646.9	30
1647.94	26
1648.97	29
1650	26
1651.04	30
1652.07	29
1653.11	28
1654.14	30
1655.17	28
1656.21	30
1657.24	25
1658.27	30
1659.31	30
1660.34	31
1661.37	31
1662.4	30
1663.43	29
1664.47	30
1665.5	31
1666.53	26
1667.56	28
1668.59	32
1669.62	28
1670.66	26
1671.69	30
1672.72	30
1673.75	27
1674.78	28
1675.81	26
1676.84	29
1677.87	28
1678.9	28
1679.93	29
1680.96	26
1681.98	31
1683.01	29
1684.04	28
1685.07	32
1686.1	29
1687.13	30
1688.16	29
1689.18	32
1690.21	33
1691.24	30
1692.27	29
1693.3	33
1694.32	30
1695.35	26
1696.38	27
1697.4	28
1698.43	26
1699.46	30
1700.48	28
1701.51	30
1702.54	30
1703.56	30
1704.59	32
1705.61	27
1706.64	26
1707.66	28
1708.69	24
1709.71	26
1710.74	25
1711.76	28
1712.79	29
1713.81	30
1714.83	26
1715.86	30
1716.88	32
1717.91	31
1718.93	31
1719.95	28
1720.98	28
1722	26
1723.02	30
1724.04	26
1725.07	30
1726.09	32
1727.11	30
1728.13	30
1729.15	37
1730.18	31
1731.2	30
1732.22	30
1733.24	30
1734.26	31
1735.28	31
1736.3	31
1737.32	32
1738.34	25
1739.36	31
1740.38	33
1741.4	28
1742.42	32
1743.44	28
1744.46	32
1745.48	32
1746.5	29
1747.52	33
1748.54	33
1749.56	31
1750.58	36
1751.6	29
1752.61	23
1753.63	32
1754.65	32
1755.67	27
1756.68	33
1757.7	28
1758.72	28
1759.74	36
1760.75	28
1761.77	26
1762.79	32
1763.8	32
1764.82	28
1765.83	28
1766.85	32
1767.87	25
1768.88	24
1769.9	27
1770.91	30
1771.93	31
1772.94	26
1773.96	26
1774.97	35
1775.99	32
1777	27
1778.02	31
1779.03	20
1780.04	29
1781.06	27
1782.07	30
1783.09	29
1784.1	26
1785.11	31
1786.13	30
1787.14	29
1788.15	25
1789.16	33
1790.18	26
1791.19	30
1792.2	32
1793.21	26
1794.22	28
1795.23	28
1796.25	26
1797.26	31
1798.27	28
1799.28	30
1800.29	22
1801.3	28
1802.31	25
1803.32	33
1804.33	30
1805.34	34
1806.35	30
1807.36	27
1808.37	26
1809.38	30
1810.39	29
1811.4	27
1812.41	28
1813.42	31
1814.42	35
1815.43	26
1816.44	27
1817.45	30
1818.46	24
1819.47	32
1820.47	26
1821.48	24
1822.49	28
1823.49	27
1824.5	28
1825.51	32
1826.52	30
1827.52	30
1828.53	27
1829.53	29
1830.54	30
1831.55	22
1832.55	27
1833.56	27
1834.56	30
1835.57	32
1836.57	27
1837.58	30
1838.58	28
1839.59	30
1840.59	28
1841.6	24
1842.6	30
1843.61	29
1844.61	29
1845.61	28
1846.62	28
1847.62	24
1848.62	26
1849.63	26
1850.63	27
1851.63	24
1852.64	34
1853.64	26
1854.64	34
1855.64	32
1856.64	32
1857.65	32
1858.65	34
1859.65	24
1860.65	30
1861.65	31
1862.65	26
1863.65	31
1864.66	25
1865.66	29
1866.66	30
1867.66	26
1868.66	29
1869.66	24
1870.66	28
1871.66	28
1872.66	28
1873.66	30
1874.66	29
1875.65	29
1876.65	24
1877.65	29
1878.65	30
1879.65	28
1880.65	27
1881.65	26
1882.64	32
1883.64	28
1884.64	30
1885.64	25
1886.63	28
1887.63	32
1888.63	27
1889.63	29
1890.62	28
1891.62	29
1892.62	30
1893.61	26
1894.61	29
1895.6	28
1896.6	24
1897.6	32
1898.59	29
1899.59	22
1900.58	31
1901.58	30
1902.57	30
1903.57	29
1904.56	29
1905.56	31
1906.55	28
1907.54	34
1908.54	26
1909.53	34
1910.53	30
1911.52	24
1912.51	30
1913.51	28
1914.5	29
1915.49	28
1916.49	30
1917.48	28
1918.47	32
1919.46	22
1920.46	31
1921.45	26
1922.44	28
1923.43	28
1924.42	31
1925.41	29
1926.41	26
1927.4	30
1928.39	33
1929.38	29
1930.37	23
1931.36	28
1932.35	27
1933.34	26
1934.33	30
1935.32	33
1936.31	26
1937.3	32
1938.29	30
1939.28	28
1940.27	28
1941.26	25
1942.24	31
1943.23	29
1944.22	31
1945.21	31
1946.2	32
1947.19	32
1948.17	26
1949.16	32
1950.15	29
1951.14	26
1952.12	30
1953.11	30
1954.1	29
1955.09	29
1956.07	28
1957.06	29
1958.05	26
1959.03	27
1960.02	30
1961	25
1961.99	24
1962.98	26
1963.96	26
1964.95	27
1965.93	26
1966.92	24
1967.9	30
1968.89	28
1969.87	29
1970.85	29
1971.84	32
1972.82	22
1973.81	30
1974.79	30
1975.78	29
1976.76	26
1977.74	28
1978.73	31
1979.71	30
1980.69	29
1981.67	31
1982.66	29
1983.64	30
1984.62	24
1985.6	29
1986.59	34
1987.57	32
1988.55	24
1989.53	29
1990.51	24
1991.49	24
1992.47	26
1993.45	26
1994.44	31
1995.42	28
1996.4	22
1997.38	29
1998.36	30
1999.34	24
2000.32	26
2001.3	29
2002.28	26
2003.26	32
2004.24	26
2005.22	22
2006.19	27
2007.17	26
2008.15	28
2009.13	30
2010.11	31
2011.09	24
2012.06	28
2013.04	33
2014.02	22
2015	30
2015.98	24
2016.95	24
2017.93	28
2018.91	30
2019.88	26
2020.86	26
2021.84	29
2022.81	22
2023.79	27
2024.77	22
2025.74	27
2026.72	34
2027.69	28
2028.67	31
2029.65	27
2030.62	25
2031.6	28
2032.57	24
2033.55	30
2034.52	27
2035.5	28
2036.47	30
2037.44	26
2038.42	24
2039.39	26
2040.36	29
2041.34	26
2042.31	28
2043.29	28
2044.26	27
2045.23	29
2046.2	26
2047.18	27
2048.15	28
2049.12	28
2050.09	28
2051.07	27
2052.04	29
2053.01	27
2053.98	25
2054.95	26
2055.93	26
2056.9	26
2057.87	30
2058.84	27
2059.81	28
2060.78	24
2061.75	29
2062.72	30
2063.69	23
2064.66	24
2065.63	24
2066.6	27
2067.57	30
2068.54	26
2069.51	28
2070.48	29
2071.45	24
2072.42	22
2073.38	24
2074.35	29
2075.32	24
2076.29	26
2077.26	25
2078.23	31
2079.19	25
2080.16	26
2081.13	26
2082.1	31
2083.06	23
2084.03	30
2085	26
2085.96	27
2086.93	30
2087.9	26
2088.86	27
2089.83	24
2090.8	26
2091.76	28
2092.73	24
2093.69	22
2094.66	28
2095.62	27
2096.59	28
2097.55	23
2098.52	24
2099.48	27
2100.45	24
2101.41	22
2102.38	26
2103.34	26
2104.31	28
2105.27	27
2106.23	28
2107.2	25
2108.16	26
2109.12	23
2110.09	27
2111.05	23
2112.01	31
2112.98	26
2113.94	27
2114.9	26
2115.86	30
2116.82	24
2117.79	28
2118.75	24
2119.71	30
2120.67	29
2121.63	25
2122.59	32
2123.55	23
2124.52	22
2125.48	22
2126.44	26
2127.4	28
2128.36	22
2129.32	30
2130.28	24
2131.24	29
2132.2	27
2133.16	28
2134.12	26
2135.08	26
2136.04	30
2136.99	28
2137.95	24
2138.91	26
2139.87	22
2140.83	29
2141.79	28
2142.75	24
2143.7	31
2144.66	27
2145.62	27.976
2146.58	29.9144
2147.53	28.9432
2148.49	29.1492
2149.45	27.9253
2150.41	27.1311
2151.36	29.5239
2152.32	25.3455
2153.27	27.7454
2154.23	31.2549
2155.19	26.6959
2156.14	26.7512
2157.1	21.7908
2158.06	26.2566
2159.01	27.7231
2159.97	26.291
2160.92	25.6665
2161.88	29.9521
2162.83	26.0011
2163.79	27.8088
2164.74	22.2048
2165.7	30.7293
2166.65	25.9096
2167.61	26.7511
2168.56	25.5315
2169.51	27.9704
2170.47	24.7883
2171.42	21.1109
2172.38	28.5904
2173.33	22.8676
2174.28	26.9674
2175.24	26.2401
2176.19	26.5128
2177.14	26.1064
2178.09	27.8991
2179.05	28.6409
2180	26.1069
2180.95	28.4985
2181.9	26.6949
2182.86	26.6127
2183.81	26.8506
2184.76	24.2448
2185.71	24.4467
2186.66	27.125
2187.61	27.8554
2188.57	25.2797
2189.52	27.5441
2190.47	25.6713
2191.42	26.0568
2192.37	29.3677
2193.32	27.3981
2194.27	25.9765
2195.22	27.7694
2196.17	26.869
2197.12	27.5868
2198.07	26.879
2199.02	25.4058
2199.97	25.7112
2200.92	28.0674
2201.87	29.5833
2202.82	26.15
2203.76	29.4598
2204.71	26.451
2205.66	24.7687
2206.61	25.2715
2207.56	23.672
2208.51	24.8183
2209.45	26.8222
2210.4	26.9853
2211.35	27.3346
2212.3	26.5535
2213.24	24.6827
2214.19	27.1385
2215.14	29.0807
2216.09	26.0735
2217.03	26.5386
2217.98	25.1198
2218.93	26.14
2219.87	24.0038
2220.82	26.6032
2221.77	25.6468
2222.71	28.9901
2223.66	27.9722
2224.6	24.6208
2225.55	23.0657
2226.49	25.9782
2227.44	27.442
2228.38	25.8813
2229.33	26.5808
2230.27	27.9463
2231.22	27.8884
2232.16	24.5244
2233.11	21.0495
2234.05	23.9172
2235	28.2805
2235.94	28.4091
2236.88	27.3728
2237.83	25.4118
2238.77	24.5401
2239.71	25.0735
2240.66	26.152
2241.6	25.2557
2242	24
2242.95	26
2243.9	24
2244.84	28
2245.79	23
2246.74	28
2247.69	27
2248.63	24
2249.58	28
2250.53	26
2251.47	32
2252.42	29
2253.37	24
2254.31	30
2255.26	28
2256.2	27
2257.15	22
2258.1	28
2259.04	27
2259.99	24
2260.93	22
2261.88	30
2262.82	28
2263.77	25
2264.71	28
2265.65	22
2266.6	26
2267.54	28
2268.49	30
2269.43	24
2270.38	26
2271.32	32
2272.26	24
2273.21	27
2274.15	31
2275.09	24
2276.04	26
2276.98	30
2277.92	26
2278.86	27
2279.81	27
2280.75	26
2281.69	29
2282.63	27
2283.57	27
2284.52	26
2285.46	26
2286.4	22
2287.34	27
2288.28	20
2289.22	28
2290.16	24
2291.1	27
2292.04	28
2292.98	26
2293.93	30
2294.86	26
2295.8	30
2296.74	24
2297.69	27
2298.62	30
2299.56	29
2300.5	24
2301.44	28
2302.38	27
2303.32	27
2304.26	24
2305.2	28
2306.14	26
2307.07	27
2308.01	28
2308.95	23
2309.89	26
2310.83	24
2311.76	28
2312.7	29
2313.64	30
2314.58	32
2315.51	24
2316.45	28
2317.39	24
2318.32	24
2319.26	25
2320.2	28
2321.13	29
2322.07	26
2323	29
2323.94	25
2324.88	26
2325.81	28
2326.75	28
2327.68	22
2328.62	28
2329.55	25
2330.49	29
2331.42	29
2332.36	27
2333.29	31
2334.22	23
2335.16	26
2336.09	28
2337.03	28
2337.96	30
2338.89	25
2339.83	30
2340.76	29
2341.69	28
2342.63	25
2343.56	29
2344.49	24
2345.43	27
2346.36	28
2347.29	29
2348.22	30
2349.15	24
2350.09	31
2351.02	27
2351.95	22
2352.88	28
2353.81	25
2354.74	26
2355.67	32
2356.61	22
2357.54	32
2358.47	25
2359.4	24
2360.33	23
2361.26	28
2362.19	26
2363.12	22
2364.05	21
2364.98	30
2365.91	26
2366.84	28
2367.77	30
2368.7	28
2369.62	22
2370.55	26
2371.48	26
2372.41	29
2373.34	22
2374.27	24
2375.2	25
2376.12	26
2377.05	29
2377.98	26
2378.91	27
2379.83	26
2380.76	31
2381.69	26
2382.62	28
2383.54	29
2384.47	25
2385.4	24
2386.32	26
2387.25	27
2388.18	28
2389.1	26
2390.03	26
2390.95	29
2391.88	28
2392.81	28
2393.73	28
2394.66	27
2395.58	30
2396.51	26
2397.43	26
2398.36	24
2399.28	27
2400.2	20
2401.13	24
2402.05	25
2402.98	24
2403.9	23
2404.83	25
2405.75	27
2406.67	27
2407.6	27
2408.52	30
2409.44	28
2410.37	24
2411.29	27
2412.21	32
2413.13	29
2414.06	24
2414.98	24
2415.9	28
2416.82	29
2417.74	26
2418.67	27
2419.59	25
2420.51	29
2421.43	28
2422.35	24
2423.27	29
2424.19	33
2425.11	25
2426.03	30
2426.96	28
2427.88	28
2428.8	28
2429.72	26
2430.64	25
2431.56	28
2432.48	26
2433.39	24
2434.31	26
2435.23	27
2436.15	30
2437.07	24
2437.99	24
2438.91	31
2439.83	24
2440.75	27
2441.67	30
2442.58	27
2443.5	27
2444.42	25
2445.34	24
2446.26	26
2447.17	26
2448.09	30
2449.01	26
2449.92	26
2450.84	30
2451.76	30
2452.68	29
2453.59	24
2454.51	28
2455.42	24
2456.34	24
2457.26	24
2458.17	28
2459.09	24
2460	24
2460.92	30
2461.83	30
2462.75	23
2463.66	32
2464.58	26
2465.49	34
2466.41	24
2467.32	26
2468.24	25
2469.15	27
2470.07	30
2470.98	28
2471.89	22
2472.81	31
2473.72	27
2474.64	30
2475.55	29
2476.46	30
2477.37	28
2478.29	27
2479.2	32
2480.11	22
2481.03	27
2481.94	24
2482.85	28
2483.76	27
2484.67	24
2485.59	26
2486.5	26
2487.41	26
2488.32	34
2489.23	26
2490.14	18
2491.05	30
2491.97	22
2492.88	26
2493.79	28
2494.7	25
2495.61	32
2496.52	28
2497.43	29
2498.34	27
2499.25	30
2500.16	24
2501.07	25
2501.98	30
2502.89	28
2503.79	27
2504.7	28
2505.61	28
2506.52	24
2507.43	26
2508.34	26
2509.25	33
2510.16	26
2511.06	30
2511.97	26
2512.88	25
2513.79	30
2514.69	28
2515.6	24
2516.51	24
2517.42	31
2518.32	28
2519.23	28
2520.14	28
2521.04	29
2521.95	26
2522.86	24
2523.76	24
2524.67	29
2525.57	20
2526.48	22
2527.39	27
2528.29	25
2529.2	30
2530.1	24
2531.01	22
2531.91	29
2532.82	32
2533.72	24
2534.63	24
2535.53	34
2536.44	28
2537.34	25
2538.24	26
2539.15	26
2540.05	26
2540.96	29
2541.86	29
2542.76	28
2543.67	22
2544.57	32
2545.47	29
2546.37	26
2547.28	26
2548.18	28
2549.08	31
2549.99	33
2550.89	27
2551.79	26
2552.69	20
2553.59	24
2554.49	30
2555.4	30
2556.3	26
2557.2	29
2558.1	30
2559	29
2559.9	26
2560.8	33
2561.7	27
2562.6	25
2563.5	26
2564.4	28
2565.3	30
2566.2	28
2567.1	26
2568	24
2568.9	29
2569.8	33
2570.7	29
2571.6	26
2572.5	30
2573.4	26
2574.3	27
2575.2	27
2576.1	28
2576.99	24
2577.89	31
2578.79	29
2579.69	31
2580.59	26
2581.48	29
2582.38	22
2583.28	27
2584.18	28
2585.07	31
2585.97	28
2586.87	30
2587.76	34
2588.66	26
2589.56	22
2590.45	28
2591.35	26
2592.25	27
2593.14	27
2594.04	28
2594.93	28
2595.83	29
2596.73	24
2597.62	26
2598.52	28
2599.41	27
2600.31	28
2601.2	26
2602.1	26
2602.99	28
2603.88	28
2604.78	24
2605.67	26
2606.57	28
2607.46	31
2608.35	28
2609.25	32
2610.14	28
2611.03	31
2611.93	24
2612.82	30
2613.71	29
2614.61	26
2615.5	24
2616.39	24
2617.29	28
2618.18	27
2619.07	26
2619.96	23
2620.85	31
2621.75	28
2622.64	28
2623.53	29
2624.42	26
2625.31	27
2626.2	24
2627.09	24
2627.98	32
2628.88	30
2629.77	30
2630.66	26
2631.55	28
2632.44	28
2633.33	31
2634.22	24
2635.11	29
2636	23
2636.89	22
2637.78	25
2638.66	26
2639.55	30
2640.44	30
2641.33	28
2642.22	33
2643.11	27
2644	27
2644.89	24
2645.78	28
2646.66	26
2647.55	29
2648.44	29
2649.33	30
2650.21	30
2651.1	30
2651.99	24
2652.88	24
2653.76	22
2654.65	28
2655.54	30
2656.42	22
2657.31	26
2658.2	28
2659.08	26
2659.97	34
2660.86	30
2661.74	26
2662.63	27
2663.51	26
2664.4	28
2665.29	28
2666.17	31
2667.06	28
2667.94	31
2668.83	30
2669.71	27
2670.6	29
2671.48	28
2672.36	20
2673.25	22
2674.13	22
2675.02	26
2675.9	24
2676.78	35
2677.67	27
2678.55	26
2679.43	25
2680.32	22
2681.2	34
2682.08	29
2682.97	29
2683.85	26
2684.73	28
2685.61	28
2686.5	27
2687.38	28
2688.26	28
2689.14	22
2690.03	24
2690.91	31
2691.79	28
2692.67	27
2693.55	29
2694.43	24
2695.31	26
2696.19	24
2697.08	28
2697.96	26
2698.84	24
2699.72	24
2700.6	27
2701.48	28
2702.36	30
2703.24	26
2704.12	30
2705	27
2705.88	30
2706.76	32
2707.64	24
2708.51	24
2709.39	24
2710.27	22
2711.15	30
2712.03	24
2712.91	27
2713.79	22
2714.67	28
2715.54	25
2716.42	24
2717.3	29
2718.18	30
2719.05	25
2719.93	30
2720.81	26
2721.69	29
2722.56	27
2723.44	25
2724.32	26
2725.19	25
2726.07	31
2726.95	29
2727.82	23
2728.7	30
2729.58	29
2730.45	24
2731.33	24
2732.2	26
2733.08	26
2733.95	28
2734.83	26
2735.7	26
2736.58	26
2737.45	28
2738.33	30
2739.2	30
2740.08	26
2740.95	26
2741.83	22
2742.7	30
2743.58	31
2744.45	22
2745.32	25
2746.2	25
2747.07	28
2747.94	29
2748.82	28
2749.69	22
2750.56	27
2751.44	26
2752.31	33
2753.18	26
2754.05	26
2754.93	28
2755.8	28
2756.67	26
2757.54	29
2758.42	25
2759.29	28
2760.16	28
2761.03	30
2761.9	26
2762.77	24
2763.64	28
2764.51	28
2765.38	29
2766.26	28
2767.13	30
2768	28
2768.87	26
2769.74	25
2770.61	30
2771.48	31
2772.35	24
2773.22	31
2774.09	28
2774.96	27
2775.83	28
2776.7	27
2777.56	30
2778.43	30
2779.3	31
2780.17	26
2781.04	30
2781.91	28
2782.78	27
2783.64	32
2784.51	29
2785.38	28
2786.25	24
2787.12	25
2787.98	29
2788.85	28
2789.72	25
2790.59	32
2791.45	29
2792.32	29
2793.19	26
2794.05	26
2794.92	35
2795.79	29
2796.65	25
2797.52	28
2798.38	24
2799.25	30
2800.12	31
2800.98	24
2801.85	28
2802.71	32
2803.58	31
2804.44	29
2805.31	24
2806.17	30
2807.04	24
2807.9	30
2808.77	34
2809.63	35
2810.5	31
2811.36	24
2812.22	32
2813.09	30
2813.95	32
2814.82	30
2815.68	30
2816.54	29
2817.41	26
2818.27	24
2819.13	24
2820	31
2820.86	24
2821.72	24
2822.58	24
2823.45	26
2824.31	33
2825.17	37
2826.03	32
2826.9	33
2827.76	28
2828.62	30
2829.48	26
2830.34	31
2831.2	26
2832.06	30
2832.92	22
2833.79	31
2834.65	28
2835.51	27
2836.37	35
2837.23	30
2838.09	31
2838.95	26
2839.81	29
2840.67	24
2841.53	31
2842.39	30
2843.25	29
2844.11	26
2844.97	26
2845.83	26
2846.68	26
2847.54	28
2848.4	31
2849.26	35
2850.12	30
2850.98	32
2851.84	25
2852.69	27
2853.55	35
2854.41	25
2855.27	24
2856.13	26
2856.98	31
2857.84	30
2858.7	26
2859.56	28
2860.41	31
2861.27	30
2862.13	26
2862.98	29
2863.84	26
2864.7	31
2865.55	28
2866.41	30
2867.27	24
2868.12	34
2868.98	30
2869.83	28
2870.69	32
2871.54	31
2872.4	24
2873.25	30
2874.11	32
2874.96	34
2875.82	25
2876.68	32
2877.53	28
2878.38	25
2879.24	32
2880.09	34
2880.95	28
2881.8	30
2882.65	32
2883.51	28
2884.36	37
2885.22	31
2886.07	29
2886.92	36
2887.77	32
2888.63	33
2889.48	38
2890.33	39
2891.19	40
2892.04	37
2892.89	44
2893.74	38
2894.6	43
2895.45	38
2896.3	42
2897.15	42
2898	40
2898.85	56
2899.71	48
2900.56	52
2901.41	55
2902.26	59
2903.11	56
2903.96	66
2904.81	63
2905.66	59
2906.51	58
2907.36	61
2908.21	58
2909.06	58
2909.91	57
2910.76	58
2911.61	59
2912.46	56
2913.31	46
2914.16	53
2915.01	44
2915.86	39
2916.71	41
2917.56	34
2918.41	42
2919.26	38
2920.1	39
2920.95	34
2921.8	33
2922.65	32
2923.5	36
2924.34	28
2925.19	31
2926.04	33
2926.89	34
2927.74	34
2928.58	35
2929.43	26
2930.28	32
2931.12	33
2931.97	26
2932.82	32
2933.66	32
2934.51	31
2935.36	26
2936.2	32
2937.05	32
2937.89	28
2938.74	36
2939.59	30
2940.43	34
2941.28	30
2942.12	29
2942.97	29
2943.81	34
2944.66	28
2945.5	29
2946.35	29
2947.19	28
2948.04	28
2948.88	32
2949.72	28
2950.57	34
2951.41	36
2952.26	30
2953.1	32
2953.94	34
2954.79	37
2955.63	32
2956.47	33
2957.32	34
2958.16	34
2959	37
2959.85	40
2960.69	40
2961.53	34
2962.37	38
2963.22	45
2964.06	39
2964.9	39
2965.74	47
2966.58	43
2967.42	38
2968.27	42
2969.11	42
2969.95	42
2970.79	42
2971.63	36
2972.47	38
2973.31	36
2974.15	32
2974.99	34
2975.83	36
2976.68	36
2977.52	35
2978.36	33
2979.2	34
2980.04	33
2980.88	33
2981.71	31
2982.55	30
2983.39	31
2984.23	36
2985.07	29
2985.91	30
2986.75	30
2987.59	22
2988.43	31
2989.27	24
2990.1	24
2990.94	30
2991.78	22
2992.62	29
2993.46	31
2994.3	29
2995.13	28
2995.97	28
2996.81	31
2997.64	32
2998.48	24
2999.32	27
