#Acq. time (s)=	3
#Accumulations=	3
#Range (cm-¹)=	100...3000
#Windows=	3
#Autofocus=	Off
#AutoExposure=	Off
#Spike filter=	Multiple accum.
#Delay time (s)=	0
#Binning=	1
#Readout mode=	Signal
#DeNoise=	Off
#ICS correction=	Off
#Dark correction=	Off
#Inst. Process=	Off
#Instrument=	LabRAM HR Evol
#Detector=	Syncerity OE
#Objective=	x100_VIS_LWD
#Grating=	600 (500nm)
#ND Filter=	25%
#Laser=	633nm_Edge
#Hole=	100.021
#Range=	Visible
#Project=	Bolus
#Sample=	B5
#Site=	stripside
#Title=	m03
#Remark=	
#Date=	03.11.2025 19:01
#Acquired=	03.11.2025 19:01:25
100.969	40
102.252	38
103.535	45
104.818	32
106.101	34
107.384	40
108.666	40
109.948	40
111.232	36
112.514	36
113.795	45
115.077	34
116.358	35
117.639	37
118.919	36
120.2	36
121.48	41
122.76	36
124.04	37
125.32	36
126.599	36
127.879	36
129.158	41
130.436	38
131.715	46
132.992	36
134.27	43
135.548	44
136.826	46
138.104	46
139.381	45
140.658	39
141.935	46
143.212	48
144.489	44
145.763	44
147.04	42
148.315	46
149.591	44
150.867	44
152.142	47
153.416	51
154.691	49
155.965	48
157.24	52
158.514	48
159.786	46
161.06	43
162.334	46
163.607	50
164.881	46
166.152	46
167.425	45
168.698	50
169.969	39
171.241	44
172.513	45
173.785	44
175.055	44
176.326	50
177.597	48
178.867	47
180.137	46
181.408	38
182.677	49
183.947	51
185.217	46
186.485	46
187.755	48
189.022	48
190.291	46
191.56	43
192.828	46
194.096	42
195.363	45
196.631	42
197.899	49
199.165	44
200.432	51
201.698	44
202.965	45
204.23	42
205.497	39
206.762	44
208.028	45
209.293	44
210.559	41
211.823	42
213.088	39
214.352	41
215.617	48
216.88	40
218.145	49
219.408	44
220.672	40
221.934	30
223.196	42
224.46	38
225.722	39
226.985	39
228.246	45
229.508	43
230.77	42
232.031	37
233.292	39
234.554	41
235.814	42
237.074	40
238.335	40
239.595	43
240.854	39
242.115	37
243.374	38
244.633	40
245.893	41
247.151	30
248.409	41
249.667	40
250.927	37
252.184	42
253.442	39
254.699	44
255.957	42
257.214	39
258.47	34
259.727	42
260.983	38
262.24	40
263.496	41
264.752	38
266.007	38
267.262	40
268.517	38
269.773	40
271.028	36
272.282	34
273.536	43
274.79	37
276.044	38
277.297	42
278.551	39
279.804	38
281.057	40
282.31	32
283.564	40
284.816	37
286.068	40
287.32	35
288.572	39
289.823	42
291.074	41
292.325	36
293.576	42
294.827	34
296.077	39
297.328	38
298.578	36
299.828	39
301.077	41
302.325	40
303.575	39
304.824	42
306.073	39
307.321	40
308.57	34
309.818	32
311.066	39
312.314	37
313.562	36
314.808	44
316.055	42
317.302	40
318.549	38
319.796	34
321.042	36
322.288	40
323.533	41
324.779	36
326.024	42
327.27	38
328.515	38
329.759	36
331.004	36
332.248	42
333.493	42
334.736	43
335.98	35
337.223	44
338.466	38
339.709	36
340.952	38
342.195	45
343.437	38
344.68	40
345.922	40
347.163	37
348.405	39
349.647	37
350.887	36
352.128	34
353.37	40
354.609	48
355.85	40
357.089	38
358.33	43
359.57	36
360.809	36
362.049	37
363.287	43
364.526	36
365.764	40
367.003	39
368.241	40
369.479	40
370.718	38
371.955	42
373.193	40
374.429	38
375.667	38
376.903	32
378.139	42
379.376	34
380.611	39
381.848	40
383.083	41
384.319	37
385.554	42
386.79	36
388.024	38
389.258	40
390.493	34
391.727	40
392.962	36
394.195	40
395.428	34
396.663	39
397.895	40
399.128	38
400.361	37
401.593	37
402.825	36
404.058	34
405.29	40
406.521	36
407.752	36
408.985	40
410.215	38
411.446	42
412.678	35
413.908	46
415.138	38
416.367	40
417.597	40
418.828	37
420.057	36
421.286	36
422.514	34
423.743	39
424.973	42
426.201	41
427.429	39
428.657	41
429.884	41
431.112	43
432.34	35
433.567	40
434.794	37
436.02	44
437.247	38
438.473	34
439.699	37
440.925	38
442.15	36
443.376	43
444.601	39
445.826	37
447.051	45
448.275	30
449.5	37
450.724	38
451.948	32
453.172	42
454.396	37
455.619	40
456.842	38
458.065	41
459.288	34
460.511	37
461.733	43
462.956	38
464.178	48
465.4	41
466.621	39
467.843	40
469.064	40
470.285	42
471.505	44
472.726	53
473.946	48
475.166	44
476.387	42
477.606	42
478.825	49
480.044	48
481.264	53
482.483	56
483.702	60
484.921	58
486.138	64
487.356	64
488.574	60
489.792	62
491.009	62
492.226	58
493.444	59
494.661	54
495.877	58
497.094	55
498.31	56
499.525	56
500.741	47
501.958	56
503.172	50
504.388	45
505.603	36
506.817	46
508.032	51
509.247	47
510.46	46
511.675	48
512.888	42
514.102	46
515.316	46
516.528	42
517.742	40
518.954	38
520.167	42
521.378	40
522.591	50
523.802	48
525.015	44
526.226	42
527.438	41
528.648	43
529.86	42
531.07	38
532.281	47
533.491	46
534.702	41
535.911	39
537.121	41
538.33	42
539.54	39
540.749	38
541.957	45
543.167	42
544.375	44
545.584	43
546.791	38
547.999	39
549.207	38
550.414	32
551.621	44
552.829	41
554.035	41
555.241	35
556.449	35
557.655	38
558.86	38
560.066	36
561.272	44
562.477	37
563.682	40
564.888	36
566.093	42
567.297	43
568.501	38
569.705	41
570.91	34
572.114	34
573.317	40
574.52	44
575.723	40
576.927	34
578.13	39
579.332	38
580.535	36
581.737	41
582.938	43
584.14	40
585.343	40
586.544	43
587.745	40
588.946	34
590.147	41
591.347	40
592.548	34
593.748	40
594.948	37
596.147	44
597.347	44
598.546	43
599.745	35
600.944	43
602.143	36
603.342	41
604.54	40
605.738	42
606.937	38
608.134	38
609.332	38
610.529	38
611.727	33
612.924	40
614.121	36
615.317	38
616.513	43
617.709	39
618.905	38
620.101	40
621.297	40
622.492	35
623.688	38
624.883	42
626.077	41
627.271	43
628.466	39
629.66	40
630.855	37
632.047	43
633.241	42
634.435	37
635.629	48
636.82	38
638.014	42
639.207	40
640.399	44
641.59	43
642.783	38
643.975	39
645.166	40
646.357	36
647.549	36
648.741	38
649.93	38
651.122	38
652.311	26
653.502	43
654.692	38
655.881	38
657.071	38
658.261	40
659.45	36
660.639	42
661.827	39
663.016	40
664.204	47
665.393	40
666.581	42
667.769	39
668.957	39
670.143	38
671.331	43
672.518	41
673.705	39
674.891	40
676.078	45
677.264	42
678.451	44
679.636	41
680.821	42
682.007	44
683.192	43
684.378	46
685.562	45
686.747	47
687.931	46
689.115	44
690.3	30
691.483	38
692.666	48
693.851	45
695.034	41
696.216	45
697.4	40
698.582	42
699.764	42
700.948	46
702.129	40
703.311	49
704.493	51
705.674	47
706.855	50
708.036	54
709.218	62
710.399	50
711.579	54
712.759	47
713.939	53
715.12	45
716.299	48
717.478	46
718.657	42
719.836	40
721.015	42
722.195	40
723.373	38
724.552	46
725.729	34
726.907	40
728.085	38
729.262	40
730.44	42
731.617	43
732.795	32
733.972	40
735.148	38
736.324	43
737.501	43
738.677	30
739.852	39
741.028	41
742.203	38
743.379	38
744.554	39
745.729	37
746.903	36
748.078	42
749.252	36
750.426	43
751.599	41
752.772	39
753.946	39
755.119	32
756.293	44
757.466	42
758.639	41
759.811	36
760.984	42
762.155	36
763.327	36
764.499	41
765.67	40
766.842	40
768.013	38
769.183	37
770.354	42
771.525	40
772.696	42
773.865	38
775.035	39
776.205	42
777.375	38
778.544	40
779.713	42
780.882	43
782.052	43
783.219	42
784.388	42
785.557	42
786.724	46
787.892	42
789.06	40
790.227	42
791.395	38
792.562	43
793.728	40
794.895	38
796.061	40
797.228	46
798.395	38
799.56	38
800.726	38
801.891	40
803.057	36
804.221	39
805.387	36
806.551	42
807.716	33
808.879	43
810.044	40
811.208	41
812.372	42
813.535	41
814.699	45
815.862	44
817.025	42
818.188	39
819.351	43
820.513	35
821.675	38
822.837	40
823.999	42
825.161	43
826.322	39
827.483	48
828.645	43
829.805	33
830.966	45
832.127	42
833.287	38
834.447	42
835.607	36
836.767	34
837.926	36
839.085	34
840.245	44
841.404	38
842.562	41
843.72	42
844.88	42
846.038	38
847.195	34
848.353	35
849.512	38
850.669	38
851.826	41
852.983	37
854.139	30
855.296	42
856.453	37
857.609	36
858.765	36
859.921	40
861.077	40
862.232	40
863.387	46
864.542	40
865.697	38
866.852	41
868.008	39
869.162	38
870.316	36
871.47	45
872.624	40
873.778	40
874.931	42
876.084	39
877.237	37
878.39	39
879.543	42
880.695	42
881.846	38
882.999	40
884.151	39
885.302	39
886.454	41
887.606	37
888.757	36
889.908	39
891.059	42
892.21	38
893.359	36
894.509	40
895.659	41
896.81	36
897.959	32
899.109	40
900.257	42
901.407	38
902.556	38
903.705	40
904.854	34
906.001	36
907.149	40
908.298	38
909.446	36
910.592	42
911.74	46
912.888	38
914.034	36
915.181	39
916.328	35
917.473	38
918.62	40
919.766	34
920.911	37
922.058	38
923.204	38
924.348	39
925.494	40
926.638	40
927.783	40
928.928	33
930.072	36
931.216	34
932.36	38
933.504	38
934.647	34
935.791	36
936.933	35
938.077	38
939.219	38
940.363	37
941.504	40
942.647	34
943.789	38
944.932	34
946.073	39
947.215	30
948.356	40
949.498	30
950.638	38
951.778	36
952.92	41
954.06	39
955.199	38
956.34	36
957.479	38
958.62	38
959.759	40
960.898	37
962.038	36
963.176	40
964.315	34
965.453	36
966.592	34
967.73	38
968.867	39
970.006	41
971.144	41
972.281	40
973.418	37
974.554	40
975.692	37
976.829	42
977.965	35
979.101	39
980.237	36
981.374	37
982.509	42
983.645	35
984.78	38
985.915	35
987.05	35
988.184	39
989.319	36
990.453	38
991.589	36
992.722	32
993.856	36
994.99	34
996.123	39
997.257	40
998.39	32
999.523	36
1000.66	40
1001.79	38
1002.92	33
1004.05	36
1005.18	37
1006.32	39
1007.45	42
1008.58	40
1009.71	40
1010.84	37
1011.97	38
1013.1	32
1014.23	44
1015.36	30
1016.49	41
1017.62	41
1018.75	35
1019.88	36
1021.01	34
1022.14	32
1023.27	37
1024.4	35
1025.53	41
1026.66	36
1027.79	37
1028.91	39
1030.04	40
1031.17	40
1032.3	36
1033.42	38
1034.55	40
1035.68	39
1036.81	32
1037.93	36
1039.06	36
1040.18	36
1041.31	38
1042.44	34
1043.56	30
1044.69	37
1045.81	39
1046.94	38
1048.06	34
1049.19	32
1050.31	37
1051.44	34
1052.56	30
1053.69	45
1054.81	44
1055.93	37
1057.06	28
1058.18	32
1059.3	33
1060.43	34
1061.55	33
1062.67	32
1063.79	36
1064.92	38
1066.04	36
1067.16	42
1068.28	32
1069.4	35
1070.52	36
1071.65	39
1072.77	41
1073.89	40
1075.01	36
1076.13	37
1077.25	36
1078.37	36
1079.49	32
1080.61	35
1081.73	34
1082.85	32
1083.97	33
1085.09	32
1086.2	32
1087.32	33
1088.44	34
1089.56	37
1090.68	36
1091.8	36
1092.91	38
1094.03	37
1095.15	34
1096.26	43
1097.38	37
1098.5	34
1099.61	33
1100.73	32
1101.85	39
1102.96	35
1104.08	42
1105.19	40
1106.31	36
1107.43	37
1108.54	36
1109.66	30
1110.77	34
1111.88	30
1113	40
1114.11	34
1115.23	38
1116.34	36
1117.46	28
1118.57	32
1119.68	40
1120.8	36
1121.91	36
1123.02	34
1124.13	37
1125.25	35
1126.36	35
1127.47	35
1128.58	34
1129.69	34
1130.8	32
1131.92	37
1133.03	30
1134.14	37
1135.25	34
1136.36	36
1137.47	36
1138.58	39
1139.69	30
1140.8	36
1141.91	28
1143.02	37
1144.13	34
1145.24	37
1146.35	34
1147.46	37
1148.56	34
1149.67	34
1150.78	41
1151.89	36
1153	34
1154.1	36
1155.21	40
1156.32	32
1157.43	43
1158.53	38
1159.64	34
1160.75	40
1161.85	36
1162.96	33
1164.07	37
1165.17	40
1166.28	28
1167.38	39
1168.49	34
1169.59	32
1170.7	33
1171.8	32
1172.91	38
1174.01	30
1175.12	35
1176.22	28
1177.32	28
1178.43	32
1179.53	38
1180.64	24
1181.74	34
1182.84	34
1183.94	32
1185.05	33
1186.15	38
1187.25	34
1188.35	30
1189.46	35
1190.56	30
1191.66	38
1192.76	34
1193.86	36
1194.96	32
1196.06	37.9706
1197.16	33.9457
1198.26	33.9734
1199.37	37.8552
1200.47	30.0397
1201.57	31.0343
1202.67	31.9948
1203.77	34.0553
1204.86	34.9844
1205.96	34.0101
1207.06	37.5793
1208.16	29.6297
1209.26	39.3188
1210.36	39.0084
1211.46	39.2909
1212.56	34.7739
1213.65	36.3869
1214.75	35.1127
1215.85	33.3392
1216.95	33.1074
1218.04	35.0055
1219.14	30.9856
1220.24	35.7307
1221.33	36.7235
1222.43	34.0828
1223.53	30.6126
1224.62	34.7187
1225.72	33.5237
1226.82	31.5947
1227.91	34.5938
1229.01	36.4363
1230.1	34.8465
1231.2	35.5133
1232.29	31.4747
1233.39	25.7251
1234.48	33.5938
1235.58	33.5684
1236.67	32.935
1237.77	32.2451
1238.86	35.141
1239.95	32.1115
1241.05	34.3871
1242.14	31.7058
1243.23	32.9449
1244.33	35.6912
1245.42	29.7307
1246.51	26.5939
1247.61	30.327
1248.7	32.4755
1249.79	32.6765
1250.88	33.1487
1251.97	37.8409
1253.07	34.4853
1254.16	33.8157
1255.25	30.6003
1256.34	29.4084
1257.43	32.1791
1258.52	30.7107
1259.61	36.7059
1260.7	35.4167
1261.79	33.928
1262.88	35.2383
1263.97	34.3915
1265.06	34.5822
1266.15	32.7353
1267.24	33.8188
1268.33	34.6267
1269.42	35.4966
1270.51	33.3431
1271.6	33.3547
1272.68	33.2478
1273.77	32.3726
1274.86	33.8426
1275.95	32.5019
1277.04	28.3097
1278.12	31.3461
1279.21	31
1280.3	32.3308
1281.39	32.5952
1282.47	33.854
1283.56	32.2236
1284.65	31.7775
1285.73	30.9826
1286.82	34.0451
1287.91	32.2693
1288.99	33.4741
1290.08	30.7156
1291.16	32.9951
1292.25	32.9439
1293.33	31.0954
1294.42	32.6457
1295.5	30.64
1296.59	32.8563
1297.67	32.3275
1298.76	26.9962
1299.84	32.3186
1300.92	31.774
1302.01	28.4464
1303.09	29.4239
1304.17	32.9874
1305.26	32.1999
1306.34	34.6857
1307.34	31
1308.43	30
1309.52	32
1310.61	36
1311.7	27
1312.78	28
1313.87	36
1314.96	36
1316.04	32
1317.13	34
1318.22	34
1319.3	28
1320.39	36
1321.48	30
1322.56	30
1323.65	37
1324.73	32
1325.82	27
1326.9	32
1327.99	36
1329.07	34
1330.16	34
1331.24	26
1332.33	29
1333.41	24
1334.5	29
1335.58	28
1336.66	30
1337.75	37
1338.83	33
1339.91	32
1341	36
1342.08	32
1343.16	31
1344.24	33
1345.33	31
1346.41	34
1347.49	33
1348.57	34
1349.65	30
1350.74	29
1351.82	34
1352.9	32
1353.98	30
1355.06	33
1356.14	31
1357.22	33
1358.3	32
1359.38	35
1360.46	30
1361.54	30
1362.62	37
1363.7	32
1364.78	32
1365.86	30
1366.94	26
1368.02	27
1369.09	32
1370.17	30
1371.25	34
1372.33	34
1373.41	30
1374.48	35
1375.56	33
1376.64	27
1377.72	35
1378.79	30
1379.87	26
1380.95	32
1382.02	31
1383.1	28
1384.17	30
1385.25	28
1386.33	27
1387.4	38
1388.48	28
1389.55	38
1390.63	32
1391.7	32
1392.78	33
1393.85	33
1394.93	28
1396	36
1397.07	38
1398.15	32
1399.22	30
1400.3	39
1401.37	36
1402.44	36
1403.52	34
1404.59	37
1405.66	41
1406.73	34
1407.81	30
1408.88	37
1409.95	32
1411.02	35
1412.09	32
1413.17	43
1414.24	36
1415.31	39
1416.38	38
1417.45	33
1418.52	30
1419.59	34
1420.66	31
1421.73	33
1422.8	32
1423.87	34
1424.94	32
1426.01	32
1427.08	30
1428.15	31
1429.22	38
1430.29	40
1431.35	34
1432.42	37
1433.49	34
1434.56	33
1435.63	31
1436.69	30
1437.76	32
1438.83	30
1439.9	32
1440.96	32
1442.03	32
1443.1	32
1444.17	31
1445.23	29
1446.3	31
1447.36	34
1448.43	35
1449.49	28
1450.56	33
1451.63	29
1452.69	33
1453.76	32
1454.82	32
1455.89	30
1456.95	33
1458.01	34
1459.08	33
1460.14	32
1461.21	32
1462.27	36
1463.34	34
1464.4	34
1465.46	34
1466.52	31
1467.59	30
1468.65	36
1469.71	35
1470.77	34
1471.84	32
1472.9	38
1473.96	38
1475.02	28
1476.08	32
1477.15	35
1478.21	34
1479.27	39
1480.33	32
1481.39	34
1482.45	30
1483.51	35
1484.57	37
1485.63	34
1486.69	30
1487.75	34
1488.81	38
1489.87	30
1490.93	28
1491.99	32
1493.05	32
1494.1	33
1495.16	33
1496.22	31
1497.28	32
1498.34	34
1499.4	32
1500.45	34
1501.51	28
1502.57	28
1503.63	30
1504.68	35
1505.74	30
1506.8	30
1507.85	32
1508.91	29
1509.97	30
1511.02	36
1512.08	32
1513.13	26
1514.19	31
1515.24	32
1516.3	36
1517.35	33
1518.41	37
1519.46	34
1520.52	28
1521.57	30
1522.63	28
1523.68	30
1524.73	33
1525.79	32
1526.84	28
1527.9	35
1528.95	35
1530	28
1531.05	33
1532.11	26
1533.16	32
1534.21	34
1535.26	32
1536.32	36
1537.37	36
1538.42	26
1539.47	36
1540.52	32
1541.57	28
1542.63	28
1543.68	36
1544.73	28
1545.78	26
1546.83	34
1547.88	33
1548.93	31
1549.98	28
1551.03	38
1552.08	34
1553.13	32
1554.18	33
1555.23	33
1556.27	30
1557.32	32
1558.37	39
1559.42	30
1560.47	33
1561.52	29
1562.56	32
1563.61	38
1564.66	28
1565.71	32
1566.75	28
1567.8	30
1568.85	36
1569.9	31
1570.94	30
1571.99	37
1573.03	34
1574.08	34
1575.13	28
1576.17	30
1577.22	26
1578.26	33
1579.31	30
1580.35	33
1581.4	32
1582.44	34
1583.49	37
1584.53	26
1585.58	28
1586.62	30
1587.66	30
1588.71	36
1589.75	26
1590.8	35
1591.84	36
1592.88	32
1593.92	32
1594.97	33
1596.01	32
1597.05	34
1598.1	31
1599.14	33
1600.18	32
1601.22	32
1602.26	31
1603.3	36
1604.35	30
1605.39	32
1606.43	32
1607.47	28
1608.51	35
1609.55	30
1610.59	32
1611.63	30
1612.67	30
1613.71	33
1614.75	34
1615.79	30
1616.83	39
1617.87	32
1618.91	31
1619.95	32
1620.99	30
1622.02	30
1623.06	31
1624.1	32
1625.14	35
1626.18	36
1627.21	28
1628.25	33
1629.29	31
1630.33	34
1631.36	30
1632.4	32
1633.44	34
1634.48	30
1635.51	38
1636.55	32
1637.58	36
1638.62	32
1639.66	29
1640.69	31
1641.73	34
1642.76	32
1643.8	30
1644.83	38
1645.87	36
1646.9	35
1647.94	33
1648.97	36
1650	30
1651.04	32
1652.07	30
1653.11	30
1654.14	28
1655.17	32
1656.21	36
1657.24	30
1658.27	34
1659.31	28
1660.34	32
1661.37	33
1662.4	27
1663.43	28
1664.47	32
1665.5	34
1666.53	33
1667.56	36
1668.59	35
1669.62	34
1670.66	26
1671.69	32
1672.72	31
1673.75	35
1674.78	36
1675.81	33
1676.84	28
1677.87	36
1678.9	33
1679.93	33
1680.96	29
1681.98	33
1683.01	30
1684.04	30
1685.07	38
1686.1	32
1687.13	31
1688.16	31
1689.18	30
1690.21	28
1691.24	34
1692.27	26
1693.3	35
1694.32	32
1695.35	28
1696.38	28
1697.4	31
1698.43	34
1699.46	29
1700.48	29
1701.51	31
1702.54	32
1703.56	32
1704.59	28
1705.61	28
1706.64	32
1707.66	33
1708.69	35
1709.71	36
1710.74	32
1711.76	34
1712.79	32
1713.81	28
1714.83	32
1715.86	35
1716.88	28
1717.91	34
1718.93	31
1719.95	29
1720.98	32
1722	26
1723.02	35
1724.04	33
1725.07	30
1726.09	36
1727.11	32
1728.13	33
1729.15	30
1730.18	29
1731.2	32
1732.22	32
1733.24	30
1734.26	28
1735.28	31
1736.3	28
1737.32	28
1738.34	28
1739.36	31
1740.38	33
1741.4	36
1742.42	27
1743.44	29
1744.46	30
1745.48	32
1746.5	28
1747.52	30
1748.54	35
1749.56	32
1750.58	32
1751.6	33
1752.61	30
1753.63	34
1754.65	30
1755.67	33
1756.68	32
1757.7	32
1758.72	30
1759.74	32
1760.75	34
1761.77	27
1762.79	35
1763.8	32
1764.82	32
1765.83	33
1766.85	33
1767.87	35
1768.88	35
1769.9	31
1770.91	29
1771.93	31
1772.94	30
1773.96	28
1774.97	32
1775.99	30
1777	28
1778.02	31
1779.03	32
1780.04	35
1781.06	22
1782.07	31
1783.09	27
1784.1	28
1785.11	34
1786.13	35
1787.14	31
1788.15	32
1789.16	26
1790.18	30
1791.19	32
1792.2	32
1793.21	38
1794.22	33
1795.23	33
1796.25	34
1797.26	34
1798.27	26
1799.28	34
1800.29	33
1801.3	27
1802.31	29
1803.32	32
1804.33	33
1805.34	28
1806.35	27
1807.36	32
1808.37	28
1809.38	36
1810.39	30
1811.4	31
1812.41	32
1813.42	31
1814.42	32
1815.43	35
1816.44	30
1817.45	32
1818.46	30
1819.47	33
1820.47	32
1821.48	32
1822.49	22
1823.49	30
1824.5	28
1825.51	32
1826.52	30
1827.52	32
1828.53	28
1829.53	32
1830.54	28
1831.55	32
1832.55	30
1833.56	30
1834.56	32
1835.57	30
1836.57	27
1837.58	28
1838.58	34
1839.59	29
1840.59	31
1841.6	35
1842.6	26
1843.61	36
1844.61	30
1845.61	31
1846.62	33
1847.62	32
1848.62	31
1849.63	32
1850.63	29
1851.63	28
1852.64	32
1853.64	25
1854.64	34
1855.64	30
1856.64	38
1857.65	30
1858.65	30
1859.65	33
1860.65	32
1861.65	29
1862.65	32
1863.65	30
1864.66	36
1865.66	30
1866.66	32
1867.66	33
1868.66	33
1869.66	26
1870.66	27
1871.66	30
1872.66	34
1873.66	29
1874.66	31
1875.65	30
1876.65	31
1877.65	33
1878.65	32
1879.65	33
1880.65	20
1881.65	24
1882.64	32
1883.64	26
1884.64	28
1885.64	32
1886.63	27
1887.63	30
1888.63	26
1889.63	33
1890.62	30
1891.62	33
1892.62	35
1893.61	33
1894.61	32
1895.6	35
1896.6	35
1897.6	30
1898.59	26
1899.59	30
1900.58	32
1901.58	28
1902.57	24
1903.57	28
1904.56	28
1905.56	26
1906.55	35
1907.54	32
1908.54	32
1909.53	32
1910.53	34
1911.52	33
1912.51	32
1913.51	33
1914.5	30
1915.49	33
1916.49	27
1917.48	26
1918.47	31
1919.46	34
1920.46	34
1921.45	26
1922.44	32
1923.43	22
1924.42	32
1925.41	32
1926.41	30
1927.4	35
1928.39	32
1929.38	32
1930.37	30
1931.36	34
1932.35	28
1933.34	28
1934.33	30
1935.32	32
1936.31	30
1937.3	30
1938.29	31
1939.28	28
1940.27	22
1941.26	30
1942.24	29
1943.23	31
1944.22	26
1945.21	28
1946.2	29
1947.19	32
1948.17	33
1949.16	32
1950.15	31
1951.14	30
1952.12	33
1953.11	26
1954.1	32
1955.09	32
1956.07	30
1957.06	28
1958.05	31
1959.03	31
1960.02	30
1961	30
1961.99	29
1962.98	28
1963.96	32
1964.95	27
1965.93	26
1966.92	30
1967.9	29
1968.89	29
1969.87	29
1970.85	28
1971.84	32
1972.82	29
1973.81	28
1974.79	29
1975.78	33
1976.76	33
1977.74	29
1978.73	30
1979.71	26
1980.69	33
1981.67	30
1982.66	31
1983.64	27
1984.62	22
1985.6	30
1986.59	29
1987.57	32
1988.55	32
1989.53	24
1990.51	29
1991.49	28
1992.47	24
1993.45	29
1994.44	26
1995.42	28
1996.4	34
1997.38	26
1998.36	26
1999.34	26
2000.32	30
2001.3	28
2002.28	28
2003.26	30
2004.24	30
2005.22	28
2006.19	30
2007.17	30
2008.15	34
2009.13	29
2010.11	29
2011.09	31
2012.06	24
2013.04	31
2014.02	27
2015	26
2015.98	36
2016.95	32
2017.93	34
2018.91	31
2019.88	26
2020.86	34
2021.84	24
2022.81	33
2023.79	27
2024.77	28
2025.74	32
2026.72	29
2027.69	32
2028.67	32
2029.65	28
2030.62	26
2031.6	31
2032.57	32
2033.55	33
2034.52	30
2035.5	28
2036.47	28
2037.44	28
2038.42	32
2039.39	28
2040.36	26
2041.34	24
2042.31	30
2043.29	28
2044.26	30
2045.23	33
2046.2	26
2047.18	28
2048.15	28
2049.12	26
2050.09	31
2051.07	27
2052.04	32
2053.01	25
2053.98	26
2054.95	28
2055.93	30
2056.9	26
2057.87	31
2058.84	30
2059.81	28
2060.78	31
2061.75	30
2062.72	31
2063.69	30
2064.66	30
2065.63	30
2066.6	22
2067.57	32
2068.54	34
2069.51	28
2070.48	30
2071.45	26
2072.42	28
2073.38	32
2074.35	30
2075.32	32
2076.29	30
2077.26	29
2078.23	27
2079.19	27
2080.16	28
2081.13	26
2082.1	26
2083.06	30
2084.03	28
2085	28
2085.96	28
2086.93	28
2087.9	31
2088.86	26
2089.83	24
2090.8	29
2091.76	28
2092.73	27
2093.69	34
2094.66	28
2095.62	30
2096.59	28
2097.55	29
2098.52	30
2099.48	20
2100.45	31
2101.41	34
2102.38	28
2103.34	30
2104.31	30
2105.27	32
2106.23	26
2107.2	34
2108.16	24
2109.12	26
2110.09	26
2111.05	29
2112.01	29
2112.98	28
2113.94	26
2114.9	26
2115.86	28
2116.82	31
2117.79	25
2118.75	37
2119.71	28
2120.67	32
2121.63	32
2122.59	31
2123.55	29
2124.52	26
2125.48	30
2126.44	27
2127.4	28
2128.36	30
2129.32	30
2130.28	29
2131.24	30
2132.2	26
2133.16	25
2134.12	26
2135.08	26
2136.04	32
2136.99	28
2137.95	27
2138.91	30
2139.87	30
2140.83	27
2141.79	30
2142.75	28
2143.7	29
2144.66	28
2145.62	30.9638
2146.58	27.8904
2147.53	29.902
2148.49	28.8971
2149.45	27.9321
2150.41	20.6241
2151.36	31.6219
2152.32	27.9309
2153.27	27.9861
2154.23	25.8972
2155.19	26.6025
2156.14	22.465
2157.1	29.8954
2158.06	32.1038
2159.01	24.2769
2159.97	28.2531
2160.92	27.995
2161.88	27.6623
2162.83	28.1749
2163.79	27.0441
2164.74	25.3993
2165.7	28.7493
2166.65	26.9906
2167.61	28.6727
2168.56	26.4983
2169.51	30.0296
2170.47	32.418
2171.42	28.7629
2172.38	28
2173.33	27.1281
2174.28	29.0045
2175.24	29.8196
2176.19	29.5984
2177.14	28.8156
2178.09	27.9349
2179.05	26.3094
2180	29.6288
2180.95	25.3651
2181.9	31.7105
2182.86	25.5243
2183.81	24.1852
2184.76	28.3245
2185.71	30.855
2186.66	28.7501
2187.61	27.6536
2188.57	27.2834
2189.52	26.3006
2190.47	27.2012
2191.42	25.8526
2192.37	23.3823
2193.32	26.7021
2194.27	27.1015
2195.22	27.77
2196.17	24.09
2197.12	28.552
2198.07	27.566
2199.02	27.7843
2199.97	26.3989
2200.92	28.0068
2201.87	30.2986
2202.82	28.4657
2203.76	26.5108
2204.71	26.9848
2205.66	24.4177
2206.61	27.7899
2207.56	27.0166
2208.51	25.7027
2209.45	26.5022
2210.4	25.996
2211.35	26.4639
2212.3	27.9506
2213.24	26.9697
2214.19	26.0594
2215.14	27.9627
2216.09	25.33
2217.03	27.5778
2217.98	28
2218.93	27.334
2219.87	27.9235
2220.82	26.9007
2221.77	26.8431
2222.71	28.3308
2223.66	29.1634
2224.6	27.4488
2225.55	28.4873
2226.49	29.8382
2227.44	26.5523
2228.38	28.664
2229.33	28.0222
2230.27	27.4453
2231.22	26.7416
2232.16	26.9258
2233.11	27.7206
2234.05	28.5695
2235	25.7998
2235.94	27.1981
2236.88	29.9461
2237.83	29.3382
2238.77	28.3227
2239.71	26.8992
2240.66	24.3308
2241.6	24.759
2242	26
2242.95	30
2243.9	27
2244.84	26
2245.79	25
2246.74	28
2247.69	24
2248.63	28
2249.58	26
2250.53	30
2251.47	23
2252.42	30
2253.37	28
2254.31	30
2255.26	25
2256.2	28
2257.15	30
2258.1	28
2259.04	27
2259.99	25
2260.93	20
2261.88	31
2262.82	24
2263.77	24
2264.71	32
2265.65	29
2266.6	26
2267.54	30
2268.49	30
2269.43	27
2270.38	27
2271.32	30
2272.26	27
2273.21	29
2274.15	31
2275.09	32
2276.04	28
2276.98	26
2277.92	26
2278.86	26
2279.81	28
2280.75	29
2281.69	30
2282.63	28
2283.57	28
2284.52	30
2285.46	24
2286.4	29
2287.34	29
2288.28	25
2289.22	26
2290.16	29
2291.1	28
2292.04	30
2292.98	22
2293.93	28
2294.86	27
2295.8	30
2296.74	30
2297.69	24
2298.62	28
2299.56	29
2300.5	27
2301.44	24
2302.38	26
2303.32	24
2304.26	25
2305.2	31
2306.14	32
2307.07	32
2308.01	24
2308.95	30
2309.89	27
2310.83	21
2311.76	26
2312.7	30
2313.64	24
2314.58	27
2315.51	22
2316.45	31
2317.39	26
2318.32	30
2319.26	36
2320.2	26
2321.13	30
2322.07	28
2323	26
2323.94	28
2324.88	26
2325.81	28
2326.75	29
2327.68	26
2328.62	32
2329.55	22
2330.49	27
2331.42	29
2332.36	21
2333.29	29
2334.22	26
2335.16	25
2336.09	29
2337.03	34
2337.96	30
2338.89	28
2339.83	27
2340.76	27
2341.69	24
2342.63	27
2343.56	24
2344.49	30
2345.43	31
2346.36	22
2347.29	30
2348.22	29
2349.15	29
2350.09	30
2351.02	26
2351.95	22
2352.88	31
2353.81	28
2354.74	27
2355.67	26
2356.61	30
2357.54	27
2358.47	26
2359.4	28
2360.33	29
2361.26	33
2362.19	24
2363.12	24
2364.05	24
2364.98	24
2365.91	28
2366.84	25
2367.77	28
2368.7	26
2369.62	28
2370.55	30
2371.48	33
2372.41	24
2373.34	26
2374.27	22
2375.2	28
2376.12	30
2377.05	24
2377.98	29
2378.91	31
2379.83	24
2380.76	26
2381.69	29
2382.62	33
2383.54	27
2384.47	30
2385.4	30
2386.32	31
2387.25	29
2388.18	28
2389.1	27
2390.03	28
2390.95	28
2391.88	31
2392.81	25
2393.73	30
2394.66	28
2395.58	30
2396.51	27
2397.43	24
2398.36	28
2399.28	30
2400.2	25
2401.13	27
2402.05	30
2402.98	27
2403.9	24
2404.83	24
2405.75	25
2406.67	28
2407.6	24
2408.52	28
2409.44	25
2410.37	20
2411.29	28
2412.21	28
2413.13	28
2414.06	27
2414.98	25
2415.9	31
2416.82	28
2417.74	28
2418.67	24
2419.59	24
2420.51	28
2421.43	27
2422.35	29
2423.27	29
2424.19	28
2425.11	26
2426.03	26
2426.96	31
2427.88	31
2428.8	25
2429.72	28
2430.64	31
2431.56	25
2432.48	31
2433.39	30
2434.31	27
2435.23	35
2436.15	30
2437.07	32
2437.99	25
2438.91	32
2439.83	28
2440.75	29
2441.67	29
2442.58	28
2443.5	31
2444.42	28
2445.34	30
2446.26	30
2447.17	27
2448.09	30
2449.01	30
2449.92	28
2450.84	30
2451.76	24
2452.68	34
2453.59	28
2454.51	26
2455.42	28
2456.34	33
2457.26	29
2458.17	27
2459.09	24
2460	28
2460.92	28
2461.83	30
2462.75	28
2463.66	28
2464.58	25
2465.49	26
2466.41	32
2467.32	28
2468.24	30
2469.15	28
2470.07	30
2470.98	29
2471.89	33
2472.81	34
2473.72	27
2474.64	30
2475.55	29
2476.46	24
2477.37	31
2478.29	30
2479.2	28
2480.11	27
2481.03	33
2481.94	28
2482.85	31
2483.76	28
2484.67	30
2485.59	30
2486.5	20
2487.41	27
2488.32	24
2489.23	26
2490.14	30
2491.05	36
2491.97	29
2492.88	22
2493.79	30
2494.7	28
2495.61	30
2496.52	32
2497.43	34
2498.34	32
2499.25	28
2500.16	28
2501.07	27
2501.98	29
2502.89	22
2503.79	33
2504.7	24
2505.61	33
2506.52	30
2507.43	29
2508.34	28
2509.25	26
2510.16	26
2511.06	30
2511.97	28
2512.88	27
2513.79	22
2514.69	27
2515.6	28
2516.51	26
2517.42	28
2518.32	28
2519.23	26
2520.14	33
2521.04	28
2521.95	28
2522.86	27
2523.76	28
2524.67	30
2525.57	28
2526.48	30
2527.39	24
2528.29	26
2529.2	29
2530.1	27
2531.01	30
2531.91	28
2532.82	33
2533.72	22
2534.63	26
2535.53	28
2536.44	26
2537.34	28
2538.24	31
2539.15	28
2540.05	22
2540.96	27
2541.86	26
2542.76	28
2543.67	33
2544.57	28
2545.47	27
2546.37	29
2547.28	24
2548.18	29
2549.08	28
2549.99	26
2550.89	29
2551.79	27
2552.69	30
2553.59	25
2554.49	29
2555.4	28
2556.3	26
2557.2	29
2558.1	26
2559	23
2559.9	25
2560.8	30
2561.7	30
2562.6	28
2563.5	26
2564.4	26
2565.3	29
2566.2	28
2567.1	24
2568	28
2568.9	28
2569.8	27
2570.7	26
2571.6	22
2572.5	32
2573.4	31
2574.3	28
2575.2	29
2576.1	26
2576.99	30
2577.89	29
2578.79	28
2579.69	32
2580.59	31
2581.48	32
2582.38	24
2583.28	29
2584.18	28
2585.07	29
2585.97	26
2586.87	30
2587.76	29
2588.66	29
2589.56	29
2590.45	28
2591.35	30
2592.25	31
2593.14	28
2594.04	27
2594.93	28
2595.83	24
2596.73	26
2597.62	26
2598.52	27
2599.41	23
2600.31	35
2601.2	28
2602.1	28
2602.99	30
2603.88	30
2604.78	27
2605.67	30
2606.57	28
2607.46	33
2608.35	34
2609.25	28
2610.14	28
2611.03	25
2611.93	30
2612.82	29
2613.71	26
2614.61	28
2615.5	28
2616.39	30
2617.29	27
2618.18	31
2619.07	26
2619.96	26
2620.85	29
2621.75	26
2622.64	30
2623.53	30
2624.42	28
2625.31	29
2626.2	34
2627.09	26
2627.98	27
2628.88	25
2629.77	30
2630.66	22
2631.55	28
2632.44	31
2633.33	28
2634.22	29
2635.11	29
2636	24
2636.89	30
2637.78	30
2638.66	27
2639.55	26
2640.44	30
2641.33	30
2642.22	28
2643.11	27
2644	25
2644.89	33
2645.78	26
2646.66	31
2647.55	34
2648.44	29
2649.33	26
2650.21	32
2651.1	23
2651.99	27
2652.88	28
2653.76	30
2654.65	32
2655.54	31
2656.42	28
2657.31	28
2658.2	28
2659.08	30
2659.97	24
2660.86	29
2661.74	26
2662.63	24
2663.51	31
2664.4	31
2665.29	28
2666.17	26
2667.06	30
2667.94	24
2668.83	29
2669.71	30
2670.6	29
2671.48	22
2672.36	26
2673.25	27
2674.13	28
2675.02	28
2675.9	32
2676.78	34
2677.67	27
2678.55	29
2679.43	30
2680.32	26
2681.2	28
2682.08	30
2682.97	34
2683.85	28
2684.73	28
2685.61	31
2686.5	27
2687.38	26
2688.26	20
2689.14	27
2690.03	27
2690.91	29
2691.79	30
2692.67	24
2693.55	32
2694.43	28
2695.31	25
2696.19	28
2697.08	25
2697.96	23
2698.84	26
2699.72	28
2700.6	30
2701.48	30
2702.36	27
2703.24	25
2704.12	30
2705	30
2705.88	26
2706.76	26
2707.64	28
2708.51	33
2709.39	27
2710.27	27
2711.15	20
2712.03	30
2712.91	26
2713.79	35
2714.67	27
2715.54	29
2716.42	20
2717.3	26
2718.18	26
2719.05	27
2719.93	32
2720.81	28
2721.69	26
2722.56	30
2723.44	26
2724.32	30
2725.19	28
2726.07	28
2726.95	27
2727.82	24
2728.7	28
2729.58	28
2730.45	33
2731.33	29
2732.2	28
2733.08	26
2733.95	31
2734.83	26
2735.7	24
2736.58	30
2737.45	28
2738.33	24
2739.2	26
2740.08	26
2740.95	24
2741.83	26
2742.7	29
2743.58	29
2744.45	28
2745.32	27
2746.2	31
2747.07	26
2747.94	30
2748.82	30
2749.69	30
2750.56	28
2751.44	28
2752.31	26
2753.18	28
2754.05	25
2754.93	25
2755.8	28
2756.67	29
2757.54	24
2758.42	28
2759.29	30
2760.16	28
2761.03	28
2761.9	25
2762.77	26
2763.64	27
2764.51	29
2765.38	28
2766.26	32
2767.13	32
2768	29
2768.87	28
2769.74	28
2770.61	33
2771.48	24
2772.35	30
2773.22	24
2774.09	26
2774.96	24
2775.83	34
2776.7	26
2777.56	27
2778.43	28
2779.3	26
2780.17	27
2781.04	29
2781.91	28
2782.78	26
2783.64	26
2784.51	26
2785.38	30
2786.25	30
2787.12	31
2787.98	28
2788.85	27
2789.72	31
2790.59	29
2791.45	30
2792.32	28
2793.19	28
2794.05	28
2794.92	27
2795.79	31
2796.65	26
2797.52	28
2798.38	26
2799.25	24
2800.12	28
2800.98	28
2801.85	28
2802.71	30
2803.58	31.5
2804.44	32
2805.31	24
2806.17	26
2807.04	30
2807.9	28
2808.77	28
2809.63	26
2810.5	28
2811.36	26
2812.22	32
2813.09	28
2813.95	26
2814.82	30
2815.68	30
2816.54	26
2817.41	30
2818.27	28
2819.13	26
2820	29
2820.86	25
2821.72	32
2822.58	28
2823.45	31
2824.31	28
2825.17	28
2826.03	31
2826.9	32
2827.76	31
2828.62	29
2829.48	24
2830.34	28
2831.2	20
2832.06	29
2832.92	30
2833.79	31
2834.65	25
2835.51	25
2836.37	30
2837.23	27
2838.09	24
2838.95	26
2839.81	29
2840.67	32
2841.53	26
2842.39	30
2843.25	30
2844.11	30
2844.97	29
2845.83	32
2846.68	30
2847.54	29
2848.4	30
2849.26	26
2850.12	26
2850.98	28
2851.84	23
2852.69	29
2853.55	28
2854.41	30
2855.27	29
2856.13	28
2856.98	34
2857.84	33
2858.7	27
2859.56	25
2860.41	30
2861.27	27
2862.13	33
2862.98	28
2863.84	27
2864.7	25
2865.55	28
2866.41	29
2867.27	26
2868.12	28
2868.98	25
2869.83	32
2870.69	31
2871.54	29
2872.4	26
2873.25	34
2874.11	32
2874.96	31
2875.82	35
2876.68	31
2877.53	30
2878.38	38
2879.24	28
2880.09	32
2880.95	27
2881.8	33
2882.65	28
2883.51	30
2884.36	34
2885.22	31
2886.07	37
2886.92	36
2887.77	32
2888.63	36
2889.48	32
2890.33	38
2891.19	38
2892.04	45
2892.89	42
2893.74	42
2894.6	40
2895.45	40
2896.3	42
2897.15	38
2898	46
2898.85	54
2899.71	52
2900.56	54
2901.41	53
2902.26	54
2903.11	52
2903.96	53
2904.81	54
2905.66	60
2906.51	61
2907.36	58
2908.21	54
2909.06	55
2909.91	67
2910.76	57
2911.61	48
2912.46	48
2913.31	52
2914.16	50
2915.01	44
2915.86	45
2916.71	42
2917.56	38
2918.41	39
2919.26	42
2920.1	35
2920.95	37
2921.8	37
2922.65	31
2923.5	35
2924.34	34
2925.19	38
2926.04	32
2926.89	32
2927.74	30
2928.58	32
2929.43	29
2930.28	33
2931.12	34
2931.97	36
2932.82	25
2933.66	30
2934.51	32
2935.36	33
2936.2	32
2937.05	28
2937.89	36
2938.74	34
2939.59	30
2940.43	32
2941.28	33
2942.12	30
2942.97	30
2943.81	28
2944.66	28
2945.5	34
2946.35	30
2947.19	33
2948.04	32
2948.88	28
2949.72	27
2950.57	38
2951.41	29
2952.26	30
2953.1	24
2953.94	34
2954.79	36
2955.63	34
2956.47	30
2957.32	31
2958.16	34
2959	34
2959.85	37
2960.69	36
2961.53	40
2962.37	39
2963.22	41
2964.06	42
2964.9	43
2965.74	44
2966.58	43
2967.42	36
2968.27	39
2969.11	34
2969.95	41
2970.79	38
2971.63	40
2972.47	38
2973.31	45
2974.15	36
2974.99	34
2975.83	34
2976.68	36
2977.52	36
2978.36	28
2979.2	30
2980.04	30
2980.88	32
2981.71	36
2982.55	33
2983.39	30
2984.23	26
2985.07	29
2985.91	29
2986.75	22
2987.59	29
2988.43	22
2989.27	29
2990.1	30
2990.94	26
2991.78	30
2992.62	30
2993.46	28
2994.3	33
2995.13	25
2995.97	30
2996.81	31
2997.64	27
2998.48	27
2999.32	22
