#Acq. time (s)=	3
#Accumulations=	3
#Range (cm-¹)=	100...3000
#Windows=	3
#Autofocus=	Off
#AutoExposure=	Off
#Spike filter=	Multiple accum.
#Delay time (s)=	0
#Binning=	1
#Readout mode=	Signal
#DeNoise=	Off
#ICS correction=	Off
#Dark correction=	Off
#Inst. Process=	Off
#Instrument=	LabRAM HR Evol
#Detector=	Syncerity OE
#Objective=	x100_VIS_LWD
#Grating=	600 (500nm)
#ND Filter=	25%
#Laser=	633nm_Edge
#Hole=	100.021
#Range=	Visible
#Project=	Bolus
#Sample=	B5
#Site=	stripside
#Title=	m06
#Remark=	
#Date=	03.11.2025 19:05
#Acquired=	03.11.2025 19:05:24
100.969	28
102.252	34
103.535	30
104.818	31
106.101	27
107.384	29
108.666	28
109.948	28
111.232	34
112.514	31
113.795	33
115.077	28
116.358	36
117.639	35
118.919	31
120.2	32
121.48	35
122.76	30
124.04	40
125.32	26
126.599	36
127.879	33
129.158	32
130.436	36
131.715	34
132.992	35
134.27	32
135.548	38
136.826	30
138.104	40
139.381	42
140.658	37
141.935	36
143.212	36
144.489	44
145.763	37
147.04	38
148.315	42
149.591	42
150.867	36
152.142	41
153.416	42
154.691	41
155.965	36
157.24	34
158.514	46
159.786	42
161.06	36
162.334	38
163.607	47
164.881	40
166.152	38
167.425	44
168.698	37
169.969	41
171.241	39
172.513	35
173.785	39
175.055	42
176.326	38
177.597	36
178.867	46
180.137	38
181.408	34
182.677	39
183.947	35
185.217	41
186.485	38
187.755	40
189.022	47
190.291	42
191.56	40
192.828	43
194.096	30
195.363	40
196.631	34
197.899	42
199.165	42
200.432	38
201.698	39
202.965	33
204.23	38
205.497	34
206.762	34
208.028	41
209.293	35
210.559	32
211.823	35
213.088	40
214.352	39
215.617	34
216.88	39
218.145	39
219.408	30
220.672	33
221.934	28
223.196	28
224.46	36
225.722	32
226.985	40
228.246	34
229.508	34
230.77	36
232.031	38
233.292	28
234.554	34
235.814	34
237.074	33
238.335	37
239.595	34
240.854	30
242.115	37
243.374	35
244.633	36
245.893	30
247.151	31
248.409	32
249.667	24
250.927	27
252.184	31
253.442	32
254.699	30
255.957	31
257.214	39
258.47	31
259.727	31
260.983	28
262.24	31
263.496	27
264.752	28
266.007	34
267.262	36
268.517	32
269.773	30
271.028	40
272.282	36
273.536	32
274.79	27
276.044	28
277.297	32
278.551	34
279.804	30
281.057	32
282.31	32
283.564	33
284.816	31
286.068	33
287.32	30
288.572	35
289.823	28
291.074	32
292.325	33
293.576	31
294.827	30
296.077	34
297.328	31
298.578	35
299.828	32
301.077	32
302.325	32
303.575	27
304.824	30
306.073	28
307.321	26
308.57	26
309.818	33
311.066	30
312.314	30
313.562	32
314.808	29
316.055	30
317.302	30
318.549	24
319.796	31
321.042	31
322.288	30
323.533	33
324.779	42
326.024	28
327.27	33
328.515	30
329.759	28
331.004	32
332.248	28
333.493	35
334.736	31
335.98	26
337.223	40
338.466	34
339.709	32
340.952	28
342.195	38
343.437	34
344.68	32
345.922	33
347.163	30
348.405	36
349.647	31
350.887	35
352.128	31
353.37	27
354.609	32
355.85	33
357.089	32
358.33	32
359.57	33
360.809	33
362.049	31
363.287	28
364.526	32
365.764	29
367.003	32
368.241	26
369.479	33
370.718	33
371.955	33
373.193	28
374.429	35
375.667	26
376.903	34
378.139	28
379.376	31
380.611	30
381.848	33
383.083	32
384.319	35
385.554	30
386.79	30
388.024	41
389.258	33
390.493	35
391.727	34
392.962	30
394.195	34
395.428	28
396.663	33
397.895	32
399.128	27
400.361	34
401.593	31
402.825	30
404.058	32
405.29	36
406.521	31
407.752	30
408.985	34
410.215	32
411.446	32
412.678	32
413.908	26
415.138	28
416.367	34
417.597	30
418.828	30
420.057	32
421.286	32
422.514	33
423.743	32
424.973	36
426.201	32
427.429	35
428.657	30
429.884	30
431.112	35
432.34	30
433.567	31
434.794	33
436.02	30
437.247	33
438.473	28
439.699	38
440.925	34
442.15	35
443.376	30
444.601	31
445.826	34
447.051	27
448.275	35
449.5	24
450.724	30
451.948	36
453.172	33
454.396	35
455.619	36
456.842	38
458.065	37
459.288	28
460.511	34
461.733	31
462.956	34
464.178	36
465.4	38
466.621	26
467.843	32
469.064	33
470.285	30
471.505	39
472.726	34
473.946	41
475.166	41
476.387	44
477.606	41
478.825	38
480.044	52
481.264	46
482.483	53
483.702	48
484.921	48
486.138	55
487.356	54
488.574	60
489.792	53
491.009	54
492.226	56
493.444	54
494.661	52
495.877	51
497.094	52
498.31	50
499.525	44
500.741	44
501.958	46
503.172	37
504.388	41
505.603	43
506.817	40
508.032	41
509.247	39
510.46	43
511.675	38
512.888	39
514.102	41
515.316	33
516.528	32
517.742	36
518.954	38
520.167	32
521.378	40
522.591	34
523.802	35
525.015	34
526.226	32
527.438	36
528.648	30
529.86	36
531.07	37
532.281	36
533.491	24
534.702	31
535.911	32
537.121	34
538.33	38
539.54	34
540.749	30
541.957	36
543.167	35
544.375	26
545.584	32
546.791	36
547.999	30
549.207	28
550.414	32
551.621	29
552.829	30
554.035	30
555.241	28
556.449	33
557.655	32
558.86	34
560.066	29
561.272	31
562.477	28
563.682	32
564.888	37
566.093	36
567.297	34
568.501	32
569.705	28
570.91	30
572.114	28
573.317	31
574.52	33
575.723	35
576.927	26
578.13	31
579.332	32
580.535	24
581.737	33
582.938	32
584.14	28
585.343	32
586.544	28
587.745	32
588.946	32
590.147	28
591.347	31
592.548	31
593.748	36
594.948	31
596.147	34
597.347	36
598.546	36
599.745	30
600.944	30
602.143	34
603.342	32
604.54	34
605.738	34
606.937	22
608.134	28
609.332	31
610.529	31
611.727	29
612.924	31
614.121	38
615.317	37
616.513	24
617.709	38
618.905	31
620.101	32
621.297	34
622.492	36
623.688	32
624.883	33
626.077	28
627.271	28
628.466	35
629.66	30
630.855	32
632.047	30
633.241	32
634.435	32
635.629	33
636.82	37
638.014	30
639.207	40
640.399	26
641.59	34
642.783	33
643.975	37
645.166	38
646.357	36
647.549	31
648.741	33
649.93	33
651.122	32
652.311	33
653.502	32
654.692	35
655.881	30
657.071	35
658.261	32
659.45	27
660.639	26
661.827	36
663.016	29
664.204	34
665.393	39
666.581	30
667.769	36
668.957	37
670.143	32
671.331	32
672.518	36
673.705	36
674.891	37
676.078	38
677.264	34
678.451	32
679.636	37
680.821	35
682.007	32
683.192	39
684.378	38
685.562	30
686.747	36
687.931	40
689.115	41
690.3	39
691.483	34
692.666	39
693.851	36
695.034	36
696.216	39
697.4	32
698.582	41
699.764	37
700.948	40
702.129	38
703.311	38
704.493	44
705.674	43
706.855	46
708.036	42
709.218	52
710.399	52
711.579	44
712.759	48
713.939	52
715.12	41
716.299	39
717.478	32
718.657	38
719.836	37
721.015	32
722.195	36
723.373	31
724.552	35
725.729	35
726.907	36
728.085	34
729.262	34
730.44	30
731.617	36
732.795	33
733.972	32
735.148	28
736.324	37
737.501	30
738.677	32
739.852	27
741.028	33
742.203	29
743.379	33
744.554	32
745.729	30
746.903	32
748.078	35
749.252	33
750.426	35
751.599	36
752.772	34
753.946	30
755.119	34
756.293	35
757.466	35
758.639	33
759.811	32
760.984	32
762.155	31
763.327	30
764.499	32
765.67	28
766.842	35
768.013	28
769.183	32
770.354	36
771.525	30
772.696	32
773.865	30
775.035	30
776.205	30
777.375	28
778.544	34
779.713	30
780.882	37
782.052	34
783.219	34
784.388	34
785.557	33
786.724	36
787.892	44
789.06	32
790.227	33
791.395	32
792.562	34
793.728	34
794.895	36
796.061	32
797.228	30
798.395	31
799.56	35
800.726	34
801.891	34
803.057	30
804.221	36
805.387	30
806.551	30
807.716	31
808.879	32
810.044	32
811.208	35
812.372	30
813.535	34
814.699	34
815.862	32
817.025	35
818.188	35
819.351	32
820.513	29
821.675	30
822.837	26
823.999	33
825.161	30
826.322	33
827.483	34
828.645	33
829.805	32
830.966	38
832.127	28
833.287	28
834.447	28
835.607	32
836.767	33
837.926	32
839.085	30
840.245	36
841.404	30
842.562	34
843.72	26
844.88	36
846.038	32
847.195	28
848.353	26
849.512	30
850.669	34
851.826	34
852.983	35
854.139	32
855.296	34
856.453	33
857.609	33
858.765	29
859.921	31
861.077	31
862.232	34
863.387	34
864.542	33
865.697	32
866.852	34
868.008	38
869.162	34
870.316	36
871.47	34
872.624	33
873.778	30
874.931	32
876.084	35
877.237	30
878.39	27
879.543	26
880.695	29
881.846	34
882.999	32
884.151	28
885.302	30
886.454	35
887.606	34
888.757	28
889.908	30
891.059	30
892.21	30
893.359	33
894.509	28
895.659	32
896.81	30
897.959	33
899.109	30
900.257	30
901.407	30
902.556	32
903.705	31
904.854	28
906.001	31
907.149	30
908.298	31
909.446	34
910.592	27
911.74	33
912.888	32
914.034	34
915.181	27
916.328	28
917.473	36
918.62	34
919.766	31
920.911	24
922.058	28
923.204	29
924.348	33
925.494	36
926.638	31
927.783	32
928.928	28
930.072	28
931.216	28
932.36	30
933.504	30
934.647	27
935.791	30
936.933	33
938.077	33
939.219	32
940.363	34
941.504	32
942.647	35
943.789	28
944.932	32
946.073	31
947.215	30
948.356	30
949.498	31
950.638	27
951.778	35
952.92	29
954.06	34
955.199	29
956.34	33
957.479	29
958.62	29
959.759	30
960.898	29
962.038	27
963.176	32
964.315	31
965.453	31
966.592	30
967.73	35
968.867	32
970.006	29
971.144	29
972.281	28
973.418	36
974.554	28
975.692	29
976.829	28
977.965	35
979.101	31
980.237	28
981.374	29
982.509	32
983.645	28
984.78	24
985.915	28
987.05	30
988.184	27
989.319	30
990.453	32
991.589	29
992.722	28
993.856	30
994.99	29
996.123	30
997.257	28
998.39	24
999.523	26
1000.66	29
1001.79	25
1002.92	31
1004.05	33
1005.18	26
1006.32	28
1007.45	28
1008.58	34
1009.71	30
1010.84	26
1011.97	35
1013.1	32
1014.23	31
1015.36	33
1016.49	28
1017.62	32
1018.75	34
1019.88	25
1021.01	30
1022.14	30
1023.27	32
1024.4	29
1025.53	26
1026.66	30
1027.79	28
1028.91	29
1030.04	30
1031.17	30
1032.3	28
1033.42	30
1034.55	30
1035.68	29
1036.81	26
1037.93	31
1039.06	26
1040.18	28
1041.31	30
1042.44	30
1043.56	28
1044.69	30
1045.81	30
1046.94	35
1048.06	32
1049.19	24
1050.31	33
1051.44	32
1052.56	28
1053.69	29
1054.81	33
1055.93	30
1057.06	32
1058.18	28
1059.3	34
1060.43	30
1061.55	36
1062.67	32
1063.79	26
1064.92	28
1066.04	32
1067.16	28
1068.28	28
1069.4	30
1070.52	30
1071.65	30
1072.77	32
1073.89	32
1075.01	28
1076.13	33
1077.25	24
1078.37	29
1079.49	28
1080.61	23
1081.73	27
1082.85	24
1083.97	26
1085.09	29
1086.2	28
1087.32	30
1088.44	27
1089.56	33
1090.68	30
1091.8	27
1092.91	29
1094.03	31
1095.15	30
1096.26	29
1097.38	28
1098.5	33
1099.61	29
1100.73	26
1101.85	31
1102.96	29
1104.08	28
1105.19	32
1106.31	31
1107.43	28
1108.54	30
1109.66	33
1110.77	31
1111.88	30
1113	30
1114.11	28
1115.23	33
1116.34	33
1117.46	30
1118.57	30
1119.68	31
1120.8	32
1121.91	31
1123.02	28
1124.13	30
1125.25	31
1126.36	30
1127.47	32
1128.58	26
1129.69	32
1130.8	29
1131.92	28
1133.03	26
1134.14	29
1135.25	28
1136.36	27
1137.47	31
1138.58	24
1139.69	28
1140.8	28
1141.91	29
1143.02	30
1144.13	31
1145.24	30
1146.35	24
1147.46	31
1148.56	28
1149.67	32
1150.78	25
1151.89	26
1153	28
1154.1	24
1155.21	27
1156.32	31
1157.43	31
1158.53	28
1159.64	28
1160.75	27
1161.85	27
1162.96	30
1164.07	28
1165.17	29
1166.28	30
1167.38	30
1168.49	36
1169.59	28
1170.7	27
1171.8	25
1172.91	31
1174.01	31
1175.12	33
1176.22	28
1177.32	28
1178.43	30
1179.53	26
1180.64	29
1181.74	22
1182.84	28
1183.94	22
1185.05	24
1186.15	32
1187.25	26
1188.35	28
1189.46	28
1190.56	27
1191.66	26
1192.76	31
1193.86	29
1194.96	28
1196.06	22.0098
1197.16	29.945
1198.26	31.902
1199.37	31.9199
1200.47	29.0882
1201.57	30.853
1202.67	29.7451
1203.77	27.8529
1204.86	30.7604
1205.96	30.8087
1207.06	29.5793
1208.16	22.2255
1209.26	29.5156
1210.36	27.0652
1211.46	29.7165
1212.56	32.3164
1213.65	28.2392
1214.75	26.5232
1215.85	26.1814
1216.95	24.5735
1218.04	28.5028
1219.14	29.5508
1220.24	30.2036
1221.33	27.7509
1222.43	30.6024
1223.53	27.1512
1224.62	29.5942
1225.72	27.0225
1226.82	33.9841
1227.91	26.9331
1229.01	30.191
1230.1	29.2856
1231.2	27.0091
1232.29	29.3431
1233.39	30.3722
1234.48	28.8874
1235.58	31.2848
1236.67	23.656
1237.77	24.1698
1238.86	27.7914
1239.95	27.3971
1241.05	23.9854
1242.14	27.9478
1243.23	30.2555
1244.33	28.0987
1245.42	23.9732
1246.51	24.9039
1247.61	30.7483
1248.7	26.6718
1249.79	26.5735
1250.88	28.8499
1251.97	28
1253.07	25.4092
1254.16	27.786
1255.25	29.0214
1256.34	31.4668
1257.43	28.605
1258.52	27.848
1259.61	29.5933
1260.7	28.4988
1261.79	23.5588
1262.88	28.7147
1263.97	26.451
1265.06	29.6018
1266.15	24.823
1267.24	28.2547
1268.33	29.7511
1269.42	31.156
1270.51	29.661
1271.6	25.4069
1272.68	28.0963
1273.77	28.3464
1274.86	28.8426
1275.95	28.5272
1277.04	27.4683
1278.12	31.5397
1279.21	27.9947
1280.3	26.6382
1281.39	29.2052
1282.47	24.9537
1283.56	26.4216
1284.65	26.7058
1285.73	28.9655
1286.82	26.7291
1287.91	30.2693
1288.99	30.4429
1290.08	29.3286
1291.16	26.6315
1292.25	30.7353
1293.33	30.3923
1294.42	29.2201
1295.5	28.1141
1296.59	29.0931
1297.67	29.358
1298.76	30.1471
1299.84	29.9633
1300.92	28.4504
1302.01	25.4023
1303.09	26.0888
1304.17	27.234
1305.26	30
1306.34	29.5261
1307.34	24
1308.43	23
1309.52	24
1310.61	30
1311.7	27
1312.78	30
1313.87	24
1314.96	26
1316.04	22
1317.13	28
1318.22	27
1319.3	24
1320.39	25
1321.48	27
1322.56	25
1323.65	28
1324.73	28
1325.82	27
1326.9	28
1327.99	27
1329.07	28
1330.16	25
1331.24	26
1332.33	29
1333.41	24
1334.5	34
1335.58	35
1336.66	26
1337.75	27
1338.83	28
1339.91	26
1341	29
1342.08	24
1343.16	30
1344.24	33
1345.33	32
1346.41	28
1347.49	24
1348.57	28
1349.65	30
1350.74	28
1351.82	32
1352.9	29
1353.98	25
1355.06	29
1356.14	30
1357.22	27
1358.3	30
1359.38	26
1360.46	22
1361.54	27
1362.62	27
1363.7	30
1364.78	25
1365.86	26
1366.94	31
1368.02	27
1369.09	28
1370.17	28
1371.25	28
1372.33	29
1373.41	22
1374.48	27
1375.56	32
1376.64	28
1377.72	32
1378.79	29
1379.87	23
1380.95	30
1382.02	30
1383.1	28
1384.17	27
1385.25	29
1386.33	30
1387.4	28
1388.48	29
1389.55	26
1390.63	28
1391.7	28
1392.78	28
1393.85	30
1394.93	29
1396	28
1397.07	28
1398.15	30
1399.22	32
1400.3	33
1401.37	34
1402.44	31
1403.52	32
1404.59	35
1405.66	29
1406.73	35
1407.81	28
1408.88	34
1409.95	30
1411.02	32
1412.09	32
1413.17	32
1414.24	33
1415.31	30
1416.38	40
1417.45	30
1418.52	35
1419.59	26
1420.66	28
1421.73	28
1422.8	33
1423.87	30
1424.94	30
1426.01	29
1427.08	34
1428.15	29
1429.22	30
1430.29	28
1431.35	31
1432.42	32
1433.49	26
1434.56	32
1435.63	31
1436.69	31
1437.76	31
1438.83	32
1439.9	27
1440.96	30
1442.03	28
1443.1	30
1444.17	31
1445.23	31
1446.3	28
1447.36	32
1448.43	31
1449.49	31
1450.56	28
1451.63	29
1452.69	25
1453.76	31
1454.82	24
1455.89	29
1456.95	26
1458.01	30
1459.08	30
1460.14	33
1461.21	28
1462.27	29
1463.34	32
1464.4	34
1465.46	29
1466.52	29
1467.59	28
1468.65	35
1469.71	27
1470.77	27
1471.84	31
1472.9	27
1473.96	32
1475.02	29
1476.08	31
1477.15	31
1478.21	30
1479.27	20
1480.33	31
1481.39	32
1482.45	27
1483.51	34
1484.57	27
1485.63	33
1486.69	30
1487.75	30
1488.81	32
1489.87	27
1490.93	28
1491.99	33
1493.05	29
1494.1	32
1495.16	26
1496.22	31
1497.28	30
1498.34	24
1499.4	32
1500.45	25
1501.51	32
1502.57	30
1503.63	28
1504.68	31
1505.74	31
1506.8	28
1507.85	28
1508.91	28
1509.97	33
1511.02	30
1512.08	28
1513.13	24
1514.19	26
1515.24	33
1516.3	32
1517.35	31
1518.41	27
1519.46	28
1520.52	33
1521.57	27
1522.63	31
1523.68	24
1524.73	35
1525.79	31
1526.84	30
1527.9	32
1528.95	32
1530	34
1531.05	30
1532.11	30
1533.16	32
1534.21	31
1535.26	31
1536.32	30
1537.37	26
1538.42	32
1539.47	26
1540.52	29
1541.57	32
1542.63	29
1543.68	25
1544.73	30
1545.78	32
1546.83	31
1547.88	24
1548.93	30
1549.98	30
1551.03	26
1552.08	29
1553.13	31
1554.18	29
1555.23	25
1556.27	26
1557.32	28
1558.37	31
1559.42	28
1560.47	28
1561.52	26
1562.56	34
1563.61	28
1564.66	26
1565.71	29
1566.75	34
1567.8	26
1568.85	27
1569.9	32
1570.94	26
1571.99	27
1573.03	31
1574.08	29
1575.13	26
1576.17	29
1577.22	25
1578.26	33
1579.31	29
1580.35	25
1581.4	28
1582.44	27
1583.49	29
1584.53	29
1585.58	29
1586.62	24
1587.66	32
1588.71	26
1589.75	28
1590.8	26
1591.84	24
1592.88	28
1593.92	32
1594.97	30
1596.01	26
1597.05	25
1598.1	33
1599.14	29
1600.18	28
1601.22	30
1602.26	29
1603.3	26
1604.35	31
1605.39	28
1606.43	30
1607.47	35
1608.51	30
1609.55	32
1610.59	33
1611.63	29
1612.67	25
1613.71	24
1614.75	29
1615.79	29
1616.83	27
1617.87	32
1618.91	30
1619.95	32
1620.99	26
1622.02	30
1623.06	27
1624.1	26
1625.14	27
1626.18	30
1627.21	26
1628.25	26
1629.29	31
1630.33	33
1631.36	22
1632.4	32
1633.44	29
1634.48	28
1635.51	26
1636.55	31
1637.58	31
1638.62	29
1639.66	28
1640.69	27
1641.73	28
1642.76	30
1643.8	26
1644.83	28
1645.87	34
1646.9	24
1647.94	32
1648.97	30
1650	30
1651.04	26
1652.07	24
1653.11	30
1654.14	28
1655.17	32
1656.21	29
1657.24	26
1658.27	28
1659.31	24
1660.34	28
1661.37	29
1662.4	26
1663.43	27
1664.47	30
1665.5	30
1666.53	27
1667.56	27
1668.59	26
1669.62	33
1670.66	34
1671.69	32
1672.72	28
1673.75	32
1674.78	27
1675.81	28
1676.84	29
1677.87	28
1678.9	31
1679.93	25
1680.96	30
1681.98	31
1683.01	28
1684.04	28
1685.07	28
1686.1	28
1687.13	30
1688.16	31
1689.18	30
1690.21	29
1691.24	30
1692.27	31
1693.3	27
1694.32	28
1695.35	32
1696.38	29
1697.4	24
1698.43	28
1699.46	26
1700.48	29
1701.51	29
1702.54	20
1703.56	30
1704.59	31
1705.61	28
1706.64	27
1707.66	28
1708.69	27
1709.71	29
1710.74	30
1711.76	30
1712.79	30
1713.81	31
1714.83	31
1715.86	27
1716.88	28
1717.91	27
1718.93	31
1719.95	29
1720.98	33
1722	30
1723.02	30
1724.04	20
1725.07	29
1726.09	30
1727.11	30
1728.13	27
1729.15	26
1730.18	24
1731.2	28
1732.22	29
1733.24	33
1734.26	30
1735.28	29
1736.3	27
1737.32	28
1738.34	28
1739.36	29
1740.38	31
1741.4	22
1742.42	24
1743.44	28
1744.46	26
1745.48	27
1746.5	33
1747.52	29
1748.54	31
1749.56	29
1750.58	28
1751.6	30
1752.61	30
1753.63	24
1754.65	27
1755.67	26
1756.68	32
1757.7	31
1758.72	24
1759.74	25
1760.75	30
1761.77	28
1762.79	24
1763.8	32
1764.82	25
1765.83	30
1766.85	24
1767.87	24
1768.88	25
1769.9	28
1770.91	27
1771.93	28
1772.94	28
1773.96	29
1774.97	28
1775.99	28
1777	24
1778.02	26
1779.03	27
1780.04	26
1781.06	32
1782.07	28
1783.09	28
1784.1	26
1785.11	26
1786.13	24
1787.14	26
1788.15	29
1789.16	28
1790.18	27
1791.19	24
1792.2	30
1793.21	22
1794.22	32
1795.23	26
1796.25	24
1797.26	30
1798.27	28
1799.28	32
1800.29	28
1801.3	27
1802.31	27
1803.32	29
1804.33	23
1805.34	28
1806.35	26
1807.36	30
1808.37	27
1809.38	28
1810.39	31
1811.4	30
1812.41	26
1813.42	33
1814.42	25
1815.43	30
1816.44	32
1817.45	26
1818.46	28
1819.47	24
1820.47	28
1821.48	30
1822.49	30
1823.49	26
1824.5	24
1825.51	24
1826.52	30
1827.52	29
1828.53	34
1829.53	28
1830.54	26
1831.55	25
1832.55	26
1833.56	27
1834.56	24
1835.57	28
1836.57	29
1837.58	30
1838.58	30
1839.59	25
1840.59	28
1841.6	29
1842.6	28
1843.61	31
1844.61	24
1845.61	29
1846.62	24
1847.62	24
1848.62	25
1849.63	24
1850.63	26
1851.63	27
1852.64	30
1853.64	28
1854.64	29
1855.64	34
1856.64	29
1857.65	28
1858.65	33
1859.65	26
1860.65	30
1861.65	29
1862.65	28
1863.65	31
1864.66	28
1865.66	31
1866.66	33
1867.66	31
1868.66	28
1869.66	28
1870.66	27
1871.66	25
1872.66	32
1873.66	31
1874.66	33
1875.65	26
1876.65	28
1877.65	28
1878.65	25
1879.65	28
1880.65	27
1881.65	29
1882.64	32
1883.64	24
1884.64	28
1885.64	24
1886.63	24
1887.63	28
1888.63	24
1889.63	28
1890.62	32
1891.62	28
1892.62	26
1893.61	26
1894.61	24
1895.6	26
1896.6	32
1897.6	26
1898.59	20
1899.59	31
1900.58	31
1901.58	28
1902.57	26
1903.57	26
1904.56	28
1905.56	26
1906.55	24
1907.54	28
1908.54	27
1909.53	26
1910.53	30
1911.52	29
1912.51	25
1913.51	31
1914.5	25
1915.49	28
1916.49	28
1917.48	28
1918.47	31
1919.46	24
1920.46	23
1921.45	23
1922.44	25
1923.43	30
1924.42	28
1925.41	26
1926.41	26
1927.4	25
1928.39	28
1929.38	30
1930.37	28
1931.36	24
1932.35	26
1933.34	32
1934.33	28
1935.32	29
1936.31	26
1937.3	24
1938.29	28
1939.28	29
1940.27	26
1941.26	23
1942.24	29
1943.23	24
1944.22	28
1945.21	26
1946.2	26
1947.19	28
1948.17	28
1949.16	26
1950.15	25
1951.14	24
1952.12	28
1953.11	27
1954.1	26
1955.09	26
1956.07	32
1957.06	30
1958.05	26
1959.03	27
1960.02	30
1961	25
1961.99	26
1962.98	27
1963.96	26
1964.95	29
1965.93	29
1966.92	30
1967.9	28
1968.89	24
1969.87	26
1970.85	26
1971.84	27
1972.82	31
1973.81	26
1974.79	30
1975.78	26
1976.76	28
1977.74	26
1978.73	24
1979.71	28
1980.69	33
1981.67	28
1982.66	30
1983.64	30
1984.62	27
1985.6	26
1986.59	34
1987.57	27
1988.55	27
1989.53	26
1990.51	28
1991.49	20
1992.47	26
1993.45	27
1994.44	28
1995.42	28
1996.4	32
1997.38	29
1998.36	24
1999.34	24
2000.32	25
2001.3	30
2002.28	28
2003.26	23
2004.24	30
2005.22	30
2006.19	29
2007.17	28
2008.15	30
2009.13	29
2010.11	31
2011.09	26
2012.06	26
2013.04	26
2014.02	22
2015	24
2015.98	24
2016.95	26
2017.93	28
2018.91	26
2019.88	28
2020.86	20
2021.84	30
2022.81	28
2023.79	26
2024.77	18
2025.74	25
2026.72	30
2027.69	26
2028.67	32
2029.65	26
2030.62	28
2031.6	26
2032.57	24
2033.55	27
2034.52	25
2035.5	25
2036.47	28
2037.44	27
2038.42	28
2039.39	22
2040.36	33
2041.34	28
2042.31	26
2043.29	26
2044.26	36
2045.23	25
2046.2	25
2047.18	30
2048.15	26
2049.12	28
2050.09	28
2051.07	26
2052.04	29
2053.01	28
2053.98	24
2054.95	26
2055.93	27
2056.9	22
2057.87	24
2058.84	28
2059.81	28
2060.78	25
2061.75	25
2062.72	28
2063.69	27
2064.66	24
2065.63	27
2066.6	20
2067.57	28
2068.54	31
2069.51	28
2070.48	28
2071.45	26
2072.42	24
2073.38	29
2074.35	28
2075.32	26
2076.29	29
2077.26	26
2078.23	26
2079.19	30
2080.16	29
2081.13	26
2082.1	22
2083.06	20
2084.03	30
2085	27
2085.96	25
2086.93	28
2087.9	33
2088.86	22
2089.83	27
2090.8	26
2091.76	26
2092.73	28
2093.69	29
2094.66	30
2095.62	27
2096.59	24
2097.55	27
2098.52	24
2099.48	30
2100.45	30
2101.41	23
2102.38	24
2103.34	27
2104.31	26
2105.27	27
2106.23	24
2107.2	24
2108.16	25
2109.12	26
2110.09	27
2111.05	22
2112.01	25
2112.98	27
2113.94	25
2114.9	26
2115.86	26
2116.82	20
2117.79	26
2118.75	34
2119.71	27
2120.67	27
2121.63	26
2122.59	27
2123.55	26
2124.52	28
2125.48	26
2126.44	32
2127.4	28
2128.36	24
2129.32	25
2130.28	24
2131.24	25
2132.2	26
2133.16	28
2134.12	27
2135.08	26
2136.04	28
2136.99	30
2137.95	30
2138.91	24
2139.87	26
2140.83	27
2141.79	25
2142.75	25
2143.7	32
2144.66	28
2145.62	21.9883
2146.58	25.873
2147.53	28.0735
2148.49	26.1688
2149.45	26.1765
2150.41	24.3082
2151.36	26.9363
2152.32	26.0089
2153.27	29.8148
2154.23	27.642
2155.19	24.2946
2156.14	27.563
2157.1	27.864
2158.06	25.7516
2159.01	26.2695
2159.97	26.557
2160.92	25.4679
2161.88	23.4908
2162.83	21.5441
2163.79	28.0441
2164.74	28.1951
2165.7	27.3217
2166.65	25.332
2167.61	29.0645
2168.56	26.994
2169.51	25.7426
2170.47	24.5374
2171.42	27.202
2172.38	28.8698
2173.33	24.351
2174.28	24.7831
2175.24	26.9313
2176.19	27.2798
2177.14	27.4643
2178.09	22.626
2179.05	26.9283
2180	25.9699
2180.95	25.964
2181.9	23.3175
2182.86	27.6824
2183.81	26.9582
2184.76	23.4102
2185.71	21.2633
2186.66	24.5441
2187.61	26.1994
2188.57	28.7751
2189.52	25.2169
2190.47	22.8038
2191.42	26.6304
2192.37	24.147
2193.32	24.4178
2194.27	27.1245
2195.22	27.5706
2196.17	25.1471
2197.12	28.4657
2198.07	27.0664
2199.02	27.3107
2199.97	29.2001
2200.92	24.9136
2201.87	26.3959
2202.82	24.9638
2203.76	24.8353
2204.71	26.2683
2205.66	26.5432
2206.61	23.0242
2207.56	25.2178
2208.51	28.1111
2209.45	28.4996
2210.4	26.6622
2211.35	25.8708
2212.3	26.0735
2213.24	26.1858
2214.19	25.0214
2215.14	25.9997
2216.09	26.6046
2217.03	24.9418
2217.98	27.6302
2218.93	23.3488
2219.87	23.2294
2220.82	25.5813
2221.77	28.0342
2222.71	26.3922
2223.66	26.3295
2224.6	26.377
2225.55	28.5529
2226.49	23.5181
2227.44	23.9558
2228.38	26
2229.33	28.2425
2230.27	27.0108
2231.22	27.582
2232.16	25.862
2233.11	24.1863
2234.05	25.7086
2235	26.6505
2235.94	28.2897
2236.88	27.2217
2237.83	28.1618
2238.77	26.3135
2239.71	22.9237
2240.66	26.667
2241.6	27.0879
2242	25
2242.95	29
2243.9	24
2244.84	27
2245.79	24
2246.74	26
2247.69	30
2248.63	26
2249.58	26
2250.53	26
2251.47	27
2252.42	22
2253.37	30
2254.31	30
2255.26	22
2256.2	25
2257.15	26
2258.1	24
2259.04	20
2259.99	29
2260.93	26
2261.88	22
2262.82	23
2263.77	22
2264.71	28
2265.65	22
2266.6	22
2267.54	26
2268.49	28
2269.43	25
2270.38	27
2271.32	27
2272.26	33
2273.21	24
2274.15	28
2275.09	21
2276.04	27
2276.98	27
2277.92	27
2278.86	28
2279.81	26
2280.75	27
2281.69	26
2282.63	26
2283.57	30
2284.52	20
2285.46	28
2286.4	24
2287.34	26
2288.28	26
2289.22	22
2290.16	24
2291.1	28
2292.04	27
2292.98	26
2293.93	27
2294.86	26
2295.8	25
2296.74	16
2297.69	26
2298.62	26
2299.56	22
2300.5	27
2301.44	30
2302.38	28
2303.32	25
2304.26	30
2305.2	29
2306.14	27
2307.07	28
2308.01	22
2308.95	26
2309.89	24
2310.83	30
2311.76	24
2312.7	29
2313.64	27
2314.58	29
2315.51	26
2316.45	28
2317.39	28
2318.32	24
2319.26	24
2320.2	29
2321.13	30
2322.07	29
2323	31
2323.94	32
2324.88	28
2325.81	27
2326.75	31
2327.68	24
2328.62	29
2329.55	24
2330.49	30
2331.42	27
2332.36	28
2333.29	26
2334.22	32
2335.16	28
2336.09	25
2337.03	30
2337.96	29
2338.89	26
2339.83	31
2340.76	26
2341.69	22
2342.63	26
2343.56	28
2344.49	29
2345.43	28
2346.36	24
2347.29	24
2348.22	23
2349.15	30
2350.09	32
2351.02	26
2351.95	24
2352.88	24
2353.81	29
2354.74	29
2355.67	29
2356.61	28
2357.54	26
2358.47	24
2359.4	30
2360.33	24
2361.26	26
2362.19	29
2363.12	30
2364.05	32
2364.98	30
2365.91	28
2366.84	24
2367.77	27
2368.7	26
2369.62	27
2370.55	27
2371.48	24
2372.41	28
2373.34	22
2374.27	22
2375.2	20
2376.12	20
2377.05	28
2377.98	26
2378.91	22
2379.83	27
2380.76	23
2381.69	29
2382.62	28
2383.54	25
2384.47	28
2385.4	22
2386.32	32
2387.25	24
2388.18	26
2389.1	24
2390.03	25
2390.95	28
2391.88	26
2392.81	21
2393.73	31
2394.66	28
2395.58	26
2396.51	28
2397.43	27
2398.36	26
2399.28	29
2400.2	26
2401.13	29
2402.05	27
2402.98	26
2403.9	28
2404.83	32
2405.75	26
2406.67	28
2407.6	28
2408.52	24
2409.44	25
2410.37	26
2411.29	25
2412.21	26
2413.13	24
2414.06	31
2414.98	32
2415.9	23
2416.82	18
2417.74	24
2418.67	26
2419.59	29
2420.51	30
2421.43	25
2422.35	24
2423.27	32
2424.19	28
2425.11	30
2426.03	30
2426.96	26
2427.88	24
2428.8	27
2429.72	22
2430.64	28
2431.56	26
2432.48	27
2433.39	24
2434.31	28
2435.23	22
2436.15	28
2437.07	24
2437.99	26
2438.91	24
2439.83	30
2440.75	26
2441.67	21
2442.58	28
2443.5	26
2444.42	22
2445.34	28
2446.26	25
2447.17	24
2448.09	28
2449.01	22
2449.92	27
2450.84	28
2451.76	27
2452.68	26
2453.59	26
2454.51	31
2455.42	31
2456.34	22
2457.26	29
2458.17	26
2459.09	28
2460	22
2460.92	26
2461.83	28
2462.75	32
2463.66	29
2464.58	25
2465.49	28
2466.41	25
2467.32	30
2468.24	27
2469.15	29
2470.07	28
2470.98	20
2471.89	26
2472.81	29
2473.72	30
2474.64	30
2475.55	27
2476.46	22
2477.37	29
2478.29	28
2479.2	27
2480.11	28
2481.03	28
2481.94	24
2482.85	20
2483.76	32
2484.67	30
2485.59	25
2486.5	26
2487.41	29
2488.32	25
2489.23	26
2490.14	24
2491.05	26
2491.97	25
2492.88	28
2493.79	27
2494.7	28
2495.61	28
2496.52	31
2497.43	28
2498.34	30
2499.25	20
2500.16	30
2501.07	27
2501.98	23
2502.89	29
2503.79	27
2504.7	26
2505.61	29
2506.52	28
2507.43	27
2508.34	25
2509.25	25
2510.16	29
2511.06	24
2511.97	29
2512.88	22
2513.79	25
2514.69	28
2515.6	28
2516.51	26
2517.42	29
2518.32	31
2519.23	24
2520.14	30
2521.04	28
2521.95	30
2522.86	20
2523.76	28
2524.67	24
2525.57	27
2526.48	25
2527.39	20
2528.29	25
2529.2	32
2530.1	26
2531.01	26
2531.91	26
2532.82	26
2533.72	31
2534.63	24
2535.53	29
2536.44	30
2537.34	29
2538.24	25
2539.15	27
2540.05	26
2540.96	31
2541.86	28
2542.76	28
2543.67	27
2544.57	26
2545.47	26
2546.37	23
2547.28	24
2548.18	24
2549.08	25
2549.99	31
2550.89	31
2551.79	24
2552.69	30
2553.59	29
2554.49	26
2555.4	33
2556.3	29
2557.2	26
2558.1	28
2559	29
2559.9	31
2560.8	28
2561.7	28
2562.6	24
2563.5	26
2564.4	26
2565.3	22
2566.2	28
2567.1	24
2568	28
2568.9	22
2569.8	27
2570.7	22
2571.6	29
2572.5	24
2573.4	26
2574.3	29
2575.2	24
2576.1	26
2576.99	26
2577.89	24
2578.79	26
2579.69	28
2580.59	28
2581.48	29
2582.38	27
2583.28	24
2584.18	25
2585.07	29
2585.97	29
2586.87	29
2587.76	28
2588.66	33
2589.56	28
2590.45	26
2591.35	25
2592.25	27
2593.14	27
2594.04	27
2594.93	28
2595.83	28
2596.73	28
2597.62	32
2598.52	25
2599.41	30
2600.31	32
2601.2	30
2602.1	26
2602.99	28
2603.88	26
2604.78	28
2605.67	28
2606.57	28
2607.46	22
2608.35	30
2609.25	28
2610.14	26
2611.03	26
2611.93	28
2612.82	28
2613.71	28
2614.61	31
2615.5	29
2616.39	25
2617.29	27
2618.18	28
2619.07	26
2619.96	27
2620.85	26
2621.75	26
2622.64	28
2623.53	30
2624.42	29
2625.31	29
2626.2	33
2627.09	30
2627.98	29
2628.88	20
2629.77	23
2630.66	28
2631.55	27
2632.44	26
2633.33	26
2634.22	27
2635.11	26
2636	32
2636.89	26
2637.78	25
2638.66	26
2639.55	25
2640.44	28
2641.33	26
2642.22	26
2643.11	27
2644	30
2644.89	28
2645.78	25
2646.66	26
2647.55	30
2648.44	31
2649.33	29
2650.21	32
2651.1	25
2651.99	24
2652.88	24
2653.76	31
2654.65	30
2655.54	26
2656.42	26
2657.31	26
2658.2	29
2659.08	28
2659.97	28
2660.86	28
2661.74	30
2662.63	27
2663.51	26
2664.4	24
2665.29	28
2666.17	26
2667.06	29
2667.94	29
2668.83	27
2669.71	22
2670.6	26
2671.48	26
2672.36	28
2673.25	27
2674.13	32
2675.02	24
2675.9	24
2676.78	25
2677.67	24
2678.55	28
2679.43	27
2680.32	31
2681.2	31
2682.08	24
2682.97	28
2683.85	31
2684.73	23
2685.61	30
2686.5	28
2687.38	27
2688.26	26
2689.14	26
2690.03	26
2690.91	29
2691.79	26
2692.67	33
2693.55	26
2694.43	29
2695.31	23
2696.19	24
2697.08	27
2697.96	26
2698.84	22
2699.72	30
2700.6	25
2701.48	25
2702.36	27
2703.24	25
2704.12	28
2705	27
2705.88	26
2706.76	23
2707.64	24
2708.51	27
2709.39	25
2710.27	29
2711.15	27
2712.03	26
2712.91	28
2713.79	31
2714.67	24
2715.54	27
2716.42	24
2717.3	29
2718.18	26
2719.05	30
2719.93	31
2720.81	32
2721.69	26
2722.56	26
2723.44	28
2724.32	25
2725.19	28
2726.07	27
2726.95	30
2727.82	26
2728.7	28
2729.58	27
2730.45	26
2731.33	29
2732.2	26
2733.08	28
2733.95	27
2734.83	30
2735.7	34
2736.58	30
2737.45	24
2738.33	30
2739.2	30
2740.08	26
2740.95	26
2741.83	27
2742.7	30
2743.58	32
2744.45	27
2745.32	30
2746.2	25
2747.07	26
2747.94	30
2748.82	28
2749.69	28
2750.56	30
2751.44	28
2752.31	26
2753.18	24
2754.05	32
2754.93	29
2755.8	25
2756.67	30
2757.54	27
2758.42	27
2759.29	30
2760.16	25
2761.03	24
2761.9	24
2762.77	29
2763.64	30
2764.51	30
2765.38	29
2766.26	30
2767.13	22
2768	28
2768.87	30
2769.74	28
2770.61	24
2771.48	28
2772.35	22
2773.22	26
2774.09	27
2774.96	31
2775.83	24
2776.7	32
2777.56	28
2778.43	24
2779.3	29
2780.17	30
2781.04	28
2781.91	27
2782.78	31
2783.64	26
2784.51	28
2785.38	28
2786.25	26
2787.12	28
2787.98	26
2788.85	25
2789.72	24
2790.59	29
2791.45	35
2792.32	32
2793.19	28
2794.05	32
2794.92	28
2795.79	31
2796.65	30
2797.52	29
2798.38	28
2799.25	31
2800.12	30
2800.98	30
2801.85	34
2802.71	27
2803.58	31.5
2804.44	34
2805.31	27
2806.17	29
2807.04	34
2807.9	27
2808.77	27
2809.63	30
2810.5	28
2811.36	30
2812.22	28
2813.09	27
2813.95	26
2814.82	28
2815.68	26
2816.54	31
2817.41	29
2818.27	29
2819.13	28
2820	28
2820.86	28
2821.72	30
2822.58	29
2823.45	28
2824.31	30
2825.17	26
2826.03	28
2826.9	30
2827.76	28
2828.62	30
2829.48	22
2830.34	26
2831.2	26
2832.06	32
2832.92	32
2833.79	27
2834.65	33
2835.51	26
2836.37	26
2837.23	28
2838.09	28
2838.95	20
2839.81	32
2840.67	22
2841.53	29
2842.39	31
2843.25	28
2844.11	27
2844.97	26
2845.83	24
2846.68	24
2847.54	28
2848.4	32
2849.26	30
2850.12	28
2850.98	24
2851.84	31
2852.69	28
2853.55	27
2854.41	32
2855.27	25
2856.13	26
2856.98	30
2857.84	24
2858.7	30
2859.56	26
2860.41	29
2861.27	28
2862.13	30
2862.98	23
2863.84	30
2864.7	29
2865.55	28
2866.41	30
2867.27	28
2868.12	28
2868.98	28
2869.83	28
2870.69	28
2871.54	26
2872.4	30
2873.25	28
2874.11	26
2874.96	30
2875.82	30
2876.68	28
2877.53	28
2878.38	33
2879.24	31
2880.09	30
2880.95	34
2881.8	31
2882.65	34
2883.51	30
2884.36	34
2885.22	33
2886.07	35
2886.92	36
2887.77	34
2888.63	36
2889.48	28
2890.33	32
2891.19	36
2892.04	38
2892.89	38
2893.74	42
2894.6	38
2895.45	46
2896.3	41
2897.15	44
2898	46
2898.85	48
2899.71	48
2900.56	54
2901.41	49
2902.26	48
2903.11	57
2903.96	58
2904.81	58
2905.66	64
2906.51	54
2907.36	62
2908.21	59
2909.06	62
2909.91	60
2910.76	56
2911.61	56
2912.46	55
2913.31	54
2914.16	49
2915.01	46
2915.86	47
2916.71	45
2917.56	42
2918.41	38
2919.26	42
2920.1	40
2920.95	33
2921.8	40
2922.65	34
2923.5	30
2924.34	27
2925.19	35
2926.04	35
2926.89	30
2927.74	33
2928.58	34
2929.43	26
2930.28	32
2931.12	30
2931.97	34
2932.82	22
2933.66	30
2934.51	30
2935.36	24
2936.2	30
2937.05	31
2937.89	29
2938.74	30
2939.59	29
2940.43	32
2941.28	31
2942.12	28
2942.97	32
2943.81	34
2944.66	26
2945.5	32
2946.35	24
2947.19	32
2948.04	26
2948.88	28
2949.72	28
2950.57	34
2951.41	35
2952.26	33
2953.1	30
2953.94	33
2954.79	38
2955.63	34
2956.47	34
2957.32	32
2958.16	39
2959	32
2959.85	36
2960.69	36
2961.53	40
2962.37	37
2963.22	39
2964.06	38
2964.9	38
2965.74	39
2966.58	43
2967.42	48
2968.27	36
2969.11	41
2969.95	38
2970.79	44
2971.63	46
2972.47	37
2973.31	30
2974.15	34
2974.99	31
2975.83	34
2976.68	34
2977.52	34
2978.36	34
2979.2	30
2980.04	32
2980.88	34
2981.71	32
2982.55	29
2983.39	34
2984.23	28
2985.07	27
2985.91	30
2986.75	26
2987.59	30
2988.43	29
2989.27	29
2990.1	28
2990.94	28
2991.78	28
2992.62	32
2993.46	22
2994.3	28
2995.13	30
2995.97	24
2996.81	26
2997.64	29
2998.48	32
2999.32	26
