#Acq. time (s)=	3
#Accumulations=	3
#Range (cm-¹)=	100...3000
#Windows=	3
#Autofocus=	Off
#AutoExposure=	Off
#Spike filter=	Multiple accum.
#Delay time (s)=	0
#Binning=	1
#Readout mode=	Signal
#DeNoise=	Off
#ICS correction=	Off
#Dark correction=	Off
#Inst. Process=	Off
#Instrument=	LabRAM HR Evol
#Detector=	Syncerity OE
#Objective=	x100_VIS_LWD
#Grating=	600 (500nm)
#ND Filter=	25%
#Laser=	633nm_Edge
#Hole=	100.021
#Range=	Visible
#Project=	Bolus
#Sample=	B5
#Site=	stripside
#Title=	m07
#Remark=	
#Date=	03.11.2025 19:06
#Acquired=	03.11.2025 19:06:41
100.969	26
102.252	29
103.535	36
104.818	35
106.101	28
107.384	34
108.666	33
109.948	33
111.232	30
112.514	32
113.795	30
115.077	30
116.358	27
117.639	37
118.919	27
120.2	31
121.48	28
122.76	28
124.04	38
125.32	24
126.599	30
127.879	36
129.158	34
130.436	32
131.715	33
132.992	30
134.27	36
135.548	34
136.826	37
138.104	37
139.381	30
140.658	32
141.935	38
143.212	29
144.489	40
145.763	32
147.04	34
148.315	40
149.591	37
150.867	36
152.142	38
153.416	34
154.691	36
155.965	36
157.24	33
158.514	37
159.786	38
161.06	38
162.334	39
163.607	43
164.881	36
166.152	39
167.425	34
168.698	37
169.969	38
171.241	38
172.513	40
173.785	38
175.055	34
176.326	34
177.597	35
178.867	38
180.137	42
181.408	40
182.677	33
183.947	41
185.217	41
186.485	37
187.755	42
189.022	38
190.291	35
191.56	36
192.828	45
194.096	40
195.363	35
196.631	38
197.899	41
199.165	36
200.432	41
201.698	39
202.965	38
204.23	32
205.497	30
206.762	36
208.028	38
209.293	36
210.559	33
211.823	40
213.088	38
214.352	37
215.617	32
216.88	29
218.145	39
219.408	34
220.672	32
221.934	32
223.196	32
224.46	30
225.722	37
226.985	34
228.246	33
229.508	32
230.77	32
232.031	31
233.292	30
234.554	31
235.814	24
237.074	34
238.335	32
239.595	28
240.854	30
242.115	34
243.374	34
244.633	32
245.893	34
247.151	29
248.409	36
249.667	32
250.927	32
252.184	32
253.442	34
254.699	32
255.957	32
257.214	32
258.47	32
259.727	29
260.983	30
262.24	28
263.496	31
264.752	31
266.007	31
267.262	36
268.517	28
269.773	28
271.028	32
272.282	34
273.536	32
274.79	34
276.044	34
277.297	31
278.551	30
279.804	32
281.057	32
282.31	28
283.564	31
284.816	24
286.068	32
287.32	30
288.572	29
289.823	31
291.074	32
292.325	26
293.576	36
294.827	24
296.077	31
297.328	34
298.578	29
299.828	33
301.077	31
302.325	30
303.575	35
304.824	28
306.073	28
307.321	30
308.57	35
309.818	31
311.066	28
312.314	31
313.562	31
314.808	26
316.055	30
317.302	36
318.549	29
319.796	27
321.042	28
322.288	26
323.533	34
324.779	32
326.024	31
327.27	38
328.515	25
329.759	35
331.004	28
332.248	28
333.493	28
334.736	30
335.98	32
337.223	32
338.466	29
339.709	34
340.952	23
342.195	32
343.437	28
344.68	32
345.922	30
347.163	30
348.405	32
349.647	36
350.887	28
352.128	30
353.37	30
354.609	32
355.85	37
357.089	31
358.33	30
359.57	30
360.809	31
362.049	36
363.287	30
364.526	31
365.764	26
367.003	36
368.241	34
369.479	33
370.718	22
371.955	32
373.193	34
374.429	26
375.667	34
376.903	30
378.139	31
379.376	26
380.611	32
381.848	35
383.083	26
384.319	29
385.554	32
386.79	33
388.024	28
389.258	28
390.493	33
391.727	35
392.962	36
394.195	32
395.428	30
396.663	30
397.895	32
399.128	33
400.361	33
401.593	31
402.825	34
404.058	29
405.29	32
406.521	24
407.752	29
408.985	28
410.215	36
411.446	30
412.678	32
413.908	30
415.138	30
416.367	32
417.597	28
418.828	30
420.057	32
421.286	34
422.514	30
423.743	32
424.973	29
426.201	31
427.429	26
428.657	35
429.884	31
431.112	34
432.34	35
433.567	31
434.794	26
436.02	33
437.247	32
438.473	31
439.699	32
440.925	32
442.15	32
443.376	23
444.601	33
445.826	32
447.051	31
448.275	34
449.5	30
450.724	34
451.948	30
453.172	30
454.396	28
455.619	31
456.842	32
458.065	31
459.288	32
460.511	28
461.733	28
462.956	35
464.178	30
465.4	30
466.621	34
467.843	32
469.064	32
470.285	35
471.505	34
472.726	26
473.946	36
475.166	37
476.387	38
477.606	40
478.825	37
480.044	40
481.264	43
482.483	46
483.702	48
484.921	51
486.138	48
487.356	50
488.574	51
489.792	54
491.009	55
492.226	47
493.444	51
494.661	48
495.877	48
497.094	49
498.31	43
499.525	48
500.741	43
501.958	43
503.172	38
504.388	38
505.603	39
506.817	38
508.032	38
509.247	37
510.46	38
511.675	38
512.888	30
514.102	36
515.316	38
516.528	34
517.742	33
518.954	34
520.167	34
521.378	39
522.591	36
523.802	36
525.015	30
526.226	32
527.438	30
528.648	33
529.86	30
531.07	34
532.281	36
533.491	29
534.702	34
535.911	32
537.121	28
538.33	28
539.54	32
540.749	30
541.957	24
543.167	38
544.375	30
545.584	33
546.791	38
547.999	28
549.207	31
550.414	28
551.621	36
552.829	28
554.035	35
555.241	22
556.449	34
557.655	26
558.86	31
560.066	36
561.272	29
562.477	36
563.682	34
564.888	34
566.093	30
567.297	32
568.501	29
569.705	34
570.91	28
572.114	32
573.317	30
574.52	28
575.723	26
576.927	38
578.13	32
579.332	33
580.535	32
581.737	32
582.938	30
584.14	32
585.343	33
586.544	28
587.745	33
588.946	35
590.147	30
591.347	30
592.548	30
593.748	28
594.948	30
596.147	34
597.347	34
598.546	29
599.745	29
600.944	28
602.143	36
603.342	36
604.54	33
605.738	26
606.937	33
608.134	34
609.332	28
610.529	32
611.727	26
612.924	26
614.121	28
615.317	34
616.513	36
617.709	32
618.905	33
620.101	33
621.297	30
622.492	30
623.688	32
624.883	30
626.077	27
627.271	35
628.466	27
629.66	26
630.855	34
632.047	32
633.241	31
634.435	36
635.629	31
636.82	28
638.014	31
639.207	34
640.399	26
641.59	34
642.783	28
643.975	29
645.166	28
646.357	30
647.549	30
648.741	28
649.93	30
651.122	30
652.311	27
653.502	33
654.692	37
655.881	34
657.071	32
658.261	34
659.45	32
660.639	30
661.827	30
663.016	30
664.204	28
665.393	30
666.581	34
667.769	32
668.957	34
670.143	26
671.331	32
672.518	33
673.705	28
674.891	40
676.078	33
677.264	33
678.451	32
679.636	38
680.821	37
682.007	34
683.192	36
684.378	35
685.562	33
686.747	32
687.931	33
689.115	38
690.3	30
691.483	30
692.666	36
693.851	30
695.034	35
696.216	37
697.4	37
698.582	38
699.764	33
700.948	38
702.129	36
703.311	40
704.493	43
705.674	43
706.855	46
708.036	40
709.218	43
710.399	44
711.579	44
712.759	41
713.939	41
715.12	38
716.299	38
717.478	35
718.657	35
719.836	34
721.015	28
722.195	34
723.373	28
724.552	35
725.729	30
726.907	30
728.085	34
729.262	30
730.44	30
731.617	29
732.795	33
733.972	33
735.148	33
736.324	30
737.501	32
738.677	32
739.852	30
741.028	30
742.203	32
743.379	32
744.554	29
745.729	34
746.903	29
748.078	28
749.252	34
750.426	33
751.599	32
752.772	32
753.946	31
755.119	34
756.293	33
757.466	31
758.639	26
759.811	31
760.984	32
762.155	30
763.327	33
764.499	34
765.67	26
766.842	34
768.013	29
769.183	32
770.354	34
771.525	31
772.696	31
773.865	31
775.035	30
776.205	32
777.375	32
778.544	30
779.713	33
780.882	33
782.052	34
783.219	34
784.388	32
785.557	25
786.724	36
787.892	28
789.06	34
790.227	34
791.395	36
792.562	34
793.728	31
794.895	35
796.061	30
797.228	35
798.395	37
799.56	32
800.726	32
801.891	32
803.057	37
804.221	30
805.387	32
806.551	34
807.716	32
808.879	28
810.044	32
811.208	30
812.372	32
813.535	28
814.699	28
815.862	39
817.025	33
818.188	31
819.351	32
820.513	28
821.675	28
822.837	35
823.999	31
825.161	22
826.322	28
827.483	33
828.645	32
829.805	27
830.966	31
832.127	37
833.287	28
834.447	26
835.607	31
836.767	30
837.926	28
839.085	35
840.245	32
841.404	28
842.562	32
843.72	29
844.88	30
846.038	31
847.195	34
848.353	29
849.512	29
850.669	28
851.826	24
852.983	31
854.139	34
855.296	29
856.453	34
857.609	32
858.765	39
859.921	30
861.077	34
862.232	24
863.387	40
864.542	28
865.697	31
866.852	26
868.008	37
869.162	28
870.316	34
871.47	30
872.624	35
873.778	37
874.931	34
876.084	30
877.237	32
878.39	29
879.543	35
880.695	34
881.846	33
882.999	32
884.151	26
885.302	25
886.454	28
887.606	26
888.757	25
889.908	34
891.059	28
892.21	33
893.359	32
894.509	33
895.659	32
896.81	37
897.959	32
899.109	26
900.257	33
901.407	33
902.556	30
903.705	34
904.854	33
906.001	28
907.149	29
908.298	32
909.446	33
910.592	28
911.74	26
912.888	29
914.034	29
915.181	31
916.328	26
917.473	29
918.62	27
919.766	32
920.911	30
922.058	32
923.204	29
924.348	29
925.494	35
926.638	28
927.783	30
928.928	20
930.072	34
931.216	32
932.36	30
933.504	28
934.647	31
935.791	31
936.933	28
938.077	32
939.219	32
940.363	31
941.504	29
942.647	30
943.789	33
944.932	28
946.073	36
947.215	30
948.356	30
949.498	27
950.638	30
951.778	31
952.92	31
954.06	31
955.199	32
956.34	31
957.479	32
958.62	34
959.759	32
960.898	32
962.038	27
963.176	28
964.315	32
965.453	30
966.592	30
967.73	30
968.867	28
970.006	33
971.144	33
972.281	33
973.418	31
974.554	30
975.692	32
976.829	24
977.965	32
979.101	32
980.237	26
981.374	26
982.509	32
983.645	28
984.78	31
985.915	30
987.05	30
988.184	28
989.319	25
990.453	25
991.589	29
992.722	32
993.856	34
994.99	34
996.123	31
997.257	28
998.39	28
999.523	27
1000.66	28
1001.79	30
1002.92	31
1004.05	24
1005.18	22
1006.32	24
1007.45	34
1008.58	29
1009.71	28
1010.84	28
1011.97	30
1013.1	24
1014.23	34
1015.36	32
1016.49	28
1017.62	32
1018.75	26
1019.88	27
1021.01	26
1022.14	27
1023.27	28
1024.4	36
1025.53	25
1026.66	28
1027.79	26
1028.91	35
1030.04	33
1031.17	34
1032.3	26
1033.42	33
1034.55	29
1035.68	29
1036.81	30
1037.93	32
1039.06	28
1040.18	32
1041.31	27
1042.44	30
1043.56	28
1044.69	28
1045.81	28
1046.94	28
1048.06	29
1049.19	29
1050.31	30
1051.44	23
1052.56	32
1053.69	30
1054.81	29
1055.93	26
1057.06	31
1058.18	28
1059.3	32
1060.43	26
1061.55	33
1062.67	27
1063.79	28
1064.92	30
1066.04	28
1067.16	37
1068.28	30
1069.4	28
1070.52	30
1071.65	30
1072.77	32
1073.89	27
1075.01	33
1076.13	25
1077.25	22
1078.37	27
1079.49	30
1080.61	28
1081.73	30
1082.85	29
1083.97	26
1085.09	29
1086.2	28
1087.32	28
1088.44	27
1089.56	30
1090.68	32
1091.8	27
1092.91	32
1094.03	30
1095.15	24
1096.26	27
1097.38	31
1098.5	26
1099.61	26
1100.73	28
1101.85	30
1102.96	28
1104.08	30
1105.19	28
1106.31	32
1107.43	26
1108.54	26
1109.66	28
1110.77	30
1111.88	28
1113	28
1114.11	26
1115.23	32
1116.34	30
1117.46	27
1118.57	33
1119.68	28
1120.8	24
1121.91	26
1123.02	28
1124.13	32
1125.25	30
1126.36	34
1127.47	30
1128.58	28
1129.69	30
1130.8	32
1131.92	28
1133.03	31
1134.14	20
1135.25	31
1136.36	26
1137.47	31
1138.58	28
1139.69	34
1140.8	26
1141.91	28
1143.02	26
1144.13	31
1145.24	24
1146.35	30
1147.46	33
1148.56	30
1149.67	26
1150.78	28
1151.89	27
1153	26
1154.1	27
1155.21	32
1156.32	31
1157.43	30
1158.53	28
1159.64	26
1160.75	30
1161.85	32
1162.96	29
1164.07	31
1165.17	30
1166.28	28
1167.38	31
1168.49	31
1169.59	28
1170.7	28
1171.8	32
1172.91	29
1174.01	28
1175.12	30
1176.22	30
1177.32	26
1178.43	26
1179.53	25
1180.64	27
1181.74	30
1182.84	29
1183.94	27
1185.05	30
1186.15	30
1187.25	26
1188.35	25
1189.46	24
1190.56	31
1191.66	32
1192.76	28
1193.86	30
1194.96	26
1196.06	30.9902
1197.16	27.0211
1198.26	29.0303
1199.37	28.0801
1200.47	29.9316
1201.57	24.3039
1202.67	29.093
1203.77	26.1365
1204.86	27.9219
1205.96	26.1372
1207.06	28.0045
1208.16	28.0544
1209.26	29.6295
1210.36	29.6722
1211.46	32.3599
1212.56	31.2407
1213.65	31.7082
1214.75	29.4726
1215.85	27.6603
1216.95	32.4391
1218.04	26.8406
1219.14	28.5114
1220.24	24.2047
1221.33	29.5305
1222.43	25.8254
1223.53	28.75
1224.62	24.9235
1225.72	29.4287
1226.82	32.1159
1227.91	30.1375
1229.01	28.1126
1230.1	26.0149
1231.2	26.2031
1232.29	29.6132
1233.39	28.8139
1234.48	29.7419
1235.58	26.7052
1236.67	25.4706
1237.77	28.5851
1238.86	28.6596
1239.95	30.5184
1241.05	27.9854
1242.14	29.7058
1243.23	26.2635
1244.33	27.851
1245.42	27.3963
1246.51	27.724
1247.61	28.6649
1248.7	26.7343
1249.79	28.3529
1250.88	29.4685
1251.97	32.0285
1253.07	26.3722
1254.16	24.165
1255.25	26.8936
1256.34	29.8643
1257.43	30.1681
1258.52	26.5392
1259.61	27.2263
1260.7	28.5009
1261.79	30.7594
1262.88	29.4794
1263.97	25.4385
1265.06	28.8469
1266.15	24.62
1267.24	29.3139
1268.33	28.1638
1269.42	29
1270.51	29.8149
1271.6	28.8017
1272.68	25.0838
1273.77	27.2074
1274.86	24.3654
1275.95	28.2478
1277.04	26.6194
1278.12	30.4254
1279.21	25.3958
1280.3	24.8194
1281.39	27.5392
1282.47	27.4875
1283.56	26.3549
1284.65	25.9951
1285.73	27.4178
1286.82	29.5448
1287.91	27.9023
1288.99	26.6573
1290.08	29.1157
1291.16	22.432
1292.25	28.1324
1293.33	27.88
1294.42	26.2968
1295.5	23.5194
1296.59	28.4231
1297.67	27.6667
1298.76	27.1398
1299.84	24.5293
1300.92	28.4308
1302.01	32.307
1303.09	27.2463
1304.17	28.8893
1305.26	28.1038
1306.34	29.8208
1307.34	28
1308.43	31
1309.52	28
1310.61	26
1311.7	28
1312.78	26
1313.87	27
1314.96	25
1316.04	27
1317.13	28
1318.22	22
1319.3	29
1320.39	24
1321.48	28
1322.56	30
1323.65	28
1324.73	30
1325.82	26
1326.9	28
1327.99	26
1329.07	34
1330.16	27
1331.24	29
1332.33	24
1333.41	25
1334.5	29
1335.58	30
1336.66	24
1337.75	26
1338.83	27
1339.91	27
1341	31
1342.08	24
1343.16	29
1344.24	29
1345.33	30
1346.41	29
1347.49	25
1348.57	26
1349.65	26
1350.74	26
1351.82	27
1352.9	26
1353.98	26
1355.06	30
1356.14	24
1357.22	28
1358.3	30
1359.38	28
1360.46	28
1361.54	24
1362.62	22
1363.7	31
1364.78	20
1365.86	28
1366.94	26
1368.02	24
1369.09	29
1370.17	27
1371.25	31
1372.33	23
1373.41	33
1374.48	29
1375.56	26
1376.64	27
1377.72	26
1378.79	26
1379.87	30
1380.95	30
1382.02	28
1383.1	28
1384.17	30
1385.25	26
1386.33	31
1387.4	26
1388.48	27
1389.55	34
1390.63	32
1391.7	30
1392.78	34
1393.85	29
1394.93	32
1396	30
1397.07	30
1398.15	36
1399.22	28
1400.3	30
1401.37	35
1402.44	34
1403.52	33
1404.59	34
1405.66	31
1406.73	28
1407.81	28
1408.88	34
1409.95	35
1411.02	26
1412.09	30
1413.17	26
1414.24	28
1415.31	32
1416.38	32
1417.45	28
1418.52	24
1419.59	24
1420.66	30
1421.73	34
1422.8	28
1423.87	32
1424.94	28
1426.01	32
1427.08	30
1428.15	30
1429.22	32
1430.29	30
1431.35	35
1432.42	29
1433.49	28
1434.56	25
1435.63	30
1436.69	27
1437.76	29
1438.83	27
1439.9	35
1440.96	26
1442.03	30
1443.1	30
1444.17	29
1445.23	26
1446.3	24
1447.36	27
1448.43	31
1449.49	34
1450.56	33
1451.63	26
1452.69	29
1453.76	30
1454.82	18
1455.89	31
1456.95	28
1458.01	28
1459.08	27
1460.14	28
1461.21	22
1462.27	34
1463.34	24
1464.4	31
1465.46	30
1466.52	27
1467.59	32
1468.65	29
1469.71	28
1470.77	31
1471.84	32
1472.9	28
1473.96	27
1475.02	22
1476.08	28
1477.15	28
1478.21	29
1479.27	25
1480.33	32
1481.39	24
1482.45	27
1483.51	25
1484.57	26
1485.63	28
1486.69	28
1487.75	28
1488.81	29
1489.87	26
1490.93	33
1491.99	30
1493.05	30
1494.1	29
1495.16	26
1496.22	28
1497.28	29
1498.34	28
1499.4	28
1500.45	29
1501.51	27
1502.57	28
1503.63	25
1504.68	28
1505.74	28
1506.8	25
1507.85	27
1508.91	24
1509.97	29
1511.02	28
1512.08	27
1513.13	28
1514.19	31
1515.24	28
1516.3	31
1517.35	32
1518.41	30
1519.46	30
1520.52	26
1521.57	31
1522.63	27
1523.68	26
1524.73	32
1525.79	32
1526.84	24
1527.9	22
1528.95	30
1530	33
1531.05	31
1532.11	28
1533.16	30
1534.21	32
1535.26	28
1536.32	28
1537.37	34
1538.42	31
1539.47	26
1540.52	34
1541.57	33
1542.63	30
1543.68	30
1544.73	29
1545.78	22
1546.83	26
1547.88	28
1548.93	28
1549.98	29
1551.03	30
1552.08	30
1553.13	28
1554.18	26
1555.23	31
1556.27	27
1557.32	29
1558.37	27
1559.42	34
1560.47	31
1561.52	24
1562.56	35
1563.61	24
1564.66	29
1565.71	29
1566.75	30
1567.8	32
1568.85	26
1569.9	31
1570.94	28
1571.99	31
1573.03	24
1574.08	26
1575.13	28
1576.17	27
1577.22	26
1578.26	28
1579.31	32
1580.35	30
1581.4	29
1582.44	30
1583.49	32
1584.53	28
1585.58	29
1586.62	27
1587.66	29
1588.71	24
1589.75	31
1590.8	28
1591.84	31
1592.88	28
1593.92	29
1594.97	29
1596.01	31
1597.05	24
1598.1	22
1599.14	31
1600.18	29
1601.22	30
1602.26	24
1603.3	33
1604.35	31
1605.39	33
1606.43	29
1607.47	29
1608.51	32
1609.55	30
1610.59	30
1611.63	24
1612.67	33
1613.71	30
1614.75	32
1615.79	31
1616.83	29
1617.87	30
1618.91	28
1619.95	26
1620.99	28
1622.02	26
1623.06	23
1624.1	33
1625.14	27
1626.18	26
1627.21	28
1628.25	26
1629.29	30
1630.33	28
1631.36	28
1632.4	35
1633.44	23
1634.48	26
1635.51	30
1636.55	28
1637.58	35
1638.62	29
1639.66	28
1640.69	29
1641.73	30
1642.76	29
1643.8	24
1644.83	32
1645.87	31
1646.9	24
1647.94	30
1648.97	32
1650	30
1651.04	30
1652.07	31
1653.11	30
1654.14	28
1655.17	28
1656.21	30
1657.24	31
1658.27	28
1659.31	32
1660.34	30
1661.37	28
1662.4	28
1663.43	31
1664.47	26
1665.5	33
1666.53	28
1667.56	31
1668.59	24
1669.62	28
1670.66	29
1671.69	31
1672.72	29
1673.75	28
1674.78	29
1675.81	29
1676.84	26
1677.87	25
1678.9	26
1679.93	32
1680.96	30
1681.98	26
1683.01	24
1684.04	26
1685.07	29
1686.1	29
1687.13	26
1688.16	29
1689.18	26
1690.21	24
1691.24	26
1692.27	28
1693.3	29
1694.32	33
1695.35	32
1696.38	28
1697.4	26
1698.43	27
1699.46	29
1700.48	29
1701.51	28
1702.54	30
1703.56	28
1704.59	31
1705.61	30
1706.64	30
1707.66	28
1708.69	28
1709.71	31
1710.74	26
1711.76	27
1712.79	32
1713.81	28
1714.83	25
1715.86	30
1716.88	26
1717.91	26
1718.93	36
1719.95	28
1720.98	28
1722	29
1723.02	32
1724.04	22
1725.07	24
1726.09	32
1727.11	28
1728.13	26
1729.15	26
1730.18	26
1731.2	28
1732.22	28
1733.24	26
1734.26	26
1735.28	28
1736.3	28
1737.32	29
1738.34	29
1739.36	31
1740.38	30
1741.4	30
1742.42	24
1743.44	26
1744.46	29
1745.48	30
1746.5	26
1747.52	30
1748.54	30
1749.56	31
1750.58	30
1751.6	24
1752.61	29
1753.63	22
1754.65	28
1755.67	28
1756.68	28
1757.7	26
1758.72	28
1759.74	27
1760.75	22
1761.77	30
1762.79	30
1763.8	28
1764.82	26
1765.83	32
1766.85	30
1767.87	29
1768.88	30
1769.9	31
1770.91	25
1771.93	29
1772.94	27
1773.96	30
1774.97	28
1775.99	35
1777	28
1778.02	30
1779.03	26
1780.04	32
1781.06	26
1782.07	30
1783.09	22
1784.1	30
1785.11	29
1786.13	30
1787.14	25
1788.15	30
1789.16	27
1790.18	27
1791.19	24
1792.2	29
1793.21	28
1794.22	29
1795.23	32
1796.25	32
1797.26	30
1798.27	24
1799.28	24
1800.29	28
1801.3	27
1802.31	26
1803.32	31
1804.33	25
1805.34	32
1806.35	29
1807.36	34
1808.37	30
1809.38	32
1810.39	22
1811.4	29
1812.41	29
1813.42	24
1814.42	26
1815.43	24
1816.44	32
1817.45	26
1818.46	26
1819.47	26
1820.47	24
1821.48	32
1822.49	32
1823.49	22
1824.5	24
1825.51	25
1826.52	24
1827.52	26
1828.53	28
1829.53	28
1830.54	28
1831.55	30
1832.55	30
1833.56	29
1834.56	30
1835.57	35
1836.57	31
1837.58	31
1838.58	28
1839.59	28
1840.59	31
1841.6	32
1842.6	28
1843.61	28
1844.61	32
1845.61	25
1846.62	29
1847.62	29
1848.62	32
1849.63	32
1850.63	28
1851.63	29
1852.64	24
1853.64	27
1854.64	28
1855.64	25
1856.64	32
1857.65	28
1858.65	30
1859.65	28
1860.65	27
1861.65	28
1862.65	30
1863.65	29
1864.66	34
1865.66	32
1866.66	29
1867.66	30
1868.66	25
1869.66	28
1870.66	24
1871.66	25
1872.66	28
1873.66	30
1874.66	30
1875.65	29
1876.65	28
1877.65	34
1878.65	27
1879.65	31
1880.65	28
1881.65	30
1882.64	26
1883.64	32
1884.64	30
1885.64	31
1886.63	27
1887.63	27
1888.63	25
1889.63	32
1890.62	24
1891.62	30
1892.62	26
1893.61	26
1894.61	26
1895.6	30
1896.6	26
1897.6	28
1898.59	28
1899.59	30
1900.58	28
1901.58	28
1902.57	28
1903.57	22
1904.56	28
1905.56	26
1906.55	31
1907.54	24
1908.54	27
1909.53	26
1910.53	28
1911.52	29
1912.51	31
1913.51	29
1914.5	29
1915.49	28
1916.49	34
1917.48	28
1918.47	27
1919.46	22
1920.46	27
1921.45	28
1922.44	25
1923.43	30
1924.42	30
1925.41	30
1926.41	32
1927.4	32
1928.39	28
1929.38	30
1930.37	26
1931.36	26
1932.35	26
1933.34	25
1934.33	28
1935.32	22
1936.31	27
1937.3	32
1938.29	30
1939.28	30
1940.27	24
1941.26	26
1942.24	21
1943.23	25
1944.22	28
1945.21	26
1946.2	24
1947.19	24
1948.17	30
1949.16	26
1950.15	28
1951.14	29
1952.12	26
1953.11	28
1954.1	28
1955.09	28
1956.07	28
1957.06	30
1958.05	32
1959.03	24
1960.02	30
1961	14
1961.99	25
1962.98	28
1963.96	29
1964.95	26
1965.93	30
1966.92	26
1967.9	26
1968.89	31
1969.87	27
1970.85	29
1971.84	28
1972.82	26
1973.81	29
1974.79	24
1975.78	26
1976.76	25
1977.74	26
1978.73	28
1979.71	24
1980.69	25
1981.67	24
1982.66	30
1983.64	28
1984.62	24
1985.6	26
1986.59	31
1987.57	29
1988.55	31
1989.53	26
1990.51	26
1991.49	26
1992.47	30
1993.45	26
1994.44	26
1995.42	30
1996.4	28
1997.38	31
1998.36	28
1999.34	24
2000.32	28
2001.3	26
2002.28	25
2003.26	28
2004.24	24
2005.22	27
2006.19	25
2007.17	28
2008.15	27
2009.13	26
2010.11	24
2011.09	27
2012.06	30
2013.04	28
2014.02	25
2015	28
2015.98	27
2016.95	24
2017.93	31
2018.91	24
2019.88	23
2020.86	28
2021.84	29
2022.81	30
2023.79	27
2024.77	26
2025.74	25
2026.72	28
2027.69	27
2028.67	23
2029.65	24
2030.62	23
2031.6	25
2032.57	24
2033.55	30
2034.52	26
2035.5	27
2036.47	30
2037.44	27
2038.42	31
2039.39	22
2040.36	26
2041.34	24
2042.31	30
2043.29	26
2044.26	23
2045.23	26
2046.2	24
2047.18	26
2048.15	24
2049.12	26
2050.09	30
2051.07	24
2052.04	28
2053.01	29
2053.98	27
2054.95	27
2055.93	29
2056.9	28
2057.87	32
2058.84	22
2059.81	25
2060.78	27
2061.75	24
2062.72	28
2063.69	31
2064.66	26
2065.63	25
2066.6	24
2067.57	30
2068.54	27
2069.51	30
2070.48	28
2071.45	28
2072.42	27
2073.38	26
2074.35	26
2075.32	29
2076.29	32
2077.26	32
2078.23	26
2079.19	27
2080.16	28
2081.13	26
2082.1	24
2083.06	21
2084.03	24
2085	26
2085.96	30
2086.93	24
2087.9	28
2088.86	27
2089.83	22
2090.8	24
2091.76	25
2092.73	25
2093.69	28
2094.66	22
2095.62	28
2096.59	26
2097.55	29
2098.52	28
2099.48	27
2100.45	27
2101.41	27
2102.38	24
2103.34	30
2104.31	28
2105.27	22
2106.23	24
2107.2	26
2108.16	30
2109.12	28
2110.09	26
2111.05	26
2112.01	27
2112.98	28
2113.94	26
2114.9	30
2115.86	27
2116.82	24
2117.79	30
2118.75	26
2119.71	28
2120.67	28
2121.63	29
2122.59	28
2123.55	30
2124.52	26
2125.48	24
2126.44	28
2127.4	25
2128.36	25
2129.32	24
2130.28	28
2131.24	25
2132.2	29
2133.16	28
2134.12	27
2135.08	22
2136.04	28
2136.99	28
2137.95	29
2138.91	28
2139.87	26
2140.83	26
2141.79	29
2142.75	26
2143.7	29
2144.66	27
2145.62	25.9981
2146.58	23.9786
2147.53	27.0329
2148.49	25.215
2149.45	25.8948
2150.41	27.1927
2151.36	27.8046
2152.32	27.7148
2153.27	24.1667
2154.23	31.4315
2155.19	25.8036
2156.14	24.2255
2157.1	22.4857
2158.06	22.4011
2159.01	29.4314
2159.97	26.8545
2160.92	26.3111
2161.88	28.8008
2162.83	23.1792
2163.79	26.8529
2164.74	26.1962
2165.7	24.2148
2166.65	25.4349
2167.61	25.3273
2168.56	24.9309
2169.51	24.5148
2170.47	26.2509
2171.42	24.5041
2172.38	27.7503
2173.33	28.1899
2174.28	26.4182
2175.24	25.5804
2176.19	28.3627
2177.14	20.1605
2178.09	25.9559
2179.05	25.8676
2180	25.4918
2180.95	25.2622
2181.9	25.8553
2182.86	25.1228
2183.81	27.9582
2184.76	28.1
2185.71	25.89
2186.66	23.1324
2187.61	21.9453
2188.57	21.3345
2189.52	26.4871
2190.47	26.6641
2191.42	26.3074
2192.37	22.353
2193.32	25.2614
2194.27	28.9221
2195.22	22.4883
2196.17	23.049
2197.12	24.8789
2198.07	23.2866
2199.02	24.4546
2199.97	28.2001
2200.92	26.4724
2201.87	24.4167
2202.82	24.2187
2203.76	25.1931
2204.71	25.7412
2205.66	27.0322
2206.61	26.1927
2207.56	27.3981
2208.51	27.3039
2209.45	25.3218
2210.4	24.3044
2211.35	27.5369
2212.3	21.6924
2213.24	24.586
2214.19	23.924
2215.14	23.1176
2216.09	22.5262
2217.03	25.3762
2217.98	27.4675
2218.93	25.2794
2219.87	20.3115
2220.82	22.1254
2221.77	24.8431
2222.71	26.9901
2223.66	26.1384
2224.6	27.1025
2225.55	28
2226.49	23.0732
2227.44	23.4477
2228.38	24.9766
2229.33	29.2314
2230.27	25.9483
2231.22	26.2755
2232.16	29.0799
2233.11	26.5555
2234.05	23.6667
2235	23.724
2235.94	22.6825
2236.88	24.4008
2237.83	28.2941
2238.77	31.0801
2239.71	27.1557
2240.66	25.7281
2241.6	27.5618
2242	28
2242.95	25
2243.9	27
2244.84	27
2245.79	21
2246.74	26
2247.69	20
2248.63	25
2249.58	32
2250.53	23
2251.47	26
2252.42	27
2253.37	27
2254.31	27
2255.26	20
2256.2	30
2257.15	24
2258.1	25
2259.04	29
2259.99	28
2260.93	27
2261.88	25
2262.82	30
2263.77	24
2264.71	31
2265.65	25
2266.6	28
2267.54	27
2268.49	26
2269.43	26
2270.38	26
2271.32	28
2272.26	30
2273.21	26
2274.15	26
2275.09	27
2276.04	26
2276.98	26
2277.92	26
2278.86	33
2279.81	25
2280.75	25
2281.69	27
2282.63	26
2283.57	29
2284.52	31
2285.46	26
2286.4	26
2287.34	26
2288.28	32
2289.22	24
2290.16	26
2291.1	20
2292.04	25
2292.98	20
2293.93	22
2294.86	22
2295.8	28
2296.74	26
2297.69	28
2298.62	27
2299.56	24
2300.5	26
2301.44	24
2302.38	27
2303.32	23
2304.26	30
2305.2	25
2306.14	27
2307.07	26
2308.01	26
2308.95	27
2309.89	30
2310.83	26
2311.76	24
2312.7	27
2313.64	20
2314.58	26
2315.51	26
2316.45	29
2317.39	24
2318.32	27
2319.26	24
2320.2	30
2321.13	26
2322.07	28
2323	26
2323.94	27
2324.88	22
2325.81	24
2326.75	26
2327.68	26
2328.62	28
2329.55	24
2330.49	24
2331.42	24
2332.36	29
2333.29	22
2334.22	25
2335.16	29
2336.09	28
2337.03	31
2337.96	28
2338.89	28
2339.83	28
2340.76	26
2341.69	20
2342.63	27
2343.56	24
2344.49	28
2345.43	21
2346.36	26
2347.29	30
2348.22	24
2349.15	27
2350.09	26
2351.02	22
2351.95	27
2352.88	30
2353.81	30
2354.74	28
2355.67	24
2356.61	26
2357.54	26
2358.47	21
2359.4	25
2360.33	30
2361.26	28
2362.19	26
2363.12	27
2364.05	27
2364.98	24
2365.91	31
2366.84	26
2367.77	31
2368.7	26
2369.62	29
2370.55	22
2371.48	30
2372.41	26
2373.34	33
2374.27	24
2375.2	30
2376.12	26
2377.05	26
2377.98	28
2378.91	29
2379.83	21
2380.76	30
2381.69	24
2382.62	26
2383.54	27
2384.47	34
2385.4	27
2386.32	27
2387.25	30
2388.18	28
2389.1	25
2390.03	24
2390.95	29
2391.88	26
2392.81	27
2393.73	23
2394.66	28
2395.58	31
2396.51	27
2397.43	24
2398.36	31
2399.28	28
2400.2	32
2401.13	25
2402.05	30
2402.98	26
2403.9	27
2404.83	26
2405.75	25
2406.67	26
2407.6	26
2408.52	35
2409.44	28
2410.37	26
2411.29	27
2412.21	25
2413.13	26
2414.06	25
2414.98	22
2415.9	28
2416.82	26
2417.74	28
2418.67	29
2419.59	22
2420.51	30
2421.43	30
2422.35	28
2423.27	27
2424.19	24
2425.11	28
2426.03	27
2426.96	30
2427.88	30
2428.8	27
2429.72	26
2430.64	24
2431.56	22
2432.48	26
2433.39	28
2434.31	24
2435.23	28
2436.15	23
2437.07	26
2437.99	28
2438.91	26
2439.83	26
2440.75	26
2441.67	22
2442.58	30
2443.5	30
2444.42	24
2445.34	29
2446.26	24
2447.17	30
2448.09	29
2449.01	25
2449.92	28
2450.84	22
2451.76	23
2452.68	28
2453.59	25
2454.51	28
2455.42	29
2456.34	29
2457.26	27
2458.17	28
2459.09	27
2460	31
2460.92	30
2461.83	32
2462.75	30
2463.66	30
2464.58	28
2465.49	30
2466.41	27
2467.32	25
2468.24	29
2469.15	26
2470.07	23
2470.98	25
2471.89	30
2472.81	32
2473.72	29
2474.64	31
2475.55	31
2476.46	29
2477.37	24
2478.29	28
2479.2	28
2480.11	27
2481.03	26
2481.94	28
2482.85	26
2483.76	27
2484.67	31
2485.59	28
2486.5	26
2487.41	26
2488.32	22
2489.23	29
2490.14	26
2491.05	30
2491.97	27
2492.88	28
2493.79	29
2494.7	30
2495.61	25
2496.52	27
2497.43	31
2498.34	22
2499.25	30
2500.16	26
2501.07	26
2501.98	29
2502.89	25
2503.79	28
2504.7	28
2505.61	28
2506.52	25
2507.43	32
2508.34	22
2509.25	30
2510.16	30
2511.06	34
2511.97	29
2512.88	28
2513.79	26
2514.69	28
2515.6	28
2516.51	24
2517.42	27
2518.32	27
2519.23	30
2520.14	27
2521.04	31
2521.95	32
2522.86	29
2523.76	28
2524.67	27
2525.57	34
2526.48	29
2527.39	23
2528.29	26
2529.2	30
2530.1	30
2531.01	24
2531.91	24
2532.82	30
2533.72	30
2534.63	22
2535.53	27
2536.44	28
2537.34	30
2538.24	30
2539.15	29
2540.05	30
2540.96	31
2541.86	30
2542.76	28
2543.67	20
2544.57	30
2545.47	25
2546.37	30
2547.28	22
2548.18	28
2549.08	28
2549.99	25
2550.89	22
2551.79	27
2552.69	28
2553.59	28
2554.49	31
2555.4	31
2556.3	30
2557.2	28
2558.1	26
2559	27
2559.9	28
2560.8	24
2561.7	32
2562.6	28
2563.5	30
2564.4	33
2565.3	24
2566.2	22
2567.1	27
2568	24
2568.9	28
2569.8	25
2570.7	28
2571.6	29
2572.5	24
2573.4	27
2574.3	30
2575.2	28
2576.1	34
2576.99	26
2577.89	29
2578.79	28
2579.69	22
2580.59	27
2581.48	24
2582.38	29
2583.28	28
2584.18	28
2585.07	28
2585.97	27
2586.87	24
2587.76	29
2588.66	28
2589.56	28
2590.45	26
2591.35	29
2592.25	22
2593.14	30
2594.04	28
2594.93	31
2595.83	25
2596.73	25
2597.62	24
2598.52	26
2599.41	28
2600.31	24
2601.2	28
2602.1	28
2602.99	29
2603.88	27
2604.78	22
2605.67	28
2606.57	27
2607.46	32
2608.35	33
2609.25	27
2610.14	30
2611.03	26
2611.93	31
2612.82	22
2613.71	26
2614.61	28
2615.5	26
2616.39	29
2617.29	25
2618.18	25
2619.07	26
2619.96	29
2620.85	28
2621.75	27
2622.64	26
2623.53	26
2624.42	32
2625.31	28
2626.2	28
2627.09	22
2627.98	31
2628.88	25
2629.77	28
2630.66	29
2631.55	26
2632.44	26
2633.33	27
2634.22	23
2635.11	24
2636	27
2636.89	30
2637.78	26
2638.66	25
2639.55	29
2640.44	27
2641.33	24
2642.22	30
2643.11	27
2644	25
2644.89	32
2645.78	27
2646.66	27
2647.55	28
2648.44	24
2649.33	25
2650.21	24
2651.1	28
2651.99	26
2652.88	26
2653.76	27
2654.65	28
2655.54	28
2656.42	27
2657.31	28
2658.2	30
2659.08	25
2659.97	20
2660.86	27
2661.74	28
2662.63	30
2663.51	24
2664.4	29
2665.29	28
2666.17	20
2667.06	27
2667.94	28
2668.83	26
2669.71	30
2670.6	25
2671.48	32
2672.36	26
2673.25	24
2674.13	25
2675.02	26
2675.9	22
2676.78	26
2677.67	23
2678.55	27
2679.43	28
2680.32	30
2681.2	29
2682.08	20
2682.97	32
2683.85	28
2684.73	25
2685.61	28
2686.5	27
2687.38	29
2688.26	28
2689.14	22
2690.03	22
2690.91	26
2691.79	26
2692.67	28
2693.55	28
2694.43	25
2695.31	32
2696.19	26
2697.08	27
2697.96	34
2698.84	23
2699.72	25
2700.6	30
2701.48	28
2702.36	27
2703.24	27
2704.12	28
2705	26
2705.88	28
2706.76	29
2707.64	28
2708.51	26
2709.39	30
2710.27	27
2711.15	29
2712.03	30
2712.91	27
2713.79	27
2714.67	22
2715.54	28
2716.42	28
2717.3	26
2718.18	25
2719.05	30
2719.93	25
2720.81	28
2721.69	34
2722.56	28
2723.44	24
2724.32	22
2725.19	30
2726.07	22
2726.95	29
2727.82	24
2728.7	28
2729.58	26
2730.45	28
2731.33	27
2732.2	27
2733.08	30
2733.95	30
2734.83	22
2735.7	27
2736.58	26
2737.45	27
2738.33	25
2739.2	28
2740.08	22
2740.95	23
2741.83	20
2742.7	26
2743.58	30
2744.45	32
2745.32	22
2746.2	24
2747.07	25
2747.94	28
2748.82	26
2749.69	27
2750.56	30
2751.44	26
2752.31	29
2753.18	29
2754.05	27
2754.93	31
2755.8	26
2756.67	26
2757.54	33
2758.42	26
2759.29	27
2760.16	24
2761.03	30
2761.9	28
2762.77	28
2763.64	28
2764.51	26
2765.38	27
2766.26	25
2767.13	27
2768	28
2768.87	24
2769.74	26
2770.61	25
2771.48	22
2772.35	26
2773.22	26
2774.09	24
2774.96	28
2775.83	28
2776.7	26
2777.56	32
2778.43	22
2779.3	27
2780.17	32
2781.04	29
2781.91	28
2782.78	27
2783.64	30
2784.51	26
2785.38	23
2786.25	24
2787.12	24
2787.98	30
2788.85	26
2789.72	29
2790.59	31
2791.45	26
2792.32	29
2793.19	34
2794.05	29
2794.92	28
2795.79	24
2796.65	26
2797.52	29
2798.38	33
2799.25	27
2800.12	32
2800.98	27
2801.85	30
2802.71	24
2803.58	23
2804.44	22
2805.31	28
2806.17	25
2807.04	31
2807.9	24
2808.77	28
2809.63	30
2810.5	29
2811.36	22
2812.22	27
2813.09	29
2813.95	30
2814.82	25
2815.68	28
2816.54	25
2817.41	26
2818.27	32
2819.13	24
2820	33
2820.86	30
2821.72	31
2822.58	26
2823.45	28
2824.31	30
2825.17	24
2826.03	24
2826.9	33
2827.76	30
2828.62	28
2829.48	30
2830.34	28
2831.2	34
2832.06	26
2832.92	26
2833.79	30
2834.65	22
2835.51	26
2836.37	30
2837.23	25
2838.09	29
2838.95	28
2839.81	30
2840.67	27
2841.53	29
2842.39	27
2843.25	28
2844.11	26
2844.97	23
2845.83	27
2846.68	30
2847.54	24
2848.4	29
2849.26	26
2850.12	31
2850.98	26
2851.84	28
2852.69	28
2853.55	26
2854.41	31
2855.27	26
2856.13	28
2856.98	33
2857.84	28
2858.7	20
2859.56	27
2860.41	24
2861.27	32
2862.13	28
2862.98	22
2863.84	24
2864.7	33
2865.55	30
2866.41	32
2867.27	30
2868.12	30
2868.98	29
2869.83	30
2870.69	30
2871.54	35
2872.4	30
2873.25	31
2874.11	34
2874.96	26
2875.82	27
2876.68	30
2877.53	33
2878.38	31
2879.24	33
2880.09	28
2880.95	32
2881.8	33
2882.65	36
2883.51	29
2884.36	30
2885.22	32
2886.07	32
2886.92	35
2887.77	33
2888.63	34
2889.48	38
2890.33	34
2891.19	26
2892.04	32
2892.89	35
2893.74	40
2894.6	46
2895.45	40
2896.3	36
2897.15	43
2898	42
2898.85	40
2899.71	52
2900.56	45
2901.41	52
2902.26	56
2903.11	49
2903.96	56
2904.81	56
2905.66	57
2906.51	59
2907.36	54
2908.21	62
2909.06	51
2909.91	48
2910.76	52
2911.61	52
2912.46	51
2913.31	40
2914.16	44
2915.01	46
2915.86	39
2916.71	39
2917.56	37
2918.41	38
2919.26	41
2920.1	32
2920.95	36
2921.8	34
2922.65	34
2923.5	29
2924.34	35
2925.19	30
2926.04	32
2926.89	28
2927.74	32
2928.58	35
2929.43	29
2930.28	34
2931.12	32
2931.97	28
2932.82	29
2933.66	30
2934.51	29
2935.36	33
2936.2	30
2937.05	30
2937.89	26
2938.74	27
2939.59	28
2940.43	28
2941.28	24
2942.12	30
2942.97	32
2943.81	26
2944.66	27
2945.5	28
2946.35	29
2947.19	22
2948.04	34
2948.88	32
2949.72	33
2950.57	35
2951.41	34
2952.26	32
2953.1	30
2953.94	32
2954.79	31
2955.63	36
2956.47	25
2957.32	32
2958.16	34
2959	26
2959.85	33
2960.69	34
2961.53	36
2962.37	35
2963.22	36
2964.06	38
2964.9	46
2965.74	40
2966.58	46
2967.42	45
2968.27	41
2969.11	35
2969.95	41
2970.79	32
2971.63	37
2972.47	34
2973.31	36
2974.15	34
2974.99	30
2975.83	34
2976.68	34
2977.52	32
2978.36	36
2979.2	31
2980.04	24
2980.88	34
2981.71	30
2982.55	29
2983.39	28
2984.23	27
2985.07	33
2985.91	24
2986.75	33
2987.59	29
2988.43	32
2989.27	25
2990.1	26
2990.94	23
2991.78	28
2992.62	26
2993.46	28
2994.3	30
2995.13	24
2995.97	25
2996.81	27
2997.64	30
2998.48	27
2999.32	30
