#Acq. time (s)=	5
#Accumulations=	5
#Range (cm-¹)=	100...2000
#Windows=	2
#Autofocus=	Off
#AutoExposure=	Off
#Spike filter=	Multiple accum.
#Delay time (s)=	0
#Binning=	1
#Readout mode=	Signal
#DeNoise=	Off
#ICS correction=	Off
#Dark correction=	Off
#Inst. Process=	Off
#Instrument=	LabRAM HR Evol
#Detector=	Syncerity OE
#Objective=	x100_VIS_LWD
#Grating=	600 (500nm)
#ND Filter=	25%
#Laser=	633nm_Edge
#Hole=	199.981
#Range=	Visible
#Project=	Medicas
#Sample=	BolusB1
#Site=	07-04-25
#Title=	BolusB1
#Remark=	
#Date=	07.04.2025 15:30
#Acquired=	07.04.2025 15:30:36
101.142	61.5
102.425	57.5
103.708	70
104.993	62.5
106.276	66
107.558	64
108.841	66
110.123	66
111.405	61.5
112.686	68
113.968	64
115.249	64
116.53	64
117.811	65
119.092	71
120.372	59
121.653	65
122.933	67
124.213	65
125.492	68
126.772	73
128.051	75.5
129.33	75
130.609	81
131.887	74
133.166	77
134.444	75.5
135.722	74
137	79
138.277	80
139.555	85.5
140.83	81.5
142.107	85.5
143.384	87.5
144.661	82
145.937	84
147.213	93
148.489	83.5
149.765	92
151.039	93.5
152.314	88
153.589	95.5
154.864	92
156.139	93
157.411	101.5
158.686	96
159.96	94.5
161.234	97
162.507	91
163.779	90
165.052	94
166.325	84
167.598	95.5
168.869	95
170.142	90
171.414	91.5
172.684	85
173.956	93.5
175.228	85
176.499	89
177.768	88.5
179.039	87.5
180.31	91.5
181.579	90
182.849	91
184.12	96
185.388	93.5
186.658	96
187.927	97.5
189.195	91.5
190.464	94
191.731	98
193	91.5
194.268	90.5
195.535	87.5
196.803	92
198.07	90.5
199.337	90.5
200.603	86.5
201.87	86
203.136	81
204.403	82
205.669	82
206.934	82
208.2	80
209.465	86
210.731	74.5
211.995	78.5
213.259	78.5
214.524	75.5
215.787	78.5
217.052	74
218.315	83
219.579	71
220.842	74
222.106	77
223.368	73
224.63	72.5
225.894	70
227.155	70
228.418	70
229.679	68.5
230.94	70
232.203	69.5
233.463	67.5
234.724	68
235.985	70
237.245	61
238.507	69
239.766	68.5
241.026	66
242.285	66
243.545	61
244.804	62.5
246.063	57.5
247.322	59
248.581	62.5
249.839	61.5
251.096	58
252.355	56
253.613	61.5
254.87	56
256.127	61
257.385	66.5
258.642	61
259.898	58.5
261.154	61.5
262.41	60.5
263.667	56
264.923	64
266.178	61
267.433	63
268.688	60.5
269.943	57
271.197	63
272.453	57
273.707	60
274.961	55
276.215	63
277.468	57
278.721	58
279.974	57.5
281.227	58.5
282.48	62
283.733	56
284.985	57
286.237	60
287.49	58
288.742	59.5
289.993	54
291.245	54.5
292.496	56
293.747	58.5
294.997	58
296.248	58
297.498	57
298.748	56
299.996	59.5
301.246	55
302.496	57
303.745	61.5
304.994	52.5
306.243	62
307.491	60
308.74	55.5
309.988	60
311.236	61
312.484	59
313.732	57.5
314.978	50.5
316.225	60
317.472	56.5
318.719	59
319.965	59.5
321.212	61.5
322.456	55.5
323.703	46.5
324.948	57.5
326.194	55
327.439	56
328.683	54
329.928	55
331.173	55.5
332.418	58
333.662	53
334.905	56
336.149	54.5
337.393	56.5
338.635	58
339.878	55.5
341.122	54.5
342.365	54.5
343.606	57
344.849	54
346.091	61
347.332	55.5
348.574	53.5
349.816	54
351.056	55.5
352.297	55
353.539	58.5
354.778	54
356.019	60
357.258	62.5
358.499	54
359.739	57
360.977	57.5
362.217	54
363.456	55
364.695	59
365.933	54.5
367.172	59.5
368.411	59
369.648	50
370.886	58
372.123	56.5
373.361	53
374.598	57
375.835	50
377.071	56.5
378.308	56.5
379.544	58
380.78	56.5
382.016	58
383.251	51
384.487	54
385.722	54
386.958	58
388.192	60
389.426	49
390.661	51
391.895	58
393.13	60
394.363	56
395.596	55
396.831	53
398.063	56.5
399.296	49.5
400.529	48
401.761	52
402.993	54
404.226	58
405.458	54
406.689	51.5
407.922	54
409.152	56
410.383	53.5
411.614	53.5
412.845	57.5
414.075	51
415.305	50
416.535	54.5
417.766	48
418.995	54
420.224	54
421.453	54.5
422.682	56
423.912	51.5
425.14	54.5
426.368	50
427.596	53
428.824	51
430.052	57
431.28	55.5
432.507	55
433.734	51.5
434.961	54
436.188	56
437.414	60
438.64	54.5
439.866	53.5
441.092	51.5
442.319	56
443.544	60
444.769	52
445.994	58.5
447.219	49
448.444	58
449.668	59
450.892	59
452.116	55.5
453.34	55
454.564	55
455.787	61
457.011	60.5
458.234	59.5
459.456	57
460.679	60
461.902	63.5
463.122	64.5
464.344	66.5
465.566	62.5
466.788	65.5
468.009	69
469.231	63.5
470.452	72
471.673	73
472.893	75
474.112	77.5
475.333	84.5
476.553	87.5
477.773	92.5
478.992	100.5
480.212	105.5
481.43	114.5
482.649	115.5
483.868	128
485.087	136
486.305	139
487.522	143.5
488.74	144
489.958	147.5
491.176	143
492.392	136
493.61	137
494.827	129
496.044	127
497.259	118
498.476	105
499.692	111
500.907	93.5
502.123	97
503.339	98
504.553	84.5
505.769	83.5
506.984	83
508.198	86
509.413	71.5
510.627	75
511.84	74
513.055	72
514.267	75
515.481	69
516.695	71
517.907	65
519.121	72.5
520.332	70.5
521.545	68.5
522.757	66
523.969	67.5
525.18	67.5
526.392	68.5
527.603	64
528.815	62
530.025	62
531.236	59.5
532.446	61.5
533.657	54.5
534.867	62.5
536.077	58.5
537.286	55.5
538.497	56
539.705	57.5
540.914	55
542.123	52.5
543.331	56.5
544.541	54.5
545.748	56.5
546.956	47
548.165	58.5
549.372	59
550.579	55
551.787	55.5
552.994	55
554.201	55.5
555.407	52.5
556.613	56
557.819	56
559.026	53.5
560.232	51
561.437	59
562.643	55.5
563.848	53
565.053	51
566.257	55
567.463	49
568.667	48
569.871	52.5
571.075	55.5
572.278	55.5
573.483	54.5
574.686	56.5
575.889	54.5
577.092	55.5
578.294	53
579.497	54.5
580.7	56.5
581.902	53
583.104	51
584.305	57
585.507	48
586.708	56.5
587.909	52.5
589.11	56
590.312	50
591.513	53.5
592.713	53.5
593.913	54
595.113	48
596.313	51.5
597.512	47.5
598.711	53.5
599.911	54
601.109	50.5
602.308	48
603.507	54
604.705	52.5
605.903	53.5
607.101	53.5
608.299	52.5
609.497	53
610.694	53.5
611.892	54.5
613.089	54.5
614.284	53.5
615.481	54
616.677	57
617.874	57.5
619.07	50.5
620.266	54
621.461	52.5
622.657	50.5
623.851	54.5
625.046	51
626.241	54
627.436	53
628.63	50
629.825	56.5
631.018	56
632.212	52.5
633.406	49.5
634.599	54
635.791	55.5
636.985	57
638.178	59
639.371	53
640.562	51
641.755	53.5
642.947	52
644.139	54
645.33	52.5
646.521	56.5
647.713	51
648.903	57
650.094	56
651.285	50
652.475	60.5
653.666	53.5
654.856	56.5
656.045	51.5
657.235	52
658.424	57.5
659.613	58
660.803	53
661.991	56.5
663.18	59.5
664.368	52.5
665.556	56.5
666.744	59.5
667.932	53.5
669.12	58
670.307	61.5
671.495	60.5
672.681	58
673.869	64.5
675.055	54
676.242	65
677.427	64.5
678.613	65
679.799	67.5
680.984	66.5
682.17	70
683.355	72
684.541	76
685.725	78.5
686.909	76.5
688.094	69.5
689.278	72.5
690.463	76
691.646	73
692.829	70
694.014	70.5
695.197	64
696.379	72.5
697.563	71
698.745	77
699.927	79.5
701.11	80.5
702.292	85
703.474	89.5
704.656	102
705.837	106
707.018	101.5
708.199	104.5
709.381	115.5
710.561	107.5
711.741	103.5
712.921	95
714.101	87.5
715.282	75
716.462	70.5
717.641	69
718.82	66
719.999	62.5
721.179	60
722.357	53
723.536	56
724.714	52
725.892	52.5
727.07	55
728.247	57
729.425	54.5
730.602	55
731.78	57.5
732.957	58.5
734.134	55.5
735.31	50.5
736.487	53
737.663	52.5
738.839	56.5
740.014	54
741.19	52
742.365	55
743.541	54.5
744.716	54.5
745.89	54
747.065	52.5
748.24	50
749.414	54
750.588	50
751.762	51.5
752.936	52
754.108	52.5
755.281	52.5
756.454	47
757.627	53
758.8	50
759.973	50
761.145	54
762.318	55
763.488	50
764.66	48.5
765.832	50
767.003	54
768.175	52.5
769.346	48
770.516	50.5
771.686	53.5
772.857	56
774.027	52
775.196	51
776.366	50
777.536	56.5
778.706	54
779.874	52.5
781.044	58.5
782.213	57
783.382	63
784.549	61
785.718	62.5
786.886	59.5
788.053	59
789.221	65
790.389	63
791.556	55
792.723	60
793.889	66
795.056	58
796.223	51
797.389	56.5
798.555	49
799.72	60
800.887	54
802.053	56
803.217	55
804.383	50
805.547	57.5
806.713	56
807.876	54
809.041	54.5
810.205	51.5
811.369	52
812.533	50
813.697	53
814.86	55
816.023	54
817.186	54
818.349	56
819.511	50
820.673	50.5
821.836	54
822.998	51
824.16	51.5
825.321	49
826.482	55
827.644	52
828.805	51
829.965	51.5
831.127	47
832.287	51
833.447	52
834.608	55
835.767	48.5
836.927	55
838.087	49
839.246	50
840.405	48.5
841.563	53
842.723	50
843.881	57
845.04	49
846.197	54.5
847.356	49.5
848.514	53
849.671	52.5
850.828	53.5
851.985	55.5
853.144	52.5
854.3	52.5
855.457	53
856.613	51
857.769	56
858.925	53
860.081	52.5
861.238	58
862.393	58
863.548	56.5
864.703	63
865.858	58
867.013	51.5
868.167	54.5
869.321	51.5
870.475	55.5
871.629	57
872.783	52
873.937	52.5
875.09	50
876.243	52
877.396	53
878.549	57
879.702	53.5
880.854	55.5
882.007	50.5
883.159	53.5
884.311	47
885.463	49
886.614	52.5
887.766	45
888.917	48.5
890.068	48.5
891.218	50
892.368	44
893.519	50
894.669	50
895.82	44
896.97	49
898.118	45
899.268	52
900.417	44.5
901.567	50.5
902.716	50.5
903.863	47
905.012	49.5
906.161	46
907.309	47
908.457	46
909.604	49.5
910.752	48.5
911.9	45.5
913.046	44.5
914.193	48
915.34	49.5
916.486	50.5
917.633	52.5
918.78	48.5
919.925	50.5
921.071	49.5
922.217	45
923.362	47
924.508	42.5
925.653	46
926.797	48
927.942	46.5
929.086	44.5
930.231	44
931.376	45
932.519	47
933.663	47.5
934.806	49
935.95	42.5
937.093	45.5
938.236	50.5
939.378	45.5
940.522	45
941.664	50.5
942.807	49.5
943.948	50
945.091	47
946.232	47.5
947.374	47
948.515	46
949.655	47.5
950.797	45
951.937	43.5
953.078	49
954.218	51.5
955.358	44
956.499	44.5
957.638	49
958.777	45.5
959.918	45.5
961.057	44.5
962.195	49
963.335	48
964.473	46.5
965.611	45.5
966.751	49
967.888	44
969.026	48
970.163	47
971.302	46
972.439	44
973.576	42
974.713	45.5
975.851	47.5
976.987	46.5
978.123	48
979.259	46
980.395	44.5
981.531	47.5
982.667	44
983.803	48.5
984.938	42.5
986.073	51
987.208	47
988.342	53
989.477	47
990.611	46.5
991.746	49.5
992.88	46
994.014	45
995.148	44.5
996.281	49
997.414	52
998.547	44.5
999.68	42
1000.81	47
1001.95	40.5
1003.08	46
1004.21	43.5
1005.34	45.5
1006.47	50.5
1007.61	52.5
1008.74	50.5
1009.87	49.5
1011	46
1012.13	44
1013.26	51.5
1014.39	46
1015.52	45
1016.65	44
1017.78	44
1018.91	43.5
1020.04	50
1021.17	46
1022.3	48
1023.43	43
1024.56	43
1025.69	45
1026.82	50
1027.94	45
1029.07	45.5
1030.2	45.5
1031.33	48.5
1032.45	44
1033.58	49
1034.71	44
1035.84	50
1036.96	43
1038.09	47
1039.22	46
1040.34	44
1041.47	46
1042.59	51
1043.72	49
1044.84	44
1045.97	42.5
1047.09	43.5
1048.22	46
1049.35	46
1050.47	40
1051.59	44
1052.72	50
1053.84	48
1054.97	47.5
1056.09	43
1057.21	46
1058.34	45
1059.46	45.5
1060.58	43.5
1061.71	41
1062.83	52
1063.95	45.5
1065.07	48.5
1066.2	47.5
1067.32	47.5
1068.44	47.5
1069.56	40
1070.68	47.5
1071.8	50
1072.92	36
1074.04	51
1075.16	49
1076.29	46.5
1077.41	47.5
1078.52	49.5
1079.65	47
1080.76	46
1081.88	43.5
1083	49
1084.12	46.5
1085.24	48
1086.36	46.5
1087.48	43
1088.6	46
1089.71	42
1090.83	47.5
1091.95	45
1093.07	46
1094.19	46
1095.3	42.5
1096.42	43
1097.54	43.5
1098.65	46.5
1099.77	44.5
1100.89	42
1102	44.5
1103.12	44
1104.24	47.5
1105.35	47.5
1106.47	45
1107.58	45
1108.7	49
1109.81	44.5
1110.93	43
1112.04	46
1113.16	41
1114.27	44
1115.38	43.5
1116.5	47
1117.61	44
1118.72	47.5
1119.84	46.5
1120.95	47.5
1122.06	45
1123.18	46
1124.29	44.5
1125.4	45
1126.51	45.5
1127.63	46.5
1128.74	45.5
1129.85	46.5
1130.96	45
1132.07	42
1133.18	45
1134.29	47
1135.41	40
1136.51	44.5
1137.63	44
1138.74	42
1139.85	44
1140.96	46
1142.07	41.5
1143.18	44
1144.28	45.5
1145.39	44.5
1146.5	46.5
1147.61	45
1148.72	41
1149.83	43
1150.94	45
1152.04	46.5
1153.15	47.5
1154.26	43.5
1155.37	46
1156.48	46.5
1157.58	47.5
1158.69	46.5
1159.8	46.5
1160.9	43
1162.01	48
1163.12	42.5
1164.22	43
1165.33	43.5
1166.43	43
1167.54	43
1168.64	47.5
1169.75	40
1170.85	43
1171.96	45
1173.06	47
1174.17	43
1175.27	51
1176.38	42.5
1177.48	42
1178.58	43
1179.69	44
1180.79	40.5
1181.89	45.5
1183	43.5
1184.1	41
1185.2	43.5
1186.3	43
1187.41	42
1188.51	42
1189.61	48
1190.71	45.5
1191.81	44
1192.92	43.5
1194.02	41
1195.12	38.5
1196.22	41
1197.32	43.5
1198.42	45
1199.52	42.4825
1200.62	44.4219
1201.72	41.0714
1202.82	46.899
1203.92	41.6254
1205.02	43.4661
1206.12	44.7623
1207.22	44.6286
1208.32	44.0135
1209.41	43.0725
1210.51	40.904
1211.61	43.5621
1212.71	42.0917
1213.81	43.6147
1214.91	45.3023
1216	42.6867
1217.1	46.8802
1218.2	45.2624
1219.3	41.9036
1220.39	43.6712
1221.49	44.4761
1222.59	43.2216
1223.68	41.2416
1224.78	40.2787
1225.88	41.7197
1226.97	43.4026
1228.07	45.0036
1229.16	44.3684
1230.26	40.952
1231.35	44.6584
1232.45	41.8703
1233.54	44.7346
1234.64	45.3766
1235.73	42.5158
1236.83	44.2813
1237.92	43.788
1239.01	45.072
1240.11	41.7626
1241.2	45.7156
1242.29	43.6048
1243.39	41.2975
1244.48	41.4561
1245.57	44.0522
1246.67	42.7477
1247.76	44.8606
1248.85	45.3574
1249.94	44.5261
1251.04	42.8449
1252.13	43.7569
1253.22	44.649
1254.31	45.28
1255.4	46.7484
1256.49	44.7532
1257.58	46.0049
1258.67	47.6375
1259.77	44.6159
1260.86	46.2592
1261.94	47.6973
1263.04	49.2135
1264.13	48.595
1265.22	48.1489
1266.3	48.6495
1267.39	44.9148
1268.48	43.1859
1269.57	43.0284
1270.66	43.3893
1271.75	43.0125
1272.84	40.7887
1273.93	43.2934
1275.01	42
1276.1	42.2026
1277.19	39.1792
1278.28	38.5302
1279.36	37.9471
1280.45	44.4503
1281.54	42.1716
1282.63	42.8692
1283.71	43.8748
1284.8	43.1179
1285.89	43.768
1286.97	42.6451
1288.06	41.9819
1289.14	42.9859
1290.23	43.6708
1291.32	38.202
1292.4	41.7613
1293.49	38.5581
1294.57	38.3576
1295.66	42.0773
1296.74	41.8344
1297.82	41
1298.91	41.6453
1299.99	44.0773
1301.08	42.484
1302.16	39.7781
1303.24	42.4809
1304.33	39.48
1305.41	38.1898
1306.49	39.3013
1307.58	42.0002
1308.55	46
1309.64	40
1310.72	39
1311.81	40.5
1312.9	42
1313.99	43
1315.07	45
1316.16	38.5
1317.25	43
1318.33	40.5
1319.42	40.5
1320.51	34.5
1321.59	43.5
1322.68	41
1323.76	42
1324.85	39
1325.93	42
1327.02	43.5
1328.1	40.5
1329.19	38
1330.27	39
1331.36	43
1332.44	35
1333.53	40.5
1334.61	44
1335.69	43.5
1336.78	36
1337.86	40
1338.95	37.5
1340.03	40.5
1341.11	39
1342.19	38.5
1343.28	43
1344.36	43
1345.44	43
1346.52	42
1347.61	36
1348.69	40
1349.77	45
1350.85	41.5
1351.93	43
1353.01	40
1354.09	41
1355.17	42.5
1356.26	41.5
1357.34	40
1358.42	39.5
1359.5	38.5
1360.57	43
1361.66	41.5
1362.73	44.5
1363.81	39.5
1364.89	44
1365.97	44
1367.05	43.5
1368.13	44
1369.21	43.5
1370.29	40.5
1371.36	44.5
1372.44	41
1373.52	38
1374.6	40
1375.68	46.5
1376.75	43.5
1377.83	39
1378.91	40
1379.98	43.5
1381.06	38.5
1382.14	40
1383.21	41
1384.29	45
1385.36	48
1386.44	43
1387.52	41
1388.59	44
1389.67	39.5
1390.74	45.5
1391.82	48
1392.89	43.5
1393.97	45
1395.04	48
1396.11	46
1397.19	48.5
1398.26	49.5
1399.34	49
1400.41	53
1401.48	52.5
1402.56	51.5
1403.63	49.5
1404.7	56
1405.77	57
1406.85	56.5
1407.92	55.5
1408.99	57.5
1410.06	58.5
1411.14	59
1412.21	56.5
1413.28	56
1414.35	57
1415.42	54
1416.49	54
1417.56	51.5
1418.63	57.5
1419.7	49.5
1420.78	50.5
1421.84	51
1422.91	48
1423.99	47
1425.06	47
1426.12	44.5
1427.19	46.5
1428.26	47.5
1429.33	43
1430.4	47
1431.47	45.5
1432.54	45
1433.61	45.5
1434.67	43
1435.74	45.5
1436.81	47
1437.88	42.5
1438.94	45
1440.01	42
1441.08	43
1442.15	43.5
1443.21	46
1444.28	48
1445.35	47.5
1446.41	42
1447.48	42
1448.54	43.5
1449.61	44
1450.68	44.5
1451.74	44
1452.81	43.5
1453.87	44.5
1454.94	41.5
1456	39
1457.07	41.5
1458.13	42.5
1459.19	44
1460.26	42.5
1461.32	42
1462.39	44.5
1463.45	44
1464.51	43.5
1465.58	45.5
1466.64	39
1467.7	41
1468.76	39
1469.83	39.5
1470.89	41.5
1471.95	46
1473.01	44
1474.08	41
1475.14	40
1476.2	37
1477.26	43.5
1478.32	40
1479.38	40
1480.44	39
1481.5	43.5
1482.56	41
1483.62	41
1484.69	40
1485.75	41.5
1486.8	40
1487.86	38.5
1488.92	40.5
1489.98	44
1491.04	41.5
1492.1	41.5
1493.16	40
1494.22	43
1495.28	41
1496.34	41.5
1497.39	37.5
1498.45	39.5
1499.51	47.5
1500.57	42
1501.63	47.5
1502.68	37.5
1503.74	45
1504.8	44.5
1505.85	42.5
1506.91	41
1507.97	42
1509.02	39.5
1510.08	36
1511.14	44
1512.19	39
1513.25	44
1514.3	44
1515.36	44.5
1516.41	42
1517.47	41.5
1518.52	42
1519.58	42
1520.63	44
1521.69	41
1522.74	39.5
1523.8	40
1524.85	43
1525.9	36.5
1526.96	40.5
1528.01	34
1529.06	45.5
1530.12	43
1531.17	47
1532.22	44.5
1533.27	39.5
1534.33	42
1535.38	41
1536.43	43.5
1537.48	39
1538.53	40
1539.59	40.5
1540.64	45.5
1541.69	44
1542.74	43
1543.79	39
1544.84	38
1545.89	46
1546.94	36
1547.99	42
1549.04	40.5
1550.09	38.5
1551.14	41.5
1552.19	39
1553.24	41
1554.29	40.5
1555.34	38.5
1556.39	42
1557.44	39
1558.49	46
1559.53	42
1560.58	40
1561.63	37.5
1562.68	39
1563.73	38.5
1564.77	42.5
1565.82	42
1566.87	45
1567.92	41.5
1568.96	40
1570.01	38.5
1571.06	40
1572.1	39.5
1573.15	38
1574.19	43
1575.24	38.5
1576.29	43.5
1577.33	38.5
1578.38	38
1579.42	35
1580.47	42.5
1581.51	40
1582.56	43
1583.6	40
1584.65	43.5
1585.69	40.5
1586.73	43.5
1587.78	39
1588.82	43.5
1589.87	36
1590.91	40
1591.95	42
1593	39
1594.04	41.5
1595.08	37
1596.13	40.5
1597.17	42
1598.21	37.5
1599.25	37.5
1600.29	38
1601.34	35
1602.38	44.5
1603.42	40
1604.46	37
1605.5	39.5
1606.54	41
1607.58	43.5
1608.62	42
1609.66	40
1610.7	37
1611.74	37
1612.79	38.5
1613.83	40.5
1614.86	41.5
1615.9	39
1616.94	41
1617.98	43
1619.02	35
1620.06	37.5
1621.1	41
1622.14	37.5
1623.18	42
1624.22	38
1625.25	42.5
1626.29	35.5
1627.33	40.5
1628.37	43.5
1629.4	39.5
1630.44	38
1631.48	36.5
1632.52	38.5
1633.55	39
1634.59	41.5
1635.63	37
1636.66	40
1637.7	38
1638.73	39
1639.77	40
1640.81	39.5
1641.84	38
1642.88	41
1643.91	43.5
1644.95	41
1645.98	40
1647.02	40
1648.05	40.5
1649.08	34.5
1650.12	41
1651.15	39.5
1652.19	43.5
1653.22	40
1654.25	41
1655.29	39.5
1656.32	44
1657.35	38
1658.39	39
1659.42	39
1660.45	39
1661.48	40
1662.52	45
1663.55	41.5
1664.58	37.5
1665.61	39.5
1666.64	38
1667.68	41
1668.71	42
1669.74	39
1670.77	38.5
1671.8	44
1672.83	40
1673.86	34.5
1674.89	44
1675.92	40
1676.95	39
1677.98	34.5
1679.01	39.5
1680.04	39
1681.07	38.5
1682.1	35
1683.13	39.5
1684.16	36.5
1685.19	35
1686.21	37.5
1687.24	41.5
1688.27	41
1689.3	39.5
1690.33	36
1691.35	36
1692.38	43.5
1693.41	39
1694.44	37
1695.46	39
1696.49	41
1697.52	41
1698.54	39.5
1699.57	39
1700.6	38
1701.62	35
1702.65	37
1703.68	37
1704.7	35.5
1705.73	37
1706.75	38
1707.78	38.5
1708.8	36
1709.83	31
1710.85	42
1711.88	40
1712.9	39
1713.92	36
1714.95	40.5
1715.97	38
1717	38.5
1718.02	38
1719.04	36.5
1720.07	38
1721.09	38
1722.11	39
1723.14	39
1724.16	39.5
1725.18	39
1726.2	39
1727.23	34.5
1728.25	39
1729.27	42
1730.29	40.5
1731.31	39
1732.33	41.5
1733.35	40.5
1734.38	38
1735.4	34
1736.42	41.5
1737.44	39.5
1738.46	38
1739.48	42
1740.5	38
1741.52	36.5
1742.54	38.5
1743.56	37
1744.58	36
1745.6	37
1746.62	35.5
1747.63	42.5
1748.65	37
1749.67	37.5
1750.69	40
1751.71	38
1752.73	41.5
1753.75	37
1754.76	39.5
1755.78	33.5
1756.8	37
1757.82	40
1758.83	35
1759.85	41
1760.87	37.5
1761.88	37.5
1762.9	35
1763.92	38.5
1764.93	33
1765.95	39
1766.97	42
1767.98	40
1769	37
1770.01	38
1771.03	36
1772.04	40.5
1773.06	38.5
1774.07	37
1775.09	34.5
1776.1	36.5
1777.12	38.5
1778.13	40
1779.14	34.5
1780.16	39
1781.17	37.5
1782.19	38
1783.2	39
1784.21	41.5
1785.23	35
1786.24	36.5
1787.25	34.5
1788.26	35
1789.28	36
1790.29	34
1791.3	40
1792.31	34
1793.33	39.5
1794.34	42.5
1795.35	35.5
1796.36	35.5
1797.37	38.5
1798.38	36.5
1799.39	42
1800.4	37
1801.42	30
1802.42	35
1803.44	37.5
1804.45	36.5
1805.46	35
1806.47	38
1807.48	37
1808.49	35.5
1809.49	41
1810.5	37.5
1811.51	38
1812.52	33
1813.53	36.5
1814.54	37.5
1815.55	39
1816.56	40
1817.56	40.5
1818.57	38.5
1819.58	35
1820.59	35.5
1821.59	38
1822.6	34.5
1823.61	39.5
1824.62	35.5
1825.62	37
1826.63	39.5
1827.64	41.5
1828.64	31
1829.65	36.5
1830.65	37.5
1831.66	34
1832.67	36
1833.67	38
1834.68	41.5
1835.68	39
1836.69	38
1837.69	39
1838.7	39
1839.7	34
1840.71	29.5
1841.71	40.5
1842.72	37
1843.72	35
1844.72	34.5
1845.73	36
1846.73	37
1847.74	38
1848.74	38.5
1849.74	40
1850.74	37
1851.75	36
1852.75	33
1853.75	35
1854.75	37
1855.76	38.5
1856.76	35
1857.76	38
1858.76	35
1859.76	37
1860.77	34.5
1861.77	36
1862.77	39
1863.77	34
1864.77	34
1865.77	39.5
1866.77	36.5
1867.77	38
1868.77	37
1869.77	35
1870.77	33
1871.77	35.5
1872.77	40.5
1873.77	35.5
1874.77	34.5
1875.77	42
1876.77	36.5
1877.77	39
1878.77	32.5
1879.76	35.5
1880.76	40.5
1881.76	36.5
1882.76	37.5
1883.76	37
1884.75	37
1885.75	38
1886.75	39.5
1887.75	37.5
1888.74	37
1889.74	37
1890.74	38.5
1891.73	38
1892.73	36
1893.73	38
1894.72	35.5
1895.72	38.5
1896.71	35.5
1897.71	33
1898.71	37
1899.7	40
1900.7	37
1901.69	32.5
1902.69	35.5
1903.68	32
1904.68	38.5
1905.67	33
1906.66	37
1907.66	35
1908.65	36.5
1909.65	34.5
1910.64	35
1911.63	43
1912.63	36
1913.62	40.5
1914.61	33
1915.61	38.5
1916.6	34.5
1917.59	33.5
1918.58	32
1919.58	35
1920.57	35
1921.56	35.5
1922.55	36.5
1923.54	37
1924.54	31
1925.53	32
1926.52	35.5
1927.51	34.5
1928.5	37.5
1929.49	41
1930.48	34.5
1931.47	41.5
1932.46	37
1933.45	38
1934.44	40.5
1935.43	34.5
1936.42	41.5
1937.41	37
1938.4	37
1939.39	37.5
1940.38	31.5
1941.37	39
1942.36	35.5
1943.35	39.5
1944.34	35.5
1945.32	34.5
1946.31	36
1947.3	38.5
1948.29	30.5
1949.28	33
1950.26	34
1951.25	38.5
1952.24	34.5
1953.23	36.5
1954.21	38
1955.2	36.5
1956.19	40.5
1957.17	34
1958.16	35.5
1959.15	34.5
1960.13	36.5
1961.12	39
1962.1	36
1963.09	34
1964.07	37.5
1965.06	37
1966.04	34
1967.03	31.5
1968.02	37
1969	35
1969.98	37
1970.97	35
1971.95	34
1972.94	36.5
1973.92	35
1974.91	33.5
1975.89	37.5
1976.87	37
1977.86	36
1978.84	36
1979.82	32
1980.8	37.5
1981.79	37
1982.77	36.5
1983.75	30.5
1984.74	30.5
1985.72	32
1986.7	36.5
1987.68	35
1988.66	36.5
1989.64	34
1990.63	36
1991.61	32.5
1992.59	37
1993.57	34
1994.55	37.5
1995.53	36
1996.51	38
1997.49	35
1998.47	34.5
1999.45	38
