#Acq. time (s)=	5
#Accumulations=	5
#Range (cm-¹)=	100...2000
#Windows=	2
#Autofocus=	Off
#AutoExposure=	Off
#Spike filter=	Multiple accum.
#Delay time (s)=	0
#Binning=	1
#Readout mode=	Signal
#DeNoise=	Off
#ICS correction=	Off
#Dark correction=	Off
#Inst. Process=	Off
#Instrument=	LabRAM HR Evol
#Detector=	Syncerity OE
#Objective=	x100_VIS_LWD
#Grating=	600 (500nm)
#ND Filter=	25%
#Laser=	633nm_Edge
#Hole=	199.981
#Range=	Visible
#Project=	Medicas
#Sample=	BolusB1
#Site=	07-04-25
#Title=	BolusB1
#Remark=	
#Date=	07.04.2025 15:21
#Acquired=	07.04.2025 15:21:03
101.142	67
102.425	67
103.708	68.5
104.993	71
106.276	66.5
107.558	70
108.841	63.5
110.123	64
111.405	65
112.686	71
113.968	64
115.249	63
116.53	66
117.811	72
119.092	65.5
120.372	70
121.653	72
122.933	71
124.213	70
125.492	70
126.772	75.5
128.051	71
129.33	71
130.609	70
131.887	80
133.166	79
134.444	80.5
135.722	81.5
137	86
138.277	82.5
139.555	84.5
140.83	88.5
142.107	82
143.384	80.5
144.661	86
145.937	84
147.213	93.5
148.489	94
149.765	101.5
151.039	96.5
152.314	95
153.589	92.5
154.864	100
156.139	100
157.411	102.5
158.686	94.5
159.96	99.5
161.234	100.5
162.507	107.5
163.779	98.5
165.052	98
166.325	99.5
167.598	97.5
168.869	100.5
170.142	92.5
171.414	98
172.684	98.5
173.956	93.5
175.228	96.5
176.499	101.5
177.768	101.5
179.039	96
180.31	104
181.579	94
182.849	100.5
184.12	100.5
185.388	104
186.658	103.5
187.927	103
189.195	103
190.464	96.5
191.731	103
193	100.5
194.268	102
195.535	95.5
196.803	95
198.07	97
199.337	90.5
200.603	90.5
201.87	97.5
203.136	90.5
204.403	89
205.669	85.5
206.934	92
208.2	84
209.465	81.5
210.731	81.5
211.995	77.5
213.259	78.5
214.524	74
215.787	77
217.052	77
218.315	83
219.579	71
220.842	78
222.106	77
223.368	83
224.63	72
225.894	72.5
227.155	67
228.418	66.5
229.679	65
230.94	63
232.203	71
233.463	67.5
234.724	65
235.985	69
237.245	66.5
238.507	61.5
239.766	63
241.026	72
242.285	62.5
243.545	69
244.804	68.5
246.063	62
247.322	62
248.581	63.5
249.839	62.5
251.096	68.5
252.355	63.5
253.613	65.5
254.87	63
256.127	60
257.385	66.5
258.642	67
259.898	60.5
261.154	60.5
262.41	61
263.667	62
264.923	60
266.178	57
267.433	63.5
268.688	60
269.943	62
271.197	57.5
272.453	56
273.707	59
274.961	59
276.215	51
277.468	60.5
278.721	59
279.974	58
281.227	58.5
282.48	56
283.733	56.5
284.985	62
286.237	54
287.49	60
288.742	57
289.993	57
291.245	57.5
292.496	53.5
293.747	52.5
294.997	56.5
296.248	56
297.498	55
298.748	57.5
299.996	57.5
301.246	58
302.496	57
303.745	60
304.994	54.5
306.243	56.5
307.491	59.5
308.74	52
309.988	60
311.236	57
312.484	57.5
313.732	61.5
314.978	63
316.225	54
317.472	54
318.719	56
319.965	57
321.212	56
322.456	60
323.703	62
324.948	58.5
326.194	59
327.439	53
328.683	55.5
329.928	51.5
331.173	54
332.418	54
333.662	59
334.905	54
336.149	61
337.393	53.5
338.635	56.5
339.878	58
341.122	58.5
342.365	56
343.606	54.5
344.849	56
346.091	57
347.332	54
348.574	55.5
349.816	54.5
351.056	61
352.297	58
353.539	57
354.778	57
356.019	60
357.258	59.5
358.499	58.5
359.739	59.5
360.977	53
362.217	54.5
363.456	55
364.695	56.5
365.933	56.5
367.172	52.5
368.411	50.5
369.648	59
370.886	54.5
372.123	54
373.361	55
374.598	57.5
375.835	54.5
377.071	51
378.308	53.5
379.544	57
380.78	58
382.016	55.5
383.251	57
384.487	52.5
385.722	54.5
386.958	60.5
388.192	54.5
389.426	56
390.661	56.5
391.895	52.5
393.13	57
394.363	54
395.596	54.5
396.831	57.5
398.063	52
399.296	50
400.529	60
401.761	53
402.993	57
404.226	59.5
405.458	53
406.689	54.5
407.922	52
409.152	52
410.383	55
411.614	51.5
412.845	54.5
414.075	49
415.305	54.5
416.535	53
417.766	56.5
418.995	58.5
420.224	53.5
421.453	50
422.682	54.5
423.912	56
425.14	53.5
426.368	49.5
427.596	59.5
428.824	56.5
430.052	49.5
431.28	55
432.507	53
433.734	51
434.961	55.5
436.188	58.5
437.414	57
438.64	56
439.866	50.5
441.092	55
442.319	57
443.544	53
444.769	53.5
445.994	59.5
447.219	61
448.444	59.5
449.668	66
450.892	56.5
452.116	56.5
453.34	59
454.564	58
455.787	65
457.011	58.5
458.234	62
459.456	58
460.679	64.5
461.902	57
463.122	61.5
464.344	63
465.566	64
466.788	64.5
468.009	67.5
469.231	64.5
470.452	69
471.673	66
472.893	79.5
474.112	84
475.333	82.5
476.553	88
477.773	100
478.992	106.5
480.212	113.5
481.43	120
482.649	129
483.868	129
485.087	144.5
486.305	152.5
487.522	145
488.74	149.5
489.958	152.5
491.176	152
492.392	142
493.61	144.5
494.827	139.5
496.044	126
497.259	119.5
498.476	115
499.692	112
500.907	108
502.123	100
503.339	98
504.553	97.5
505.769	87.5
506.984	87.5
508.198	83
509.413	78.5
510.627	76.5
511.84	74
513.055	67.5
514.267	73.5
515.481	76.5
516.695	72
517.907	68
519.121	70
520.332	65.5
521.545	64
522.757	68
523.969	67.5
525.18	61.5
526.392	63
527.603	60.5
528.815	67.5
530.025	59
531.236	60
532.446	60
533.657	57
534.867	61.5
536.077	60
537.286	57
538.497	60
539.705	52
540.914	55.5
542.123	57
543.331	58
544.541	57.5
545.748	58.5
546.956	56
548.165	56.5
549.372	51
550.579	51.5
551.787	56
552.994	60.5
554.201	54
555.407	58
556.613	54.5
557.819	55.5
559.026	55
560.232	53
561.437	55
562.643	54.5
563.848	51
565.053	53.5
566.257	53
567.463	55.5
568.667	48
569.871	54
571.075	51.5
572.278	56.5
573.483	54.5
574.686	57
575.889	54.5
577.092	53
578.294	55.5
579.497	54.5
580.7	54
581.902	51
583.104	54.5
584.305	51.5
585.507	47
586.708	56.5
587.909	58
589.11	53
590.312	50
591.513	54
592.713	50.5
593.913	52
595.113	47
596.313	56
597.512	54.5
598.711	50
599.911	50
601.109	56
602.308	50.5
603.507	55.5
604.705	57
605.903	48
607.101	55
608.299	45
609.497	56
610.694	53.5
611.892	55
613.089	50
614.284	51
615.481	51
616.677	51.5
617.874	54
619.07	55
620.266	56.5
621.461	48.5
622.657	57.5
623.851	53
625.046	52
626.241	54
627.436	56.5
628.63	50
629.825	52
631.018	53
632.212	49
633.406	54.5
634.599	58
635.791	57
636.985	49
638.178	52.5
639.371	59
640.562	58
641.755	52.5
642.947	57
644.139	54
645.33	52
646.521	59.5
647.713	61
648.903	53
650.094	50.5
651.285	59.5
652.475	58
653.666	51.5
654.856	49
656.045	49.5
657.235	51.5
658.424	55
659.613	53
660.803	57.5
661.991	48
663.18	57
664.368	57
665.556	54.5
666.744	60
667.932	55.5
669.12	56.5
670.307	63
671.495	61.5
672.681	57
673.869	59.5
675.055	59
676.242	57
677.427	66.5
678.613	63
679.799	64.5
680.984	67
682.17	67
683.355	76
684.541	68.5
685.725	69
686.909	70
688.094	70
689.278	74.5
690.463	72
691.646	66
692.829	72
694.014	71.5
695.197	76
696.379	73
697.563	75.5
698.745	72
699.927	78.5
701.11	79
702.292	86
703.474	90.5
704.656	95.5
705.837	107
707.018	113.5
708.199	116.5
709.381	122.5
710.561	109.5
711.741	117.5
712.921	95
714.101	89
715.282	70
716.462	72.5
717.641	68.5
718.82	68
719.999	64
721.179	61.5
722.357	55.5
723.536	59
724.714	52.5
725.892	60
727.07	58.5
728.247	53
729.425	57
730.602	55
731.78	53
732.957	50.5
734.134	52.5
735.31	54
736.487	51
737.663	54
738.839	49.5
740.014	55.5
741.19	54
742.365	53.5
743.541	53
744.716	50
745.89	48.5
747.065	47.5
748.24	48
749.414	52
750.588	52.5
751.762	48
752.936	44
754.108	52
755.281	55
756.454	49
757.627	52
758.8	53.5
759.973	53
761.145	51.5
762.318	54.5
763.488	53
764.66	50.5
765.832	51.5
767.003	46.5
768.175	54
769.346	48
770.516	53
771.686	54
772.857	54
774.027	50.5
775.196	56
776.366	50.5
777.536	49
778.706	59
779.874	54.5
781.044	53
782.213	54
783.382	53
784.549	59
785.718	59
786.886	63.5
788.053	63.5
789.221	60
790.389	59
791.556	61
792.723	63.5
793.889	57
795.056	58
796.223	56.5
797.389	57
798.555	59
799.72	50.5
800.887	53
802.053	51
803.217	50
804.383	53
805.547	56
806.713	51.5
807.876	55
809.041	49
810.205	52.5
811.369	54
812.533	54.5
813.697	50.5
814.86	50
816.023	53
817.186	56.5
818.349	47
819.511	51.5
820.673	53
821.836	53.5
822.998	46
824.16	53.5
825.321	55.5
826.482	49
827.644	50.5
828.805	50.5
829.965	48
831.127	53
832.287	51
833.447	50
834.608	44.5
835.767	51
836.927	54.5
838.087	51
839.246	48
840.405	49
841.563	46
842.723	51
843.881	55.5
845.04	54
846.197	50
847.356	52.5
848.514	50
849.671	50.5
850.828	56.5
851.985	57
853.144	49.5
854.3	59
855.457	49
856.613	55.5
857.769	54
858.925	50
860.081	58.5
861.238	49.5
862.393	55
863.548	46
864.703	60.5
865.858	51.5
867.013	52
868.167	53
869.321	54.5
870.475	51
871.629	53
872.783	53
873.937	51
875.09	54
876.243	49.5
877.396	49
878.549	48.5
879.702	52.5
880.854	51.5
882.007	49
883.159	50
884.311	49
885.463	47.5
886.614	49
887.766	46.5
888.917	49
890.068	49.5
891.218	46.5
892.368	46.5
893.519	45
894.669	46.5
895.82	48
896.97	52
898.118	49
899.268	41
900.417	47
901.567	49
902.716	51
903.863	46.5
905.012	47.5
906.161	48.5
907.309	50.5
908.457	45
909.604	45
910.752	45.5
911.9	50
913.046	47.5
914.193	44.5
915.34	48
916.486	45
917.633	46
918.78	46.5
919.925	42
921.071	45.5
922.217	42.5
923.362	47
924.508	47
925.653	46.5
926.797	45.5
927.942	42
929.086	50
930.231	45
931.376	49.5
932.519	49
933.663	45
934.806	47
935.95	48.5
937.093	46
938.236	51
939.378	46
940.522	49.5
941.664	47.5
942.807	46
943.948	44
945.091	47
946.232	47
947.374	47
948.515	46
949.655	48.5
950.797	48.5
951.937	46
953.078	47
954.218	51
955.358	48.5
956.499	43.5
957.638	42
958.777	49.5
959.918	45
961.057	47
962.195	39.5
963.335	48.5
964.473	45
965.611	45
966.751	46.5
967.888	45
969.026	45.5
970.163	43
971.302	48.5
972.439	49.75
973.576	50
974.713	48
975.851	47
976.987	44
978.123	45
979.259	50.5
980.395	43
981.531	47.5
982.667	51
983.803	46
984.938	43
986.073	42
987.208	44.5
988.342	48
989.477	47
990.611	46.5
991.746	46
992.88	48
994.014	45
995.148	46.5
996.281	50
997.414	46.5
998.547	44.5
999.68	43
1000.81	44.5
1001.95	47
1003.08	47
1004.21	47.5
1005.34	45
1006.47	45.5
1007.61	42.5
1008.74	48
1009.87	46
1011	46.5
1012.13	47
1013.26	41
1014.39	48
1015.52	44.5
1016.65	46
1017.78	49
1018.91	43
1020.04	49
1021.17	39
1022.3	45.5
1023.43	47
1024.56	50
1025.69	43
1026.82	45
1027.94	40
1029.07	44.5
1030.2	45.5
1031.33	44.5
1032.45	43
1033.58	45
1034.71	44.5
1035.84	43
1036.96	44
1038.09	45.5
1039.22	43.5
1040.34	45
1041.47	41.5
1042.59	47
1043.72	40
1044.84	43
1045.97	43
1047.09	42
1048.22	47
1049.35	46.5
1050.47	45
1051.59	43
1052.72	41.5
1053.84	41
1054.97	47
1056.09	41
1057.21	48
1058.34	50.5
1059.46	46.5
1060.58	40.5
1061.71	46
1062.83	50
1063.95	46.5
1065.07	48.5
1066.2	47
1067.32	43
1068.44	45
1069.56	43
1070.68	44.5
1071.8	45
1072.92	48.5
1074.04	46
1075.16	49
1076.29	42.5
1077.41	47
1078.52	41.5
1079.65	44
1080.76	47.5
1081.88	48
1083	44.5
1084.12	46.5
1085.24	44
1086.36	43.5
1087.48	46.5
1088.6	39
1089.71	42.5
1090.83	44
1091.95	47
1093.07	45.5
1094.19	40
1095.3	43.5
1096.42	41.5
1097.54	44
1098.65	46.5
1099.77	41
1100.89	41
1102	48
1103.12	45.5
1104.24	45
1105.35	39.5
1106.47	41
1107.58	46.5
1108.7	42.5
1109.81	45.5
1110.93	44
1112.04	43
1113.16	44
1114.27	43
1115.38	47.5
1116.5	40
1117.61	47.5
1118.72	41
1119.84	41
1120.95	40.5
1122.06	41.5
1123.18	45.5
1124.29	43
1125.4	40.5
1126.51	46
1127.63	42.5
1128.74	40
1129.85	43
1130.96	45.5
1132.07	47
1133.18	42
1134.29	43.5
1135.41	41.5
1136.51	44.5
1137.63	44
1138.74	41
1139.85	40
1140.96	41.5
1142.07	43.5
1143.18	43.5
1144.28	42
1145.39	47
1146.5	44
1147.61	46.5
1148.72	43
1149.83	45
1150.94	45
1152.04	45.5
1153.15	42
1154.26	43
1155.37	42
1156.48	43.5
1157.58	41.5
1158.69	41.5
1159.8	42
1160.9	40.5
1162.01	44
1163.12	41
1164.22	46.5
1165.33	44
1166.43	41.5
1167.54	45
1168.64	41
1169.75	45.5
1170.85	42
1171.96	43.5
1173.06	41
1174.17	45.5
1175.27	43
1176.38	42
1177.48	42.5
1178.58	40.5
1179.69	46.5
1180.79	42.5
1181.89	44
1183	42
1184.1	40.5
1185.2	46.5
1186.3	43
1187.41	46.5
1188.51	39.5
1189.61	40
1190.71	41.5
1191.81	43
1192.92	42
1194.02	40
1195.12	45
1196.22	41.5
1197.32	43
1198.42	46
1199.52	45.955
1200.62	42.8924
1201.72	43.9202
1202.82	45.0202
1203.92	40.1156
1205.02	42.5183
1206.12	43.4149
1207.22	44.4577
1208.32	41.1734
1209.41	41.0962
1210.51	42.5675
1211.61	42.823
1212.71	41.4042
1213.81	45.4003
1214.91	43.4309
1216	40.0397
1217.1	43.8374
1218.2	44.6929
1219.3	40.7288
1220.39	45.4275
1221.49	41.8468
1222.59	42.9625
1223.68	44.6566
1224.78	36.8885
1225.88	38.3648
1226.97	41.1322
1228.07	42.675
1229.16	41.728
1230.26	42.6769
1231.35	43.6688
1232.45	43.6496
1233.54	34.9779
1234.64	41.6465
1235.73	40.3217
1236.83	46.0075
1237.92	42.8347
1239.01	43.7279
1240.11	43.2049
1241.2	41.4262
1242.29	39.2863
1243.39	41.9764
1244.48	39.7303
1245.57	42.8147
1246.67	42.6979
1247.76	43.6382
1248.85	42.5147
1249.94	43.6064
1251.04	43.1769
1252.13	44.9777
1253.22	47.2003
1254.31	47.5942
1255.4	42.9882
1256.49	45.2171
1257.58	45.3218
1258.67	49.09
1259.77	48.5389
1260.86	48.1566
1261.94	44.7103
1263.04	45.9876
1264.13	47.1191
1265.22	45.6576
1266.3	45.1445
1267.39	44.7955
1268.48	48.1848
1269.57	43.3076
1270.66	44.1161
1271.75	43.2211
1272.84	42.5254
1273.93	41.3563
1275.01	45.669
1276.1	43.2282
1277.19	42.0595
1278.28	41.4518
1279.36	41.561
1280.45	40.6175
1281.54	41.98
1282.63	41.0194
1283.71	41.9094
1284.8	41.8696
1285.89	38.2999
1286.97	38.585
1288.06	39.2807
1289.14	41.6641
1290.23	40.3429
1291.32	38.9645
1292.4	40.2568
1293.49	43.3334
1294.57	40.7521
1295.66	42.6699
1296.74	43.7463
1297.82	43.4365
1298.91	38.9079
1299.99	39.433
1301.08	41.7735
1302.16	40.9608
1303.24	41.5934
1304.33	39.1159
1305.41	43.4133
1306.49	39.1865
1307.58	39.8872
1308.55	39
1309.64	38.5
1310.72	41.5
1311.81	42.5
1312.9	42.5
1313.99	46.5
1315.07	42
1316.16	43
1317.25	43
1318.33	38.5
1319.42	40
1320.51	42
1321.59	44
1322.68	37.5
1323.76	40
1324.85	42
1325.93	44
1327.02	38
1328.1	42
1329.19	42.5
1330.27	42.5
1331.36	41.5
1332.44	40
1333.53	41
1334.61	40
1335.69	43.5
1336.78	42.5
1337.86	40.5
1338.95	40.5
1340.03	40
1341.11	38
1342.19	41
1343.28	43
1344.36	42
1345.44	42
1346.52	38.5
1347.61	44.5
1348.69	39
1349.77	39.5
1350.85	45
1351.93	36
1353.01	42
1354.09	40.5
1355.17	41
1356.26	39.5
1357.34	41.5
1358.42	40
1359.5	39.5
1360.57	38.5
1361.66	45.5
1362.73	37.5
1363.81	38.5
1364.89	46.5
1365.97	41.5
1367.05	45.5
1368.13	41.5
1369.21	41
1370.29	40
1371.36	43
1372.44	43
1373.52	45.5
1374.6	42.5
1375.68	42
1376.75	42
1377.83	42
1378.91	41.5
1379.98	41
1381.06	47
1382.14	44.5
1383.21	39.5
1384.29	47.5
1385.36	37
1386.44	47
1387.52	42
1388.59	46.5
1389.67	42
1390.74	46
1391.82	45.5
1392.89	45
1393.97	50
1395.04	45
1396.11	48
1397.19	44.5
1398.26	51.5
1399.34	52
1400.41	48.5
1401.48	48.5
1402.56	52.5
1403.63	52
1404.7	55.5
1405.77	50.5
1406.85	57.5
1407.92	60.5
1408.99	60
1410.06	55.5
1411.14	62.5
1412.21	57.5
1413.28	57.5
1414.35	58
1415.42	54
1416.49	58.5
1417.56	52
1418.63	51
1419.7	55
1420.78	49.5
1421.84	50.5
1422.91	55
1423.99	45
1425.06	47
1426.12	43
1427.19	45
1428.26	47.5
1429.33	48
1430.4	50
1431.47	45.5
1432.54	45.5
1433.61	43.5
1434.67	44.5
1435.74	43
1436.81	44.5
1437.88	43
1438.94	44
1440.01	41.5
1441.08	43
1442.15	42.5
1443.21	39
1444.28	43
1445.35	46
1446.41	45.5
1447.48	46.5
1448.54	45.5
1449.61	40.5
1450.68	42
1451.74	43
1452.81	44
1453.87	40.5
1454.94	45.5
1456	41
1457.07	44
1458.13	37
1459.19	42
1460.26	43
1461.32	45
1462.39	44
1463.45	43
1464.51	41.5
1465.58	41.5
1466.64	41.5
1467.7	40
1468.76	41.5
1469.83	38.5
1470.89	43
1471.95	41.5
1473.01	38
1474.08	43
1475.14	43
1476.2	43
1477.26	44.5
1478.32	44
1479.38	41
1480.44	42
1481.5	43.5
1482.56	42
1483.62	41.5
1484.69	42
1485.75	42.5
1486.8	41
1487.86	45
1488.92	46.5
1489.98	45.5
1491.04	42
1492.1	42.5
1493.16	39
1494.22	44
1495.28	39
1496.34	46
1497.39	41.5
1498.45	43.5
1499.51	42
1500.57	44
1501.63	43
1502.68	39
1503.74	42.5
1504.8	44
1505.85	41
1506.91	38
1507.97	38
1509.02	39
1510.08	40
1511.14	44.5
1512.19	42.5
1513.25	41
1514.3	46.5
1515.36	40
1516.41	39
1517.47	40
1518.52	48
1519.58	40.5
1520.63	43.5
1521.69	41
1522.74	38
1523.8	40
1524.85	40
1525.9	43
1526.96	37.5
1528.01	37.5
1529.06	43
1530.12	42
1531.17	39
1532.22	42
1533.27	42
1534.33	40
1535.38	43
1536.43	43
1537.48	43.5
1538.53	34.5
1539.59	43
1540.64	41.5
1541.69	44
1542.74	38.5
1543.79	37
1544.84	40
1545.89	41
1546.94	45.5
1547.99	38
1549.04	39
1550.09	38
1551.14	39.5
1552.19	38.5
1553.24	40.5
1554.29	42
1555.34	39.5
1556.39	41
1557.44	42
1558.49	38
1559.53	39
1560.58	44.5
1561.63	39
1562.68	42.5
1563.73	43
1564.77	42
1565.82	41
1566.87	41
1567.92	39
1568.96	40
1570.01	42.5
1571.06	39
1572.1	41
1573.15	39.5
1574.19	42
1575.24	39.5
1576.29	38
1577.33	39.5
1578.38	45.5
1579.42	39
1580.47	41.5
1581.51	42.5
1582.56	44
1583.6	41.5
1584.65	40.5
1585.69	41
1586.73	41
1587.78	42
1588.82	41
1589.87	36.5
1590.91	44.5
1591.95	40
1593	43.5
1594.04	37.5
1595.08	42
1596.13	38
1597.17	46
1598.21	44.5
1599.25	40
1600.29	40.5
1601.34	42.5
1602.38	43
1603.42	44
1604.46	41
1605.5	41.5
1606.54	39
1607.58	34
1608.62	32
1609.66	37.5
1610.7	42.5
1611.74	36
1612.79	40
1613.83	35.5
1614.86	34
1615.9	38
1616.94	40
1617.98	38
1619.02	41
1620.06	44
1621.1	42
1622.14	40.5
1623.18	41
1624.22	38.5
1625.25	40.5
1626.29	35
1627.33	39
1628.37	39
1629.4	39
1630.44	42.5
1631.48	42.5
1632.52	36
1633.55	38
1634.59	37.5
1635.63	37.5
1636.66	36.5
1637.7	41
1638.73	35
1639.77	39.5
1640.81	41
1641.84	41.5
1642.88	39
1643.91	41.5
1644.95	37.5
1645.98	38.5
1647.02	42.5
1648.05	39.5
1649.08	39
1650.12	38
1651.15	37
1652.19	40
1653.22	40.5
1654.25	38.5
1655.29	38
1656.32	40
1657.35	43.5
1658.39	41
1659.42	39.5
1660.45	36
1661.48	38.5
1662.52	39.5
1663.55	45
1664.58	40
1665.61	38.5
1666.64	39.5
1667.68	38.5
1668.71	40.5
1669.74	42.5
1670.77	31
1671.8	36.5
1672.83	38
1673.86	38.5
1674.89	40.5
1675.92	39.5
1676.95	41
1677.98	36.5
1679.01	39
1680.04	37.5
1681.07	41
1682.1	35.5
1683.13	36.5
1684.16	39
1685.19	37.5
1686.21	37.5
1687.24	40
1688.27	39
1689.3	39
1690.33	41
1691.35	44
1692.38	38.5
1693.41	39.5
1694.44	33.5
1695.46	40.5
1696.49	39
1697.52	35.5
1698.54	39
1699.57	38
1700.6	39
1701.62	33.5
1702.65	34
1703.68	38
1704.7	36
1705.73	39
1706.75	36
1707.78	40
1708.8	39
1709.83	38
1710.85	33.5
1711.88	38
1712.9	40.5
1713.92	40.5
1714.95	38
1715.97	39
1717	38
1718.02	39.5
1719.04	34
1720.07	40
1721.09	40
1722.11	41
1723.14	38
1724.16	35
1725.18	36.5
1726.2	43
1727.23	44
1728.25	35.5
1729.27	35
1730.29	39
1731.31	37
1732.33	40
1733.35	39.5
1734.38	38
1735.4	41.5
1736.42	36.5
1737.44	38
1738.46	35
1739.48	41
1740.5	32.5
1741.52	42
1742.54	38
1743.56	39.5
1744.58	37
1745.6	37
1746.62	42.5
1747.63	37
1748.65	41
1749.67	40
1750.69	36
1751.71	37.5
1752.73	43
1753.75	36.5
1754.76	35.5
1755.78	37
1756.8	34
1757.82	34.5
1758.83	38.5
1759.85	38
1760.87	37
1761.88	39.5
1762.9	38.5
1763.92	36
1764.93	37
1765.95	38
1766.97	35
1767.98	36.5
1769	41.5
1770.01	38
1771.03	35.5
1772.04	38
1773.06	37
1774.07	35.5
1775.09	33.5
1776.1	36
1777.12	36.5
1778.13	36.5
1779.14	37.5
1780.16	38.5
1781.17	41
1782.19	38.5
1783.2	39.5
1784.21	32
1785.23	39
1786.24	37
1787.25	36
1788.26	36.5
1789.28	38.5
1790.29	40
1791.3	38.5
1792.31	35.5
1793.33	40
1794.34	37
1795.35	37
1796.36	36.5
1797.37	36.5
1798.38	36.5
1799.39	37.5
1800.4	37
1801.42	35.5
1802.42	38.5
1803.44	33.5
1804.45	38.5
1805.46	31
1806.47	37
1807.48	38
1808.49	39.5
1809.49	40.5
1810.5	40
1811.51	36.5
1812.52	35
1813.53	34
1814.54	38
1815.55	34
1816.56	41.5
1817.56	41
1818.57	37.5
1819.58	37
1820.59	38
1821.59	34
1822.6	39.5
1823.61	36.5
1824.62	38.5
1825.62	36
1826.63	36.5
1827.64	39
1828.64	38.5
1829.65	42.5
1830.65	35
1831.66	35
1832.67	34
1833.67	36.5
1834.68	33.5
1835.68	35
1836.69	36
1837.69	38.5
1838.7	36.5
1839.7	37.5
1840.71	42.5
1841.71	34
1842.72	37
1843.72	40.5
1844.72	37
1845.73	38.5
1846.73	37.5
1847.74	39
1848.74	37.5
1849.74	34.5
1850.74	37
1851.75	36
1852.75	34.5
1853.75	31.5
1854.75	37
1855.76	36
1856.76	35.5
1857.76	43
1858.76	37
1859.76	38
1860.77	38
1861.77	39.5
1862.77	36.5
1863.77	39.5
1864.77	36.5
1865.77	33
1866.77	35
1867.77	37.5
1868.77	38
1869.77	39.5
1870.77	39
1871.77	35.5
1872.77	38.5
1873.77	36.5
1874.77	37
1875.77	36
1876.77	37.5
1877.77	35
1878.77	39.5
1879.76	39
1880.76	38.5
1881.76	36
1882.76	33.5
1883.76	32
1884.75	35
1885.75	40
1886.75	32
1887.75	35.5
1888.74	37.5
1889.74	38
1890.74	40.5
1891.73	35
1892.73	35.5
1893.73	32.5
1894.72	35
1895.72	36.5
1896.71	38
1897.71	36.5
1898.71	32.5
1899.7	37
1900.7	35.5
1901.69	36.5
1902.69	35
1903.68	36
1904.68	35.5
1905.67	36
1906.66	36.5
1907.66	31.5
1908.65	40
1909.65	38.5
1910.64	35.5
1911.63	36
1912.63	33
1913.62	33
1914.61	37
1915.61	34
1916.6	37.5
1917.59	34
1918.58	40.5
1919.58	35
1920.57	36
1921.56	36
1922.55	35
1923.54	35.5
1924.54	35
1925.53	37.5
1926.52	36
1927.51	39
1928.5	32.5
1929.49	39
1930.48	39
1931.47	37.5
1932.46	33.5
1933.45	33
1934.44	34.5
1935.43	33
1936.42	31
1937.41	36.5
1938.4	38
1939.39	37.5
1940.38	36
1941.37	36
1942.36	38
1943.35	38
1944.34	35.5
1945.32	35.5
1946.31	35.5
1947.3	33
1948.29	37
1949.28	35.5
1950.26	36
1951.25	36
1952.24	36.5
1953.23	35.25
1954.21	33.5
1955.2	34
1956.19	40
1957.17	32.5
1958.16	35
1959.15	33.5
1960.13	38
1961.12	35
1962.1	32.5
1963.09	33.5
1964.07	34
1965.06	35.5
1966.04	34
1967.03	36
1968.02	33
1969	36
1969.98	37
1970.97	36.5
1971.95	37
1972.94	35
1973.92	38.5
1974.91	35
1975.89	33.5
1976.87	38
1977.86	35
1978.84	34.5
1979.82	38.5
1980.8	36.5
1981.79	36.5
1982.77	35.5
1983.75	39
1984.74	36.5
1985.72	40.5
1986.7	35
1987.68	36
1988.66	32
1989.64	35.5
1990.63	33.5
1991.61	38.5
1992.59	35.5
1993.57	32.5
1994.55	30
1995.53	36
1996.51	35
1997.49	34.5
1998.47	33
1999.45	39
