#Acq. time (s)=	5
#Accumulations=	5
#Range (cm-¹)=	100...2000
#Windows=	2
#Autofocus=	Off
#AutoExposure=	Off
#Spike filter=	Multiple accum.
#Delay time (s)=	0
#Binning=	1
#Readout mode=	Signal
#DeNoise=	Off
#ICS correction=	Off
#Dark correction=	Off
#Inst. Process=	Off
#Instrument=	LabRAM HR Evol
#Detector=	Syncerity OE
#Objective=	x100_VIS_LWD
#Grating=	600 (500nm)
#ND Filter=	100%
#Laser=	633nm_Edge
#Hole=	100.021
#Range=	Visible
#Project=	Medicas
#Sample=	01
#Site=	01-05-25
#Title=	A2_m02
#Remark=	
#Date=	01.04.2025 13:55
#Acquired=	01.04.2025 13:55:01
101.125	38.5
102.409	33
103.692	38.5
104.976	42
106.259	39
107.542	36.5
108.824	39.5
110.106	36
111.388	38
112.67	39
113.951	36
115.233	34.5
116.514	36
117.795	38
119.075	39
120.356	37
121.636	37.5
122.916	35.5
124.196	40
125.476	43
126.755	39.5
128.035	38.5
129.314	39
130.592	39
131.871	43
133.149	40
134.428	45
135.706	46
136.983	39
138.261	48
139.538	46
140.814	49
142.091	46.5
143.368	50.5
144.644	47
145.92	49
147.197	50
148.473	52
149.747	50.5
151.022	51.5
152.297	52
153.573	58
154.847	53
156.122	58
157.395	53
158.669	57.5
159.943	53
161.217	57
162.491	55
163.763	52
165.036	53
166.309	53.5
167.582	51
168.853	52.5
170.125	46.5
171.397	47.5
172.668	53
173.94	51.5
175.211	46
176.482	54
177.752	53.5
179.023	49
180.294	53.5
181.563	53.5
182.833	53.5
184.103	58.5
185.372	57.5
186.641	55.5
187.909	51.5
189.179	54
190.448	57
191.715	52
192.984	50
194.251	54.5
195.519	54
196.787	54.5
198.053	55
199.321	52
200.587	52
201.854	49
203.12	47.5
204.386	44
205.652	40.5
206.918	45.5
208.183	43
209.449	48
210.713	45
211.978	48
213.242	47
214.508	43.5
215.771	47
217.036	43
218.299	37
219.563	42
220.826	39
222.09	42
223.352	41.5
224.614	38.5
225.877	41.5
227.139	41
228.402	36
229.663	38
230.924	40.5
232.186	37.5
233.447	40.5
234.707	40.5
235.969	37
237.229	35
238.489	35.5
239.75	37.5
241.009	32
242.269	39.5
243.529	39
244.788	35
246.046	37.5
247.306	35.5
248.564	33.5
249.822	31.5
251.08	33.5
252.339	34.5
253.596	39
254.854	35
256.111	35.5
257.369	35.5
258.625	32.5
259.882	34.5
261.138	37.5
262.394	35.5
263.651	33.5
264.906	32.5
266.162	31
267.417	33
268.672	37
269.926	31
271.181	35
272.437	33
273.691	34.5
274.945	33.5
276.198	30
277.452	28.5
278.705	33.5
279.958	27
281.211	35
282.464	36.5
283.716	30
284.969	37
286.221	33
287.473	33
288.726	31.5
289.977	31.5
291.228	34.5
292.48	31.5
293.73	29.5
294.981	32
296.232	30
297.482	33
298.73	31.5
299.98	30
301.23	33.5
302.479	34
303.729	36
304.978	37
306.227	33.5
307.475	29
308.724	30.5
309.972	31
311.22	32.5
312.468	32.5
313.715	32.5
314.961	33
316.209	33
317.456	33.5
318.703	33.5
319.949	30
321.196	34
322.44	31.5
323.686	34
324.932	35.5
326.178	36
327.423	34.5
328.667	34.5
329.912	28
331.157	32.5
332.402	35
333.645	35
334.889	34
336.133	33.5
337.377	34.5
338.619	30
339.862	31
341.106	30.5
342.349	36
343.59	29
344.833	32.5
346.075	36
347.316	32.5
348.558	33
349.8	33.5
351.04	32.5
352.281	30
353.523	31
354.762	30
356.003	37.5
357.242	31
358.483	34
359.723	32
360.961	35
362.201	35
363.44	33
364.679	34
365.917	34.5
367.156	32.5
368.393	36
369.632	34
370.87	32
372.107	31
373.345	31
374.582	28
375.819	34
377.055	35
378.293	34.5
379.528	32
380.764	34.5
382	33
383.235	29
384.471	27.5
385.706	31.5
386.942	32.5
388.176	32.5
389.41	34
390.646	31
391.879	33.5
393.114	34.5
394.347	35
395.58	31.5
396.815	34
398.047	31.5
399.28	31
400.513	27
401.745	26
402.977	33
404.21	32.5
405.442	28
406.673	34
407.906	34.5
409.137	34
410.367	39
411.598	31
412.829	33
414.06	33.5
415.289	34
416.519	34
417.75	28.5
418.979	28
420.208	33.5
421.437	33
422.666	37
423.896	30.5
425.124	34
426.352	33
427.58	28.5
428.808	33.5
430.036	30
431.264	32
432.492	33.5
433.719	30.5
434.945	30
436.172	31
437.398	33.5
438.624	35.5
439.85	33
441.076	33
442.302	35
443.528	33.5
444.754	36.5
445.979	33
447.203	32.5
448.428	33.5
449.652	33
450.877	37
452.101	33
453.324	36.5
454.548	37.5
455.772	33
456.995	31.5
458.218	35
459.441	34.5
460.663	36.5
461.884	41
463.107	35.5
464.329	37
465.55	39
466.772	41
467.994	40.5
469.215	43.5
470.436	45.5
471.657	46.5
472.878	45
474.097	47.5
475.317	46
476.537	50.5
477.757	51
478.977	63
480.196	71
481.414	69.5
482.633	80
483.852	81
485.071	83.5
486.29	84.5
487.507	95.5
488.725	91.5
489.943	89.5
491.16	91
492.377	88.5
493.594	83.5
494.811	80
496.028	79.5
497.244	72
498.46	70
499.677	68.5
500.892	64
502.108	66
503.323	57.5
504.538	56
505.753	53
506.968	51
508.182	53
509.397	47
510.612	47
511.825	41
513.039	46.5
514.252	42.5
515.466	41
516.679	42.5
517.892	40
519.105	41
520.317	44.5
521.53	38
522.741	39
523.953	39
525.164	36
526.377	38
527.587	36.5
528.799	32.5
530.009	38
531.221	41
532.43	38
533.641	38
534.851	37.5
536.062	37.5
537.271	35
538.481	32.5
539.69	32
540.898	34
542.108	39
543.316	35.5
544.525	37
545.733	31
546.94	35
548.149	30
549.356	34
550.563	34
551.771	36
552.978	33.5
554.184	35
555.392	33.5
556.598	36.5
557.804	31.5
559.011	34.5
560.216	31
561.421	33
562.628	34
563.833	31
565.037	36
566.242	32
567.447	35.5
568.651	34.5
569.855	35
571.059	37
572.263	34
573.467	29
574.67	34.5
575.873	35
577.076	34
578.279	28.5
579.481	34
580.685	29
581.887	33.5
583.088	33.5
584.29	36.5
585.491	31
586.693	33
587.894	35
589.094	33
590.297	30.5
591.497	37.5
592.697	32
593.897	32.5
595.097	33
596.297	36
597.497	30
598.696	36.5
599.895	30
601.094	37.5
602.293	34.5
603.491	37.5
604.69	33.5
605.888	32
607.086	30
608.284	33.5
609.481	36.5
610.679	31
611.876	35
613.072	32
614.269	38
615.465	36.5
616.662	38.5
617.858	32
619.054	32.5
620.25	38.5
621.446	30.5
622.641	31.5
623.835	39
625.031	33
626.226	36
627.42	32
628.615	35.5
629.809	34
631.002	33.5
632.196	36
633.39	32
634.584	31.5
635.776	35
636.969	35
638.162	34.5
639.355	34
640.547	35
641.739	34.5
642.932	34
644.124	35.5
645.314	34
646.506	33.5
647.698	31
648.888	37
650.079	33
651.27	34
652.459	35
653.65	35
654.841	32.5
656.03	35.5
657.22	32
658.408	34
659.598	33
660.787	37
661.975	35.5
663.165	39
664.352	35
665.541	38.5
666.728	39.5
667.917	41
669.105	34
670.292	37.5
671.479	39.5
672.666	37
673.853	38
675.039	39
676.226	35
677.412	42
678.597	39.5
679.784	41
680.969	40
682.155	44
683.34	45
684.526	46.5
685.71	48.5
686.894	44
688.079	46.5
689.263	41
690.448	49.5
691.631	43
692.814	41.5
693.998	43
695.181	45
696.364	42.5
697.548	43.5
698.73	43.5
699.912	45
701.095	50.5
702.277	50
703.458	57.5
704.641	65.5
705.822	63
707.003	70
708.184	75.5
709.366	76
710.546	72.5
711.726	73
712.906	61
714.086	54
715.267	53
716.446	44.5
717.626	44.5
718.805	44.5
719.984	41
721.164	41
722.342	38
723.52	35
724.699	38.5
725.877	33
727.054	34.5
728.232	36
729.409	31.5
730.587	37
731.765	33
732.942	33
734.119	36
735.295	29.5
736.471	35.5
737.647	34.5
738.823	36
739.999	32.5
741.175	34
742.35	32
743.525	36
744.7	36.5
745.875	34
747.05	33
748.224	32.5
749.399	31
750.573	35
751.747	34
752.92	35.5
754.093	30
755.266	34.5
756.439	38
757.612	34
758.785	35.5
759.958	33
761.13	31
762.302	28
763.473	32.5
764.645	33.5
765.817	33.5
766.988	36
768.16	37
769.331	30.5
770.5	31.5
771.671	31.5
772.842	37
774.012	31
775.181	34.5
776.351	31
777.521	37
778.691	34
779.859	40
781.028	31
782.198	33
783.367	36
784.534	37.5
785.703	37
786.871	38
788.038	34
789.206	43
790.374	39.5
791.54	38
792.708	38
793.874	40
795.041	38.5
796.208	35.5
797.374	36
798.54	40
799.705	37
800.872	31
802.038	39
803.202	31
804.368	32.5
805.532	40.5
806.697	37
807.861	38
809.026	34.5
810.19	33.5
811.354	32
812.517	29
813.682	34
814.844	36
816.008	37.5
817.171	33
818.334	35.5
819.496	34.5
820.658	34.5
821.821	29
822.983	33
824.145	35
825.306	31
826.467	29
827.629	36
828.79	34
829.95	31
831.112	38
832.272	36
833.432	30.5
834.593	32.5
835.752	29
836.912	29
838.072	28.5
839.231	32.5
840.39	34
841.548	35
842.708	32.5
843.866	33.5
845.025	32
846.182	31
847.341	35
848.499	32.5
849.656	30
850.813	28
851.97	32
853.129	31.5
854.285	34
855.442	36
856.598	35.5
857.754	35.5
858.91	38
860.066	34
861.223	34
862.378	36
863.533	38.5
864.688	39
865.843	31.5
866.998	33
868.152	33
869.306	35.5
870.46	33.5
871.614	35
872.768	35.5
873.922	36
875.075	29.5
876.228	36
877.381	35.5
878.534	32.5
879.687	34
880.839	31
881.992	32.5
883.144	35.5
884.296	35.5
885.448	31
886.599	36.5
887.751	33
888.902	28
890.053	27
891.203	31.5
892.353	33
893.504	31.5
894.654	29
895.805	30.5
896.955	31.5
898.103	35
899.253	29.5
900.402	32.5
901.552	31.5
902.701	30.5
903.848	30.5
904.997	35.5
906.146	29.5
907.294	35
908.442	30.5
909.589	35
910.737	33.5
911.885	32.5
913.031	29.5
914.178	32.5
915.326	28.5
916.471	31
917.618	27.5
918.765	27.5
919.91	32
921.056	31.5
922.202	29
923.347	31
924.493	33.5
925.638	28
926.782	31
927.928	31
929.071	29
930.216	26
931.361	29.5
932.504	33.5
933.648	29
934.791	33.5
935.935	30.5
937.078	30
938.221	31
939.364	38
940.507	30
941.649	30.5
942.792	32.5
943.933	31.5
945.076	33
946.217	30
947.359	34
948.5	32
949.64	28
950.782	33
951.922	31.5
953.064	32.5
954.204	32.5
955.343	31
956.484	34.5
957.623	31
958.763	31.5
959.903	24
961.042	32
962.18	32
963.32	31.5
964.458	32.5
965.597	29
966.736	29
967.874	34
969.011	26.5
970.149	33
971.287	31.5
972.424	34
973.561	34.5
974.698	28
975.836	33
976.972	29
978.108	29.5
979.244	33
980.38	26
981.516	32
982.653	28.5
983.788	32
984.923	30.5
986.058	30.5
987.193	31
988.328	30.5
989.462	28.5
990.596	28
991.732	28.5
992.866	26
993.999	32
995.133	29.5
996.266	34.5
997.4	32
998.533	27
999.666	30.5
1000.8	27
1001.93	33.5
1003.06	32.5
1004.2	30
1005.33	33
1006.46	31
1007.59	29
1008.72	28.5
1009.85	35.5
1010.99	30.5
1012.12	35
1013.25	28.5
1014.38	32.5
1015.51	28.5
1016.64	31.5
1017.77	30
1018.9	33
1020.03	35
1021.16	31.5
1022.28	28
1023.41	33
1024.54	33
1025.67	29.5
1026.8	31
1027.93	28.5
1029.06	23.5
1030.18	27
1031.31	31
1032.44	28.5
1033.57	31
1034.69	31
1035.82	30
1036.95	28.5
1038.07	31.5
1039.2	27
1040.33	31.5
1041.45	33.5
1042.58	30.5
1043.7	33
1044.83	26.5
1045.96	29
1047.08	34.5
1048.21	28
1049.33	32
1050.45	28.5
1051.58	26.5
1052.7	27
1053.83	28.5
1054.95	30
1056.08	27
1057.2	34.5
1058.32	29.5
1059.45	28
1060.57	24
1061.69	29
1062.81	27
1063.94	28.5
1065.06	29.5
1066.18	34
1067.3	32
1068.42	31
1069.55	26
1070.67	26
1071.79	26.5
1072.91	33.5
1074.03	25.5
1075.15	29
1076.27	30.5
1077.39	35
1078.51	26
1079.63	29.5
1080.75	28.5
1081.87	30.5
1082.99	26
1084.11	27
1085.23	29.5
1086.35	29
1087.46	26.5
1088.58	26
1089.7	29.5
1090.82	30.5
1091.94	28
1093.05	28
1094.17	31
1095.29	33
1096.41	27
1097.52	34.5
1098.64	27.5
1099.76	26.5
1100.87	27.5
1101.99	29.5
1103.1	33
1104.22	28.5
1105.34	31
1106.45	30.5
1107.57	29.5
1108.68	29
1109.8	31.5
1110.91	30
1112.03	31
1113.14	28
1114.25	28
1115.37	27
1116.48	34
1117.6	26.5
1118.71	29
1119.82	27.5
1120.94	28
1122.05	27
1123.16	31
1124.27	32
1125.39	32
1126.5	30.5
1127.61	32.5
1128.72	28
1129.83	30
1130.95	29
1132.06	29.5
1133.17	28.5
1134.28	29
1135.39	26.5
1136.5	31
1137.61	27.5
1138.72	28.5
1139.83	25.5
1140.94	26
1142.05	27
1143.16	30.5
1144.27	28.5
1145.38	26
1146.49	30.5
1147.6	28.5
1148.7	29
1149.81	28.5
1150.92	28
1152.03	29
1153.14	26
1154.25	31.5
1155.35	26.5
1156.46	29
1157.57	30.5
1158.67	32.5
1159.78	31
1160.89	29.5
1161.99	29
1163.1	28
1164.21	28.5
1165.31	30
1166.42	32.5
1167.52	33
1168.63	31.5
1169.73	30.5
1170.84	30
1171.94	27
1173.05	30
1174.15	28.5
1175.26	29
1176.36	30
1177.46	26.5
1178.57	31
1179.67	30
1180.78	31
1181.88	27.5
1182.98	34
1184.08	31.5
1185.19	26.5
1186.29	30
1187.39	25
1188.49	34.5
1189.6	28.5
1190.7	29
1191.8	30
1192.9	31.5
1194	31.5
1195.1	27
1196.2	27.5
1197.31	29
1198.41	27
1199.51	34.955
1200.61	30.9149
1201.71	27.95
1202.81	26.0985
1203.91	28.0752
1205	29.0633
1206.1	24.2756
1207.2	30.8926
1208.3	26.2354
1209.4	31.03
1210.5	30.1262
1211.6	29.6767
1212.7	24.4523
1213.79	27.0523
1214.89	24.9947
1215.99	27.7952
1217.09	28.5002
1218.18	30.027
1219.28	26.2066
1220.38	27.8784
1221.47	28.1599
1222.57	26.6397
1223.67	27.6766
1224.77	27.0203
1225.86	29.2947
1226.96	29.9515
1228.05	28.0612
1229.15	29.1879
1230.24	26.6103
1231.34	29.3877
1232.43	28.9046
1233.53	29.0412
1234.62	26.1571
1235.72	26.0189
1236.81	26.7613
1237.91	29.4404
1239	30.0875
1240.09	25.9068
1241.19	27.3618
1242.28	27.6158
1243.37	26.9779
1244.47	29.5271
1245.56	29.8113
1246.65	27.7455
1247.75	26.6291
1248.84	28.6686
1249.93	26.8462
1251.02	28.9934
1252.11	28.1761
1253.2	30.1524
1254.3	31.1247
1255.39	29.605
1256.48	32.2577
1257.57	29.0203
1258.66	30.9759
1259.75	30.8412
1260.84	29.825
1261.93	32.3102
1263.02	31.6387
1264.11	29.6679
1265.2	31.3405
1266.29	32.8796
1267.38	30.6098
1268.47	28.2973
1269.56	29.1595
1270.65	30.2775
1271.74	28.7345
1272.82	29.3698
1273.91	29.8141
1275	30.0339
1276.09	29.4712
1277.18	28.8842
1278.26	28.2596
1279.35	26.8544
1280.44	29.128
1281.53	28.0667
1282.61	26.5821
1283.7	27.9955
1284.79	28.844
1285.87	29.8714
1286.96	29.5621
1288.04	26.4085
1289.13	29.093
1290.22	26.9747
1291.3	28.3748
1292.39	28.4522
1293.47	26.5813
1294.56	27.75
1295.64	27.9892
1296.73	28.5621
1297.81	27.7492
1298.89	29.8948
1299.98	28.2551
1301.06	27.8562
1302.15	27.0051
1303.23	29.4657
1304.31	28.9
1305.4	27.7619
1306.48	24.9325
1307.56	25.5569
1308.44	30
1309.53	25.5
1310.62	31
1311.7	25
1312.79	28
1313.88	29
1314.97	31
1316.05	27.5
1317.14	27.5
1318.23	21.5
1319.31	30.5
1320.4	27.5
1321.49	27
1322.57	26.5
1323.66	27.5
1324.74	32
1325.83	30.5
1326.91	29.5
1328	26.5
1329.08	27
1330.17	24.5
1331.25	31.5
1332.34	29.5
1333.42	28.5
1334.5	27
1335.59	24
1336.67	32.5
1337.76	28
1338.84	27.5
1339.92	31
1341.01	34
1342.09	31
1343.17	29
1344.25	28.5
1345.34	28
1346.42	27
1347.5	29
1348.58	26
1349.66	27.5
1350.75	29
1351.83	25.5
1352.91	28
1353.99	28.5
1355.07	31
1356.15	28.5
1357.23	26
1358.31	29.5
1359.39	24
1360.47	29
1361.55	27
1362.63	26.5
1363.71	27
1364.79	26
1365.87	25.5
1366.95	29
1368.02	32.5
1369.1	26.5
1370.18	31
1371.26	29.5
1372.34	29
1373.42	24.5
1374.49	30
1375.57	29.5
1376.65	26
1377.72	29
1378.8	30
1379.88	30
1380.95	32
1382.03	30.5
1383.11	26.5
1384.18	27.5
1385.26	32
1386.34	32
1387.41	28
1388.49	32
1389.56	30
1390.64	30.5
1391.71	32
1392.79	33
1393.86	31
1394.94	33.5
1396.01	33.5
1397.08	31.5
1398.16	33
1399.23	30.5
1400.31	35
1401.38	31
1402.45	39
1403.53	38
1404.6	35
1405.67	39
1406.74	33.5
1407.82	40
1408.89	40.5
1409.96	39.5
1411.03	42
1412.1	42.5
1413.18	38
1414.25	39
1415.32	37
1416.39	40
1417.46	43
1418.53	38
1419.6	38
1420.67	36.5
1421.74	31.5
1422.81	32.5
1423.88	31.5
1424.95	30
1426.02	35
1427.09	31.5
1428.16	31.5
1429.23	32.5
1430.3	25
1431.36	34
1432.43	32.5
1433.5	27
1434.57	36
1435.64	32.5
1436.71	30
1437.77	31
1438.84	30.5
1439.91	32
1440.97	27.5
1442.04	29
1443.11	27
1444.18	35.5
1445.24	30
1446.31	32.5
1447.37	25
1448.44	29.5
1449.51	32
1450.57	33
1451.64	29
1452.7	30.5
1453.77	31.5
1454.83	28.5
1455.9	29
1456.96	32.5
1458.03	25
1459.09	30.5
1460.15	31.5
1461.22	30.5
1462.28	29
1463.35	28
1464.41	26.5
1465.47	30
1466.53	28
1467.6	31.5
1468.66	30
1469.72	30
1470.79	28
1471.85	30
1472.91	27
1473.97	33
1475.03	31.5
1476.1	28
1477.16	26.5
1478.22	32
1479.28	27
1480.34	28.5
1481.4	31
1482.46	30
1483.52	26.5
1484.58	30
1485.64	31
1486.7	31
1487.76	32.5
1488.82	29
1489.88	29
1490.94	27.5
1492	28.5
1493.06	32
1494.12	32
1495.17	26.5
1496.23	30
1497.29	29.5
1498.35	30
1499.41	26
1500.46	28.5
1501.52	27
1502.58	30
1503.64	25.5
1504.69	31
1505.75	29.5
1506.81	28
1507.86	27.5
1508.92	29
1509.98	29
1511.03	30
1512.09	30.5
1513.14	28.5
1514.2	26
1515.26	34
1516.31	29.5
1517.37	27.5
1518.42	31
1519.47	27
1520.53	34.5
1521.58	28
1522.64	29
1523.69	28
1524.75	31.5
1525.8	30
1526.85	29
1527.91	30
1528.96	27
1530.01	26
1531.07	27
1532.12	33
1533.17	31
1534.22	25.5
1535.28	28.5
1536.33	31
1537.38	30
1538.43	34
1539.48	30
1540.54	28.5
1541.59	30
1542.64	30
1543.69	29.5
1544.74	30
1545.79	30
1546.84	28.5
1547.89	34.5
1548.94	29.5
1549.99	26.5
1551.04	32
1552.09	29
1553.14	26.5
1554.19	29
1555.24	33
1556.29	29
1557.34	28
1558.38	32.5
1559.43	27.5
1560.48	33.5
1561.53	29
1562.58	33
1563.62	28.5
1564.67	28.5
1565.72	26
1566.77	29
1567.81	34
1568.86	30.5
1569.91	30.5
1570.95	30.5
1572	30
1573.05	28
1574.09	30
1575.14	29.5
1576.18	30
1577.23	29.5
1578.28	31.5
1579.32	24
1580.37	25
1581.41	28
1582.46	29
1583.5	28
1584.55	30
1585.59	29.5
1586.63	28.5
1587.68	22.5
1588.72	29.5
1589.76	25.5
1590.81	26
1591.85	25.5
1592.89	29.5
1593.94	27
1594.98	28
1596.02	27.5
1597.07	28.5
1598.11	31.5
1599.15	22
1600.19	28
1601.23	30.5
1602.28	28.5
1603.32	32
1604.36	31
1605.4	31
1606.44	28
1607.48	28
1608.52	27.5
1609.56	27.5
1610.6	30
1611.64	28
1612.68	30.5
1613.72	31
1614.76	31
1615.8	27
1616.84	30.5
1617.88	31.5
1618.92	24
1619.96	24.5
1621	32
1622.04	26
1623.08	29.5
1624.11	28.5
1625.15	32
1626.19	29
1627.23	32.5
1628.27	31
1629.3	29.5
1630.34	31
1631.38	29.5
1632.41	30
1633.45	28.5
1634.49	29
1635.52	33.5
1636.56	35
1637.6	29.5
1638.63	32
1639.67	26.5
1640.7	26.5
1641.74	30
1642.77	29
1643.81	29
1644.84	29.5
1645.88	33
1646.91	27.5
1647.95	28
1648.98	28
1650.02	27.5
1651.05	28.5
1652.09	28.5
1653.12	32.5
1654.15	26.5
1655.19	30
1656.22	29
1657.25	30
1658.29	31
1659.32	26.5
1660.35	26.5
1661.38	27
1662.42	29
1663.45	28
1664.48	23.5
1665.51	31
1666.54	28
1667.57	30
1668.61	30
1669.64	27
1670.67	27
1671.7	28
1672.73	28
1673.76	29
1674.79	29.5
1675.82	28
1676.85	29.5
1677.88	28
1678.91	27.5
1679.94	28.5
1680.97	26
1682	32
1683.03	28
1684.06	30.5
1685.08	29
1686.11	31.5
1687.14	26
1688.17	30.5
1689.2	29
1690.23	30
1691.25	29.5
1692.28	31
1693.31	28
1694.34	26.5
1695.36	29.5
1696.39	26
1697.42	30
1698.44	27
1699.47	28.5
1700.5	30.5
1701.52	31
1702.55	27
1703.57	27
1704.6	31.5
1705.63	29.5
1706.65	27
1707.68	27.5
1708.7	31.5
1709.73	28
1710.75	29
1711.78	29
1712.8	29
1713.82	28.5
1714.85	29
1715.87	28.5
1716.9	29
1717.92	30
1718.94	27.5
1719.97	24.5
1720.99	29
1722.01	27
1723.04	26.5
1724.06	31.5
1725.08	30
1726.1	33.5
1727.12	28
1728.15	33
1729.17	28.5
1730.19	30.5
1731.21	32
1732.23	30
1733.26	27.5
1734.28	26
1735.3	28
1736.32	28.5
1737.34	29.5
1738.36	27
1739.38	28
1740.4	32
1741.42	31.5
1742.44	26
1743.46	28.5
1744.48	28
1745.5	29.5
1746.52	27
1747.54	30.5
1748.55	30
1749.57	29
1750.59	32
1751.61	28.5
1752.63	29.5
1753.65	26.5
1754.66	27.5
1755.68	23
1756.7	28.5
1757.72	30
1758.73	28
1759.75	29
1760.77	32
1761.78	27
1762.8	30
1763.82	29
1764.83	30.5
1765.85	31
1766.87	27.5
1767.88	28
1768.9	29
1769.91	29
1770.93	25
1771.94	31.5
1772.96	27
1773.97	29
1774.99	29.5
1776	29
1777.02	28
1778.03	26
1779.05	30
1780.06	31
1781.07	30.5
1782.09	28.5
1783.1	26.5
1784.11	27.5
1785.13	26.5
1786.14	30
1787.15	27
1788.17	28
1789.18	31.5
1790.19	28.5
1791.2	26.5
1792.22	26.5
1793.23	30.5
1794.24	30
1795.25	31
1796.26	26.5
1797.27	30
1798.28	28
1799.29	24.5
1800.31	28.5
1801.32	23
1802.33	26.5
1803.34	29
1804.35	29.5
1805.36	28
1806.37	34
1807.38	27.5
1808.39	27
1809.4	27
1810.4	27.5
1811.41	29
1812.42	32.5
1813.43	24.5
1814.44	29.5
1815.45	27
1816.46	31
1817.47	28
1818.47	29
1819.48	30
1820.49	29.5
1821.5	26
1822.5	27.5
1823.51	27.5
1824.52	27.5
1825.52	27.5
1826.53	26
1827.54	29
1828.54	27.5
1829.55	30
1830.56	29.5
1831.56	27
1832.57	28.5
1833.57	28
1834.58	30
1835.58	24
1836.59	30.5
1837.6	28
1838.6	31
1839.61	23
1840.61	31
1841.61	30.5
1842.62	26.5
1843.62	28.5
1844.63	27.5
1845.63	30
1846.63	26.5
1847.64	26.5
1848.64	29.5
1849.64	28
1850.65	30.5
1851.65	27
1852.65	22.5
1853.65	31
1854.66	27.5
1855.66	25
1856.66	27.5
1857.66	28.5
1858.67	22.5
1859.67	30.5
1860.67	27
1861.67	28.5
1862.67	28
1863.67	28
1864.67	27
1865.67	29
1866.67	29
1867.67	28
1868.67	26.5
1869.67	28
1870.67	29
1871.67	30
1872.67	25
1873.67	26
1874.67	28.5
1875.67	31.5
1876.67	28
1877.67	29
1878.67	30
1879.67	31.5
1880.66	28.5
1881.66	29.5
1882.66	27
1883.66	28.5
1884.66	25.5
1885.65	26.5
1886.65	26.5
1887.65	28
1888.65	28
1889.64	32
1890.64	28.5
1891.64	26
1892.63	27
1893.63	26
1894.62	29
1895.62	26
1896.62	27
1897.61	31.5
1898.61	29.5
1899.6	29
1900.6	29
1901.59	25
1902.59	31
1903.58	28
1904.58	30
1905.57	27
1906.57	26.5
1907.56	25
1908.56	29
1909.55	30
1910.54	29.5
1911.54	29
1912.53	29.5
1913.52	27
1914.52	28.5
1915.51	28
1916.5	32.5
1917.5	23
1918.49	26.5
1919.48	28
1920.47	30
1921.46	28
1922.46	29
1923.45	28
1924.44	27
1925.43	26.5
1926.42	28
1927.41	24
1928.4	26
1929.39	32
1930.39	27.5
1931.38	30
1932.37	31
1933.36	27
1934.35	27
1935.34	27.5
1936.33	30
1937.32	27
1938.31	28
1939.29	28
1940.28	22.5
1941.27	29
1942.26	27
1943.25	29
1944.24	27.5
1945.23	28
1946.22	26.5
1947.2	30
1948.19	29.5
1949.18	25
1950.17	30
1951.15	28.5
1952.14	30.5
1953.13	29
1954.12	27
1955.1	29.5
1956.09	23
1957.08	27
1958.06	25
1959.05	29
1960.04	27
1961.02	28.5
1962.01	28.5
1962.99	29.5
1963.98	27
1964.96	28.5
1965.95	27.5
1966.93	31.5
1967.92	29.5
1968.9	26
1969.89	27.5
1970.87	27
1971.86	30
1972.84	25.5
1973.82	27.5
1974.81	26.5
1975.79	29.5
1976.78	26
1977.76	30.5
1978.74	25.5
1979.73	26.5
1980.71	26.5
1981.69	24
1982.67	29.5
1983.66	29.5
1984.64	28.5
1985.62	30.5
1986.6	26.5
1987.59	26
1988.57	26
1989.55	31
1990.53	27
1991.51	24.5
1992.49	26.5
1993.47	30
1994.45	27
1995.44	26.5
1996.42	23
1997.4	28
1998.38	25.5
1999.36	28.5
