#Acq. time (s)=	5
#Accumulations=	5
#Range (cm-¹)=	100...2000
#Windows=	2
#Autofocus=	Off
#AutoExposure=	Off
#Spike filter=	Multiple accum.
#Delay time (s)=	0
#Binning=	1
#Readout mode=	Signal
#DeNoise=	Off
#ICS correction=	Off
#Dark correction=	Off
#Inst. Process=	Off
#Instrument=	LabRAM HR Evol
#Detector=	Syncerity OE
#Objective=	x100_VIS_LWD
#Grating=	600 (500nm)
#ND Filter=	100%
#Laser=	633nm_Edge
#Hole=	100.021
#Range=	Visible
#Project=	Medicas
#Sample=	smp
#Site=	01-05-25
#Title=	A2_m05
#Remark=	smp5
#Date=	01.04.2025 14:03
#Acquired=	01.04.2025 14:03:44
101.125	31
102.409	35
103.692	34
104.976	43
106.259	32.5
107.542	35.5
108.824	35
110.106	35
111.388	33.5
112.67	36
113.951	37.5
115.233	36
116.514	31
117.795	37
119.075	35
120.356	36
121.636	42.5
122.916	39
124.196	37.5
125.476	37.5
126.755	36.5
128.035	42.5
129.314	39
130.592	41.5
131.871	42.5
133.149	43
134.428	44.5
135.706	42
136.983	40
138.261	48
139.538	45.5
140.814	44.5
142.091	45
143.368	48.5
144.644	49.5
145.92	45
147.197	48.5
148.473	45
149.747	46
151.022	52
152.297	55
153.573	53.5
154.847	54.5
156.122	51
157.395	55.5
158.669	55.5
159.943	50.5
161.217	50.5
162.491	51
163.763	56
165.036	51
166.309	54.5
167.582	49.5
168.853	54
170.125	51
171.397	47.5
172.668	47.5
173.94	51
175.211	48
176.482	55.5
177.752	51.5
179.023	50.5
180.294	52.5
181.563	48.5
182.833	55.5
184.103	47
185.372	53
186.641	53
187.909	54
189.179	51.5
190.448	53
191.715	53
192.984	52
194.251	49.5
195.519	49
196.787	52
198.053	47
199.321	49.5
200.587	49
201.854	52.5
203.12	45
204.386	48
205.652	45
206.918	49
208.183	46.5
209.449	44
210.713	43
211.978	37
213.242	43.5
214.508	43.5
215.771	38.5
217.036	45
218.299	38.5
219.563	41
220.826	45
222.09	39
223.352	39.5
224.614	36
225.877	43.5
227.139	39
228.402	35.5
229.663	38.5
230.924	38
232.186	38.5
233.447	39
234.707	35
235.969	38
237.229	37
238.489	37.5
239.75	36
241.009	38
242.269	34
243.529	38
244.788	34
246.046	36
247.306	38
248.564	38
249.822	35
251.08	30.5
252.339	37
253.596	33.5
254.854	32.5
256.111	36.5
257.369	36.5
258.625	39.5
259.882	32.5
261.138	34
262.394	34
263.651	37
264.906	34.5
266.162	33.5
267.417	32
268.672	33.5
269.926	33
271.181	35
272.437	37
273.691	39.5
274.945	31.5
276.198	34.5
277.452	30.5
278.705	31.5
279.958	31
281.211	30.5
282.464	31.5
283.716	35
284.969	32.5
286.221	31.5
287.473	35
288.726	28.5
289.977	33.5
291.228	32.5
292.48	31.5
293.73	31.5
294.981	35
296.232	31
297.482	30.5
298.73	27.5
299.98	31.5
301.23	34
302.479	33.5
303.729	32.5
304.978	32
306.227	33
307.475	33
308.724	35.5
309.972	32
311.22	30.5
312.468	33
313.715	34
314.961	33
316.209	38
317.456	30
318.703	34.5
319.949	35.5
321.196	32.5
322.44	35
323.686	32
324.932	35
326.178	32
327.423	33.5
328.667	31.5
329.912	31
331.157	31.5
332.402	34
333.645	30.5
334.889	30.5
336.133	34.5
337.377	29.5
338.619	31.5
339.862	32
341.106	32.5
342.349	34.5
343.59	35
344.833	32
346.075	32
347.316	33
348.558	32
349.8	32
351.04	36
352.281	31
353.523	32
354.762	32.5
356.003	35.5
357.242	36
358.483	35.5
359.723	35
360.961	31.5
362.201	32
363.44	30.5
364.679	30.5
365.917	32
367.156	31.5
368.393	37
369.632	35
370.87	33.5
372.107	32.5
373.345	34
374.582	35
375.819	29
377.055	33.5
378.293	31
379.528	34.5
380.764	32.5
382	30.5
383.235	28.5
384.471	34
385.706	33
386.942	32.5
388.176	28
389.41	29
390.646	33
391.879	31
393.114	34.5
394.347	34
395.58	34.5
396.815	33
398.047	34
399.28	27.5
400.513	29
401.745	30
402.977	35
404.21	31.5
405.442	31
406.673	29
407.906	34.5
409.137	34
410.367	35
411.598	31
412.829	28
414.06	31.5
415.289	25.5
416.519	29
417.75	31
418.979	29
420.208	29
421.437	28.5
422.666	31.5
423.896	32
425.124	28.5
426.352	30.5
427.58	23
428.808	31.5
430.036	31.5
431.264	31
432.492	30.5
433.719	32.5
434.945	28
436.172	31.5
437.398	27.5
438.624	34
439.85	30.5
441.076	35
442.302	31.5
443.528	29.5
444.754	30.5
445.979	31.5
447.203	29
448.428	36.5
449.652	34.5
450.877	33
452.101	27
453.324	31.5
454.548	33
455.772	36
456.995	33
458.218	35.5
459.441	34
460.663	36.5
461.884	34.5
463.107	35
464.329	33.5
465.55	40.5
466.772	38.5
467.994	38
469.215	38.5
470.436	43
471.657	48
472.878	44.5
474.097	49
475.317	50
476.537	50
477.757	56
478.977	56.5
480.196	62.5
481.414	69
482.633	71
483.852	80
485.071	74
486.29	83.5
487.507	80.5
488.725	89.5
489.943	87
491.16	90.5
492.377	81
493.594	82
494.811	76
496.028	73
497.244	73.5
498.46	65.5
499.677	65.5
500.892	64.5
502.108	55
503.323	60
504.538	54
505.753	50
506.968	51
508.182	50.5
509.397	44.5
510.612	49
511.825	44.5
513.039	44
514.252	41.5
515.466	39
516.679	43
517.892	41
519.105	39
520.317	37.5
521.53	37
522.741	34.5
523.953	37.5
525.164	36
526.377	35
527.587	37.5
528.799	34
530.009	36
531.221	35
532.43	34
533.641	37.5
534.851	30
536.062	34.5
537.271	35.5
538.481	35
539.69	35
540.898	36.5
542.108	32.5
543.316	36
544.525	36.5
545.733	33.5
546.94	31
548.149	35
549.356	35.5
550.563	34
551.771	32
552.978	39
554.184	32
555.392	38.5
556.598	35
557.804	36
559.011	36.5
560.216	32.5
561.421	37
562.628	33
563.833	30
565.037	35.5
566.242	33.5
567.447	29
568.651	27.5
569.855	33.5
571.059	30
572.263	33.5
573.467	30.5
574.67	34.5
575.873	31.5
577.076	35
578.279	34
579.481	26.5
580.685	30.5
581.887	35
583.088	27
584.29	28
585.491	34
586.693	30
587.894	32
589.094	33
590.297	38.5
591.497	33.5
592.697	33
593.897	32
595.097	30
596.297	26
597.497	31
598.696	33.5
599.895	32.5
601.094	29
602.293	33
603.491	31.5
604.69	29
605.888	32.5
607.086	33.5
608.284	32
609.481	30
610.679	33
611.876	32
613.072	37.5
614.269	35.5
615.465	33
616.662	35
617.858	29.5
619.054	36
620.25	31
621.446	31
622.641	38.5
623.835	34
625.031	34
626.226	34.5
627.42	34.5
628.615	33.5
629.809	28
631.002	30
632.196	32.5
633.39	33
634.584	35
635.776	32.5
636.969	35.5
638.162	31.5
639.355	33
640.547	28
641.739	29
642.932	37.5
644.124	33
645.314	31.5
646.506	32
647.698	31
648.888	35
650.079	31.5
651.27	30
652.459	33
653.65	33.5
654.841	29.5
656.03	31.5
657.22	31
658.408	34
659.598	33
660.787	37
661.975	35
663.165	35
664.352	31
665.541	34.5
666.728	32.5
667.917	34.5
669.105	35
670.292	34.5
671.479	35
672.666	36
673.853	36.5
675.039	35.5
676.226	38
677.412	39
678.597	36.5
679.784	35
680.969	42.5
682.155	41
683.34	43.5
684.526	43
685.71	44.5
686.894	45.5
688.079	43
689.263	46
690.448	43.5
691.631	39
692.814	46.5
693.998	41
695.181	41
696.364	45
697.548	48
698.73	49
699.912	47
701.095	49.5
702.277	47
703.458	55
704.641	62
705.822	65
707.003	65.5
708.184	64
709.366	72.5
710.546	74
711.726	68
712.906	61
714.086	50.5
715.267	52
716.446	44.5
717.626	44
718.805	40
719.984	38
721.164	33
722.342	34
723.52	34.5
724.699	36
725.877	30
727.054	33.5
728.232	36
729.409	36
730.587	27
731.765	32
732.942	32
734.119	31.5
735.295	29.5
736.471	34
737.647	31
738.823	31.5
739.999	31.5
741.175	33
742.35	33.5
743.525	30.5
744.7	32
745.875	33.5
747.05	29
748.224	31
749.399	28.5
750.573	30
751.747	31
752.92	29.5
754.093	28
755.266	33.5
756.439	36
757.612	33
758.785	32.5
759.958	27
761.13	32.5
762.302	31
763.473	30
764.645	30
765.817	30.5
766.988	35.5
768.16	31
769.331	30.5
770.5	29.5
771.671	35
772.842	34.5
774.012	34
775.181	29.5
776.351	30
777.521	30.5
778.691	36
779.859	32.5
781.028	35
782.198	37
783.367	35
784.534	39
785.703	37.5
786.871	40.5
788.038	36.5
789.206	41
790.374	35
791.54	37.5
792.708	32
793.874	34
795.041	32
796.208	37.5
797.374	38
798.54	33.5
799.705	31
800.872	31
802.038	38
803.202	35
804.368	33.5
805.532	29.5
806.697	39
807.861	32
809.026	30.5
810.19	31
811.354	34
812.517	35
813.682	31.5
814.844	34
816.008	29
817.171	33
818.334	30
819.496	33.5
820.658	28
821.821	36
822.983	32
824.145	33
825.306	31.5
826.467	34
827.629	30
828.79	32.5
829.95	33.5
831.112	28
832.272	34
833.432	34
834.593	33
835.752	33.5
836.912	29
838.072	29
839.231	30.5
840.39	33.5
841.548	30.5
842.708	29
843.866	31.5
845.025	30.5
846.182	32
847.341	30.5
848.499	30
849.656	31
850.813	31
851.97	33
853.129	32.5
854.285	33.5
855.442	32
856.598	38
857.754	33
858.91	34
860.066	37.5
861.223	34
862.378	33.5
863.533	35
864.688	38
865.843	31.5
866.998	33
868.152	30
869.306	30
870.46	32.5
871.614	33.5
872.768	34
873.922	31.5
875.075	27.5
876.228	37
877.381	32
878.534	32
879.687	32
880.839	31.5
881.992	34.5
883.144	31.5
884.296	32.5
885.448	27
886.599	32
887.751	33.5
888.902	28.5
890.053	30.5
891.203	27.5
892.353	29.5
893.504	30
894.654	29.5
895.805	27
896.955	36
898.103	30.5
899.253	29
900.402	32
901.552	29
902.701	28
903.848	29.5
904.997	31
906.146	26
907.294	32.5
908.442	24.5
909.589	32
910.737	31
911.885	30.5
913.031	29.5
914.178	27
915.326	27
916.471	23
917.618	27.5
918.765	32.5
919.91	33
921.056	31
922.202	28
923.347	32.5
924.493	30
925.638	28.5
926.782	29.5
927.928	30
929.071	30
930.216	30.5
931.361	29
932.504	29
933.648	29
934.791	27.5
935.935	31.5
937.078	30
938.221	30.5
939.364	26.5
940.507	28
941.649	30
942.792	28.5
943.933	29
945.076	28
946.217	35
947.359	27.5
948.5	32.5
949.64	28
950.782	28
951.922	29
953.064	31
954.204	26.5
955.343	30.5
956.484	26.5
957.623	28
958.763	29
959.903	31
961.042	28.5
962.18	28.5
963.32	29.5
964.458	33
965.597	29
966.736	29
967.874	31
969.011	28.5
970.149	28.5
971.287	28
972.424	29.25
973.561	29.5
974.698	28
975.836	30.5
976.972	31.5
978.108	28
979.244	25
980.38	29.5
981.516	31
982.653	32.5
983.788	35.5
984.923	32
986.058	32
987.193	30
988.328	28.5
989.462	26
990.596	31
991.732	24.5
992.866	28.5
993.999	28.5
995.133	31
996.266	34
997.4	27
998.533	29.5
999.666	26.5
1000.8	31.5
1001.93	29.5
1003.06	27
1004.2	29
1005.33	31
1006.46	30.5
1007.59	27
1008.72	28.5
1009.85	29
1010.99	29
1012.12	33
1013.25	27
1014.38	26.5
1015.51	31.5
1016.64	31
1017.77	28.5
1018.9	25.5
1020.03	32
1021.16	30
1022.28	29.5
1023.41	32
1024.54	29.5
1025.67	31.5
1026.8	29.5
1027.93	31
1029.06	26
1030.18	30
1031.31	31
1032.44	27
1033.57	29
1034.69	28.5
1035.82	23.5
1036.95	30.5
1038.07	29.5
1039.2	28.5
1040.33	27
1041.45	29.5
1042.58	25.5
1043.7	29
1044.83	29
1045.96	26
1047.08	29
1048.21	28
1049.33	27
1050.45	27.5
1051.58	27.5
1052.7	25
1053.83	28.5
1054.95	32.5
1056.08	31
1057.2	29
1058.32	28
1059.45	28
1060.57	29
1061.69	27.5
1062.81	28
1063.94	29
1065.06	30
1066.18	28
1067.3	26.5
1068.42	30.5
1069.55	28.5
1070.67	30.5
1071.79	28
1072.91	29
1074.03	25.5
1075.15	25.5
1076.27	28
1077.39	30.5
1078.51	27.5
1079.63	26
1080.75	28
1081.87	30
1082.99	30
1084.11	29
1085.23	29.5
1086.35	28
1087.46	26
1088.58	29.5
1089.7	25.5
1090.82	27.5
1091.94	29
1093.05	27
1094.17	26
1095.29	29.5
1096.41	25
1097.52	28.5
1098.64	29
1099.76	28
1100.87	29
1101.99	24.5
1103.1	26
1104.22	24.5
1105.34	26
1106.45	30
1107.57	30
1108.68	24.5
1109.8	30.5
1110.91	25.5
1112.03	25
1113.14	29
1114.25	29.5
1115.37	30.5
1116.48	26.5
1117.6	29
1118.71	24.5
1119.82	29
1120.94	26
1122.05	28
1123.16	29
1124.27	31
1125.39	26
1126.5	30
1127.61	27.5
1128.72	25.5
1129.83	31.5
1130.95	29
1132.06	32
1133.17	26
1134.28	27
1135.39	28.5
1136.5	31.5
1137.61	22
1138.72	28
1139.83	26
1140.94	28
1142.05	33
1143.16	29.5
1144.27	26
1145.38	28.5
1146.49	25.5
1147.6	31
1148.7	30.5
1149.81	30
1150.92	26.5
1152.03	28.5
1153.14	28.5
1154.25	27.5
1155.35	25.5
1156.46	29
1157.57	28
1158.67	29.5
1159.78	23
1160.89	26
1161.99	31.5
1163.1	26.5
1164.21	27.5
1165.31	29
1166.42	30
1167.52	26
1168.63	28
1169.73	28
1170.84	33.5
1171.94	30.5
1173.05	28
1174.15	31
1175.26	28
1176.36	24
1177.46	27.5
1178.57	26
1179.67	29
1180.78	22
1181.88	28
1182.98	30
1184.08	29
1185.19	30
1186.29	28
1187.39	33
1188.49	27
1189.6	28.5
1190.7	26.5
1191.8	28
1192.9	30
1194	28.5
1195.1	28
1196.2	29
1197.31	30.5
1198.41	26
1199.51	29.985
1200.61	29.4504
1201.71	26.5491
1202.81	25.5494
1203.91	31.3492
1205	30.3046
1206.1	27.9628
1207.2	30.2968
1208.3	28.7769
1209.4	28.8861
1210.5	29.0272
1211.6	27.2621
1212.7	24.3226
1213.79	23.1972
1214.89	25.6213
1215.99	26.7134
1217.09	30.2805
1218.18	28.7704
1219.28	25.7656
1220.38	28.7621
1221.47	27.8082
1222.57	25.5995
1223.67	25.6192
1224.77	26.7698
1225.86	26.089
1226.96	30.3267
1228.05	29.809
1229.15	26.0936
1230.24	26.9531
1231.34	28.051
1232.43	27.5821
1233.53	28.9742
1234.62	25.7268
1235.72	27.8137
1236.81	28.3869
1237.91	27.5769
1239	25.2059
1240.09	26.6219
1241.19	27.9967
1242.28	30.2179
1243.37	27.591
1244.47	29.6805
1245.56	25.4266
1246.65	28.8984
1247.75	27.2313
1248.84	29.0776
1249.93	28.1839
1251.02	31.2475
1252.11	29.8157
1253.2	29.8302
1254.3	29.4449
1255.39	28.8969
1256.48	31.8835
1257.57	32.0714
1258.66	27.8723
1259.75	32.3454
1260.84	31.8309
1261.93	32.4645
1263.02	34.4314
1264.11	30.7339
1265.2	31.6679
1266.29	30.4171
1267.38	29.3312
1268.47	29.8071
1269.56	30.6929
1270.65	28.9453
1271.74	29.5184
1272.82	25.971
1273.91	27.2823
1275	27.5386
1276.09	29.2883
1277.18	27.7676
1278.26	28.1492
1279.35	28.9882
1280.44	25.2179
1281.53	27.0513
1282.61	26.3299
1283.7	24.5239
1284.79	26.321
1285.87	25.2637
1286.96	26.0825
1288.04	27.2749
1289.13	27.9897
1290.22	28.502
1291.3	28.318
1292.39	26.3876
1293.47	29.6555
1294.56	29.0588
1295.64	29.5655
1296.73	28.9979
1297.81	28.306
1298.89	28.3727
1299.98	27.0273
1301.06	26.5943
1302.15	28.923
1303.23	27.5884
1304.31	25.5653
1305.4	27.7016
1306.48	24.5769
1307.56	26.7795
1308.44	27.3333
1309.53	28
1310.62	31.3333
1311.7	31.3333
1312.79	23.3333
1313.88	28.6667
1314.97	28.6667
1316.05	24.6667
1317.14	30.6667
1318.23	29.3333
1319.31	28
1320.4	27.3333
1321.49	28.6667
1322.57	26
1323.66	25.3333
1324.74	28.6667
1325.83	30
1326.91	28
1328	27.3333
1329.08	28.6667
1330.17	26.6667
1331.25	28.6667
1332.34	28
1333.42	29.3333
1334.5	30
1335.59	26
1336.67	29.3333
1337.76	27.3333
1338.84	24.6667
1339.92	24.6667
1341.01	24.6667
1342.09	27.3333
1343.17	32.6667
1344.25	34.6667
1345.34	31.3333
1346.42	26.6667
1347.5	30
1348.58	24
1349.66	30.6667
1350.75	26.6667
1351.83	26.6667
1352.91	24
1353.99	28.6667
1355.07	28.6667
1356.15	26.6667
1357.23	30.6667
1358.31	26.6667
1359.39	28.6667
1360.47	30.6667
1361.55	24
1362.63	28.6667
1363.71	30.6667
1364.79	30.6667
1365.87	28
1366.95	28.6667
1368.02	26.6667
1369.1	29.3333
1370.18	28.6667
1371.26	30.6667
1372.34	26
1373.42	25.3333
1374.49	31.3333
1375.57	27.3333
1376.65	35.3333
1377.72	24.6667
1378.8	24.6667
1379.88	24.6667
1380.95	31.3333
1382.03	28.6667
1383.11	28
1384.18	30.6667
1385.26	28.6667
1386.34	26.6667
1387.41	29.3333
1388.49	30.6667
1389.56	28
1390.64	31.3333
1391.71	30
1392.79	32.6667
1393.86	32.6667
1394.94	30
1396.01	32.6667
1397.08	36.6667
1398.16	33.3333
1399.23	36
1400.31	32
1401.38	33.3333
1402.45	34
1403.53	36.6667
1404.6	36.6667
1405.67	41.3333
1406.74	32.6667
1407.82	41.3333
1408.89	38
1409.96	41.3333
1411.03	39.3333
1412.1	41.3333
1413.18	38.6667
1414.25	40.6667
1415.32	32.6667
1416.39	37.3333
1417.46	34
1418.53	37.3333
1419.6	41.3333
1420.67	34.6667
1421.74	30.6667
1422.81	28
1423.88	35.3333
1424.95	32
1426.02	32
1427.09	30
1428.16	27.3333
1429.23	32
1430.3	29.3333
1431.36	30.6667
1432.43	28.6667
1433.5	34
1434.57	31.3333
1435.64	30.6667
1436.71	31.3333
1437.77	26
1438.84	32
1439.91	28.6667
1440.97	32
1442.04	32
1443.11	30
1444.18	30
1445.24	32
1446.31	28
1447.37	26
1448.44	34
1449.51	30.6667
1450.57	25.3333
1451.64	28
1452.7	32
1453.77	32
1454.83	31.3333
1455.9	29.3333
1456.96	26
1458.03	32
1459.09	24.6667
1460.15	28
1461.22	32
1462.28	33.3333
1463.35	28
1464.41	30
1465.47	32
1466.53	28
1467.6	30.6667
1468.66	27.3333
1469.72	28.6667
1470.79	28.6667
1471.85	30
1472.91	34.6667
1473.97	32
1475.03	36
1476.1	29.3333
1477.16	32
1478.22	30
1479.28	32.6667
1480.34	30
1481.4	30
1482.46	26.6667
1483.52	28.6667
1484.58	28
1485.64	26.6667
1486.7	32
1487.76	30.6667
1488.82	26
1489.88	27.3333
1490.94	30
1492	28.6667
1493.06	29.3333
1494.12	26.6667
1495.17	27.3333
1496.23	30.6667
1497.29	32.6667
1498.35	30.6667
1499.41	32
1500.46	31.3333
1501.52	35.3333
1502.58	34
1503.64	28
1504.69	26.6667
1505.75	32.6667
1506.81	30
1507.86	28.6667
1508.92	26
1509.98	32.6667
1511.03	26
1512.09	29.3333
1513.14	28.6667
1514.2	31.3333
1515.26	30
1516.31	27.3333
1517.37	27.3333
1518.42	31.3333
1519.47	28
1520.53	23.3333
1521.58	30
1522.64	29.3333
1523.69	30
1524.75	27.3333
1525.8	30
1526.85	29.3333
1527.91	28.6667
1528.96	26.6667
1530.01	33.3333
1531.07	23.3333
1532.12	30
1533.17	24.6667
1534.22	27.3333
1535.28	29.3333
1536.33	32.6667
1537.38	33.3333
1538.43	34
1539.48	32.6667
1540.54	27.3333
1541.59	30.6667
1542.64	29.3333
1543.69	31.3333
1544.74	28
1545.79	27.3333
1546.84	28
1547.89	30
1548.94	32.6667
1549.99	28
1551.04	25.3333
1552.09	22.6667
1553.14	30.6667
1554.19	27.3333
1555.24	30.6667
1556.29	27.3333
1557.34	26
1558.38	30
1559.43	29.3333
1560.48	31.3333
1561.53	29.3333
1562.58	24
1563.62	25.3333
1564.67	27.3333
1565.72	30
1566.77	30
1567.81	28.6667
1568.86	28.6667
1569.91	29.3333
1570.95	29.3333
1572	30.6667
1573.05	32
1574.09	30
1575.14	34.6667
1576.18	26.6667
1577.23	32
1578.28	32.6667
1579.32	28
1580.37	30
1581.41	31.3333
1582.46	30
1583.5	27.3333
1584.55	29.3333
1585.59	30.6667
1586.63	32
1587.68	28.6667
1588.72	27.3333
1589.76	24.6667
1590.81	33.3333
1591.85	34
1592.89	30.6667
1593.94	32.6667
1594.98	22.6667
1596.02	30
1597.07	29.3333
1598.11	28.6667
1599.15	27.3333
1600.19	32.6667
1601.23	28.6667
1602.28	30
1603.32	25.3333
1604.36	30.6667
1605.4	28
1606.44	31.3333
1607.48	28.6667
1608.52	28.6667
1609.56	25.3333
1610.6	29.3333
1611.64	26.6667
1612.68	26.6667
1613.72	23.3333
1614.76	27.3333
1615.8	28
1616.84	27.3333
1617.88	27.3333
1618.92	24
1619.96	29.3333
1621	29.3333
1622.04	30
1623.08	30.6667
1624.11	25.3333
1625.15	24
1626.19	26.6667
1627.23	28
1628.27	30
1629.3	32.6667
1630.34	27.3333
1631.38	25.3333
1632.41	28.6667
1633.45	30
1634.49	26
1635.52	29.3333
1636.56	28
1637.6	32.6667
1638.63	30
1639.67	25.3333
1640.7	34.6667
1641.74	32.6667
1642.77	26
1643.81	33.3333
1644.84	33.3333
1645.88	30.6667
1646.91	32.6667
1647.95	30
1648.98	22.6667
1650.02	30
1651.05	31.3333
1652.09	28.6667
1653.12	30
1654.15	28.6667
1655.19	32
1656.22	28
1657.25	30
1658.29	29.3333
1659.32	25.3333
1660.35	26.6667
1661.38	27.3333
1662.42	26
1663.45	28
1664.48	26.6667
1665.51	26.6667
1666.54	24.6667
1667.57	30
1668.61	26.6667
1669.64	29.3333
1670.67	31.3333
1671.7	28.6667
1672.73	26.6667
1673.76	32
1674.79	29.3333
1675.82	29.3333
1676.85	32
1677.88	24.6667
1678.91	24
1679.94	31.3333
1680.97	31.3333
1682	26
1683.03	25.3333
1684.06	30
1685.08	28.6667
1686.11	27.3333
1687.14	28.6667
1688.17	32.6667
1689.2	24
1690.23	30.6667
1691.25	25.3333
1692.28	26
1693.31	31.3333
1694.34	28
1695.36	26
1696.39	32.6667
1697.42	28.6667
1698.44	22.6667
1699.47	32.6667
1700.5	28.6667
1701.52	30
1702.55	27.3333
1703.57	26
1704.6	33.3333
1705.63	30
1706.65	29.3333
1707.68	22.6667
1708.7	25.3333
1709.73	28
1710.75	28
1711.78	30
1712.8	25.3333
1713.82	34
1714.85	24.6667
1715.87	25.3333
1716.9	30.6667
1717.92	30.6667
1718.94	26.6667
1719.97	30
1720.99	26
1722.01	26.6667
1723.04	26.6667
1724.06	27.3333
1725.08	24.6667
1726.1	28.6667
1727.12	25.3333
1728.15	29.3333
1729.17	26
1730.19	27.3333
1731.21	28.6667
1732.23	28
1733.26	26.6667
1734.28	32
1735.3	26.6667
1736.32	24.6667
1737.34	28
1738.36	28
1739.38	24.6667
1740.4	24.6667
1741.42	30
1742.44	27.3333
1743.46	27.3333
1744.48	30
1745.5	25.3333
1746.52	28.6667
1747.54	28
1748.55	29.3333
1749.57	26
1750.59	29.3333
1751.61	26.6667
1752.63	26.6667
1753.65	28
1754.66	28
1755.68	30.6667
1756.7	28.6667
1757.72	28
1758.73	26
1759.75	30
1760.77	23.3333
1761.78	29.3333
1762.8	28.6667
1763.82	23.3333
1764.83	28
1765.85	32
1766.87	29.3333
1767.88	29.3333
1768.9	26
1769.91	26.6667
1770.93	28.6667
1771.94	29.3333
1772.96	31.3333
1773.97	27.3333
1774.99	28
1776	28.6667
1777.02	27.3333
1778.03	28.6667
1779.05	27.3333
1780.06	30
1781.07	28
1782.09	29.3333
1783.1	22.6667
1784.11	24
1785.13	23.3333
1786.14	30.6667
1787.15	26.6667
1788.17	28
1789.18	29.3333
1790.19	23.3333
1791.2	26
1792.22	26.6667
1793.23	27.3333
1794.24	30.6667
1795.25	32
1796.26	24.6667
1797.27	26
1798.28	25.3333
1799.29	27.3333
1800.31	28.6667
1801.32	24.6667
1802.33	27.3333
1803.34	26
1804.35	25.3333
1805.36	29.3333
1806.37	26
1807.38	30
1808.39	32
1809.4	29.3333
1810.4	26.6667
1811.41	29.3333
1812.42	28.6667
1813.43	30.6667
1814.44	23.3333
1815.45	28
1816.46	32.6667
1817.47	32
1818.47	31.3333
1819.48	30.6667
1820.49	26.6667
1821.5	24
1822.5	20
1823.51	30.6667
1824.52	27.3333
1825.52	28.6667
1826.53	30.6667
1827.54	29.3333
1828.54	25.3333
1829.55	22
1830.56	29.3333
1831.56	26
1832.57	24
1833.57	26
1834.58	29.3333
1835.58	25.3333
1836.59	27.3333
1837.6	24.6667
1838.6	28
1839.61	26.6667
1840.61	24.6667
1841.61	27.3333
1842.62	28
1843.62	28.6667
1844.63	24.6667
1845.63	27.3333
1846.63	27.3333
1847.64	27.3333
1848.64	26
1849.64	29.3333
1850.65	28.6667
1851.65	29.3333
1852.65	27.3333
1853.65	25.3333
1854.66	27.3333
1855.66	29.3333
1856.66	32
1857.66	26.6667
1858.67	30.6667
1859.67	26.6667
1860.67	32.6667
1861.67	26
1862.67	28
1863.67	27.3333
1864.67	32
1865.67	26
1866.67	31.3333
1867.67	28
1868.67	29.3333
1869.67	30.6667
1870.67	26.6667
1871.67	29.3333
1872.67	26
1873.67	27.3333
1874.67	24
1875.67	32.6667
1876.67	26.6667
1877.67	29.3333
1878.67	27.3333
1879.67	26.6667
1880.66	30.6667
1881.66	27.3333
1882.66	29.3333
1883.66	28.6667
1884.66	29.3333
1885.65	26.6667
1886.65	28.6667
1887.65	33.3333
1888.65	32
1889.64	26
1890.64	22
1891.64	24
1892.63	28
1893.63	28
1894.62	26.6667
1895.62	29.3333
1896.62	26.6667
1897.61	30.6667
1898.61	27.3333
1899.6	27.3333
1900.6	28
1901.59	27.3333
1902.59	26
1903.58	27.3333
1904.58	26.6667
1905.57	28.6667
1906.57	28.6667
1907.56	30.6667
1908.56	29.3333
1909.55	25.3333
1910.54	21.3333
1911.54	27.3333
1912.53	32
1913.52	26.6667
1914.52	29.3333
1915.51	27.3333
1916.5	25.3333
1917.5	30
1918.49	30.6667
1919.48	28
1920.47	28.6667
1921.46	20.6667
1922.46	28
1923.45	27.3333
1924.44	22
1925.43	22.6667
1926.42	28.6667
1927.41	32
1928.4	27.3333
1929.39	24
1930.39	26.6667
1931.38	28.6667
1932.37	28
1933.36	27.3333
1934.35	26
1935.34	27.3333
1936.33	30
1937.32	27.3333
1938.31	27.3333
1939.29	24.6667
1940.28	25.3333
1941.27	27.3333
1942.26	30.6667
1943.25	28.6667
1944.24	29.3333
1945.23	29.3333
1946.22	27.3333
1947.2	24.6667
1948.19	26
1949.18	24.6667
1950.17	30
1951.15	24.6667
1952.14	29.3333
1953.13	28
1954.12	26
1955.1	27.3333
1956.09	29.3333
1957.08	25.3333
1958.06	26.6667
1959.05	26.6667
1960.04	28.6667
1961.02	29.3333
1962.01	28.6667
1962.99	30.6667
1963.98	31.3333
1964.96	28
1965.95	24
1966.93	28
1967.92	26.6667
1968.9	28
1969.89	26
1970.87	27.3333
1971.86	28
1972.84	26
1973.82	30
1974.81	20.6667
1975.79	28
1976.78	24.6667
1977.76	30
1978.74	28
1979.73	28.6667
1980.71	25.3333
1981.69	29.3333
1982.67	26.6667
1983.66	28.6667
1984.64	26
1985.62	26
1986.6	31.3333
1987.59	25.3333
1988.57	30
1989.55	27.3333
1990.53	30.6667
1991.51	27.3333
1992.49	28.6667
1993.47	26
1994.45	28
1995.44	30
1996.42	24.6667
1997.4	31.3333
1998.38	24.6667
1999.36	28.6667
