#Acq. time (s)=	5
#Accumulations=	5
#Range (cm-¹)=	100...3500
#Windows=	4
#Autofocus=	Off
#AutoExposure=	Off
#Spike filter=	Multiple accum.
#Delay time (s)=	0
#Binning=	1
#Readout mode=	Signal
#DeNoise=	Off
#ICS correction=	Off
#Dark correction=	Off
#Inst. Process=	Off
#Instrument=	LabRAM HR Evol
#Detector=	Syncerity OE
#Objective=	x100_VIS
#Grating=	600 (500nm)
#ND Filter=	25%
#Laser=	633nm_Edge
#Hole=	100.021
#Range=	Visible
#Project=	verificaciones
#Sample=	at5
#Site=	plain
#Title=	bolusat5plain
#Remark=	
#Date=	13.01.2026 19:07
#Acquired=	13.01.2026 19:07:50
100.692	25.5
101.975	30
103.258	31.5
104.542	31
105.824	30
107.107	31
108.39	27
109.672	29
110.954	29
112.236	29
113.519	27.5
114.8	27
116.081	32.5
117.362	33
118.643	32
119.924	29
121.204	33
122.484	33
123.764	28
125.044	34
126.323	32
127.603	30.5
128.882	34
130.161	32
131.438	31
132.716	32
133.995	36
135.273	34
136.55	34
137.828	34
139.106	34
140.383	33
141.66	38
142.937	36
144.213	31
145.488	39
146.764	35
148.04	36.5
149.316	35
150.592	37
151.867	36.5
153.141	36
154.416	38.5
155.69	36
156.965	41.5
158.239	36.5
159.512	37.5
160.786	40
162.059	39.5
163.333	38.5
164.605	31
165.878	36
167.15	36
168.423	43.5
169.694	33.5
170.966	35
172.238	34.5
173.51	38.5
174.78	38
176.052	40
177.323	35
178.592	36
179.863	40.5
181.134	38
182.403	38
183.673	39
184.943	40.5
186.211	40.5
187.481	37
188.749	42.5
190.018	39.5
191.287	36.5
192.554	35
193.822	38
195.089	41.5
196.357	38.5
197.625	40.5
198.891	35
200.159	33
201.425	31
202.692	33
203.957	34.5
205.224	33
206.489	37.5
207.755	37.5
209.02	30.5
210.286	32.5
211.55	37
212.815	31
214.079	32
215.344	34.5
216.607	37
217.872	32
219.135	35.5
220.399	29
221.662	31
222.924	28
224.187	33.5
225.449	32.5
226.713	35
227.974	32
229.235	34.5
230.498	30
231.759	30.5
233.019	32.5
234.281	32
235.542	32
236.802	28
238.063	27
239.323	30
240.582	32
241.843	30
243.102	30.5
244.361	29
245.621	28.5
246.879	32
248.138	27.5
249.396	31.5
250.655	31
251.913	30
253.17	27
254.427	27.5
255.686	28.5
256.943	28.5
258.199	26
259.456	29
260.712	25
261.969	27
263.225	30.5
264.481	28
265.736	28
266.991	32.5
268.246	28.5
269.502	27
270.757	33.5
272.011	25
273.265	29
274.519	33.5
275.773	30
277.027	31
278.28	25.5
279.533	28.5
280.786	24
282.04	27
283.293	28.5
284.545	32
285.798	27
287.049	27
288.301	27.5
289.553	30.5
290.804	29
292.055	28
293.306	30.5
294.557	29
295.807	28
297.058	32
298.308	24.5
299.558	26.5
300.808	29
302.057	29.5
303.305	24
304.554	27
305.803	25.5
307.052	29
308.3	29
309.549	25
310.797	31.5
312.045	28
313.292	28
314.54	30
315.786	27
317.033	25.5
318.28	28
319.526	29
320.773	32
322.019	26
323.264	28
324.51	28.5
325.755	26.5
327.001	26.5
328.246	27
329.49	25.5
330.735	28
331.979	28
333.224	28
334.467	26
335.711	32
336.955	31.5
338.199	31
339.441	26
340.684	29
341.927	33.5
343.168	26.5
344.411	27.5
345.654	27.5
346.895	26
348.137	26.5
349.379	29.5
350.619	31
351.86	28.5
353.102	29.5
354.341	32
355.582	31
356.821	30
358.062	28
359.302	27
360.541	30
361.781	29.5
363.019	26
364.259	25.5
365.496	26
366.736	32
367.974	25.5
369.212	30
370.45	29.5
371.687	31.5
372.925	26
374.162	27.5
375.399	28
376.635	26.5
377.873	31
379.109	29
380.344	29
381.581	28
382.816	30
384.052	26.5
385.287	28.5
386.523	28
387.757	27
388.991	27.5
390.227	31.5
391.46	28.5
392.695	28
393.928	30
395.162	29.5
396.396	29
397.629	28.5
398.861	26.5
400.095	29.5
401.327	30.5
402.559	25
403.792	25.5
405.024	28.5
406.255	24.5
407.488	26.5
408.719	24
409.949	27.5
411.18	22.5
412.412	28
413.642	29.5
414.872	28
416.102	23.5
417.333	31.5
418.562	27
419.791	27.5
421.02	31
422.249	28
423.479	31.5
424.707	27
425.935	24.5
427.163	28.5
428.391	23.5
429.619	26
430.848	27
432.075	29
433.302	31.5
434.529	29
435.755	30.5
436.982	25
438.208	25
439.434	29
440.66	25.5
441.885	28
443.111	28
444.338	28.5
445.563	28
446.788	28.5
448.012	32.5
449.237	27
450.461	29.5
451.685	28
452.909	28.5
454.133	31.5
455.356	27
456.579	28
457.802	24.5
459.025	30
460.247	30
461.469	26.5
462.691	33
463.914	29
465.136	28.5
466.357	30
467.579	32
468.8	32
470.021	37.5
471.242	30
472.462	34.5
473.682	35.5
474.903	38.5
476.123	37.5
477.343	41
478.563	41
479.782	45
481	47.5
482.219	50
483.438	51
484.657	52
485.874	53.5
487.093	52
488.311	56.5
489.529	54.5
490.747	58
491.963	52
493.181	51
494.398	52.5
495.614	51.5
496.83	44
498.047	43
499.264	40
500.479	43.5
501.695	39.5
502.911	39.5
504.125	34
505.34	36.5
506.554	38
507.769	34.5
508.984	39.5
510.198	26
511.412	32
512.627	35
513.839	32
515.053	31.5
516.266	29.5
517.479	32.5
518.691	28
519.905	29
521.118	33.5
522.329	33
523.542	26.5
524.753	32.5
525.965	31
527.176	26.5
528.388	28
529.598	27.5
530.809	31.5
532.019	33
533.23	30.5
534.44	29
535.649	26.5
536.86	32
538.068	30
539.279	24.5
540.487	26
541.697	30
542.905	30
544.113	29.5
545.322	28
546.53	30.5
547.737	29
548.946	28.5
550.153	26
551.361	30.5
552.568	28
553.774	26.5
554.982	27.5
556.188	30.5
557.394	31
558.599	23
559.806	25
561.012	27.5
562.217	29.5
563.423	33
564.628	27
565.832	24.5
567.036	26.5
568.241	32
569.446	30.5
570.65	28.5
571.853	31
573.057	31
574.26	28.5
575.464	29
576.667	27.5
577.87	26
579.072	28
580.274	28.5
581.477	31
582.68	32
583.881	27
585.083	26
586.284	29
587.485	30
588.686	31.5
589.887	29.5
591.087	29
592.288	31
593.488	27
594.688	28.5
595.888	26
597.087	28.5
598.287	25
599.486	24
600.685	26.5
601.884	25
603.082	27.5
604.281	27.5
605.479	30
606.677	26
607.875	31
609.073	27.5
610.27	31
611.468	26
612.665	28
613.862	28
615.058	24
616.255	27.5
617.451	29.5
618.648	27.5
619.842	28.5
621.038	24
622.234	30.5
623.429	29.5
624.624	24
625.819	29
627.013	30
628.207	27
629.402	29
630.596	28.5
631.79	25.5
632.983	28.5
634.177	26
635.37	27
636.564	25
637.755	29
638.948	31
640.141	30
641.334	28.5
642.525	29
643.717	34
644.909	27
646.099	33.5
647.291	27.5
648.483	27.5
649.674	27.5
650.864	29.5
652.055	26
653.244	27
654.435	28
655.625	25.5
656.814	31.5
658.004	28
659.193	33
660.382	26.5
661.571	27
662.759	30.5
663.948	28
665.135	27.5
666.324	28
667.511	30.5
668.7	29
669.886	31
671.074	30.5
672.262	32
673.448	29.5
674.634	32
675.821	32.5
677.007	30
678.194	31
679.379	30
680.565	32.5
681.75	34
682.936	32
684.121	35.5
685.305	32
686.491	31.5
687.675	31.5
688.86	34
690.043	31
691.227	36
692.411	35
693.594	33.5
694.777	29.5
695.961	34.5
697.144	36.5
698.326	36
699.509	36
700.691	37
701.873	36.5
703.056	38
704.237	41
705.419	45
706.599	49
707.782	43.5
708.962	46.5
710.143	40.5
711.323	44
712.504	38
713.684	38
714.864	35.5
716.043	33
717.223	31.5
718.403	32
719.582	28
720.761	28.5
721.94	29.5
723.118	29.5
724.296	28
725.474	32
726.652	27
727.831	30
729.009	27
730.186	28
731.363	26
732.54	28
733.717	26.5
734.893	29
736.07	22
737.246	29
738.422	27.5
739.598	30
740.773	25
741.949	28.5
743.124	27
744.299	28.5
745.474	28.5
746.649	28.5
747.823	27.5
748.997	27.5
750.172	27
751.346	28
752.519	31
753.693	25.5
754.867	29.5
756.038	29
757.211	30
758.384	27
759.557	27
760.73	27.5
761.902	28.5
763.074	27
764.246	25
765.417	28
766.588	26
767.76	30.5
768.931	27.5
770.102	28
771.271	30
772.442	31
773.613	31
774.783	29
775.952	27
777.122	27.5
778.291	29.5
779.461	29
780.629	29
781.798	32
782.967	26.5
784.135	26.5
785.304	29.5
786.472	28
787.639	30
788.807	29.5
789.975	30.5
791.142	27.5
792.309	26.5
793.477	28
794.642	28
795.81	27
796.975	31.5
798.142	28
799.308	30.5
800.473	28
801.639	31.5
802.804	29
803.97	29.5
805.134	31
806.299	27.5
807.463	29.5
808.628	26.5
809.792	28.5
810.957	22
812.12	26
813.284	26.5
814.447	27
815.611	26
816.773	27.5
817.937	28
819.099	24.5
820.261	26
821.424	29
822.585	27
823.748	27.5
824.909	23.5
826.07	28.5
827.232	31
828.393	26
829.554	28.5
830.715	25
831.875	27
833.035	28
834.196	26
835.356	29
836.515	28
837.676	28
838.835	26
839.994	26
841.152	27.5
842.312	28.5
843.47	28
844.629	26.5
845.786	28.5
846.946	24.5
848.103	25
849.261	25
850.418	27.5
851.575	22
852.733	24.5
853.89	27
855.046	26.5
856.203	25
857.359	28.5
858.515	28.5
859.67	25
860.827	30
861.983	25.5
863.138	33.5
864.293	32.5
865.448	30
866.603	26.5
867.757	27
868.912	26
870.066	25.5
871.22	28.5
872.374	25
873.527	26.5
874.681	33.5
875.834	29.5
876.987	28
878.14	25
879.293	30
880.445	25
881.598	29
882.75	32
883.902	29
885.054	27
886.206	29
887.357	29
888.507	31
889.658	29
890.809	23
891.96	27
893.111	27
894.261	26.5
895.411	29
896.561	27
897.71	27
898.86	27
900.009	28
901.159	28.5
902.308	26.5
903.455	24
904.604	25.5
905.753	27
906.901	27.5
908.048	26
909.197	25
910.344	27.5
911.492	21
912.639	25
913.786	22.5
914.933	26.5
916.079	29.5
917.226	30
918.373	24
919.518	24
920.664	28
921.81	28
922.955	25
924.101	30
925.245	28.5
926.391	26.5
927.536	26
928.68	29
929.825	24
930.968	27
932.113	25
933.256	21.5
934.4	27
935.543	27.5
936.687	26.5
937.83	30
938.973	28.5
940.115	27.5
941.258	32
942.399	26
943.542	26
944.684	25.5
945.826	27
946.967	24
948.109	25.5
949.25	25
950.392	26.5
951.532	24
952.672	25
953.813	29.5
954.953	26.5
956.093	23.5
957.233	28
958.373	27
959.512	28
960.652	26.5
961.791	25
962.929	28
964.069	26
965.207	26
966.345	28
967.484	24.5
968.622	28
969.759	28
970.896	28
972.035	26.5
973.172	25.5
974.309	25.5
975.445	29
976.582	26
977.719	27.5
978.855	24
979.991	28.5
981.127	24.5
982.263	26.5
983.398	24
984.535	23
985.67	25.5
986.804	26.5
987.939	27.5
989.074	27.5
990.208	25.5
991.342	26.5
992.476	29.5
993.61	25.5
994.744	26.5
995.877	27.5
997.01	25.5
998.143	26.5
999.276	26
1000.41	25.5
1001.54	26.5
1002.67	26
1003.81	24.5
1004.94	26
1006.07	28.5
1007.2	28
1008.33	26.5
1009.47	19
1010.6	26
1011.73	23
1012.86	26
1013.99	28
1015.12	26.5
1016.25	22
1017.38	24
1018.51	26
1019.64	23.5
1020.77	29.5
1021.9	28
1023.03	23
1024.15	28
1025.28	28
1026.41	26.5
1027.54	24
1028.67	26
1029.8	24
1030.92	23
1032.05	23.5
1033.18	25
1034.31	26.5
1035.43	26
1036.56	20.5
1037.69	20
1038.81	28.5
1039.94	22
1041.07	27
1042.19	28
1043.32	24
1044.44	25
1045.57	26
1046.69	23
1047.82	24.5
1048.94	21
1050.07	24
1051.19	25
1052.32	25
1053.44	26.5
1054.57	26.5
1055.69	24
1056.81	24
1057.94	27
1059.06	23
1060.18	23
1061.31	24.5
1062.43	27
1063.55	25
1064.67	28.5
1065.8	24
1066.92	23
1068.04	25
1069.16	28
1070.28	25.5
1071.4	27
1072.52	27.5
1073.64	26.5
1074.76	22.5
1075.89	29
1077.01	25
1078.13	21
1079.25	26
1080.37	27.5
1081.49	26
1082.6	23.5
1083.72	25
1084.84	25.5
1085.96	25
1087.08	24
1088.2	27.5
1089.32	25
1090.43	27
1091.55	27.5
1092.67	27
1093.79	27
1094.91	22
1096.02	26
1097.14	24
1098.26	24.5
1099.37	25.5
1100.49	25
1101.61	24.5
1102.72	26.5
1103.84	27
1104.95	24
1106.07	24
1107.18	24
1108.3	24.5
1109.41	22.5
1110.53	27.5
1111.64	31
1112.76	26
1113.87	25.5
1114.99	21
1116.1	26
1117.21	25
1118.33	23
1119.44	23.5
1120.55	22
1121.67	24.5
1122.78	26.5
1123.89	22
1125	26.5
1126.12	23.5
1127.23	25.5
1128.34	21
1129.45	25
1130.56	22.5
1131.68	28
1132.79	26.5
1133.9	24
1135.01	22.5
1136.12	27
1137.23	27
1138.34	27
1139.45	22
1140.56	23.5
1141.67	27.5
1142.78	23
1143.89	25
1145	28
1146.11	28.5
1147.22	24.5
1148.32	24.5
1149.43	29
1150.54	24
1151.65	26
1152.76	26.5
1153.86	24.5
1154.97	25.5
1156.08	29
1157.19	22.5
1158.29	26.5
1159.4	27
1160.51	26
1161.61	26
1162.72	25
1163.83	27
1164.93	27.5
1166.04	22.5
1167.14	24.5
1168.25	23.5
1169.35	29
1170.46	27
1171.56	24.5
1172.67	22
1173.77	23
1174.88	25.5
1175.98	23
1177.08	27.5
1178.19	24
1179.29	26.5
1180.4	23.5
1181.5	26
1182.6	22.5
1183.71	23
1184.81	24
1185.91	29.5
1187.01	25
1188.12	24
1189.22	23.5
1190.32	26
1191.42	24
1192.52	25.5
1193.62	24
1194.72	22.0139
1195.83	25.4624
1196.93	25.981
1198.03	25.568
1199.13	20.7227
1200.23	25.9696
1201.33	25.7757
1202.43	24.7277
1203.53	25.1071
1204.63	23.4539
1205.73	24.8638
1206.83	26.4924
1207.92	27.0811
1209.02	21.3719
1210.12	23.6314
1211.22	24.4464
1212.32	25.8012
1213.42	20.5323
1214.51	25.6868
1215.61	26.3937
1216.71	25.5234
1217.81	25.2296
1218.9	26.9437
1220	28.3712
1221.1	23.0711
1222.19	21.7311
1223.29	26.7847
1224.39	21.7783
1225.48	25.2036
1226.58	25.6028
1227.68	25.2647
1228.77	27.5834
1229.87	25.6381
1230.96	24.4695
1232.06	22.8808
1233.15	23.6502
1234.25	21.5391
1235.34	23.9672
1236.43	24.6143
1237.53	25.1889
1238.62	26.3166
1239.72	28.0615
1240.81	21.6029
1241.9	24.4293
1243	26.7016
1244.09	24.3382
1245.18	22.6772
1246.27	24.3083
1247.37	25.6825
1248.46	24.901
1249.55	23.6966
1250.64	23.5536
1251.74	25.207
1252.83	22.7611
1253.92	22.8219
1255.01	26.6393
1256.1	26.9211
1257.19	24.5256
1258.28	26.408
1259.38	26.116
1260.46	26.6399
1261.56	25.7863
1262.65	25.2213
1263.74	22.6694
1264.82	25.7115
1265.91	25.4123
1267	25.9372
1268.09	21.1627
1269.18	23.6581
1270.27	23.8934
1271.36	23.1578
1272.45	23.4587
1273.54	25.4318
1274.63	25.7203
1275.71	26.3441
1276.8	24.8529
1277.89	24.0563
1278.98	26.5349
1280.06	24.9529
1281.15	25.8913
1282.24	28.1987
1283.32	26.9687
1284.41	23.9253
1285.5	24.4007
1286.58	25.5898
1287.67	23.5786
1288.76	27.3896
1289.84	26.8394
1290.93	26.2184
1292.01	24.3397
1293.1	23.3395
1294.18	24.7291
1295.27	23.47
1296.35	23.7851
1297.44	27.3959
1298.52	24.6673
1299.6	21.8542
1300.69	22.5549
1301.77	23.9938
1302.86	22.4108
1303.94	21.5485
1305.02	25.4779
1306.11	25.5755
1306.41	25
1307.5	24.5
1308.59	24
1309.68	23
1310.77	26
1311.85	22
1312.94	24
1314.03	25
1315.11	20.5
1316.2	26
1317.29	20
1318.37	29.5
1319.46	23
1320.55	23.5
1321.63	24.5
1322.72	23.5
1323.8	21.5
1324.89	26
1325.98	27.5
1327.06	21.5
1328.15	23
1329.23	23.5
1330.31	26
1331.4	21
1332.48	25
1333.57	25.5
1334.65	26.5
1335.74	22
1336.82	26
1337.9	26
1338.99	22.5
1340.07	22.5
1341.15	25.5
1342.24	28
1343.32	26.5
1344.4	25.5
1345.48	25
1346.56	24
1347.65	25.5
1348.73	22.5
1349.81	26.5
1350.89	24
1351.97	25.5
1353.05	23
1354.13	30
1355.21	23.5
1356.29	26
1357.37	24.5
1358.46	27.5
1359.54	24.5
1360.62	22.5
1361.69	23
1362.77	25.5
1363.85	23
1364.93	26
1366.01	26
1367.09	22.5
1368.17	27
1369.25	21.5
1370.33	24.5
1371.41	28
1372.48	25.5
1373.56	25
1374.64	24
1375.72	27
1376.79	26
1377.87	27
1378.95	25
1380.02	27
1381.1	28
1382.18	25
1383.25	24.5
1384.33	25
1385.4	26.5
1386.48	23.5
1387.56	26
1388.63	22
1389.71	28
1390.78	28
1391.86	29
1392.93	26
1394.01	26.5
1395.08	28
1396.15	26.5
1397.23	26
1398.3	26
1399.38	30.5
1400.45	28
1401.52	29
1402.6	32.5
1403.67	31.5
1404.74	29
1405.81	32.5
1406.89	29
1407.96	28.5
1409.03	28.5
1410.1	30.5
1411.17	26.5
1412.25	33
1413.32	29
1414.39	29.5
1415.46	32.5
1416.53	28
1417.6	30
1418.67	26.5
1419.74	25.5
1420.81	29.5
1421.88	25
1422.95	27
1424.02	26
1425.09	27
1426.16	28.5
1427.23	26
1428.3	25.5
1429.37	24
1430.44	24
1431.51	24
1432.58	25
1433.64	23
1434.71	29
1435.78	26.5
1436.85	25
1437.92	26.5
1438.98	25
1440.05	25
1441.12	26
1442.18	28.5
1443.25	25.5
1444.32	26.5
1445.38	28
1446.45	27.5
1447.52	28.5
1448.58	26.5
1449.65	26.5
1450.71	26
1451.78	28
1452.84	27.5
1453.91	25
1454.97	23
1456.04	26
1457.1	28.5
1458.17	25
1459.23	26
1460.3	28.5
1461.36	25
1462.42	26.5
1463.49	27
1464.55	28
1465.61	27.5
1466.68	30
1467.74	22.5
1468.8	24.5
1469.86	26
1470.93	25
1471.99	22
1473.05	25
1474.11	28
1475.17	26
1476.24	24.5
1477.3	26.5
1478.36	26
1479.42	25
1480.48	24
1481.54	25
1482.6	25
1483.66	27
1484.72	31
1485.78	24
1486.84	28
1487.9	25.5
1488.96	24
1490.02	26.5
1491.08	21
1492.14	21
1493.2	27.5
1494.26	25
1495.31	28
1496.37	27.5
1497.43	22.5
1498.49	29
1499.55	25
1500.6	24
1501.66	27
1502.72	27
1503.78	24
1504.83	24
1505.89	26.5
1506.95	26.5
1508	28
1509.06	23.5
1510.12	25
1511.17	28.5
1512.23	26
1513.28	20.5
1514.34	26
1515.39	26.5
1516.45	25
1517.5	26
1518.56	24
1519.61	31
1520.67	22.5
1521.72	27
1522.78	25.5
1523.83	23.5
1524.88	25
1525.94	28
1526.99	25
1528.05	26.5
1529.1	28
1530.15	25
1531.2	28.5
1532.26	30
1533.31	28
1534.36	25
1535.41	29
1536.47	27.5
1537.52	29
1538.57	27
1539.62	26.5
1540.67	26.5
1541.72	26
1542.77	25.5
1543.83	26
1544.88	24
1545.93	26
1546.98	27.5
1548.03	23
1549.08	23
1550.13	28
1551.18	27
1552.23	27
1553.28	30.5
1554.32	27
1555.37	25
1556.42	27.5
1557.47	23
1558.52	28.5
1559.57	25.5
1560.62	28
1561.67	28.5
1562.71	27.5
1563.76	25.5
1564.81	27
1565.86	25
1566.9	25.5
1567.95	26.5
1569	27.5
1570.04	27.5
1571.09	27.5
1572.14	29.5
1573.18	28
1574.23	26
1575.27	22.5
1576.32	24
1577.37	26.5
1578.41	26.5
1579.46	24.5
1580.5	26
1581.55	26.5
1582.59	30
1583.64	23.5
1584.68	25.5
1585.72	25.5
1586.77	26
1587.81	26
1588.86	26.5
1589.9	24
1590.94	27
1591.99	24.5
1593.03	25.5
1594.07	23.5
1595.12	25
1596.16	23.5
1597.2	29.5
1598.24	21
1599.29	24
1600.33	27.5
1601.37	24.5
1602.41	24.5
1603.45	26.5
1604.49	26.5
1605.53	28
1606.58	26
1607.62	26
1608.66	23
1609.7	21
1610.74	24.5
1611.78	25
1612.82	27
1613.86	25
1614.9	24
1615.94	27
1616.98	25.5
1618.02	24.5
1619.06	27
1620.09	22.5
1621.13	26
1622.17	25.5
1623.21	27
1624.25	29
1625.29	23
1626.32	25.5
1627.36	24
1628.4	23
1629.44	24
1630.47	20.5
1631.51	30
1632.55	29
1633.58	24
1634.62	27.5
1635.66	25.5
1636.69	23.5
1637.73	25
1638.77	25.5
1639.8	25.5
1640.84	23.5
1641.87	25.5
1642.91	24.5
1643.94	26
1644.98	25.5
1646.01	25.5
1647.05	26
1648.08	23.5
1649.12	27
1650.15	27
1651.18	20
1652.22	27
1653.25	24
1654.29	24.5
1655.32	25
1656.35	25
1657.39	28
1658.42	21
1659.45	24
1660.48	27.5
1661.52	23.5
1662.55	23
1663.58	24
1664.61	25
1665.64	24.5
1666.68	27.5
1667.71	27.5
1668.74	27
1669.77	22
1670.8	27.5
1671.83	27.5
1672.86	23.5
1673.89	24
1674.92	23
1675.95	27.5
1676.98	23.5
1678.01	21.5
1679.04	23.5
1680.07	26.5
1681.1	26.5
1682.13	25
1683.16	24
1684.19	27
1685.22	25.5
1686.25	28.5
1687.27	26.5
1688.3	28.5
1689.33	25.5
1690.36	26.5
1691.38	25
1692.41	23.5
1693.44	28
1694.47	25
1695.49	25
1696.52	25
1697.55	25
1698.57	24.5
1699.6	26.5
1700.63	21
1701.65	23.5
1702.68	24
1703.7	26.5
1704.73	25
1705.76	27.5
1706.78	23.5
1707.81	26
1708.83	26.5
1709.86	28.5
1710.88	20
1711.91	28
1712.93	22.5
1713.95	30.5
1714.98	28
1716	24.5
1717.03	27
1718.05	27.5
1719.07	24.5
1720.1	23.5
1721.12	26
1722.14	23
1723.16	25
1724.19	28
1725.21	27.5
1726.23	29.5
1727.25	27
1728.28	27.5
1729.3	26
1730.32	23
1731.34	28
1732.36	24.5
1733.38	26.5
1734.41	28.5
1735.43	26.5
1736.45	25
1737.47	27.5
1738.49	26.5
1739.51	20.5
1740.53	23.5
1741.55	27
1742.57	25.5
1743.59	22.5
1744.61	23.5
1745.63	28.5
1746.64	23
1747.66	22
1748.68	24.5
1749.7	26.5
1750.72	27
1751.74	27
1752.76	27
1753.77	21.5
1754.79	29.5
1755.81	24.5
1756.83	25.5
1757.84	24
1758.86	27
1759.88	26.5
1760.9	25.5
1761.91	25
1762.93	27.5
1763.95	25.5
1764.96	26
1765.98	26.5
1766.99	24
1768.01	23.5
1769.02	26
1770.04	27
1771.06	29
1772.07	23.5
1773.09	27
1774.1	28
1775.12	26
1776.13	26.5
1777.14	25
1778.16	25
1779.17	28
1780.19	27.5
1781.2	26.5
1782.21	22.5
1783.23	26.5
1784.24	23
1785.25	24.5
1786.27	25
1787.28	23
1788.29	25.5
1789.3	25
1790.32	25.5
1791.33	22.5
1792.34	29
1793.35	26.5
1794.36	26.5
1795.38	25
1796.39	22
1797.4	27
1798.41	26
1799.42	25
1800.43	24
1801.44	24
1802.45	31
1803.46	27
1804.47	24
1805.48	24
1806.49	27
1807.5	25
1808.51	27
1809.52	27
1810.53	25.5
1811.54	29.5
1812.55	27.5
1813.56	24.5
1814.57	22
1815.57	26.5
1816.58	25.5
1817.59	26
1818.6	26
1819.61	26.5
1820.61	27.5
1821.62	25
1822.63	28
1823.64	22
1824.64	24
1825.65	25
1826.66	26.5
1827.66	24.5
1828.67	24
1829.68	26.5
1830.68	25.5
1831.69	27.5
1832.69	25
1833.7	23
1834.7	21
1835.71	24
1836.71	27
1837.72	26
1838.72	25
1839.73	27
1840.73	26.5
1841.74	27
1842.74	24.5
1843.75	29
1844.75	24
1845.75	24.5
1846.76	25
1847.76	25.5
1848.76	22
1849.77	26
1850.77	25.5
1851.77	22.5
1852.78	28
1853.78	23
1854.78	30.5
1855.78	25
1856.78	27
1857.79	25
1858.79	26
1859.79	26.5
1860.79	25.5
1861.79	26.5
1862.79	27
1863.79	26
1864.79	25.5
1865.79	25.5
1866.8	25.5
1867.8	27
1868.8	24
1869.8	27
1870.8	25
1871.8	21
1872.8	26
1873.79	22.5
1874.79	23
1875.79	22.5
1876.79	25.5
1877.79	23.5
1878.79	23
1879.79	27
1880.79	24
1881.78	25
1882.78	28
1883.78	26.5
1884.78	27
1885.77	29
1886.77	28
1887.77	26
1888.77	24
1889.76	26
1890.76	24
1891.76	24.5
1892.75	20.5
1893.75	27
1894.75	24.5
1895.74	26.5
1896.74	23
1897.73	25.5
1898.73	22
1899.73	25.5
1900.72	27.5
1901.72	24.5
1902.71	24
1903.7	24.5
1904.7	21.5
1905.69	24.5
1906.69	26.5
1907.68	27
1908.68	27
1909.67	22
1910.66	26
1911.66	24.5
1912.65	21.5
1913.64	25
1914.64	21.5
1915.63	26.5
1916.62	26.5
1917.62	23
1918.61	24
1919.6	24
1920.59	24.5
1921.58	27
1922.58	21
1923.57	24
1924.56	26.5
1925.55	23.5
1926.54	23
1927.53	25
1928.52	28.5
1929.51	25.5
1930.51	27.5
1931.5	21.5
1932.49	25
1933.48	25
1934.47	23
1935.46	27
1936.45	25
1937.44	24
1938.42	23.5
1939.41	26
1940.4	25.5
1941.39	24
1942.38	21.5
1943.37	26
1944.36	21
1945.35	23.5
1946.33	29.5
1947.32	26
1948.31	26
1949.3	26
1950.29	25
1951.27	25
1952.26	25
1953.25	21
1954.23	19.5
1955.22	23
1956.21	24
1957.19	24.5
1958.18	28
1959.17	21.5
1960.15	23.5
1961.14	26
1962.13	26
1963.11	25
1964.1	27.5
1965.08	24
1966.07	25.5
1967.05	23
1968.04	28
1969.02	23
1970.01	26.5
1970.99	25
1971.97	25.5
1972.96	23
1973.94	22
1974.93	22.5
1975.91	26.5
1976.89	23.5
1977.88	23
1978.86	24.5
1979.84	23
1980.83	24
1981.81	22
1982.79	25
1983.77	23
1984.76	21
1985.74	27.5
1986.72	21
1987.7	25
1988.68	26
1989.67	27.5
1990.65	23.5
1991.63	24
1992.61	25
1993.59	23
1994.57	21.5
1995.55	30.5
1996.53	26.5
1997.51	21
1998.49	26
1999.47	25
2000.45	25.5
2001.43	26.5
2002.41	22
2003.39	24.5
2004.37	23.5
2005.35	25
2006.33	24.5
2007.31	26.5
2008.29	23
2009.26	25.5
2010.24	26.5
2011.22	27
2012.2	25.5
2013.18	23.5
2014.15	24.5
2015.13	26.5
2016.11	27
2017.09	25.5
2018.06	28.5
2019.04	22
2020.02	27
2021	20
2021.97	28
2022.95	26.5
2023.92	26
2024.9	26
2025.88	21
2026.85	20.5
2027.83	24
2028.8	23
2029.78	24.5
2030.75	25
2031.73	28
2032.7	24
2033.68	24.5
2034.65	26
2035.63	27
2036.6	22
2037.58	26.5
2038.55	26.5
2039.52	21.5
2040.5	20
2041.47	25
2042.45	24
2043.42	23
2044.39	20
2045.36	23.5
2046.34	27
2047.31	23.5
2048.28	23
2049.26	23.5
2050.23	23.5
2051.2	26.5
2052.17	26.5
2053.14	21.5
2054.12	25
2055.09	23.5
2056.06	27.5
2057.03	23.5
2058	25
2058.97	23
2059.94	27
2060.91	24
2061.88	22
2062.85	22.5
2063.82	23.5
2064.79	21.5
2065.76	23.5
2066.73	25.5
2067.7	27
2068.67	23
2069.64	28
2070.61	25
2071.58	25
2072.55	25
2073.52	29
2074.49	24
2075.45	28
2076.42	24
2077.39	26.5
2078.36	22.5
2079.33	21
2080.29	24.5
2081.26	23.5
2082.23	24
2083.2	19.5
2084.16	22
2085.13	21.5
2086.1	22
2087.06	21
2088.03	25.5
2089	22
2089.96	24.5
2090.93	23.5
2091.89	20.5
2092.86	25.5
2093.83	24
2094.79	21
2095.76	25.5
2096.72	25
2097.69	24.5
2098.65	22
2099.62	23
2100.58	24
2101.55	22
2102.51	25.5
2103.47	23
2104.44	25.5
2105.4	25
2106.36	22
2107.33	24
2108.29	27
2109.25	25
2110.22	25.5
2111.18	23
2112.14	23
2113.11	26
2114.07	21
2115.03	25
2115.99	25.5
2116.96	23
2117.92	23.5
2118.88	25
2119.84	25
2120.8	21.5
2121.76	20.5
2122.72	23.5
2123.68	24.5
2124.65	22.5
2125.61	24
2126.57	25
2127.53	26
2128.49	22
2129.45	21.5
2130.41	28
2131.37	23
2132.33	22
2133.29	23
2134.25	24
2135.21	25
2136.17	25
2137.12	22
2138.08	23
2139.04	22.5
2140	19.5
2140.96	26
2141.92	24.5
2142.88	26.4945
2143.83	23.0009
2144.79	24.039
2145.75	23.1455
2146.71	22.5423
2147.66	22.0278
2148.62	19.267
2149.58	25.1997
2150.53	22.4695
2151.49	23.3806
2152.45	25.94
2153.4	23.9055
2154.36	20.2703
2155.32	21.3637
2156.27	20.3789
2157.23	20.8445
2158.19	21.6791
2159.14	19.9511
2160.1	20.8438
2161.05	23.3509
2162.01	23.5299
2162.96	22.5248
2163.92	28.1151
2164.87	22.3933
2165.83	25.0879
2166.78	23.1384
2167.73	23.4892
2168.69	22.7338
2169.64	23.4536
2170.6	22.8143
2171.55	24.3202
2172.5	22.202
2173.46	20.8872
2174.41	23.9597
2175.36	22.2989
2176.32	24.4624
2177.27	25.7889
2178.22	24.5146
2179.18	26.8862
2180.13	23.2153
2181.08	24.517
2182.03	24.2261
2182.98	22.856
2183.94	24.3354
2184.89	25.394
2185.84	20.8895
2186.79	22.5907
2187.74	21.6688
2188.69	24.1456
2189.64	21.5469
2190.6	24.6888
2191.55	22.75
2192.5	22.9836
2193.45	23.5425
2194.4	25.3022
2195.35	25.1122
2196.3	23.2218
2197.25	22.2127
2198.2	26.1222
2199.15	22.248
2200.1	25.7676
2201.04	21.3149
2201.99	20.2786
2202.94	22.1838
2203.89	22.8549
2204.84	23.5732
2205.79	22.3029
2206.74	24.826
2207.69	23.7241
2208.63	23.5121
2209.58	22.8828
2210.53	22.2597
2211.48	22.6566
2212.43	22.796
2213.37	25.1682
2214.32	20.4549
2215.27	21.7528
2216.21	24.5592
2217.16	26.135
2218.11	21.1512
2219.05	23.592
2220	22.9898
2220.95	21.907
2221.89	23.0633
2222.84	25.1942
2223.78	26.6277
2224.73	25.4617
2225.68	25.7727
2226.62	22.5611
2227.57	25.9465
2228.51	24.092
2229.46	22.4316
2230.4	23.0176
2231.35	21.8881
2232.29	23.2247
2233.24	23.4028
2234.18	20.9458
2235.12	19.6178
2236.07	21.4258
2237.01	22.068
2237.95	24.3054
2238.9	24.5627
2239.84	25.6432
2240.06	26
2241.01	19.5
2241.96	25.5
2242.91	19.5
2243.86	20
2244.8	22
2245.75	20
2246.7	28
2247.65	19.5
2248.59	24
2249.54	23
2250.49	22.5
2251.43	25.5
2252.38	23
2253.33	28.5
2254.27	22
2255.22	24
2256.16	24
2257.11	24
2258.06	26.5
2259	25.5
2259.95	27.5
2260.89	24
2261.84	22.5
2262.78	25
2263.73	25.5
2264.67	23
2265.62	26
2266.56	25
2267.5	20.5
2268.45	26
2269.39	25
2270.34	27
2271.28	26.5
2272.22	23.5
2273.17	22
2274.11	20
2275.05	26
2276	20
2276.94	23
2277.88	24.5
2278.82	20.5
2279.77	27
2280.71	21
2281.65	23.5
2282.59	24
2283.53	21.5
2284.48	26.5
2285.42	22.5
2286.36	19
2287.3	19.5
2288.24	24.5
2289.18	25
2290.12	22
2291.06	22.5
2292	24.5
2292.94	25.5
2293.89	24
2294.83	23.5
2295.77	25.5
2296.71	20
2297.65	20.5
2298.58	22.5
2299.52	22
2300.46	22
2301.4	22.5
2302.34	25.5
2303.28	22
2304.22	24
2305.16	22.5
2306.1	28.5
2307.03	25.5
2307.97	23
2308.91	23.5
2309.85	25.5
2310.79	24.5
2311.72	24.5
2312.66	21.5
2313.6	24
2314.54	22.5
2315.47	21
2316.41	24
2317.35	22.5
2318.28	22.5
2319.22	23
2320.16	22.5
2321.09	23
2322.03	25.5
2322.96	24
2323.9	25.5
2324.84	24.5
2325.77	25.5
2326.71	26
2327.64	25
2328.58	23.5
2329.51	23.5
2330.45	22
2331.38	25
2332.32	23
2333.25	21
2334.18	28.5
2335.12	26.5
2336.05	24
2336.99	25
2337.92	27
2338.85	21.5
2339.79	23
2340.72	22.5
2341.65	23
2342.59	25.5
2343.52	26.5
2344.45	26.5
2345.39	17
2346.32	23
2347.25	23
2348.18	22.5
2349.11	25
2350.05	24.5
2350.98	25
2351.91	21
2352.84	23
2353.77	29
2354.7	23
2355.64	21
2356.57	23
2357.5	27
2358.43	23.5
2359.36	25
2360.29	24
2361.22	25
2362.15	22
2363.08	24.5
2364.01	25
2364.94	20
2365.87	21.5
2366.8	25.5
2367.73	27
2368.66	22
2369.58	23
2370.51	21
2371.44	24
2372.37	25.5
2373.3	23.5
2374.23	26
2375.16	23.5
2376.08	25.5
2377.01	22.5
2377.94	23
2378.87	25.5
2379.8	26
2380.72	27
2381.65	26
2382.58	28
2383.5	21
2384.43	22.5
2385.36	26
2386.28	26
2387.21	20.5
2388.14	22.5
2389.06	21
2389.99	21
2390.91	24
2391.84	28
2392.77	22.5
2393.69	25
2394.62	24.5
2395.54	23
2396.47	23
2397.39	25.5
2398.32	24.5
2399.24	24
2400.16	21
2401.09	26.5
2402.01	26.5
2402.94	24
2403.86	24.5
2404.78	22.5
2405.71	25
2406.63	27
2407.56	25
2408.48	24
2409.4	26
2410.32	25
2411.25	25.5
2412.17	26.5
2413.09	25
2414.02	25
2414.94	27
2415.86	23
2416.78	22.5
2417.7	22.5
2418.63	25
2419.55	27
2420.47	24.5
2421.39	26
2422.31	20.5
2423.23	25
2424.15	25
2425.07	23
2425.99	27
2426.92	22.5
2427.84	20
2428.76	23.5
2429.68	25.5
2430.59	27
2431.51	23.5
2432.43	27.5
2433.35	26
2434.27	24
2435.19	26.5
2436.11	25
2437.03	29.5
2437.95	26
2438.87	28.5
2439.79	24
2440.71	26
2441.62	24.5
2442.54	24
2443.46	26.5
2444.38	21
2445.3	28
2446.21	27
2447.13	27.5
2448.05	24
2448.97	27.5
2449.88	22.5
2450.8	26
2451.72	23
2452.63	27
2453.55	23.5
2454.47	26.5
2455.38	22
2456.3	23
2457.21	21.5
2458.13	24
2459.05	21.5
2459.96	25.5
2460.88	26
2461.79	25.5
2462.71	23.5
2463.62	22
2464.54	24
2465.45	25.5
2466.37	25
2467.28	24
2468.2	28
2469.11	23
2470.02	24.5
2470.94	23.5
2471.85	25.5
2472.77	25
2473.68	22
2474.59	23.5
2475.51	26.5
2476.42	25.5
2477.33	25
2478.25	27
2479.16	26.5
2480.07	26
2480.98	27
2481.9	23
2482.81	25
2483.72	25
2484.63	22
2485.55	28.5
2486.46	24.5
2487.37	23.5
2488.28	22.5
2489.19	23.5
2490.1	22
2491.01	21
2491.92	26.5
2492.83	26
2493.74	23.5
2494.66	23
2495.57	24.5
2496.48	29
2497.39	23.5
2498.3	30
2499.21	24
2500.12	30
2501.03	27.5
2501.93	23.5
2502.84	24
2503.75	24.5
2504.66	25
2505.57	23.5
2506.48	26.5
2507.39	21.5
2508.3	25.5
2509.21	24.5
2510.11	24.5
2511.02	27
2511.93	23
2512.84	28
2513.75	27.5
2514.65	21
2515.56	22
2516.47	27
2517.37	28.5
2518.28	25.5
2519.19	25.5
2520.09	23.5
2521	28.5
2521.91	24
2522.81	23
2523.72	23.5
2524.63	24
2525.53	22
2526.44	22.5
2527.34	25
2528.25	27.5
2529.16	26.5
2530.06	25
2530.97	26
2531.87	26.5
2532.78	32
2533.68	27
2534.58	24.5
2535.49	23
2536.39	27
2537.3	27.5
2538.2	27.5
2539.11	26
2540.01	22.5
2540.91	22.5
2541.82	24
2542.72	23.5
2543.62	21
2544.53	26.5
2545.43	23.5
2546.33	24
2547.23	22
2548.14	24.5
2549.04	26
2549.94	26
2550.84	25.5
2551.75	22
2552.65	28.5
2553.55	25.5
2554.45	27.5
2555.35	22
2556.26	24
2557.16	27
2558.06	26
2558.96	25
2559.86	24
2560.76	28.5
2561.66	28
2562.56	26
2563.46	20
2564.36	27
2565.26	25.5
2566.16	23.5
2567.06	27
2567.96	25
2568.86	25.5
2569.76	22
2570.66	23.5
2571.56	23
2572.46	27
2573.36	25
2574.26	27.5
2575.16	26
2576.05	29
2576.95	24.5
2577.85	24
2578.75	25
2579.65	24.5
2580.54	25.5
2581.44	24.5
2582.34	25.5
2583.24	24
2584.13	24
2585.03	27
2585.93	20.5
2586.83	26.5
2587.72	23.5
2588.62	24
2589.52	26.5
2590.41	22
2591.31	25.5
2592.2	25.5
2593.1	25.5
2594	24.5
2594.89	23
2595.79	25
2596.68	25
2597.58	24
2598.47	27
2599.37	28.5
2600.26	25
2601.16	25.5
2602.05	26
2602.95	23.5
2603.84	24
2604.74	27.5
2605.63	27.5
2606.52	20
2607.42	24.5
2608.31	24.5
2609.21	27
2610.1	20.5
2610.99	25.5
2611.89	29
2612.78	24.5
2613.67	21
2614.56	24.5
2615.46	23
2616.35	24
2617.24	26.5
2618.13	24.5
2619.03	23
2619.92	26
2620.81	24.5
2621.7	26.5
2622.59	23.5
2623.49	25
2624.38	24.5
2625.27	22
2626.16	25
2627.05	26
2627.94	25
2628.83	28
2629.72	26.5
2630.61	28
2631.5	30
2632.39	28
2633.28	23
2634.17	25.5
2635.06	24.5
2635.95	25.5
2636.84	27.5
2637.73	24
2638.62	22.5
2639.51	23.5
2640.4	27
2641.29	26.5
2642.18	23
2643.07	21
2643.96	26
2644.84	26.5
2645.73	25.5
2646.62	27
2647.51	25
2648.4	23
2649.28	24
2650.17	25.5
2651.06	26
2651.95	20.5
2652.83	25
2653.72	26
2654.61	26.5
2655.49	25
2656.38	28.5
2657.27	25
2658.16	27
2659.04	22
2659.93	23
2660.81	23.5
2661.7	27
2662.59	22
2663.47	22
2664.36	26
2665.24	26.5
2666.13	23
2667.01	28
2667.9	24
2668.78	21
2669.67	24.5
2670.55	29
2671.44	26
2672.32	27.5
2673.21	27
2674.09	24.5
2674.97	27
2675.86	27
2676.74	28
2677.62	24.5
2678.51	25
2679.39	29
2680.27	25
2681.16	29
2682.04	28.5
2682.92	28.5
2683.81	29.5
2684.69	25.5
2685.57	23
2686.45	28
2687.34	27.5
2688.22	24
2689.1	24.5
2689.98	21.5
2690.86	25
2691.75	24.5
2692.63	25.5
2693.51	27.5
2694.39	22
2695.27	21.5
2696.15	26
2697.03	25.5
2697.91	26
2698.79	25.5
2699.67	24.5
2700.55	21
2701.43	25
2702.31	23.5
2703.19	24.5
2704.07	24
2704.95	25.5
2705.83	28
2706.71	28.5
2707.59	25
2708.47	23.5
2709.35	26.5
2710.23	26
2711.11	21.5
2711.99	22.5
2712.86	23.5
2713.74	22.5
2714.62	22.5
2715.5	21
2716.38	26
2717.26	21
2718.13	26.5
2719.01	27
2719.89	27
2720.77	26
2721.64	23.5
2722.52	25
2723.4	23.5
2724.27	24
2725.15	26.5
2726.03	23.5
2726.9	26
2727.78	23.5
2728.66	21.5
2729.53	24.5
2730.41	25
2731.28	24.5
2732.16	21
2733.03	27
2733.91	26.5
2734.79	22.5
2735.66	26
2736.54	26.5
2737.41	23.5
2738.29	19.5
2739.16	22
2740.03	22.5
2740.91	28
2741.78	23
2742.66	21.5
2743.53	28.5
2744.41	27
2745.28	26
2746.15	23
2747.03	25
2747.9	24
2748.77	25
2749.65	23.5
2750.52	28
2751.39	25.5
2752.27	28
2753.14	29.5
2754.01	25
2754.88	22.5
2755.75	23.5
2756.63	25
2757.5	28
2758.37	25.5
2759.24	22.5
2760.11	27
2760.99	24.5
2761.86	26
2762.73	27
2763.6	27.5
2764.47	24
2765.34	24
2766.21	23.5
2767.08	25
2767.95	27.5
2768.82	28.5
2769.69	26.5
2770.56	23.5
2771.43	23
2772.3	25
2773.17	24
2774.04	24.5
2774.91	22.5
2775.78	23.5
2776.65	26.5
2777.52	27
2778.39	22.5
2779.26	26
2780.13	27
2780.99	27.5
2781.86	27
2782.73	22.5
2783.6	25
2784.47	26.5
2785.34	29
2786.2	27.5
2787.07	26
2787.94	20
2788.81	30
2789.67	27
2790.54	25
2791.41	26.5
2792.27	27
2793.14	26.5
2794.01	26.5
2794.87	28
2795.74	24.5
2796.61	24
2797.47	28
2798.34	26
2799.21	27
2800.07	28
2800.94	26.25
2801.8	24.5
2802.67	25.5
2803.53	25
2804.4	27
2805.26	27
2806.13	27.5
2806.99	25
2807.86	24.5
2808.72	27.5
2809.59	29
2810.45	31
2811.32	23.5
2812.18	27
2813.04	25
2813.91	23
2814.77	22.5
2815.64	25.5
2816.5	25.5
2817.36	25
2818.22	23
2819.09	26
2819.95	23
2820.81	29
2821.68	26
2822.54	28.5
2823.4	23
2824.26	21
2825.13	26
2825.99	23.5
2826.85	29
2827.71	27
2828.57	24
2829.44	26
2830.3	27
2831.16	28.5
2832.02	26.5
2832.88	28
2833.74	27
2834.6	23
2835.46	24
2836.32	27
2837.18	27.5
2838.04	23.5
2838.9	26
2839.76	28
2840.62	25
2841.48	25
2842.34	27.5
2843.2	22
2844.06	29.5
2844.92	25.5
2845.78	24
2846.64	22.5
2847.5	23
2848.36	23
2849.22	25.5
2850.08	24
2850.93	29.5
2851.79	25.5
2852.65	26
2853.51	23
2854.37	26
2855.22	23
2856.08	28
2856.94	27.5
2857.8	24
2858.65	27.5
2859.51	30.5
2860.37	26.5
2861.23	27
2862.08	26
2862.94	24
2863.79	25.5
2864.65	31.5
2865.51	28
2866.36	24
2867.22	28
2868.08	29.5
2868.93	24
2869.79	28
2870.64	26
2871.5	27
2872.35	30
2873.21	26
2874.06	29.5
2874.92	31.5
2875.77	28.5
2876.63	30.5
2877.48	26.5
2878.34	32
2879.19	30
2880.05	29
2880.9	31
2881.76	32.5
2882.61	34
2883.46	34
2884.32	33
2885.17	34.5
2886.02	37
2886.88	34.5
2887.73	36
2888.58	35
2889.44	35.5
2890.29	36
2891.14	36.5
2891.99	42.5
2892.85	41.5
2893.7	36
2894.55	47.5
2895.4	46
2896.25	43
2897.11	51
2897.96	48.5
2898.81	49
2899.66	57
2900.51	59
2901.36	56
2902.21	61.5
2903.07	61
2903.92	68.5
2904.77	59.5
2905.62	67.5
2906.47	64
2907.32	61.5
2908.17	58.5
2909.02	57
2909.87	59.5
2910.72	54.5
2911.57	60.5
2912.42	54.5
2913.27	45
2914.12	47.5
2914.97	46.5
2915.81	44.5
2916.66	41
2917.51	39
2918.36	35
2919.21	34
2920.06	31
2920.91	37.5
2921.75	31.5
2922.6	35
2923.45	31.5
2924.3	30.5
2925.15	29.5
2925.99	30
2926.84	30
2927.69	30
2928.54	27
2929.38	29
2930.23	30
2931.08	28
2931.92	29.5
2932.77	27.5
2933.62	29.5
2934.46	30
2935.31	29
2936.16	26.5
2937	30
2937.85	24.5
2938.69	24.5
2939.54	27.5
2940.38	26.5
2941.23	23.5
2942.08	31
2942.92	30
2943.77	31.5
2944.61	28
2945.46	27
2946.3	25
2947.15	24
2947.99	32
2948.83	31.5
2949.68	31.5
2950.52	32.5
2951.37	30
2952.21	34.5
2953.05	28
2953.9	32
2954.74	30.5
2955.58	30.5
2956.43	32.5
2957.27	34.5
2958.11	33.5
2958.96	34
2959.8	39.5
2960.64	41.5
2961.48	43
2962.33	39.5
2963.17	41
2964.01	45.5
2964.85	41
2965.69	38
2966.54	46.5
2967.38	43.5
2968.22	47
2969.06	41.5
2969.9	38.5
2970.74	41.5
2971.58	34.5
2972.43	37.3754
2973.27	41.3299
2974.11	35.966
2974.95	32.9483
2975.79	33.4174
2976.63	28.2241
2977.47	32.1342
2978.31	34.9453
2979.15	30.9027
2979.99	26.1606
2980.83	29.1862
2981.67	26.992
2982.51	29.0417
2983.35	27.7588
2984.19	28.0818
2985.03	27.0992
2985.86	24.4789
2986.7	26.9638
2987.54	25.2972
2988.38	27.2581
2989.22	27.5182
2990.06	27.1926
2990.9	27.1413
2991.73	27.8066
2992.57	25.574
2993.41	24.6442
2994.25	23.9438
2995.09	27.0736
2995.92	27.7932
2996.76	26.9365
2997.6	25.8218
2998.44	23.2251
2999.27	23.1545
3000.11	25.8717
3000.95	25.1673
3001.78	24.5932
3002.62	26.7597
3003.46	24.4391
3004.29	23.6842
3005.13	22.0376
3005.96	22.9067
3006.8	26.6914
3007.64	24.7975
3008.47	21.238
3009.31	25.8536
3010.14	26.8368
3010.98	27.9591
3011.81	22.5579
3012.65	24.3423
3013.48	24.2651
3014.32	21.7583
3015.15	21.8048
3015.99	24.9457
3016.82	24.7998
3017.66	25.1565
3018.49	23.5982
3019.33	23.6495
3020.16	25.8482
3020.99	22.9332
3021.83	23.5577
3022.66	23.8094
3023.5	24.9715
3024.33	24.2065
3025.16	23.8042
3026	24.7862
3026.83	22.6459
3027.66	23.3934
3028.49	23.6029
3029.33	21.2948
3030.16	21.8893
3030.99	21.0037
3031.83	24.4489
3032.66	24.6948
3033.49	23.2242
3034.32	23.2805
3035.15	25.5761
3035.99	25.5671
3036.82	22.979
3037.65	22.8936
3038.48	23.7234
3039.31	22.4235
3040.14	23.0043
3040.97	22.992
3041.81	23.7411
3042.64	23.3396
3043.47	22.5102
3044.3	22.7146
3045.13	23.1958
3045.96	22.1039
3046.79	22.9438
3047.62	24.4641
3048.45	24.5292
3049.28	25.5297
3050.11	24.7786
3050.94	24.5586
3051.77	23.2476
3052.6	22.6967
3053.43	22.0151
3054.26	24.0498
3055.08	23.8407
3055.91	22.2736
3056.74	22.7395
3057.26	21.5
3058.09	25
3058.92	22.5
3059.76	22.5
3060.59	20.5
3061.42	23
3062.25	24.5
3063.09	23
3063.92	25
3064.75	22.5
3065.58	22
3066.42	25
3067.25	26
3068.08	24
3068.91	24
3069.74	27
3070.57	20.5
3071.41	24.5
3072.24	23.5
3073.07	24
3073.9	26.5
3074.73	21.5
3075.56	25.5
3076.39	27.5
3077.22	26.5
3078.05	23.5
3078.88	24.5
3079.71	23
3080.54	22
3081.37	22.5
3082.2	26
3083.03	25.5
3083.86	27
3084.69	25
3085.52	22.5
3086.35	25
3087.18	26
3088.01	23.5
3088.84	25
3089.67	19.5
3090.5	24.5
3091.32	17.5
3092.15	20.5
3092.98	25
3093.81	23.5
3094.64	24
3095.47	24
3096.29	24.5
3097.12	22
3097.95	21
3098.78	24
3099.6	24
3100.43	22.5
3101.26	21
3102.09	23.5
3102.91	28
3103.74	22.5
3104.57	24.5
3105.39	24
3106.22	25
3107.05	26
3107.87	24
3108.7	24.5
3109.52	24.5
3110.35	23.5
3111.18	26
3112	23
3112.83	26
3113.65	29
3114.48	22
3115.3	25
3116.13	23
3116.95	27
3117.78	20.5
3118.6	23.5
3119.43	23
3120.25	21.5
3121.08	23
3121.9	22
3122.72	27
3123.55	25
3124.37	24.5
3125.2	25
3126.02	26.5
3126.84	27
3127.67	26
3128.49	24.5
3129.31	22.5
3130.14	28
3130.96	24
3131.78	23.5
3132.61	25.5
3133.43	23
3134.25	27
3135.07	23.5
3135.89	23.5
3136.72	26
3137.54	23
3138.36	21.5
3139.18	24.5
3140	27
3140.83	24
3141.65	24.5
3142.47	26
3143.29	23.5
3144.11	22.5
3144.93	23
3145.75	21
3146.57	26.5
3147.4	22
3148.22	27
3149.04	25.5
3149.86	23
3150.68	23
3151.5	24.5
3152.32	24
3153.14	25
3153.96	26
3154.78	24.5
3155.59	24
3156.42	24
3157.23	22.5
3158.05	21.5
3158.87	24.5
3159.69	22.5
3160.51	27
3161.33	24
3162.15	26
3162.97	24.5
3163.78	26.5
3164.6	23
3165.42	24
3166.24	19.5
3167.06	25
3167.87	23
3168.69	21
3169.51	22.5
3170.33	22.5
3171.14	23
3171.96	22
3172.78	24.5
3173.6	18
3174.41	22
3175.23	23.5
3176.05	27
3176.86	24
3177.68	25
3178.5	24
3179.31	24.5
3180.13	23.5
3180.94	19
3181.76	21
3182.58	27
3183.39	23
3184.21	23
3185.02	30.5
3185.84	22
3186.65	23
3187.47	25.5
3188.28	25
3189.1	23
3189.91	24
3190.73	23
3191.54	23.5
3192.36	25.5
3193.17	25.5
3193.98	24
3194.8	23
3195.61	28
3196.43	21
3197.24	26
3198.05	24
3198.87	24.5
3199.68	26
3200.49	25
3201.31	26.5
3202.12	27
3202.93	25.5
3203.75	24.5
3204.56	25.5
3205.37	23
3206.18	25.5
3207	22
3207.81	25
3208.62	21
3209.43	25.5
3210.24	24.5
3211.06	24
3211.87	26.5
3212.68	23
3213.49	24
3214.3	26.5
3215.11	26
3215.92	27.5
3216.73	23.5
3217.55	23
3218.36	24
3219.17	24.5
3219.98	25
3220.79	24
3221.6	23
3222.41	25
3223.22	26
3224.03	21
3224.84	23
3225.65	26.5
3226.46	23.5
3227.27	22
3228.08	24.5
3228.89	25
3229.7	28.5
3230.5	21
3231.31	24.5
3232.12	26
3232.93	24
3233.74	26.5
3234.55	22
3235.36	26
3236.16	24
3236.97	24
3237.78	23
3238.59	25
3239.4	21
3240.2	22
3241.01	23.5
3241.82	23
3242.63	22
3243.43	27
3244.24	23.5
3245.05	24
3245.85	23.5
3246.66	24.5
3247.47	25
3248.27	21
3249.08	23.5
3249.89	25.5
3250.69	29
3251.5	21
3252.31	27
3253.11	29.5
3253.92	24
3254.72	26
3255.53	23
3256.33	25
3257.14	25
3257.94	26
3258.75	23.5
3259.55	26
3260.36	20
3261.16	25.5
3261.97	23.5
3262.77	27
3263.58	26.5
3264.38	26
3265.19	29
3265.99	24
3266.79	25
3267.6	25
3268.4	21
3269.21	23.5
3270.01	24.5
3270.81	26.5
3271.62	23.5
3272.42	24.5
3273.22	21
3274.03	24
3274.83	22
3275.63	23.5
3276.43	27
3277.24	26.5
3278.04	24.5
3278.84	21.5
3279.64	26.5
3280.45	24
3281.25	23
3282.05	25
3282.85	21
3283.65	26
3284.45	22.5
3285.26	21
3286.06	23.5
3286.86	24
3287.66	25
3288.46	24
3289.26	28
3290.06	20.5
3290.86	24
3291.66	24
3292.46	25
3293.26	25
3294.06	24.5
3294.86	22.5
3295.66	23.5
3296.46	24
3297.26	23.5
3298.06	21.5
3298.86	22
3299.66	20.5
3300.46	27.5
3301.26	25
3302.06	22
3302.86	22
3303.66	26
3304.46	21.5
3305.25	23.5
3306.05	26.5
3306.85	28
3307.65	25.5
3308.45	25
3309.25	25
3310.04	23
3310.84	23.5
3311.64	23
3312.44	27.5
3313.23	25.5
3314.03	24
3314.83	23
3315.63	25
3316.42	23.5
3317.22	24
3318.02	22.5
3318.81	27.5
3319.61	23
3320.41	22
3321.2	24.5
3322	21.5
3322.8	26
3323.59	24
3324.39	26
3325.18	25
3325.98	25.5
3326.78	26.5
3327.57	22.5
3328.37	22
3329.16	24
3329.96	25.5
3330.75	20
3331.55	28.5
3332.34	26
3333.14	25.5
3333.93	25.5
3334.73	22
3335.52	21
3336.31	24.5
3337.11	22
3337.9	27.5
3338.7	27.5
3339.49	26.5
3340.28	28
3341.08	25.5
3341.87	27
3342.66	24.5
3343.46	25.5
3344.25	22
3345.04	27.5
3345.84	22.5
3346.63	24
3347.42	25
3348.22	20
3349.01	23.5
3349.8	23
3350.59	26
3351.39	23
3352.18	22
3352.97	21
3353.76	25.5
3354.55	25
3355.35	26.5
3356.14	24.5
3356.93	27
3357.72	29
3358.51	23
3359.3	22
3360.09	28.5
3360.88	22.5
3361.67	24.5
3362.46	27
3363.26	23
3364.05	26
3364.84	23
3365.63	28.5
3366.42	27
3367.21	23
3368	24
3368.79	26.5
3369.58	21.5
3370.37	22.5
3371.15	26.5
3371.94	21
3372.73	24
3373.52	23
3374.31	21.5
3375.1	21.5
3375.89	25
3376.68	23
3377.47	26.5
3378.26	27
3379.04	25.5
3379.83	28.5
3380.62	28
3381.41	25.5
3382.2	24
3382.98	22
3383.77	26
3384.56	25.5
3385.35	27
3386.13	28
3386.92	24.5
3387.71	23.5
3388.5	27
3389.28	24
3390.07	25.5
3390.86	21
3391.64	25.5
3392.43	25
3393.22	22.5
3394	26.5
3394.79	25.5
3395.57	22.5
3396.36	23.5
3397.15	26.5
3397.93	23
3398.72	22
3399.5	26
3400.29	24.5
3401.07	21.5
3401.86	23.5
3402.65	21.5
3403.43	29
3404.21	25
3405	24.5
3405.78	24
3406.57	27
3407.35	23.5
3408.14	24
3408.92	27.5
3409.71	25.5
3410.49	25.5
3411.27	25
3412.06	22
3412.84	26
3413.62	22
3414.41	23
3415.19	27
3415.97	25
3416.76	26
3417.54	26
3418.32	26.5
3419.11	27.5
3419.89	25
3420.67	24.5
3421.46	23.5
3422.24	23
3423.02	23
3423.8	23
3424.58	25
3425.37	25
3426.15	21
3426.93	20
3427.71	23.5
3428.49	23
3429.27	23.5
3430.05	22
3430.84	26
3431.62	28.5
3432.4	27
3433.18	25.5
3433.96	24.5
3434.74	26
3435.52	26
3436.3	24.5
3437.08	21
3437.86	27.5
3438.64	25.5
3439.42	25.5
3440.2	23
3440.98	21
3441.76	23
3442.54	22
3443.32	24.5
3444.1	24
3444.88	23
3445.66	19
3446.44	26
3447.22	25.5
3448	21.5
3448.77	26.5
3449.55	25
3450.33	23
3451.11	25
3451.89	26.5
3452.67	23.5
3453.45	27.5
3454.22	25.5
3455	19
3455.78	25
3456.56	25
3457.33	20.5
3458.11	25
3458.89	21
3459.67	26.5
3460.44	25
3461.22	22.5
3462	27
3462.77	27.5
3463.55	27
3464.33	26
3465.1	27.5
3465.88	21.5
3466.66	25.5
3467.43	26.5
3468.21	22
3468.98	23
3469.76	25
3470.54	19
3471.31	22
3472.09	27
3472.86	24
3473.64	26
3474.41	25
3475.19	22
3475.96	19.5
3476.74	22.5
3477.51	26
3478.29	24.5
3479.06	28.5
3479.84	28.5
3480.61	24.5
3481.39	28
3482.16	23.5
3482.93	26
3483.71	27
3484.48	25.5
3485.25	27
3486.03	25
3486.8	23.5
3487.57	20
3488.35	25.5
3489.12	25.5
3489.89	24
3490.67	27.5
3491.44	24.5
3492.21	23.5
3492.99	26
3493.76	23
3494.53	24.5
3495.3	29
3496.08	25
3496.85	25
3497.62	23.5
3498.39	25
3499.16	21
3499.93	26
