#Acq. time (s)=	5
#Accumulations=	5
#Range (cm-¹)=	100...3500
#Windows=	4
#Autofocus=	Off
#AutoExposure=	Off
#Spike filter=	Multiple accum.
#Delay time (s)=	0
#Binning=	1
#Readout mode=	Signal
#DeNoise=	Off
#ICS correction=	Off
#Dark correction=	Off
#Inst. Process=	Off
#Instrument=	LabRAM HR Evol
#Detector=	Syncerity OE
#Objective=	x100_VIS
#Grating=	600 (500nm)
#ND Filter=	25%
#Laser=	633nm_Edge
#Hole=	100.021
#Range=	Visible
#Project=	verificaciones
#Sample=	at5
#Site=	plain
#Title=	bolusat5plain
#Remark=	
#Date=	13.01.2026 17:03
#Acquired=	13.01.2026 17:03:52
100.692	21
101.975	27
103.258	33
104.542	29
105.824	28.5
107.107	28.5
108.39	26
109.672	26
110.954	25.5
112.236	25.5
113.519	22.5
114.8	26
116.081	27
117.362	25
118.643	26.5
119.924	24
121.204	25
122.484	24.5
123.764	28
125.044	25
126.323	24
127.603	28
128.882	25.5
130.161	27.5
131.438	28.5
132.716	24.5
133.995	25.5
135.273	24
136.55	24.5
137.828	27
139.106	27
140.383	23.5
141.66	23.5
142.937	29
144.213	26.5
145.488	27
146.764	23
148.04	30
149.316	28.5
150.592	24
151.867	25
153.141	29
154.416	24
155.69	28.5
156.965	24.5
158.239	25.5
159.512	28
160.786	23.5
162.059	22.5
163.333	28
164.605	24
165.878	24.5
167.15	28.5
168.423	26
169.694	24.5
170.966	23.5
172.238	24
173.51	26
174.78	24
176.052	30
177.323	22.5
178.592	27
179.863	24.5
181.134	26.5
182.403	24.5
183.673	27.5
184.943	29.5
186.211	24
187.481	27
188.749	28.5
190.018	25
191.287	25.5
192.554	22
193.822	26
195.089	28.5
196.357	25
197.625	26.5
198.891	26
200.159	25.5
201.425	25
202.692	24
203.957	26
205.224	24
206.489	25.5
207.755	28
209.02	24
210.286	28.5
211.55	26
212.815	25.5
214.079	28.5
215.344	26
216.607	25
217.872	28.5
219.135	26.5
220.399	26.5
221.662	27.5
222.924	28
224.187	24.5
225.449	24
226.713	27
227.974	26.5
229.235	25
230.498	26
231.759	27
233.019	24.5
234.281	24.5
235.542	27
236.802	28
238.063	25
239.323	23
240.582	26.5
241.843	25
243.102	22
244.361	28
245.621	25.5
246.879	25
248.138	25.5
249.396	25
250.655	21
251.913	25
253.17	27
254.427	30
255.686	27
256.943	25
258.199	25
259.456	26.5
260.712	25
261.969	24.5
263.225	26.5
264.481	26
265.736	26.5
266.991	28
268.246	22
269.502	26.5
270.757	29
272.011	27
273.265	25.5
274.519	25
275.773	25
277.027	24
278.28	26
279.533	26.5
280.786	25
282.04	25.5
283.293	25.5
284.545	28.5
285.798	25
287.049	25.5
288.301	21
289.553	25.5
290.804	25
292.055	24.5
293.306	23.5
294.557	25.5
295.807	26.5
297.058	21
298.308	24.5
299.558	25
300.808	27.5
302.057	25.5
303.305	30
304.554	21
305.803	24
307.052	25
308.3	24
309.549	23.5
310.797	26
312.045	25.5
313.292	27.5
314.54	26
315.786	25
317.033	24.5
318.28	27
319.526	24.5
320.773	27.5
322.019	27.5
323.264	27.5
324.51	27
325.755	28.5
327.001	23
328.246	24.5
329.49	27
330.735	25.5
331.979	25
333.224	25
334.467	23.5
335.711	26.5
336.955	24.5
338.199	24
339.441	27.5
340.684	24.5
341.927	23.5
343.168	29
344.411	24.5
345.654	24
346.895	27
348.137	25
349.379	28
350.619	28
351.86	23
353.102	27
354.341	28.5
355.582	23.5
356.821	26.5
358.062	24.5
359.302	24.5
360.541	27.5
361.781	25.5
363.019	28
364.259	25
365.496	28
366.736	24.5
367.974	25
369.212	28
370.45	26
371.687	28.5
372.925	25.5
374.162	25.5
375.399	27.5
376.635	22
377.873	24.5
379.109	23
380.344	27
381.581	27
382.816	27
384.052	26.5
385.287	26
386.523	24
387.757	24.5
388.991	28
390.227	27.5
391.46	23
392.695	29
393.928	23
395.162	26.5
396.396	28.5
397.629	26.5
398.861	27
400.095	25.5
401.327	28.5
402.559	25.5
403.792	26.5
405.024	26.5
406.255	29
407.488	22
408.719	25
409.949	27
411.18	28
412.412	25.5
413.642	25
414.872	25
416.102	27.5
417.333	26.5
418.562	26
419.791	23.5
421.02	25.5
422.249	29
423.479	26.5
424.707	27
425.935	28
427.163	24
428.391	27
429.619	27.5
430.848	26
432.075	25.5
433.302	23.5
434.529	22.5
435.755	23
436.982	26
438.208	28
439.434	28
440.66	28
441.885	26.5
443.111	23.5
444.338	23.5
445.563	25
446.788	26
448.012	25.5
449.237	25.5
450.461	26.5
451.685	29
452.909	23
454.133	28
455.356	24.5
456.579	25.5
457.802	27
459.025	26.5
460.247	25.5
461.469	27
462.691	25
463.914	26
465.136	25
466.357	25.5
467.579	26
468.8	29
470.021	22.5
471.242	23.5
472.462	28
473.682	27
474.903	27.5
476.123	23
477.343	25.5
478.563	29.5
479.782	25.5
481	26.5
482.219	27
483.438	28
484.657	30
485.874	27.5
487.093	28
488.311	26
489.529	29
490.747	26
491.963	27
493.181	27
494.398	26
495.614	30
496.83	25
498.047	27
499.264	27.5
500.479	27
501.695	25.5
502.911	27.5
504.125	29
505.34	29.5
506.554	27
507.769	26.5
508.984	26
510.198	29.5
511.412	26
512.627	25
513.839	25.5
515.053	29.5
516.266	23
517.479	25
518.691	27
519.905	21.5
521.118	25.5
522.329	27
523.542	26.5
524.753	31
525.965	29
527.176	25
528.388	27
529.598	28
530.809	26.5
532.019	28.5
533.23	29.5
534.44	27
535.649	24.5
536.86	19
538.068	26.5
539.279	27.5
540.487	28
541.697	22
542.905	25
544.113	25.5
545.322	27.5
546.53	23
547.737	25.5
548.946	23
550.153	25.5
551.361	28
552.568	23.5
553.774	25.5
554.982	26
556.188	28.5
557.394	29.5
558.599	24
559.806	23
561.012	30
562.217	25.5
563.423	25.5
564.628	24
565.832	26
567.036	28.5
568.241	25.5
569.446	22
570.65	26
571.853	24.5
573.057	26
574.26	24
575.464	28.5
576.667	22.5
577.87	26
579.072	28.5
580.274	29
581.477	28
582.68	25
583.881	27
585.083	30
586.284	22
587.485	26.5
588.686	22
589.887	33.5
591.087	26.5
592.288	22
593.488	30.5
594.688	25
595.888	28
597.087	25
598.287	27.5
599.486	27.5
600.685	26
601.884	24
603.082	23
604.281	27
605.479	25.5
606.677	26.5
607.875	26
609.073	25
610.27	28
611.468	19.5
612.665	30
613.862	28
615.058	27
616.255	28
617.451	28.5
618.648	29
619.842	28.5
621.038	24
622.234	26
623.429	28.5
624.624	27
625.819	27
627.013	27
628.207	29
629.402	27
630.596	30
631.79	25.5
632.983	27
634.177	26
635.37	28
636.564	26.5
637.755	27.5
638.948	28
640.141	23.5
641.334	28
642.525	26
643.717	26
644.909	26
646.099	23.5
647.291	22.5
648.483	27.5
649.674	26
650.864	26.5
652.055	26.5
653.244	23
654.435	30
655.625	22
656.814	24
658.004	26
659.193	28.5
660.382	27
661.571	28
662.759	23
663.948	24
665.135	25
666.324	30
667.511	25
668.7	26.5
669.886	26
671.074	32
672.262	24.5
673.448	22.5
674.634	24
675.821	26
677.007	24
678.194	23.5
679.379	26
680.565	25.5
681.75	28
682.936	25
684.121	26.5
685.305	26.5
686.491	25
687.675	26
688.86	25
690.043	27
691.227	28
692.411	27
693.594	28
694.777	26
695.961	28.5
697.144	26.5
698.326	28.5
699.509	25.5
700.691	27.5
701.873	26.5
703.056	27
704.237	24
705.419	26
706.599	33.5
707.782	25.5
708.962	31.5
710.143	28
711.323	29.5
712.504	29.5
713.684	26.5
714.864	26
716.043	29.5
717.223	27.5
718.403	29.5
719.582	25
720.761	25.5
721.94	24.5
723.118	29
724.296	28
725.474	27.5
726.652	27
727.831	25.5
729.009	22
730.186	26
731.363	19.5
732.54	28
733.717	27
734.893	28.5
736.07	23
737.246	26.5
738.422	26
739.598	28
740.773	26
741.949	23
743.124	26
744.299	26
745.474	28.5
746.649	23.5
747.823	29
748.997	24.5
750.172	27
751.346	26.5
752.519	24.5
753.693	25
754.867	25
756.038	28
757.211	26.5
758.384	25.5
759.557	24
760.73	26.5
761.902	21
763.074	28
764.246	24
765.417	23.5
766.588	22
767.76	26.5
768.931	27
770.102	27.5
771.271	26
772.442	24.5
773.613	27
774.783	27
775.952	29
777.122	23.5
778.291	23.5
779.461	23.5
780.629	28
781.798	29
782.967	30
784.135	27.5
785.304	26.5
786.472	22
787.639	25.5
788.807	25.5
789.975	26.5
791.142	25.5
792.309	22
793.477	22.5
794.642	28
795.81	27.5
796.975	24
798.142	24
799.308	26
800.473	25.5
801.639	30
802.804	28
803.97	26
805.134	27
806.299	25.5
807.463	24
808.628	23.5
809.792	27.5
810.957	25
812.12	25
813.284	28
814.447	31
815.611	31.5
816.773	25.5
817.937	26
819.099	25.5
820.261	23
821.424	26
822.585	27
823.748	27.5
824.909	23.5
826.07	27
827.232	29
828.393	29.5
829.554	28.5
830.715	23.5
831.875	23.5
833.035	25
834.196	27.5
835.356	27
836.515	29
837.676	24
838.835	24
839.994	22.5
841.152	25
842.312	29
843.47	29
844.629	25
845.786	27
846.946	32
848.103	25
849.261	26.5
850.418	26.5
851.575	28
852.733	28
853.89	26.5
855.046	27
856.203	25.5
857.359	24.5
858.515	23
859.67	24
860.827	24.5
861.983	30.5
863.138	26
864.293	27
865.448	26.5
866.603	27
867.757	27
868.912	23
870.066	25.5
871.22	26
872.374	25
873.527	25
874.681	26.5
875.834	26.5
876.987	25.5
878.14	27
879.293	26
880.445	27
881.598	31
882.75	27.5
883.902	23
885.054	27
886.206	26
887.357	23.5
888.507	25.5
889.658	27.5
890.809	28
891.96	24
893.111	20
894.261	26
895.411	27.5
896.561	24.5
897.71	29
898.86	28.5
900.009	26.5
901.159	27
902.308	26
903.455	24
904.604	24.5
905.753	26.5
906.901	24
908.048	26
909.197	25
910.344	29
911.492	22
912.639	28
913.786	24
914.933	26.5
916.079	22
917.226	25.5
918.373	25
919.518	24.5
920.664	23
921.81	25.5
922.955	25.5
924.101	26
925.245	25
926.391	30.5
927.536	23.5
928.68	23
929.825	23
930.968	27
932.113	30
933.256	21
934.4	27
935.543	23
936.687	21
937.83	27.5
938.973	23.5
940.115	25.5
941.258	21.5
942.399	24
943.542	26.5
944.684	24.5
945.826	28
946.967	27.5
948.109	25.5
949.25	22.5
950.392	25.5
951.532	26.5
952.672	26
953.813	22
954.953	26
956.093	30
957.233	27
958.373	25
959.512	23.5
960.652	25.5
961.791	27
962.929	27
964.069	25.5
965.207	28.5
966.345	26
967.484	23.5
968.622	25
969.759	24.5
970.896	25
972.035	22
973.172	25.5
974.309	22
975.445	25
976.582	33.5
977.719	21
978.855	21
979.991	23
981.127	24
982.263	28.5
983.398	25
984.535	22
985.67	27.5
986.804	24
987.939	24.5
989.074	25.5
990.208	23
991.342	25
992.476	27
993.61	26
994.744	21
995.877	25
997.01	27.5
998.143	25
999.276	25.5
1000.41	25
1001.54	25.5
1002.67	24.5
1003.81	25
1004.94	21.5
1006.07	26.5
1007.2	23.5
1008.33	26
1009.47	26
1010.6	25
1011.73	26.5
1012.86	26.5
1013.99	26
1015.12	24
1016.25	24
1017.38	22
1018.51	28.5
1019.64	26
1020.77	27
1021.9	24.5
1023.03	24
1024.15	31
1025.28	20
1026.41	27
1027.54	24.5
1028.67	25
1029.8	26
1030.92	25
1032.05	28
1033.18	28
1034.31	27
1035.43	28
1036.56	25
1037.69	23
1038.81	27
1039.94	25.5
1041.07	26.5
1042.19	26
1043.32	25
1044.44	25
1045.57	26
1046.69	26
1047.82	26.5
1048.94	24
1050.07	23.5
1051.19	27
1052.32	23
1053.44	28
1054.57	20.5
1055.69	28
1056.81	24
1057.94	24.5
1059.06	23.5
1060.18	22
1061.31	22.5
1062.43	26.5
1063.55	19
1064.67	20
1065.8	23.5
1066.92	23
1068.04	22
1069.16	23.5
1070.28	26
1071.4	27
1072.52	24.5
1073.64	26
1074.76	23.5
1075.89	25.5
1077.01	24.5
1078.13	22.5
1079.25	24
1080.37	27
1081.49	27.5
1082.6	24
1083.72	19.5
1084.84	23.5
1085.96	28.5
1087.08	22
1088.2	27.5
1089.32	20.5
1090.43	23
1091.55	25
1092.67	23
1093.79	25
1094.91	23
1096.02	24
1097.14	26
1098.26	21.5
1099.37	23
1100.49	23.5
1101.61	22
1102.72	23.5
1103.84	26
1104.95	20.5
1106.07	21
1107.18	25
1108.3	21
1109.41	24.5
1110.53	23
1111.64	23.5
1112.76	26
1113.87	29
1114.99	26
1116.1	27
1117.21	20
1118.33	23.5
1119.44	23.5
1120.55	24
1121.67	22.5
1122.78	26.5
1123.89	22.5
1125	28
1126.12	26
1127.23	26
1128.34	23
1129.45	23
1130.56	23
1131.68	20
1132.79	27
1133.9	26.5
1135.01	25.5
1136.12	23
1137.23	23.5
1138.34	25.5
1139.45	25.5
1140.56	24.5
1141.67	25
1142.78	25.5
1143.89	23
1145	25
1146.11	27
1147.22	22.5
1148.32	23
1149.43	26
1150.54	23.5
1151.65	25.5
1152.76	26
1153.86	26
1154.97	24.5
1156.08	21
1157.19	27
1158.29	22
1159.4	25.5
1160.51	27.5
1161.61	22.5
1162.72	21.5
1163.83	23.5
1164.93	23
1166.04	25
1167.14	18
1168.25	27.5
1169.35	25
1170.46	25.5
1171.56	25
1172.67	23
1173.77	21.5
1174.88	25
1175.98	23.5
1177.08	22.5
1178.19	23.5
1179.29	23.5
1180.4	24
1181.5	22
1182.6	23.5
1183.71	22
1184.81	22.5
1185.91	22.5
1187.01	20
1188.12	25
1189.22	24
1190.32	24
1191.42	23.5
1192.52	24
1193.62	26.5
1194.72	21.992
1195.83	21.9585
1196.93	23.5075
1198.03	25.9559
1199.13	23.0261
1200.23	19.2467
1201.33	22.9194
1202.43	21.9366
1203.53	22.2302
1204.63	22.4656
1205.73	24.0413
1206.83	20.9971
1207.92	24.1952
1209.02	24.0639
1210.12	25.9989
1211.22	23.4357
1212.32	22.5995
1213.42	23.0468
1214.51	20.9951
1215.61	24.0618
1216.71	23.6455
1217.81	24.5656
1218.9	22.7459
1220	24.862
1221.1	25.3818
1222.19	23.3107
1223.29	27.2166
1224.39	23.7217
1225.48	24.014
1226.58	29.3816
1227.68	22.3919
1228.77	22.1119
1229.87	25.811
1230.96	18.8837
1232.06	23.655
1233.15	24.0251
1234.25	27.054
1235.34	22.1492
1236.43	19.6999
1237.53	23.0441
1238.62	20.1074
1239.72	22.0866
1240.81	21.9711
1241.9	20.4293
1243	24.9894
1244.09	25.116
1245.18	25.7454
1246.27	24.1393
1247.37	24.8383
1248.46	24.725
1249.55	22.9612
1250.64	23.0153
1251.74	21.2971
1252.83	22.6508
1253.92	23.0218
1255.01	25.9727
1256.1	23.2501
1257.19	22.925
1258.28	23.0134
1259.38	23.3115
1260.46	22.9894
1261.56	22.2659
1262.65	23.2432
1263.74	22.5198
1264.82	21.3426
1265.91	22.0192
1267	21.1259
1268.09	22.9268
1269.18	23.3252
1270.27	26.161
1271.36	23.2505
1272.45	22.9043
1273.54	22.6315
1274.63	20.7695
1275.71	22.7606
1276.8	23.2936
1277.89	22.3561
1278.98	23.5646
1280.06	23.1625
1281.15	24.0501
1282.24	25.9278
1283.32	22.9351
1284.41	23.5637
1285.5	23.7957
1286.58	23.6619
1287.67	24.8235
1288.76	24.3403
1289.84	23.699
1290.93	24.1137
1292.01	24.3194
1293.1	22.4138
1294.18	22.1314
1295.27	21.6184
1296.35	20.5377
1297.44	23.2956
1298.52	23.344
1299.6	21.8542
1300.69	24.6913
1301.77	22.9129
1302.86	24.2251
1303.94	24.9636
1305.02	24.9636
1306.11	23.9134
1306.41	23.5
1307.5	24
1308.59	25
1309.68	23
1310.77	23
1311.85	24
1312.94	22
1314.03	25
1315.11	23
1316.2	21
1317.29	24
1318.37	21.5
1319.46	26.5
1320.55	20.5
1321.63	15
1322.72	27
1323.8	23
1324.89	24.5
1325.98	21
1327.06	24
1328.15	22
1329.23	24.5
1330.31	24
1331.4	24.5
1332.48	24
1333.57	29.5
1334.65	23.5
1335.74	25.5
1336.82	22.5
1337.9	22.5
1338.99	27
1340.07	28.5
1341.15	24
1342.24	23.5
1343.32	21.5
1344.4	25.5
1345.48	27
1346.56	23
1347.65	27
1348.73	22.5
1349.81	20
1350.89	20.5
1351.97	22
1353.05	26.5
1354.13	22.5
1355.21	23
1356.29	20
1357.37	23.5
1358.46	22
1359.54	27
1360.62	27.5
1361.69	20.5
1362.77	25
1363.85	24
1364.93	24
1366.01	21.5
1367.09	26.5
1368.17	25
1369.25	25
1370.33	25.5
1371.41	24.5
1372.48	19.5
1373.56	22
1374.64	21.5
1375.72	23
1376.79	26.5
1377.87	22
1378.95	22.5
1380.02	25
1381.1	22.5
1382.18	24
1383.25	19.5
1384.33	23
1385.4	25.5
1386.48	20.5
1387.56	22.5
1388.63	25.5
1389.71	24
1390.78	21
1391.86	24.5
1392.93	24
1394.01	22
1395.08	22.5
1396.15	23
1397.23	24.5
1398.3	28
1399.38	26
1400.45	25
1401.52	25.5
1402.6	24
1403.67	22
1404.74	20.5
1405.81	25
1406.89	23
1407.96	27.5
1409.03	20
1410.1	23
1411.17	25.5
1412.25	26
1413.32	28
1414.39	27
1415.46	25.5
1416.53	26
1417.6	23
1418.67	24.5
1419.74	25.5
1420.81	24
1421.88	19.5
1422.95	23
1424.02	27.5
1425.09	26.5
1426.16	22.5
1427.23	27
1428.3	23.5
1429.37	25
1430.44	25.5
1431.51	25.5
1432.58	24
1433.64	24.5
1434.71	23.5
1435.78	21
1436.85	24.5
1437.92	21
1438.98	24
1440.05	24.5
1441.12	22
1442.18	25
1443.25	23
1444.32	23
1445.38	24.5
1446.45	28
1447.52	21
1448.58	25
1449.65	25.5
1450.71	22
1451.78	26.5
1452.84	25
1453.91	23
1454.97	24
1456.04	26
1457.1	24.5
1458.17	22
1459.23	26
1460.3	23.5
1461.36	23
1462.42	26.5
1463.49	24.5
1464.55	24.5
1465.61	25
1466.68	23.5
1467.74	25.5
1468.8	24
1469.86	23
1470.93	22.5
1471.99	25
1473.05	25
1474.11	24
1475.17	27
1476.24	23.5
1477.3	27.5
1478.36	25
1479.42	22
1480.48	24
1481.54	24.5
1482.6	24
1483.66	24
1484.72	27
1485.78	25.5
1486.84	26.5
1487.9	21.5
1488.96	24.5
1490.02	25
1491.08	23
1492.14	24.5
1493.2	23.5
1494.26	24
1495.31	25
1496.37	26
1497.43	23
1498.49	21
1499.55	26.5
1500.6	23
1501.66	25
1502.72	25.5
1503.78	24.5
1504.83	24
1505.89	26.5
1506.95	27.5
1508	29
1509.06	25
1510.12	21
1511.17	25.5
1512.23	25.5
1513.28	22.5
1514.34	28.5
1515.39	25
1516.45	25
1517.5	24.5
1518.56	20.5
1519.61	25
1520.67	21.5
1521.72	21.5
1522.78	22
1523.83	24.5
1524.88	20
1525.94	20
1526.99	26
1528.05	22
1529.1	20
1530.15	23
1531.2	24
1532.26	25.5
1533.31	20.5
1534.36	24
1535.41	26
1536.47	26.5
1537.52	21.5
1538.57	28.5
1539.62	23.5
1540.67	23
1541.72	25.5
1542.77	21
1543.83	25.5
1544.88	29
1545.93	23
1546.98	29.5
1548.03	23.5
1549.08	26
1550.13	26
1551.18	22
1552.23	24.5
1553.28	24.5
1554.32	26
1555.37	23.5
1556.42	25.5
1557.47	20.5
1558.52	27.5
1559.57	25
1560.62	25
1561.67	26
1562.71	24
1563.76	21.5
1564.81	23
1565.86	29.5
1566.9	23
1567.95	28
1569	25.5
1570.04	26.5
1571.09	22.5
1572.14	25
1573.18	29
1574.23	23
1575.27	19
1576.32	24.5
1577.37	24.5
1578.41	24.5
1579.46	25
1580.5	25
1581.55	21
1582.59	23
1583.64	24.5
1584.68	20
1585.72	22
1586.77	27
1587.81	25
1588.86	26.5
1589.9	25
1590.94	24.5
1591.99	23.5
1593.03	26
1594.07	22
1595.12	21.5
1596.16	21
1597.2	22.5
1598.24	22.5
1599.29	24.5
1600.33	26.5
1601.37	22.5
1602.41	26
1603.45	24
1604.49	25
1605.53	23
1606.58	23.5
1607.62	25
1608.66	24
1609.7	23
1610.74	23
1611.78	25.5
1612.82	22.5
1613.86	29.5
1614.9	27.5
1615.94	21
1616.98	26
1618.02	27
1619.06	31.5
1620.09	27
1621.13	22.5
1622.17	24
1623.21	27
1624.25	23.5
1625.29	26.5
1626.32	24
1627.36	23.5
1628.4	20.5
1629.44	22.5
1630.47	26
1631.51	25.5
1632.55	26
1633.58	24
1634.62	24.5
1635.66	23.5
1636.69	23.5
1637.73	24.5
1638.77	22
1639.8	25.5
1640.84	22.5
1641.87	27
1642.91	25
1643.94	25.5
1644.98	29
1646.01	25
1647.05	28.5
1648.08	24
1649.12	27
1650.15	22
1651.18	23
1652.22	25
1653.25	22
1654.29	25.5
1655.32	21.5
1656.35	21.5
1657.39	24.5
1658.42	24.5
1659.45	22
1660.48	22
1661.52	27
1662.55	24
1663.58	25
1664.61	26.5
1665.64	26
1666.68	28.5
1667.71	22.5
1668.74	20.5
1669.77	26
1670.8	25
1671.83	25
1672.86	24
1673.89	24
1674.92	27.5
1675.95	26
1676.98	26
1678.01	24.5
1679.04	24
1680.07	22.5
1681.1	21
1682.13	22.5
1683.16	27
1684.19	25
1685.22	24
1686.25	23.5
1687.27	28.5
1688.3	23
1689.33	21
1690.36	24
1691.38	22
1692.41	25.5
1693.44	25
1694.47	24.5
1695.49	28
1696.52	25.5
1697.55	21.5
1698.57	26.5
1699.6	26
1700.63	25
1701.65	24
1702.68	23
1703.7	30.5
1704.73	23
1705.76	25
1706.78	20
1707.81	24
1708.83	27
1709.86	28
1710.88	22
1711.91	25
1712.93	27.5
1713.95	24
1714.98	23.5
1716	25.5
1717.03	26
1718.05	24
1719.07	24
1720.1	23
1721.12	26.5
1722.14	23.5
1723.16	25.5
1724.19	21
1725.21	25.5
1726.23	22
1727.25	22
1728.28	24.5
1729.3	27
1730.32	26.5
1731.34	27
1732.36	23
1733.38	25
1734.41	23.5
1735.43	26
1736.45	22
1737.47	21.5
1738.49	24
1739.51	22
1740.53	24
1741.55	24
1742.57	22.5
1743.59	29
1744.61	25
1745.63	23
1746.64	22
1747.66	24
1748.68	26
1749.7	27
1750.72	24.5
1751.74	25.5
1752.76	24.5
1753.77	25
1754.79	25
1755.81	26.5
1756.83	26
1757.84	24
1758.86	22
1759.88	27.5
1760.9	24
1761.91	28
1762.93	22
1763.95	26
1764.96	24
1765.98	31
1766.99	30
1768.01	25
1769.02	26
1770.04	26
1771.06	24.5
1772.07	27
1773.09	25
1774.1	24
1775.12	26.5
1776.13	26
1777.14	24
1778.16	22
1779.17	25.5
1780.19	25.5
1781.2	24.5
1782.21	28.5
1783.23	25.5
1784.24	22
1785.25	26.5
1786.27	23
1787.28	26.5
1788.29	23.5
1789.3	26.5
1790.32	26.5
1791.33	24.5
1792.34	24
1793.35	27
1794.36	21.5
1795.38	24
1796.39	28
1797.4	26
1798.41	26
1799.42	20
1800.43	20
1801.44	27
1802.45	23
1803.46	22
1804.47	21
1805.48	21
1806.49	23.5
1807.5	26.5
1808.51	24.5
1809.52	22
1810.53	27
1811.54	24.5
1812.55	26
1813.56	22
1814.57	24
1815.57	20
1816.58	24.5
1817.59	20.5
1818.6	27.5
1819.61	22.5
1820.61	25
1821.62	21
1822.63	28
1823.64	25.5
1824.64	23
1825.65	26
1826.66	23
1827.66	23
1828.67	25
1829.68	23.5
1830.68	24
1831.69	26.5
1832.69	26.5
1833.7	24
1834.7	23
1835.71	22
1836.71	23.5
1837.72	26
1838.72	24
1839.73	26
1840.73	25
1841.74	23.5
1842.74	26.5
1843.75	20
1844.75	24
1845.75	24
1846.76	23
1847.76	27
1848.76	23.5
1849.77	22
1850.77	24
1851.77	24
1852.78	24
1853.78	25
1854.78	28
1855.78	28
1856.78	26.5
1857.79	25
1858.79	25.5
1859.79	24
1860.79	26
1861.79	23.5
1862.79	25.5
1863.79	25
1864.79	26
1865.79	22.5
1866.8	24.5
1867.8	24.5
1868.8	25.5
1869.8	24.5
1870.8	27.5
1871.8	24
1872.8	22
1873.79	23.5
1874.79	23.5
1875.79	24.5
1876.79	22.5
1877.79	23.5
1878.79	25
1879.79	21
1880.79	25
1881.78	26
1882.78	24
1883.78	27.5
1884.78	26
1885.77	25.5
1886.77	24
1887.77	24.5
1888.77	24
1889.76	22
1890.76	25.5
1891.76	20
1892.75	24.5
1893.75	24.5
1894.75	25
1895.74	26.5
1896.74	26.5
1897.73	26
1898.73	25
1899.73	26
1900.72	22.5
1901.72	24
1902.71	25.5
1903.7	22
1904.7	24
1905.69	21
1906.69	28
1907.68	27
1908.68	23.5
1909.67	26
1910.66	22
1911.66	28.5
1912.65	22.5
1913.64	21
1914.64	26
1915.63	25
1916.62	28
1917.62	25
1918.61	27
1919.6	25.5
1920.59	25
1921.58	24.5
1922.58	24.5
1923.57	24
1924.56	23.5
1925.55	23.5
1926.54	20
1927.53	24
1928.52	23
1929.51	23
1930.51	25.5
1931.5	26.5
1932.49	25
1933.48	24.5
1934.47	24.5
1935.46	23.5
1936.45	23
1937.44	24.5
1938.42	22.5
1939.41	23.5
1940.4	20.5
1941.39	25.5
1942.38	23.5
1943.37	28
1944.36	26.5
1945.35	22
1946.33	21.5
1947.32	23.5
1948.31	25.5
1949.3	24.5
1950.29	25.5
1951.27	24.5
1952.26	24
1953.25	25.5
1954.23	22
1955.22	25
1956.21	23
1957.19	24
1958.18	26
1959.17	23
1960.15	23.5
1961.14	22
1962.13	25
1963.11	20.5
1964.1	25
1965.08	23.5
1966.07	23
1967.05	22.5
1968.04	25
1969.02	23.5
1970.01	24
1970.99	23
1971.97	29.5
1972.96	20
1973.94	23.5
1974.93	25.5
1975.91	22.5
1976.89	18.5
1977.88	23
1978.86	26
1979.84	21.5
1980.83	26
1981.81	25
1982.79	24
1983.77	23
1984.76	25
1985.74	27
1986.72	23.5
1987.7	19
1988.68	26
1989.67	18
1990.65	25
1991.63	26
1992.61	19.5
1993.59	23.5
1994.57	23
1995.55	21
1996.53	23
1997.51	23.5
1998.49	26
1999.47	23
2000.45	23.5
2001.43	23.5
2002.41	23.5
2003.39	25
2004.37	24
2005.35	25
2006.33	27.5
2007.31	22
2008.29	23.5
2009.26	26
2010.24	25.5
2011.22	21.5
2012.2	24.5
2013.18	22.5
2014.15	21
2015.13	23.5
2016.11	24
2017.09	23.5
2018.06	24.5
2019.04	22
2020.02	23
2021	24.5
2021.97	25
2022.95	20
2023.92	26
2024.9	27
2025.88	25
2026.85	23.5
2027.83	20
2028.8	24
2029.78	19
2030.75	27
2031.73	22.5
2032.7	25
2033.68	22
2034.65	21.5
2035.63	24.5
2036.6	21.5
2037.58	24
2038.55	27
2039.52	22.5
2040.5	21
2041.47	23.5
2042.45	22.5
2043.42	26
2044.39	24
2045.36	24.5
2046.34	20.5
2047.31	24.5
2048.28	21
2049.26	23
2050.23	23.5
2051.2	26
2052.17	24.5
2053.14	21
2054.12	20
2055.09	21.5
2056.06	19.5
2057.03	25
2058	25
2058.97	24
2059.94	24
2060.91	22.5
2061.88	23.5
2062.85	24
2063.82	21.5
2064.79	25
2065.76	20
2066.73	25
2067.7	22
2068.67	22
2069.64	23.5
2070.61	27.5
2071.58	22.5
2072.55	23.5
2073.52	25
2074.49	26.5
2075.45	20
2076.42	24.5
2077.39	19
2078.36	24
2079.33	25.5
2080.29	21.5
2081.26	23
2082.23	22
2083.2	22
2084.16	21.5
2085.13	24.5
2086.1	25
2087.06	23
2088.03	23.5
2089	21.5
2089.96	25
2090.93	22
2091.89	26
2092.86	27
2093.83	23
2094.79	27.5
2095.76	25.5
2096.72	22
2097.69	22.5
2098.65	24
2099.62	23
2100.58	22
2101.55	23
2102.51	24.5
2103.47	26
2104.44	22.5
2105.4	26.5
2106.36	21
2107.33	25.5
2108.29	25
2109.25	23.5
2110.22	23
2111.18	24
2112.14	25
2113.11	22
2114.07	22
2115.03	21
2115.99	22
2116.96	22
2117.92	23
2118.88	24
2119.84	24.5
2120.8	24
2121.76	22.5
2122.72	18
2123.68	24
2124.65	22
2125.61	19
2126.57	20
2127.53	24
2128.49	25
2129.45	22
2130.41	23
2131.37	25
2132.33	25.5
2133.29	22
2134.25	25
2135.21	23
2136.17	19
2137.12	18
2138.08	23
2139.04	21.5
2140	24.5
2140.96	21.5
2141.92	21.5
2142.88	22.4955
2143.83	17.0351
2144.79	22.0377
2145.75	24.4848
2146.71	22.4621
2147.66	22.9536
2148.62	20.61
2149.58	21.9362
2150.53	20.0609
2151.49	26.1772
2152.45	18.3777
2153.4	24.7227
2154.36	21.9449
2155.32	21.8829
2156.27	25.7983
2157.23	23.4248
2158.19	24.1278
2159.14	23.1846
2160.1	19.1445
2161.05	22.7022
2162.01	23.6854
2162.96	23.5607
2163.92	23.6318
2164.87	20.2208
2165.83	21.8212
2166.78	23.4507
2167.73	20.6593
2168.69	20.5995
2169.64	22.1927
2170.6	24.4294
2171.55	23.9113
2172.5	22.9233
2173.46	21.7657
2174.41	21.9244
2175.36	24.665
2176.32	21.2269
2177.27	21.0244
2178.22	22.4539
2179.18	22.4393
2180.13	20.489
2181.08	21.8644
2182.03	23.5971
2182.98	21.7945
2183.94	20.209
2184.89	22.3685
2185.84	22.6626
2186.79	21.2444
2187.74	21.8312
2188.69	23.4843
2189.64	18.893
2190.6	20.9663
2191.55	23.8313
2192.5	22.7439
2193.45	21.7301
2194.4	22.7166
2195.35	22.7968
2196.3	21.4042
2197.25	22.3822
2198.2	23.5754
2199.15	20.0188
2200.1	24.1628
2201.04	21.5021
2201.99	23.246
2202.94	23.4981
2203.89	21.6799
2204.84	22.6359
2205.79	22.5157
2206.74	19.5703
2207.69	21.106
2208.63	23.911
2209.58	23.6375
2210.53	22.1035
2211.48	23.5643
2212.43	22.0512
2213.37	23.2004
2214.32	23.0277
2215.27	22.2584
2216.21	21.2726
2217.16	24.5217
2218.11	24.2217
2219.05	22.752
2220	22.0278
2220.95	23.2459
2221.89	24.4007
2222.84	21.0316
2223.78	22.8326
2224.73	21.7904
2225.68	20.7524
2226.62	23.6574
2227.57	22.9214
2228.51	23.7723
2229.46	25.7422
2230.4	20.9394
2231.35	23.7827
2232.29	24.5461
2233.24	22.4438
2234.18	22
2235.12	22.8551
2236.07	21.0368
2237.01	21.7164
2237.95	23.4641
2238.9	23.9709
2239.84	22.0914
2240.06	21.5
2241.01	23.5
2241.96	21
2242.91	23
2243.86	21
2244.8	22
2245.75	24.5
2246.7	20
2247.65	21.5
2248.59	25
2249.54	21.5
2250.49	24.5
2251.43	26
2252.38	19
2253.33	22
2254.27	19.5
2255.22	22
2256.16	22.5
2257.11	24.5
2258.06	20.5
2259	27
2259.95	20.5
2260.89	22.5
2261.84	20
2262.78	25
2263.73	22
2264.67	25.5
2265.62	21
2266.56	20.5
2267.5	21.5
2268.45	26
2269.39	21
2270.34	22
2271.28	25
2272.22	24
2273.17	20
2274.11	22
2275.05	21
2276	21
2276.94	21
2277.88	21
2278.82	27
2279.77	21
2280.71	22.5
2281.65	24
2282.59	20.5
2283.53	20
2284.48	24.5
2285.42	20
2286.36	23.5
2287.3	20
2288.24	22.5
2289.18	24.5
2290.12	23
2291.06	16.5
2292	22
2292.94	23
2293.89	23.5
2294.83	20
2295.77	25
2296.71	23
2297.65	23.5
2298.58	23.5
2299.52	27
2300.46	25
2301.4	22
2302.34	23
2303.28	23
2304.22	23
2305.16	23.5
2306.1	23.5
2307.03	23
2307.97	25
2308.91	24
2309.85	22.5
2310.79	26
2311.72	22.5
2312.66	20
2313.6	19
2314.54	22.5
2315.47	28
2316.41	25.5
2317.35	21.5
2318.28	21.5
2319.22	22
2320.16	24
2321.09	26
2322.03	24
2322.96	22.5
2323.9	24.5
2324.84	22
2325.77	22
2326.71	23
2327.64	21.5
2328.58	24
2329.51	25.5
2330.45	20
2331.38	24
2332.32	20
2333.25	25.5
2334.18	24
2335.12	25
2336.05	24.5
2336.99	21.5
2337.92	24
2338.85	19
2339.79	21.5
2340.72	27
2341.65	20.5
2342.59	24.5
2343.52	24
2344.45	24.5
2345.39	21.5
2346.32	23
2347.25	20
2348.18	21
2349.11	23
2350.05	22.5
2350.98	21.5
2351.91	23.5
2352.84	24
2353.77	23.5
2354.7	23.5
2355.64	22.5
2356.57	25.5
2357.5	24
2358.43	25
2359.36	23.5
2360.29	24.5
2361.22	23.5
2362.15	25.5
2363.08	26
2364.01	22.5
2364.94	19
2365.87	22.5
2366.8	22
2367.73	20
2368.66	24.5
2369.58	26.5
2370.51	26
2371.44	21.5
2372.37	25.5
2373.3	22
2374.23	23
2375.16	22
2376.08	25
2377.01	21.5
2377.94	19
2378.87	25
2379.8	26
2380.72	28
2381.65	26.5
2382.58	24
2383.5	23
2384.43	26
2385.36	23
2386.28	26.5
2387.21	25
2388.14	25
2389.06	21.5
2389.99	22
2390.91	26.5
2391.84	23
2392.77	20
2393.69	25
2394.62	22.5
2395.54	25.5
2396.47	24.5
2397.39	22
2398.32	23
2399.24	21.5
2400.16	23.5
2401.09	22.5
2402.01	23
2402.94	23.5
2403.86	23.5
2404.78	23
2405.71	24
2406.63	23
2407.56	24
2408.48	23.5
2409.4	21.5
2410.32	27
2411.25	23
2412.17	20
2413.09	20
2414.02	22.5
2414.94	22
2415.86	28.5
2416.78	24
2417.7	24
2418.63	23
2419.55	21
2420.47	22
2421.39	24.5
2422.31	24
2423.23	23.5
2424.15	23
2425.07	25.5
2425.99	25.5
2426.92	22
2427.84	21
2428.76	24
2429.68	23.5
2430.59	23
2431.51	24
2432.43	21.5
2433.35	24
2434.27	24
2435.19	24.5
2436.11	22
2437.03	22
2437.95	25
2438.87	24
2439.79	24.5
2440.71	24
2441.62	24
2442.54	23
2443.46	27.5
2444.38	25
2445.3	23
2446.21	25.5
2447.13	22
2448.05	22
2448.97	24.5
2449.88	25.5
2450.8	22
2451.72	24
2452.63	24
2453.55	24.5
2454.47	24
2455.38	25
2456.3	22.5
2457.21	23.5
2458.13	24
2459.05	25.5
2459.96	18.5
2460.88	25.5
2461.79	21
2462.71	28.5
2463.62	19.5
2464.54	24
2465.45	19
2466.37	24
2467.28	26
2468.2	24.5
2469.11	25
2470.02	24
2470.94	21.5
2471.85	23
2472.77	23.5
2473.68	22
2474.59	24
2475.51	23
2476.42	25.5
2477.33	24
2478.25	22
2479.16	22.5
2480.07	26
2480.98	22.5
2481.9	27
2482.81	22.5
2483.72	22
2484.63	25
2485.55	23.5
2486.46	20.5
2487.37	26
2488.28	22
2489.19	24.5
2490.1	22
2491.01	22.5
2491.92	26
2492.83	23
2493.74	19
2494.66	20
2495.57	24
2496.48	22
2497.39	28
2498.3	23
2499.21	23
2500.12	25
2501.03	24
2501.93	21
2502.84	21
2503.75	24
2504.66	20
2505.57	24.5
2506.48	24
2507.39	26
2508.3	23
2509.21	25
2510.11	27
2511.02	24.5
2511.93	27.5
2512.84	25
2513.75	22
2514.65	23
2515.56	28
2516.47	23.5
2517.37	23.5
2518.28	22
2519.19	23
2520.09	26.5
2521	25
2521.91	21
2522.81	26.5
2523.72	28
2524.63	24
2525.53	25.5
2526.44	21.5
2527.34	24
2528.25	23
2529.16	24
2530.06	24
2530.97	24.5
2531.87	22.5
2532.78	26.5
2533.68	22.5
2534.58	29.5
2535.49	23
2536.39	21.5
2537.3	24.5
2538.2	23.5
2539.11	23
2540.01	22
2540.91	21
2541.82	26
2542.72	23.5
2543.62	25
2544.53	25
2545.43	21
2546.33	22.5
2547.23	26.5
2548.14	21
2549.04	26
2549.94	25.5
2550.84	25.5
2551.75	26.5
2552.65	24
2553.55	23.5
2554.45	24.5
2555.35	24
2556.26	19.5
2557.16	25
2558.06	24.5
2558.96	26
2559.86	20
2560.76	24
2561.66	26
2562.56	26.5
2563.46	20
2564.36	25.5
2565.26	22.5
2566.16	26.5
2567.06	22
2567.96	24
2568.86	24
2569.76	25
2570.66	23.5
2571.56	24
2572.46	21.5
2573.36	21
2574.26	22
2575.16	21
2576.05	22
2576.95	20
2577.85	22
2578.75	24
2579.65	23
2580.54	22
2581.44	18.5
2582.34	26.5
2583.24	28.5
2584.13	21.5
2585.03	26
2585.93	25
2586.83	24
2587.72	24
2588.62	26.5
2589.52	23
2590.41	23
2591.31	26.5
2592.2	25
2593.1	22
2594	24
2594.89	23
2595.79	27
2596.68	27
2597.58	23.5
2598.47	25
2599.37	23.5
2600.26	26
2601.16	24
2602.05	25
2602.95	25.5
2603.84	20
2604.74	21.5
2605.63	23.5
2606.52	24.5
2607.42	26
2608.31	18
2609.21	26.5
2610.1	25.5
2610.99	24
2611.89	24
2612.78	24.5
2613.67	20
2614.56	25.5
2615.46	25
2616.35	24
2617.24	23.5
2618.13	22.5
2619.03	22
2619.92	26
2620.81	25
2621.7	24
2622.59	24
2623.49	25.5
2624.38	26
2625.27	24
2626.16	21
2627.05	23
2627.94	20.5
2628.83	19.5
2629.72	23.5
2630.61	22
2631.5	26
2632.39	24
2633.28	25.5
2634.17	28
2635.06	24
2635.95	25
2636.84	21.5
2637.73	24
2638.62	22.5
2639.51	22
2640.4	21.5
2641.29	22.5
2642.18	25
2643.07	26
2643.96	24.5
2644.84	27
2645.73	26
2646.62	24
2647.51	25
2648.4	24
2649.28	25
2650.17	23
2651.06	24.5
2651.95	26
2652.83	24.5
2653.72	24.5
2654.61	22.5
2655.49	23
2656.38	27.5
2657.27	15
2658.16	26
2659.04	24.5
2659.93	28
2660.81	19.5
2661.7	24
2662.59	22.5
2663.47	26
2664.36	22.5
2665.24	23
2666.13	25
2667.01	22
2667.9	24
2668.78	22.5
2669.67	23.5
2670.55	24
2671.44	18.5
2672.32	28
2673.21	22
2674.09	21
2674.97	24.5
2675.86	23
2676.74	24.5
2677.62	23
2678.51	25.5
2679.39	24.5
2680.27	28
2681.16	29
2682.04	23
2682.92	23
2683.81	27
2684.69	24
2685.57	21
2686.45	25
2687.34	25.5
2688.22	19.5
2689.1	22.5
2689.98	24
2690.86	22
2691.75	25
2692.63	25
2693.51	20.5
2694.39	28
2695.27	21
2696.15	24.5
2697.03	27
2697.91	24.5
2698.79	22.5
2699.67	20
2700.55	28
2701.43	23.5
2702.31	23.5
2703.19	26
2704.07	25
2704.95	23
2705.83	25
2706.71	26
2707.59	20
2708.47	24.5
2709.35	22
2710.23	22
2711.11	26
2711.99	22
2712.86	24
2713.74	27
2714.62	27
2715.5	23
2716.38	23
2717.26	24.5
2718.13	23
2719.01	25.5
2719.89	23.5
2720.77	24
2721.64	23.5
2722.52	27
2723.4	27.5
2724.27	25
2725.15	23.5
2726.03	23.5
2726.9	24.5
2727.78	25.5
2728.66	21.5
2729.53	23
2730.41	24.5
2731.28	25
2732.16	26
2733.03	29.5
2733.91	19
2734.79	23
2735.66	25
2736.54	23.5
2737.41	23.5
2738.29	24
2739.16	21
2740.03	22.5
2740.91	22.5
2741.78	22.5
2742.66	23.5
2743.53	27
2744.41	26.5
2745.28	25
2746.15	25
2747.03	22.5
2747.9	23.5
2748.77	25
2749.65	27
2750.52	22.5
2751.39	26
2752.27	22
2753.14	26.5
2754.01	23.5
2754.88	22
2755.75	22
2756.63	18.5
2757.5	22
2758.37	24
2759.24	20.5
2760.11	25.5
2760.99	23
2761.86	28
2762.73	20.5
2763.6	23
2764.47	24
2765.34	28
2766.21	27.5
2767.08	26
2767.95	24.5
2768.82	24.5
2769.69	23
2770.56	20.5
2771.43	24
2772.3	20.5
2773.17	21
2774.04	21
2774.91	26
2775.78	26
2776.65	29.5
2777.52	24
2778.39	25
2779.26	24.5
2780.13	21.5
2780.99	21
2781.86	26.5
2782.73	26
2783.6	21
2784.47	25
2785.34	24
2786.2	23
2787.07	22.5
2787.94	20
2788.81	23
2789.67	23
2790.54	24
2791.41	24
2792.27	23.5
2793.14	24
2794.01	24.5
2794.87	23
2795.74	22
2796.61	23
2797.47	21.5
2798.34	22.5
2799.21	22
2800.07	22.5
2800.94	25
2801.8	23.5
2802.67	27
2803.53	22
2804.4	24
2805.26	22
2806.13	22.5
2806.99	24
2807.86	24
2808.72	22
2809.59	25
2810.45	24.5
2811.32	23.5
2812.18	24
2813.04	19.5
2813.91	24
2814.77	23
2815.64	19.5
2816.5	22
2817.36	23.5
2818.22	25
2819.09	24.5
2819.95	24.5
2820.81	21.5
2821.68	21
2822.54	20
2823.4	21
2824.26	24
2825.13	23
2825.99	25
2826.85	25
2827.71	24
2828.57	24
2829.44	25
2830.3	23.5
2831.16	23.5
2832.02	24.5
2832.88	20.5
2833.74	26
2834.6	26
2835.46	25.5
2836.32	23
2837.18	23
2838.04	22
2838.9	25
2839.76	19.5
2840.62	26
2841.48	20
2842.34	23.5
2843.2	27
2844.06	26
2844.92	21.5
2845.78	23
2846.64	26
2847.5	23
2848.36	21
2849.22	23
2850.08	25
2850.93	24
2851.79	28
2852.65	23.5
2853.51	21.5
2854.37	22
2855.22	21
2856.08	24.5
2856.94	24
2857.8	22
2858.65	22.5
2859.51	25
2860.37	19.5
2861.23	22
2862.08	22.5
2862.94	21.5
2863.79	28
2864.65	19.5
2865.51	23.5
2866.36	22
2867.22	23
2868.08	28
2868.93	23
2869.79	23
2870.64	26
2871.5	24
2872.35	22
2873.21	27.5
2874.06	20.5
2874.92	25.5
2875.77	24.5
2876.63	23
2877.48	23
2878.34	26
2879.19	22
2880.05	26
2880.9	25
2881.76	22
2882.61	20.5
2883.46	23
2884.32	28.5
2885.17	28
2886.02	24
2886.88	28
2887.73	20.5
2888.58	25.5
2889.44	24
2890.29	28.5
2891.14	19.5
2891.99	27
2892.85	24
2893.7	23.5
2894.55	24.5
2895.4	25
2896.25	23.5
2897.11	25.5
2897.96	28
2898.81	26.5
2899.66	25.5
2900.51	20.5
2901.36	25
2902.21	24
2903.07	23.5
2903.92	27.5
2904.77	27.5
2905.62	22
2906.47	24
2907.32	28.5
2908.17	25.5
2909.02	23.5
2909.87	23.5
2910.72	26
2911.57	29
2912.42	22
2913.27	25.5
2914.12	22
2914.97	23
2915.81	23
2916.66	24.5
2917.51	23
2918.36	22.5
2919.21	23.5
2920.06	21.5
2920.91	25
2921.75	24.5
2922.6	25
2923.45	20
2924.3	22.5
2925.15	26.5
2925.99	26
2926.84	21.5
2927.69	21
2928.54	20.5
2929.38	22.5
2930.23	23.5
2931.08	23
2931.92	22
2932.77	25
2933.62	27.5
2934.46	25
2935.31	18
2936.16	26.5
2937	20.5
2937.85	22.5
2938.69	19
2939.54	24.5
2940.38	24.5
2941.23	21
2942.08	19
2942.92	20
2943.77	22
2944.61	21
2945.46	23
2946.3	21.5
2947.15	23
2947.99	27
2948.83	25.5
2949.68	25
2950.52	21.5
2951.37	22
2952.21	23
2953.05	19
2953.9	23
2954.74	23
2955.58	25.5
2956.43	25
2957.27	20
2958.11	24.5
2958.96	21
2959.8	20
2960.64	23
2961.48	25.5
2962.33	24
2963.17	23.5
2964.01	25
2964.85	18
2965.69	24
2966.54	22.5
2967.38	21.5
2968.22	21
2969.06	21.5
2969.9	22
2970.74	25
2971.58	22.5024
2972.43	22.4398
2973.27	18.0224
2974.11	20.1838
2974.95	23.0913
2975.79	23.3385
2976.63	21.2206
2977.47	21.6897
2978.31	26.0001
2979.15	22.8455
2979.99	22.4428
2980.83	22.1952
2981.67	22.384
2982.51	21.1538
2983.35	20.8447
2984.19	20.9539
2985.03	22.5926
2985.86	22.0038
2986.7	20.0603
2987.54	20.0947
2988.38	24.5871
2989.22	24.2507
2990.06	23.2063
2990.9	21.3367
2991.73	22.1877
2992.57	22.5237
2993.41	24.3724
2994.25	18.1453
2995.09	23.1634
2995.92	21.6088
2996.76	20.128
2997.6	21.7084
2998.44	21.3192
2999.27	21.1586
3000.11	23.8233
3000.95	23.3498
3001.78	25.0078
3002.62	21.7543
3003.46	20.7422
3004.29	20.9058
3005.13	22.0375
3005.96	21.8565
3006.8	23.2336
3007.64	24.5844
3008.47	20.6453
3009.31	23.6572
3010.14	24.6272
3010.98	22.002
3011.81	21.7976
3012.65	21.2948
3013.48	21.3556
3014.32	21.25
3015.15	21.5588
3015.99	22.2131
3016.82	21.4169
3017.66	21.4642
3018.49	22.1772
3019.33	21.584
3020.16	22.8624
3020.99	22.2763
3021.83	19.5558
3022.66	21.2831
3023.5	22.5667
3024.33	22.9557
3025.16	23.0438
3026	21.9817
3026.83	21.4279
3027.66	21.8501
3028.49	22.6172
3029.33	23.19
3030.16	22.6442
3030.99	21.1926
3031.83	20.0911
3032.66	18.9405
3033.49	21.6552
3034.32	21.9307
3035.15	20.8238
3035.99	21.4115
3036.82	21.894
3037.65	20.5111
3038.48	20.2042
3039.31	20.8219
3040.14	22.8776
3040.97	23.7186
3041.81	23.396
3042.64	23.999
3043.47	23.8786
3044.3	21.6692
3045.13	22.205
3045.96	21.882
3046.79	21.8351
3047.62	21.1454
3048.45	21.666
3049.28	23.0162
3050.11	20.6707
3050.94	21.9141
3051.77	22.3588
3052.6	21.9831
3053.43	21.4745
3054.26	22.2779
3055.08	24.0137
3055.91	24.475
3056.74	21.2996
3057.26	21
3058.09	23.5
3058.92	22
3059.76	24
3060.59	22
3061.42	24.5
3062.25	22
3063.09	20
3063.92	22.5
3064.75	24
3065.58	20
3066.42	25
3067.25	17
3068.08	22.5
3068.91	20
3069.74	23.5
3070.57	22
3071.41	19.5
3072.24	19
3073.07	19
3073.9	21
3074.73	23
3075.56	20.5
3076.39	22.5
3077.22	19
3078.05	23
3078.88	24.5
3079.71	21
3080.54	26
3081.37	23.5
3082.2	23.5
3083.03	23
3083.86	25.5
3084.69	26
3085.52	22.5
3086.35	21
3087.18	23
3088.01	21.5
3088.84	20.5
3089.67	22
3090.5	21.5
3091.32	24
3092.15	23
3092.98	24.5
3093.81	23
3094.64	26
3095.47	20.5
3096.29	26.5
3097.12	20.5
3097.95	20.5
3098.78	26
3099.6	19
3100.43	21
3101.26	22
3102.09	27
3102.91	22
3103.74	21.5
3104.57	21
3105.39	25
3106.22	24
3107.05	23
3107.87	24.5
3108.7	23
3109.52	25
3110.35	23.5
3111.18	16.5
3112	24.5
3112.83	25.5
3113.65	26
3114.48	21
3115.3	25.5
3116.13	25
3116.95	25
3117.78	22
3118.6	22
3119.43	26.5
3120.25	24
3121.08	20.5
3121.9	23.5
3122.72	21
3123.55	22
3124.37	22.5
3125.2	20.5
3126.02	19.5
3126.84	25.5
3127.67	21
3128.49	22.5
3129.31	22.5
3130.14	22.5
3130.96	23
3131.78	26
3132.61	26
3133.43	20.5
3134.25	21.5
3135.07	23.5
3135.89	21
3136.72	19
3137.54	22.5
3138.36	18.5
3139.18	22
3140	27
3140.83	24
3141.65	21
3142.47	24
3143.29	23
3144.11	21
3144.93	21.5
3145.75	23
3146.57	24
3147.4	23
3148.22	25.5
3149.04	24
3149.86	21
3150.68	22
3151.5	23.5
3152.32	20.5
3153.14	24.5
3153.96	19.5
3154.78	22.5
3155.59	22
3156.42	23.5
3157.23	23.5
3158.05	25
3158.87	25
3159.69	26
3160.51	23
3161.33	21.5
3162.15	21
3162.97	19.5
3163.78	24.5
3164.6	25
3165.42	24
3166.24	26
3167.06	24.5
3167.87	22.5
3168.69	23
3169.51	23
3170.33	25.5
3171.14	23
3171.96	23.5
3172.78	25.5
3173.6	20
3174.41	25
3175.23	22.5
3176.05	23
3176.86	24.5
3177.68	26.5
3178.5	20
3179.31	19.5
3180.13	21.5
3180.94	20
3181.76	24
3182.58	23.5
3183.39	22
3184.21	26
3185.02	21.5
3185.84	26.5
3186.65	25.5
3187.47	25
3188.28	25
3189.1	25
3189.91	24.5
3190.73	23.5
3191.54	24.5
3192.36	21
3193.17	25
3193.98	25
3194.8	19.5
3195.61	22.5
3196.43	21
3197.24	24
3198.05	23
3198.87	23.5
3199.68	23
3200.49	25.5
3201.31	21
3202.12	23.5
3202.93	23
3203.75	27
3204.56	23
3205.37	18.5
3206.18	21.5
3207	25
3207.81	24
3208.62	23.5
3209.43	22.5
3210.24	23
3211.06	26
3211.87	23
3212.68	19
3213.49	24
3214.3	24.5
3215.11	24
3215.92	23.5
3216.73	24
3217.55	24
3218.36	25
3219.17	23
3219.98	21
3220.79	21.5
3221.6	22
3222.41	27
3223.22	24
3224.03	24.5
3224.84	23
3225.65	21
3226.46	23.5
3227.27	25
3228.08	21
3228.89	23
3229.7	29
3230.5	28
3231.31	24
3232.12	23.5
3232.93	23.5
3233.74	20
3234.55	23.5
3235.36	22.5
3236.16	19.5
3236.97	25
3237.78	24.5
3238.59	26
3239.4	24
3240.2	22
3241.01	21.5
3241.82	24.5
3242.63	19
3243.43	22.5
3244.24	23.5
3245.05	25
3245.85	26
3246.66	26
3247.47	23.5
3248.27	27
3249.08	29
3249.89	21
3250.69	26
3251.5	20
3252.31	23.5
3253.11	24
3253.92	25.5
3254.72	27
3255.53	23.5
3256.33	23.5
3257.14	22
3257.94	21
3258.75	22
3259.55	24.5
3260.36	21
3261.16	22
3261.97	25
3262.77	22.5
3263.58	26.5
3264.38	22
3265.19	22
3265.99	27
3266.79	23.5
3267.6	27
3268.4	22
3269.21	20
3270.01	23.5
3270.81	24.5
3271.62	24.5
3272.42	24.5
3273.22	26.5
3274.03	26.5
3274.83	22
3275.63	24
3276.43	23.5
3277.24	19.5
3278.04	20.5
3278.84	24
3279.64	23.5
3280.45	23
3281.25	26
3282.05	22
3282.85	22
3283.65	20
3284.45	21
3285.26	26
3286.06	26
3286.86	25.5
3287.66	25
3288.46	23.5
3289.26	24.5
3290.06	24
3290.86	26
3291.66	22.5
3292.46	26
3293.26	23
3294.06	24.5
3294.86	22
3295.66	26.5
3296.46	26
3297.26	24.5
3298.06	26
3298.86	23
3299.66	24
3300.46	23
3301.26	22
3302.06	25.5
3302.86	26
3303.66	27.5
3304.46	24
3305.25	24
3306.05	22.5
3306.85	23
3307.65	25.5
3308.45	23
3309.25	24
3310.04	25
3310.84	25.5
3311.64	26
3312.44	24
3313.23	21.5
3314.03	20
3314.83	21
3315.63	24.5
3316.42	23.5
3317.22	21.5
3318.02	25.5
3318.81	25
3319.61	24.5
3320.41	23.5
3321.2	22
3322	23
3322.8	25.5
3323.59	21
3324.39	25
3325.18	25.5
3325.98	26
3326.78	23.5
3327.57	28
3328.37	24
3329.16	24.5
3329.96	25.5
3330.75	23
3331.55	25.5
3332.34	22
3333.14	24.5
3333.93	24.5
3334.73	24.5
3335.52	22.5
3336.31	22.5
3337.11	21.5
3337.9	25
3338.7	25.5
3339.49	30
3340.28	22.5
3341.08	26
3341.87	24
3342.66	26.5
3343.46	25
3344.25	23
3345.04	19
3345.84	27
3346.63	25
3347.42	22
3348.22	26.5
3349.01	25
3349.8	25
3350.59	21
3351.39	26.5
3352.18	26
3352.97	24
3353.76	23
3354.55	29
3355.35	24
3356.14	25.5
3356.93	23
3357.72	25
3358.51	24
3359.3	23.5
3360.09	25
3360.88	26
3361.67	21.5
3362.46	23
3363.26	26
3364.05	25
3364.84	19
3365.63	19
3366.42	27
3367.21	23
3368	25.5
3368.79	23.5
3369.58	24.5
3370.37	21.5
3371.15	24
3371.94	23
3372.73	24.5
3373.52	22
3374.31	25.5
3375.1	25
3375.89	23.5
3376.68	24
3377.47	26
3378.26	27
3379.04	24.5
3379.83	25.5
3380.62	26
3381.41	25
3382.2	28
3382.98	23.5
3383.77	24.5
3384.56	26.5
3385.35	20
3386.13	24.5
3386.92	22
3387.71	21.5
3388.5	26
3389.28	22
3390.07	25
3390.86	24
3391.64	23.5
3392.43	25
3393.22	24.5
3394	27
3394.79	23
3395.57	23.5
3396.36	24.5
3397.15	24.5
3397.93	23.5
3398.72	22.5
3399.5	24
3400.29	23
3401.07	25.5
3401.86	22
3402.65	22.5
3403.43	25.5
3404.21	25
3405	24
3405.78	27
3406.57	24
3407.35	23
3408.14	20
3408.92	23
3409.71	28
3410.49	24
3411.27	27
3412.06	24
3412.84	24
3413.62	24
3414.41	28
3415.19	23
3415.97	24.5
3416.76	23.5
3417.54	24
3418.32	22
3419.11	24.5
3419.89	21.5
3420.67	22.5
3421.46	24
3422.24	27
3423.02	20.5
3423.8	24.5
3424.58	24.5
3425.37	24.5
3426.15	21.5
3426.93	25
3427.71	23.5
3428.49	26.5
3429.27	24.5
3430.05	20.5
3430.84	23.5
3431.62	23.5
3432.4	24
3433.18	25
3433.96	20.5
3434.74	22.5
3435.52	23.5
3436.3	21
3437.08	25
3437.86	20
3438.64	25.5
3439.42	24
3440.2	27.5
3440.98	22
3441.76	23.5
3442.54	24.5
3443.32	19
3444.1	22
3444.88	25.5
3445.66	24
3446.44	26
3447.22	20
3448	21.5
3448.77	24
3449.55	24.5
3450.33	26
3451.11	21.5
3451.89	21
3452.67	20
3453.45	24.5
3454.22	22.5
3455	22
3455.78	22
3456.56	20.5
3457.33	20.5
3458.11	22.5
3458.89	21
3459.67	22.5
3460.44	23.5
3461.22	26
3462	22
3462.77	19.5
3463.55	23.5
3464.33	21
3465.1	22
3465.88	25.5
3466.66	24
3467.43	22.5
3468.21	20
3468.98	21.5
3469.76	18
3470.54	24
3471.31	22.5
3472.09	20
3472.86	25
3473.64	24
3474.41	22
3475.19	22
3475.96	22
3476.74	23
3477.51	22.5
3478.29	23
3479.06	26
3479.84	23
3480.61	22
3481.39	22
3482.16	25
3482.93	22
3483.71	26
3484.48	26
3485.25	25
3486.03	23
3486.8	23
3487.57	26.5
3488.35	25
3489.12	21
3489.89	24
3490.67	21
3491.44	23
3492.21	25
3492.99	20
3493.76	26.5
3494.53	21
3495.3	22.5
3496.08	23
3496.85	24
3497.62	26.5
3498.39	20.5
3499.16	21.5
3499.93	25
