#Acq. time (s)=	5
#Accumulations=	5
#Range (cm-¹)=	100...3500
#Windows=	4
#Autofocus=	Off
#AutoExposure=	Off
#Spike filter=	Multiple accum.
#Delay time (s)=	0
#Binning=	1
#Readout mode=	Signal
#DeNoise=	Off
#ICS correction=	Off
#Dark correction=	Off
#Inst. Process=	Off
#Instrument=	LabRAM HR Evol
#Detector=	Syncerity OE
#Objective=	x100_VIS
#Grating=	600 (500nm)
#ND Filter=	25%
#Laser=	633nm_Edge
#Hole=	100.021
#Range=	Visible
#Project=	verificaciones
#Sample=	at5
#Site=	plain
#Title=	bolusat5plain
#Remark=	
#Date=	13.01.2026 19:22
#Acquired=	13.01.2026 19:22:36
100.692	28.5
101.975	27.5
103.258	28.5
104.542	29.5
105.824	28.5
107.107	30.5
108.39	27
109.672	27.5
110.954	30
112.236	33.5
113.519	30
114.8	29.5
116.081	26
117.362	32.5
118.643	33.5
119.924	29
121.204	34.5
122.484	31
123.764	31.5
125.044	30.5
126.323	28.5
127.603	30.5
128.882	31.5
130.161	30
131.438	32
132.716	28.5
133.995	29.5
135.273	33.5
136.55	31
137.828	32.5
139.106	34
140.383	34.5
141.66	33
142.937	35.5
144.213	34.5
145.488	35.5
146.764	38
148.04	35
149.316	38
150.592	39.5
151.867	38
153.141	37
154.416	42.5
155.69	40
156.965	35
158.239	35
159.512	35.5
160.786	38
162.059	35
163.333	38
164.605	36.5
165.878	37
167.15	34.5
168.423	36.5
169.694	39
170.966	32
172.238	36
173.51	38.5
174.78	38
176.052	37.5
177.323	36.5
178.592	36.5
179.863	35.5
181.134	38.5
182.403	39.5
183.673	39
184.943	37
186.211	33
187.481	38.5
188.749	40.5
190.018	34.5
191.287	34.5
192.554	40.5
193.822	37.5
195.089	39.5
196.357	37.5
197.625	33.5
198.891	38
200.159	36.5
201.425	35.5
202.692	33
203.957	32
205.224	33.5
206.489	33
207.755	35.5
209.02	32
210.286	35.5
211.55	39.5
212.815	38.5
214.079	32
215.344	33
216.607	30
217.872	31
219.135	34.5
220.399	28
221.662	30.5
222.924	33
224.187	32
225.449	33.5
226.713	28.5
227.974	30.5
229.235	33
230.498	32
231.759	30
233.019	34.5
234.281	29
235.542	33
236.802	30.5
238.063	28
239.323	29
240.582	31
241.843	25.5
243.102	31
244.361	30
245.621	27
246.879	30
248.138	28
249.396	30
250.655	28.5
251.913	31
253.17	24.5
254.427	27
255.686	28
256.943	28.5
258.199	31.5
259.456	32
260.712	32
261.969	27.5
263.225	31
264.481	32.5
265.736	29.5
266.991	26.5
268.246	26
269.502	27
270.757	28
272.011	25
273.265	28.5
274.519	30
275.773	30
277.027	29
278.28	27
279.533	27.5
280.786	26.5
282.04	28.5
283.293	32.5
284.545	32
285.798	26.5
287.049	29.5
288.301	22
289.553	30
290.804	24
292.055	27.5
293.306	29
294.557	26.5
295.807	23
297.058	30
298.308	29
299.558	26
300.808	27.5
302.057	26
303.305	26
304.554	28.5
305.803	28
307.052	28.5
308.3	30
309.549	27
310.797	28.5
312.045	27.5
313.292	28
314.54	28
315.786	26.5
317.033	26.5
318.28	30
319.526	21
320.773	27
322.019	27
323.264	30
324.51	27
325.755	30.5
327.001	29.5
328.246	31.5
329.49	25
330.735	28
331.979	30
333.224	26.5
334.467	30
335.711	29
336.955	29.5
338.199	27
339.441	27
340.684	28.5
341.927	29
343.168	23.5
344.411	29
345.654	28.5
346.895	28.5
348.137	30
349.379	28.5
350.619	33.5
351.86	24
353.102	28
354.341	32
355.582	25
356.821	26
358.062	29.5
359.302	29
360.541	27.5
361.781	30.5
363.019	27.5
364.259	28.5
365.496	27.5
366.736	30
367.974	27.5
369.212	27.5
370.45	26.5
371.687	27.5
372.925	25
374.162	28
375.399	25
376.635	27
377.873	29.5
379.109	24
380.344	27.5
381.581	27
382.816	27
384.052	27.5
385.287	23.5
386.523	27.5
387.757	31.5
388.991	30
390.227	30.5
391.46	27
392.695	28
393.928	26
395.162	28.5
396.396	26
397.629	30
398.861	26
400.095	31
401.327	29
402.559	26.5
403.792	30
405.024	23.5
406.255	27
407.488	24
408.719	24.5
409.949	31.5
411.18	27
412.412	31.5
413.642	32
414.872	26
416.102	26.5
417.333	26
418.562	28.5
419.791	26.5
421.02	30
422.249	27.5
423.479	26
424.707	27.5
425.935	25.5
427.163	24
428.391	27.5
429.619	29
430.848	28.5
432.075	28
433.302	26.5
434.529	28.5
435.755	27
436.982	26
438.208	31
439.434	29.5
440.66	30
441.885	29
443.111	27.5
444.338	29.5
445.563	26.5
446.788	24
448.012	27.5
449.237	28
450.461	29
451.685	27.5
452.909	25
454.133	30
455.356	28
456.579	26
457.802	31
459.025	28
460.247	29.5
461.469	30
462.691	28.5
463.914	30.5
465.136	30
466.357	28
467.579	31.5
468.8	30.5
470.021	30
471.242	36.5
472.462	32.5
473.682	36
474.903	33
476.123	37
477.343	37.5
478.563	42
479.782	43.5
481	47
482.219	48.5
483.438	47.5
484.657	55
485.874	47.5
487.093	53.5
488.311	52.5
489.529	53
490.747	51
491.963	49
493.181	46
494.398	46.5
495.614	45
496.83	43.5
498.047	42
499.264	37
500.479	39.5
501.695	43
502.911	38.5
504.125	35
505.34	38
506.554	33
507.769	33.5
508.984	31
510.198	31.5
511.412	35.5
512.627	30.5
513.839	33
515.053	33.5
516.266	28.5
517.479	31.5
518.691	32.5
519.905	29
521.118	30
522.329	28.5
523.542	32
524.753	31
525.965	28
527.176	27
528.388	31.5
529.598	33.5
530.809	29.5
532.019	27.5
533.23	30
534.44	30
535.649	27
536.86	29.5
538.068	29.5
539.279	27.5
540.487	27
541.697	33
542.905	29
544.113	27.5
545.322	29.5
546.53	29.5
547.737	30.5
548.946	24
550.153	31
551.361	27
552.568	23.5
553.774	29.5
554.982	27
556.188	27.5
557.394	29.5
558.599	26
559.806	27.5
561.012	28.5
562.217	27.5
563.423	30
564.628	27
565.832	25
567.036	27
568.241	24
569.446	25.5
570.65	31
571.853	29
573.057	29.5
574.26	26.5
575.464	31
576.667	28.5
577.87	28.5
579.072	28
580.274	28
581.477	29.5
582.68	25
583.881	27
585.083	28
586.284	26
587.485	28.5
588.686	27
589.887	28
591.087	26
592.288	27
593.488	26.5
594.688	30
595.888	28.5
597.087	29
598.287	28.5
599.486	28.5
600.685	24
601.884	28.5
603.082	28
604.281	30
605.479	28.5
606.677	26
607.875	32
609.073	27
610.27	27.5
611.468	25.5
612.665	28.5
613.862	32
615.058	31
616.255	29
617.451	27.5
618.648	26.5
619.842	29.5
621.038	29
622.234	28
623.429	32
624.624	27.5
625.819	31.5
627.013	32
628.207	26.5
629.402	26
630.596	28
631.79	28
632.983	30.5
634.177	29
635.37	25
636.564	27
637.755	21
638.948	22
640.141	27
641.334	30
642.525	31.5
643.717	31
644.909	27.5
646.099	25
647.291	28
648.483	29
649.674	29
650.864	27
652.055	31
653.244	28.5
654.435	28
655.625	32
656.814	29
658.004	30
659.193	28.5
660.382	28
661.571	27.5
662.759	25
663.948	27
665.135	25.5
666.324	25.5
667.511	29.5
668.7	30.5
669.886	30
671.074	27
672.262	28.5
673.448	26
674.634	33.5
675.821	31.5
677.007	29
678.194	33
679.379	32
680.565	34.5
681.75	33.5
682.936	35
684.121	36
685.305	37
686.491	31.5
687.675	37
688.86	33
690.043	33
691.227	30.5
692.411	35
693.594	33
694.777	34.5
695.961	34
697.144	34.5
698.326	33.5
699.509	33.5
700.691	34
701.873	37.5
703.056	38
704.237	38.5
705.419	42
706.599	46.5
707.782	50
708.962	46.5
710.143	45.5
711.323	40
712.504	40.5
713.684	36
714.864	34
716.043	34.5
717.223	30
718.403	33
719.582	31.5
720.761	29
721.94	31.5
723.118	31.5
724.296	29
725.474	30.5
726.652	29.5
727.831	28
729.009	32
730.186	28.5
731.363	32
732.54	26
733.717	32
734.893	30
736.07	27
737.246	27.5
738.422	26.5
739.598	30
740.773	28.5
741.949	28
743.124	25
744.299	27.5
745.474	28
746.649	27
747.823	28.5
748.997	26.5
750.172	29.5
751.346	27.5
752.519	34
753.693	25
754.867	27.5
756.038	28.5
757.211	27.5
758.384	28
759.557	28
760.73	27
761.902	26
763.074	28.5
764.246	30.5
765.417	30
766.588	27.5
767.76	29.5
768.931	26.5
770.102	27
771.271	28
772.442	27
773.613	33.5
774.783	30
775.952	32.5
777.122	30
778.291	29.5
779.461	31
780.629	26
781.798	33
782.967	30
784.135	30.5
785.304	30.5
786.472	32
787.639	31
788.807	30
789.975	28
791.142	29.5
792.309	30.5
793.477	27
794.642	28.5
795.81	27
796.975	29.5
798.142	28
799.308	32.5
800.473	28
801.639	28
802.804	26
803.97	30.5
805.134	29
806.299	25.5
807.463	28.5
808.628	27
809.792	22
810.957	30
812.12	30.5
813.284	30
814.447	25
815.611	31
816.773	26
817.937	26.5
819.099	26
820.261	26.5
821.424	24
822.585	25
823.748	29
824.909	25.5
826.07	25.5
827.232	24
828.393	22.5
829.554	30.5
830.715	29.5
831.875	25.5
833.035	26.5
834.196	28
835.356	28.5
836.515	27.5
837.676	26.5
838.835	27.5
839.994	30
841.152	28
842.312	24
843.47	29.5
844.629	29.5
845.786	31
846.946	29
848.103	27.5
849.261	26
850.418	27.5
851.575	30.5
852.733	25
853.89	29.5
855.046	27.5
856.203	27
857.359	29.5
858.515	25.5
859.67	29
860.827	27
861.983	27
863.138	27.5
864.293	31.5
865.448	32.5
866.603	30
867.757	28
868.912	28
870.066	27
871.22	26
872.374	29
873.527	32
874.681	27.5
875.834	26
876.987	25
878.14	29
879.293	28
880.445	28
881.598	31
882.75	30
883.902	26
885.054	25.5
886.206	26
887.357	30
888.507	27
889.658	26
890.809	27.5
891.96	26
893.111	26.5
894.261	25
895.411	25
896.561	24.5
897.71	25
898.86	25
900.009	29
901.159	28
902.308	24
903.455	27.5
904.604	27
905.753	28.5
906.901	26.5
908.048	29
909.197	26
910.344	24
911.492	25
912.639	27
913.786	25.5
914.933	27
916.079	26
917.226	21.5
918.373	27
919.518	24
920.664	27
921.81	27.5
922.955	26.5
924.101	31.5
925.245	25.5
926.391	26.5
927.536	24
928.68	24.5
929.825	25.5
930.968	25
932.113	24
933.256	26
934.4	27
935.543	24
936.687	24
937.83	24
938.973	23
940.115	26
941.258	26
942.399	23
943.542	26
944.684	28
945.826	32
946.967	26
948.109	29
949.25	26
950.392	25.5
951.532	29
952.672	27
953.813	23.5
954.953	27
956.093	24
957.233	23.5
958.373	25.5
959.512	25
960.652	26.5
961.791	27
962.929	25
964.069	26
965.207	22.5
966.345	25.5
967.484	27
968.622	26.5
969.759	29
970.896	24
972.035	19
973.172	27
974.309	26.5
975.445	29
976.582	28
977.719	24.5
978.855	25
979.991	27
981.127	30.5
982.263	27
983.398	28
984.535	24
985.67	25.5
986.804	23.5
987.939	27
989.074	25
990.208	27.5
991.342	25
992.476	25.5
993.61	27.5
994.744	31
995.877	27.5
997.01	25
998.143	25
999.276	30
1000.41	25.5
1001.54	23.5
1002.67	25
1003.81	27
1004.94	26
1006.07	28.5
1007.2	22
1008.33	25.5
1009.47	23
1010.6	26
1011.73	26.5
1012.86	22
1013.99	29.5
1015.12	26
1016.25	25.5
1017.38	24.5
1018.51	27
1019.64	21.5
1020.77	24.5
1021.9	24.5
1023.03	26
1024.15	26.5
1025.28	26.5
1026.41	25
1027.54	26
1028.67	21.5
1029.8	21.5
1030.92	28.5
1032.05	21.5
1033.18	22.5
1034.31	26
1035.43	27.5
1036.56	29
1037.69	24
1038.81	21
1039.94	30.5
1041.07	23.5
1042.19	26.5
1043.32	24.5
1044.44	26
1045.57	24
1046.69	26.5
1047.82	24
1048.94	26
1050.07	26
1051.19	27
1052.32	27
1053.44	27.5
1054.57	24
1055.69	28.5
1056.81	27
1057.94	25
1059.06	27
1060.18	24
1061.31	27
1062.43	24
1063.55	25.5
1064.67	25.5
1065.8	25
1066.92	25.5
1068.04	26
1069.16	26.5
1070.28	27.5
1071.4	26.5
1072.52	25
1073.64	22
1074.76	24.5
1075.89	26.5
1077.01	26.5
1078.13	25
1079.25	29.5
1080.37	20
1081.49	26.5
1082.6	24.5
1083.72	25
1084.84	22
1085.96	29
1087.08	25
1088.2	26
1089.32	23
1090.43	27
1091.55	25.5
1092.67	26.5
1093.79	22.5
1094.91	26.5
1096.02	26
1097.14	27
1098.26	24.5
1099.37	26
1100.49	25.5
1101.61	25
1102.72	24
1103.84	26.5
1104.95	22.5
1106.07	23
1107.18	25
1108.3	22
1109.41	26
1110.53	26
1111.64	25.5
1112.76	25
1113.87	22.5
1114.99	23
1116.1	23
1117.21	25
1118.33	25
1119.44	25
1120.55	25
1121.67	25.5
1122.78	26.5
1123.89	23.5
1125	23
1126.12	24.5
1127.23	24
1128.34	24
1129.45	27.5
1130.56	27
1131.68	25
1132.79	25.5
1133.9	24.5
1135.01	24
1136.12	23
1137.23	27.5
1138.34	26
1139.45	23
1140.56	21.5
1141.67	18
1142.78	22
1143.89	27
1145	24
1146.11	26
1147.22	28.5
1148.32	24
1149.43	24
1150.54	22
1151.65	26.5
1152.76	26.5
1153.86	26
1154.97	25.5
1156.08	22.5
1157.19	29
1158.29	28
1159.4	24
1160.51	28.5
1161.61	23
1162.72	28.5
1163.83	26.5
1164.93	25
1166.04	26.5
1167.14	27
1168.25	28
1169.35	25.5
1170.46	24
1171.56	26
1172.67	27
1173.77	25.5
1174.88	24.5
1175.98	21
1177.08	24.5
1178.19	25.5
1179.29	25.5
1180.4	27.5
1181.5	25
1182.6	29
1183.71	23.5
1184.81	22.5
1185.91	27
1187.01	28
1188.12	24.5
1189.22	23
1190.32	22
1191.42	23.5
1192.52	22
1193.62	28.5
1194.72	24.4879
1195.83	22.9931
1196.93	25.9561
1198.03	22.5238
1199.13	24.4568
1200.23	26.7873
1201.33	26.1392
1202.43	23.4468
1203.53	27.2256
1204.63	24.9842
1205.73	23.1104
1206.83	27.6455
1207.92	22.9569
1209.02	26.7877
1210.12	23.2142
1211.22	27.0218
1212.32	22.5413
1213.42	26.6473
1214.51	23.9697
1215.61	25.075
1216.71	25.1513
1217.81	22.3012
1218.9	24.1364
1220	23.4774
1221.1	24.6314
1222.19	24.117
1223.29	22.2208
1224.39	25.733
1225.48	25.7458
1226.58	26.9408
1227.68	21.1291
1228.77	24.2345
1229.87	26.1651
1230.96	23.4051
1232.06	24.6727
1233.15	22.3756
1234.25	25.03
1235.34	26.0195
1236.43	23.1332
1237.53	23.5444
1238.62	24.243
1239.72	24.5971
1240.81	24.5794
1241.9	23.9442
1243	22.7886
1244.09	23.2654
1245.18	27.0459
1246.27	25.2776
1247.37	24.2393
1248.46	24.1277
1249.55	23.3622
1250.64	21.0612
1251.74	25.4508
1252.83	24.4494
1253.92	27.618
1255.01	27.2673
1256.1	27.9077
1257.19	25.1811
1258.28	27.1991
1259.38	27.5977
1260.46	26.979
1261.56	25.5478
1262.65	27.6747
1263.74	25.8148
1264.82	24.8049
1265.91	24.4731
1267	24.4152
1268.09	26.2922
1269.18	24.5249
1270.27	24.084
1271.36	23.4008
1272.45	23.5413
1273.54	23.0757
1274.63	23.6813
1275.71	24.6054
1276.8	22.3059
1277.89	24.9874
1278.98	24.7524
1280.06	24.3558
1281.15	26.4651
1282.24	26.3337
1283.32	28.9609
1284.41	25.6426
1285.5	25.2427
1286.58	25.8204
1287.67	26.5752
1288.76	22.6154
1289.84	24.1707
1290.93	23.9008
1292.01	21.5397
1293.1	26.033
1294.18	23.6818
1295.27	21.7736
1296.35	21.577
1297.44	22.8736
1298.52	22.557
1299.6	24.4841
1300.69	25.8249
1301.77	24.5438
1302.86	23.8981
1303.94	23.2658
1305.02	25.5744
1306.11	23.6219
1306.41	22.5
1307.5	26.5
1308.59	26.5
1309.68	27
1310.77	26.5
1311.85	27
1312.94	26
1314.03	26
1315.11	21.5
1316.2	25.5
1317.29	27.5
1318.37	20
1319.46	25
1320.55	25
1321.63	25.5
1322.72	22.5
1323.8	27
1324.89	23.5
1325.98	23
1327.06	27.5
1328.15	21.5
1329.23	20
1330.31	22.5
1331.4	27.5
1332.48	26.5
1333.57	20.5
1334.65	27.5
1335.74	24
1336.82	25
1337.9	25.5
1338.99	23.5
1340.07	25
1341.15	21
1342.24	26
1343.32	28.5
1344.4	22
1345.48	26
1346.56	24.5
1347.65	25
1348.73	27
1349.81	20.5
1350.89	24
1351.97	23.5
1353.05	26
1354.13	28.5
1355.21	27
1356.29	21
1357.37	24.5
1358.46	20.5
1359.54	27.5
1360.62	27
1361.69	24.5
1362.77	22
1363.85	25
1364.93	23
1366.01	25.5
1367.09	26.5
1368.17	26
1369.25	24
1370.33	27
1371.41	23.5
1372.48	28
1373.56	26
1374.64	30
1375.72	20.5
1376.79	24.5
1377.87	28
1378.95	23.5
1380.02	25
1381.1	23
1382.18	27
1383.25	24
1384.33	26.5
1385.4	27.5
1386.48	27.5
1387.56	25.5
1388.63	26.5
1389.71	23
1390.78	28
1391.86	27
1392.93	27
1394.01	24
1395.08	26
1396.15	25
1397.23	27.5
1398.3	24
1399.38	31
1400.45	31
1401.52	28.5
1402.6	32.5
1403.67	30
1404.74	26
1405.81	28.5
1406.89	29.5
1407.96	29
1409.03	26.5
1410.1	29.5
1411.17	25.5
1412.25	31
1413.32	30
1414.39	30.5
1415.46	28
1416.53	28.5
1417.6	28.5
1418.67	27
1419.74	29
1420.81	30.5
1421.88	26
1422.95	26
1424.02	31.5
1425.09	26
1426.16	28
1427.23	26.5
1428.3	25.5
1429.37	29
1430.44	25.5
1431.51	23.5
1432.58	32.5
1433.64	30
1434.71	24
1435.78	27.5
1436.85	28
1437.92	23
1438.98	27
1440.05	27.5
1441.12	26
1442.18	30
1443.25	28.5
1444.32	26
1445.38	23.5
1446.45	25
1447.52	23.5
1448.58	25
1449.65	23.5
1450.71	27
1451.78	27
1452.84	28
1453.91	23.5
1454.97	24
1456.04	26.5
1457.1	26
1458.17	26
1459.23	27
1460.3	26.5
1461.36	27
1462.42	22.5
1463.49	28
1464.55	28
1465.61	27.5
1466.68	27.5
1467.74	29
1468.8	25
1469.86	26
1470.93	27.5
1471.99	28
1473.05	25.5
1474.11	24
1475.17	25
1476.24	27.5
1477.3	24
1478.36	25.5
1479.42	26
1480.48	22
1481.54	24
1482.6	20
1483.66	28
1484.72	27
1485.78	27
1486.84	29
1487.9	26
1488.96	26
1490.02	26
1491.08	24
1492.14	24
1493.2	25.5
1494.26	24
1495.31	26.5
1496.37	30.5
1497.43	27.5
1498.49	27
1499.55	24
1500.6	25.5
1501.66	27
1502.72	26
1503.78	24
1504.83	21.5
1505.89	24.5
1506.95	23
1508	26
1509.06	22
1510.12	27
1511.17	24.5
1512.23	24.5
1513.28	24
1514.34	25.5
1515.39	22.5
1516.45	25.5
1517.5	26
1518.56	24.5
1519.61	28
1520.67	25.5
1521.72	26
1522.78	23
1523.83	27.5
1524.88	23.5
1525.94	28
1526.99	26
1528.05	27
1529.1	25.5
1530.15	25
1531.2	26
1532.26	26
1533.31	29.5
1534.36	24.5
1535.41	25.5
1536.47	29
1537.52	26
1538.57	25.5
1539.62	28
1540.67	24.5
1541.72	25.5
1542.77	25
1543.83	25
1544.88	25.5
1545.93	23
1546.98	24.5
1548.03	27.5
1549.08	28
1550.13	26.5
1551.18	25
1552.23	26.5
1553.28	27.5
1554.32	27
1555.37	26.5
1556.42	22.5
1557.47	27
1558.52	24
1559.57	28
1560.62	29.5
1561.67	25.5
1562.71	27.5
1563.76	26
1564.81	24
1565.86	23.5
1566.9	25
1567.95	29.5
1569	26
1570.04	30
1571.09	22.5
1572.14	26.5
1573.18	27
1574.23	30.5
1575.27	24
1576.32	28
1577.37	26.5
1578.41	27.5
1579.46	26
1580.5	25.5
1581.55	28.5
1582.59	22.5
1583.64	25.5
1584.68	25.5
1585.72	21
1586.77	24
1587.81	25
1588.86	23.5
1589.9	23.5
1590.94	27
1591.99	21
1593.03	24
1594.07	27
1595.12	24
1596.16	28
1597.2	24.5
1598.24	24
1599.29	26.5
1600.33	23
1601.37	26.5
1602.41	24
1603.45	28.5
1604.49	23
1605.53	26
1606.58	26
1607.62	24
1608.66	24
1609.7	23.5
1610.74	25.5
1611.78	27.5
1612.82	27
1613.86	23
1614.9	26.5
1615.94	23.5
1616.98	25
1618.02	28.5
1619.06	25
1620.09	24.5
1621.13	26
1622.17	26.5
1623.21	27
1624.25	21.5
1625.29	26
1626.32	26
1627.36	25
1628.4	26
1629.44	27
1630.47	24
1631.51	24
1632.55	23
1633.58	23
1634.62	29.5
1635.66	26.5
1636.69	21
1637.73	25.5
1638.77	28
1639.8	28
1640.84	23.5
1641.87	25
1642.91	22
1643.94	26
1644.98	24.5
1646.01	28.5
1647.05	21
1648.08	27
1649.12	28
1650.15	26
1651.18	27.5
1652.22	23
1653.25	23
1654.29	28.5
1655.32	21.5
1656.35	23.5
1657.39	24
1658.42	23
1659.45	26.5
1660.48	27
1661.52	28.5
1662.55	24
1663.58	23
1664.61	25
1665.64	27
1666.68	24
1667.71	23
1668.74	25.5
1669.77	24.5
1670.8	25.5
1671.83	25
1672.86	25.5
1673.89	23.5
1674.92	26
1675.95	28
1676.98	27
1678.01	22.5
1679.04	23.5
1680.07	25.5
1681.1	25
1682.13	27
1683.16	25
1684.19	26.5
1685.22	24
1686.25	28.5
1687.27	26.5
1688.3	26
1689.33	25.5
1690.36	25.5
1691.38	29.5
1692.41	26
1693.44	25
1694.47	28.5
1695.49	26
1696.52	23.5
1697.55	27.5
1698.57	26
1699.6	25.5
1700.63	24
1701.65	26
1702.68	26
1703.7	22.5
1704.73	25
1705.76	23
1706.78	28
1707.81	26.5
1708.83	23
1709.86	31
1710.88	26
1711.91	24
1712.93	23.5
1713.95	22.5
1714.98	24.5
1716	29
1717.03	22.5
1718.05	28
1719.07	22.5
1720.1	29.5
1721.12	24.5
1722.14	24
1723.16	29
1724.19	26
1725.21	29
1726.23	26
1727.25	25
1728.28	24.5
1729.3	26
1730.32	25.5
1731.34	23.5
1732.36	24.5
1733.38	25.5
1734.41	21
1735.43	24
1736.45	26
1737.47	25
1738.49	27
1739.51	26.5
1740.53	26.5
1741.55	25
1742.57	22
1743.59	25.5
1744.61	30.5
1745.63	28.5
1746.64	20.5
1747.66	24.5
1748.68	26
1749.7	26.5
1750.72	25.5
1751.74	24.5
1752.76	24
1753.77	23
1754.79	26.5
1755.81	27
1756.83	28.5
1757.84	26
1758.86	18.5
1759.88	24.5
1760.9	24
1761.91	23.5
1762.93	25
1763.95	21
1764.96	26
1765.98	24
1766.99	28
1768.01	22.5
1769.02	26
1770.04	25.5
1771.06	23.5
1772.07	26.5
1773.09	21
1774.1	27
1775.12	23
1776.13	26
1777.14	27
1778.16	25.5
1779.17	28.5
1780.19	26
1781.2	25
1782.21	23.5
1783.23	22.5
1784.24	26.5
1785.25	25.5
1786.27	26.5
1787.28	29
1788.29	23.5
1789.3	25
1790.32	23.5
1791.33	25
1792.34	29
1793.35	22.5
1794.36	23
1795.38	29.5
1796.39	27.5
1797.4	25.5
1798.41	24.5
1799.42	24
1800.43	24.5
1801.44	23
1802.45	26
1803.46	29
1804.47	25.5
1805.48	26
1806.49	28.5
1807.5	28
1808.51	28
1809.52	26.5
1810.53	25
1811.54	23.5
1812.55	27.5
1813.56	26
1814.57	25
1815.57	27
1816.58	26
1817.59	25.5
1818.6	27
1819.61	25
1820.61	26
1821.62	21
1822.63	24.5
1823.64	26
1824.64	27.5
1825.65	21.5
1826.66	25.5
1827.66	26
1828.67	23
1829.68	24
1830.68	25
1831.69	26
1832.69	24.5
1833.7	27
1834.7	25
1835.71	26
1836.71	22.5
1837.72	27.5
1838.72	28.5
1839.73	23.5
1840.73	24
1841.74	22.5
1842.74	24.5
1843.75	24
1844.75	26.5
1845.75	26
1846.76	24
1847.76	26.5
1848.76	27.5
1849.77	28
1850.77	22
1851.77	23
1852.78	26
1853.78	27
1854.78	31.5
1855.78	25
1856.78	26
1857.79	25
1858.79	23
1859.79	25
1860.79	26
1861.79	23
1862.79	28
1863.79	24.5
1864.79	29
1865.79	28
1866.8	25.5
1867.8	26
1868.8	22.5
1869.8	24
1870.8	24.5
1871.8	22
1872.8	25
1873.79	27
1874.79	25
1875.79	26
1876.79	25
1877.79	25
1878.79	27
1879.79	22
1880.79	25.5
1881.78	21.5
1882.78	27
1883.78	25
1884.78	24
1885.77	26
1886.77	26.5
1887.77	29
1888.77	26.5
1889.76	26
1890.76	26
1891.76	25.5
1892.75	28
1893.75	26.5
1894.75	24
1895.74	27.5
1896.74	24.5
1897.73	23.5
1898.73	22
1899.73	23.5
1900.72	24.5
1901.72	23
1902.71	28
1903.7	23.5
1904.7	25.5
1905.69	24.5
1906.69	28.5
1907.68	26.5
1908.68	27
1909.67	28
1910.66	24.5
1911.66	26
1912.65	23
1913.64	22.5
1914.64	26
1915.63	24.5
1916.62	28
1917.62	27.5
1918.61	24
1919.6	25
1920.59	26
1921.58	22.5
1922.58	25
1923.57	23.5
1924.56	25
1925.55	26
1926.54	24
1927.53	23.5
1928.52	25.5
1929.51	20.5
1930.51	27
1931.5	26.5
1932.49	25
1933.48	24
1934.47	27
1935.46	20
1936.45	26.5
1937.44	20.5
1938.42	22
1939.41	19
1940.4	29
1941.39	25
1942.38	24
1943.37	24.5
1944.36	20.5
1945.35	25
1946.33	26
1947.32	26.5
1948.31	25.5
1949.3	22
1950.29	21
1951.27	26
1952.26	27.5
1953.25	23.5
1954.23	23.5
1955.22	25.5
1956.21	25
1957.19	26.5
1958.18	28
1959.17	23
1960.15	23.5
1961.14	24
1962.13	22
1963.11	25.5
1964.1	26
1965.08	26
1966.07	26.5
1967.05	24.5
1968.04	23
1969.02	24.5
1970.01	24
1970.99	26
1971.97	24.5
1972.96	25.5
1973.94	27
1974.93	23
1975.91	27.5
1976.89	23.5
1977.88	24.5
1978.86	27
1979.84	21
1980.83	23
1981.81	25
1982.79	21.5
1983.77	21.5
1984.76	20.5
1985.74	25.5
1986.72	27.5
1987.7	24
1988.68	24
1989.67	25.5
1990.65	25.5
1991.63	22
1992.61	23.5
1993.59	21
1994.57	25.5
1995.55	23.5
1996.53	25.5
1997.51	25
1998.49	25
1999.47	30
2000.45	23
2001.43	22
2002.41	21.5
2003.39	25
2004.37	23.5
2005.35	26
2006.33	26
2007.31	25
2008.29	27.5
2009.26	22
2010.24	26.5
2011.22	23.5
2012.2	25.5
2013.18	23
2014.15	24
2015.13	25
2016.11	23
2017.09	23.5
2018.06	26.5
2019.04	23
2020.02	23.5
2021	24.5
2021.97	26
2022.95	22.5
2023.92	24.5
2024.9	22
2025.88	26
2026.85	24
2027.83	24.5
2028.8	24
2029.78	22
2030.75	26
2031.73	22
2032.7	22.5
2033.68	23.5
2034.65	26
2035.63	23
2036.6	24.5
2037.58	25
2038.55	27
2039.52	25.5
2040.5	24.5
2041.47	26
2042.45	22.5
2043.42	25.5
2044.39	23.5
2045.36	19
2046.34	22
2047.31	21
2048.28	23
2049.26	22.5
2050.23	26
2051.2	25.5
2052.17	30
2053.14	23
2054.12	24.5
2055.09	22.5
2056.06	25.5
2057.03	24
2058	23
2058.97	24.5
2059.94	23
2060.91	25
2061.88	18.5
2062.85	21.5
2063.82	24.5
2064.79	23
2065.76	28
2066.73	22.5
2067.7	22.5
2068.67	23.5
2069.64	22
2070.61	24
2071.58	21.5
2072.55	24.5
2073.52	26.5
2074.49	21
2075.45	20
2076.42	19
2077.39	23.5
2078.36	25.5
2079.33	25.5
2080.29	20.5
2081.26	21.5
2082.23	24
2083.2	26.5
2084.16	25.5
2085.13	23.5
2086.1	25.5
2087.06	20.5
2088.03	25
2089	20.5
2089.96	24.5
2090.93	21
2091.89	27.5
2092.86	23.5
2093.83	25
2094.79	25.5
2095.76	25.5
2096.72	21.5
2097.69	20.5
2098.65	27
2099.62	23.5
2100.58	26
2101.55	25.5
2102.51	23
2103.47	24
2104.44	26.5
2105.4	22.5
2106.36	26
2107.33	23.5
2108.29	24.5
2109.25	24
2110.22	28
2111.18	24
2112.14	21
2113.11	20
2114.07	20
2115.03	26
2115.99	26
2116.96	23
2117.92	28
2118.88	23
2119.84	21.5
2120.8	21
2121.76	24.5
2122.72	24.5
2123.68	21.5
2124.65	26
2125.61	24
2126.57	24
2127.53	22.5
2128.49	22.5
2129.45	24.5
2130.41	24
2131.37	25.5
2132.33	25
2133.29	24
2134.25	24
2135.21	24
2136.17	23.5
2137.12	18.5
2138.08	21.5
2139.04	24
2140	25
2140.96	24
2141.92	26
2142.88	23.9945
2143.83	23.9602
2144.79	25.0046
2145.75	26.0156
2146.71	24.4928
2147.66	24.8526
2148.62	23.907
2149.58	25.9545
2150.53	24.5616
2151.49	23.675
2152.45	25.7812
2153.4	24.9614
2154.36	23.9944
2155.32	21.9953
2156.27	22.7054
2157.23	25.4773
2158.19	24.0141
2159.14	20.7545
2160.1	21.2481
2161.05	24.112
2162.01	21.6134
2162.96	22.4622
2163.92	21.1475
2164.87	27.1699
2165.83	23.822
2166.78	23.5444
2167.73	21.5146
2168.69	20.5548
2169.64	25.8993
2170.6	28.0981
2171.55	23.6357
2172.5	24.8272
2173.46	22.1899
2174.41	22.4925
2175.36	23.3277
2176.32	22.0399
2177.27	23.4871
2178.22	23.4084
2179.18	22.3159
2180.13	25.9853
2181.08	21.4941
2182.03	24.3479
2182.98	22.7217
2183.94	21.5071
2184.89	23.6619
2185.84	24.0842
2186.79	21.1772
2187.74	21.9312
2188.69	22.5218
2189.64	23.557
2190.6	23.4709
2191.55	23.2574
2192.5	24.7302
2193.45	21.7976
2194.4	23.7799
2195.35	22.2599
2196.3	20.9081
2197.25	23.9947
2198.2	24.8833
2199.15	22.8484
2200.1	22.493
2201.04	22.5567
2201.99	22.3854
2202.94	22.7016
2203.89	24.2239
2204.84	23.8014
2205.79	24.1302
2206.74	22.3455
2207.69	24.567
2208.63	20.9712
2209.58	22.1714
2210.53	23.4273
2211.48	25.0279
2212.43	21.2473
2213.37	23.2314
2214.32	22.0053
2215.27	20.7909
2216.21	22.6732
2217.16	21.9053
2218.11	23.6376
2219.05	21.0649
2220	24.3942
2220.95	21.3715
2221.89	20.8502
2222.84	23.9126
2223.78	22.3898
2224.73	24.5383
2225.68	24.9248
2226.62	22.7729
2227.57	23.8407
2228.51	24.1814
2229.46	24.8388
2230.4	22.3727
2231.35	21.9078
2232.29	21.7128
2233.24	22.141
2234.18	24.7444
2235.12	24.9466
2236.07	26.191
2237.01	24.4274
2237.95	22.0606
2238.9	24.9184
2239.84	22.9652
2240.06	22
2241.01	24.5
2241.96	24
2242.91	23
2243.86	24
2244.8	26
2245.75	25
2246.7	21.5
2247.65	22
2248.59	18
2249.54	24.5
2250.49	18.5
2251.43	21
2252.38	22
2253.33	18
2254.27	25
2255.22	22
2256.16	22
2257.11	22
2258.06	26.5
2259	20
2259.95	26.5
2260.89	21
2261.84	24
2262.78	24
2263.73	25
2264.67	19.5
2265.62	24.5
2266.56	22.5
2267.5	22
2268.45	26
2269.39	20.5
2270.34	26.5
2271.28	24.5
2272.22	24
2273.17	24.5
2274.11	24.5
2275.05	24
2276	25
2276.94	21
2277.88	21.5
2278.82	19.5
2279.77	24.5
2280.71	23
2281.65	18
2282.59	22
2283.53	19.5
2284.48	22
2285.42	27
2286.36	25
2287.3	24
2288.24	23
2289.18	25.5
2290.12	23
2291.06	22.5
2292	25.5
2292.94	22
2293.89	25
2294.83	23.5
2295.77	22
2296.71	22.5
2297.65	25
2298.58	21.5
2299.52	26.5
2300.46	24
2301.4	20.5
2302.34	24
2303.28	24
2304.22	26
2305.16	22
2306.1	22.5
2307.03	22
2307.97	22
2308.91	25
2309.85	20
2310.79	21
2311.72	24
2312.66	24
2313.6	23.5
2314.54	24
2315.47	22
2316.41	24.5
2317.35	23
2318.28	27
2319.22	26
2320.16	20.5
2321.09	25
2322.03	26
2322.96	24
2323.9	23.5
2324.84	24.5
2325.77	23
2326.71	25.5
2327.64	23
2328.58	25.5
2329.51	23
2330.45	25
2331.38	26
2332.32	22
2333.25	24
2334.18	26.5
2335.12	26
2336.05	28
2336.99	25
2337.92	26
2338.85	22
2339.79	23.5
2340.72	23
2341.65	21
2342.59	23
2343.52	26.5
2344.45	22
2345.39	16
2346.32	21
2347.25	23.5
2348.18	23
2349.11	23.5
2350.05	23.5
2350.98	22
2351.91	25
2352.84	25.5
2353.77	25
2354.7	26.5
2355.64	20
2356.57	25.5
2357.5	21.5
2358.43	25
2359.36	24
2360.29	22
2361.22	24
2362.15	26
2363.08	25
2364.01	22.5
2364.94	23
2365.87	23.5
2366.8	27.5
2367.73	25
2368.66	26.5
2369.58	24.5
2370.51	24
2371.44	28
2372.37	20.5
2373.3	28
2374.23	25.5
2375.16	24.5
2376.08	25
2377.01	28
2377.94	24
2378.87	25
2379.8	23.5
2380.72	27
2381.65	21
2382.58	24
2383.5	23
2384.43	24
2385.36	26
2386.28	23.5
2387.21	22
2388.14	25
2389.06	24.5
2389.99	23
2390.91	21
2391.84	27
2392.77	23
2393.69	24.5
2394.62	29
2395.54	22
2396.47	27
2397.39	20
2398.32	25
2399.24	23
2400.16	23.5
2401.09	20.5
2402.01	27.5
2402.94	26.5
2403.86	24.5
2404.78	25.5
2405.71	25.5
2406.63	20
2407.56	25.5
2408.48	26
2409.4	25.5
2410.32	22.5
2411.25	20
2412.17	27
2413.09	24
2414.02	24.5
2414.94	25
2415.86	22.5
2416.78	23.5
2417.7	25
2418.63	20
2419.55	24
2420.47	26
2421.39	22
2422.31	26.5
2423.23	26
2424.15	25.5
2425.07	26.5
2425.99	25
2426.92	23
2427.84	23
2428.76	24.5
2429.68	24.5
2430.59	25.5
2431.51	22.5
2432.43	22.5
2433.35	26
2434.27	23
2435.19	21
2436.11	24.5
2437.03	27
2437.95	25.5
2438.87	26
2439.79	22.5
2440.71	24
2441.62	23.5
2442.54	26.5
2443.46	24
2444.38	24.5
2445.3	22
2446.21	21
2447.13	27
2448.05	22.5
2448.97	24
2449.88	23
2450.8	25
2451.72	23
2452.63	24.5
2453.55	25.5
2454.47	24.5
2455.38	24.5
2456.3	26
2457.21	25
2458.13	23
2459.05	27
2459.96	24
2460.88	22
2461.79	24
2462.71	23.5
2463.62	23.5
2464.54	24.5
2465.45	24.5
2466.37	24.5
2467.28	25
2468.2	30
2469.11	27
2470.02	23
2470.94	27
2471.85	26
2472.77	23
2473.68	24
2474.59	25
2475.51	27
2476.42	28.5
2477.33	24
2478.25	24.5
2479.16	28
2480.07	26.5
2480.98	25.5
2481.9	23.5
2482.81	21
2483.72	23.5
2484.63	23
2485.55	25.5
2486.46	25.5
2487.37	26
2488.28	23
2489.19	24
2490.1	25
2491.01	24
2491.92	27.5
2492.83	22.5
2493.74	23.5
2494.66	20.5
2495.57	23.5
2496.48	21
2497.39	24
2498.3	20.5
2499.21	24
2500.12	25.5
2501.03	25
2501.93	27.5
2502.84	26.5
2503.75	23.5
2504.66	24
2505.57	25
2506.48	27
2507.39	24.5
2508.3	24
2509.21	22
2510.11	24.5
2511.02	25
2511.93	26.5
2512.84	26.5
2513.75	23.5
2514.65	25
2515.56	26
2516.47	26
2517.37	25
2518.28	25
2519.19	26.5
2520.09	22.5
2521	22
2521.91	26.5
2522.81	18
2523.72	25.5
2524.63	26
2525.53	26
2526.44	25.5
2527.34	22.5
2528.25	24
2529.16	24.5
2530.06	24
2530.97	21
2531.87	26
2532.78	27.5
2533.68	25
2534.58	22
2535.49	20
2536.39	24
2537.3	26.5
2538.2	27
2539.11	25.5
2540.01	27
2540.91	27
2541.82	26
2542.72	25.5
2543.62	25
2544.53	24.5
2545.43	21.5
2546.33	23
2547.23	27.5
2548.14	28
2549.04	24.5
2549.94	28.5
2550.84	25.5
2551.75	25
2552.65	23
2553.55	23.5
2554.45	25
2555.35	22
2556.26	20
2557.16	24
2558.06	26.5
2558.96	25.5
2559.86	26
2560.76	23
2561.66	27.5
2562.56	23.5
2563.46	24.5
2564.36	26
2565.26	22.5
2566.16	25.5
2567.06	25.5
2567.96	26.5
2568.86	27
2569.76	27
2570.66	23.5
2571.56	23
2572.46	22
2573.36	25
2574.26	25.5
2575.16	24
2576.05	26.5
2576.95	27.5
2577.85	24
2578.75	22.5
2579.65	23.5
2580.54	25
2581.44	22
2582.34	25.5
2583.24	25.5
2584.13	27.5
2585.03	22
2585.93	22
2586.83	26
2587.72	23
2588.62	28
2589.52	21.5
2590.41	24.5
2591.31	23.5
2592.2	27.5
2593.1	26.5
2594	22.5
2594.89	22.5
2595.79	27
2596.68	24
2597.58	25.5
2598.47	26
2599.37	27.5
2600.26	26
2601.16	25
2602.05	23.5
2602.95	24
2603.84	24.5
2604.74	26.5
2605.63	26
2606.52	25.5
2607.42	23
2608.31	25
2609.21	24.5
2610.1	25
2610.99	22
2611.89	23
2612.78	23
2613.67	23
2614.56	30
2615.46	25.5
2616.35	28
2617.24	23.5
2618.13	25
2619.03	22
2619.92	25.5
2620.81	23.5
2621.7	21
2622.59	26
2623.49	30
2624.38	25.5
2625.27	23
2626.16	23.5
2627.05	27
2627.94	25
2628.83	23.5
2629.72	27
2630.61	23.5
2631.5	24
2632.39	26.5
2633.28	26.5
2634.17	23
2635.06	25
2635.95	20.5
2636.84	22.5
2637.73	21.5
2638.62	25.5
2639.51	30
2640.4	28
2641.29	22.5
2642.18	20
2643.07	26.5
2643.96	24
2644.84	26
2645.73	18.5
2646.62	23
2647.51	28
2648.4	24
2649.28	26
2650.17	25
2651.06	25.5
2651.95	27.5
2652.83	23
2653.72	25.5
2654.61	24
2655.49	26
2656.38	22.5
2657.27	25.5
2658.16	23.5
2659.04	28.5
2659.93	20
2660.81	24.5
2661.7	20
2662.59	27
2663.47	25.5
2664.36	25
2665.24	25
2666.13	24
2667.01	21.5
2667.9	23
2668.78	24
2669.67	17.5
2670.55	29
2671.44	26
2672.32	26
2673.21	26.5
2674.09	21.5
2674.97	25
2675.86	26
2676.74	23.5
2677.62	28.5
2678.51	26.5
2679.39	24
2680.27	25
2681.16	26.5
2682.04	24
2682.92	26.5
2683.81	25.5
2684.69	23.5
2685.57	25.5
2686.45	25.5
2687.34	23
2688.22	27
2689.1	23
2689.98	25.5
2690.86	27
2691.75	25.5
2692.63	22
2693.51	25
2694.39	23.5
2695.27	23.5
2696.15	24.5
2697.03	25
2697.91	22
2698.79	23.5
2699.67	26
2700.55	23.5
2701.43	21.5
2702.31	22.5
2703.19	26.5
2704.07	24.5
2704.95	27.5
2705.83	28
2706.71	25.5
2707.59	27
2708.47	26
2709.35	25.5
2710.23	26
2711.11	25
2711.99	24.5
2712.86	24
2713.74	21
2714.62	23.5
2715.5	25
2716.38	24
2717.26	27
2718.13	22
2719.01	27
2719.89	27.5
2720.77	25.5
2721.64	23
2722.52	25
2723.4	21
2724.27	25
2725.15	26.5
2726.03	26
2726.9	20
2727.78	24.5
2728.66	26.5
2729.53	26.5
2730.41	23
2731.28	23.5
2732.16	25.5
2733.03	29
2733.91	23.5
2734.79	24.5
2735.66	27
2736.54	22
2737.41	22.5
2738.29	26
2739.16	24
2740.03	24.5
2740.91	27.5
2741.78	18
2742.66	21.5
2743.53	26
2744.41	20.5
2745.28	28
2746.15	26.5
2747.03	25.5
2747.9	23.5
2748.77	26
2749.65	27
2750.52	22
2751.39	23.5
2752.27	22
2753.14	22.5
2754.01	25
2754.88	24.5
2755.75	27
2756.63	21
2757.5	25.5
2758.37	26
2759.24	22.5
2760.11	25
2760.99	23.5
2761.86	21
2762.73	23
2763.6	26.5
2764.47	22.5
2765.34	26.5
2766.21	24.5
2767.08	23
2767.95	26
2768.82	23
2769.69	27.5
2770.56	28
2771.43	26
2772.3	26.5
2773.17	24.5
2774.04	25
2774.91	25
2775.78	22
2776.65	27
2777.52	23.5
2778.39	27.5
2779.26	24.5
2780.13	23.5
2780.99	23.5
2781.86	26
2782.73	25
2783.6	27
2784.47	26
2785.34	25
2786.2	23
2787.07	27.5
2787.94	25
2788.81	30.5
2789.67	24
2790.54	24
2791.41	26
2792.27	27
2793.14	27.5
2794.01	25.5
2794.87	23
2795.74	27.5
2796.61	24
2797.47	29
2798.34	26
2799.21	28.5
2800.07	25.5
2800.94	25.25
2801.8	25
2802.67	25
2803.53	28.5
2804.4	23.5
2805.26	23.5
2806.13	25.5
2806.99	25.5
2807.86	28
2808.72	24.5
2809.59	28.5
2810.45	32
2811.32	27.5
2812.18	25
2813.04	27
2813.91	26
2814.77	28.5
2815.64	26
2816.5	23
2817.36	25.5
2818.22	25.5
2819.09	29
2819.95	26.5
2820.81	24.5
2821.68	24.5
2822.54	28.5
2823.4	26.5
2824.26	25
2825.13	26
2825.99	27.5
2826.85	28
2827.71	28
2828.57	22.5
2829.44	28
2830.3	26.5
2831.16	21
2832.02	25
2832.88	27
2833.74	23
2834.6	26
2835.46	26
2836.32	28.5
2837.18	20.5
2838.04	26.5
2838.9	28
2839.76	22.5
2840.62	26
2841.48	22.5
2842.34	27
2843.2	23
2844.06	25
2844.92	26.5
2845.78	25
2846.64	26
2847.5	25
2848.36	26
2849.22	25.5
2850.08	25.5
2850.93	27.5
2851.79	27
2852.65	27
2853.51	28.5
2854.37	25
2855.22	21
2856.08	26
2856.94	29
2857.8	27
2858.65	26
2859.51	29.5
2860.37	29
2861.23	28.5
2862.08	21
2862.94	25.5
2863.79	27
2864.65	27.5
2865.51	25.5
2866.36	24
2867.22	25.5
2868.08	27.5
2868.93	29
2869.79	28
2870.64	25.5
2871.5	27.5
2872.35	28.5
2873.21	30
2874.06	27
2874.92	28
2875.77	30.5
2876.63	33
2877.48	27
2878.34	30.5
2879.19	36
2880.05	32
2880.9	27.5
2881.76	27
2882.61	32
2883.46	28
2884.32	32
2885.17	34.5
2886.02	32
2886.88	37
2887.73	37
2888.58	35.5
2889.44	34
2890.29	40.5
2891.14	37.5
2891.99	38
2892.85	41.5
2893.7	40.5
2894.55	43
2895.4	45
2896.25	44
2897.11	47
2897.96	45.5
2898.81	52.5
2899.66	57.5
2900.51	53.5
2901.36	54.5
2902.21	57
2903.07	64.5
2903.92	61
2904.77	67.5
2905.62	62
2906.47	56.5
2907.32	66.5
2908.17	56.5
2909.02	58.5
2909.87	55
2910.72	56
2911.57	52
2912.42	50
2913.27	44.5
2914.12	47.5
2914.97	44
2915.81	40
2916.66	40
2917.51	35
2918.36	40
2919.21	37
2920.06	38
2920.91	35
2921.75	33
2922.6	28
2923.45	31.5
2924.3	30.5
2925.15	34.5
2925.99	30.5
2926.84	28.5
2927.69	30
2928.54	30
2929.38	32.5
2930.23	30
2931.08	31.5
2931.92	28.5
2932.77	28.5
2933.62	30.5
2934.46	32.5
2935.31	28
2936.16	28.5
2937	30.5
2937.85	25.5
2938.69	27.5
2939.54	22.5
2940.38	25
2941.23	27.5
2942.08	29
2942.92	29.5
2943.77	27.5
2944.61	28.5
2945.46	28
2946.3	29.5
2947.15	30
2947.99	26
2948.83	29.5
2949.68	26
2950.52	29
2951.37	34.5
2952.21	34.5
2953.05	28
2953.9	28
2954.74	30.5
2955.58	32.5
2956.43	33
2957.27	37
2958.11	33.5
2958.96	32.5
2959.8	37
2960.64	35
2961.48	41
2962.33	42
2963.17	39
2964.01	43.5
2964.85	42.5
2965.69	42
2966.54	40.5
2967.38	40
2968.22	39
2969.06	33
2969.9	38.5
2970.74	39.5
2971.58	33.0146
2972.43	36.432
2973.27	38.5202
2974.11	30.3087
2974.95	31.4899
2975.79	33.4606
2976.63	30.0475
2977.47	31.9559
2978.31	30.7477
2979.15	28.1225
2979.99	30.6447
2980.83	27.1604
2981.67	24.3881
2982.51	26.3571
2983.35	26.362
2984.19	28.9646
2985.03	27.4637
2985.86	26.1737
2986.7	25.2587
2987.54	24.952
2988.38	24.2097
2989.22	24.5268
2990.06	27.517
2990.9	27.5657
2991.73	23.8336
2992.57	29.9102
2993.41	23.8149
2994.25	24.0141
2995.09	26.5914
2995.92	25.918
2996.76	23.5808
2997.6	25.5104
2998.44	24.1131
2999.27	23.9167
3000.11	23.214
3000.95	24.6338
3001.78	26.148
3002.62	23.4058
3003.46	23.3431
3004.29	23.9622
3005.13	25.9718
3005.96	22.1015
3006.8	21.8099
3007.64	21.6958
3008.47	23.3996
3009.31	24.2195
3010.14	25.5736
3010.98	21.8426
3011.81	23.3547
3012.65	24.9406
3013.48	24.3168
3014.32	23.5083
3015.15	22.5782
3015.99	23.3701
3016.82	23.8883
3017.66	21.5646
3018.49	23.4944
3019.33	22.3951
3020.16	23.9304
3020.99	23.3866
3021.83	23.6451
3022.66	25.6787
3023.5	23.1574
3024.33	23.9314
3025.16	24.0687
3026	24.4285
3026.83	24.1682
3027.66	22.6133
3028.49	26.1819
3029.33	24.854
3030.16	23.2782
3030.99	24.766
3031.83	22.5775
3032.66	24.0228
3033.49	23
3034.32	22.6826
3035.15	22.7908
3035.99	24.4371
3036.82	22.7896
3037.65	21.6003
3038.48	22.7296
3039.31	23.4912
3040.14	24.4739
3040.97	24.6851
3041.81	22.0552
3042.64	24.1217
3043.47	23.7939
3044.3	22.0555
3045.13	22.595
3045.96	23.6442
3046.79	23.3351
3047.62	23.8028
3048.45	23.004
3049.28	22.3377
3050.11	22.6763
3050.94	24.6957
3051.77	24.1246
3052.6	23.0728
3053.43	23.8766
3054.26	24.8992
3055.08	23.8359
3055.91	23.3724
3056.74	23.0332
3057.26	25.5
3058.09	22.5
3058.92	22
3059.76	20.5
3060.59	23.5
3061.42	22
3062.25	25
3063.09	23.5
3063.92	23.5
3064.75	21
3065.58	22.5
3066.42	24
3067.25	24
3068.08	26
3068.91	25.5
3069.74	22.5
3070.57	22.5
3071.41	23
3072.24	19.5
3073.07	23.5
3073.9	20.5
3074.73	25
3075.56	25.5
3076.39	26
3077.22	21
3078.05	26
3078.88	21
3079.71	21.5
3080.54	23
3081.37	26
3082.2	26
3083.03	27
3083.86	22
3084.69	29
3085.52	23.5
3086.35	23.5
3087.18	21
3088.01	24.5
3088.84	26.5
3089.67	22
3090.5	26.5
3091.32	23.5
3092.15	26.5
3092.98	29
3093.81	24.5
3094.64	26
3095.47	24
3096.29	23
3097.12	28.5
3097.95	22.5
3098.78	19
3099.6	22.5
3100.43	24.5
3101.26	21.5
3102.09	24.5
3102.91	22.5
3103.74	23
3104.57	24
3105.39	23
3106.22	22.5
3107.05	27
3107.87	25
3108.7	25
3109.52	21.5
3110.35	22
3111.18	25
3112	21.5
3112.83	23
3113.65	21
3114.48	24.5
3115.3	27
3116.13	24
3116.95	23.5
3117.78	23
3118.6	25.5
3119.43	24
3120.25	27
3121.08	21
3121.9	20
3122.72	24
3123.55	23.5
3124.37	27
3125.2	25
3126.02	23.5
3126.84	23.5
3127.67	18
3128.49	26
3129.31	23
3130.14	21.5
3130.96	25.5
3131.78	26
3132.61	23
3133.43	24
3134.25	26
3135.07	26
3135.89	25.5
3136.72	22.5
3137.54	24.5
3138.36	25
3139.18	26.5
3140	28
3140.83	25
3141.65	23.5
3142.47	25.5
3143.29	27
3144.11	25
3144.93	21
3145.75	21.5
3146.57	24
3147.4	24.5
3148.22	22
3149.04	26
3149.86	25.5
3150.68	23
3151.5	23
3152.32	25
3153.14	24.5
3153.96	26.5
3154.78	23.5
3155.59	23.5
3156.42	25
3157.23	24
3158.05	25.5
3158.87	26
3159.69	25
3160.51	24
3161.33	22.5
3162.15	23
3162.97	18.5
3163.78	22
3164.6	28.5
3165.42	22.5
3166.24	22.5
3167.06	24
3167.87	24.5
3168.69	26
3169.51	24.5
3170.33	24
3171.14	22
3171.96	24
3172.78	22.5
3173.6	24.5
3174.41	24
3175.23	20
3176.05	24.5
3176.86	25.5
3177.68	21.5
3178.5	20.5
3179.31	26
3180.13	26
3180.94	25.5
3181.76	24.5
3182.58	23.5
3183.39	23
3184.21	27
3185.02	23.5
3185.84	23.5
3186.65	22
3187.47	24
3188.28	28
3189.1	24.5
3189.91	21.5
3190.73	24
3191.54	23
3192.36	24
3193.17	26
3193.98	21.5
3194.8	26
3195.61	24
3196.43	24.5
3197.24	28.5
3198.05	27
3198.87	24
3199.68	23
3200.49	26
3201.31	27
3202.12	25.5
3202.93	28
3203.75	25.5
3204.56	24
3205.37	23.5
3206.18	24.5
3207	24
3207.81	25
3208.62	24.5
3209.43	26.5
3210.24	22.5
3211.06	25
3211.87	23
3212.68	23
3213.49	25
3214.3	25
3215.11	18.5
3215.92	26.5
3216.73	26
3217.55	26.5
3218.36	18.5
3219.17	27
3219.98	24.5
3220.79	24.5
3221.6	22
3222.41	27.5
3223.22	24.5
3224.03	23.5
3224.84	26
3225.65	25.5
3226.46	21
3227.27	22
3228.08	26
3228.89	18.5
3229.7	25.5
3230.5	26.5
3231.31	25
3232.12	23.5
3232.93	25.5
3233.74	26
3234.55	25
3235.36	22.5
3236.16	25.5
3236.97	25
3237.78	30.5
3238.59	24
3239.4	28
3240.2	21.5
3241.01	24.5
3241.82	26.5
3242.63	27
3243.43	28.5
3244.24	27.5
3245.05	22
3245.85	28.5
3246.66	22
3247.47	23
3248.27	23.5
3249.08	24
3249.89	24
3250.69	20.5
3251.5	22.5
3252.31	24
3253.11	29
3253.92	24
3254.72	20
3255.53	21
3256.33	25
3257.14	21
3257.94	24
3258.75	21.5
3259.55	25
3260.36	22.5
3261.16	27.5
3261.97	24
3262.77	22.5
3263.58	28
3264.38	25
3265.19	21
3265.99	22.5
3266.79	22
3267.6	29.5
3268.4	25
3269.21	22.5
3270.01	22.5
3270.81	26.5
3271.62	21.5
3272.42	21.5
3273.22	24
3274.03	24
3274.83	24.5
3275.63	23.5
3276.43	22.5
3277.24	25.5
3278.04	24
3278.84	29.5
3279.64	25.5
3280.45	20
3281.25	25
3282.05	28.5
3282.85	24.5
3283.65	25
3284.45	27.5
3285.26	24
3286.06	22.5
3286.86	25
3287.66	25.5
3288.46	26.5
3289.26	24
3290.06	20.5
3290.86	25.5
3291.66	23.5
3292.46	26
3293.26	25.5
3294.06	25.5
3294.86	25
3295.66	25
3296.46	25
3297.26	22.5
3298.06	24.5
3298.86	27.5
3299.66	22
3300.46	22.5
3301.26	23.5
3302.06	23.5
3302.86	24.5
3303.66	22
3304.46	27.5
3305.25	24
3306.05	23.5
3306.85	23.5
3307.65	25
3308.45	24
3309.25	27
3310.04	24
3310.84	25.5
3311.64	24
3312.44	26
3313.23	27
3314.03	24
3314.83	28
3315.63	23.5
3316.42	24
3317.22	25.5
3318.02	25
3318.81	27.5
3319.61	27
3320.41	24.5
3321.2	25
3322	23.5
3322.8	26
3323.59	26.5
3324.39	27.5
3325.18	23
3325.98	27.5
3326.78	24
3327.57	25
3328.37	23
3329.16	25
3329.96	22.5
3330.75	24.5
3331.55	23
3332.34	24.5
3333.14	27
3333.93	26
3334.73	27.5
3335.52	23.5
3336.31	26.5
3337.11	22
3337.9	24.5
3338.7	26
3339.49	24
3340.28	24.5
3341.08	27.5
3341.87	25.5
3342.66	25.5
3343.46	23
3344.25	23
3345.04	23.5
3345.84	23
3346.63	25.5
3347.42	26.5
3348.22	24
3349.01	27.5
3349.8	28.5
3350.59	24
3351.39	23
3352.18	18
3352.97	21.5
3353.76	25.5
3354.55	24
3355.35	25
3356.14	24
3356.93	24.5
3357.72	27.5
3358.51	27
3359.3	30
3360.09	23.5
3360.88	26
3361.67	25
3362.46	22
3363.26	25.5
3364.05	25
3364.84	24.5
3365.63	29
3366.42	27
3367.21	25
3368	23
3368.79	27.5
3369.58	23
3370.37	21.5
3371.15	26
3371.94	22.5
3372.73	21
3373.52	27
3374.31	23.5
3375.1	25
3375.89	26
3376.68	28
3377.47	25
3378.26	23.5
3379.04	26.5
3379.83	23
3380.62	22.5
3381.41	24
3382.2	24
3382.98	21.5
3383.77	28
3384.56	24.5
3385.35	24
3386.13	25
3386.92	24
3387.71	26
3388.5	27
3389.28	27.5
3390.07	24
3390.86	23
3391.64	24.5
3392.43	24
3393.22	26
3394	21
3394.79	23.5
3395.57	26.5
3396.36	23
3397.15	27.5
3397.93	23
3398.72	24.5
3399.5	22.5
3400.29	24
3401.07	27
3401.86	22.5
3402.65	25
3403.43	25.5
3404.21	24
3405	24.5
3405.78	23.5
3406.57	24
3407.35	23.5
3408.14	27.5
3408.92	23
3409.71	26.5
3410.49	24
3411.27	24.5
3412.06	24.5
3412.84	25.5
3413.62	26
3414.41	23
3415.19	21.5
3415.97	22
3416.76	24
3417.54	23
3418.32	24.5
3419.11	24
3419.89	25.5
3420.67	28
3421.46	27
3422.24	24.5
3423.02	22.5
3423.8	26.5
3424.58	23
3425.37	26.5
3426.15	26
3426.93	22
3427.71	23.5
3428.49	30
3429.27	23.5
3430.05	23.5
3430.84	22
3431.62	29.5
3432.4	25
3433.18	25.5
3433.96	24.5
3434.74	23
3435.52	24.5
3436.3	25.5
3437.08	23.5
3437.86	17
3438.64	23
3439.42	28.5
3440.2	27.5
3440.98	23.5
3441.76	26.5
3442.54	24
3443.32	24.5
3444.1	26
3444.88	21
3445.66	26.5
3446.44	22.5
3447.22	22
3448	24.5
3448.77	23
3449.55	26
3450.33	22.5
3451.11	22.5
3451.89	25
3452.67	26.5
3453.45	23
3454.22	21.5
3455	23
3455.78	24
3456.56	23
3457.33	23.5
3458.11	25.5
3458.89	22
3459.67	25.5
3460.44	28.5
3461.22	24.5
3462	27.5
3462.77	26.5
3463.55	21
3464.33	20.5
3465.1	21
3465.88	26
3466.66	23.5
3467.43	27
3468.21	21
3468.98	24.5
3469.76	23
3470.54	23.5
3471.31	20.5
3472.09	29
3472.86	23
3473.64	25.5
3474.41	21
3475.19	26.5
3475.96	22
3476.74	22.5
3477.51	24
3478.29	23.5
3479.06	33.5
3479.84	25.5
3480.61	23
3481.39	24.5
3482.16	23.5
3482.93	23
3483.71	23
3484.48	28.5
3485.25	23.5
3486.03	25
3486.8	20.5
3487.57	24.5
3488.35	25
3489.12	23.5
3489.89	27
3490.67	20.5
3491.44	27
3492.21	23.5
3492.99	23
3493.76	25.5
3494.53	25
3495.3	21
3496.08	27
3496.85	24
3497.62	19
3498.39	24
3499.16	26
3499.93	23
