#Acq. time (s)=	5
#Accumulations=	5
#Range (cm-¹)=	100...3500
#Windows=	4
#Autofocus=	Off
#AutoExposure=	Off
#Spike filter=	Multiple accum.
#Delay time (s)=	0
#Binning=	1
#Readout mode=	Signal
#DeNoise=	Off
#ICS correction=	Off
#Dark correction=	Off
#Inst. Process=	Off
#Instrument=	LabRAM HR Evol
#Detector=	Syncerity OE
#Objective=	x100_VIS
#Grating=	600 (500nm)
#ND Filter=	25%
#Laser=	633nm_Edge
#Hole=	100.021
#Range=	Visible
#Project=	verificaciones
#Sample=	at5
#Site=	plain
#Title=	bolusat5plain
#Remark=	
#Date=	13.01.2026 19:39
#Acquired=	13.01.2026 19:39:35
100.692	22.5
101.975	29
103.258	32.5
104.542	28
105.824	30.5
107.107	26
108.39	32.5
109.672	29
110.954	29
112.236	29
113.519	29
114.8	31
116.081	27.5
117.362	30
118.643	28.5
119.924	26
121.204	31.5
122.484	29
123.764	30.5
125.044	30
126.323	27.5
127.603	32
128.882	33.5
130.161	31.5
131.438	30.5
132.716	31
133.995	31.5
135.273	34
136.55	37.5
137.828	33
139.106	31.5
140.383	31
141.66	37
142.937	36
144.213	31.5
145.488	35
146.764	36
148.04	34
149.316	32.5
150.592	40
151.867	35
153.141	40
154.416	35.5
155.69	37
156.965	40.5
158.239	35.5
159.512	38
160.786	38
162.059	38.5
163.333	35.5
164.605	37
165.878	37
167.15	36.5
168.423	42
169.694	35
170.966	32
172.238	33
173.51	36
174.78	42
176.052	39
177.323	36
178.592	39.5
179.863	34.5
181.134	37
182.403	42
183.673	37.5
184.943	40.5
186.211	37
187.481	36
188.749	38.5
190.018	39.5
191.287	33
192.554	38.5
193.822	35
195.089	34
196.357	35
197.625	30
198.891	38
200.159	34
201.425	36
202.692	35.5
203.957	39
205.224	37.5
206.489	32.5
207.755	34
209.02	33
210.286	32
211.55	34.5
212.815	33
214.079	32.5
215.344	32.5
216.607	29.5
217.872	28.5
219.135	30.5
220.399	33.5
221.662	35.5
222.924	33.5
224.187	32.5
225.449	31.5
226.713	30
227.974	31
229.235	33
230.498	32
231.759	36.5
233.019	27.5
234.281	30.5
235.542	30
236.802	34.5
238.063	26.5
239.323	27
240.582	30.5
241.843	30
243.102	32
244.361	28
245.621	29.5
246.879	31.5
248.138	25.5
249.396	29.5
250.655	30.5
251.913	30
253.17	31
254.427	27
255.686	30
256.943	29
258.199	28
259.456	27.5
260.712	30.5
261.969	26
263.225	26
264.481	30.5
265.736	27
266.991	30.5
268.246	25.5
269.502	29
270.757	31
272.011	29
273.265	26.5
274.519	27
275.773	31
277.027	28.5
278.28	29
279.533	30
280.786	32
282.04	29
283.293	29
284.545	24
285.798	25.5
287.049	28
288.301	30.5
289.553	23
290.804	27.5
292.055	27
293.306	26
294.557	24.5
295.807	28.5
297.058	27.5
298.308	31
299.558	26
300.808	31
302.057	30.5
303.305	26
304.554	28.5
305.803	27
307.052	27
308.3	27
309.549	27
310.797	26.5
312.045	30
313.292	29
314.54	24
315.786	28
317.033	31
318.28	26
319.526	26
320.773	25
322.019	29.5
323.264	30
324.51	27.5
325.755	28
327.001	26.5
328.246	27
329.49	27
330.735	30.5
331.979	28
333.224	25
334.467	30
335.711	25
336.955	27.5
338.199	27
339.441	27.5
340.684	28
341.927	24
343.168	32.5
344.411	29
345.654	30
346.895	29.5
348.137	25
349.379	24
350.619	27
351.86	27
353.102	27
354.341	30
355.582	29
356.821	30.5
358.062	28.5
359.302	28
360.541	27.5
361.781	30
363.019	22
364.259	30.5
365.496	28
366.736	30.5
367.974	25.5
369.212	29
370.45	27.5
371.687	27
372.925	29.5
374.162	26
375.399	26.5
376.635	32.5
377.873	29.5
379.109	28.5
380.344	29.5
381.581	29
382.816	32
384.052	30.5
385.287	31
386.523	31
387.757	28
388.991	25.5
390.227	26.5
391.46	25
392.695	30
393.928	30
395.162	28.5
396.396	26
397.629	29
398.861	27
400.095	30.5
401.327	28
402.559	30
403.792	28
405.024	30
406.255	29
407.488	31.5
408.719	25.5
409.949	29.5
411.18	27
412.412	22
413.642	30
414.872	27.5
416.102	27
417.333	24.5
418.562	31
419.791	26
421.02	32
422.249	27.5
423.479	24
424.707	29
425.935	28.5
427.163	25
428.391	28
429.619	26.5
430.848	26
432.075	32
433.302	28
434.529	26
435.755	25.5
436.982	28.5
438.208	27
439.434	27.5
440.66	28.5
441.885	28.5
443.111	26
444.338	30
445.563	31
446.788	26.5
448.012	28
449.237	31
450.461	28.5
451.685	26.5
452.909	28.5
454.133	30
455.356	28
456.579	31.5
457.802	24
459.025	29
460.247	30
461.469	27.5
462.691	31.5
463.914	31.5
465.136	29
466.357	37
467.579	32.5
468.8	35
470.021	32.5
471.242	34
472.462	36
473.682	34
474.903	32.5
476.123	32.5
477.343	36
478.563	40
479.782	45
481	45.5
482.219	49.5
483.438	50.5
484.657	49.5
485.874	50
487.093	51.5
488.311	51
489.529	55.5
490.747	53.5
491.963	55
493.181	43
494.398	46.5
495.614	51.5
496.83	41
498.047	41.5
499.264	40.5
500.479	43.5
501.695	42.5
502.911	39
504.125	39
505.34	35
506.554	38.5
507.769	35
508.984	33
510.198	37.5
511.412	33
512.627	33
513.839	32
515.053	29
516.266	33.5
517.479	35
518.691	33.5
519.905	34
521.118	32
522.329	31
523.542	29
524.753	29
525.965	30
527.176	31
528.388	30.5
529.598	29.5
530.809	28
532.019	32
533.23	29.5
534.44	29.5
535.649	31.5
536.86	34.5
538.068	29
539.279	31
540.487	29
541.697	33.5
542.905	27
544.113	30
545.322	24.5
546.53	29
547.737	27.5
548.946	30.5
550.153	29.5
551.361	29
552.568	27.5
553.774	30.5
554.982	27.5
556.188	26.5
557.394	29
558.599	26
559.806	28.5
561.012	28
562.217	28.5
563.423	30
564.628	25
565.832	26.5
567.036	31
568.241	30
569.446	27.5
570.65	26.5
571.853	25.5
573.057	26
574.26	26.5
575.464	27
576.667	25
577.87	32
579.072	32.5
580.274	24
581.477	31
582.68	27.5
583.881	27
585.083	26.5
586.284	29
587.485	27
588.686	30.5
589.887	27
591.087	26
592.288	24
593.488	25
594.688	25.5
595.888	31.5
597.087	28.5
598.287	25.5
599.486	29
600.685	30
601.884	27
603.082	26
604.281	28
605.479	26.5
606.677	27
607.875	27.5
609.073	27
610.27	31.5
611.468	27
612.665	25.5
613.862	26.5
615.058	27.5
616.255	28
617.451	26
618.648	31
619.842	26.5
621.038	25.5
622.234	28
623.429	27
624.624	32.5
625.819	28.5
627.013	29
628.207	28
629.402	30.5
630.596	28
631.79	28.5
632.983	24.5
634.177	25.5
635.37	28.5
636.564	32
637.755	29
638.948	27
640.141	30
641.334	29
642.525	30
643.717	26
644.909	29
646.099	30.5
647.291	23
648.483	27
649.674	30.5
650.864	27.5
652.055	26
653.244	24.5
654.435	29.5
655.625	27
656.814	26
658.004	28.5
659.193	23
660.382	29
661.571	26
662.759	28.5
663.948	30
665.135	30.5
666.324	32
667.511	29
668.7	25
669.886	29.5
671.074	30
672.262	25.5
673.448	30
674.634	32
675.821	28.5
677.007	28.5
678.194	31.5
679.379	28
680.565	33
681.75	35.5
682.936	32.5
684.121	32
685.305	35.5
686.491	36.5
687.675	33.5
688.86	32
690.043	31.5
691.227	32.5
692.411	29
693.594	35.5
694.777	32.5
695.961	35
697.144	34
698.326	37
699.509	33.5
700.691	37
701.873	39.5
703.056	34.5
704.237	41.5
705.419	43
706.599	47
707.782	44.5
708.962	48
710.143	45
711.323	40.5
712.504	37
713.684	38
714.864	33
716.043	34.5
717.223	29
718.403	31.5
719.582	29
720.761	29.5
721.94	33
723.118	32
724.296	30
725.474	24.5
726.652	28.5
727.831	28.5
729.009	30
730.186	25
731.363	28.5
732.54	25.5
733.717	28
734.893	27.5
736.07	24.5
737.246	30.5
738.422	28
739.598	21
740.773	27.5
741.949	24.5
743.124	30
744.299	29
745.474	28
746.649	27
747.823	24
748.997	28.5
750.172	29
751.346	29
752.519	30.5
753.693	28
754.867	26
756.038	31
757.211	24.5
758.384	26.5
759.557	24.5
760.73	27
761.902	23.5
763.074	29.5
764.246	27
765.417	27.5
766.588	25.5
767.76	27.5
768.931	25
770.102	28.5
771.271	29
772.442	26.5
773.613	28
774.783	31
775.952	27
777.122	28.5
778.291	33.5
779.461	31
780.629	28
781.798	30
782.967	31
784.135	28
785.304	26.5
786.472	28
787.639	30.5
788.807	31.5
789.975	27
791.142	28.5
792.309	29.5
793.477	30.5
794.642	29
795.81	25
796.975	31.5
798.142	28.5
799.308	29
800.473	31
801.639	27
802.804	25.5
803.97	31.5
805.134	28
806.299	29
807.463	24.5
808.628	26.5
809.792	30
810.957	28
812.12	25
813.284	28.5
814.447	25.5
815.611	27.5
816.773	27.5
817.937	27.5
819.099	30.5
820.261	27.5
821.424	28
822.585	27
823.748	27.5
824.909	25.5
826.07	25.5
827.232	27
828.393	27.5
829.554	25
830.715	29
831.875	26.5
833.035	27.5
834.196	28
835.356	24
836.515	27.5
837.676	27
838.835	27.5
839.994	28
841.152	28.5
842.312	30
843.47	27
844.629	26
845.786	26
846.946	28
848.103	29.5
849.261	27.5
850.418	28
851.575	27
852.733	23
853.89	28.5
855.046	25.5
856.203	31.5
857.359	33.5
858.515	26.5
859.67	32.5
860.827	31
861.983	31
863.138	33
864.293	26.5
865.448	29.5
866.603	31
867.757	25
868.912	27.5
870.066	31.5
871.22	33.5
872.374	30
873.527	26
874.681	29
875.834	23.5
876.987	31.5
878.14	24
879.293	28
880.445	31.5
881.598	30
882.75	27.5
883.902	27
885.054	26.5
886.206	31.5
887.357	27
888.507	26.5
889.658	26
890.809	25.5
891.96	29
893.111	25.5
894.261	26
895.411	29
896.561	25.5
897.71	28.5
898.86	26.5
900.009	27
901.159	29.5
902.308	25
903.455	27.5
904.604	29.5
905.753	26
906.901	30
908.048	27.5
909.197	24
910.344	25
911.492	25.5
912.639	26.5
913.786	26.5
914.933	22
916.079	27
917.226	30.5
918.373	22.5
919.518	26.5
920.664	24
921.81	28.5
922.955	27.5
924.101	25
925.245	25.5
926.391	25.5
927.536	27.5
928.68	20.5
929.825	26.5
930.968	24.5
932.113	25.5
933.256	24
934.4	27
935.543	24
936.687	26
937.83	23
938.973	22.5
940.115	23
941.258	25.5
942.399	29
943.542	27.5
944.684	23.5
945.826	30.5
946.967	25
948.109	28
949.25	24
950.392	27.5
951.532	30
952.672	23
953.813	21.5
954.953	30.5
956.093	27.5
957.233	25.5
958.373	26
959.512	29
960.652	29
961.791	27.5
962.929	28
964.069	28
965.207	23
966.345	25.5
967.484	22.5
968.622	26.5
969.759	27.5
970.896	29.25
972.035	28.5
973.172	30
974.309	27.5
975.445	26
976.582	28.5
977.719	31
978.855	23
979.991	27
981.127	28
982.263	26.5
983.398	30.5
984.535	29
985.67	27
986.804	26.5
987.939	26
989.074	25
990.208	26
991.342	29
992.476	30.5
993.61	25.5
994.744	29.5
995.877	26
997.01	26
998.143	24
999.276	24
1000.41	20
1001.54	24
1002.67	27
1003.81	25
1004.94	26.5
1006.07	28.5
1007.2	25
1008.33	24.5
1009.47	26.5
1010.6	26.5
1011.73	26
1012.86	27
1013.99	28
1015.12	27
1016.25	25.5
1017.38	24
1018.51	24
1019.64	27.5
1020.77	24
1021.9	27
1023.03	24
1024.15	25.5
1025.28	24.5
1026.41	26
1027.54	28.5
1028.67	25
1029.8	28.5
1030.92	24.5
1032.05	25
1033.18	24
1034.31	29
1035.43	26
1036.56	25
1037.69	24.5
1038.81	26
1039.94	25.5
1041.07	28
1042.19	26
1043.32	29
1044.44	25
1045.57	27.5
1046.69	26
1047.82	23.5
1048.94	28.5
1050.07	28
1051.19	29
1052.32	26.5
1053.44	27
1054.57	27
1055.69	27
1056.81	27
1057.94	24
1059.06	25.5
1060.18	28
1061.31	20
1062.43	24.5
1063.55	23.5
1064.67	26.5
1065.8	27.5
1066.92	26
1068.04	25
1069.16	24
1070.28	22
1071.4	26.5
1072.52	29
1073.64	25
1074.76	30
1075.89	23.5
1077.01	22.5
1078.13	25
1079.25	25
1080.37	23.5
1081.49	22.5
1082.6	21.5
1083.72	24
1084.84	24.5
1085.96	23.5
1087.08	26.5
1088.2	28.5
1089.32	24
1090.43	27
1091.55	23.5
1092.67	22
1093.79	25
1094.91	23.5
1096.02	27
1097.14	28.5
1098.26	24
1099.37	23.5
1100.49	22
1101.61	26.5
1102.72	29
1103.84	26
1104.95	26
1106.07	24.5
1107.18	26.5
1108.3	25
1109.41	23.5
1110.53	26
1111.64	23.5
1112.76	25
1113.87	27.5
1114.99	23
1116.1	25
1117.21	20
1118.33	24
1119.44	25.5
1120.55	24.5
1121.67	25
1122.78	26.5
1123.89	24
1125	24
1126.12	25.5
1127.23	28
1128.34	24
1129.45	27.5
1130.56	25
1131.68	27
1132.79	25
1133.9	22
1135.01	26
1136.12	25.5
1137.23	21
1138.34	25.5
1139.45	29.5
1140.56	24.5
1141.67	25
1142.78	24
1143.89	23
1145	23
1146.11	23.5
1147.22	20.5
1148.32	23
1149.43	26
1150.54	24
1151.65	26
1152.76	28
1153.86	23.5
1154.97	22
1156.08	23
1157.19	28.5
1158.29	27.5
1159.4	22.5
1160.51	24.5
1161.61	24.5
1162.72	28.5
1163.83	29.5
1164.93	28
1166.04	28
1167.14	28
1168.25	29
1169.35	20.5
1170.46	26
1171.56	27
1172.67	25
1173.77	23
1174.88	27.5
1175.98	23.5
1177.08	23
1178.19	26
1179.29	22.5
1180.4	22.5
1181.5	23
1182.6	28.5
1183.71	26.5
1184.81	25.5
1185.91	26.5
1187.01	30.5
1188.12	23
1189.22	25
1190.32	22.5
1191.42	18.5
1192.52	23
1193.62	22
1194.72	21.5115
1195.83	23.9743
1196.93	24.527
1198.03	26.5239
1199.13	22.5869
1200.23	22.2251
1201.33	23.6005
1202.43	27.3544
1203.53	22.7114
1204.63	26.6311
1205.73	24.8723
1206.83	24.7171
1207.92	20.6177
1209.02	21.4131
1210.12	26.6356
1211.22	20.6289
1212.32	27.7542
1213.42	24.2494
1214.51	23.3342
1215.61	24.3921
1216.71	24.2249
1217.81	25.9543
1218.9	23.3668
1220	25.8592
1221.1	21.9765
1222.19	25.8908
1223.29	22.1371
1224.39	24.233
1225.48	25.6362
1226.58	27.0275
1227.68	25.5593
1228.77	21.4076
1229.87	25.311
1230.96	25.1221
1232.06	25.665
1233.15	23.7056
1234.25	22.7343
1235.34	22.8973
1236.43	25.0131
1237.53	22.3394
1238.62	24.3712
1239.72	23.6977
1240.81	24.1881
1241.9	25.2164
1243	27.5603
1244.09	22.5609
1245.18	23.5459
1246.27	24.1192
1247.37	23.9223
1248.46	24.4561
1249.55	25.4839
1250.64	25.5077
1251.74	26.7257
1252.83	25.9175
1253.92	25.8707
1255.01	26.6645
1256.1	25.7743
1257.19	26.8286
1258.28	26.5374
1259.38	25.7932
1260.46	26.9348
1261.56	24.5776
1262.65	26.401
1263.74	24.7786
1264.82	25.7115
1265.91	24.7111
1267	26.9015
1268.09	23.8662
1269.18	25.4976
1270.27	25.0803
1271.36	24.2723
1272.45	26.946
1273.54	24.0497
1274.63	23.6051
1275.71	23.2907
1276.8	23.9116
1277.89	23.4568
1278.98	22.1981
1280.06	25.9668
1281.15	24.5969
1282.24	24.7048
1283.32	24.607
1284.41	22.2084
1285.5	21.1439
1286.58	22.2729
1287.67	25.0031
1288.76	20.6427
1289.84	22.27
1290.93	23.1408
1292.01	26.6526
1293.1	24.3431
1294.18	23.4355
1295.27	21.3268
1296.35	24.0329
1297.44	24.9175
1298.52	22.1358
1299.6	25.965
1300.69	25.6351
1301.77	25.972
1302.86	27.2077
1303.94	23.559
1305.02	23.0253
1306.11	24.9342
1306.41	25.5
1307.5	26
1308.59	25.5
1309.68	25
1310.77	24
1311.85	24.5
1312.94	25.5
1314.03	25
1315.11	25.5
1316.2	24.5
1317.29	21
1318.37	23
1319.46	22
1320.55	20
1321.63	25
1322.72	22
1323.8	24.5
1324.89	26.5
1325.98	27
1327.06	25
1328.15	25
1329.23	24
1330.31	21
1331.4	21.5
1332.48	25
1333.57	26.5
1334.65	24.5
1335.74	29.5
1336.82	24
1337.9	23.5
1338.99	28.5
1340.07	22
1341.15	24.5
1342.24	26.5
1343.32	24
1344.4	24
1345.48	26.5
1346.56	26
1347.65	25
1348.73	23
1349.81	22
1350.89	26.5
1351.97	22
1353.05	23.5
1354.13	24.5
1355.21	27.5
1356.29	24.5
1357.37	26.5
1358.46	26.5
1359.54	27.5
1360.62	20
1361.69	20
1362.77	25
1363.85	26
1364.93	27.5
1366.01	30
1367.09	25.5
1368.17	25.5
1369.25	23
1370.33	26.5
1371.41	26
1372.48	25
1373.56	22
1374.64	21.5
1375.72	23
1376.79	24.5
1377.87	23.5
1378.95	22
1380.02	23.5
1381.1	25.5
1382.18	27.5
1383.25	24
1384.33	23
1385.4	29.5
1386.48	25.5
1387.56	24
1388.63	25
1389.71	24.5
1390.78	21.5
1391.86	27
1392.93	25.5
1394.01	26.5
1395.08	28.5
1396.15	22.5
1397.23	22
1398.3	29.5
1399.38	29.5
1400.45	28
1401.52	24
1402.6	30.5
1403.67	31
1404.74	25
1405.81	32.5
1406.89	29.5
1407.96	31
1409.03	30
1410.1	31
1411.17	24
1412.25	30.5
1413.32	29
1414.39	32
1415.46	29.5
1416.53	25
1417.6	31
1418.67	27
1419.74	29.5
1420.81	26
1421.88	29
1422.95	23
1424.02	27.5
1425.09	31.5
1426.16	26
1427.23	23
1428.3	28
1429.37	27
1430.44	26.5
1431.51	27.5
1432.58	27.5
1433.64	27.5
1434.71	24
1435.78	22
1436.85	26
1437.92	24
1438.98	22.5
1440.05	30
1441.12	23.5
1442.18	26
1443.25	21
1444.32	27.5
1445.38	27
1446.45	26.5
1447.52	26.5
1448.58	25
1449.65	22.5
1450.71	26.5
1451.78	28
1452.84	23.5
1453.91	23
1454.97	24.5
1456.04	27
1457.1	23
1458.17	26.5
1459.23	24
1460.3	26.5
1461.36	26
1462.42	27
1463.49	27
1464.55	26
1465.61	27
1466.68	26
1467.74	25
1468.8	24.5
1469.86	23.5
1470.93	21.5
1471.99	24
1473.05	23
1474.11	27.5
1475.17	26
1476.24	23.5
1477.3	28
1478.36	23.5
1479.42	25.5
1480.48	28.5
1481.54	25
1482.6	25
1483.66	26.5
1484.72	25.5
1485.78	25
1486.84	25.5
1487.9	26.5
1488.96	26.5
1490.02	26.5
1491.08	21
1492.14	24
1493.2	26.5
1494.26	26
1495.31	24.5
1496.37	25
1497.43	26
1498.49	26.5
1499.55	25.5
1500.6	22.5
1501.66	25.5
1502.72	24
1503.78	29
1504.83	22.5
1505.89	25
1506.95	25
1508	28
1509.06	27.5
1510.12	24.5
1511.17	23.5
1512.23	30
1513.28	26
1514.34	25
1515.39	29.5
1516.45	28
1517.5	27.5
1518.56	25
1519.61	27
1520.67	25.5
1521.72	22.5
1522.78	28
1523.83	24.5
1524.88	26
1525.94	26
1526.99	23.5
1528.05	28
1529.1	24
1530.15	28
1531.2	26
1532.26	29
1533.31	25
1534.36	25
1535.41	25.5
1536.47	30.5
1537.52	25.5
1538.57	23
1539.62	23
1540.67	25
1541.72	27
1542.77	26
1543.83	23
1544.88	28.5
1545.93	27
1546.98	23.5
1548.03	26
1549.08	25
1550.13	25
1551.18	29.5
1552.23	21
1553.28	27.5
1554.32	25.5
1555.37	27.5
1556.42	23.5
1557.47	26
1558.52	25
1559.57	26
1560.62	22
1561.67	31
1562.71	24
1563.76	27.5
1564.81	32.5
1565.86	22.5
1566.9	23
1567.95	27
1569	25
1570.04	26
1571.09	24
1572.14	23.5
1573.18	25.5
1574.23	25
1575.27	22
1576.32	25.5
1577.37	27.5
1578.41	26.5
1579.46	26.5
1580.5	26.5
1581.55	27
1582.59	25.5
1583.64	27.5
1584.68	26
1585.72	26
1586.77	27.5
1587.81	25.5
1588.86	22
1589.9	25.5
1590.94	25.5
1591.99	29.5
1593.03	29.5
1594.07	27
1595.12	23
1596.16	27.5
1597.2	27.5
1598.24	25
1599.29	26
1600.33	27
1601.37	25
1602.41	25
1603.45	25
1604.49	23
1605.53	24
1606.58	25.5
1607.62	26
1608.66	22.5
1609.7	27
1610.74	25
1611.78	25.5
1612.82	22.5
1613.86	26
1614.9	25.5
1615.94	27
1616.98	24
1618.02	28
1619.06	24.5
1620.09	25.5
1621.13	23
1622.17	26
1623.21	25
1624.25	29.5
1625.29	24.5
1626.32	27.5
1627.36	25
1628.4	24.5
1629.44	26
1630.47	28.5
1631.51	23.5
1632.55	24
1633.58	28
1634.62	25.5
1635.66	25
1636.69	21.5
1637.73	25.5
1638.77	28
1639.8	24.5
1640.84	26.5
1641.87	27
1642.91	24.5
1643.94	25
1644.98	25
1646.01	22.5
1647.05	29
1648.08	23.5
1649.12	26.5
1650.15	28.5
1651.18	29.5
1652.22	24.5
1653.25	25.5
1654.29	25
1655.32	28.5
1656.35	28.5
1657.39	26
1658.42	26.5
1659.45	27.5
1660.48	26
1661.52	23
1662.55	29.5
1663.58	25.5
1664.61	25.5
1665.64	29.5
1666.68	26
1667.71	25.5
1668.74	22
1669.77	25.5
1670.8	24
1671.83	27
1672.86	25
1673.89	26.5
1674.92	24
1675.95	25
1676.98	25.5
1678.01	23
1679.04	27.5
1680.07	24
1681.1	25
1682.13	28.5
1683.16	29.5
1684.19	23
1685.22	28
1686.25	27
1687.27	24
1688.3	30
1689.33	25
1690.36	22
1691.38	24.5
1692.41	27
1693.44	22.5
1694.47	24.5
1695.49	28.5
1696.52	24.5
1697.55	23
1698.57	26.5
1699.6	24.5
1700.63	23.5
1701.65	25
1702.68	24
1703.7	25
1704.73	24
1705.76	26.5
1706.78	24
1707.81	23
1708.83	24.5
1709.86	26.5
1710.88	25.5
1711.91	27
1712.93	25.5
1713.95	25.5
1714.98	26
1716	29
1717.03	23.5
1718.05	25
1719.07	24.5
1720.1	27
1721.12	26.5
1722.14	24
1723.16	26
1724.19	27
1725.21	30
1726.23	25
1727.25	27.5
1728.28	27
1729.3	23.5
1730.32	26.5
1731.34	24
1732.36	24.5
1733.38	24
1734.41	23
1735.43	25.5
1736.45	25.5
1737.47	27.5
1738.49	28.5
1739.51	26
1740.53	25.5
1741.55	26
1742.57	25
1743.59	29
1744.61	26
1745.63	25.5
1746.64	26
1747.66	26
1748.68	23
1749.7	22.5
1750.72	26.5
1751.74	27
1752.76	25.5
1753.77	28.5
1754.79	26.5
1755.81	26
1756.83	26
1757.84	23.5
1758.86	19.5
1759.88	28.5
1760.9	27
1761.91	24.5
1762.93	25
1763.95	24
1764.96	24.5
1765.98	24
1766.99	27
1768.01	24.5
1769.02	29
1770.04	23.5
1771.06	26
1772.07	23
1773.09	25
1774.1	23
1775.12	24
1776.13	24
1777.14	23.5
1778.16	24.5
1779.17	23
1780.19	24
1781.2	22
1782.21	26
1783.23	25.5
1784.24	29.5
1785.25	23.5
1786.27	25.5
1787.28	25.5
1788.29	28
1789.3	28
1790.32	22
1791.33	26.5
1792.34	23.5
1793.35	24
1794.36	23
1795.38	25
1796.39	26
1797.4	26
1798.41	26.5
1799.42	27.5
1800.43	24.5
1801.44	27
1802.45	26
1803.46	26
1804.47	26.5
1805.48	26
1806.49	25
1807.5	27
1808.51	25
1809.52	25.5
1810.53	25.5
1811.54	29
1812.55	27.5
1813.56	28.5
1814.57	26
1815.57	23
1816.58	26.5
1817.59	24
1818.6	24
1819.61	25.5
1820.61	26.5
1821.62	24
1822.63	26
1823.64	25
1824.64	26.5
1825.65	24.5
1826.66	25
1827.66	26
1828.67	25
1829.68	24.5
1830.68	27
1831.69	26
1832.69	24
1833.7	27.5
1834.7	26
1835.71	27
1836.71	26
1837.72	22
1838.72	26
1839.73	24.5
1840.73	23.5
1841.74	27
1842.74	24
1843.75	26
1844.75	26.5
1845.75	25
1846.76	27.5
1847.76	26
1848.76	25
1849.77	24
1850.77	26
1851.77	24.5
1852.78	26
1853.78	24.5
1854.78	23.5
1855.78	24.5
1856.78	29
1857.79	22
1858.79	24
1859.79	27
1860.79	27
1861.79	20.5
1862.79	24.5
1863.79	26
1864.79	28
1865.79	26
1866.8	26
1867.8	27.5
1868.8	26
1869.8	26
1870.8	25
1871.8	28
1872.8	26.5
1873.79	23
1874.79	24
1875.79	24.5
1876.79	23
1877.79	20
1878.79	22.5
1879.79	22.5
1880.79	24
1881.78	24.5
1882.78	24
1883.78	28.5
1884.78	27
1885.77	24
1886.77	25
1887.77	27
1888.77	28
1889.76	21
1890.76	28.5
1891.76	22.5
1892.75	24.5
1893.75	26
1894.75	22
1895.74	25.5
1896.74	25
1897.73	18
1898.73	23
1899.73	27
1900.72	24.5
1901.72	24.5
1902.71	25.5
1903.7	27
1904.7	27
1905.69	26
1906.69	24.5
1907.68	26
1908.68	26.5
1909.67	25
1910.66	23
1911.66	26
1912.65	25.5
1913.64	26
1914.64	24
1915.63	21.5
1916.62	22
1917.62	25
1918.61	24.5
1919.6	22.5
1920.59	25.5
1921.58	25
1922.58	22.5
1923.57	22
1924.56	27
1925.55	28
1926.54	24.5
1927.53	25.5
1928.52	27.5
1929.51	25
1930.51	22.5
1931.5	25
1932.49	24
1933.48	27.5
1934.47	23.5
1935.46	22.5
1936.45	24
1937.44	25.5
1938.42	28
1939.41	23
1940.4	25
1941.39	26
1942.38	29
1943.37	25.5
1944.36	27
1945.35	23.5
1946.33	22
1947.32	22.5
1948.31	24.25
1949.3	25
1950.29	22
1951.27	22.5
1952.26	28
1953.25	28
1954.23	25
1955.22	27
1956.21	25
1957.19	27.5
1958.18	28
1959.17	24.5
1960.15	21
1961.14	25.5
1962.13	24
1963.11	25.5
1964.1	23
1965.08	25
1966.07	28.5
1967.05	22.5
1968.04	26.5
1969.02	26
1970.01	24.5
1970.99	19
1971.97	24.5
1972.96	22.5
1973.94	23
1974.93	22
1975.91	25
1976.89	26.5
1977.88	27.5
1978.86	26
1979.84	22
1980.83	26
1981.81	24
1982.79	25
1983.77	28.5
1984.76	27
1985.74	26
1986.72	24
1987.7	27.5
1988.68	27
1989.67	22.5
1990.65	23
1991.63	25
1992.61	26
1993.59	23.5
1994.57	23
1995.55	26
1996.53	21.5
1997.51	25
1998.49	25
1999.47	23
2000.45	26
2001.43	23
2002.41	23
2003.39	23
2004.37	24.5
2005.35	23.5
2006.33	25
2007.31	26.5
2008.29	26.5
2009.26	23.5
2010.24	24
2011.22	21.5
2012.2	26.5
2013.18	21
2014.15	25
2015.13	22
2016.11	25.5
2017.09	21.5
2018.06	25.5
2019.04	23.5
2020.02	24.5
2021	23
2021.97	25.5
2022.95	26.5
2023.92	25.5
2024.9	22.5
2025.88	21
2026.85	26.5
2027.83	26.5
2028.8	22.5
2029.78	25
2030.75	26
2031.73	26
2032.7	26
2033.68	25
2034.65	18.5
2035.63	23.5
2036.6	26
2037.58	20
2038.55	24
2039.52	22
2040.5	25
2041.47	27
2042.45	27
2043.42	24.5
2044.39	23
2045.36	24.5
2046.34	25.5
2047.31	20
2048.28	27.5
2049.26	25
2050.23	26
2051.2	22.5
2052.17	26
2053.14	26
2054.12	24
2055.09	27
2056.06	28
2057.03	24
2058	19.5
2058.97	26
2059.94	24.5
2060.91	27.5
2061.88	19
2062.85	27.5
2063.82	25
2064.79	21.5
2065.76	24.5
2066.73	23.5
2067.7	27
2068.67	23
2069.64	22
2070.61	24.5
2071.58	20.5
2072.55	24
2073.52	27
2074.49	26.5
2075.45	25
2076.42	23
2077.39	23.5
2078.36	24.5
2079.33	24
2080.29	24
2081.26	25
2082.23	27.5
2083.2	23.5
2084.16	25
2085.13	19
2086.1	25
2087.06	23.5
2088.03	23
2089	25
2089.96	26.5
2090.93	21.5
2091.89	24
2092.86	25
2093.83	26
2094.79	23
2095.76	24.5
2096.72	23
2097.69	21.5
2098.65	25
2099.62	24.5
2100.58	24
2101.55	22.5
2102.51	21
2103.47	26
2104.44	22.5
2105.4	26
2106.36	25.5
2107.33	24.5
2108.29	28
2109.25	23.5
2110.22	23
2111.18	25
2112.14	26
2113.11	23.5
2114.07	23
2115.03	26
2115.99	23
2116.96	26
2117.92	23
2118.88	29
2119.84	26
2120.8	23.5
2121.76	25
2122.72	21.5
2123.68	22
2124.65	24.5
2125.61	20
2126.57	26
2127.53	22
2128.49	23
2129.45	25
2130.41	28.5
2131.37	25
2132.33	23.5
2133.29	24
2134.25	23
2135.21	25
2136.17	23
2137.12	22.5
2138.08	26.5
2139.04	24.5
2140	23.5
2140.96	23.5
2141.92	22.5
2142.88	22.4952
2143.83	23.962
2144.79	25.0473
2145.75	23.5588
2146.71	22.0976
2147.66	26.3398
2148.62	20.6489
2149.58	20.1459
2150.53	24.9187
2151.49	20.0589
2152.45	21.7331
2153.4	23.5448
2154.36	23.0275
2155.32	24.5795
2156.27	21.4225
2157.23	24.3585
2158.19	20.5937
2159.14	29.8444
2160.1	23.4628
2161.05	23.5991
2162.01	22.382
2162.96	25.1739
2163.92	22.8412
2164.87	25.204
2165.83	24.8229
2166.78	23.6284
2167.73	23.1685
2168.69	23.7269
2169.64	24.9869
2170.6	25.4697
2171.55	19.8684
2172.5	22.1942
2173.46	25.3437
2174.41	21.4953
2175.36	22.3758
2176.32	23.2858
2177.27	23.7949
2178.22	24.402
2179.18	23.8637
2180.13	20.452
2181.08	24.1631
2182.03	21.4741
2182.98	23.661
2183.94	24.791
2184.89	25.5404
2185.84	23.3895
2186.79	21.4146
2187.74	21.0388
2188.69	20.7852
2189.64	22.251
2190.6	22.6916
2191.55	25.404
2192.5	23.22
2193.45	22.2624
2194.4	24.809
2195.35	24.221
2196.3	22.8537
2197.25	21.8842
2198.2	23.9859
2199.15	22.4374
2200.1	21.0926
2201.04	20.4927
2201.99	23.7621
2202.94	20.3988
2203.89	22.8194
2204.84	22.6003
2205.79	23.8074
2206.74	23.1552
2207.69	23.5249
2208.63	23.3711
2209.58	24.4733
2210.53	23.0056
2211.48	22.6202
2212.43	20.5088
2213.37	23.1688
2214.32	22.5046
2215.27	22.1801
2216.21	23.2525
2217.16	25.9292
2218.11	25.2259
2219.05	19.7682
2220	21.6744
2220.95	23.8858
2221.89	24.3769
2222.84	22.9636
2223.78	25.9882
2224.73	22.6166
2225.68	23.4014
2226.62	24.5157
2227.57	24.2177
2228.51	22.607
2229.46	21.0731
2230.4	22.4862
2231.35	21.4343
2232.29	22.5201
2233.24	24.1143
2234.18	25.5243
2235.12	20.3609
2236.07	24.8522
2237.01	23.6392
2237.95	24.1102
2238.9	23.3338
2239.84	22.2419
2240.06	22
2241.01	23.5
2241.96	22.5
2242.91	26.5
2243.86	21
2244.8	23
2245.75	25.5
2246.7	23
2247.65	21.5
2248.59	21.5
2249.54	18
2250.49	25.5
2251.43	18
2252.38	22.5
2253.33	24.5
2254.27	22
2255.22	23.5
2256.16	22
2257.11	23
2258.06	24
2259	22
2259.95	22
2260.89	20.5
2261.84	25.5
2262.78	21
2263.73	24.5
2264.67	24.5
2265.62	25
2266.56	23
2267.5	25
2268.45	27
2269.39	25
2270.34	27
2271.28	22.5
2272.22	24.5
2273.17	22
2274.11	25
2275.05	25
2276	25.5
2276.94	23
2277.88	23
2278.82	24
2279.77	20.5
2280.71	23
2281.65	23
2282.59	27
2283.53	20.5
2284.48	22.5
2285.42	20.5
2286.36	24
2287.3	24.5
2288.24	24
2289.18	23
2290.12	26
2291.06	23
2292	27
2292.94	24.5
2293.89	18.5
2294.83	23
2295.77	21
2296.71	24
2297.65	20
2298.58	24.5
2299.52	26
2300.46	24
2301.4	24.5
2302.34	24.5
2303.28	21
2304.22	24.5
2305.16	24
2306.1	21.5
2307.03	21.5
2307.97	26.5
2308.91	23.5
2309.85	23.5
2310.79	22
2311.72	23.5
2312.66	23
2313.6	21
2314.54	25
2315.47	23.5
2316.41	22.5
2317.35	27
2318.28	26.5
2319.22	21
2320.16	22.5
2321.09	23.5
2322.03	23.5
2322.96	28
2323.9	24
2324.84	25
2325.77	20.5
2326.71	23.5
2327.64	26
2328.58	23
2329.51	26
2330.45	23.5
2331.38	21.5
2332.32	22
2333.25	21
2334.18	25.5
2335.12	26
2336.05	25
2336.99	25
2337.92	25
2338.85	27
2339.79	22
2340.72	21.5
2341.65	24
2342.59	19
2343.52	21
2344.45	26
2345.39	22.5
2346.32	23
2347.25	25.5
2348.18	19.5
2349.11	22.5
2350.05	23.5
2350.98	21
2351.91	25
2352.84	22
2353.77	26
2354.7	21.5
2355.64	22
2356.57	25
2357.5	21.5
2358.43	22.5
2359.36	25
2360.29	22.5
2361.22	23
2362.15	27.5
2363.08	21
2364.01	28.5
2364.94	21
2365.87	27
2366.8	22
2367.73	25
2368.66	21.5
2369.58	26
2370.51	23.5
2371.44	24.5
2372.37	23.5
2373.3	20.5
2374.23	27.5
2375.16	25
2376.08	26.5
2377.01	24.5
2377.94	24.5
2378.87	25.5
2379.8	26.5
2380.72	27
2381.65	25
2382.58	21
2383.5	28.5
2384.43	27
2385.36	19.5
2386.28	25
2387.21	22
2388.14	20
2389.06	25.5
2389.99	23
2390.91	20.5
2391.84	25
2392.77	27.5
2393.69	27.5
2394.62	26
2395.54	22.5
2396.47	23.5
2397.39	25
2398.32	26
2399.24	22.5
2400.16	25
2401.09	26
2402.01	22.5
2402.94	25.5
2403.86	25.5
2404.78	26.5
2405.71	23.5
2406.63	24
2407.56	27
2408.48	23
2409.4	24
2410.32	24
2411.25	23.5
2412.17	24.5
2413.09	20
2414.02	25.5
2414.94	24
2415.86	23
2416.78	25.5
2417.7	26.5
2418.63	23.5
2419.55	23
2420.47	26
2421.39	24.5
2422.31	21.5
2423.23	28.5
2424.15	26
2425.07	20.5
2425.99	22
2426.92	23.5
2427.84	20.5
2428.76	22
2429.68	23.5
2430.59	29
2431.51	24.5
2432.43	23
2433.35	20.5
2434.27	25.5
2435.19	24.5
2436.11	27
2437.03	25
2437.95	24
2438.87	28.5
2439.79	26.5
2440.71	25.5
2441.62	24
2442.54	22
2443.46	23
2444.38	21.5
2445.3	24.5
2446.21	25.5
2447.13	25.5
2448.05	24.5
2448.97	26
2449.88	24
2450.8	26
2451.72	23
2452.63	26
2453.55	21.5
2454.47	27
2455.38	24
2456.3	24
2457.21	22.5
2458.13	30
2459.05	23.5
2459.96	26.5
2460.88	26
2461.79	25
2462.71	24.5
2463.62	27
2464.54	25
2465.45	24
2466.37	28
2467.28	24
2468.2	27.5
2469.11	25.5
2470.02	22.5
2470.94	25.5
2471.85	25.5
2472.77	23
2473.68	23.5
2474.59	25.5
2475.51	28
2476.42	25.5
2477.33	26
2478.25	26
2479.16	27
2480.07	27
2480.98	27
2481.9	23
2482.81	22.5
2483.72	24.5
2484.63	22
2485.55	24
2486.46	26.5
2487.37	23.5
2488.28	24.5
2489.19	23.5
2490.1	22.5
2491.01	24
2491.92	26
2492.83	29
2493.74	24.5
2494.66	24.5
2495.57	26.5
2496.48	25.5
2497.39	25
2498.3	23.5
2499.21	21.5
2500.12	28.5
2501.03	27
2501.93	28
2502.84	24
2503.75	30
2504.66	27
2505.57	25.5
2506.48	26
2507.39	24
2508.3	27
2509.21	25
2510.11	28
2511.02	24
2511.93	25
2512.84	26.5
2513.75	28
2514.65	27.5
2515.56	26
2516.47	24
2517.37	24
2518.28	26
2519.19	21
2520.09	24
2521	25
2521.91	26
2522.81	25.5
2523.72	26.5
2524.63	22
2525.53	23.5
2526.44	21
2527.34	25
2528.25	25.5
2529.16	26.5
2530.06	23.5
2530.97	27.5
2531.87	28
2532.78	26.5
2533.68	24.5
2534.58	28.5
2535.49	23.5
2536.39	21.5
2537.3	25.5
2538.2	22
2539.11	28.5
2540.01	26
2540.91	25.5
2541.82	24.5
2542.72	26.5
2543.62	25
2544.53	24
2545.43	25
2546.33	24.5
2547.23	27
2548.14	24
2549.04	28.5
2549.94	23
2550.84	21
2551.75	27.5
2552.65	25
2553.55	23.5
2554.45	23.5
2555.35	24
2556.26	24
2557.16	28
2558.06	22.5
2558.96	27
2559.86	26.5
2560.76	24
2561.66	26
2562.56	23.5
2563.46	25
2564.36	27
2565.26	23.5
2566.16	22.5
2567.06	21.5
2567.96	25
2568.86	26.5
2569.76	22
2570.66	22
2571.56	27.5
2572.46	27.5
2573.36	25
2574.26	24
2575.16	25
2576.05	23
2576.95	25.5
2577.85	25
2578.75	21
2579.65	25.5
2580.54	23.5
2581.44	23.5
2582.34	22.5
2583.24	24
2584.13	22.5
2585.03	24.5
2585.93	25.5
2586.83	26
2587.72	24
2588.62	22
2589.52	21
2590.41	25
2591.31	27
2592.2	26
2593.1	29
2594	25
2594.89	26.5
2595.79	22
2596.68	26
2597.58	19.5
2598.47	23
2599.37	19
2600.26	22
2601.16	24.5
2602.05	25.5
2602.95	28
2603.84	25
2604.74	25
2605.63	27.5
2606.52	25
2607.42	24.5
2608.31	23
2609.21	26
2610.1	25
2610.99	24.5
2611.89	25
2612.78	26.5
2613.67	24
2614.56	28
2615.46	23.5
2616.35	27.5
2617.24	23
2618.13	22
2619.03	23.5
2619.92	25
2620.81	25
2621.7	24.5
2622.59	24.5
2623.49	23
2624.38	22.5
2625.27	27.5
2626.16	25
2627.05	25
2627.94	24.5
2628.83	24
2629.72	22.5
2630.61	23.5
2631.5	24.5
2632.39	23
2633.28	23
2634.17	24
2635.06	21.5
2635.95	22
2636.84	27
2637.73	22
2638.62	26
2639.51	26.5
2640.4	25.5
2641.29	26.5
2642.18	23
2643.07	27
2643.96	27
2644.84	23
2645.73	28.5
2646.62	23.5
2647.51	27.5
2648.4	23.5
2649.28	29
2650.17	26
2651.06	27.5
2651.95	27
2652.83	24
2653.72	26
2654.61	26.5
2655.49	25.5
2656.38	26.5
2657.27	23.5
2658.16	26
2659.04	21
2659.93	23
2660.81	22.5
2661.7	25
2662.59	21
2663.47	26
2664.36	24.5
2665.24	24
2666.13	23
2667.01	25.5
2667.9	29.5
2668.78	24.5
2669.67	25.5
2670.55	23
2671.44	21
2672.32	25.5
2673.21	24
2674.09	24
2674.97	22.5
2675.86	26.5
2676.74	24
2677.62	25
2678.51	21
2679.39	20
2680.27	25
2681.16	22.5
2682.04	26.5
2682.92	29
2683.81	25
2684.69	24
2685.57	23.5
2686.45	27
2687.34	27
2688.22	21.5
2689.1	20
2689.98	21
2690.86	24.5
2691.75	24
2692.63	27.5
2693.51	22.5
2694.39	23
2695.27	23
2696.15	24
2697.03	24
2697.91	28
2698.79	21
2699.67	21
2700.55	24.5
2701.43	25.5
2702.31	26.5
2703.19	28.5
2704.07	21.5
2704.95	23.5
2705.83	23
2706.71	26
2707.59	25
2708.47	26.5
2709.35	27
2710.23	26
2711.11	26
2711.99	28.5
2712.86	20
2713.74	26
2714.62	23
2715.5	23.5
2716.38	26
2717.26	23
2718.13	28
2719.01	29
2719.89	25
2720.77	25
2721.64	20.5
2722.52	23.5
2723.4	20
2724.27	24.5
2725.15	25
2726.03	28.5
2726.9	24
2727.78	25
2728.66	26.5
2729.53	24.5
2730.41	26.5
2731.28	25
2732.16	25.5
2733.03	30
2733.91	27.5
2734.79	25.5
2735.66	26
2736.54	26
2737.41	24
2738.29	25
2739.16	26.5
2740.03	28
2740.91	23
2741.78	26
2742.66	24
2743.53	27.5
2744.41	20
2745.28	25.5
2746.15	21.5
2747.03	26.5
2747.9	24
2748.77	25
2749.65	26.5
2750.52	24.5
2751.39	26
2752.27	24
2753.14	25.5
2754.01	25.5
2754.88	27
2755.75	20
2756.63	25.5
2757.5	24.5
2758.37	26
2759.24	25.5
2760.11	22
2760.99	24.5
2761.86	26.5
2762.73	28
2763.6	22
2764.47	26
2765.34	25.5
2766.21	28.5
2767.08	27
2767.95	22
2768.82	22
2769.69	26.5
2770.56	24.5
2771.43	26.5
2772.3	22
2773.17	22
2774.04	25
2774.91	25.5
2775.78	28
2776.65	29
2777.52	23
2778.39	27
2779.26	28
2780.13	27.5
2780.99	27
2781.86	26
2782.73	24.5
2783.6	23.5
2784.47	24.5
2785.34	24.5
2786.2	23.5
2787.07	23.5
2787.94	24.5
2788.81	26.5
2789.67	24
2790.54	29.5
2791.41	23
2792.27	25
2793.14	23.5
2794.01	21.5
2794.87	26
2795.74	25.5
2796.61	23.5
2797.47	24
2798.34	26
2799.21	25
2800.07	25.5
2800.94	27.5
2801.8	28
2802.67	26
2803.53	27
2804.4	29.5
2805.26	22.5
2806.13	26.5
2806.99	24
2807.86	28
2808.72	28.5
2809.59	30
2810.45	27
2811.32	25.5
2812.18	26.5
2813.04	23.5
2813.91	27
2814.77	23.5
2815.64	28
2816.5	27.5
2817.36	27
2818.22	25
2819.09	28.5
2819.95	25.5
2820.81	24.5
2821.68	23.5
2822.54	26
2823.4	26.5
2824.26	27
2825.13	27.5
2825.99	25.5
2826.85	24
2827.71	28.5
2828.57	24.5
2829.44	31.5
2830.3	28.5
2831.16	23.5
2832.02	22
2832.88	27
2833.74	25
2834.6	27
2835.46	28.5
2836.32	24.5
2837.18	27.5
2838.04	26
2838.9	23.5
2839.76	26
2840.62	23.5
2841.48	28
2842.34	28.5
2843.2	25
2844.06	23.5
2844.92	26
2845.78	30
2846.64	23.5
2847.5	23.5
2848.36	27
2849.22	27.5
2850.08	25
2850.93	26
2851.79	29
2852.65	27
2853.51	26.5
2854.37	29
2855.22	24.5
2856.08	25.5
2856.94	26
2857.8	26
2858.65	23.5
2859.51	28
2860.37	29
2861.23	27
2862.08	26.5
2862.94	27.5
2863.79	24.5
2864.65	22
2865.51	25.5
2866.36	24
2867.22	25.5
2868.08	26
2868.93	25
2869.79	24.5
2870.64	26.5
2871.5	27
2872.35	30.5
2873.21	25.5
2874.06	30
2874.92	24.5
2875.77	27
2876.63	31
2877.48	28
2878.34	31
2879.19	31
2880.05	28
2880.9	28
2881.76	29.5
2882.61	33.5
2883.46	32.5
2884.32	29
2885.17	35.5
2886.02	32.5
2886.88	32.5
2887.73	34.5
2888.58	40.5
2889.44	34
2890.29	36
2891.14	36
2891.99	38
2892.85	40.5
2893.7	40
2894.55	40
2895.4	43.5
2896.25	42
2897.11	50
2897.96	51
2898.81	51.5
2899.66	51
2900.51	59.5
2901.36	63.5
2902.21	60.5
2903.07	60
2903.92	59.5
2904.77	66.5
2905.62	66
2906.47	69
2907.32	64
2908.17	58.5
2909.02	62.5
2909.87	57.5
2910.72	59.5
2911.57	56.5
2912.42	53.5
2913.27	50.5
2914.12	42
2914.97	43.5
2915.81	41.5
2916.66	40
2917.51	37.5
2918.36	39
2919.21	31
2920.06	34
2920.91	35
2921.75	34
2922.6	28
2923.45	29.5
2924.3	26
2925.15	35
2925.99	33
2926.84	29
2927.69	30
2928.54	25
2929.38	29.5
2930.23	30
2931.08	25
2931.92	28
2932.77	25.5
2933.62	31
2934.46	28.5
2935.31	31
2936.16	24.5
2937	28
2937.85	32
2938.69	28
2939.54	27.5
2940.38	26.5
2941.23	27
2942.08	28.5
2942.92	26
2943.77	26
2944.61	27.5
2945.46	31.5
2946.3	25.5
2947.15	25
2947.99	29.5
2948.83	29
2949.68	32
2950.52	31.5
2951.37	33
2952.21	31
2953.05	25.5
2953.9	32
2954.74	32
2955.58	33.5
2956.43	33
2957.27	30
2958.11	40
2958.96	35
2959.8	35
2960.64	39
2961.48	38
2962.33	45.5
2963.17	39
2964.01	36.5
2964.85	43
2965.69	41
2966.54	38.5
2967.38	36
2968.22	42.5
2969.06	42
2969.9	38
2970.74	39
2971.58	40.4733
2972.43	37.9496
2973.27	36.9505
2974.11	35.4208
2974.95	35.4504
2975.79	31.9885
2976.63	33.4589
2977.47	33.3008
2978.31	33.0322
2979.15	29.723
2979.99	26.9784
2980.83	28.2209
2981.67	27.968
2982.51	29.6249
2983.35	27.9124
2984.19	25.8145
2985.03	25.7403
2985.86	24.6255
2986.7	24.6864
2987.54	26.9668
2988.38	24.8504
2989.22	23.9362
2990.06	25.8559
2990.9	24.2607
2991.73	24.7883
2992.57	28.3416
2993.41	28.7099
2994.25	25.2389
2995.09	23.5777
2995.92	28.7909
2996.76	23.4007
2997.6	26.0771
2998.44	23.0515
2999.27	26.3066
3000.11	22.8345
3000.95	23.8158
3001.78	23.9212
3002.62	23.8039
3003.46	22.8129
3004.29	24.5037
3005.13	24.8685
3005.96	24.0792
3006.8	22.8512
3007.64	24.3344
3008.47	25.0257
3009.31	23.6355
3010.14	23.8214
3010.98	22.8646
3011.81	23.0221
3012.65	25.4323
3013.48	24.3798
3014.32	25.4153
3015.15	25.0754
3015.99	23.7596
3016.82	24.4648
3017.66	24.7497
3018.49	23.9503
3019.33	23.5583
3020.16	24.9233
3020.99	25.4317
3021.83	25.1269
3022.66	25.2913
3023.5	24.3796
3024.33	23.1231
3025.16	24.3549
3026	25.442
3026.83	23.7102
3027.66	24.2933
3028.49	24.2392
3029.33	24.8405
3030.16	24.4665
3030.99	24.4977
3031.83	24.0706
3032.66	22.5634
3033.49	24.4634
3034.32	26.2208
3035.15	24.2237
3035.99	21.7835
3036.82	22.3681
3037.65	24.2171
3038.48	25.5189
3039.31	23.0042
3040.14	22.6923
3040.97	23.4682
3041.81	25.1266
3042.64	25.0385
3043.47	24.627
3044.3	25.3052
3045.13	24.0685
3045.96	23
3046.79	24.4882
3047.62	26.3945
3048.45	25.8992
3049.28	25.8468
3050.11	25.1896
3050.94	23.1672
3051.77	20.4551
3052.6	20.4805
3053.43	23.0369
3054.26	23.2682
3055.08	23.0767
3055.91	23.2264
3056.74	23.159
3057.26	25
3058.09	27
3058.92	22.5
3059.76	24.5
3060.59	23.5
3061.42	26.5
3062.25	25
3063.09	24.5
3063.92	22.5
3064.75	26
3065.58	23
3066.42	25.5
3067.25	23
3068.08	21.5
3068.91	27.5
3069.74	24.5
3070.57	23.5
3071.41	19.5
3072.24	20.5
3073.07	22
3073.9	23.5
3074.73	25
3075.56	20.5
3076.39	21.5
3077.22	26
3078.05	22.5
3078.88	20.5
3079.71	23.5
3080.54	24.5
3081.37	24.5
3082.2	26.5
3083.03	26
3083.86	22
3084.69	25
3085.52	28.5
3086.35	23
3087.18	22
3088.01	25.5
3088.84	24
3089.67	25.5
3090.5	21
3091.32	21
3092.15	24.5
3092.98	22.5
3093.81	24
3094.64	26
3095.47	22.5
3096.29	23.5
3097.12	29
3097.95	24
3098.78	20
3099.6	23.5
3100.43	23.5
3101.26	25
3102.09	24.5
3102.91	21.5
3103.74	24.5
3104.57	23.5
3105.39	22
3106.22	22.5
3107.05	26
3107.87	20.5
3108.7	26.5
3109.52	25.5
3110.35	25
3111.18	21.5
3112	26.5
3112.83	25.5
3113.65	26
3114.48	27.5
3115.3	24.5
3116.13	25
3116.95	25.5
3117.78	24.5
3118.6	22.5
3119.43	27.5
3120.25	24
3121.08	21.5
3121.9	22.5
3122.72	23.5
3123.55	22.5
3124.37	24.5
3125.2	24
3126.02	26.5
3126.84	19.5
3127.67	25
3128.49	24
3129.31	24
3130.14	24
3130.96	23.5
3131.78	20.5
3132.61	24.5
3133.43	23
3134.25	24.5
3135.07	22
3135.89	25
3136.72	25.5
3137.54	24
3138.36	23
3139.18	26.5
3140	28
3140.83	24
3141.65	24
3142.47	23
3143.29	24
3144.11	24.5
3144.93	26
3145.75	24.5
3146.57	23.5
3147.4	24.5
3148.22	24
3149.04	26.5
3149.86	24
3150.68	19.5
3151.5	22
3152.32	22.5
3153.14	21.5
3153.96	28.5
3154.78	24.5
3155.59	23.5
3156.42	20
3157.23	25
3158.05	24.5
3158.87	22
3159.69	26.5
3160.51	22.5
3161.33	24.5
3162.15	23
3162.97	23
3163.78	22
3164.6	23
3165.42	21
3166.24	28.5
3167.06	23
3167.87	20
3168.69	27.5
3169.51	23.5
3170.33	21.5
3171.14	25
3171.96	24.5
3172.78	20
3173.6	25.5
3174.41	23
3175.23	24
3176.05	23.5
3176.86	21.5
3177.68	27.5
3178.5	23
3179.31	25.5
3180.13	25.5
3180.94	25
3181.76	23.5
3182.58	24.5
3183.39	26.5
3184.21	27
3185.02	23
3185.84	21
3186.65	22
3187.47	25
3188.28	25
3189.1	24.5
3189.91	24.5
3190.73	26
3191.54	25
3192.36	26
3193.17	25
3193.98	23
3194.8	22.5
3195.61	25
3196.43	25.5
3197.24	22
3198.05	26.5
3198.87	21.5
3199.68	22
3200.49	25
3201.31	25.5
3202.12	28
3202.93	25
3203.75	21.5
3204.56	24
3205.37	25.5
3206.18	24
3207	24.5
3207.81	24
3208.62	25.5
3209.43	21.5
3210.24	26
3211.06	20.5
3211.87	20.5
3212.68	27
3213.49	23.5
3214.3	27
3215.11	24
3215.92	26
3216.73	28
3217.55	24
3218.36	25
3219.17	24.5
3219.98	26
3220.79	26
3221.6	23
3222.41	22.5
3223.22	26
3224.03	26.5
3224.84	23
3225.65	26
3226.46	25
3227.27	24.5
3228.08	25.5
3228.89	25.5
3229.7	23
3230.5	28
3231.31	22
3232.12	26.5
3232.93	26
3233.74	28
3234.55	21.5
3235.36	24
3236.16	26
3236.97	25.5
3237.78	26.5
3238.59	23.5
3239.4	21
3240.2	25
3241.01	24.5
3241.82	22
3242.63	23.5
3243.43	20
3244.24	23
3245.05	20.5
3245.85	19.5
3246.66	28
3247.47	23.5
3248.27	21
3249.08	24
3249.89	31
3250.69	29
3251.5	22.5
3252.31	25
3253.11	26
3253.92	24.5
3254.72	27
3255.53	26
3256.33	24
3257.14	22.5
3257.94	28
3258.75	26
3259.55	22
3260.36	26
3261.16	23
3261.97	21
3262.77	16
3263.58	25.5
3264.38	24.5
3265.19	28.5
3265.99	21.5
3266.79	26.5
3267.6	25.5
3268.4	25
3269.21	23.5
3270.01	25
3270.81	23.5
3271.62	30
3272.42	28
3273.22	25
3274.03	24
3274.83	21
3275.63	22.5
3276.43	25
3277.24	23.5
3278.04	27.5
3278.84	23
3279.64	24.5
3280.45	29.5
3281.25	24
3282.05	26.5
3282.85	22
3283.65	23
3284.45	25
3285.26	26
3286.06	25
3286.86	26
3287.66	23
3288.46	25
3289.26	27
3290.06	22.5
3290.86	27.5
3291.66	25.5
3292.46	24.5
3293.26	26
3294.06	28
3294.86	25.5
3295.66	26
3296.46	25
3297.26	23.5
3298.06	24
3298.86	25.5
3299.66	27
3300.46	23
3301.26	27
3302.06	24
3302.86	23.5
3303.66	24
3304.46	23
3305.25	26.5
3306.05	25.5
3306.85	25
3307.65	26
3308.45	24
3309.25	25.5
3310.04	25
3310.84	20
3311.64	28.5
3312.44	21.5
3313.23	24
3314.03	22
3314.83	26.5
3315.63	26
3316.42	24
3317.22	26
3318.02	25
3318.81	25
3319.61	27.5
3320.41	24.5
3321.2	25
3322	28
3322.8	24
3323.59	23.5
3324.39	24.5
3325.18	24.5
3325.98	25
3326.78	19
3327.57	23.5
3328.37	26.5
3329.16	24.5
3329.96	27
3330.75	24
3331.55	27
3332.34	27
3333.14	25.5
3333.93	27
3334.73	27
3335.52	21
3336.31	25.5
3337.11	23
3337.9	26.5
3338.7	24.5
3339.49	26.5
3340.28	26.5
3341.08	26.5
3341.87	21
3342.66	27
3343.46	24
3344.25	21
3345.04	25.5
3345.84	29
3346.63	25
3347.42	23
3348.22	21
3349.01	26.5
3349.8	26
3350.59	23
3351.39	24
3352.18	22.5
3352.97	28
3353.76	26.5
3354.55	23.5
3355.35	26
3356.14	24.5
3356.93	24
3357.72	22.5
3358.51	22.5
3359.3	24.5
3360.09	22
3360.88	26
3361.67	22
3362.46	24
3363.26	27
3364.05	26
3364.84	25
3365.63	29.5
3366.42	23
3367.21	25
3368	25.5
3368.79	25.5
3369.58	24.5
3370.37	27.5
3371.15	23
3371.94	24
3372.73	25.5
3373.52	27
3374.31	23
3375.1	25.5
3375.89	27
3376.68	23
3377.47	26
3378.26	29
3379.04	22
3379.83	23.5
3380.62	27
3381.41	25
3382.2	22.5
3382.98	27.5
3383.77	24.5
3384.56	24.5
3385.35	23.5
3386.13	24
3386.92	29
3387.71	23.5
3388.5	26
3389.28	27
3390.07	25
3390.86	23
3391.64	26
3392.43	26.5
3393.22	26
3394	25
3394.79	27
3395.57	24.5
3396.36	22
3397.15	27.5
3397.93	20.5
3398.72	28
3399.5	24
3400.29	28
3401.07	28
3401.86	28.5
3402.65	21.5
3403.43	26.5
3404.21	29
3405	22
3405.78	27
3406.57	25.5
3407.35	22
3408.14	23
3408.92	26.5
3409.71	26.5
3410.49	27.5
3411.27	23
3412.06	22
3412.84	28.5
3413.62	24
3414.41	27.5
3415.19	27
3415.97	23.5
3416.76	25
3417.54	25
3418.32	26.5
3419.11	24
3419.89	22.5
3420.67	24
3421.46	29.5
3422.24	24
3423.02	23
3423.8	27
3424.58	27.5
3425.37	25.5
3426.15	23.5
3426.93	30
3427.71	24.5
3428.49	22
3429.27	23.5
3430.05	25.5
3430.84	22
3431.62	25
3432.4	25.5
3433.18	28
3433.96	23
3434.74	22
3435.52	26
3436.3	23.5
3437.08	23.5
3437.86	26.5
3438.64	23
3439.42	26.5
3440.2	23.5
3440.98	24.5
3441.76	21.5
3442.54	23
3443.32	22.5
3444.1	25.5
3444.88	25
3445.66	26
3446.44	21
3447.22	25.5
3448	22
3448.77	23.5
3449.55	23.5
3450.33	22
3451.11	25
3451.89	22.5
3452.67	21.5
3453.45	23
3454.22	24.5
3455	25.5
3455.78	28.5
3456.56	24
3457.33	26.5
3458.11	24.5
3458.89	24
3459.67	20.5
3460.44	25
3461.22	27
3462	24
3462.77	25
3463.55	26
3464.33	26
3465.1	25.5
3465.88	20.5
3466.66	27.5
3467.43	26.5
3468.21	24.5
3468.98	25
3469.76	23.5
3470.54	24
3471.31	21.5
3472.09	22
3472.86	28
3473.64	24.5
3474.41	26
3475.19	25
3475.96	22
3476.74	24
3477.51	21.5
3478.29	19
3479.06	28
3479.84	24
3480.61	23
3481.39	23
3482.16	23
3482.93	24.5
3483.71	22.5
3484.48	25
3485.25	24
3486.03	25.5
3486.8	27.5
3487.57	27
3488.35	24
3489.12	25
3489.89	25
3490.67	27
3491.44	26
3492.21	27
3492.99	22
3493.76	26
3494.53	21
3495.3	25.5
3496.08	27.5
3496.85	25.5
3497.62	21
3498.39	26.5
3499.16	23.5
3499.93	23
