#Acq. time (s)=	5
#Accumulations=	5
#Range (cm-¹)=	100...3500
#Windows=	4
#Autofocus=	Off
#AutoExposure=	Off
#Spike filter=	Multiple accum.
#Delay time (s)=	0
#Binning=	1
#Readout mode=	Signal
#DeNoise=	Off
#ICS correction=	Off
#Dark correction=	Off
#Inst. Process=	Off
#Instrument=	LabRAM HR Evol
#Detector=	Syncerity OE
#Objective=	x100_VIS
#Grating=	600 (500nm)
#ND Filter=	25%
#Laser=	633nm_Edge
#Hole=	100.021
#Range=	Visible
#Project=	verificaciones
#Sample=	at5
#Site=	lined
#Title=	bolusat5lined
#Remark=	
#Date=	13.01.2026 16:33
#Acquired=	13.01.2026 16:33:37
100.692	26
101.975	30.5
103.258	30
104.542	27
105.824	30
107.107	34
108.39	28.5
109.672	30
110.954	32
112.236	25
113.519	28
114.8	29
116.081	28
117.362	27.5
118.643	30
119.924	29.5
121.204	31
122.484	27.5
123.764	31
125.044	30
126.323	33
127.603	33.5
128.882	31.5
130.161	36
131.438	32.5
132.716	35
133.995	31
135.273	31.5
136.55	35
137.828	34
139.106	36.5
140.383	34.5
141.66	34
142.937	33
144.213	35
145.488	37
146.764	38
148.04	40
149.316	40.5
150.592	40
151.867	37.5
153.141	33
154.416	37.5
155.69	43.5
156.965	40.5
158.239	40.5
159.512	40
160.786	41
162.059	42
163.333	35
164.605	40
165.878	37.5
167.15	41
168.423	39.5
169.694	36
170.966	36
172.238	35.5
173.51	42.5
174.78	38
176.052	38
177.323	37
178.592	37.5
179.863	42
181.134	37
182.403	41
183.673	40
184.943	41.5
186.211	34
187.481	40
188.749	35.5
190.018	39
191.287	36.5
192.554	42
193.822	38
195.089	35
196.357	36
197.625	41.5
198.891	42.5
200.159	35
201.425	35
202.692	35.5
203.957	36.5
205.224	32.5
206.489	34
207.755	33.5
209.02	37.5
210.286	37.5
211.55	32
212.815	33
214.079	32
215.344	34
216.607	35.5
217.872	33
219.135	35
220.399	32
221.662	29.5
222.924	38
224.187	31.5
225.449	31.5
226.713	32
227.974	28
229.235	31.5
230.498	29.5
231.759	31.5
233.019	30.5
234.281	28
235.542	30.5
236.802	32.5
238.063	30
239.323	30
240.582	28.5
241.843	29
243.102	30.5
244.361	31
245.621	29
246.879	31
248.138	30
249.396	28
250.655	32
251.913	29
253.17	27
254.427	28.5
255.686	32
256.943	29
258.199	27
259.456	30.5
260.712	30
261.969	28
263.225	30.5
264.481	30
265.736	30.5
266.991	32
268.246	30
269.502	26
270.757	30
272.011	30.5
273.265	27
274.519	27
275.773	27.5
277.027	27
278.28	28.5
279.533	29
280.786	28.5
282.04	29.5
283.293	30.5
284.545	27.5
285.798	27
287.049	28.5
288.301	29.5
289.553	31
290.804	27.5
292.055	25
293.306	25.5
294.557	27.5
295.807	29.5
297.058	29
298.308	28
299.558	23
300.808	30
302.057	26
303.305	29.5
304.554	27
305.803	30.5
307.052	27.5
308.3	30.5
309.549	30
310.797	27
312.045	29.5
313.292	26.5
314.54	29
315.786	26.5
317.033	30
318.28	27.5
319.526	29
320.773	26
322.019	28
323.264	30
324.51	27
325.755	29
327.001	27.5
328.246	27
329.49	26
330.735	26
331.979	28
333.224	23.5
334.467	30.5
335.711	31
336.955	34
338.199	31
339.441	27
340.684	29
341.927	29.5
343.168	28
344.411	29
345.654	31
346.895	31
348.137	29
349.379	24
350.619	32.5
351.86	28
353.102	26
354.341	26.5
355.582	29
356.821	29
358.062	27
359.302	28
360.541	29
361.781	30
363.019	30
364.259	28.5
365.496	26.5
366.736	30
367.974	27
369.212	26
370.45	27
371.687	26
372.925	29
374.162	25
375.399	28.5
376.635	26
377.873	28.5
379.109	29.5
380.344	28.5
381.581	26.5
382.816	28
384.052	28
385.287	29
386.523	27.5
387.757	30
388.991	30
390.227	25.5
391.46	26.5
392.695	29.5
393.928	30
395.162	27.5
396.396	28
397.629	26.5
398.861	24.5
400.095	28
401.327	29
402.559	28.5
403.792	30.5
405.024	24
406.255	29.5
407.488	27
408.719	24.5
409.949	25.5
411.18	29
412.412	31.5
413.642	32
414.872	24.5
416.102	30
417.333	31.5
418.562	28.5
419.791	28.5
421.02	26.5
422.249	28
423.479	31.5
424.707	29.5
425.935	29.5
427.163	27
428.391	34
429.619	31
430.848	30
432.075	29.5
433.302	25.5
434.529	32.5
435.755	26.5
436.982	27
438.208	27.5
439.434	31
440.66	26.5
441.885	27
443.111	28
444.338	28
445.563	27
446.788	28.5
448.012	29
449.237	29.5
450.461	32
451.685	27
452.909	26.5
454.133	29.5
455.356	27
456.579	30
457.802	32
459.025	27.5
460.247	24
461.469	29
462.691	33
463.914	34
465.136	28.5
466.357	31.5
467.579	31.5
468.8	34
470.021	34.5
471.242	30
472.462	34
473.682	35
474.903	37
476.123	41
477.343	41.5
478.563	44.5
479.782	47
481	46.5
482.219	49
483.438	53.5
484.657	57
485.874	57
487.093	54
488.311	51
489.529	59
490.747	60.5
491.963	57
493.181	52.5
494.398	52
495.614	54
496.83	47
498.047	43
499.264	45.5
500.479	43.5
501.695	50
502.911	36
504.125	38
505.34	36.5
506.554	37
507.769	34.5
508.984	31.5
510.198	36
511.412	33.5
512.627	31.5
513.839	33.5
515.053	33
516.266	32
517.479	32
518.691	33
519.905	29.5
521.118	35
522.329	29.5
523.542	34
524.753	34.5
525.965	30
527.176	31.5
528.388	30.5
529.598	28
530.809	27
532.019	34
533.23	27
534.44	30
535.649	28
536.86	33.5
538.068	28.5
539.279	29.5
540.487	26
541.697	26
542.905	28
544.113	34
545.322	28
546.53	31
547.737	27
548.946	29.5
550.153	31.5
551.361	32.5
552.568	31
553.774	29
554.982	30.5
556.188	31
557.394	27
558.599	30
559.806	28.5
561.012	30
562.217	30
563.423	28
564.628	26.5
565.832	27
567.036	29.5
568.241	23
569.446	30
570.65	27
571.853	22
573.057	25
574.26	25.5
575.464	27.5
576.667	33.5
577.87	26
579.072	28.5
580.274	29
581.477	27
582.68	29
583.881	28
585.083	27.5
586.284	30.5
587.485	25.5
588.686	30.5
589.887	29.5
591.087	28.5
592.288	32
593.488	26.5
594.688	29.5
595.888	25
597.087	26
598.287	29.5
599.486	24.5
600.685	25.5
601.884	32
603.082	28.5
604.281	29.5
605.479	26
606.677	26
607.875	25.5
609.073	30
610.27	28
611.468	26
612.665	31
613.862	27
615.058	31.5
616.255	29.5
617.451	32.5
618.648	31
619.842	28
621.038	25
622.234	28.5
623.429	30.5
624.624	25.5
625.819	25
627.013	28
628.207	29.5
629.402	29
630.596	29.5
631.79	26.5
632.983	25
634.177	27
635.37	28.5
636.564	24
637.755	29
638.948	25
640.141	25
641.334	27
642.525	33
643.717	26
644.909	26
646.099	23.5
647.291	29.5
648.483	27.5
649.674	26
650.864	25
652.055	28
653.244	24
654.435	26.5
655.625	26
656.814	32
658.004	29
659.193	29
660.382	31
661.571	29.5
662.759	25
663.948	28
665.135	29
666.324	29
667.511	31
668.7	32.5
669.886	29
671.074	29.5
672.262	28.5
673.448	29.5
674.634	32.5
675.821	36
677.007	31
678.194	31.5
679.379	34
680.565	35
681.75	37
682.936	36
684.121	36
685.305	36.5
686.491	31.5
687.675	30
688.86	33.5
690.043	34
691.227	36.5
692.411	34
693.594	31.5
694.777	33
695.961	36
697.144	33
698.326	35.5
699.509	35.5
700.691	38.5
701.873	38
703.056	44
704.237	45
705.419	42
706.599	46.5
707.782	54.5
708.962	52.5
710.143	49
711.323	42
712.504	45
713.684	39.5
714.864	33.5
716.043	30
717.223	30.5
718.403	30.5
719.582	27
720.761	32.5
721.94	31
723.118	31
724.296	28
725.474	26.5
726.652	31
727.831	28.5
729.009	28.5
730.186	29.5
731.363	24
732.54	27.5
733.717	26
734.893	27
736.07	26
737.246	28
738.422	27
739.598	26
740.773	26.5
741.949	28.5
743.124	31.5
744.299	28
745.474	31.5
746.649	27
747.823	30.5
748.997	24
750.172	29
751.346	26.5
752.519	28.5
753.693	25.5
754.867	27
756.038	26
757.211	29.5
758.384	27
759.557	29.5
760.73	24.5
761.902	29
763.074	25
764.246	27
765.417	27.5
766.588	24.5
767.76	27.5
768.931	27
770.102	27.5
771.271	22.5
772.442	27.5
773.613	30
774.783	30
775.952	30.5
777.122	32
778.291	30
779.461	28
780.629	28
781.798	33
782.967	28
784.135	31
785.304	32
786.472	33.5
787.639	33
788.807	28
789.975	29
791.142	31.5
792.309	32
793.477	32
794.642	30
795.81	28
796.975	28
798.142	28
799.308	27.5
800.473	33
801.639	28.5
802.804	30
803.97	28.5
805.134	35
806.299	30
807.463	30.5
808.628	27
809.792	28
810.957	29.5
812.12	28
813.284	27.5
814.447	29
815.611	27
816.773	28.5
817.937	26
819.099	25
820.261	29.5
821.424	25
822.585	28.5
823.748	30.5
824.909	31
826.07	27
827.232	29
828.393	30
829.554	31
830.715	27
831.875	26
833.035	28
834.196	29.5
835.356	28
836.515	26
837.676	28.5
838.835	26.5
839.994	23.5
841.152	31
842.312	25
843.47	29
844.629	25
845.786	24
846.946	27.5
848.103	29.5
849.261	26
850.418	27.5
851.575	29.5
852.733	34
853.89	26
855.046	31
856.203	28.5
857.359	30.5
858.515	29.5
859.67	27.5
860.827	29
861.983	28.5
863.138	32.5
864.293	29
865.448	26.5
866.603	33
867.757	25
868.912	28.5
870.066	26.5
871.22	32
872.374	26.5
873.527	28.5
874.681	27
875.834	27.5
876.987	28
878.14	30
879.293	27
880.445	32
881.598	25.5
882.75	28
883.902	24
885.054	29.5
886.206	26
887.357	23
888.507	25.5
889.658	30.5
890.809	25.5
891.96	23
893.111	24.5
894.261	27.5
895.411	26.5
896.561	26
897.71	25
898.86	26.5
900.009	24
901.159	25.5
902.308	27
903.455	24.5
904.604	28.5
905.753	26
906.901	26.5
908.048	28
909.197	33.5
910.344	27
911.492	26
912.639	28
913.786	28.5
914.933	26
916.079	24
917.226	30.5
918.373	27.5
919.518	27
920.664	30.5
921.81	25
922.955	24.5
924.101	31.5
925.245	26
926.391	28.5
927.536	29
928.68	26
929.825	26
930.968	24
932.113	22
933.256	22.5
934.4	24
935.543	27
936.687	24
937.83	26
938.973	28
940.115	22
941.258	23
942.399	28.5
943.542	26.5
944.684	26
945.826	28
946.967	28.5
948.109	26.5
949.25	25.5
950.392	27.5
951.532	26.5
952.672	27
953.813	24
954.953	25.5
956.093	26.5
957.233	23.5
958.373	23
959.512	29
960.652	25
961.791	24.5
962.929	25.5
964.069	27
965.207	29
966.345	22
967.484	27
968.622	29
969.759	22
970.896	23
972.035	22
973.172	28
974.309	24.5
975.445	23
976.582	27
977.719	28.5
978.855	25
979.991	25
981.127	28.5
982.263	27
983.398	23
984.535	26.5
985.67	26.5
986.804	25
987.939	26
989.074	29.5
990.208	24
991.342	25.5
992.476	28
993.61	25
994.744	25
995.877	28.5
997.01	24.5
998.143	27.5
999.276	26.5
1000.41	22.5
1001.54	26.5
1002.67	28
1003.81	23
1004.94	26.5
1006.07	26.5
1007.2	27
1008.33	29
1009.47	26.5
1010.6	24.5
1011.73	23.5
1012.86	28
1013.99	22
1015.12	24
1016.25	22.5
1017.38	25.5
1018.51	25
1019.64	23
1020.77	26
1021.9	27.5
1023.03	27.5
1024.15	27
1025.28	25.5
1026.41	25.5
1027.54	23.5
1028.67	26
1029.8	25.5
1030.92	24
1032.05	24.5
1033.18	29
1034.31	28
1035.43	24.5
1036.56	27.5
1037.69	23
1038.81	29
1039.94	29
1041.07	28
1042.19	21.5
1043.32	28.5
1044.44	25.5
1045.57	26.5
1046.69	27.5
1047.82	26.5
1048.94	25
1050.07	24.5
1051.19	23.5
1052.32	28
1053.44	24.5
1054.57	25.5
1055.69	27
1056.81	23.5
1057.94	26
1059.06	24.5
1060.18	23
1061.31	27.5
1062.43	23
1063.55	27
1064.67	30
1065.8	28.5
1066.92	29
1068.04	24
1069.16	25
1070.28	26
1071.4	27
1072.52	25
1073.64	26
1074.76	27
1075.89	28.5
1077.01	27.5
1078.13	22
1079.25	27.5
1080.37	32.5
1081.49	25.5
1082.6	27
1083.72	21.5
1084.84	24
1085.96	27
1087.08	22
1088.2	26.5
1089.32	24
1090.43	27.5
1091.55	26.5
1092.67	27.5
1093.79	20.5
1094.91	26
1096.02	27
1097.14	23
1098.26	28
1099.37	23.5
1100.49	23.5
1101.61	26.5
1102.72	25
1103.84	25.5
1104.95	25.5
1106.07	25.5
1107.18	27.5
1108.3	28
1109.41	28.5
1110.53	26.5
1111.64	28
1112.76	23
1113.87	30
1114.99	30
1116.1	27.5
1117.21	26.5
1118.33	28
1119.44	26
1120.55	24.5
1121.67	24.5
1122.78	26
1123.89	22.5
1125	21
1126.12	24.5
1127.23	25
1128.34	25
1129.45	25.5
1130.56	26
1131.68	23.5
1132.79	27.5
1133.9	22.5
1135.01	25
1136.12	27
1137.23	25
1138.34	20
1139.45	25.5
1140.56	28
1141.67	18
1142.78	26.5
1143.89	22.5
1145	24.5
1146.11	26.5
1147.22	29
1148.32	23
1149.43	21
1150.54	26
1151.65	22.5
1152.76	23
1153.86	22.5
1154.97	27.5
1156.08	28.5
1157.19	23
1158.29	27
1159.4	24.5
1160.51	24.5
1161.61	23.5
1162.72	27.5
1163.83	27.5
1164.93	26.5
1166.04	24
1167.14	28
1168.25	19.5
1169.35	26
1170.46	26
1171.56	22.5
1172.67	22
1173.77	24
1174.88	27
1175.98	25.5
1177.08	23
1178.19	28.5
1179.29	26
1180.4	23
1181.5	25
1182.6	24
1183.71	23
1184.81	26
1185.91	26.5
1187.01	23.5
1188.12	23.5
1189.22	25
1190.32	25.5
1191.42	26.5
1192.52	24
1193.62	25
1194.72	23.4955
1195.83	25.4528
1196.93	26.5047
1198.03	23.0748
1199.13	23.0394
1200.23	21.1487
1201.33	26.417
1202.43	24.6027
1203.53	24.9688
1204.63	25.0703
1205.73	27.0411
1206.83	24.5391
1207.92	27.7741
1209.02	25.3135
1210.12	24.4917
1211.22	22.199
1212.32	24.7902
1213.42	20.7151
1214.51	25.1984
1215.61	26.6715
1216.71	23.663
1217.81	22.8837
1218.9	27.1878
1220	26.0424
1221.1	26.1322
1222.19	24.6102
1223.29	20.977
1224.39	22.7014
1225.48	28.1362
1226.58	24.5
1227.68	26.8903
1228.77	23.8271
1229.87	26.2958
1230.96	26.1626
1232.06	26.4132
1233.15	23.818
1234.25	24.3063
1235.34	23.3707
1236.43	22.2964
1237.53	24.4611
1238.62	25.1708
1239.72	26.2985
1240.81	22.7507
1241.9	23.9424
1243	24.5596
1244.09	26.4526
1245.18	23.004
1246.27	24.7197
1247.37	24.2063
1248.46	23.1184
1249.55	23.5004
1250.64	24.6964
1251.74	23.7902
1252.83	25.7077
1253.92	25.5637
1255.01	24.2873
1256.1	25.3136
1257.19	24.5424
1258.28	26.3089
1259.38	26.3639
1260.46	24.0139
1261.56	27.3746
1262.65	27.4961
1263.74	25.4793
1264.82	29.8737
1265.91	25.1854
1267	24.2757
1268.09	24.4963
1269.18	26.2161
1270.27	26.7028
1271.36	22.8663
1272.45	23.6243
1273.54	23.2328
1274.63	23.5236
1275.71	24.2387
1276.8	24.8665
1277.89	24.3711
1278.98	23.2971
1280.06	20.5793
1281.15	20.4746
1282.24	25.3819
1283.32	26.0728
1284.41	23.8282
1285.5	24.6204
1286.58	23.3169
1287.67	26.6664
1288.76	27.7791
1289.84	26.2145
1290.93	24.251
1292.01	24.3739
1293.1	23.3521
1294.18	23.9413
1295.27	25.8913
1296.35	25.423
1297.44	23.7195
1298.52	23.974
1299.6	25.3585
1300.69	22.3933
1301.77	22.5812
1302.86	24.6674
1303.94	21.5711
1305.02	22.1453
1306.11	23.7341
1306.41	24
1307.5	26
1308.59	25
1309.68	26.5
1310.77	24.5
1311.85	25
1312.94	23
1314.03	25
1315.11	21.5
1316.2	26
1317.29	21
1318.37	23
1319.46	26
1320.55	22.5
1321.63	23
1322.72	21
1323.8	26.5
1324.89	27.5
1325.98	22
1327.06	20.5
1328.15	28
1329.23	23
1330.31	22
1331.4	24.5
1332.48	25
1333.57	21
1334.65	24.5
1335.74	25
1336.82	25.5
1337.9	23
1338.99	26
1340.07	27
1341.15	23
1342.24	29.5
1343.32	22.5
1344.4	23.5
1345.48	23.5
1346.56	22
1347.65	20
1348.73	24
1349.81	24
1350.89	23
1351.97	24
1353.05	23.5
1354.13	28.5
1355.21	29
1356.29	22.5
1357.37	24
1358.46	25.5
1359.54	24
1360.62	27
1361.69	27.5
1362.77	23
1363.85	25.5
1364.93	23.5
1366.01	27
1367.09	25
1368.17	27
1369.25	26.5
1370.33	27.5
1371.41	25
1372.48	24.5
1373.56	26
1374.64	25.5
1375.72	26.5
1376.79	24
1377.87	26.5
1378.95	25.5
1380.02	25
1381.1	26.5
1382.18	27
1383.25	26.5
1384.33	27.5
1385.4	22.5
1386.48	22.5
1387.56	27.5
1388.63	27.5
1389.71	28.5
1390.78	26
1391.86	26
1392.93	25
1394.01	26
1395.08	25
1396.15	27.5
1397.23	27.5
1398.3	28
1399.38	28.5
1400.45	32.5
1401.52	28
1402.6	29.5
1403.67	30
1404.74	26
1405.81	33.5
1406.89	32
1407.96	31
1409.03	30
1410.1	32.5
1411.17	32.5
1412.25	28.5
1413.32	29.5
1414.39	31.5
1415.46	28
1416.53	29.5
1417.6	25.5
1418.67	31.5
1419.74	26.5
1420.81	26.5
1421.88	26
1422.95	20.5
1424.02	27
1425.09	25.5
1426.16	28.5
1427.23	22.5
1428.3	23
1429.37	27
1430.44	27.5
1431.51	27
1432.58	29.5
1433.64	24
1434.71	25
1435.78	23.5
1436.85	26.5
1437.92	21.5
1438.98	26.5
1440.05	25
1441.12	26
1442.18	25
1443.25	25
1444.32	27
1445.38	26
1446.45	26
1447.52	26
1448.58	25
1449.65	28
1450.71	23.5
1451.78	31.5
1452.84	27.5
1453.91	24
1454.97	25.5
1456.04	28.5
1457.1	24
1458.17	26.5
1459.23	27
1460.3	27
1461.36	26
1462.42	23.5
1463.49	26
1464.55	27
1465.61	28.5
1466.68	28
1467.74	23
1468.8	21.5
1469.86	25.5
1470.93	24.5
1471.99	27.5
1473.05	22
1474.11	24.5
1475.17	26.5
1476.24	25
1477.3	24.5
1478.36	22.5
1479.42	24
1480.48	24
1481.54	25.5
1482.6	22
1483.66	24.5
1484.72	29.5
1485.78	28
1486.84	27.5
1487.9	24
1488.96	25
1490.02	24
1491.08	26
1492.14	25.5
1493.2	28.5
1494.26	24.5
1495.31	24
1496.37	24
1497.43	26.5
1498.49	27
1499.55	25
1500.6	22
1501.66	24
1502.72	27
1503.78	22
1504.83	26.5
1505.89	25
1506.95	24
1508	25
1509.06	29
1510.12	21.5
1511.17	29
1512.23	25
1513.28	27.5
1514.34	23.5
1515.39	27
1516.45	26
1517.5	26
1518.56	23.5
1519.61	27
1520.67	24
1521.72	21.5
1522.78	25.5
1523.83	28.5
1524.88	26
1525.94	22
1526.99	28
1528.05	24
1529.1	25
1530.15	26
1531.2	29
1532.26	24
1533.31	25.5
1534.36	23
1535.41	24.5
1536.47	29.5
1537.52	24.5
1538.57	26.5
1539.62	26
1540.67	24
1541.72	24.5
1542.77	23.5
1543.83	26.5
1544.88	20
1545.93	29.5
1546.98	25
1548.03	25.5
1549.08	27
1550.13	26
1551.18	25
1552.23	29.5
1553.28	25.5
1554.32	21.5
1555.37	24
1556.42	26.5
1557.47	26
1558.52	26
1559.57	27.5
1560.62	25.5
1561.67	24.5
1562.71	26
1563.76	25
1564.81	28.5
1565.86	27.5
1566.9	27
1567.95	23.5
1569	24
1570.04	28
1571.09	27.5
1572.14	24
1573.18	26.5
1574.23	26.5
1575.27	25
1576.32	27
1577.37	25
1578.41	28
1579.46	26
1580.5	25.5
1581.55	27
1582.59	31
1583.64	28.5
1584.68	27
1585.72	22.5
1586.77	28
1587.81	22.5
1588.86	25.5
1589.9	30
1590.94	24
1591.99	27.5
1593.03	23.5
1594.07	27
1595.12	23
1596.16	26
1597.2	24
1598.24	28.5
1599.29	24
1600.33	24
1601.37	25.5
1602.41	27.5
1603.45	24
1604.49	27.5
1605.53	25.5
1606.58	25
1607.62	23
1608.66	25
1609.7	22.5
1610.74	22.5
1611.78	24
1612.82	27
1613.86	23
1614.9	22.5
1615.94	26
1616.98	28.5
1618.02	26
1619.06	26
1620.09	29.5
1621.13	24
1622.17	26.5
1623.21	23.5
1624.25	25
1625.29	26.5
1626.32	21
1627.36	25
1628.4	26
1629.44	25
1630.47	24.5
1631.51	19
1632.55	29.5
1633.58	27
1634.62	26.5
1635.66	26
1636.69	26
1637.73	26
1638.77	25
1639.8	25.5
1640.84	21.5
1641.87	24.5
1642.91	27
1643.94	23
1644.98	28
1646.01	24
1647.05	27
1648.08	24
1649.12	25.5
1650.15	22.5
1651.18	25
1652.22	23
1653.25	24
1654.29	26.5
1655.32	28.5
1656.35	26
1657.39	24
1658.42	21.5
1659.45	24.5
1660.48	23.5
1661.52	24
1662.55	28
1663.58	29
1664.61	26
1665.64	26
1666.68	27.5
1667.71	22.5
1668.74	24.5
1669.77	26
1670.8	26
1671.83	27.5
1672.86	25
1673.89	25.5
1674.92	23.5
1675.95	23
1676.98	22
1678.01	21.5
1679.04	27.5
1680.07	27
1681.1	22.5
1682.13	26
1683.16	26
1684.19	23.5
1685.22	25
1686.25	25
1687.27	28
1688.3	26
1689.33	26
1690.36	31
1691.38	23
1692.41	22
1693.44	23.5
1694.47	22.5
1695.49	24.5
1696.52	26.5
1697.55	26.5
1698.57	25
1699.6	23.5
1700.63	23
1701.65	24
1702.68	23
1703.7	24
1704.73	27.5
1705.76	25.5
1706.78	25.5
1707.81	25
1708.83	24.5
1709.86	26.5
1710.88	25.5
1711.91	22.5
1712.93	26.5
1713.95	26
1714.98	28.5
1716	26.5
1717.03	25.5
1718.05	21.5
1719.07	25.5
1720.1	23.5
1721.12	28
1722.14	28
1723.16	30
1724.19	25.5
1725.21	28.5
1726.23	22
1727.25	25
1728.28	22
1729.3	28
1730.32	23.5
1731.34	24.5
1732.36	24
1733.38	20.5
1734.41	27
1735.43	23.5
1736.45	25
1737.47	25.5
1738.49	30.5
1739.51	25.5
1740.53	25.5
1741.55	25.5
1742.57	26
1743.59	23
1744.61	27
1745.63	28
1746.64	24
1747.66	26
1748.68	26
1749.7	24.5
1750.72	26
1751.74	22.5
1752.76	27
1753.77	24
1754.79	29
1755.81	24
1756.83	26.5
1757.84	29.5
1758.86	25
1759.88	28.5
1760.9	25.5
1761.91	25.5
1762.93	24.5
1763.95	24
1764.96	24.5
1765.98	23.5
1766.99	26
1768.01	23.5
1769.02	24.5
1770.04	27.5
1771.06	26
1772.07	28.5
1773.09	23.5
1774.1	21.5
1775.12	24
1776.13	24
1777.14	27
1778.16	25
1779.17	24
1780.19	23
1781.2	25.5
1782.21	25.5
1783.23	22
1784.24	20.5
1785.25	23.5
1786.27	23
1787.28	22
1788.29	23.5
1789.3	27
1790.32	29
1791.33	25
1792.34	26.5
1793.35	25
1794.36	21.5
1795.38	23.5
1796.39	25
1797.4	25.5
1798.41	25
1799.42	24
1800.43	27
1801.44	20
1802.45	23
1803.46	26
1804.47	23
1805.48	23.5
1806.49	24
1807.5	23
1808.51	27
1809.52	25.5
1810.53	24
1811.54	28.5
1812.55	24
1813.56	27
1814.57	26
1815.57	27
1816.58	28
1817.59	25
1818.6	25.5
1819.61	27.5
1820.61	25
1821.62	28.5
1822.63	26
1823.64	25.5
1824.64	25.5
1825.65	22.5
1826.66	27
1827.66	28
1828.67	24.5
1829.68	28.5
1830.68	24
1831.69	26.5
1832.69	25
1833.7	23.5
1834.7	22.5
1835.71	24
1836.71	23.5
1837.72	25.5
1838.72	21.5
1839.73	24
1840.73	25
1841.74	23
1842.74	24
1843.75	27
1844.75	23.5
1845.75	30.5
1846.76	26
1847.76	26
1848.76	23
1849.77	27.5
1850.77	25
1851.77	20.5
1852.78	26
1853.78	25
1854.78	27
1855.78	26.5
1856.78	23.5
1857.79	24.5
1858.79	24
1859.79	22
1860.79	26
1861.79	23
1862.79	24
1863.79	21.5
1864.79	23
1865.79	26
1866.8	24.5
1867.8	21.5
1868.8	22
1869.8	24
1870.8	27.5
1871.8	27.5
1872.8	23.5
1873.79	22
1874.79	25.5
1875.79	21.5
1876.79	26.5
1877.79	25.5
1878.79	23
1879.79	28
1880.79	27.5
1881.78	27
1882.78	23.5
1883.78	24.5
1884.78	23
1885.77	25.5
1886.77	24.5
1887.77	26
1888.77	24
1889.76	27
1890.76	26.5
1891.76	27.5
1892.75	23.5
1893.75	26
1894.75	23.5
1895.74	24.5
1896.74	21
1897.73	22.5
1898.73	27.5
1899.73	23
1900.72	23
1901.72	23
1902.71	23.5
1903.7	23
1904.7	23.5
1905.69	24.5
1906.69	25
1907.68	26.5
1908.68	28
1909.67	22
1910.66	25.5
1911.66	25
1912.65	28
1913.64	21.5
1914.64	27
1915.63	26.5
1916.62	22
1917.62	26
1918.61	21.5
1919.6	24.5
1920.59	23
1921.58	23
1922.58	24
1923.57	23.5
1924.56	24
1925.55	26
1926.54	26
1927.53	24.5
1928.52	26.5
1929.51	23.5
1930.51	23
1931.5	24.5
1932.49	26
1933.48	26
1934.47	29
1935.46	27.5
1936.45	22
1937.44	25.5
1938.42	25
1939.41	25.5
1940.4	25.5
1941.39	21.5
1942.38	28
1943.37	24.5
1944.36	28
1945.35	25.5
1946.33	26
1947.32	27
1948.31	26.25
1949.3	23.5
1950.29	22.5
1951.27	24.5
1952.26	24.5
1953.25	25.5
1954.23	26
1955.22	27
1956.21	23
1957.19	21
1958.18	32.5
1959.17	24.5
1960.15	25
1961.14	24
1962.13	26
1963.11	25
1964.1	23
1965.08	22
1966.07	22.5
1967.05	25
1968.04	21
1969.02	28
1970.01	25
1970.99	20.5
1971.97	24
1972.96	25
1973.94	23
1974.93	23.5
1975.91	23
1976.89	23.5
1977.88	27
1978.86	26
1979.84	26.5
1980.83	25.5
1981.81	22
1982.79	23.5
1983.77	23
1984.76	26.5
1985.74	25
1986.72	27
1987.7	27
1988.68	26
1989.67	27
1990.65	23.5
1991.63	22.5
1992.61	21
1993.59	21
1994.57	25
1995.55	25
1996.53	23
1997.51	23
1998.49	26
1999.47	23
2000.45	22
2001.43	25
2002.41	22
2003.39	24.5
2004.37	23.5
2005.35	23
2006.33	23.5
2007.31	21
2008.29	25.5
2009.26	21.5
2010.24	19
2011.22	25
2012.2	24
2013.18	20.5
2014.15	23
2015.13	25.5
2016.11	24.5
2017.09	26
2018.06	22.5
2019.04	21.5
2020.02	26.5
2021	19
2021.97	26.5
2022.95	26.5
2023.92	22
2024.9	22
2025.88	24
2026.85	24
2027.83	23
2028.8	21
2029.78	28.5
2030.75	26.5
2031.73	24.5
2032.7	22
2033.68	20
2034.65	24
2035.63	25
2036.6	24.5
2037.58	22
2038.55	25
2039.52	21.5
2040.5	24
2041.47	22.5
2042.45	25.5
2043.42	26
2044.39	23.5
2045.36	20
2046.34	24.5
2047.31	22
2048.28	21.5
2049.26	20.5
2050.23	25
2051.2	25
2052.17	18.5
2053.14	27
2054.12	25
2055.09	24
2056.06	28
2057.03	23.5
2058	21
2058.97	23.5
2059.94	22.5
2060.91	23.5
2061.88	24
2062.85	24
2063.82	21.5
2064.79	23
2065.76	23.5
2066.73	23
2067.7	26
2068.67	21.5
2069.64	22.5
2070.61	22
2071.58	24.5
2072.55	20
2073.52	26.5
2074.49	26
2075.45	21
2076.42	21.5
2077.39	25.5
2078.36	21.5
2079.33	26.5
2080.29	27
2081.26	22
2082.23	20.5
2083.2	24
2084.16	22.5
2085.13	24
2086.1	21
2087.06	26.5
2088.03	23.5
2089	24.5
2089.96	24.5
2090.93	24
2091.89	24.5
2092.86	23
2093.83	27
2094.79	21
2095.76	26
2096.72	21
2097.69	23
2098.65	24.5
2099.62	21.5
2100.58	24.5
2101.55	23.5
2102.51	21
2103.47	25.5
2104.44	23.5
2105.4	25
2106.36	25
2107.33	19.5
2108.29	24.5
2109.25	26.5
2110.22	24
2111.18	24
2112.14	24
2113.11	22
2114.07	21
2115.03	28
2115.99	25.5
2116.96	24
2117.92	23.5
2118.88	21.5
2119.84	23.5
2120.8	23.5
2121.76	24.5
2122.72	21
2123.68	25.5
2124.65	23
2125.61	23.5
2126.57	24.5
2127.53	26
2128.49	23
2129.45	26
2130.41	23.5
2131.37	25
2132.33	22
2133.29	21.5
2134.25	25
2135.21	25
2136.17	24
2137.12	25
2138.08	21.5
2139.04	23.5
2140	24
2140.96	19.5
2141.92	26.5
2142.88	22.0011
2143.83	22.4393
2144.79	23.0369
2145.75	22.6486
2146.71	23.9287
2147.66	21.9652
2148.62	23.8293
2149.58	26.8997
2150.53	24.8146
2151.49	22.0334
2152.45	23.512
2153.4	19.4938
2154.36	23.3537
2155.32	20.5828
2156.27	22.0552
2157.23	24.6119
2158.19	23.0777
2159.14	22.8988
2160.1	22.1855
2161.05	22.8512
2162.01	24.6229
2162.96	24.326
2163.92	21.8659
2164.87	22.7062
2165.83	23.9493
2166.78	20.6633
2167.73	20.1831
2168.69	25.0185
2169.64	23.0211
2170.6	24.4675
2171.55	23.5682
2172.5	20.9985
2173.46	22.3551
2174.41	24.1217
2175.36	19.6514
2176.32	20.3011
2177.27	24.7761
2178.22	19.4808
2179.18	23.1869
2180.13	21.9932
2181.08	22.9663
2182.03	24.2666
2182.98	24.4992
2183.94	25.9349
2184.89	22.3647
2185.84	21.7651
2186.79	21.0416
2187.74	22.3935
2188.69	24.0759
2189.64	20.729
2190.6	23.9553
2191.55	24.7426
2192.5	23.7125
2193.45	20.3206
2194.4	21.9684
2195.35	23.6553
2196.3	26.3997
2197.25	23.8868
2198.2	24.0609
2199.15	24.2888
2200.1	22.1922
2201.04	20.8129
2201.99	19.4097
2202.94	21.6641
2203.89	24.8682
2204.84	22.8857
2205.79	23.4843
2206.74	23.569
2207.69	23.7044
2208.63	25.2727
2209.58	21.0408
2210.53	22.1659
2211.48	19.9356
2212.43	21.1648
2213.37	20.2353
2214.32	20.5981
2215.27	20.7718
2216.21	21.4701
2217.16	23.3366
2218.11	22.566
2219.05	20.2981
2220	22.3891
2220.95	22.7516
2221.89	22.0552
2222.84	21.9175
2223.78	24.4032
2224.73	23.8786
2225.68	24.6238
2226.62	24.5702
2227.57	26.3407
2228.51	22.8652
2229.46	22.8971
2230.4	22.5824
2231.35	23.6974
2232.29	21.7405
2233.24	23.4834
2234.18	19.6132
2235.12	22.8293
2236.07	22.9182
2237.01	21.3516
2237.95	23.3418
2238.9	21.7478
2239.84	22.5259
2240.06	23
2241.01	21.5
2241.96	23
2242.91	22
2243.86	20.5
2244.8	25
2245.75	25.5
2246.7	26
2247.65	19
2248.59	23.5
2249.54	20.5
2250.49	22.5
2251.43	25.5
2252.38	19
2253.33	25.5
2254.27	20.5
2255.22	23
2256.16	22
2257.11	24
2258.06	22
2259	21
2259.95	23.5
2260.89	25
2261.84	20.5
2262.78	24.5
2263.73	22.5
2264.67	24.5
2265.62	24.5
2266.56	26.5
2267.5	22.5
2268.45	24
2269.39	22
2270.34	25
2271.28	24
2272.22	24
2273.17	25
2274.11	22.5
2275.05	23.5
2276	25
2276.94	22
2277.88	24.5
2278.82	22
2279.77	22
2280.71	21
2281.65	24
2282.59	21
2283.53	25.5
2284.48	24
2285.42	24.5
2286.36	24
2287.3	25
2288.24	22.5
2289.18	25
2290.12	23
2291.06	24.5
2292	26
2292.94	25.5
2293.89	24
2294.83	21
2295.77	25
2296.71	23
2297.65	23.5
2298.58	20.5
2299.52	22
2300.46	24
2301.4	23
2302.34	23.5
2303.28	24
2304.22	24
2305.16	22
2306.1	20
2307.03	23.5
2307.97	25
2308.91	22
2309.85	28
2310.79	26.5
2311.72	22
2312.66	26.5
2313.6	19.5
2314.54	20.5
2315.47	22
2316.41	24.5
2317.35	23
2318.28	19
2319.22	25
2320.16	26.5
2321.09	24
2322.03	27
2322.96	22
2323.9	21.5
2324.84	21.5
2325.77	25
2326.71	25
2327.64	20
2328.58	24
2329.51	22.5
2330.45	25.5
2331.38	26
2332.32	23.5
2333.25	21
2334.18	26
2335.12	26.5
2336.05	22
2336.99	18
2337.92	23
2338.85	23
2339.79	20
2340.72	23.5
2341.65	24
2342.59	25
2343.52	26
2344.45	21.5
2345.39	24
2346.32	23
2347.25	25
2348.18	23
2349.11	26
2350.05	24
2350.98	26
2351.91	22
2352.84	24.5
2353.77	22.5
2354.7	21.5
2355.64	22.5
2356.57	26
2357.5	23
2358.43	25
2359.36	26
2360.29	23.5
2361.22	23
2362.15	22
2363.08	26
2364.01	24.5
2364.94	24
2365.87	26.5
2366.8	25.5
2367.73	27.5
2368.66	24
2369.58	22.5
2370.51	27
2371.44	27
2372.37	24.5
2373.3	21
2374.23	24
2375.16	22.5
2376.08	24.5
2377.01	27
2377.94	24
2378.87	26
2379.8	23
2380.72	23
2381.65	24.5
2382.58	26
2383.5	22.5
2384.43	24
2385.36	22.5
2386.28	25
2387.21	22.5
2388.14	23
2389.06	24
2389.99	21.5
2390.91	25.5
2391.84	23
2392.77	22.5
2393.69	24.5
2394.62	24.5
2395.54	23
2396.47	26
2397.39	23.5
2398.32	22.5
2399.24	25
2400.16	28
2401.09	21
2402.01	28
2402.94	22
2403.86	23
2404.78	25
2405.71	21.5
2406.63	21.5
2407.56	23.5
2408.48	25
2409.4	20
2410.32	23.5
2411.25	26
2412.17	19
2413.09	25
2414.02	27.5
2414.94	22
2415.86	24.5
2416.78	21
2417.7	25
2418.63	16
2419.55	26.5
2420.47	23
2421.39	26.5
2422.31	23.5
2423.23	23.5
2424.15	22
2425.07	22
2425.99	27
2426.92	24
2427.84	24
2428.76	23
2429.68	25.5
2430.59	27
2431.51	24.5
2432.43	25
2433.35	25
2434.27	23
2435.19	22.5
2436.11	29
2437.03	24.5
2437.95	23.5
2438.87	23.5
2439.79	21
2440.71	24
2441.62	28
2442.54	26.5
2443.46	26
2444.38	24
2445.3	27
2446.21	22
2447.13	25
2448.05	22
2448.97	25
2449.88	23
2450.8	19.5
2451.72	29.5
2452.63	25.5
2453.55	22.5
2454.47	24
2455.38	17
2456.3	24
2457.21	22
2458.13	25
2459.05	25.5
2459.96	26
2460.88	24
2461.79	21.5
2462.71	27
2463.62	25
2464.54	23
2465.45	23.5
2466.37	21
2467.28	24
2468.2	22.5
2469.11	22
2470.02	24
2470.94	25.5
2471.85	23
2472.77	25
2473.68	23
2474.59	24.5
2475.51	28
2476.42	25
2477.33	27.5
2478.25	24.5
2479.16	25
2480.07	25.5
2480.98	26.5
2481.9	24
2482.81	21
2483.72	23
2484.63	24.5
2485.55	25
2486.46	23.5
2487.37	23
2488.28	22
2489.19	25
2490.1	23.5
2491.01	26.5
2491.92	26.5
2492.83	25.5
2493.74	21
2494.66	27
2495.57	24.5
2496.48	22
2497.39	22
2498.3	23.5
2499.21	23.5
2500.12	26
2501.03	26
2501.93	23.5
2502.84	23
2503.75	23
2504.66	23.5
2505.57	25.5
2506.48	20.5
2507.39	21
2508.3	23
2509.21	25
2510.11	26.5
2511.02	19.5
2511.93	27
2512.84	21
2513.75	25.5
2514.65	24
2515.56	24.5
2516.47	23
2517.37	26
2518.28	24
2519.19	23
2520.09	21
2521	21
2521.91	26.5
2522.81	26
2523.72	26
2524.63	26
2525.53	24
2526.44	24.5
2527.34	25
2528.25	26.5
2529.16	23.5
2530.06	26.5
2530.97	25.5
2531.87	25.5
2532.78	26.5
2533.68	23
2534.58	23
2535.49	25
2536.39	25
2537.3	28
2538.2	22.5
2539.11	26
2540.01	20.5
2540.91	23.5
2541.82	22
2542.72	25
2543.62	25.5
2544.53	22
2545.43	24.5
2546.33	24
2547.23	24.5
2548.14	23.5
2549.04	25
2549.94	25.5
2550.84	24
2551.75	21.5
2552.65	24.5
2553.55	27
2554.45	22.5
2555.35	24
2556.26	24
2557.16	24
2558.06	21
2558.96	21
2559.86	27
2560.76	24.5
2561.66	22.5
2562.56	28
2563.46	24.5
2564.36	27
2565.26	24
2566.16	25
2567.06	26
2567.96	27.5
2568.86	25.5
2569.76	23
2570.66	23.5
2571.56	24.5
2572.46	24
2573.36	22.5
2574.26	28
2575.16	25
2576.05	24
2576.95	27.5
2577.85	28.5
2578.75	28
2579.65	22.5
2580.54	24.5
2581.44	20.5
2582.34	23
2583.24	26
2584.13	26
2585.03	24.5
2585.93	21.5
2586.83	22.5
2587.72	29
2588.62	24
2589.52	20
2590.41	24
2591.31	23
2592.2	24.5
2593.1	27
2594	23
2594.89	26
2595.79	27.5
2596.68	25
2597.58	26
2598.47	23.5
2599.37	25
2600.26	25.5
2601.16	21
2602.05	21
2602.95	28
2603.84	24
2604.74	25.5
2605.63	24.5
2606.52	31
2607.42	24.5
2608.31	25.5
2609.21	20.5
2610.1	20
2610.99	26
2611.89	20.5
2612.78	23.5
2613.67	23.5
2614.56	22.5
2615.46	26
2616.35	22.5
2617.24	25
2618.13	24
2619.03	21.5
2619.92	24
2620.81	28
2621.7	24.5
2622.59	23
2623.49	21.5
2624.38	25.5
2625.27	24
2626.16	23.5
2627.05	26
2627.94	21
2628.83	24
2629.72	23.5
2630.61	22.5
2631.5	23
2632.39	24.5
2633.28	28
2634.17	27
2635.06	23
2635.95	21.5
2636.84	24.5
2637.73	22
2638.62	24.5
2639.51	27
2640.4	25.5
2641.29	21
2642.18	27
2643.07	23
2643.96	26.5
2644.84	26
2645.73	25
2646.62	28.5
2647.51	26
2648.4	27
2649.28	25
2650.17	25
2651.06	23
2651.95	21
2652.83	25.5
2653.72	25
2654.61	22
2655.49	24
2656.38	26
2657.27	25
2658.16	26
2659.04	24.5
2659.93	21
2660.81	28
2661.7	26
2662.59	24
2663.47	22
2664.36	25
2665.24	25.5
2666.13	23.5
2667.01	22.5
2667.9	24.5
2668.78	25.5
2669.67	22.5
2670.55	27
2671.44	20
2672.32	24.5
2673.21	25
2674.09	24.5
2674.97	23.5
2675.86	24.5
2676.74	23.5
2677.62	27
2678.51	26.5
2679.39	23
2680.27	25.5
2681.16	21.5
2682.04	23.5
2682.92	28
2683.81	25
2684.69	23.5
2685.57	22
2686.45	24
2687.34	26
2688.22	23.5
2689.1	20
2689.98	25
2690.86	23
2691.75	20
2692.63	26
2693.51	25
2694.39	23.5
2695.27	24
2696.15	24
2697.03	24.5
2697.91	23.5
2698.79	23.5
2699.67	21
2700.55	25.5
2701.43	21
2702.31	26.5
2703.19	25.5
2704.07	21.5
2704.95	23.5
2705.83	23
2706.71	24.5
2707.59	22.5
2708.47	26.5
2709.35	21
2710.23	22
2711.11	26.5
2711.99	28.5
2712.86	25
2713.74	21
2714.62	23.5
2715.5	23
2716.38	24.5
2717.26	24.5
2718.13	25
2719.01	25
2719.89	26.5
2720.77	28.5
2721.64	20
2722.52	25
2723.4	23.5
2724.27	23.5
2725.15	23
2726.03	22.5
2726.9	24.5
2727.78	28.5
2728.66	20
2729.53	28
2730.41	25
2731.28	26
2732.16	24
2733.03	28.5
2733.91	26
2734.79	28
2735.66	23.5
2736.54	27
2737.41	24.5
2738.29	27
2739.16	20
2740.03	22.5
2740.91	27.5
2741.78	24.5
2742.66	27.5
2743.53	23.5
2744.41	25.5
2745.28	27
2746.15	23.5
2747.03	25.5
2747.9	25
2748.77	23
2749.65	23
2750.52	23.5
2751.39	23.5
2752.27	24.5
2753.14	23
2754.01	24.5
2754.88	22.5
2755.75	28.5
2756.63	25
2757.5	23
2758.37	25.5
2759.24	22.5
2760.11	25.5
2760.99	22
2761.86	26
2762.73	25
2763.6	24.5
2764.47	23.5
2765.34	26
2766.21	27.5
2767.08	22.5
2767.95	26.5
2768.82	22
2769.69	24.5
2770.56	21
2771.43	22
2772.3	24.5
2773.17	25
2774.04	25.5
2774.91	24
2775.78	26
2776.65	26.5
2777.52	26.5
2778.39	22.5
2779.26	22
2780.13	24
2780.99	25
2781.86	27.5
2782.73	24.5
2783.6	28
2784.47	25
2785.34	25
2786.2	24
2787.07	28
2787.94	20
2788.81	22
2789.67	26
2790.54	32
2791.41	27
2792.27	28.5
2793.14	26
2794.01	26
2794.87	21.5
2795.74	24
2796.61	27
2797.47	26.5
2798.34	26.5
2799.21	28.5
2800.07	23
2800.94	23
2801.8	23
2802.67	22.5
2803.53	25
2804.4	24
2805.26	25
2806.13	25
2806.99	28
2807.86	28
2808.72	24
2809.59	27
2810.45	27.5
2811.32	27.5
2812.18	22
2813.04	30
2813.91	27.5
2814.77	23
2815.64	22
2816.5	22
2817.36	22.5
2818.22	25.5
2819.09	25
2819.95	24.5
2820.81	24
2821.68	20
2822.54	28
2823.4	25.5
2824.26	24.5
2825.13	26.5
2825.99	27
2826.85	22
2827.71	26
2828.57	24.5
2829.44	28
2830.3	28
2831.16	27
2832.02	25.5
2832.88	24.5
2833.74	25.5
2834.6	22
2835.46	25.5
2836.32	27
2837.18	26.5
2838.04	26
2838.9	28.5
2839.76	25
2840.62	28.5
2841.48	27
2842.34	26
2843.2	27.5
2844.06	29.5
2844.92	24.5
2845.78	25
2846.64	24
2847.5	28.5
2848.36	27
2849.22	27
2850.08	22
2850.93	23.5
2851.79	28.5
2852.65	22
2853.51	25
2854.37	24
2855.22	26.5
2856.08	25.5
2856.94	25
2857.8	23
2858.65	24.5
2859.51	26
2860.37	26
2861.23	26.5
2862.08	24
2862.94	26.5
2863.79	27
2864.65	27.5
2865.51	24
2866.36	27.5
2867.22	25
2868.08	24
2868.93	25
2869.79	27.5
2870.64	30.5
2871.5	26
2872.35	25
2873.21	28
2874.06	30.5
2874.92	29.5
2875.77	27
2876.63	28.5
2877.48	29.5
2878.34	33.5
2879.19	32
2880.05	28
2880.9	32.5
2881.76	31
2882.61	34.5
2883.46	32
2884.32	34.5
2885.17	32
2886.02	36.5
2886.88	34
2887.73	36
2888.58	37.5
2889.44	40
2890.29	37
2891.14	38.5
2891.99	40
2892.85	43.5
2893.7	41.5
2894.55	42
2895.4	43.5
2896.25	42.5
2897.11	47
2897.96	49.5
2898.81	50.5
2899.66	46
2900.51	60
2901.36	60.5
2902.21	60.5
2903.07	63.5
2903.92	62
2904.77	71
2905.62	63
2906.47	63.5
2907.32	59.5
2908.17	64
2909.02	61.5
2909.87	57
2910.72	59
2911.57	58
2912.42	52.5
2913.27	52
2914.12	47
2914.97	43
2915.81	35
2916.66	42.5
2917.51	41.5
2918.36	36
2919.21	40.5
2920.06	37
2920.91	34
2921.75	34.5
2922.6	30.5
2923.45	29
2924.3	33
2925.15	31
2925.99	29.5
2926.84	35.5
2927.69	30
2928.54	27
2929.38	33
2930.23	27.5
2931.08	25
2931.92	24
2932.77	25.5
2933.62	31.5
2934.46	25
2935.31	23
2936.16	28
2937	31
2937.85	28.5
2938.69	28
2939.54	27.5
2940.38	27
2941.23	29.5
2942.08	30
2942.92	31
2943.77	30
2944.61	30.5
2945.46	27
2946.3	28
2947.15	29
2947.99	30.5
2948.83	30.5
2949.68	32
2950.52	29.5
2951.37	31.5
2952.21	28.5
2953.05	29
2953.9	33.5
2954.74	30
2955.58	30.5
2956.43	34.5
2957.27	36
2958.11	37.5
2958.96	35
2959.8	39
2960.64	36.5
2961.48	40.5
2962.33	41
2963.17	41.5
2964.01	42.5
2964.85	42
2965.69	41
2966.54	40.5
2967.38	40.5
2968.22	36
2969.06	42.5
2969.9	35.5
2970.74	39
2971.58	39.4709
2972.43	36.9086
2973.27	31.1556
2974.11	31.5964
2974.95	33.4424
2975.79	36.3805
2976.63	33.1376
2977.47	29.1148
2978.31	29.1834
2979.15	27.7233
2979.99	30.1633
2980.83	32.2345
2981.67	26.8454
2982.51	25.491
2983.35	24.6336
2984.19	29.1924
2985.03	25.8935
2985.86	26.4421
2986.7	30.4237
2987.54	27.9361
2988.38	27.1776
2989.22	26.5932
2990.06	28.8042
2990.9	24.2933
2991.73	24.5251
2992.57	24.5006
2993.41	24.9745
2994.25	23.9146
2995.09	22.7451
2995.92	27.227
2996.76	24.802
2997.6	25.5573
2998.44	24.3237
2999.27	23.8811
3000.11	24.62
3000.95	23.2137
3001.78	21.5594
3002.62	24.8743
3003.46	24.358
3004.29	20.0978
3005.13	22.8897
3005.96	21.6831
3006.8	22.402
3007.64	24.1268
3008.47	24.7434
3009.31	25.733
3010.14	23.9294
3010.98	22.5169
3011.81	22.5389
3012.65	24.0594
3013.48	24.9181
3014.32	23.6694
3015.15	22.5291
3015.99	22.8702
3016.82	22.4527
3017.66	22.3865
3018.49	22.7324
3019.33	22.9296
3020.16	24.3691
3020.99	24.0358
3021.83	23.2755
3022.66	20.1438
3023.5	23.8366
3024.33	23.5066
3025.16	23.8083
3026	23.0541
3026.83	22.7203
3027.66	22.9476
3028.49	24.2775
3029.33	21.2979
3030.16	21.265
3030.99	21.7324
3031.83	21.4181
3032.66	24.2755
3033.49	22.5618
3034.32	24.1646
3035.15	24.5197
3035.99	23.9773
3036.82	23.9033
3037.65	23.4958
3038.48	22.8524
3039.31	22.8886
3040.14	23.4271
3040.97	21.3867
3041.81	22.2921
3042.64	23.8958
3043.47	24.2219
3044.3	23.596
3045.13	24.3158
3045.96	22.8417
3046.79	21.0888
3047.62	21.5742
3048.45	24.138
3049.28	24.6801
3050.11	22.8547
3050.94	20.7036
3051.77	20.0075
3052.6	21.1384
3053.43	21.9203
3054.26	21.2875
3055.08	18.9549
3055.91	22.1859
3056.74	24.5528
3057.26	25.5
3058.09	20.5
3058.92	23
3059.76	25.5
3060.59	19
3061.42	19
3062.25	25.5
3063.09	23
3063.92	21
3064.75	22
3065.58	24
3066.42	23
3067.25	25
3068.08	18.5
3068.91	24
3069.74	25
3070.57	24.5
3071.41	19.5
3072.24	25
3073.07	25.5
3073.9	27
3074.73	24
3075.56	23
3076.39	21
3077.22	23.5
3078.05	22
3078.88	25
3079.71	22
3080.54	22.5
3081.37	20.5
3082.2	24
3083.03	22
3083.86	22
3084.69	24.5
3085.52	25.5
3086.35	22.5
3087.18	24
3088.01	22.5
3088.84	22.5
3089.67	22.5
3090.5	21.5
3091.32	25.5
3092.15	24.5
3092.98	21
3093.81	23.5
3094.64	25
3095.47	26.5
3096.29	23
3097.12	21
3097.95	20
3098.78	21.5
3099.6	28
3100.43	24
3101.26	25.5
3102.09	23.5
3102.91	21.5
3103.74	25
3104.57	22
3105.39	24
3106.22	23
3107.05	24
3107.87	20.5
3108.7	22
3109.52	20
3110.35	23.5
3111.18	23
3112	19.5
3112.83	23
3113.65	22
3114.48	24
3115.3	23
3116.13	24.5
3116.95	27
3117.78	22.5
3118.6	21
3119.43	25.5
3120.25	25
3121.08	23
3121.9	19
3122.72	25.5
3123.55	23
3124.37	20.5
3125.2	21.5
3126.02	24.5
3126.84	25
3127.67	25.5
3128.49	21
3129.31	23.5
3130.14	23.5
3130.96	24
3131.78	21
3132.61	24
3133.43	22.5
3134.25	24
3135.07	20
3135.89	25.5
3136.72	19.5
3137.54	20
3138.36	26
3139.18	23.5
3140	28.5
3140.83	24
3141.65	24.5
3142.47	23
3143.29	19.5
3144.11	24
3144.93	24
3145.75	20.5
3146.57	22
3147.4	23
3148.22	25
3149.04	23
3149.86	23
3150.68	19.5
3151.5	24
3152.32	19
3153.14	26.5
3153.96	26.5
3154.78	23
3155.59	23
3156.42	22.5
3157.23	26.5
3158.05	25.5
3158.87	20
3159.69	24.5
3160.51	20
3161.33	24.5
3162.15	22.5
3162.97	25.5
3163.78	25.5
3164.6	26.5
3165.42	28.5
3166.24	25
3167.06	25
3167.87	21
3168.69	23
3169.51	20
3170.33	23
3171.14	23
3171.96	26
3172.78	23
3173.6	23
3174.41	22.5
3175.23	22
3176.05	23.5
3176.86	25.5
3177.68	20.5
3178.5	22
3179.31	23
3180.13	22
3180.94	25.5
3181.76	21
3182.58	22
3183.39	21
3184.21	23.5
3185.02	25
3185.84	23.5
3186.65	24.5
3187.47	24.5
3188.28	24.5
3189.1	23
3189.91	26
3190.73	24
3191.54	23
3192.36	26
3193.17	23.5
3193.98	25.5
3194.8	21
3195.61	21.5
3196.43	27
3197.24	22
3198.05	24
3198.87	26.5
3199.68	20.5
3200.49	24
3201.31	25.5
3202.12	25.5
3202.93	25.5
3203.75	27
3204.56	21.5
3205.37	27
3206.18	16.5
3207	24.5
3207.81	22.5
3208.62	26
3209.43	25.5
3210.24	20.5
3211.06	19.5
3211.87	25
3212.68	22
3213.49	24.5
3214.3	21.5
3215.11	25
3215.92	27
3216.73	21.5
3217.55	25
3218.36	21
3219.17	26.5
3219.98	22.5
3220.79	24
3221.6	21.5
3222.41	24
3223.22	22.5
3224.03	22
3224.84	21
3225.65	25
3226.46	25
3227.27	26
3228.08	21.5
3228.89	23
3229.7	22.5
3230.5	23.5
3231.31	20.5
3232.12	22
3232.93	24
3233.74	24
3234.55	23
3235.36	25.5
3236.16	21
3236.97	22
3237.78	21.5
3238.59	23.5
3239.4	25.5
3240.2	24.5
3241.01	24.5
3241.82	25
3242.63	24
3243.43	24
3244.24	25
3245.05	24
3245.85	24
3246.66	23.5
3247.47	23.5
3248.27	24.5
3249.08	23
3249.89	23.5
3250.69	25
3251.5	27
3252.31	22.5
3253.11	25
3253.92	20.5
3254.72	22
3255.53	28.5
3256.33	24
3257.14	25
3257.94	27.5
3258.75	25.5
3259.55	19.5
3260.36	26
3261.16	22
3261.97	21
3262.77	22.5
3263.58	23.5
3264.38	25
3265.19	23
3265.99	21.5
3266.79	27
3267.6	26.5
3268.4	22.5
3269.21	24
3270.01	24.5
3270.81	23
3271.62	25
3272.42	27.5
3273.22	20
3274.03	26.5
3274.83	26
3275.63	25
3276.43	19
3277.24	24
3278.04	21.5
3278.84	24
3279.64	24.5
3280.45	25
3281.25	23
3282.05	24
3282.85	21.5
3283.65	26
3284.45	24
3285.26	22
3286.06	20
3286.86	21
3287.66	23
3288.46	21.5
3289.26	23.5
3290.06	24
3290.86	23.5
3291.66	24.5
3292.46	24
3293.26	25
3294.06	25
3294.86	26.5
3295.66	27.5
3296.46	26.5
3297.26	23
3298.06	20.5
3298.86	23
3299.66	22
3300.46	18.5
3301.26	25
3302.06	22.5
3302.86	21
3303.66	23
3304.46	24.5
3305.25	25
3306.05	24.5
3306.85	18
3307.65	21.5
3308.45	21.5
3309.25	26
3310.04	23
3310.84	22.5
3311.64	24
3312.44	22
3313.23	26.5
3314.03	20.5
3314.83	22.5
3315.63	24
3316.42	22
3317.22	25
3318.02	21.5
3318.81	23
3319.61	25
3320.41	26
3321.2	25.5
3322	22.5
3322.8	27
3323.59	22
3324.39	26
3325.18	20
3325.98	29
3326.78	21.5
3327.57	24
3328.37	24.5
3329.16	23
3329.96	26
3330.75	28.5
3331.55	22
3332.34	27.5
3333.14	23
3333.93	25
3334.73	23
3335.52	27
3336.31	23
3337.11	23.5
3337.9	22
3338.7	23
3339.49	25
3340.28	25.5
3341.08	25
3341.87	26
3342.66	24.5
3343.46	27
3344.25	22.5
3345.04	25
3345.84	21.5
3346.63	22.5
3347.42	23
3348.22	25.5
3349.01	23.5
3349.8	22.5
3350.59	24
3351.39	24
3352.18	22.5
3352.97	24.5
3353.76	26.5
3354.55	22.5
3355.35	24
3356.14	22.5
3356.93	24.5
3357.72	21
3358.51	21.5
3359.3	22.5
3360.09	26
3360.88	23
3361.67	23
3362.46	21
3363.26	24.5
3364.05	21.5
3364.84	21.5
3365.63	23
3366.42	23.5
3367.21	26.5
3368	23
3368.79	27
3369.58	24.5
3370.37	22
3371.15	27
3371.94	22.5
3372.73	25.5
3373.52	26.5
3374.31	26.5
3375.1	21.5
3375.89	22.5
3376.68	21
3377.47	25.5
3378.26	26.5
3379.04	21
3379.83	24
3380.62	22.5
3381.41	21.5
3382.2	25
3382.98	21
3383.77	25
3384.56	23
3385.35	23.5
3386.13	22
3386.92	24.5
3387.71	24
3388.5	19
3389.28	26
3390.07	21
3390.86	24.5
3391.64	26.5
3392.43	22.5
3393.22	24.5
3394	23
3394.79	21
3395.57	25
3396.36	27.5
3397.15	23
3397.93	21.5
3398.72	22.5
3399.5	21
3400.29	23
3401.07	24.5
3401.86	26
3402.65	24
3403.43	24
3404.21	26
3405	24
3405.78	24
3406.57	28
3407.35	26
3408.14	22
3408.92	22
3409.71	26
3410.49	24
3411.27	21.5
3412.06	20.5
3412.84	26.5
3413.62	24
3414.41	23.5
3415.19	28
3415.97	26
3416.76	28
3417.54	23
3418.32	25
3419.11	23
3419.89	24
3420.67	25
3421.46	27.5
3422.24	21.5
3423.02	25.5
3423.8	25
3424.58	22.5
3425.37	22
3426.15	23
3426.93	24
3427.71	27
3428.49	26
3429.27	23
3430.05	21
3430.84	25
3431.62	21.5
3432.4	25
3433.18	22.5
3433.96	19.5
3434.74	23
3435.52	20
3436.3	21
3437.08	25
3437.86	20
3438.64	23
3439.42	21
3440.2	23
3440.98	27
3441.76	20
3442.54	24
3443.32	23
3444.1	22
3444.88	23
3445.66	23.5
3446.44	22
3447.22	21
3448	23.5
3448.77	24.5
3449.55	20.5
3450.33	24.5
3451.11	20.5
3451.89	23
3452.67	23
3453.45	25
3454.22	21
3455	25
3455.78	19.5
3456.56	22.5
3457.33	21.5
3458.11	17
3458.89	25.5
3459.67	20
3460.44	22
3461.22	24
3462	26
3462.77	25
3463.55	22
3464.33	25
3465.1	25
3465.88	26
3466.66	29
3467.43	22
3468.21	24.5
3468.98	24
3469.76	23
3470.54	23
3471.31	20.5
3472.09	20
3472.86	28.5
3473.64	21
3474.41	28
3475.19	22.5
3475.96	23
3476.74	23.5
3477.51	26
3478.29	24.5
3479.06	30.5
3479.84	23
3480.61	25.5
3481.39	26
3482.16	23.5
3482.93	22
3483.71	27
3484.48	24
3485.25	24.5
3486.03	22
3486.8	23
3487.57	21.5
3488.35	23.5
3489.12	19
3489.89	20
3490.67	18.5
3491.44	28
3492.21	22.5
3492.99	24
3493.76	24.5
3494.53	25
3495.3	24.5
3496.08	23.5
3496.85	21
3497.62	24
3498.39	23
3499.16	21.5
3499.93	23
