#Acq. time (s)=	5
#Accumulations=	5
#Range (cm-¹)=	100...3500
#Windows=	4
#Autofocus=	Off
#AutoExposure=	Off
#Spike filter=	Multiple accum.
#Delay time (s)=	0
#Binning=	1
#Readout mode=	Signal
#DeNoise=	Off
#ICS correction=	Off
#Dark correction=	Off
#Inst. Process=	Off
#Instrument=	LabRAM HR Evol
#Detector=	Syncerity OE
#Objective=	x100_VIS
#Grating=	600 (500nm)
#ND Filter=	25%
#Laser=	633nm_Edge
#Hole=	100.021
#Range=	Visible
#Project=	verificaciones
#Sample=	at5
#Site=	plain
#Title=	bolusat5plain
#Remark=	
#Date=	13.01.2026 19:30
#Acquired=	13.01.2026 19:30:52
100.692	25.5
101.975	32
103.258	32
104.542	31
105.824	26.5
107.107	30.5
108.39	30
109.672	27
110.954	30
112.236	30
113.519	28.5
114.8	30.5
116.081	28.5
117.362	34
118.643	31
119.924	26
121.204	29
122.484	30
123.764	32
125.044	28
126.323	32
127.603	34.5
128.882	33.5
130.161	33.5
131.438	33
132.716	33.5
133.995	33
135.273	37
136.55	33
137.828	32.5
139.106	29.5
140.383	33.5
141.66	33
142.937	33.5
144.213	36
145.488	39.5
146.764	37
148.04	37
149.316	35
150.592	33
151.867	35.5
153.141	37
154.416	37
155.69	39.5
156.965	36.5
158.239	35
159.512	39
160.786	38.5
162.059	39
163.333	36.5
164.605	42
165.878	38
167.15	35.5
168.423	34.5
169.694	37.5
170.966	38.5
172.238	36.5
173.51	37.5
174.78	38
176.052	34
177.323	37
178.592	37.5
179.863	29
181.134	38.5
182.403	38
183.673	37.5
184.943	39
186.211	32.5
187.481	35.5
188.749	35
190.018	37
191.287	42
192.554	38
193.822	40
195.089	37.5
196.357	34.5
197.625	31
198.891	31
200.159	36
201.425	38
202.692	33
203.957	32
205.224	31.5
206.489	33
207.755	36
209.02	33.5
210.286	28
211.55	38.5
212.815	31
214.079	31
215.344	34.5
216.607	32
217.872	33
219.135	36.5
220.399	31.5
221.662	33.5
222.924	28
224.187	34
225.449	32.5
226.713	32
227.974	32
229.235	32.5
230.498	30.5
231.759	32.5
233.019	28.5
234.281	27
235.542	29.5
236.802	31.5
238.063	28
239.323	28.5
240.582	26
241.843	28.5
243.102	28
244.361	26.5
245.621	28.5
246.879	31
248.138	27.5
249.396	27.5
250.655	30.5
251.913	26
253.17	27
254.427	31.5
255.686	27.5
256.943	27.5
258.199	26.5
259.456	31
260.712	27
261.969	31
263.225	30
264.481	25
265.736	29
266.991	32
268.246	27
269.502	32.5
270.757	28.5
272.011	27.5
273.265	29
274.519	30
275.773	30
277.027	30
278.28	28.5
279.533	28
280.786	27
282.04	31.5
283.293	31
284.545	25
285.798	30
287.049	26
288.301	28.5
289.553	29
290.804	27.5
292.055	28.5
293.306	23
294.557	25.5
295.807	32
297.058	25.5
298.308	29
299.558	27.5
300.808	30.5
302.057	32
303.305	25
304.554	27.5
305.803	25.5
307.052	28.5
308.3	27.5
309.549	29
310.797	29.5
312.045	27
313.292	28
314.54	27
315.786	25
317.033	29.5
318.28	28
319.526	31.5
320.773	30
322.019	25.5
323.264	29.5
324.51	30
325.755	27
327.001	26
328.246	28
329.49	23.5
330.735	27.5
331.979	26
333.224	29.5
334.467	28.5
335.711	29.5
336.955	27.5
338.199	33
339.441	28
340.684	27.5
341.927	30
343.168	22
344.411	32
345.654	26.5
346.895	28
348.137	28
349.379	27.5
350.619	26
351.86	29.5
353.102	28
354.341	33.5
355.582	28.5
356.821	28
358.062	25
359.302	27
360.541	26
361.781	30
363.019	25.5
364.259	27
365.496	30.5
366.736	30
367.974	27
369.212	26
370.45	29.5
371.687	28
372.925	25.5
374.162	28.5
375.399	28.5
376.635	27.5
377.873	27
379.109	27.5
380.344	27.5
381.581	26.5
382.816	23
384.052	25.5
385.287	26.5
386.523	31.5
387.757	27
388.991	26
390.227	30.5
391.46	30.5
392.695	29
393.928	29
395.162	25.5
396.396	28.5
397.629	31.5
398.861	27
400.095	26
401.327	29
402.559	28.5
403.792	30
405.024	25
406.255	29.5
407.488	28.5
408.719	27.5
409.949	31.5
411.18	24
412.412	28.5
413.642	26.5
414.872	24
416.102	26
417.333	27
418.562	29.5
419.791	27
421.02	26.5
422.249	27
423.479	28
424.707	28
425.935	28
427.163	26
428.391	27.5
429.619	30
430.848	26
432.075	27
433.302	26.5
434.529	29.5
435.755	28
436.982	28
438.208	26
439.434	25
440.66	29.5
441.885	30
443.111	27
444.338	29
445.563	30
446.788	27.5
448.012	27
449.237	28
450.461	28.5
451.685	27.5
452.909	27.5
454.133	28.5
455.356	32
456.579	27
457.802	26.5
459.025	28.5
460.247	29
461.469	33
462.691	32
463.914	34.5
465.136	30
466.357	29.5
467.579	31.5
468.8	32
470.021	29
471.242	36.5
472.462	32
473.682	33.5
474.903	33.5
476.123	34.5
477.343	36
478.563	41.5
479.782	42.5
481	45.5
482.219	46.5
483.438	49
484.657	49
485.874	51
487.093	48
488.311	51
489.529	50
490.747	55
491.963	49.5
493.181	47
494.398	47
495.614	46
496.83	46
498.047	42.5
499.264	37.5
500.479	38
501.695	40
502.911	36.5
504.125	36.5
505.34	34.5
506.554	39
507.769	33
508.984	35.5
510.198	33
511.412	30
512.627	34
513.839	32
515.053	32
516.266	32.5
517.479	32.5
518.691	30
519.905	31
521.118	31.5
522.329	32.5
523.542	28
524.753	33
525.965	30
527.176	31.5
528.388	27.5
529.598	29.5
530.809	31
532.019	28.5
533.23	28
534.44	31.5
535.649	30
536.86	33
538.068	30
539.279	26
540.487	32
541.697	32
542.905	28.5
544.113	29
545.322	28
546.53	29.5
547.737	29.5
548.946	29.5
550.153	25.5
551.361	28
552.568	28.5
553.774	30
554.982	27
556.188	25
557.394	27
558.599	31
559.806	28
561.012	26.5
562.217	28
563.423	26.5
564.628	30
565.832	29
567.036	27.5
568.241	25
569.446	28.5
570.65	30
571.853	23
573.057	29.5
574.26	29
575.464	29
576.667	28.5
577.87	29
579.072	23.5
580.274	28.5
581.477	27
582.68	28.5
583.881	26
585.083	29
586.284	29
587.485	24
588.686	26
589.887	28
591.087	25
592.288	27
593.488	33
594.688	28.5
595.888	30
597.087	29
598.287	30
599.486	30
600.685	26
601.884	31
603.082	27
604.281	30.5
605.479	25.5
606.677	28
607.875	28
609.073	27.5
610.27	27
611.468	23
612.665	30.5
613.862	29
615.058	25
616.255	26
617.451	26.5
618.648	29
619.842	27.5
621.038	29
622.234	25.5
623.429	30.5
624.624	31
625.819	31
627.013	30.5
628.207	28
629.402	27
630.596	29.5
631.79	31.5
632.983	26.5
634.177	30.5
635.37	22.5
636.564	25
637.755	29
638.948	30.5
640.141	29
641.334	24
642.525	25.5
643.717	28
644.909	28.5
646.099	29.5
647.291	27
648.483	30
649.674	26.5
650.864	31
652.055	26
653.244	24
654.435	31.5
655.625	26
656.814	28.5
658.004	23.5
659.193	29.5
660.382	28
661.571	28
662.759	26.5
663.948	27
665.135	29.5
666.324	30
667.511	31
668.7	31.5
669.886	30
671.074	28
672.262	30
673.448	31
674.634	28
675.821	32.5
677.007	30
678.194	31.5
679.379	32.5
680.565	34.5
681.75	32.5
682.936	34
684.121	38
685.305	34
686.491	33.5
687.675	33.5
688.86	36
690.043	32.5
691.227	34.5
692.411	32
693.594	34
694.777	34
695.961	37.5
697.144	34.5
698.326	32.5
699.509	33.5
700.691	35.5
701.873	38.5
703.056	35.5
704.237	40
705.419	38.5
706.599	41.5
707.782	46
708.962	45.5
710.143	45
711.323	40
712.504	37
713.684	35.5
714.864	31.5
716.043	37.5
717.223	32.5
718.403	27.5
719.582	28.5
720.761	27.5
721.94	31
723.118	29.5
724.296	31
725.474	29.5
726.652	25.5
727.831	27
729.009	28.5
730.186	27
731.363	33.5
732.54	32.5
733.717	29.5
734.893	28.5
736.07	27.5
737.246	32.5
738.422	29
739.598	27
740.773	25.5
741.949	25.5
743.124	28
744.299	25
745.474	26.5
746.649	28
747.823	31.5
748.997	29.5
750.172	26
751.346	28
752.519	30.5
753.693	25
754.867	27
756.038	26.5
757.211	26.5
758.384	26.5
759.557	28
760.73	29
761.902	31
763.074	27.5
764.246	24
765.417	26.5
766.588	26.5
767.76	27.5
768.931	27.5
770.102	28
771.271	27.5
772.442	30
773.613	25.5
774.783	25
775.952	29.5
777.122	27.5
778.291	28
779.461	31.5
780.629	29
781.798	30
782.967	27.5
784.135	29.5
785.304	32
786.472	33.5
787.639	32
788.807	30
789.975	28.5
791.142	31
792.309	32.5
793.477	30
794.642	32
795.81	32
796.975	33.5
798.142	32.5
799.308	30.5
800.473	28
801.639	26.5
802.804	32
803.97	27.5
805.134	33.5
806.299	23
807.463	23.5
808.628	30
809.792	28
810.957	26.5
812.12	27.5
813.284	30
814.447	29.5
815.611	26
816.773	25
817.937	29.5
819.099	26
820.261	28
821.424	24.5
822.585	27.5
823.748	30.5
824.909	27.5
826.07	26
827.232	25.5
828.393	25.5
829.554	29.5
830.715	27.5
831.875	30.5
833.035	30
834.196	25
835.356	24
836.515	28.5
837.676	24
838.835	28
839.994	27.5
841.152	26
842.312	29.5
843.47	25
844.629	30
845.786	27.5
846.946	29.5
848.103	29.5
849.261	24
850.418	26
851.575	26
852.733	29
853.89	31
855.046	28
856.203	28
857.359	28.5
858.515	27.5
859.67	32.5
860.827	25
861.983	26.5
863.138	29
864.293	28
865.448	29
866.603	28
867.757	35
868.912	31.5
870.066	27.5
871.22	24
872.374	25.5
873.527	29.5
874.681	26.5
875.834	28.5
876.987	24.5
878.14	23.5
879.293	31
880.445	27
881.598	31
882.75	28
883.902	26.5
885.054	26
886.206	25
887.357	30
888.507	25.5
889.658	27
890.809	26.5
891.96	28.5
893.111	23.5
894.261	25
895.411	29
896.561	26.5
897.71	25.5
898.86	31.5
900.009	27
901.159	25.5
902.308	24
903.455	25.5
904.604	22.5
905.753	24
906.901	26
908.048	28.5
909.197	28
910.344	26.5
911.492	27
912.639	27.5
913.786	24.5
914.933	27.5
916.079	21
917.226	29.5
918.373	27.5
919.518	31.5
920.664	25.5
921.81	27.5
922.955	25.5
924.101	26
925.245	27
926.391	26
927.536	28
928.68	25.5
929.825	26
930.968	26.5
932.113	24.5
933.256	27.5
934.4	25.5
935.543	26.5
936.687	27
937.83	24
938.973	27
940.115	26.5
941.258	25.5
942.399	26
943.542	28.5
944.684	27.5
945.826	26
946.967	26
948.109	25.5
949.25	27
950.392	27.5
951.532	30
952.672	27
953.813	29
954.953	25
956.093	26
957.233	26
958.373	23
959.512	27.5
960.652	28.5
961.791	28.5
962.929	21.5
964.069	29
965.207	21.5
966.345	30.5
967.484	27.5
968.622	25
969.759	24
970.896	26.75
972.035	27
973.172	26.5
974.309	24
975.445	25.5
976.582	25
977.719	26.5
978.855	26
979.991	25.5
981.127	27
982.263	29.5
983.398	27.5
984.535	25
985.67	26
986.804	28
987.939	24.5
989.074	20.5
990.208	25
991.342	25
992.476	23
993.61	26.5
994.744	25.5
995.877	28
997.01	26
998.143	20
999.276	28
1000.41	24.5
1001.54	25.5
1002.67	25.5
1003.81	26
1004.94	25.5
1006.07	26
1007.2	28
1008.33	29
1009.47	27
1010.6	25
1011.73	25.5
1012.86	25
1013.99	25
1015.12	26
1016.25	23
1017.38	22.5
1018.51	28.5
1019.64	23
1020.77	27
1021.9	25
1023.03	25.5
1024.15	25
1025.28	26.5
1026.41	26.5
1027.54	27.5
1028.67	26.5
1029.8	25
1030.92	26.5
1032.05	23
1033.18	24
1034.31	28.5
1035.43	24
1036.56	29
1037.69	27.5
1038.81	26
1039.94	24.5
1041.07	23
1042.19	27.5
1043.32	28.5
1044.44	28.5
1045.57	23.5
1046.69	25
1047.82	29.5
1048.94	24.5
1050.07	23
1051.19	25
1052.32	23.5
1053.44	27
1054.57	25.5
1055.69	25
1056.81	23.5
1057.94	26
1059.06	26.5
1060.18	25
1061.31	28.5
1062.43	22.5
1063.55	27
1064.67	27.5
1065.8	26
1066.92	26
1068.04	25.5
1069.16	28
1070.28	27.5
1071.4	22
1072.52	25.5
1073.64	26.5
1074.76	26.5
1075.89	25.5
1077.01	25
1078.13	24.5
1079.25	27
1080.37	25
1081.49	24
1082.6	26.5
1083.72	24.5
1084.84	22.5
1085.96	24
1087.08	20.5
1088.2	24.5
1089.32	25.5
1090.43	27
1091.55	24
1092.67	26.5
1093.79	22
1094.91	23
1096.02	23
1097.14	28.5
1098.26	23.5
1099.37	25
1100.49	22.5
1101.61	27.5
1102.72	21.5
1103.84	21
1104.95	25.5
1106.07	27
1107.18	23.5
1108.3	26.5
1109.41	24
1110.53	24
1111.64	21.5
1112.76	26.5
1113.87	22.5
1114.99	24
1116.1	26
1117.21	25
1118.33	23.5
1119.44	22.5
1120.55	23
1121.67	25.5
1122.78	26.5
1123.89	21.5
1125	29.5
1126.12	30
1127.23	27
1128.34	24.5
1129.45	26.5
1130.56	25.5
1131.68	27.5
1132.79	24.5
1133.9	25.5
1135.01	24
1136.12	26
1137.23	22
1138.34	28
1139.45	26
1140.56	25.5
1141.67	24
1142.78	24.5
1143.89	24
1145	23.5
1146.11	25
1147.22	26
1148.32	21.5
1149.43	26
1150.54	21.5
1151.65	20
1152.76	20.5
1153.86	23.5
1154.97	25
1156.08	27
1157.19	24.5
1158.29	24.5
1159.4	25.5
1160.51	23.5
1161.61	25
1162.72	25.5
1163.83	24.5
1164.93	30.5
1166.04	24.5
1167.14	24.5
1168.25	24.5
1169.35	26.5
1170.46	22
1171.56	25.5
1172.67	24
1173.77	24
1174.88	24
1175.98	27.5
1177.08	24
1178.19	25.5
1179.29	21.5
1180.4	27
1181.5	25
1182.6	29
1183.71	21.5
1184.81	25.5
1185.91	24.5
1187.01	25.5
1188.12	26
1189.22	25
1190.32	23
1191.42	26
1192.52	23
1193.62	27
1194.72	26.9922
1195.83	24.5027
1196.93	21.5461
1198.03	23.0203
1199.13	29.33
1200.23	23.0331
1201.33	28.5699
1202.43	25.7881
1203.53	27.6286
1204.63	25.3155
1205.73	24.8471
1206.83	23.0105
1207.92	22.394
1209.02	25.7992
1210.12	26.676
1211.22	23.4353
1212.32	23.1077
1213.42	23.7435
1214.51	24.4539
1215.61	24.5151
1216.71	26.9465
1217.81	28.3002
1218.9	25.5631
1220	25.1339
1221.1	24.6537
1222.19	26.8668
1223.29	24.5776
1224.39	23.2331
1225.48	23.8904
1226.58	22.2811
1227.68	25.4232
1228.77	26.848
1229.87	22.512
1230.96	25.865
1232.06	25.5831
1233.15	23.6546
1234.25	24.9294
1235.34	24.1363
1236.43	25.0488
1237.53	27.4608
1238.62	25.4102
1239.72	24.7843
1240.81	22.7857
1241.9	23.8953
1243	23.2886
1244.09	25.4402
1245.18	23.6563
1246.27	24.5695
1247.37	24.4262
1248.46	23.7556
1249.55	25.7358
1250.64	22.5995
1251.74	24.4002
1252.83	25.9584
1253.92	23.8638
1255.01	25.0136
1256.1	25.6516
1257.19	26.0256
1258.28	27.0121
1259.38	23.8491
1260.46	25.5747
1261.56	23.9195
1262.65	27.3111
1263.74	26.5958
1264.82	24.3804
1265.91	24.2382
1267	26.1734
1268.09	25.9438
1269.18	27.6271
1270.27	26.1325
1271.36	24.2251
1272.45	24.7068
1273.54	23.4022
1274.63	22.7888
1275.71	22.4355
1276.8	23.9406
1277.89	25.4007
1278.98	22.6731
1280.06	23.6952
1281.15	24.7559
1282.24	24.3538
1283.32	25.4974
1284.41	23.0382
1285.5	22.6401
1286.58	23.6619
1287.67	24.9999
1288.76	24.0005
1289.84	22.1927
1290.93	23.0711
1292.01	24.0578
1293.1	25.4639
1294.18	24.7459
1295.27	24.359
1296.35	24.4162
1297.44	23.4258
1298.52	23.6196
1299.6	25.0827
1300.69	23.6351
1301.77	25.1188
1302.86	25.2583
1303.94	22.9066
1305.02	22.3345
1306.11	26.0807
1306.41	27.5
1307.5	22
1308.59	24
1309.68	28.5
1310.77	23
1311.85	22
1312.94	23
1314.03	22
1315.11	25.5
1316.2	25
1317.29	24
1318.37	26.5
1319.46	25.5
1320.55	26.5
1321.63	23
1322.72	26
1323.8	25
1324.89	24.5
1325.98	23.5
1327.06	25
1328.15	25
1329.23	23.5
1330.31	25
1331.4	22.5
1332.48	27
1333.57	21.5
1334.65	22.5
1335.74	23
1336.82	26
1337.9	23.5
1338.99	27
1340.07	25.5
1341.15	26
1342.24	25.5
1343.32	23.5
1344.4	27.5
1345.48	24
1346.56	24.5
1347.65	24
1348.73	22
1349.81	26
1350.89	23.5
1351.97	23
1353.05	29
1354.13	27
1355.21	23.5
1356.29	20.5
1357.37	26
1358.46	28
1359.54	24
1360.62	25.5
1361.69	22.5
1362.77	22.5
1363.85	23.5
1364.93	24
1366.01	24.5
1367.09	23.5
1368.17	26
1369.25	27
1370.33	23
1371.41	20
1372.48	23.5
1373.56	25
1374.64	24.5
1375.72	23.5
1376.79	25.5
1377.87	24.5
1378.95	28
1380.02	27.5
1381.1	26
1382.18	25
1383.25	25
1384.33	23.5
1385.4	23
1386.48	29.5
1387.56	26.5
1388.63	22.5
1389.71	28
1390.78	25.5
1391.86	27
1392.93	29
1394.01	25
1395.08	24.5
1396.15	21.5
1397.23	26
1398.3	28.5
1399.38	32
1400.45	26
1401.52	30.5
1402.6	31.5
1403.67	26.5
1404.74	24
1405.81	31
1406.89	30.5
1407.96	31
1409.03	26
1410.1	29
1411.17	29
1412.25	29
1413.32	28.5
1414.39	32
1415.46	28.5
1416.53	26
1417.6	31.5
1418.67	30.5
1419.74	28.5
1420.81	26.5
1421.88	28
1422.95	28.5
1424.02	24
1425.09	29.5
1426.16	27
1427.23	27
1428.3	26
1429.37	27.5
1430.44	29.5
1431.51	25.5
1432.58	23
1433.64	24.5
1434.71	26
1435.78	22.5
1436.85	27
1437.92	21
1438.98	27.5
1440.05	28
1441.12	25
1442.18	26
1443.25	29
1444.32	23
1445.38	28.5
1446.45	31.5
1447.52	29.5
1448.58	25
1449.65	23
1450.71	22.5
1451.78	28
1452.84	28
1453.91	26
1454.97	25.5
1456.04	27.5
1457.1	27
1458.17	26
1459.23	22
1460.3	26
1461.36	24.5
1462.42	27
1463.49	30.5
1464.55	26
1465.61	27
1466.68	24
1467.74	32.5
1468.8	26
1469.86	26.5
1470.93	25
1471.99	28
1473.05	21.5
1474.11	25.5
1475.17	23
1476.24	27.5
1477.3	26
1478.36	28
1479.42	24.5
1480.48	28
1481.54	22.5
1482.6	28
1483.66	25.5
1484.72	26
1485.78	25
1486.84	26.5
1487.9	28.5
1488.96	27
1490.02	28.5
1491.08	27.5
1492.14	24.5
1493.2	26.5
1494.26	25.5
1495.31	27
1496.37	23.5
1497.43	25
1498.49	27
1499.55	26
1500.6	25.5
1501.66	24.5
1502.72	27
1503.78	28.5
1504.83	23
1505.89	30
1506.95	26
1508	26.5
1509.06	28.5
1510.12	25
1511.17	28.5
1512.23	26
1513.28	26.5
1514.34	22.5
1515.39	26.5
1516.45	25
1517.5	24.5
1518.56	26
1519.61	25
1520.67	24
1521.72	23.5
1522.78	21.5
1523.83	26
1524.88	26.5
1525.94	26
1526.99	21.5
1528.05	22.5
1529.1	22
1530.15	25.5
1531.2	26.5
1532.26	29
1533.31	26
1534.36	29
1535.41	27
1536.47	25
1537.52	27.5
1538.57	29
1539.62	23
1540.67	25.5
1541.72	27
1542.77	27.5
1543.83	23
1544.88	27
1545.93	24
1546.98	24
1548.03	26
1549.08	27
1550.13	28.5
1551.18	25.5
1552.23	28.5
1553.28	24
1554.32	27.5
1555.37	24
1556.42	26.5
1557.47	27
1558.52	27.5
1559.57	24
1560.62	21
1561.67	26
1562.71	28.5
1563.76	26
1564.81	29.5
1565.86	23.5
1566.9	23
1567.95	27.5
1569	25
1570.04	24
1571.09	26.5
1572.14	26
1573.18	27
1574.23	26
1575.27	25
1576.32	27
1577.37	26
1578.41	27.5
1579.46	26
1580.5	27
1581.55	27.5
1582.59	25
1583.64	27.5
1584.68	26.5
1585.72	24.5
1586.77	22
1587.81	29
1588.86	24
1589.9	30
1590.94	25
1591.99	23.5
1593.03	23.5
1594.07	23.5
1595.12	24
1596.16	20
1597.2	28
1598.24	25.5
1599.29	27
1600.33	29.5
1601.37	27
1602.41	25
1603.45	25.5
1604.49	28
1605.53	26
1606.58	27
1607.62	24
1608.66	24
1609.7	25.5
1610.74	25
1611.78	28
1612.82	22
1613.86	24.5
1614.9	25.5
1615.94	25.5
1616.98	28
1618.02	26.5
1619.06	22
1620.09	22.5
1621.13	28.5
1622.17	25
1623.21	26
1624.25	29.5
1625.29	28.5
1626.32	24.5
1627.36	26
1628.4	27.5
1629.44	24
1630.47	24
1631.51	31.5
1632.55	24.5
1633.58	24
1634.62	26
1635.66	28.5
1636.69	22
1637.73	27
1638.77	25
1639.8	27
1640.84	27.5
1641.87	28.5
1642.91	25.5
1643.94	27.5
1644.98	24.5
1646.01	25
1647.05	26.5
1648.08	26
1649.12	31.5
1650.15	26
1651.18	27
1652.22	26
1653.25	26.5
1654.29	23
1655.32	26
1656.35	26
1657.39	25.5
1658.42	25.5
1659.45	23
1660.48	27
1661.52	25
1662.55	23.5
1663.58	23
1664.61	26.5
1665.64	27.5
1666.68	22
1667.71	22
1668.74	23
1669.77	25.5
1670.8	24.5
1671.83	26.5
1672.86	23.5
1673.89	26
1674.92	28
1675.95	27.5
1676.98	28
1678.01	27.5
1679.04	29
1680.07	23
1681.1	24
1682.13	25
1683.16	25.5
1684.19	28.5
1685.22	24
1686.25	25
1687.27	25
1688.3	27.5
1689.33	25
1690.36	25
1691.38	24
1692.41	25.5
1693.44	27
1694.47	24
1695.49	26
1696.52	22.5
1697.55	23.5
1698.57	26.5
1699.6	28
1700.63	25
1701.65	23
1702.68	24.5
1703.7	28
1704.73	25
1705.76	23.5
1706.78	25
1707.81	25.5
1708.83	23
1709.86	24
1710.88	26.5
1711.91	23
1712.93	27.5
1713.95	27
1714.98	26.5
1716	22
1717.03	22
1718.05	25.5
1719.07	23
1720.1	23.5
1721.12	21.5
1722.14	23
1723.16	24.5
1724.19	27
1725.21	23.5
1726.23	25
1727.25	28.5
1728.28	25
1729.3	26
1730.32	25
1731.34	26
1732.36	28.5
1733.38	27
1734.41	24.5
1735.43	23.5
1736.45	24.5
1737.47	20
1738.49	25.5
1739.51	22
1740.53	26.5
1741.55	26.5
1742.57	26.5
1743.59	28
1744.61	29.5
1745.63	29
1746.64	23
1747.66	26.5
1748.68	26
1749.7	25
1750.72	25.5
1751.74	28.5
1752.76	28.5
1753.77	25.5
1754.79	26.5
1755.81	25
1756.83	27
1757.84	27.5
1758.86	24.5
1759.88	23
1760.9	27.5
1761.91	23
1762.93	24
1763.95	25.5
1764.96	25.5
1765.98	26.5
1766.99	27
1768.01	26.5
1769.02	29.5
1770.04	23.5
1771.06	25
1772.07	27.5
1773.09	27
1774.1	27
1775.12	26
1776.13	25.5
1777.14	27
1778.16	25.5
1779.17	27
1780.19	26.5
1781.2	27
1782.21	24.5
1783.23	23.5
1784.24	19
1785.25	23.5
1786.27	26
1787.28	20.5
1788.29	23.5
1789.3	26.5
1790.32	26
1791.33	23
1792.34	27
1793.35	28
1794.36	24.5
1795.38	28.5
1796.39	28
1797.4	24
1798.41	27.5
1799.42	26
1800.43	29
1801.44	25.5
1802.45	26
1803.46	24
1804.47	24.5
1805.48	25
1806.49	20
1807.5	26
1808.51	23
1809.52	27.5
1810.53	29.5
1811.54	23
1812.55	26.5
1813.56	28
1814.57	23
1815.57	26.5
1816.58	26.5
1817.59	26.5
1818.6	25
1819.61	21
1820.61	25
1821.62	26
1822.63	25
1823.64	26
1824.64	26.5
1825.65	25.5
1826.66	26
1827.66	25.5
1828.67	28
1829.68	27
1830.68	25
1831.69	23.5
1832.69	26.5
1833.7	21
1834.7	24
1835.71	25
1836.71	27
1837.72	29.5
1838.72	22
1839.73	24.5
1840.73	24.5
1841.74	23.5
1842.74	27
1843.75	26
1844.75	22
1845.75	22
1846.76	28.5
1847.76	24
1848.76	24
1849.77	23.5
1850.77	22
1851.77	23
1852.78	28
1853.78	26.5
1854.78	24
1855.78	26
1856.78	23
1857.79	25
1858.79	27.5
1859.79	24
1860.79	23.5
1861.79	28.5
1862.79	26
1863.79	27
1864.79	28.5
1865.79	25.5
1866.8	26.5
1867.8	26
1868.8	22.5
1869.8	26
1870.8	28
1871.8	23.5
1872.8	24.5
1873.79	31
1874.79	25
1875.79	26.5
1876.79	25
1877.79	26
1878.79	25
1879.79	26
1880.79	23.5
1881.78	24
1882.78	25.5
1883.78	28.5
1884.78	26
1885.77	21
1886.77	22.5
1887.77	24.5
1888.77	23
1889.76	24.5
1890.76	26
1891.76	28.5
1892.75	23
1893.75	24.5
1894.75	26.5
1895.74	22
1896.74	27
1897.73	23
1898.73	24
1899.73	26.5
1900.72	25.5
1901.72	25
1902.71	24
1903.7	26.5
1904.7	25.5
1905.69	27
1906.69	27
1907.68	29
1908.68	28.5
1909.67	23.5
1910.66	26
1911.66	23.5
1912.65	23
1913.64	26.5
1914.64	24.5
1915.63	27.5
1916.62	25.5
1917.62	24
1918.61	24
1919.6	24
1920.59	27
1921.58	25.5
1922.58	28
1923.57	25
1924.56	28
1925.55	24
1926.54	23
1927.53	24.5
1928.52	26
1929.51	25.5
1930.51	25.5
1931.5	25
1932.49	23
1933.48	23
1934.47	26
1935.46	28.5
1936.45	26
1937.44	25
1938.42	24.5
1939.41	23.5
1940.4	25
1941.39	22.5
1942.38	26
1943.37	25
1944.36	26
1945.35	29
1946.33	23.5
1947.32	27
1948.31	27.25
1949.3	26.5
1950.29	17
1951.27	26
1952.26	24.5
1953.25	24.5
1954.23	22
1955.22	26
1956.21	24.5
1957.19	30
1958.18	27
1959.17	29.5
1960.15	25
1961.14	25.5
1962.13	22
1963.11	23
1964.1	24.5
1965.08	27.5
1966.07	25.5
1967.05	22
1968.04	29.5
1969.02	24.5
1970.01	26
1970.99	27
1971.97	25
1972.96	27
1973.94	28.5
1974.93	28
1975.91	22
1976.89	25
1977.88	26
1978.86	20
1979.84	19
1980.83	27.5
1981.81	25
1982.79	24.5
1983.77	26
1984.76	24
1985.74	24
1986.72	25.5
1987.7	21
1988.68	24
1989.67	25.5
1990.65	23
1991.63	24.5
1992.61	25
1993.59	24
1994.57	21.5
1995.55	23
1996.53	27
1997.51	24.5
1998.49	21.5
1999.47	26.5
2000.45	23
2001.43	22.5
2002.41	22
2003.39	26
2004.37	23
2005.35	26
2006.33	22
2007.31	23.5
2008.29	24
2009.26	23
2010.24	21
2011.22	25
2012.2	23
2013.18	22.5
2014.15	23.5
2015.13	20.5
2016.11	21
2017.09	22
2018.06	23.5
2019.04	23
2020.02	25
2021	22
2021.97	23
2022.95	21
2023.92	24
2024.9	26
2025.88	23
2026.85	25
2027.83	25
2028.8	24
2029.78	23
2030.75	25.5
2031.73	25.5
2032.7	23.5
2033.68	26.5
2034.65	25.5
2035.63	25
2036.6	27.5
2037.58	25.5
2038.55	26.5
2039.52	23
2040.5	25
2041.47	23
2042.45	23
2043.42	26
2044.39	26.5
2045.36	23.5
2046.34	23.5
2047.31	25.5
2048.28	25
2049.26	24.5
2050.23	26
2051.2	20.5
2052.17	25.5
2053.14	19.5
2054.12	22
2055.09	25.5
2056.06	23
2057.03	26.5
2058	25
2058.97	23
2059.94	22
2060.91	25
2061.88	24
2062.85	22.5
2063.82	24.5
2064.79	23.5
2065.76	26
2066.73	27.5
2067.7	26
2068.67	22.5
2069.64	25.5
2070.61	26
2071.58	24
2072.55	25.5
2073.52	27.5
2074.49	26
2075.45	21
2076.42	26.5
2077.39	25
2078.36	23
2079.33	23.5
2080.29	23.5
2081.26	24.5
2082.23	25
2083.2	23.5
2084.16	25
2085.13	22
2086.1	22
2087.06	22.5
2088.03	24.5
2089	23
2089.96	26
2090.93	22.5
2091.89	22.5
2092.86	26.5
2093.83	21
2094.79	24.5
2095.76	21.5
2096.72	24
2097.69	22.5
2098.65	24
2099.62	23.5
2100.58	24
2101.55	23.5
2102.51	23.5
2103.47	20.5
2104.44	24.5
2105.4	22
2106.36	22.5
2107.33	22
2108.29	23
2109.25	22.5
2110.22	23.5
2111.18	19.5
2112.14	25
2113.11	21.5
2114.07	21.5
2115.03	25.5
2115.99	25
2116.96	22
2117.92	23.5
2118.88	25
2119.84	21.5
2120.8	27
2121.76	20
2122.72	23
2123.68	27
2124.65	24
2125.61	21
2126.57	21
2127.53	26
2128.49	27
2129.45	24.5
2130.41	23
2131.37	23
2132.33	22.5
2133.29	22.5
2134.25	25
2135.21	24.5
2136.17	24
2137.12	25
2138.08	24
2139.04	23
2140	24.5
2140.96	22
2141.92	24.5
2142.88	27.9702
2143.83	22.4695
2144.79	21.1097
2145.75	23.1426
2146.71	23.898
2147.66	24.9547
2148.62	23.6578
2149.58	23.0997
2150.53	22.7619
2151.49	24.7233
2152.45	21.162
2153.4	23.1932
2154.36	23.2621
2155.32	26.5198
2156.27	23.3003
2157.23	24.6623
2158.19	24.8068
2159.14	23.1931
2160.1	21.2226
2161.05	24.1033
2162.01	24.4399
2162.96	26.0518
2163.92	21.2106
2164.87	23.2961
2165.83	23.5682
2166.78	21.9106
2167.73	20.3841
2168.69	22.5463
2169.64	23.7434
2170.6	24.8466
2171.55	24.3355
2172.5	21.8122
2173.46	24.0653
2174.41	24.3788
2175.36	25.0913
2176.32	24.517
2177.27	22.8615
2178.22	22.2008
2179.18	25.7122
2180.13	24.116
2181.08	24.3263
2182.03	23.016
2182.98	23.5154
2183.94	22.5268
2184.89	23.5404
2185.84	22.5844
2186.79	24.2853
2187.74	21.1623
2188.69	23.8295
2189.64	19.0375
2190.6	20.5071
2191.55	20.7131
2192.5	23.2517
2193.45	25.5056
2194.4	25.1684
2195.35	19.465
2196.3	20.2303
2197.25	23.2745
2198.2	21.5942
2199.15	23.2663
2200.1	24.4074
2201.04	20.2794
2201.99	24.4095
2202.94	21.3439
2203.89	24.1638
2204.84	23.3857
2205.79	24.1498
2206.74	23.0014
2207.69	23.8743
2208.63	21.7112
2209.58	24.6076
2210.53	24.2904
2211.48	21.7876
2212.43	23.0424
2213.37	22.0976
2214.32	23.6537
2215.27	22.2104
2216.21	25.4751
2217.16	25.2803
2218.11	21.3613
2219.05	23.1539
2220	21.6605
2220.95	23.0379
2221.89	23.3769
2222.84	22.682
2223.78	25.4272
2224.73	24.6466
2225.68	25.3579
2226.62	24.9998
2227.57	22.5666
2228.51	20.425
2229.46	23.7856
2230.4	23.0432
2231.35	21.2503
2232.29	22.8833
2233.24	21.4899
2234.18	21.3406
2235.12	22.2483
2236.07	23.7784
2237.01	25.1314
2237.95	22.1208
2238.9	22.9242
2239.84	25.0162
2240.06	25.5
2241.01	22
2241.96	23
2242.91	23.5
2243.86	26
2244.8	23
2245.75	23.5
2246.7	23.5
2247.65	21
2248.59	23
2249.54	25
2250.49	20
2251.43	24
2252.38	25
2253.33	27
2254.27	23
2255.22	22.5
2256.16	24.5
2257.11	24.5
2258.06	24
2259	22
2259.95	24
2260.89	23
2261.84	23
2262.78	22
2263.73	24
2264.67	24
2265.62	23.5
2266.56	24.5
2267.5	22.5
2268.45	24.5
2269.39	27.5
2270.34	21
2271.28	27.5
2272.22	21
2273.17	23
2274.11	23
2275.05	22
2276	24
2276.94	28
2277.88	23
2278.82	27.5
2279.77	27.5
2280.71	23.5
2281.65	23
2282.59	26
2283.53	20.5
2284.48	24
2285.42	22.5
2286.36	26
2287.3	21
2288.24	23.5
2289.18	23.5
2290.12	23
2291.06	25.5
2292	26
2292.94	19
2293.89	24.5
2294.83	25
2295.77	20
2296.71	19.5
2297.65	22
2298.58	22.5
2299.52	22
2300.46	24
2301.4	19
2302.34	23
2303.28	23
2304.22	20
2305.16	25
2306.1	22.5
2307.03	21
2307.97	20
2308.91	24.5
2309.85	22
2310.79	24.5
2311.72	25
2312.66	25.5
2313.6	26
2314.54	27
2315.47	26
2316.41	23
2317.35	24
2318.28	22.5
2319.22	25.5
2320.16	23.5
2321.09	21.5
2322.03	24
2322.96	22.5
2323.9	25.5
2324.84	23
2325.77	23.5
2326.71	24
2327.64	26
2328.58	21.5
2329.51	24
2330.45	21
2331.38	25.5
2332.32	23.5
2333.25	24.5
2334.18	26.5
2335.12	23
2336.05	21
2336.99	25
2337.92	21
2338.85	23.5
2339.79	25
2340.72	24
2341.65	23
2342.59	23
2343.52	24
2344.45	24.5
2345.39	22
2346.32	24
2347.25	25
2348.18	24.5
2349.11	21
2350.05	22.5
2350.98	25
2351.91	27.5
2352.84	21
2353.77	21
2354.7	24
2355.64	21
2356.57	19.5
2357.5	24
2358.43	28.5
2359.36	27
2360.29	20
2361.22	21
2362.15	23.5
2363.08	28
2364.01	21.5
2364.94	25
2365.87	26
2366.8	22
2367.73	21.5
2368.66	27.5
2369.58	25
2370.51	24
2371.44	23
2372.37	21
2373.3	25
2374.23	22.5
2375.16	23.5
2376.08	23.5
2377.01	28.5
2377.94	22.5
2378.87	24
2379.8	24.5
2380.72	20
2381.65	24
2382.58	25.5
2383.5	22.5
2384.43	23.5
2385.36	25
2386.28	24.5
2387.21	21.5
2388.14	24
2389.06	23.5
2389.99	24
2390.91	23.5
2391.84	21
2392.77	23
2393.69	23.5
2394.62	28
2395.54	19.5
2396.47	25.5
2397.39	24
2398.32	26
2399.24	26.5
2400.16	23
2401.09	23.5
2402.01	22
2402.94	26
2403.86	22
2404.78	25
2405.71	26.5
2406.63	23
2407.56	24
2408.48	25
2409.4	23
2410.32	28
2411.25	23.5
2412.17	24
2413.09	23
2414.02	20
2414.94	23
2415.86	24
2416.78	22
2417.7	24
2418.63	25
2419.55	24
2420.47	23
2421.39	23
2422.31	22.5
2423.23	23.5
2424.15	25
2425.07	25
2425.99	27.5
2426.92	23.5
2427.84	22
2428.76	20.5
2429.68	25
2430.59	26
2431.51	27
2432.43	24.5
2433.35	24
2434.27	21
2435.19	26
2436.11	27
2437.03	29
2437.95	22.5
2438.87	27.5
2439.79	24.5
2440.71	28
2441.62	27.5
2442.54	24
2443.46	28
2444.38	26
2445.3	24.5
2446.21	20
2447.13	19.5
2448.05	27
2448.97	23.5
2449.88	24
2450.8	24
2451.72	20
2452.63	25
2453.55	25.5
2454.47	28.5
2455.38	26
2456.3	25
2457.21	20.5
2458.13	27.5
2459.05	22
2459.96	26.5
2460.88	27
2461.79	24
2462.71	26
2463.62	24.5
2464.54	23
2465.45	21.5
2466.37	22
2467.28	21.5
2468.2	24
2469.11	26.5
2470.02	25
2470.94	26
2471.85	24
2472.77	24.5
2473.68	26
2474.59	21.5
2475.51	21
2476.42	21.5
2477.33	23
2478.25	23.5
2479.16	25
2480.07	23
2480.98	25.5
2481.9	25
2482.81	24
2483.72	26
2484.63	23
2485.55	23
2486.46	24
2487.37	25
2488.28	26
2489.19	26
2490.1	23.5
2491.01	25
2491.92	28.5
2492.83	26.5
2493.74	24
2494.66	26
2495.57	25.5
2496.48	24.5
2497.39	26
2498.3	24.5
2499.21	27
2500.12	20.5
2501.03	26
2501.93	24.5
2502.84	25.5
2503.75	26
2504.66	22
2505.57	24.5
2506.48	25
2507.39	26.5
2508.3	27
2509.21	24.5
2510.11	22.5
2511.02	26.5
2511.93	27.5
2512.84	25.5
2513.75	25.5
2514.65	25
2515.56	22
2516.47	21.5
2517.37	20.5
2518.28	20
2519.19	23.5
2520.09	22
2521	29.5
2521.91	24.5
2522.81	23
2523.72	24
2524.63	27
2525.53	24.5
2526.44	22
2527.34	24.5
2528.25	24.5
2529.16	25
2530.06	27
2530.97	26
2531.87	24
2532.78	27
2533.68	26
2534.58	29
2535.49	24.5
2536.39	24.5
2537.3	27.5
2538.2	24
2539.11	27
2540.01	26
2540.91	21
2541.82	26
2542.72	22
2543.62	23.5
2544.53	27.5
2545.43	23
2546.33	21.5
2547.23	21
2548.14	22
2549.04	28
2549.94	26
2550.84	25
2551.75	25
2552.65	24
2553.55	27
2554.45	27
2555.35	26
2556.26	23.5
2557.16	23.5
2558.06	21.5
2558.96	26
2559.86	27.5
2560.76	25
2561.66	24.5
2562.56	26.5
2563.46	21.5
2564.36	25
2565.26	26.5
2566.16	25.5
2567.06	24
2567.96	19
2568.86	23.5
2569.76	27
2570.66	22.5
2571.56	27.5
2572.46	26
2573.36	23.5
2574.26	23.5
2575.16	24
2576.05	23
2576.95	25
2577.85	24
2578.75	28
2579.65	26
2580.54	27.5
2581.44	24.5
2582.34	22
2583.24	26
2584.13	27
2585.03	29
2585.93	27.5
2586.83	27.5
2587.72	24.5
2588.62	22.5
2589.52	26
2590.41	26
2591.31	27.5
2592.2	29
2593.1	25
2594	23
2594.89	25
2595.79	27
2596.68	25
2597.58	23.5
2598.47	23
2599.37	26.5
2600.26	29
2601.16	26
2602.05	26.5
2602.95	23
2603.84	23.5
2604.74	24.5
2605.63	28.5
2606.52	26.5
2607.42	24
2608.31	27.5
2609.21	25.5
2610.1	27.5
2610.99	22.5
2611.89	29
2612.78	26
2613.67	30
2614.56	26
2615.46	25
2616.35	24
2617.24	24.5
2618.13	23
2619.03	25.5
2619.92	23.5
2620.81	25
2621.7	28
2622.59	28.5
2623.49	22.5
2624.38	26
2625.27	24
2626.16	21.5
2627.05	24
2627.94	24.5
2628.83	27
2629.72	24.5
2630.61	21.5
2631.5	23
2632.39	28
2633.28	23
2634.17	26.5
2635.06	22.5
2635.95	24.5
2636.84	24
2637.73	23
2638.62	24
2639.51	24.5
2640.4	24
2641.29	23.5
2642.18	24.5
2643.07	26
2643.96	30
2644.84	23
2645.73	25
2646.62	24.5
2647.51	27.5
2648.4	25.5
2649.28	21.5
2650.17	26.5
2651.06	23
2651.95	26
2652.83	25
2653.72	23.5
2654.61	20.5
2655.49	25
2656.38	24.5
2657.27	22.5
2658.16	23
2659.04	21.5
2659.93	23
2660.81	25
2661.7	26
2662.59	24
2663.47	23
2664.36	25.5
2665.24	27.5
2666.13	24.5
2667.01	27
2667.9	25.5
2668.78	24.5
2669.67	26
2670.55	26.5
2671.44	26
2672.32	22
2673.21	26
2674.09	22
2674.97	30
2675.86	26.5
2676.74	26
2677.62	26
2678.51	25.5
2679.39	24.5
2680.27	28
2681.16	27.5
2682.04	25
2682.92	29.5
2683.81	22
2684.69	25
2685.57	21
2686.45	23
2687.34	27
2688.22	22.5
2689.1	23.5
2689.98	22
2690.86	23
2691.75	25.5
2692.63	28.5
2693.51	25.5
2694.39	21
2695.27	28
2696.15	25.5
2697.03	20.5
2697.91	23.5
2698.79	25
2699.67	25
2700.55	24
2701.43	25.5
2702.31	23.5
2703.19	23.5
2704.07	24
2704.95	26
2705.83	28.5
2706.71	27
2707.59	28
2708.47	24.5
2709.35	24
2710.23	26.5
2711.11	25.5
2711.99	24
2712.86	21.5
2713.74	24.5
2714.62	22.5
2715.5	25
2716.38	25.5
2717.26	23
2718.13	22.5
2719.01	29.5
2719.89	30.5
2720.77	24
2721.64	27.5
2722.52	27
2723.4	27.5
2724.27	24.5
2725.15	23.5
2726.03	28
2726.9	24.5
2727.78	23
2728.66	27
2729.53	22.5
2730.41	24.5
2731.28	26
2732.16	24
2733.03	26.5
2733.91	22.5
2734.79	27.5
2735.66	25.5
2736.54	25.5
2737.41	23
2738.29	25
2739.16	22.5
2740.03	22
2740.91	23
2741.78	27.5
2742.66	23.5
2743.53	30
2744.41	25
2745.28	22
2746.15	23
2747.03	24
2747.9	26
2748.77	25.5
2749.65	24
2750.52	24
2751.39	25
2752.27	19
2753.14	25.5
2754.01	23
2754.88	21
2755.75	23.5
2756.63	27
2757.5	25
2758.37	28
2759.24	24
2760.11	23.5
2760.99	27
2761.86	26.5
2762.73	22.5
2763.6	24
2764.47	28
2765.34	26.5
2766.21	23.5
2767.08	24.5
2767.95	27
2768.82	28
2769.69	25
2770.56	24.5
2771.43	27
2772.3	28.5
2773.17	24
2774.04	27
2774.91	23.5
2775.78	23
2776.65	28
2777.52	27
2778.39	22
2779.26	25.5
2780.13	31
2780.99	23
2781.86	23.5
2782.73	26
2783.6	25.5
2784.47	26
2785.34	28
2786.2	29
2787.07	25
2787.94	26
2788.81	24
2789.67	25.5
2790.54	29.5
2791.41	26.5
2792.27	26
2793.14	22.5
2794.01	27
2794.87	25
2795.74	27.5
2796.61	25.5
2797.47	30
2798.34	28.5
2799.21	27.5
2800.07	25
2800.94	26
2801.8	26
2802.67	23
2803.53	27.5
2804.4	28
2805.26	30
2806.13	26
2806.99	22.5
2807.86	30
2808.72	26.5
2809.59	30.5
2810.45	24
2811.32	30
2812.18	28
2813.04	23.5
2813.91	26
2814.77	26
2815.64	30
2816.5	28
2817.36	28.5
2818.22	28.5
2819.09	27
2819.95	27.5
2820.81	26
2821.68	20
2822.54	30
2823.4	30.5
2824.26	26
2825.13	27.5
2825.99	25.5
2826.85	24
2827.71	29
2828.57	24.5
2829.44	28.5
2830.3	28
2831.16	27.5
2832.02	22
2832.88	27
2833.74	30.5
2834.6	29
2835.46	23.5
2836.32	27
2837.18	24.5
2838.04	28
2838.9	28
2839.76	24.5
2840.62	24.5
2841.48	24
2842.34	28
2843.2	26
2844.06	21
2844.92	26.5
2845.78	26
2846.64	25.5
2847.5	24
2848.36	29
2849.22	24.5
2850.08	24
2850.93	26.5
2851.79	27
2852.65	29.5
2853.51	28.5
2854.37	26
2855.22	29
2856.08	23.5
2856.94	25
2857.8	24.5
2858.65	25.5
2859.51	26.5
2860.37	28.5
2861.23	23.5
2862.08	27.5
2862.94	25
2863.79	27.5
2864.65	27
2865.51	30.5
2866.36	26
2867.22	26.5
2868.08	25
2868.93	27
2869.79	25
2870.64	23
2871.5	27.5
2872.35	26
2873.21	28.5
2874.06	24
2874.92	28.5
2875.77	26
2876.63	29.5
2877.48	25
2878.34	31
2879.19	31.5
2880.05	30
2880.9	32
2881.76	30.5
2882.61	29
2883.46	30.5
2884.32	34
2885.17	34
2886.02	28
2886.88	33
2887.73	34
2888.58	36
2889.44	41.5
2890.29	30
2891.14	37.5
2891.99	40
2892.85	39
2893.7	43
2894.55	41
2895.4	45
2896.25	51
2897.11	47
2897.96	48
2898.81	55
2899.66	51
2900.51	53
2901.36	58
2902.21	54.5
2903.07	61.5
2903.92	59
2904.77	61
2905.62	68.5
2906.47	62
2907.32	64
2908.17	63
2909.02	61.5
2909.87	58.5
2910.72	52
2911.57	57.5
2912.42	54.5
2913.27	46.5
2914.12	44
2914.97	47
2915.81	42
2916.66	43.5
2917.51	38
2918.36	37
2919.21	39.5
2920.06	37.5
2920.91	37
2921.75	33.5
2922.6	32.5
2923.45	32
2924.3	31
2925.15	30
2925.99	30
2926.84	32
2927.69	32
2928.54	31.5
2929.38	30
2930.23	30.5
2931.08	29
2931.92	33
2932.77	25.5
2933.62	27.5
2934.46	29
2935.31	30.5
2936.16	23
2937	27
2937.85	27
2938.69	25
2939.54	25
2940.38	29.5
2941.23	27.5
2942.08	28
2942.92	28
2943.77	29
2944.61	25
2945.46	26
2946.3	26
2947.15	25
2947.99	30.5
2948.83	31.5
2949.68	27.5
2950.52	27.5
2951.37	33
2952.21	27
2953.05	29
2953.9	30.5
2954.74	31.5
2955.58	36
2956.43	30
2957.27	34.5
2958.11	36
2958.96	40
2959.8	39.5
2960.64	38.5
2961.48	44
2962.33	42
2963.17	42
2964.01	38.5
2964.85	40.5
2965.69	42.5
2966.54	40
2967.38	38
2968.22	38
2969.06	40.5
2969.9	41.5
2970.74	37.5
2971.58	38.4951
2972.43	34.4695
2973.27	35.5381
2974.11	33.9945
2974.95	34.9345
2975.79	32.4809
2976.63	29.8709
2977.47	30.3141
2978.31	29.5781
2979.15	31.7621
2979.99	31.0092
2980.83	34.1284
2981.67	28.9073
2982.51	25.8367
2983.35	25.7313
2984.19	24.7081
2985.03	27.6848
2985.86	27.2452
2986.7	27.7292
2987.54	22.9266
2988.38	28.2581
2989.22	26.5932
2990.06	23.1902
2990.9	26.3862
2991.73	26.5949
2992.57	26.5486
2993.41	25.5311
2994.25	25.0644
2995.09	27.0316
2995.92	27.8452
2996.76	23.0336
2997.6	22.6482
2998.44	27.5955
2999.27	26.326
3000.11	25.577
3000.95	22.1338
3001.78	24.0525
3002.62	24.4879
3003.46	26.6262
3004.29	24.767
3005.13	25.2518
3005.96	24.471
3006.8	23.1164
3007.64	24.5389
3008.47	24.2664
3009.31	22.0366
3010.14	24.0125
3010.98	24.746
3011.81	22.5913
3012.65	22.7828
3013.48	23.8575
3014.32	25.7583
3015.15	25.6448
3015.99	23.9223
3016.82	22.7876
3017.66	24.3119
3018.49	24.8758
3019.33	23.7917
3020.16	24.0175
3020.99	23.7609
3021.83	25.132
3022.66	23.9065
3023.5	23.9549
3024.33	24.9344
3025.16	25.3131
3026	23.8736
3026.83	24.8637
3027.66	23.9288
3028.49	22.8015
3029.33	24.7447
3030.16	22.701
3030.99	21.2691
3031.83	22.2028
3032.66	23.7661
3033.49	22.9738
3034.32	23.1675
3035.15	23.4005
3035.99	22.5
3036.82	22.3394
3037.65	22.7213
3038.48	21.3663
3039.31	23.1118
3040.14	25.0871
3040.97	24.3264
3041.81	22.8105
3042.64	24.5
3043.47	22.398
3044.3	20.8752
3045.13	22.3466
3045.96	21.7087
3046.79	21.6702
3047.62	22.8288
3048.45	23.5899
3049.28	24.4346
3050.11	24.6135
3050.94	25.6735
3051.77	25.7401
3052.6	23.369
3053.43	22.1935
3054.26	23.3738
3055.08	23.899
3055.91	23.405
3056.74	24.181
3057.26	24.5
3058.09	23.5
3058.92	24.5
3059.76	23
3060.59	24
3061.42	20
3062.25	23.5
3063.09	22.5
3063.92	24
3064.75	24
3065.58	27
3066.42	24
3067.25	21.5
3068.08	21.5
3068.91	27
3069.74	21
3070.57	23.5
3071.41	21.5
3072.24	25.5
3073.07	23.5
3073.9	25
3074.73	23.5
3075.56	25.5
3076.39	21
3077.22	21.5
3078.05	23
3078.88	23.5
3079.71	22
3080.54	21.5
3081.37	26.5
3082.2	26
3083.03	25
3083.86	24
3084.69	25
3085.52	20
3086.35	20
3087.18	18
3088.01	25.5
3088.84	26
3089.67	23.5
3090.5	20.5
3091.32	22
3092.15	25
3092.98	23
3093.81	24.5
3094.64	22.5
3095.47	20.5
3096.29	23.5
3097.12	22.5
3097.95	27.5
3098.78	21.5
3099.6	22.5
3100.43	22.5
3101.26	31.5
3102.09	24
3102.91	26
3103.74	23.5
3104.57	21
3105.39	28
3106.22	21.5
3107.05	25
3107.87	27
3108.7	19
3109.52	23.5
3110.35	21
3111.18	19
3112	26.5
3112.83	20.5
3113.65	23
3114.48	27
3115.3	22.5
3116.13	21
3116.95	25.5
3117.78	26.5
3118.6	17.5
3119.43	26.5
3120.25	27
3121.08	24.5
3121.9	21
3122.72	24.5
3123.55	25
3124.37	19.5
3125.2	22
3126.02	22.5
3126.84	27
3127.67	19.5
3128.49	26
3129.31	28.5
3130.14	24.5
3130.96	25
3131.78	26
3132.61	22
3133.43	22.5
3134.25	23.5
3135.07	22
3135.89	26
3136.72	21
3137.54	19.5
3138.36	25
3139.18	24
3140	25
3140.83	24
3141.65	19
3142.47	27
3143.29	23.5
3144.11	22.5
3144.93	26
3145.75	22.5
3146.57	24
3147.4	23
3148.22	22
3149.04	27
3149.86	26.5
3150.68	22.5
3151.5	25
3152.32	24
3153.14	26
3153.96	24
3154.78	24
3155.59	22.5
3156.42	22.5
3157.23	23
3158.05	25.5
3158.87	23
3159.69	24.5
3160.51	22.5
3161.33	23.5
3162.15	27
3162.97	25
3163.78	29
3164.6	24.5
3165.42	24
3166.24	24.5
3167.06	28
3167.87	26
3168.69	25.5
3169.51	23
3170.33	22.5
3171.14	22
3171.96	26
3172.78	22
3173.6	25
3174.41	24
3175.23	26
3176.05	23.5
3176.86	24
3177.68	23
3178.5	25.5
3179.31	26
3180.13	23
3180.94	26
3181.76	24.5
3182.58	24
3183.39	24.5
3184.21	25
3185.02	22
3185.84	26.5
3186.65	25.5
3187.47	21
3188.28	23
3189.1	21
3189.91	21
3190.73	22.5
3191.54	25
3192.36	22.5
3193.17	23
3193.98	27.5
3194.8	25
3195.61	23
3196.43	25
3197.24	25
3198.05	21.5
3198.87	24.5
3199.68	27.5
3200.49	24
3201.31	22.5
3202.12	19
3202.93	24
3203.75	27
3204.56	21
3205.37	26.5
3206.18	25.5
3207	24
3207.81	24
3208.62	20.5
3209.43	22.5
3210.24	27.5
3211.06	25.5
3211.87	22
3212.68	24.5
3213.49	22
3214.3	24
3215.11	18
3215.92	26
3216.73	24
3217.55	25.5
3218.36	22
3219.17	26
3219.98	24
3220.79	23
3221.6	25.5
3222.41	21
3223.22	24
3224.03	25.5
3224.84	21.5
3225.65	23
3226.46	25.5
3227.27	20.5
3228.08	25
3228.89	25
3229.7	30
3230.5	28
3231.31	25.5
3232.12	28.5
3232.93	21
3233.74	25
3234.55	24.5
3235.36	22.5
3236.16	21
3236.97	27
3237.78	23.5
3238.59	26
3239.4	24.5
3240.2	24
3241.01	22
3241.82	23.5
3242.63	26
3243.43	24
3244.24	25
3245.05	24.5
3245.85	21
3246.66	28.5
3247.47	24
3248.27	25
3249.08	24
3249.89	22.5
3250.69	22
3251.5	26
3252.31	21.5
3253.11	25
3253.92	25.5
3254.72	21
3255.53	23.5
3256.33	25
3257.14	24
3257.94	26.5
3258.75	23.5
3259.55	23.5
3260.36	20
3261.16	23
3261.97	25
3262.77	25.5
3263.58	25.5
3264.38	26
3265.19	24.5
3265.99	25
3266.79	26.5
3267.6	24
3268.4	22
3269.21	24
3270.01	26
3270.81	23.5
3271.62	23.5
3272.42	24.5
3273.22	22.5
3274.03	23.5
3274.83	20.5
3275.63	23
3276.43	27
3277.24	23.5
3278.04	21
3278.84	27.5
3279.64	25
3280.45	24.5
3281.25	25
3282.05	20
3282.85	24
3283.65	22.5
3284.45	22
3285.26	21
3286.06	23
3286.86	22
3287.66	24.5
3288.46	24
3289.26	25
3290.06	26.5
3290.86	25
3291.66	25
3292.46	26.5
3293.26	21
3294.06	25.5
3294.86	27
3295.66	20
3296.46	24
3297.26	26.5
3298.06	24
3298.86	21
3299.66	25.5
3300.46	23
3301.26	19
3302.06	28
3302.86	24.5
3303.66	24
3304.46	27
3305.25	24
3306.05	25
3306.85	22.5
3307.65	28
3308.45	23
3309.25	26
3310.04	25.5
3310.84	26
3311.64	28.5
3312.44	26
3313.23	23.5
3314.03	24
3314.83	26.5
3315.63	25
3316.42	21
3317.22	21.5
3318.02	23
3318.81	27.5
3319.61	22.5
3320.41	23
3321.2	27.5
3322	25.5
3322.8	23.5
3323.59	25
3324.39	24.5
3325.18	24
3325.98	25.5
3326.78	25
3327.57	20.5
3328.37	23.5
3329.16	24
3329.96	19
3330.75	23
3331.55	23
3332.34	26
3333.14	24.5
3333.93	26
3334.73	23.5
3335.52	20.5
3336.31	24
3337.11	20
3337.9	25.5
3338.7	22
3339.49	26.5
3340.28	25.5
3341.08	23
3341.87	23.5
3342.66	22
3343.46	25.5
3344.25	25
3345.04	23.5
3345.84	25.5
3346.63	25
3347.42	24
3348.22	25
3349.01	25
3349.8	27.5
3350.59	24
3351.39	27
3352.18	23
3352.97	23
3353.76	23.5
3354.55	24
3355.35	25
3356.14	26
3356.93	27
3357.72	23.5
3358.51	27
3359.3	24
3360.09	24.5
3360.88	22
3361.67	24
3362.46	21
3363.26	24
3364.05	22
3364.84	22.5
3365.63	27
3366.42	24
3367.21	27
3368	23.5
3368.79	25.5
3369.58	25
3370.37	22
3371.15	22
3371.94	25.5
3372.73	25
3373.52	29.5
3374.31	25.5
3375.1	24.5
3375.89	22.5
3376.68	24
3377.47	27
3378.26	21.5
3379.04	25.5
3379.83	19
3380.62	25.5
3381.41	24.5
3382.2	27
3382.98	26
3383.77	25.5
3384.56	22
3385.35	26
3386.13	23
3386.92	25
3387.71	26
3388.5	25.5
3389.28	26.5
3390.07	26.5
3390.86	29
3391.64	28.5
3392.43	24
3393.22	24.5
3394	26
3394.79	24
3395.57	26
3396.36	24
3397.15	29
3397.93	24.5
3398.72	20.5
3399.5	26
3400.29	23
3401.07	22
3401.86	26
3402.65	24.5
3403.43	27
3404.21	21
3405	23.5
3405.78	23.5
3406.57	24
3407.35	24
3408.14	24
3408.92	22
3409.71	25
3410.49	22.5
3411.27	24
3412.06	25
3412.84	23
3413.62	26
3414.41	25
3415.19	26
3415.97	24.5
3416.76	23
3417.54	24
3418.32	25.5
3419.11	24
3419.89	24.5
3420.67	24.5
3421.46	27.5
3422.24	24.5
3423.02	25.5
3423.8	20.5
3424.58	24.5
3425.37	26
3426.15	22.5
3426.93	23
3427.71	23.5
3428.49	25
3429.27	26.5
3430.05	21
3430.84	27.5
3431.62	22
3432.4	22.5
3433.18	25
3433.96	25
3434.74	22
3435.52	23
3436.3	26
3437.08	27
3437.86	27
3438.64	23
3439.42	23
3440.2	24
3440.98	22.5
3441.76	28.5
3442.54	24.5
3443.32	25.5
3444.1	26
3444.88	27
3445.66	21
3446.44	25
3447.22	29
3448	21
3448.77	27.5
3449.55	24.5
3450.33	24
3451.11	25.5
3451.89	25.5
3452.67	20.5
3453.45	24
3454.22	24
3455	26
3455.78	25.5
3456.56	23.5
3457.33	29
3458.11	18.5
3458.89	22
3459.67	26.5
3460.44	23
3461.22	27.5
3462	26.5
3462.77	22.5
3463.55	26
3464.33	22
3465.1	20.5
3465.88	27.5
3466.66	24.5
3467.43	24.5
3468.21	25.5
3468.98	24
3469.76	26.5
3470.54	25.5
3471.31	22.5
3472.09	21.5
3472.86	22
3473.64	22.5
3474.41	19.5
3475.19	27
3475.96	24.5
3476.74	21.5
3477.51	27
3478.29	28
3479.06	28
3479.84	29
3480.61	24.5
3481.39	22.5
3482.16	25
3482.93	23.5
3483.71	27.5
3484.48	23.5
3485.25	24
3486.03	25.5
3486.8	26
3487.57	27
3488.35	25
3489.12	25.5
3489.89	24.5
3490.67	26
3491.44	27.5
3492.21	27.5
3492.99	20
3493.76	22.5
3494.53	23.5
3495.3	21.5
3496.08	22
3496.85	28
3497.62	25
3498.39	25.5
3499.16	22.5
3499.93	22.5
