#Acq. time (s)=	5
#Accumulations=	5
#Range (cm-¹)=	100...3500
#Windows=	4
#Autofocus=	Off
#AutoExposure=	Off
#Spike filter=	Multiple accum.
#Delay time (s)=	0
#Binning=	1
#Readout mode=	Signal
#DeNoise=	Off
#ICS correction=	Off
#Dark correction=	Off
#Inst. Process=	Off
#Instrument=	LabRAM HR Evol
#Detector=	Syncerity OE
#Objective=	x100_VIS
#Grating=	600 (500nm)
#ND Filter=	25%
#Laser=	633nm_Edge
#Hole=	100.021
#Range=	Visible
#Project=	verificaciones
#Sample=	at5
#Site=	plain
#Title=	bolusat5plain
#Remark=	
#Date=	13.01.2026 19:28
#Acquired=	13.01.2026 19:28:04
100.692	24
101.975	31
103.258	33
104.542	29.5
105.824	28
107.107	29.5
108.39	31
109.672	26
110.954	31.5
112.236	30
113.519	34
114.8	26
116.081	31
117.362	31
118.643	32
119.924	28
121.204	29.5
122.484	27.5
123.764	31.5
125.044	28
126.323	33
127.603	30
128.882	31
130.161	32.5
131.438	36
132.716	30.5
133.995	38
135.273	33
136.55	32
137.828	33
139.106	32
140.383	36
141.66	35
142.937	35.5
144.213	36
145.488	37.5
146.764	34
148.04	38
149.316	40
150.592	37
151.867	38.5
153.141	37.5
154.416	36
155.69	38
156.965	32
158.239	38.5
159.512	39
160.786	38.5
162.059	38
163.333	39
164.605	36.5
165.878	36.5
167.15	33
168.423	37
169.694	33
170.966	39
172.238	34.5
173.51	36
174.78	37
176.052	32
177.323	39
178.592	39.5
179.863	37
181.134	39.5
182.403	38.5
183.673	40
184.943	37
186.211	39.5
187.481	39
188.749	40
190.018	34
191.287	40.5
192.554	41
193.822	40
195.089	38.5
196.357	39
197.625	34.5
198.891	35
200.159	38.5
201.425	30.5
202.692	38.5
203.957	35
205.224	34
206.489	34.5
207.755	31
209.02	34.5
210.286	37.5
211.55	31
212.815	35
214.079	32
215.344	32
216.607	31
217.872	32.5
219.135	32
220.399	34
221.662	32.5
222.924	34.5
224.187	32.5
225.449	30
226.713	32
227.974	33.5
229.235	33.5
230.498	32.5
231.759	30
233.019	34.5
234.281	29.5
235.542	31
236.802	33
238.063	28
239.323	25
240.582	28
241.843	30.5
243.102	29
244.361	26
245.621	26
246.879	27
248.138	25
249.396	28
250.655	30.5
251.913	28.5
253.17	32.5
254.427	26.5
255.686	27
256.943	28
258.199	26
259.456	29
260.712	28
261.969	27.5
263.225	27
264.481	26.5
265.736	29
266.991	27.5
268.246	23.5
269.502	30.5
270.757	30
272.011	27.5
273.265	29.5
274.519	25
275.773	29
277.027	26.5
278.28	25.5
279.533	29
280.786	25
282.04	26
283.293	30
284.545	25.5
285.798	30
287.049	28.5
288.301	29.5
289.553	25
290.804	26.5
292.055	30
293.306	28
294.557	29.5
295.807	28.5
297.058	28
298.308	31
299.558	27
300.808	29.5
302.057	30.5
303.305	30
304.554	26.5
305.803	31
307.052	27
308.3	27.5
309.549	31.5
310.797	26
312.045	27
313.292	26
314.54	33
315.786	28
317.033	28.5
318.28	28.5
319.526	30
320.773	27.5
322.019	30.5
323.264	28.5
324.51	26
325.755	26
327.001	27.5
328.246	23.5
329.49	25
330.735	31
331.979	30.5
333.224	28.5
334.467	31.5
335.711	29.5
336.955	30
338.199	29
339.441	24
340.684	30
341.927	28.5
343.168	27
344.411	28.5
345.654	25.5
346.895	27.5
348.137	24
349.379	29
350.619	27
351.86	22
353.102	30
354.341	31.5
355.582	23
356.821	28
358.062	28
359.302	27.5
360.541	23
361.781	30.5
363.019	27.5
364.259	30.5
365.496	25
366.736	25.5
367.974	28.5
369.212	31
370.45	27.5
371.687	27.5
372.925	27.5
374.162	27
375.399	32
376.635	25.5
377.873	24.5
379.109	29.5
380.344	27.5
381.581	29.5
382.816	31
384.052	29.5
385.287	26
386.523	28
387.757	27
388.991	26.5
390.227	27.5
391.46	26.5
392.695	26.5
393.928	30.5
395.162	24.5
396.396	26.5
397.629	28
398.861	25
400.095	28
401.327	30
402.559	29.5
403.792	27
405.024	25
406.255	30
407.488	27.5
408.719	30.5
409.949	25
411.18	27
412.412	25
413.642	22.5
414.872	30.5
416.102	26
417.333	24
418.562	25
419.791	29
421.02	27
422.249	28
423.479	27
424.707	27
425.935	27
427.163	25.5
428.391	26.5
429.619	29
430.848	28
432.075	28
433.302	28
434.529	27
435.755	28
436.982	29
438.208	25.5
439.434	26
440.66	28
441.885	28.5
443.111	30.5
444.338	24
445.563	30
446.788	28
448.012	32.5
449.237	28.5
450.461	29.5
451.685	31
452.909	27.5
454.133	25.5
455.356	29
456.579	26
457.802	30.5
459.025	27
460.247	32
461.469	28.5
462.691	30.5
463.914	33.5
465.136	30
466.357	32
467.579	32
468.8	33
470.021	31.5
471.242	34.5
472.462	36
473.682	36.5
474.903	36.5
476.123	36
477.343	43
478.563	42
479.782	40
481	43.5
482.219	47.5
483.438	45
484.657	53
485.874	50
487.093	49.5
488.311	54.5
489.529	50.5
490.747	52
491.963	55.5
493.181	50.5
494.398	48.5
495.614	50.5
496.83	46
498.047	45.5
499.264	43.5
500.479	41
501.695	42
502.911	42.5
504.125	34
505.34	37
506.554	36
507.769	37
508.984	34
510.198	35.5
511.412	31.5
512.627	29
513.839	31
515.053	34
516.266	35.5
517.479	30
518.691	31.5
519.905	31.5
521.118	31
522.329	29
523.542	30
524.753	29.5
525.965	32.5
527.176	27
528.388	33.5
529.598	32.5
530.809	31.5
532.019	32.5
533.23	28.5
534.44	32
535.649	27.5
536.86	28.5
538.068	29
539.279	30
540.487	27
541.697	33
542.905	34
544.113	20
545.322	25
546.53	29
547.737	29
548.946	26
550.153	28.5
551.361	30.5
552.568	29.5
553.774	28
554.982	26
556.188	27
557.394	23
558.599	32
559.806	25.5
561.012	28.5
562.217	30
563.423	31
564.628	23.5
565.832	26.5
567.036	28
568.241	27.5
569.446	27
570.65	27.5
571.853	28.5
573.057	30.5
574.26	29
575.464	28
576.667	31
577.87	23.5
579.072	27
580.274	30
581.477	26
582.68	26
583.881	29
585.083	28
586.284	27.5
587.485	29
588.686	29
589.887	26.5
591.087	31
592.288	28.5
593.488	28.5
594.688	25.5
595.888	27
597.087	25
598.287	29.5
599.486	26
600.685	28.5
601.884	27
603.082	26
604.281	28.5
605.479	25.5
606.677	30
607.875	32
609.073	28
610.27	30
611.468	28
612.665	31.5
613.862	28.5
615.058	30
616.255	30.5
617.451	31
618.648	28
619.842	28.5
621.038	29
622.234	27
623.429	31
624.624	26.5
625.819	29.5
627.013	29.5
628.207	28.5
629.402	29.5
630.596	27.5
631.79	30.5
632.983	27.5
634.177	27
635.37	28
636.564	28.5
637.755	26.5
638.948	27.5
640.141	31.5
641.334	28
642.525	28
643.717	31.5
644.909	30.5
646.099	28.5
647.291	27.5
648.483	25.5
649.674	29
650.864	30
652.055	27
653.244	27.5
654.435	27
655.625	30
656.814	30
658.004	28
659.193	28.5
660.382	28.5
661.571	27
662.759	31.5
663.948	26.5
665.135	29.5
666.324	29.5
667.511	30
668.7	29
669.886	29.5
671.074	24
672.262	29.5
673.448	25.5
674.634	35
675.821	32
677.007	27
678.194	30.5
679.379	35
680.565	34.5
681.75	34
682.936	32.5
684.121	34
685.305	35.5
686.491	34.5
687.675	31.5
688.86	32
690.043	33
691.227	32.5
692.411	35.5
693.594	38.5
694.777	35
695.961	33
697.144	35.5
698.326	35
699.509	34.5
700.691	36.5
701.873	43
703.056	41
704.237	38
705.419	45
706.599	44
707.782	45
708.962	51.5
710.143	49.5
711.323	44
712.504	42
713.684	39.5
714.864	34.5
716.043	37
717.223	35
718.403	31.5
719.582	27
720.761	28.5
721.94	29.5
723.118	28.5
724.296	27
725.474	26
726.652	29
727.831	25.5
729.009	31
730.186	29.5
731.363	29
732.54	29
733.717	26.5
734.893	30
736.07	25
737.246	27
738.422	27
739.598	29.5
740.773	28.5
741.949	27
743.124	29
744.299	26.5
745.474	29.5
746.649	31
747.823	30.5
748.997	30
750.172	26.5
751.346	26.5
752.519	28
753.693	25
754.867	27.5
756.038	28.5
757.211	26
758.384	27.5
759.557	25
760.73	28
761.902	25.5
763.074	30
764.246	29
765.417	30
766.588	26.5
767.76	31.5
768.931	29
770.102	28
771.271	28
772.442	29
773.613	25.5
774.783	29.5
775.952	27.5
777.122	30.5
778.291	28.5
779.461	29.5
780.629	30.5
781.798	30.5
782.967	30
784.135	32.5
785.304	33.5
786.472	28.5
787.639	31
788.807	27
789.975	32.5
791.142	30.5
792.309	31
793.477	33
794.642	29.5
795.81	26.5
796.975	29.5
798.142	31
799.308	28.5
800.473	24.5
801.639	28
802.804	29.5
803.97	27.5
805.134	25
806.299	28
807.463	29
808.628	24
809.792	30.5
810.957	24
812.12	28.5
813.284	30
814.447	29.5
815.611	24
816.773	24.5
817.937	30
819.099	30
820.261	23.5
821.424	28.5
822.585	29.5
823.748	30
824.909	27
826.07	30.5
827.232	29.5
828.393	26
829.554	29
830.715	24.5
831.875	30
833.035	30
834.196	26
835.356	26
836.515	24
837.676	29.5
838.835	25.5
839.994	25.5
841.152	25
842.312	29
843.47	25
844.629	28
845.786	28.5
846.946	27
848.103	26
849.261	28.5
850.418	28.5
851.575	27
852.733	28.5
853.89	29
855.046	28.5
856.203	28
857.359	29
858.515	31
859.67	28
860.827	28.5
861.983	29.5
863.138	29
864.293	31.5
865.448	26.5
866.603	26
867.757	30
868.912	31
870.066	28
871.22	31.5
872.374	34.5
873.527	28
874.681	32
875.834	26.5
876.987	26
878.14	29
879.293	27.5
880.445	29.5
881.598	30
882.75	26.5
883.902	27
885.054	30.5
886.206	27
887.357	26
888.507	28.5
889.658	24
890.809	26
891.96	25
893.111	28
894.261	28
895.411	32
896.561	23
897.71	24.5
898.86	29
900.009	29.5
901.159	27
902.308	28.5
903.455	26
904.604	28.5
905.753	25.5
906.901	24.5
908.048	26
909.197	27
910.344	28
911.492	29
912.639	26
913.786	24.5
914.933	25.5
916.079	24
917.226	25.5
918.373	25
919.518	26
920.664	25
921.81	26.5
922.955	24
924.101	27.5
925.245	29
926.391	27
927.536	28.5
928.68	29
929.825	29.5
930.968	25.5
932.113	25.5
933.256	24.5
934.4	28.5
935.543	24.5
936.687	21
937.83	24.5
938.973	28
940.115	24.5
941.258	30
942.399	23.5
943.542	26
944.684	25.5
945.826	28.5
946.967	23
948.109	25.5
949.25	30.5
950.392	27.5
951.532	23.5
952.672	26
953.813	25
954.953	27.5
956.093	23.5
957.233	23.5
958.373	27
959.512	26
960.652	24
961.791	24.5
962.929	27
964.069	25
965.207	27
966.345	26.5
967.484	22
968.622	26
969.759	24.5
970.896	26.5
972.035	28
973.172	27.5
974.309	29.5
975.445	24
976.582	27.5
977.719	26
978.855	30
979.991	26.5
981.127	25.5
982.263	31
983.398	21.5
984.535	27.5
985.67	26
986.804	26
987.939	29
989.074	24.5
990.208	22
991.342	25
992.476	23.5
993.61	29
994.744	29
995.877	26.5
997.01	25.5
998.143	23
999.276	26.5
1000.41	27
1001.54	24
1002.67	29
1003.81	24.5
1004.94	27
1006.07	26
1007.2	22
1008.33	27
1009.47	24
1010.6	27.5
1011.73	25.5
1012.86	23.5
1013.99	29
1015.12	23.5
1016.25	27.5
1017.38	23
1018.51	23.5
1019.64	23.5
1020.77	27
1021.9	27
1023.03	28.5
1024.15	24
1025.28	28
1026.41	28.5
1027.54	26
1028.67	24.5
1029.8	24.5
1030.92	26.5
1032.05	29.5
1033.18	25
1034.31	28.5
1035.43	25
1036.56	27.5
1037.69	26
1038.81	26.5
1039.94	27.5
1041.07	25.5
1042.19	25
1043.32	26.5
1044.44	27
1045.57	24.5
1046.69	28
1047.82	24.5
1048.94	29
1050.07	27
1051.19	26.5
1052.32	26.5
1053.44	24.5
1054.57	21.5
1055.69	27
1056.81	31
1057.94	25.5
1059.06	27
1060.18	22
1061.31	25
1062.43	28
1063.55	27
1064.67	23.5
1065.8	24.5
1066.92	27
1068.04	23.5
1069.16	27
1070.28	25
1071.4	29
1072.52	26
1073.64	25.5
1074.76	28
1075.89	27.5
1077.01	25
1078.13	25
1079.25	24
1080.37	27.5
1081.49	22
1082.6	28
1083.72	25.5
1084.84	24.5
1085.96	26.5
1087.08	28
1088.2	23.5
1089.32	27.5
1090.43	25
1091.55	20
1092.67	22
1093.79	27
1094.91	29
1096.02	22.5
1097.14	27
1098.26	27.5
1099.37	23.5
1100.49	25.5
1101.61	25.5
1102.72	25
1103.84	23
1104.95	23
1106.07	24
1107.18	24.5
1108.3	26
1109.41	22
1110.53	23
1111.64	29
1112.76	27
1113.87	27
1114.99	23
1116.1	25.5
1117.21	25
1118.33	24
1119.44	20.5
1120.55	27
1121.67	26
1122.78	27
1123.89	23
1125	24
1126.12	24.5
1127.23	24.5
1128.34	26
1129.45	25
1130.56	26.5
1131.68	23
1132.79	25.5
1133.9	23
1135.01	22.5
1136.12	24
1137.23	25
1138.34	23
1139.45	25.5
1140.56	27.5
1141.67	26
1142.78	25
1143.89	25
1145	23
1146.11	24.5
1147.22	27
1148.32	23
1149.43	29.5
1150.54	25
1151.65	26.5
1152.76	21.5
1153.86	23
1154.97	27.5
1156.08	23
1157.19	26.5
1158.29	24.5
1159.4	28
1160.51	21.5
1161.61	24
1162.72	23.5
1163.83	24
1164.93	25.5
1166.04	22.5
1167.14	22
1168.25	24.5
1169.35	26.5
1170.46	25.5
1171.56	24.5
1172.67	27.5
1173.77	26.5
1174.88	25
1175.98	23
1177.08	22
1178.19	29.5
1179.29	24.5
1180.4	21.5
1181.5	26
1182.6	26.5
1183.71	27
1184.81	25
1185.91	25
1187.01	24.5
1188.12	25.5
1189.22	22.5
1190.32	24
1191.42	25.5
1192.52	22
1193.62	21
1194.72	23.4884
1195.83	24.8964
1196.93	20.6117
1198.03	24.0138
1199.13	26.2416
1200.23	24.425
1201.33	23.4942
1202.43	26.7677
1203.53	24.6752
1204.63	24.3155
1205.73	23.8725
1206.83	25.8311
1207.92	26.5607
1209.02	21.7864
1210.12	27.4089
1211.22	23.8119
1212.32	25.5525
1213.42	24.8698
1214.51	25.3829
1215.61	23.4169
1216.71	27.1864
1217.81	24.5666
1218.9	25.6723
1220	25.984
1221.1	25.8695
1222.19	20.7379
1223.29	24.7908
1224.39	25.0882
1225.48	23.5337
1226.58	26.0704
1227.68	23.6132
1228.77	25.9395
1229.87	25.0921
1230.96	27.2881
1232.06	24.3166
1233.15	22.5391
1234.25	25.0075
1235.34	25.1621
1236.43	22.4285
1237.53	23.8238
1238.62	25.6112
1239.72	25.205
1240.81	26.2857
1241.9	23.9258
1243	24.6442
1244.09	24.9552
1245.18	26.0419
1246.27	23.8634
1247.37	24.2529
1248.46	24.4949
1249.55	25.997
1250.64	24.9847
1251.74	23.0609
1252.83	22.9508
1253.92	26.4453
1255.01	26.0546
1256.1	27.6468
1257.19	25.7712
1258.28	25.3335
1259.38	27.0175
1260.46	25.317
1261.56	23.7551
1262.65	25.401
1263.74	26.0892
1264.82	26.1197
1265.91	26.4371
1267	25.7441
1268.09	24.3987
1269.18	25.5511
1270.27	23.7287
1271.36	22.6997
1272.45	24.7772
1273.54	25.009
1274.63	23.633
1275.71	26.5133
1276.8	25.4055
1277.89	24.6856
1278.98	23.8811
1280.06	23.7805
1281.15	23.8274
1282.24	24.0215
1283.32	21.726
1284.41	23.1942
1285.5	24.0258
1286.58	26.065
1287.67	25.8302
1288.76	23.3452
1289.84	26.2203
1290.93	25.3214
1292.01	23.163
1293.1	24.2918
1294.18	20.5418
1295.27	19.9326
1296.35	24.7955
1297.44	28.8111
1298.52	28.4435
1299.6	24.4566
1300.69	22.7819
1301.77	24.7498
1302.86	24.2685
1303.94	23.2051
1305.02	24.4399
1306.11	26.072
1306.41	26.5
1307.5	19.5
1308.59	26
1309.68	29
1310.77	25
1311.85	23.5
1312.94	27
1314.03	22.5
1315.11	25.5
1316.2	25.5
1317.29	24
1318.37	27
1319.46	21
1320.55	23
1321.63	27.5
1322.72	25
1323.8	25.5
1324.89	24.5
1325.98	25
1327.06	25.5
1328.15	26
1329.23	28.5
1330.31	22
1331.4	24
1332.48	27.5
1333.57	25
1334.65	25.5
1335.74	25
1336.82	28
1337.9	24
1338.99	27
1340.07	26
1341.15	27
1342.24	23
1343.32	25.5
1344.4	25
1345.48	23
1346.56	23.5
1347.65	20.5
1348.73	24
1349.81	25.5
1350.89	22.5
1351.97	23.5
1353.05	24
1354.13	29
1355.21	22
1356.29	26
1357.37	24.5
1358.46	24.5
1359.54	25
1360.62	26
1361.69	21
1362.77	27
1363.85	23.5
1364.93	26
1366.01	24
1367.09	28
1368.17	25
1369.25	25
1370.33	27.5
1371.41	29
1372.48	22
1373.56	25
1374.64	22.5
1375.72	24
1376.79	26.5
1377.87	27
1378.95	21
1380.02	26.5
1381.1	30
1382.18	27
1383.25	26.5
1384.33	26
1385.4	25
1386.48	26.5
1387.56	30
1388.63	26.5
1389.71	26
1390.78	25.5
1391.86	25
1392.93	25
1394.01	24
1395.08	25
1396.15	27
1397.23	28
1398.3	27.5
1399.38	25.5
1400.45	30
1401.52	26
1402.6	33.5
1403.67	25
1404.74	29.5
1405.81	29.5
1406.89	28.5
1407.96	30.5
1409.03	29
1410.1	30
1411.17	29
1412.25	29
1413.32	28
1414.39	34.5
1415.46	29
1416.53	30
1417.6	29
1418.67	29
1419.74	28
1420.81	24.5
1421.88	27.5
1422.95	24
1424.02	24
1425.09	29
1426.16	27.5
1427.23	27.5
1428.3	26.5
1429.37	22.5
1430.44	27
1431.51	27.5
1432.58	24.5
1433.64	26
1434.71	25
1435.78	26
1436.85	28
1437.92	25.5
1438.98	26.5
1440.05	24.5
1441.12	28
1442.18	30
1443.25	28
1444.32	25.5
1445.38	25.5
1446.45	26.5
1447.52	25.5
1448.58	25.5
1449.65	24
1450.71	31
1451.78	28
1452.84	25.5
1453.91	24.5
1454.97	26
1456.04	26
1457.1	26.5
1458.17	22.5
1459.23	23.5
1460.3	29.5
1461.36	25.5
1462.42	22.5
1463.49	24.5
1464.55	29
1465.61	25
1466.68	27.5
1467.74	25
1468.8	24.5
1469.86	25.5
1470.93	25.5
1471.99	26.5
1473.05	28.5
1474.11	24.5
1475.17	22
1476.24	30
1477.3	25
1478.36	25.5
1479.42	27.5
1480.48	26
1481.54	26
1482.6	27
1483.66	32
1484.72	25.5
1485.78	25.5
1486.84	24
1487.9	24.5
1488.96	27
1490.02	25
1491.08	26
1492.14	25
1493.2	28
1494.26	28.5
1495.31	28
1496.37	25.5
1497.43	23
1498.49	28.5
1499.55	26
1500.6	23.5
1501.66	23.5
1502.72	27
1503.78	23.5
1504.83	27
1505.89	24.5
1506.95	27
1508	23.5
1509.06	24.5
1510.12	26.5
1511.17	27.5
1512.23	24
1513.28	25.5
1514.34	26
1515.39	25.5
1516.45	25
1517.5	25
1518.56	22
1519.61	28
1520.67	24
1521.72	26
1522.78	28.5
1523.83	23.5
1524.88	28.5
1525.94	27
1526.99	29
1528.05	21.5
1529.1	26
1530.15	24.5
1531.2	27.5
1532.26	28.5
1533.31	24.5
1534.36	26
1535.41	26.5
1536.47	28
1537.52	26
1538.57	28
1539.62	26.5
1540.67	25.5
1541.72	24.5
1542.77	23
1543.83	26.5
1544.88	33
1545.93	26.5
1546.98	26.5
1548.03	27
1549.08	28
1550.13	26.5
1551.18	29
1552.23	26.5
1553.28	27
1554.32	23
1555.37	23
1556.42	26.5
1557.47	24
1558.52	22
1559.57	22.5
1560.62	28.5
1561.67	24.5
1562.71	24.5
1563.76	24
1564.81	22
1565.86	25.5
1566.9	27
1567.95	29
1569	22.5
1570.04	27
1571.09	25
1572.14	24.5
1573.18	27.5
1574.23	23
1575.27	26.5
1576.32	28
1577.37	29
1578.41	26.5
1579.46	26.5
1580.5	26.5
1581.55	27
1582.59	25
1583.64	26
1584.68	25
1585.72	25
1586.77	24
1587.81	26.5
1588.86	27
1589.9	24.5
1590.94	22.5
1591.99	21
1593.03	27
1594.07	23.5
1595.12	24
1596.16	22
1597.2	25.5
1598.24	26
1599.29	28.5
1600.33	28
1601.37	23.5
1602.41	26
1603.45	24
1604.49	25
1605.53	28
1606.58	26.5
1607.62	27
1608.66	23.5
1609.7	28.5
1610.74	24
1611.78	27
1612.82	22.5
1613.86	23
1614.9	24
1615.94	25.5
1616.98	24.5
1618.02	27.5
1619.06	25
1620.09	25
1621.13	26
1622.17	23.5
1623.21	26
1624.25	26.5
1625.29	27
1626.32	25
1627.36	24
1628.4	24
1629.44	23
1630.47	22
1631.51	21.5
1632.55	26.5
1633.58	24
1634.62	20.5
1635.66	23
1636.69	26
1637.73	25
1638.77	27
1639.8	27
1640.84	26
1641.87	27.5
1642.91	24.5
1643.94	24
1644.98	25
1646.01	30
1647.05	24
1648.08	23.5
1649.12	24.5
1650.15	26.5
1651.18	25
1652.22	28.5
1653.25	28.5
1654.29	27.5
1655.32	29
1656.35	25.5
1657.39	27
1658.42	25.5
1659.45	21.5
1660.48	28.5
1661.52	26.5
1662.55	22.5
1663.58	25.5
1664.61	24
1665.64	24.5
1666.68	27.5
1667.71	27
1668.74	26
1669.77	26
1670.8	25
1671.83	26.5
1672.86	25
1673.89	21
1674.92	24
1675.95	26.5
1676.98	27
1678.01	27.5
1679.04	25
1680.07	26
1681.1	23
1682.13	25.5
1683.16	21
1684.19	24.5
1685.22	21
1686.25	27
1687.27	28
1688.3	26
1689.33	24.5
1690.36	24
1691.38	25
1692.41	24
1693.44	27.5
1694.47	25.5
1695.49	21.5
1696.52	22
1697.55	27
1698.57	26
1699.6	24.5
1700.63	26.5
1701.65	26
1702.68	24
1703.7	27
1704.73	26
1705.76	20.5
1706.78	24
1707.81	27.5
1708.83	29
1709.86	26.5
1710.88	25
1711.91	25.5
1712.93	24
1713.95	24
1714.98	25.5
1716	25
1717.03	24.5
1718.05	29
1719.07	22.5
1720.1	24.5
1721.12	23
1722.14	25
1723.16	22.5
1724.19	27.5
1725.21	31
1726.23	26
1727.25	26.5
1728.28	25.5
1729.3	26
1730.32	29
1731.34	25.5
1732.36	25
1733.38	22.5
1734.41	24.5
1735.43	27
1736.45	22
1737.47	26
1738.49	28
1739.51	30
1740.53	25
1741.55	26
1742.57	22
1743.59	26
1744.61	24.5
1745.63	26.5
1746.64	23
1747.66	25
1748.68	23
1749.7	25
1750.72	27.5
1751.74	26
1752.76	24.5
1753.77	26
1754.79	23
1755.81	25.5
1756.83	27
1757.84	24.5
1758.86	22
1759.88	25
1760.9	23
1761.91	23
1762.93	25.5
1763.95	25.5
1764.96	21
1765.98	25.5
1766.99	26
1768.01	29
1769.02	24.5
1770.04	27
1771.06	27
1772.07	28.5
1773.09	26.5
1774.1	25.5
1775.12	27.5
1776.13	26
1777.14	26.5
1778.16	22
1779.17	25.5
1780.19	24
1781.2	24.5
1782.21	27.5
1783.23	26.5
1784.24	23
1785.25	22.5
1786.27	27
1787.28	23.5
1788.29	23
1789.3	25
1790.32	24.5
1791.33	29.5
1792.34	26
1793.35	25.5
1794.36	26
1795.38	30.5
1796.39	25
1797.4	22
1798.41	24
1799.42	25.5
1800.43	28
1801.44	26.5
1802.45	24.5
1803.46	24
1804.47	23.5
1805.48	26.5
1806.49	27.5
1807.5	26
1808.51	24.5
1809.52	27
1810.53	28.5
1811.54	25
1812.55	23
1813.56	27
1814.57	28.5
1815.57	26
1816.58	23.5
1817.59	26
1818.6	25.5
1819.61	28
1820.61	25
1821.62	23
1822.63	26
1823.64	23
1824.64	22
1825.65	24.5
1826.66	24
1827.66	27
1828.67	23.5
1829.68	27.5
1830.68	25
1831.69	22.5
1832.69	26.5
1833.7	29
1834.7	25
1835.71	23
1836.71	27
1837.72	22
1838.72	25
1839.73	24.5
1840.73	24
1841.74	26.5
1842.74	26.5
1843.75	24.5
1844.75	20.5
1845.75	23
1846.76	28
1847.76	25.5
1848.76	23.5
1849.77	22
1850.77	23.5
1851.77	28.5
1852.78	24.5
1853.78	25.5
1854.78	28.5
1855.78	26
1856.78	25
1857.79	25.5
1858.79	24.5
1859.79	23.5
1860.79	25.5
1861.79	27.5
1862.79	20.5
1863.79	25.5
1864.79	27
1865.79	27
1866.8	27.5
1867.8	27
1868.8	27
1869.8	27.5
1870.8	29.5
1871.8	27
1872.8	26
1873.79	24
1874.79	23.5
1875.79	26
1876.79	22
1877.79	21.5
1878.79	22.5
1879.79	24
1880.79	23
1881.78	23.5
1882.78	25
1883.78	27
1884.78	24.5
1885.77	24.5
1886.77	24.5
1887.77	23.5
1888.77	24.5
1889.76	27
1890.76	27.5
1891.76	24.5
1892.75	23
1893.75	24
1894.75	27.5
1895.74	23.5
1896.74	24
1897.73	21
1898.73	30
1899.73	24
1900.72	24.5
1901.72	25.5
1902.71	25
1903.7	24
1904.7	25
1905.69	21.5
1906.69	27.5
1907.68	25
1908.68	24.5
1909.67	22
1910.66	21
1911.66	27
1912.65	23
1913.64	23
1914.64	26.5
1915.63	26
1916.62	26.5
1917.62	24.5
1918.61	25.5
1919.6	26
1920.59	21.5
1921.58	26.5
1922.58	24
1923.57	23.5
1924.56	24
1925.55	22.5
1926.54	28
1927.53	25.5
1928.52	24.5
1929.51	24
1930.51	25
1931.5	28.5
1932.49	24.5
1933.48	26
1934.47	22
1935.46	21
1936.45	24.5
1937.44	26.5
1938.42	27.5
1939.41	22.5
1940.4	28
1941.39	24
1942.38	24.5
1943.37	28
1944.36	22
1945.35	24.5
1946.33	23.5
1947.32	23
1948.31	26
1949.3	28
1950.29	25
1951.27	22.5
1952.26	24.5
1953.25	26
1954.23	25
1955.22	24.5
1956.21	23.5
1957.19	26.5
1958.18	26.5
1959.17	25
1960.15	29
1961.14	27.5
1962.13	23.5
1963.11	26.5
1964.1	24
1965.08	24
1966.07	25.5
1967.05	23
1968.04	25
1969.02	29
1970.01	24
1970.99	23
1971.97	25
1972.96	24
1973.94	21
1974.93	24.5
1975.91	25
1976.89	22.5
1977.88	22.5
1978.86	27.5
1979.84	24.5
1980.83	25
1981.81	23
1982.79	22.5
1983.77	25
1984.76	27
1985.74	24
1986.72	24
1987.7	21.5
1988.68	25.5
1989.67	26
1990.65	24
1991.63	23
1992.61	26
1993.59	26.5
1994.57	27
1995.55	28
1996.53	24.5
1997.51	26
1998.49	22
1999.47	25
2000.45	26.5
2001.43	25.5
2002.41	24.5
2003.39	24
2004.37	24.5
2005.35	23.5
2006.33	29.5
2007.31	25.5
2008.29	22.5
2009.26	23.5
2010.24	24.5
2011.22	24.5
2012.2	24
2013.18	25.5
2014.15	29
2015.13	24
2016.11	22
2017.09	23
2018.06	24
2019.04	22
2020.02	27
2021	24
2021.97	27.5
2022.95	25.5
2023.92	26
2024.9	26.5
2025.88	24.5
2026.85	29.5
2027.83	23.5
2028.8	22
2029.78	26
2030.75	23
2031.73	26.5
2032.7	24.5
2033.68	23
2034.65	18
2035.63	24.5
2036.6	25
2037.58	25.5
2038.55	26.5
2039.52	26
2040.5	22
2041.47	24.5
2042.45	27
2043.42	24
2044.39	23.5
2045.36	21
2046.34	24.5
2047.31	28
2048.28	26.5
2049.26	21
2050.23	25
2051.2	26.5
2052.17	23.5
2053.14	26
2054.12	25
2055.09	26.5
2056.06	23
2057.03	21.5
2058	26.5
2058.97	26.5
2059.94	23.5
2060.91	24
2061.88	29
2062.85	26
2063.82	21
2064.79	28
2065.76	23.5
2066.73	26
2067.7	26
2068.67	25.5
2069.64	25.5
2070.61	23
2071.58	23
2072.55	23
2073.52	24.5
2074.49	27
2075.45	24
2076.42	26.5
2077.39	26
2078.36	20.5
2079.33	23
2080.29	28
2081.26	26
2082.23	21
2083.2	21
2084.16	25
2085.13	22
2086.1	25.5
2087.06	25.5
2088.03	24
2089	26
2089.96	27.5
2090.93	21.5
2091.89	23.5
2092.86	23
2093.83	20.5
2094.79	24.5
2095.76	22
2096.72	22.5
2097.69	24.5
2098.65	23
2099.62	25.5
2100.58	24.5
2101.55	23.5
2102.51	21
2103.47	21
2104.44	21
2105.4	20
2106.36	25
2107.33	28
2108.29	24.5
2109.25	23.5
2110.22	21
2111.18	24
2112.14	26
2113.11	24.5
2114.07	24.5
2115.03	22
2115.99	27
2116.96	27
2117.92	24.5
2118.88	24
2119.84	25
2120.8	26
2121.76	23
2122.72	25
2123.68	26
2124.65	21
2125.61	20.5
2126.57	24
2127.53	24.5
2128.49	22.5
2129.45	24
2130.41	25
2131.37	20
2132.33	25.5
2133.29	22.5
2134.25	25
2135.21	26.5
2136.17	25
2137.12	20.5
2138.08	25
2139.04	23
2140	25
2140.96	24
2141.92	22
2142.88	25.9771
2143.83	23.9488
2144.79	24.0127
2145.75	27.5064
2146.71	24.0191
2147.66	24.3746
2148.62	23.0065
2149.58	24.7363
2150.53	22.6136
2151.49	24.3966
2152.45	23.9701
2153.4	23.3221
2154.36	26.2822
2155.32	22.0725
2156.27	17.5805
2157.23	25.1238
2158.19	24.0618
2159.14	24.1753
2160.1	25.2401
2161.05	20.3342
2162.01	22.6039
2162.96	23.3549
2163.92	24.4539
2164.87	22.5194
2165.83	22.6386
2166.78	23.0447
2167.73	22.5742
2168.69	21.5193
2169.64	23.845
2170.6	26.1934
2171.55	27.3437
2172.5	25.3514
2173.46	23.186
2174.41	23.0635
2175.36	24.9735
2176.32	20.3031
2177.27	23.1154
2178.22	23.0625
2179.18	23.6591
2180.13	22.7738
2181.08	22.7638
2182.03	22.1044
2182.98	23.6028
2183.94	24.0342
2184.89	22.8796
2185.84	23.8635
2186.79	24.5363
2187.74	23.8267
2188.69	25.7354
2189.64	23.8285
2190.6	21.2633
2191.55	21.0517
2192.5	24.4868
2193.45	24.4325
2194.4	23.8973
2195.35	24.6898
2196.3	23.5019
2197.25	24.998
2198.2	23.1214
2199.15	24.2858
2200.1	21.7621
2201.04	22.0355
2201.99	24.8358
2202.94	24.3699
2203.89	21.5537
2204.84	22.0105
2205.79	25.5089
2206.74	24.191
2207.69	24.5642
2208.63	22.6199
2209.58	21.094
2210.53	21.9175
2211.48	21.324
2212.43	25.9096
2213.37	22.8627
2214.32	22.1041
2215.27	21.9485
2216.21	21.8616
2217.16	23.9008
2218.11	23.6845
2219.05	22.2196
2220	24.23
2220.95	21.5204
2221.89	23.2904
2222.84	25.483
2223.78	24.4366
2224.73	24.2568
2225.68	23.7926
2226.62	23.8595
2227.57	24.4274
2228.51	24.5
2229.46	22.959
2230.4	23.3568
2231.35	21.8943
2232.29	25.4115
2233.24	22.0673
2234.18	23.2379
2235.12	22.8508
2236.07	23.2285
2237.01	21.1522
2237.95	23.5375
2238.9	25.2289
2239.84	25.1003
2240.06	25
2241.01	22.5
2241.96	24
2242.91	22.5
2243.86	23.5
2244.8	20
2245.75	20
2246.7	21.5
2247.65	23
2248.59	25.5
2249.54	21.5
2250.49	25
2251.43	22.5
2252.38	18.5
2253.33	24.5
2254.27	26
2255.22	21.5
2256.16	29
2257.11	24.5
2258.06	24
2259	24
2259.95	25
2260.89	24.5
2261.84	23
2262.78	23.5
2263.73	26
2264.67	28.5
2265.62	27
2266.56	24
2267.5	24
2268.45	26.5
2269.39	23.5
2270.34	25.5
2271.28	28.5
2272.22	24
2273.17	24
2274.11	25
2275.05	18.5
2276	28.5
2276.94	25
2277.88	26
2278.82	26.5
2279.77	25
2280.71	26
2281.65	25.5
2282.59	21.5
2283.53	21.5
2284.48	21
2285.42	24
2286.36	26
2287.3	19.5
2288.24	22
2289.18	21
2290.12	21
2291.06	23
2292	19.5
2292.94	25.5
2293.89	23
2294.83	24
2295.77	20.5
2296.71	20.5
2297.65	20
2298.58	26
2299.52	24
2300.46	21
2301.4	23
2302.34	22
2303.28	27
2304.22	23
2305.16	25
2306.1	24
2307.03	19.5
2307.97	22.5
2308.91	21.5
2309.85	22
2310.79	21
2311.72	23.5
2312.66	24
2313.6	22.5
2314.54	20.5
2315.47	23
2316.41	24
2317.35	24.5
2318.28	24.5
2319.22	25
2320.16	21
2321.09	22.5
2322.03	26
2322.96	22.5
2323.9	25
2324.84	23
2325.77	26
2326.71	25.5
2327.64	23.5
2328.58	23
2329.51	26.5
2330.45	24.5
2331.38	22
2332.32	26
2333.25	25
2334.18	26
2335.12	29
2336.05	25.5
2336.99	26
2337.92	21
2338.85	27.5
2339.79	21.5
2340.72	25
2341.65	21
2342.59	24
2343.52	27
2344.45	27.5
2345.39	27.5
2346.32	25.5
2347.25	24.5
2348.18	22.5
2349.11	25.5
2350.05	26
2350.98	24.5
2351.91	25
2352.84	23.5
2353.77	25.5
2354.7	25
2355.64	24.5
2356.57	26
2357.5	24.5
2358.43	25
2359.36	21.5
2360.29	23
2361.22	24
2362.15	26.5
2363.08	22.5
2364.01	23
2364.94	26
2365.87	25
2366.8	24
2367.73	26
2368.66	27.5
2369.58	22
2370.51	25
2371.44	25
2372.37	24.5
2373.3	24
2374.23	25
2375.16	22.5
2376.08	26
2377.01	25.5
2377.94	26.5
2378.87	24.5
2379.8	22
2380.72	27
2381.65	22
2382.58	22.5
2383.5	21
2384.43	25
2385.36	25.5
2386.28	26
2387.21	22
2388.14	23
2389.06	26
2389.99	26.5
2390.91	24
2391.84	25
2392.77	23
2393.69	26
2394.62	27
2395.54	25.5
2396.47	25.5
2397.39	26.5
2398.32	25.5
2399.24	23.5
2400.16	24
2401.09	24
2402.01	24
2402.94	26.5
2403.86	26.5
2404.78	26.5
2405.71	25.5
2406.63	25
2407.56	25.5
2408.48	24
2409.4	27.5
2410.32	25
2411.25	26.5
2412.17	26.5
2413.09	22
2414.02	25
2414.94	25
2415.86	24
2416.78	30
2417.7	20
2418.63	25.5
2419.55	24.5
2420.47	21.5
2421.39	26
2422.31	26
2423.23	22
2424.15	25
2425.07	20
2425.99	20.5
2426.92	25.5
2427.84	24
2428.76	24
2429.68	26
2430.59	24.5
2431.51	21.5
2432.43	26
2433.35	20.5
2434.27	24
2435.19	25.5
2436.11	27.5
2437.03	27
2437.95	26
2438.87	23
2439.79	27
2440.71	24.5
2441.62	25.5
2442.54	23
2443.46	25.5
2444.38	26
2445.3	25.5
2446.21	26
2447.13	23
2448.05	24
2448.97	23.5
2449.88	23.5
2450.8	28
2451.72	23
2452.63	25
2453.55	25.5
2454.47	26
2455.38	24.5
2456.3	27.5
2457.21	24
2458.13	24
2459.05	24
2459.96	21.5
2460.88	25.5
2461.79	20.5
2462.71	29
2463.62	24
2464.54	28
2465.45	27.5
2466.37	24.5
2467.28	23.5
2468.2	24.5
2469.11	27
2470.02	23.5
2470.94	24.5
2471.85	26
2472.77	25.5
2473.68	25
2474.59	23.5
2475.51	24.5
2476.42	26.5
2477.33	25
2478.25	26
2479.16	26
2480.07	27
2480.98	28
2481.9	24.5
2482.81	25
2483.72	25.5
2484.63	27
2485.55	26
2486.46	27.5
2487.37	20.5
2488.28	24
2489.19	26.5
2490.1	23.5
2491.01	25.5
2491.92	26.5
2492.83	25.5
2493.74	25
2494.66	24.5
2495.57	26.5
2496.48	25.5
2497.39	25.5
2498.3	24
2499.21	28.5
2500.12	24.5
2501.03	25.5
2501.93	27
2502.84	23
2503.75	23.5
2504.66	27
2505.57	23
2506.48	27
2507.39	24
2508.3	23
2509.21	26
2510.11	23
2511.02	28.5
2511.93	23.5
2512.84	24.5
2513.75	23
2514.65	24.5
2515.56	25
2516.47	21
2517.37	22.5
2518.28	23.5
2519.19	20
2520.09	24
2521	24
2521.91	22.5
2522.81	28
2523.72	24.5
2524.63	24
2525.53	24
2526.44	24.5
2527.34	22
2528.25	26
2529.16	26
2530.06	26.5
2530.97	26
2531.87	24
2532.78	26.5
2533.68	23
2534.58	26
2535.49	20
2536.39	26
2537.3	23.5
2538.2	27
2539.11	21
2540.01	25
2540.91	26.5
2541.82	22.5
2542.72	23
2543.62	25.5
2544.53	24.5
2545.43	26.5
2546.33	28
2547.23	24
2548.14	23.5
2549.04	27
2549.94	23.5
2550.84	28
2551.75	29
2552.65	24
2553.55	24
2554.45	23
2555.35	22.5
2556.26	29
2557.16	20
2558.06	27
2558.96	26
2559.86	23.5
2560.76	27
2561.66	22.5
2562.56	24.5
2563.46	27.5
2564.36	23
2565.26	28
2566.16	25.5
2567.06	25
2567.96	29
2568.86	25.5
2569.76	23
2570.66	25.5
2571.56	30
2572.46	27
2573.36	21
2574.26	26
2575.16	25
2576.05	26
2576.95	27
2577.85	26
2578.75	28.5
2579.65	27
2580.54	23
2581.44	24
2582.34	26
2583.24	21
2584.13	24
2585.03	25
2585.93	26
2586.83	26
2587.72	26.5
2588.62	19
2589.52	26
2590.41	24
2591.31	21.5
2592.2	25
2593.1	25
2594	20.5
2594.89	24
2595.79	24
2596.68	24
2597.58	29
2598.47	24.5
2599.37	24
2600.26	27.5
2601.16	23.5
2602.05	28.5
2602.95	22.5
2603.84	23.5
2604.74	21
2605.63	24
2606.52	28.5
2607.42	28
2608.31	26.5
2609.21	25.5
2610.1	24
2610.99	26
2611.89	26
2612.78	25
2613.67	20.5
2614.56	26
2615.46	22
2616.35	27.5
2617.24	21.5
2618.13	26.5
2619.03	26
2619.92	25.5
2620.81	24.5
2621.7	23.5
2622.59	22
2623.49	27.5
2624.38	23.5
2625.27	22.5
2626.16	25
2627.05	24.5
2627.94	25.5
2628.83	19.5
2629.72	23
2630.61	22.5
2631.5	25.5
2632.39	26
2633.28	27
2634.17	23
2635.06	25.5
2635.95	25
2636.84	24.5
2637.73	22
2638.62	23
2639.51	23.5
2640.4	26.5
2641.29	20
2642.18	26
2643.07	26.5
2643.96	26
2644.84	24
2645.73	24
2646.62	23.5
2647.51	24.5
2648.4	26.5
2649.28	25
2650.17	28
2651.06	26.5
2651.95	20
2652.83	25.5
2653.72	27.5
2654.61	21.5
2655.49	20
2656.38	24
2657.27	28
2658.16	21.5
2659.04	22.5
2659.93	24.5
2660.81	27
2661.7	26.5
2662.59	26.5
2663.47	28
2664.36	22.5
2665.24	23
2666.13	25.5
2667.01	29.5
2667.9	23.5
2668.78	25.5
2669.67	26.5
2670.55	25.5
2671.44	25.5
2672.32	23.5
2673.21	26
2674.09	27
2674.97	26
2675.86	21
2676.74	22.5
2677.62	24.5
2678.51	27
2679.39	28
2680.27	25
2681.16	24.5
2682.04	24.5
2682.92	26
2683.81	26.5
2684.69	29
2685.57	26
2686.45	23
2687.34	25
2688.22	23
2689.1	25.5
2689.98	23.5
2690.86	22.5
2691.75	24
2692.63	22.5
2693.51	22.5
2694.39	25.5
2695.27	23
2696.15	24.5
2697.03	25
2697.91	23.5
2698.79	24
2699.67	26.5
2700.55	23.5
2701.43	24
2702.31	25.5
2703.19	25.5
2704.07	21.5
2704.95	23
2705.83	24
2706.71	26
2707.59	26
2708.47	25
2709.35	26.5
2710.23	23.5
2711.11	24.5
2711.99	24
2712.86	29.5
2713.74	28
2714.62	22.5
2715.5	24.5
2716.38	23
2717.26	23
2718.13	25.5
2719.01	27
2719.89	25.5
2720.77	25.5
2721.64	24
2722.52	25.5
2723.4	21
2724.27	22.5
2725.15	27.5
2726.03	26
2726.9	28.5
2727.78	26.5
2728.66	22.5
2729.53	26
2730.41	23.5
2731.28	24
2732.16	25.5
2733.03	25
2733.91	27.5
2734.79	24.5
2735.66	23
2736.54	27
2737.41	24.5
2738.29	25
2739.16	27
2740.03	25.5
2740.91	26.5
2741.78	27.5
2742.66	26
2743.53	24.5
2744.41	21.5
2745.28	26.5
2746.15	26
2747.03	26
2747.9	24
2748.77	27
2749.65	27.5
2750.52	26
2751.39	24.5
2752.27	23
2753.14	24.5
2754.01	25
2754.88	25.5
2755.75	25
2756.63	24
2757.5	25
2758.37	25
2759.24	24
2760.11	22
2760.99	22
2761.86	25
2762.73	26.5
2763.6	21
2764.47	28.5
2765.34	27
2766.21	24.5
2767.08	30.5
2767.95	24
2768.82	25
2769.69	23.5
2770.56	24
2771.43	27
2772.3	23.5
2773.17	28.5
2774.04	25
2774.91	24.5
2775.78	22.5
2776.65	25
2777.52	26
2778.39	25.5
2779.26	28.5
2780.13	29.5
2780.99	23
2781.86	25.5
2782.73	25
2783.6	24
2784.47	21
2785.34	24
2786.2	25.5
2787.07	27
2787.94	25
2788.81	28.5
2789.67	21.5
2790.54	24
2791.41	31
2792.27	25
2793.14	24.5
2794.01	30
2794.87	25
2795.74	28.5
2796.61	25
2797.47	25
2798.34	23.5
2799.21	28
2800.07	23
2800.94	23.75
2801.8	24.5
2802.67	26
2803.53	24.5
2804.4	26
2805.26	28
2806.13	26.5
2806.99	25.5
2807.86	26.5
2808.72	30
2809.59	29.5
2810.45	24
2811.32	27
2812.18	29
2813.04	30
2813.91	26
2814.77	22
2815.64	27
2816.5	27.5
2817.36	25.5
2818.22	25.5
2819.09	29.5
2819.95	25
2820.81	27
2821.68	24
2822.54	26
2823.4	29
2824.26	28.5
2825.13	28.5
2825.99	23
2826.85	27.5
2827.71	25.5
2828.57	25
2829.44	32
2830.3	21.5
2831.16	25.5
2832.02	24.5
2832.88	24.5
2833.74	25.5
2834.6	28
2835.46	23.5
2836.32	27
2837.18	25
2838.04	17
2838.9	22
2839.76	28
2840.62	27
2841.48	30
2842.34	32
2843.2	27
2844.06	30.5
2844.92	22
2845.78	25.5
2846.64	28
2847.5	22.5
2848.36	24
2849.22	26.5
2850.08	26
2850.93	27
2851.79	26
2852.65	27.5
2853.51	26.5
2854.37	23.5
2855.22	27
2856.08	25
2856.94	25.5
2857.8	26
2858.65	26
2859.51	25.5
2860.37	25.5
2861.23	28
2862.08	25
2862.94	26
2863.79	26.5
2864.65	27
2865.51	26.5
2866.36	25
2867.22	27
2868.08	27.5
2868.93	25
2869.79	28.5
2870.64	28
2871.5	29
2872.35	26.5
2873.21	27
2874.06	29
2874.92	27
2875.77	30.5
2876.63	32
2877.48	29
2878.34	30.5
2879.19	28
2880.05	33
2880.9	31.5
2881.76	35
2882.61	33.5
2883.46	32.5
2884.32	32
2885.17	28.5
2886.02	27.5
2886.88	29
2887.73	35.5
2888.58	37.5
2889.44	37
2890.29	33.5
2891.14	35.5
2891.99	40
2892.85	39
2893.7	41.5
2894.55	44.5
2895.4	43
2896.25	47
2897.11	47
2897.96	50.5
2898.81	51
2899.66	52
2900.51	57
2901.36	54
2902.21	58.5
2903.07	61.5
2903.92	61.5
2904.77	64
2905.62	65.5
2906.47	59.5
2907.32	67
2908.17	62
2909.02	61
2909.87	57
2910.72	58.5
2911.57	53.5
2912.42	45.5
2913.27	51.5
2914.12	45.5
2914.97	48
2915.81	41
2916.66	41
2917.51	38.5
2918.36	35.5
2919.21	36
2920.06	35.5
2920.91	34.5
2921.75	36
2922.6	31.5
2923.45	31
2924.3	34
2925.15	29.5
2925.99	32
2926.84	31.5
2927.69	32
2928.54	30
2929.38	27.5
2930.23	31.5
2931.08	29
2931.92	28.5
2932.77	29.5
2933.62	29
2934.46	29
2935.31	28.5
2936.16	26.5
2937	31
2937.85	29
2938.69	27
2939.54	22
2940.38	29
2941.23	29
2942.08	30.5
2942.92	31.5
2943.77	28
2944.61	27
2945.46	30
2946.3	25
2947.15	27.5
2947.99	30.5
2948.83	29
2949.68	29.5
2950.52	30
2951.37	31
2952.21	30.5
2953.05	30
2953.9	30.5
2954.74	37
2955.58	32.5
2956.43	35
2957.27	32.5
2958.11	34
2958.96	39.5
2959.8	34
2960.64	38
2961.48	40.5
2962.33	39.5
2963.17	40.5
2964.01	42.5
2964.85	47
2965.69	40.5
2966.54	41.5
2967.38	43
2968.22	38.5
2969.06	36
2969.9	37
2970.74	37.5
2971.58	38.483
2972.43	36.3972
2973.27	35.0109
2974.11	31.1077
2974.95	32.8649
2975.79	32.2432
2976.63	28.7489
2977.47	32.3736
2978.31	30.922
2979.15	30.4539
2979.99	30.0448
2980.83	30.5051
2981.67	31.0612
2982.51	28.2492
2983.35	26.6307
2984.19	27.9248
2985.03	25.6291
2985.86	28.6099
2986.7	25.9209
2987.54	25.5053
2988.38	26.4309
2989.22	25.9188
2990.06	28.4304
2990.9	26.3317
2991.73	24.6855
2992.57	25.3513
2993.41	27.4973
2994.25	21.3069
2995.09	25.0364
2995.92	30.0111
2996.76	25.9664
2997.6	23.7955
2998.44	24.6845
2999.27	22.928
3000.11	27.7851
3000.95	24.801
3001.78	24.0065
3002.62	23.684
3003.46	24.2682
3004.29	23.0791
3005.13	21.6351
3005.96	24.8773
3006.8	22.5
3007.64	24.407
3008.47	25.2637
3009.31	24.5
3010.14	25.9074
3010.98	19.8183
3011.81	23.6954
3012.65	24.8142
3013.48	24.8137
3014.32	23.657
3015.15	23.4875
3015.99	22.1667
3016.82	21.7931
3017.66	25.6074
3018.49	24.8047
3019.33	25.6631
3020.16	23.568
3020.99	24.8772
3021.83	23.2937
3022.66	24.2446
3023.5	24.0732
3024.33	21.4823
3025.16	23.1193
3026	22.8522
3026.83	23.7186
3027.66	22.338
3028.49	22.8494
3029.33	22.7629
3030.16	23.6548
3030.99	23.3149
3031.83	21.9633
3032.66	23.04
3033.49	22.0063
3034.32	24.0269
3035.15	23.443
3035.99	21.9281
3036.82	23.6642
3037.65	22.0847
3038.48	22.4038
3039.31	23.5899
3040.14	24.0105
3040.97	22.064
3041.81	23.0204
3042.64	23.4712
3043.47	23.6419
3044.3	25.2344
3045.13	24.6215
3045.96	22.2631
3046.79	21.4058
3047.62	19.8769
3048.45	22.7869
3049.28	23.2632
3050.11	22.1763
3050.94	24.4414
3051.77	25.5059
3052.6	25.4709
3053.43	25.0369
3054.26	25.0922
3055.08	23.9757
3055.91	22.8505
3056.74	22.3594
3057.26	24.5
3058.09	23
3058.92	27
3059.76	23.5
3060.59	24
3061.42	21
3062.25	23.5
3063.09	24
3063.92	26
3064.75	26.5
3065.58	24
3066.42	25
3067.25	24.5
3068.08	20
3068.91	28
3069.74	23
3070.57	27
3071.41	27.5
3072.24	28
3073.07	24
3073.9	29.5
3074.73	22.5
3075.56	25.5
3076.39	25
3077.22	22.5
3078.05	24
3078.88	29
3079.71	25.5
3080.54	24
3081.37	22
3082.2	27
3083.03	24
3083.86	24
3084.69	26
3085.52	21.5
3086.35	24.5
3087.18	22
3088.01	25
3088.84	25
3089.67	28
3090.5	25.5
3091.32	23
3092.15	26
3092.98	21
3093.81	23.5
3094.64	27
3095.47	24
3096.29	25
3097.12	22
3097.95	27
3098.78	24.5
3099.6	25.5
3100.43	26.5
3101.26	23
3102.09	25
3102.91	22.5
3103.74	24
3104.57	25
3105.39	23
3106.22	23.5
3107.05	17
3107.87	26.5
3108.7	24.5
3109.52	24.5
3110.35	25
3111.18	25.5
3112	21.5
3112.83	23.5
3113.65	23
3114.48	25.5
3115.3	23.5
3116.13	21
3116.95	24
3117.78	25
3118.6	19.5
3119.43	25.5
3120.25	23
3121.08	22.5
3121.9	26
3122.72	25.5
3123.55	23.5
3124.37	25
3125.2	21
3126.02	24
3126.84	26.5
3127.67	22.5
3128.49	25
3129.31	24
3130.14	19.5
3130.96	25
3131.78	22.5
3132.61	20
3133.43	24.5
3134.25	21
3135.07	24
3135.89	24.5
3136.72	24.5
3137.54	27
3138.36	23
3139.18	24
3140	28
3140.83	24.5
3141.65	22.5
3142.47	24.5
3143.29	23.5
3144.11	25.5
3144.93	23
3145.75	25
3146.57	23
3147.4	24
3148.22	29
3149.04	24
3149.86	23
3150.68	23
3151.5	22
3152.32	23
3153.14	25
3153.96	26
3154.78	25.5
3155.59	24
3156.42	23
3157.23	27
3158.05	19.5
3158.87	24
3159.69	25.5
3160.51	23
3161.33	24.5
3162.15	22.5
3162.97	30
3163.78	25.5
3164.6	21.5
3165.42	25.5
3166.24	21.5
3167.06	25
3167.87	25
3168.69	26
3169.51	23
3170.33	20.5
3171.14	21.5
3171.96	24.5
3172.78	26
3173.6	23.5
3174.41	24.5
3175.23	24
3176.05	21.5
3176.86	24
3177.68	22.5
3178.5	22
3179.31	22
3180.13	24
3180.94	23.5
3181.76	22.5
3182.58	23
3183.39	24
3184.21	24.5
3185.02	25.5
3185.84	26
3186.65	19
3187.47	23
3188.28	21.5
3189.1	22
3189.91	24
3190.73	24
3191.54	19
3192.36	24
3193.17	22
3193.98	25.5
3194.8	28
3195.61	26
3196.43	25
3197.24	25.5
3198.05	21
3198.87	22
3199.68	24
3200.49	21.5
3201.31	26
3202.12	25.5
3202.93	24.5
3203.75	25.5
3204.56	24.5
3205.37	25.5
3206.18	25.5
3207	23
3207.81	26
3208.62	24.5
3209.43	23.5
3210.24	23
3211.06	24
3211.87	24.5
3212.68	25
3213.49	27.5
3214.3	24
3215.11	27
3215.92	27
3216.73	22.5
3217.55	25
3218.36	23.5
3219.17	23.5
3219.98	22.5
3220.79	26
3221.6	24.5
3222.41	24.5
3223.22	25
3224.03	25.5
3224.84	22
3225.65	24.5
3226.46	21.5
3227.27	23
3228.08	27.5
3228.89	26
3229.7	25
3230.5	27.5
3231.31	23
3232.12	25
3232.93	27.5
3233.74	21
3234.55	23
3235.36	20.5
3236.16	22
3236.97	23
3237.78	25
3238.59	23.5
3239.4	23.5
3240.2	23.5
3241.01	21
3241.82	23
3242.63	26.5
3243.43	25
3244.24	23
3245.05	26
3245.85	24
3246.66	27
3247.47	23
3248.27	21
3249.08	23.5
3249.89	24.5
3250.69	25.5
3251.5	23.5
3252.31	24
3253.11	27
3253.92	25
3254.72	24
3255.53	22.5
3256.33	23.5
3257.14	23.5
3257.94	23.5
3258.75	27
3259.55	24
3260.36	22.5
3261.16	23
3261.97	24
3262.77	27
3263.58	25
3264.38	21.5
3265.19	29
3265.99	23.5
3266.79	24.5
3267.6	25.5
3268.4	24
3269.21	24.5
3270.01	25
3270.81	24
3271.62	25.5
3272.42	27.5
3273.22	20.5
3274.03	22
3274.83	25
3275.63	25
3276.43	23
3277.24	26.5
3278.04	25
3278.84	28
3279.64	23
3280.45	27.5
3281.25	24
3282.05	25.5
3282.85	25.5
3283.65	27.5
3284.45	24.5
3285.26	23.5
3286.06	21.5
3286.86	25
3287.66	25
3288.46	25.5
3289.26	22.5
3290.06	27.5
3290.86	25
3291.66	27
3292.46	27
3293.26	24.5
3294.06	25.5
3294.86	26
3295.66	27
3296.46	28
3297.26	25.5
3298.06	21.5
3298.86	28
3299.66	26
3300.46	25
3301.26	23.5
3302.06	25
3302.86	23
3303.66	24
3304.46	23.5
3305.25	26.5
3306.05	26.5
3306.85	20
3307.65	24.5
3308.45	25
3309.25	24.5
3310.04	25.5
3310.84	25
3311.64	21
3312.44	26.5
3313.23	24.5
3314.03	23.5
3314.83	28
3315.63	23
3316.42	23.5
3317.22	25.5
3318.02	21.5
3318.81	26
3319.61	26.5
3320.41	21.5
3321.2	24
3322	23.5
3322.8	26.5
3323.59	25.5
3324.39	25.5
3325.18	19
3325.98	22
3326.78	23.5
3327.57	22
3328.37	26.5
3329.16	22.5
3329.96	24
3330.75	28.5
3331.55	22.5
3332.34	26.5
3333.14	24
3333.93	28
3334.73	25
3335.52	28
3336.31	25.5
3337.11	22.5
3337.9	23
3338.7	28.5
3339.49	23
3340.28	26
3341.08	27.5
3341.87	23
3342.66	24
3343.46	25.5
3344.25	23.5
3345.04	22
3345.84	26
3346.63	29.5
3347.42	24
3348.22	22.5
3349.01	26
3349.8	24
3350.59	25
3351.39	22.5
3352.18	25
3352.97	27.5
3353.76	25
3354.55	26.5
3355.35	26
3356.14	24.5
3356.93	24
3357.72	24.5
3358.51	24.5
3359.3	21.5
3360.09	25
3360.88	24
3361.67	24
3362.46	28.5
3363.26	23
3364.05	20
3364.84	24.5
3365.63	23.5
3366.42	26.5
3367.21	24.5
3368	24
3368.79	24
3369.58	27
3370.37	29.5
3371.15	25.5
3371.94	26.5
3372.73	28
3373.52	28.5
3374.31	25.5
3375.1	26.5
3375.89	24
3376.68	25
3377.47	25
3378.26	23.5
3379.04	24.5
3379.83	27
3380.62	23
3381.41	30.5
3382.2	23.5
3382.98	21
3383.77	20
3384.56	25.5
3385.35	24.5
3386.13	27
3386.92	20
3387.71	25
3388.5	24.5
3389.28	21.5
3390.07	23.5
3390.86	27
3391.64	22.5
3392.43	26.5
3393.22	23
3394	26.5
3394.79	23.5
3395.57	26
3396.36	25
3397.15	24
3397.93	24.5
3398.72	26
3399.5	22
3400.29	25.5
3401.07	23.5
3401.86	24.5
3402.65	20.5
3403.43	26
3404.21	25
3405	27
3405.78	23
3406.57	23
3407.35	24
3408.14	24.5
3408.92	25
3409.71	22
3410.49	24.5
3411.27	21
3412.06	23
3412.84	23
3413.62	26
3414.41	25.5
3415.19	27.5
3415.97	22.5
3416.76	26
3417.54	27
3418.32	28.5
3419.11	24
3419.89	25
3420.67	28.5
3421.46	26
3422.24	23.5
3423.02	25.5
3423.8	26.5
3424.58	24.5
3425.37	21
3426.15	24
3426.93	25
3427.71	24
3428.49	26
3429.27	26
3430.05	23
3430.84	23.5
3431.62	20
3432.4	20
3433.18	25.5
3433.96	25.5
3434.74	22
3435.52	23.5
3436.3	29.5
3437.08	22.5
3437.86	27
3438.64	25
3439.42	28
3440.2	24.5
3440.98	25.5
3441.76	22
3442.54	24
3443.32	20
3444.1	22.5
3444.88	25
3445.66	26
3446.44	23.5
3447.22	24
3448	25
3448.77	26.5
3449.55	26.5
3450.33	28
3451.11	23
3451.89	22.5
3452.67	25
3453.45	23.5
3454.22	26
3455	23.5
3455.78	24.5
3456.56	26.5
3457.33	21
3458.11	26
3458.89	26.5
3459.67	25
3460.44	24
3461.22	23.5
3462	23.5
3462.77	23
3463.55	21
3464.33	23
3465.1	23
3465.88	25.5
3466.66	27.5
3467.43	25.5
3468.21	24.5
3468.98	19.5
3469.76	24.5
3470.54	27.5
3471.31	23
3472.09	25
3472.86	26.5
3473.64	25
3474.41	27
3475.19	23.5
3475.96	22.5
3476.74	22
3477.51	24.5
3478.29	24
3479.06	29.5
3479.84	24.5
3480.61	26
3481.39	25.5
3482.16	26
3482.93	28
3483.71	25
3484.48	20
3485.25	25.5
3486.03	27
3486.8	23
3487.57	25
3488.35	23.5
3489.12	27.5
3489.89	22.5
3490.67	23.5
3491.44	27.5
3492.21	24.5
3492.99	24
3493.76	27
3494.53	26
3495.3	24.5
3496.08	25
3496.85	25.5
3497.62	21
3498.39	29
3499.16	23
3499.93	25
