#Acq. time (s)=	5
#Accumulations=	5
#Range (cm-¹)=	100...3500
#Windows=	4
#Autofocus=	Off
#AutoExposure=	Off
#Spike filter=	Multiple accum.
#Delay time (s)=	0
#Binning=	1
#Readout mode=	Signal
#DeNoise=	Off
#ICS correction=	Off
#Dark correction=	Off
#Inst. Process=	Off
#Instrument=	LabRAM HR Evol
#Detector=	Syncerity OE
#Objective=	x100_VIS
#Grating=	600 (500nm)
#ND Filter=	25%
#Laser=	633nm_Edge
#Hole=	100.021
#Range=	Visible
#Project=	verificaciones
#Sample=	at5
#Site=	plain
#Title=	bolusat5plain
#Remark=	
#Date=	13.01.2026 16:37
#Acquired=	13.01.2026 16:37:14
100.692	25
101.975	28.5
103.258	32.5
104.542	27.5
105.824	26
107.107	28
108.39	27.5
109.672	27
110.954	26.5
112.236	27
113.519	26.5
114.8	22.5
116.081	28.5
117.362	30
118.643	28
119.924	24.5
121.204	27.5
122.484	29
123.764	27.5
125.044	25
126.323	31.5
127.603	30.5
128.882	28.5
130.161	27.5
131.438	30.5
132.716	28
133.995	26
135.273	26.5
136.55	27
137.828	29.5
139.106	29.5
140.383	26
141.66	31.5
142.937	24
144.213	30
145.488	28
146.764	26
148.04	33
149.316	31
150.592	25
151.867	29
153.141	26.5
154.416	27.5
155.69	30
156.965	26.5
158.239	35.5
159.512	25.5
160.786	30
162.059	31
163.333	32
164.605	28
165.878	31.5
167.15	29.5
168.423	28
169.694	28.5
170.966	29.5
172.238	28
173.51	30
174.78	28
176.052	31
177.323	31.5
178.592	28
179.863	32
181.134	28
182.403	27
183.673	29
184.943	32.5
186.211	35
187.481	33
188.749	29
190.018	31
191.287	32.5
192.554	31.5
193.822	32.5
195.089	26.5
196.357	27
197.625	28
198.891	32
200.159	29.5
201.425	27.5
202.692	29
203.957	31
205.224	33.5
206.489	30
207.755	30
209.02	27
210.286	25
211.55	30
212.815	28.5
214.079	30.5
215.344	31
216.607	27
217.872	29.5
219.135	33
220.399	28.5
221.662	25
222.924	28
224.187	29.5
225.449	27.5
226.713	29
227.974	28
229.235	26
230.498	27
231.759	29.5
233.019	24
234.281	30.5
235.542	30
236.802	32.5
238.063	27
239.323	22
240.582	25
241.843	30.5
243.102	25
244.361	30.5
245.621	26
246.879	28
248.138	26.5
249.396	30
250.655	30
251.913	25.5
253.17	27.5
254.427	29.5
255.686	30
256.943	30
258.199	22
259.456	26
260.712	26.5
261.969	29.5
263.225	28
264.481	28
265.736	23.5
266.991	30.5
268.246	26
269.502	28
270.757	28.5
272.011	29.5
273.265	25.5
274.519	25
275.773	28.5
277.027	26.5
278.28	28
279.533	23.5
280.786	26
282.04	27
283.293	25
284.545	26
285.798	27
287.049	27
288.301	24.5
289.553	26
290.804	30
292.055	25
293.306	26.5
294.557	25
295.807	26
297.058	27
298.308	27
299.558	24
300.808	25
302.057	21
303.305	26
304.554	27.5
305.803	23.5
307.052	27
308.3	22.5
309.549	24.5
310.797	22
312.045	26
313.292	27
314.54	29
315.786	27.5
317.033	30.5
318.28	27
319.526	31
320.773	25.5
322.019	27
323.264	27.5
324.51	27.5
325.755	28.5
327.001	26
328.246	29.5
329.49	30.5
330.735	23
331.979	27.5
333.224	24
334.467	27.5
335.711	26
336.955	31
338.199	28
339.441	26.5
340.684	28
341.927	22
343.168	25
344.411	25.5
345.654	24.5
346.895	25.5
348.137	30
349.379	25.5
350.619	27
351.86	26.5
353.102	25
354.341	29
355.582	31
356.821	27
358.062	28
359.302	27
360.541	29.5
361.781	29.5
363.019	32.5
364.259	26
365.496	28
366.736	31.5
367.974	31.5
369.212	26.5
370.45	25
371.687	24.5
372.925	25
374.162	28
375.399	25
376.635	28.5
377.873	29.5
379.109	27
380.344	23
381.581	28.5
382.816	25
384.052	25
385.287	27.5
386.523	25
387.757	30
388.991	28
390.227	26
391.46	26.5
392.695	22.5
393.928	28.5
395.162	28
396.396	28
397.629	25.5
398.861	31
400.095	27.5
401.327	24
402.559	28
403.792	24.5
405.024	22
406.255	29.5
407.488	27
408.719	25.5
409.949	26
411.18	27.5
412.412	27
413.642	30
414.872	27.5
416.102	24.5
417.333	28.5
418.562	28
419.791	28
421.02	30.5
422.249	30.5
423.479	29.5
424.707	27.5
425.935	27
427.163	32
428.391	27
429.619	27
430.848	23
432.075	27.5
433.302	30
434.529	28
435.755	30
436.982	29.5
438.208	29
439.434	29.5
440.66	26.5
441.885	27.5
443.111	24.5
444.338	29
445.563	23
446.788	26.5
448.012	27.5
449.237	30.5
450.461	26
451.685	29
452.909	28.5
454.133	24
455.356	27
456.579	28
457.802	27.5
459.025	27.5
460.247	29
461.469	25.5
462.691	30
463.914	28.5
465.136	26
466.357	28
467.579	32.5
468.8	28.5
470.021	28
471.242	29.5
472.462	28.5
473.682	26.5
474.903	29
476.123	28.5
477.343	29
478.563	31
479.782	31.5
481	34
482.219	29
483.438	30.5
484.657	34.5
485.874	35.5
487.093	36
488.311	36.5
489.529	38
490.747	36
491.963	34
493.181	32.5
494.398	35
495.614	34.5
496.83	32.5
498.047	33.5
499.264	32
500.479	35
501.695	33.5
502.911	30
504.125	29.5
505.34	32
506.554	28.5
507.769	29
508.984	32.5
510.198	30
511.412	31.5
512.627	29
513.839	29.5
515.053	28
516.266	26.5
517.479	28.5
518.691	29
519.905	32
521.118	24.5
522.329	29
523.542	27
524.753	33
525.965	30
527.176	28
528.388	27.5
529.598	28
530.809	29
532.019	26
533.23	24
534.44	26
535.649	29.5
536.86	31.5
538.068	23
539.279	25.5
540.487	24
541.697	24.5
542.905	26
544.113	28
545.322	28
546.53	25
547.737	27.5
548.946	26
550.153	25
551.361	29
552.568	30
553.774	29
554.982	28
556.188	24
557.394	27
558.599	26.5
559.806	31.5
561.012	28
562.217	27
563.423	27
564.628	31
565.832	25
567.036	26.5
568.241	25
569.446	30.5
570.65	25
571.853	28
573.057	28
574.26	27.5
575.464	26.5
576.667	27
577.87	25.5
579.072	28
580.274	24.5
581.477	27
582.68	29
583.881	28
585.083	27
586.284	25.5
587.485	31
588.686	28
589.887	24.5
591.087	27
592.288	26
593.488	24
594.688	27.5
595.888	27
597.087	32.5
598.287	25.5
599.486	29
600.685	25.5
601.884	24.5
603.082	31
604.281	24
605.479	29.5
606.677	27
607.875	28.5
609.073	28
610.27	26
611.468	24.5
612.665	29
613.862	25
615.058	28
616.255	26
617.451	27
618.648	29
619.842	24.5
621.038	30.5
622.234	30.5
623.429	33
624.624	31.5
625.819	28
627.013	27.5
628.207	25.5
629.402	31
630.596	27
631.79	24.5
632.983	27
634.177	26
635.37	26.5
636.564	25.5
637.755	24
638.948	29
640.141	25.5
641.334	25
642.525	29.5
643.717	25
644.909	29.5
646.099	29.5
647.291	28.5
648.483	28
649.674	25
650.864	25.5
652.055	31
653.244	24
654.435	28
655.625	26
656.814	29
658.004	28.5
659.193	30.5
660.382	25.5
661.571	26.5
662.759	27
663.948	27
665.135	32
666.324	28.5
667.511	29.5
668.7	34
669.886	30.5
671.074	31.5
672.262	27
673.448	27
674.634	28
675.821	30
677.007	27
678.194	28
679.379	27.5
680.565	30
681.75	28
682.936	27
684.121	27
685.305	28
686.491	32
687.675	31.5
688.86	28.5
690.043	27.5
691.227	32
692.411	30
693.594	28
694.777	29
695.961	30
697.144	29.5
698.326	31.5
699.509	35.5
700.691	31
701.873	26.5
703.056	30
704.237	34.5
705.419	34.5
706.599	27
707.782	34.5
708.962	31.5
710.143	33
711.323	32
712.504	31.5
713.684	28.5
714.864	27.5
716.043	31
717.223	29
718.403	25
719.582	29
720.761	24
721.94	28
723.118	29.5
724.296	27
725.474	26.5
726.652	25
727.831	28.5
729.009	29.5
730.186	30
731.363	25
732.54	28
733.717	25
734.893	28
736.07	28.5
737.246	30.5
738.422	27.5
739.598	30.5
740.773	27
741.949	29.5
743.124	25
744.299	30.5
745.474	28.5
746.649	23.5
747.823	27.5
748.997	25.5
750.172	28
751.346	28
752.519	29
753.693	25.5
754.867	27
756.038	24.5
757.211	30.5
758.384	25
759.557	29.5
760.73	24
761.902	22
763.074	25.5
764.246	27
765.417	23
766.588	28
767.76	25
768.931	28
770.102	27.5
771.271	29
772.442	29
773.613	27.5
774.783	28.5
775.952	30
777.122	25.5
778.291	25
779.461	26
780.629	30
781.798	31.5
782.967	26.5
784.135	25
785.304	26.5
786.472	27
787.639	21
788.807	30.5
789.975	27.5
791.142	26.5
792.309	28
793.477	28
794.642	27
795.81	30
796.975	27
798.142	29.5
799.308	26.5
800.473	31.5
801.639	24
802.804	25
803.97	22.5
805.134	28
806.299	26
807.463	24
808.628	28
809.792	30.5
810.957	24.5
812.12	29
813.284	27
814.447	28
815.611	29.5
816.773	24.5
817.937	25
819.099	26.5
820.261	29.5
821.424	23
822.585	25
823.748	28.5
824.909	22
826.07	25
827.232	23.5
828.393	25
829.554	24.5
830.715	24
831.875	27
833.035	30.5
834.196	21.5
835.356	24.5
836.515	30
837.676	28.5
838.835	24
839.994	24
841.152	30.5
842.312	27.5
843.47	26.5
844.629	28.5
845.786	27
846.946	23.5
848.103	28
849.261	28.5
850.418	24
851.575	27.5
852.733	25
853.89	26.5
855.046	26.5
856.203	27
857.359	27
858.515	24
859.67	26
860.827	29.5
861.983	30.5
863.138	32
864.293	28
865.448	28.5
866.603	22
867.757	27
868.912	24.5
870.066	29
871.22	28
872.374	27
873.527	24.5
874.681	30
875.834	25
876.987	29.5
878.14	28
879.293	28.5
880.445	24.5
881.598	26
882.75	27.5
883.902	26
885.054	25
886.206	28.5
887.357	23
888.507	28.5
889.658	23.5
890.809	28
891.96	25
893.111	25.5
894.261	25
895.411	25
896.561	25
897.71	26
898.86	26.5
900.009	25
901.159	29.5
902.308	27
903.455	26
904.604	25.5
905.753	26
906.901	26
908.048	23.5
909.197	27
910.344	26.5
911.492	27
912.639	25
913.786	25
914.933	23
916.079	26
917.226	26
918.373	26.5
919.518	21
920.664	24
921.81	27
922.955	27
924.101	29.5
925.245	28
926.391	27
927.536	29
928.68	23.5
929.825	23
930.968	30
932.113	27
933.256	25
934.4	27.5
935.543	29
936.687	24
937.83	26.5
938.973	25
940.115	26.5
941.258	30.5
942.399	21.5
943.542	25.5
944.684	29.5
945.826	26
946.967	29.5
948.109	25.5
949.25	22
950.392	25
951.532	22
952.672	26
953.813	25.5
954.953	27.5
956.093	28
957.233	31
958.373	29
959.512	19
960.652	25.5
961.791	28
962.929	26
964.069	25.5
965.207	25
966.345	26
967.484	22.5
968.622	23
969.759	26.5
970.896	27.25
972.035	28
973.172	21
974.309	26
975.445	27.5
976.582	25
977.719	29
978.855	24.5
979.991	26.5
981.127	25.5
982.263	27.5
983.398	22
984.535	25
985.67	20
986.804	29.5
987.939	27
989.074	23
990.208	23.5
991.342	27
992.476	26
993.61	28
994.744	25
995.877	24
997.01	30
998.143	24.5
999.276	26
1000.41	27
1001.54	27.5
1002.67	28.5
1003.81	26.5
1004.94	26.5
1006.07	26
1007.2	22.5
1008.33	27.5
1009.47	25.5
1010.6	26.5
1011.73	24.5
1012.86	28.5
1013.99	25
1015.12	28.5
1016.25	26.5
1017.38	24
1018.51	30
1019.64	26.5
1020.77	26.5
1021.9	26
1023.03	27
1024.15	30
1025.28	27.5
1026.41	27.5
1027.54	26
1028.67	25
1029.8	23
1030.92	24
1032.05	26
1033.18	26
1034.31	26
1035.43	31
1036.56	28.5
1037.69	25
1038.81	28
1039.94	23
1041.07	26.5
1042.19	28
1043.32	24
1044.44	23.5
1045.57	24.5
1046.69	27
1047.82	25
1048.94	26
1050.07	26
1051.19	26.5
1052.32	25
1053.44	25.5
1054.57	25.5
1055.69	27.5
1056.81	30
1057.94	26.5
1059.06	26.5
1060.18	26
1061.31	29
1062.43	25
1063.55	26
1064.67	27
1065.8	25
1066.92	22.5
1068.04	24
1069.16	24
1070.28	27
1071.4	23.5
1072.52	30
1073.64	25
1074.76	22.5
1075.89	26
1077.01	23.5
1078.13	25
1079.25	27.5
1080.37	30.5
1081.49	24
1082.6	22
1083.72	25.5
1084.84	25
1085.96	26.5
1087.08	26.5
1088.2	27
1089.32	25
1090.43	25
1091.55	21
1092.67	25
1093.79	29.5
1094.91	22.5
1096.02	26
1097.14	26
1098.26	23
1099.37	25.5
1100.49	24
1101.61	22
1102.72	25.5
1103.84	21.5
1104.95	24.5
1106.07	25
1107.18	25
1108.3	26
1109.41	25
1110.53	26.5
1111.64	28
1112.76	25
1113.87	29
1114.99	30
1116.1	29
1117.21	26.5
1118.33	22
1119.44	22
1120.55	24
1121.67	23.5
1122.78	25
1123.89	27
1125	23
1126.12	24.5
1127.23	23
1128.34	22
1129.45	27
1130.56	26
1131.68	24.5
1132.79	25
1133.9	23.5
1135.01	25
1136.12	27
1137.23	27
1138.34	24
1139.45	27.5
1140.56	27
1141.67	27
1142.78	21.5
1143.89	24.5
1145	29.5
1146.11	27
1147.22	26
1148.32	23.5
1149.43	27
1150.54	27.5
1151.65	23
1152.76	20
1153.86	24.5
1154.97	25.5
1156.08	24
1157.19	24
1158.29	21
1159.4	23.5
1160.51	24.5
1161.61	21
1162.72	21.5
1163.83	24
1164.93	30.5
1166.04	24.5
1167.14	22.5
1168.25	25.5
1169.35	29
1170.46	24
1171.56	21.5
1172.67	28
1173.77	25
1174.88	26.5
1175.98	23.5
1177.08	24.5
1178.19	23.5
1179.29	25.5
1180.4	23.5
1181.5	23.5
1182.6	24.5
1183.71	21
1184.81	27
1185.91	27
1187.01	25.5
1188.12	23.5
1189.22	22.5
1190.32	24.5
1191.42	24
1192.52	28
1193.62	24.5
1194.72	25.9733
1195.83	21.998
1196.93	23.1021
1198.03	27.4967
1199.13	24.0352
1200.23	25.4199
1201.33	23.965
1202.43	25.649
1203.53	26.1431
1204.63	21.599
1205.73	20.949
1206.83	26.7638
1207.92	21.2902
1209.02	28.1566
1210.12	19.2214
1211.22	23.4084
1212.32	25.1189
1213.42	26.8559
1214.51	23.0806
1215.61	28.8393
1216.71	24.9381
1217.81	22.8131
1218.9	26.2968
1220	25.4255
1221.1	23.9048
1222.19	23.9767
1223.29	22.2343
1224.39	22.4344
1225.48	26.0625
1226.58	24.0864
1227.68	24.3759
1228.77	26.1641
1229.87	25.988
1230.96	24.3495
1232.06	23.3672
1233.15	23.6812
1234.25	24.1997
1235.34	23.443
1236.43	25.0119
1237.53	24.1349
1238.62	22.3806
1239.72	22.8924
1240.81	22.2384
1241.9	28.4948
1243	25.861
1244.09	23.6054
1245.18	22.4568
1246.27	21.3419
1247.37	25.716
1248.46	28.7978
1249.55	24.411
1250.64	24.477
1251.74	25.7188
1252.83	22.1193
1253.92	22.8401
1255.01	22.4286
1256.1	24.33
1257.19	24.083
1258.28	24.5006
1259.38	24.1387
1260.46	26.8554
1261.56	25.7957
1262.65	25.1034
1263.74	24.4529
1264.82	23.5885
1265.91	25.2966
1267	25.7578
1268.09	23.6982
1269.18	25.442
1270.27	25.6225
1271.36	25.6272
1272.45	23.7707
1273.54	24.8306
1274.63	24.6687
1275.71	24.038
1276.8	23.0902
1277.89	23.6428
1278.98	24.6437
1280.06	22.8097
1281.15	24.2187
1282.24	22.8383
1283.32	24.3105
1284.41	20.1423
1285.5	24.0014
1286.58	24.9612
1287.67	23.1538
1288.76	23.2547
1289.84	23.5
1290.93	23.9792
1292.01	23.2136
1293.1	26.2918
1294.18	26.6092
1295.27	23.0029
1296.35	24.5942
1297.44	26.0541
1298.52	25.5419
1299.6	25.7873
1300.69	25.9199
1301.77	23.772
1302.86	21.7035
1303.94	21.8434
1305.02	23.4836
1306.11	23.6475
1306.41	23.5
1307.5	21.5
1308.59	20
1309.68	27.5
1310.77	28
1311.85	23
1312.94	26
1314.03	24
1315.11	22.5
1316.2	25
1317.29	25.5
1318.37	28
1319.46	23
1320.55	23.5
1321.63	28
1322.72	22.5
1323.8	23.5
1324.89	26
1325.98	19
1327.06	23.5
1328.15	20
1329.23	22.5
1330.31	21
1331.4	25.5
1332.48	26
1333.57	25
1334.65	22
1335.74	25
1336.82	25.5
1337.9	24
1338.99	28
1340.07	24
1341.15	21
1342.24	27
1343.32	25
1344.4	28
1345.48	25.5
1346.56	24.5
1347.65	27
1348.73	27
1349.81	24
1350.89	25
1351.97	24
1353.05	22
1354.13	25.5
1355.21	22
1356.29	26
1357.37	24.5
1358.46	26
1359.54	23
1360.62	26
1361.69	25
1362.77	23.5
1363.85	24
1364.93	26
1366.01	24
1367.09	25
1368.17	27
1369.25	25
1370.33	29
1371.41	26.5
1372.48	20
1373.56	24
1374.64	24
1375.72	27.5
1376.79	22.5
1377.87	22.5
1378.95	26.5
1380.02	26
1381.1	24.5
1382.18	22.5
1383.25	25
1384.33	26
1385.4	22.5
1386.48	24
1387.56	27
1388.63	25.5
1389.71	25.5
1390.78	26.5
1391.86	22
1392.93	25
1394.01	21
1395.08	26
1396.15	26
1397.23	20
1398.3	23
1399.38	26
1400.45	27.5
1401.52	23.5
1402.6	28
1403.67	23.5
1404.74	20
1405.81	24.5
1406.89	24.5
1407.96	22.5
1409.03	26
1410.1	26.5
1411.17	24
1412.25	21.5
1413.32	25.5
1414.39	29.5
1415.46	23.5
1416.53	25
1417.6	25
1418.67	26.5
1419.74	27.5
1420.81	24
1421.88	30.5
1422.95	27.5
1424.02	27.5
1425.09	22.5
1426.16	25.5
1427.23	22.5
1428.3	25.5
1429.37	23.5
1430.44	22
1431.51	22
1432.58	25.5
1433.64	29
1434.71	25
1435.78	24
1436.85	25
1437.92	25
1438.98	24
1440.05	23
1441.12	27
1442.18	23
1443.25	24.5
1444.32	21.5
1445.38	25
1446.45	24.5
1447.52	24.5
1448.58	22
1449.65	25
1450.71	26
1451.78	25
1452.84	27.5
1453.91	22.5
1454.97	26
1456.04	21.5
1457.1	27.5
1458.17	24.5
1459.23	20
1460.3	25
1461.36	21.5
1462.42	23.5
1463.49	28
1464.55	24
1465.61	26
1466.68	28
1467.74	24
1468.8	22
1469.86	24.5
1470.93	22.5
1471.99	25
1473.05	26
1474.11	25.5
1475.17	23.5
1476.24	24
1477.3	23.5
1478.36	24.5
1479.42	22.5
1480.48	27.5
1481.54	24
1482.6	23
1483.66	27.5
1484.72	24
1485.78	25
1486.84	24.5
1487.9	28
1488.96	25
1490.02	25
1491.08	23
1492.14	27.5
1493.2	26.5
1494.26	24.5
1495.31	25.5
1496.37	28.5
1497.43	27.5
1498.49	26.5
1499.55	21
1500.6	18.5
1501.66	24
1502.72	28.5
1503.78	27.5
1504.83	26
1505.89	29
1506.95	22.5
1508	25.5
1509.06	27.5
1510.12	27
1511.17	23
1512.23	27
1513.28	24.5
1514.34	23
1515.39	24.5
1516.45	22
1517.5	26
1518.56	28.5
1519.61	22.5
1520.67	26
1521.72	19.5
1522.78	25
1523.83	25.5
1524.88	24
1525.94	22.5
1526.99	27
1528.05	24
1529.1	22
1530.15	24
1531.2	25
1532.26	24
1533.31	26
1534.36	23
1535.41	21
1536.47	26
1537.52	24
1538.57	21
1539.62	25.5
1540.67	28.5
1541.72	25.5
1542.77	24.5
1543.83	25
1544.88	24
1545.93	29
1546.98	25.5
1548.03	22.5
1549.08	22.5
1550.13	23.5
1551.18	29
1552.23	28.5
1553.28	23
1554.32	22
1555.37	24.5
1556.42	25
1557.47	27
1558.52	24.5
1559.57	23.5
1560.62	25.5
1561.67	25.5
1562.71	25
1563.76	26
1564.81	26.5
1565.86	22
1566.9	22.5
1567.95	27.5
1569	26.5
1570.04	23
1571.09	23.5
1572.14	25
1573.18	24.5
1574.23	22
1575.27	25.5
1576.32	26
1577.37	26.5
1578.41	26.5
1579.46	26.5
1580.5	26.5
1581.55	26
1582.59	24.5
1583.64	24.5
1584.68	25
1585.72	23
1586.77	25
1587.81	23.5
1588.86	21.5
1589.9	23
1590.94	23.5
1591.99	25
1593.03	25.5
1594.07	27.5
1595.12	26
1596.16	23
1597.2	25
1598.24	28
1599.29	25
1600.33	26
1601.37	24
1602.41	21
1603.45	27.5
1604.49	25.5
1605.53	26
1606.58	24.5
1607.62	27.5
1608.66	24.5
1609.7	21.5
1610.74	25
1611.78	22.5
1612.82	22.5
1613.86	25.5
1614.9	25
1615.94	24
1616.98	24
1618.02	26.5
1619.06	24.5
1620.09	26
1621.13	25
1622.17	23
1623.21	24
1624.25	25.5
1625.29	25
1626.32	26.5
1627.36	23
1628.4	24.5
1629.44	27.5
1630.47	23
1631.51	25
1632.55	28.5
1633.58	22.5
1634.62	26.5
1635.66	25
1636.69	27
1637.73	27.5
1638.77	23.5
1639.8	24.5
1640.84	27.5
1641.87	30.5
1642.91	26
1643.94	28.5
1644.98	24
1646.01	25.5
1647.05	26.5
1648.08	26.5
1649.12	28
1650.15	21.5
1651.18	24.5
1652.22	27
1653.25	19.5
1654.29	24.5
1655.32	25.5
1656.35	29.5
1657.39	26
1658.42	23.5
1659.45	27
1660.48	24.5
1661.52	26
1662.55	27
1663.58	23
1664.61	24.5
1665.64	23
1666.68	25.5
1667.71	26.5
1668.74	26.5
1669.77	26
1670.8	27.5
1671.83	23
1672.86	22
1673.89	26.5
1674.92	22
1675.95	27
1676.98	25
1678.01	27
1679.04	24
1680.07	25.5
1681.1	28
1682.13	28.5
1683.16	27
1684.19	26
1685.22	22
1686.25	27
1687.27	22.5
1688.3	26
1689.33	27
1690.36	26.5
1691.38	22
1692.41	27.5
1693.44	22
1694.47	24.5
1695.49	25
1696.52	24.5
1697.55	24
1698.57	25
1699.6	22
1700.63	26.5
1701.65	27.5
1702.68	24
1703.7	24
1704.73	26
1705.76	26
1706.78	26
1707.81	26
1708.83	22
1709.86	25.5
1710.88	25
1711.91	23
1712.93	27.5
1713.95	26
1714.98	20
1716	23.5
1717.03	26
1718.05	31.5
1719.07	23.5
1720.1	25.5
1721.12	24
1722.14	28.5
1723.16	22
1724.19	28
1725.21	27.5
1726.23	24
1727.25	27
1728.28	22.5
1729.3	25
1730.32	26
1731.34	27
1732.36	23
1733.38	21
1734.41	25
1735.43	26.5
1736.45	28
1737.47	27
1738.49	24
1739.51	25
1740.53	27
1741.55	23.5
1742.57	28.5
1743.59	26.5
1744.61	24
1745.63	25.5
1746.64	23.5
1747.66	25.5
1748.68	24.5
1749.7	25.5
1750.72	22.5
1751.74	27.5
1752.76	24
1753.77	24.5
1754.79	29
1755.81	27.5
1756.83	20.5
1757.84	24
1758.86	25.5
1759.88	25
1760.9	27
1761.91	24
1762.93	18
1763.95	25
1764.96	22
1765.98	25.5
1766.99	21
1768.01	25
1769.02	30.5
1770.04	29.5
1771.06	25
1772.07	22.5
1773.09	25.5
1774.1	26.5
1775.12	25
1776.13	23.5
1777.14	23.5
1778.16	25
1779.17	25
1780.19	25.5
1781.2	24.5
1782.21	26.5
1783.23	21
1784.24	28.5
1785.25	24.5
1786.27	27
1787.28	23.5
1788.29	28
1789.3	27.5
1790.32	25
1791.33	19.5
1792.34	27
1793.35	27.5
1794.36	23
1795.38	25
1796.39	30
1797.4	25.5
1798.41	24.5
1799.42	23.5
1800.43	24
1801.44	25.5
1802.45	28
1803.46	25.5
1804.47	27
1805.48	22
1806.49	24.5
1807.5	25.5
1808.51	24
1809.52	21
1810.53	24
1811.54	31.5
1812.55	27
1813.56	30.5
1814.57	26.5
1815.57	26
1816.58	28
1817.59	23
1818.6	24
1819.61	23
1820.61	25.5
1821.62	24
1822.63	26
1823.64	25.5
1824.64	25.5
1825.65	26
1826.66	24.5
1827.66	26
1828.67	25
1829.68	24
1830.68	22
1831.69	27.5
1832.69	26
1833.7	22.5
1834.7	24.5
1835.71	20
1836.71	27
1837.72	21
1838.72	23.5
1839.73	28.5
1840.73	25
1841.74	24.5
1842.74	23
1843.75	23.5
1844.75	23.5
1845.75	21
1846.76	24.5
1847.76	24
1848.76	25.5
1849.77	24
1850.77	28.5
1851.77	28
1852.78	28.5
1853.78	24
1854.78	24.5
1855.78	26
1856.78	29
1857.79	22
1858.79	27
1859.79	24.5
1860.79	26
1861.79	29
1862.79	25
1863.79	23
1864.79	24.5
1865.79	24
1866.8	24
1867.8	23
1868.8	28
1869.8	23
1870.8	30
1871.8	22.5
1872.8	22
1873.79	25
1874.79	22
1875.79	26.5
1876.79	23
1877.79	22
1878.79	23
1879.79	26
1880.79	25
1881.78	26
1882.78	26.5
1883.78	24.5
1884.78	22.5
1885.77	21
1886.77	27.5
1887.77	25.5
1888.77	24.5
1889.76	23
1890.76	28
1891.76	22.5
1892.75	25.5
1893.75	27
1894.75	24.5
1895.74	23.5
1896.74	26
1897.73	24
1898.73	26
1899.73	23
1900.72	23.5
1901.72	24
1902.71	24
1903.7	25
1904.7	24
1905.69	24.5
1906.69	25.5
1907.68	22.5
1908.68	24.5
1909.67	23
1910.66	27
1911.66	24
1912.65	23.5
1913.64	24
1914.64	25
1915.63	24.5
1916.62	24.5
1917.62	23
1918.61	28.5
1919.6	22.5
1920.59	27.5
1921.58	26
1922.58	23
1923.57	22
1924.56	26.5
1925.55	28
1926.54	24
1927.53	21
1928.52	27
1929.51	24.5
1930.51	19.5
1931.5	22.5
1932.49	24
1933.48	25
1934.47	24.5
1935.46	24.5
1936.45	22
1937.44	19.5
1938.42	27.5
1939.41	25
1940.4	26
1941.39	22
1942.38	23
1943.37	24.5
1944.36	26.5
1945.35	23
1946.33	26.5
1947.32	25
1948.31	23.25
1949.3	19.5
1950.29	22
1951.27	26
1952.26	19
1953.25	26.5
1954.23	25
1955.22	25.5
1956.21	24
1957.19	25.5
1958.18	28.5
1959.17	26
1960.15	25.5
1961.14	25.5
1962.13	21
1963.11	23.5
1964.1	27
1965.08	22
1966.07	27.5
1967.05	24.5
1968.04	26.5
1969.02	22
1970.01	26
1970.99	19
1971.97	24
1972.96	26
1973.94	21.5
1974.93	24
1975.91	31.5
1976.89	23.5
1977.88	26
1978.86	23.5
1979.84	24
1980.83	24.5
1981.81	25.5
1982.79	25
1983.77	23.5
1984.76	23
1985.74	23.5
1986.72	23.5
1987.7	23
1988.68	21.5
1989.67	22
1990.65	25
1991.63	22
1992.61	20.5
1993.59	23.5
1994.57	26.5
1995.55	24
1996.53	24.5
1997.51	23.5
1998.49	24.5
1999.47	22
2000.45	21
2001.43	22.5
2002.41	23
2003.39	25.5
2004.37	25
2005.35	25
2006.33	23.5
2007.31	24.5
2008.29	25
2009.26	22.5
2010.24	23.5
2011.22	23.5
2012.2	26.5
2013.18	27
2014.15	26
2015.13	23
2016.11	20.5
2017.09	22.5
2018.06	22
2019.04	23.5
2020.02	23
2021	20
2021.97	26.5
2022.95	25
2023.92	25
2024.9	27
2025.88	20
2026.85	27.5
2027.83	20
2028.8	23
2029.78	22.5
2030.75	26
2031.73	25
2032.7	21.5
2033.68	23
2034.65	22.5
2035.63	22
2036.6	24.5
2037.58	27
2038.55	27
2039.52	23.5
2040.5	21
2041.47	20.5
2042.45	21.5
2043.42	23.5
2044.39	26
2045.36	23
2046.34	25
2047.31	23.5
2048.28	22
2049.26	27.5
2050.23	23
2051.2	21.5
2052.17	22.5
2053.14	24
2054.12	25
2055.09	22
2056.06	21
2057.03	24
2058	24
2058.97	26.5
2059.94	24.5
2060.91	22
2061.88	26.5
2062.85	27
2063.82	24
2064.79	18.5
2065.76	23.5
2066.73	23
2067.7	26.5
2068.67	25
2069.64	25.5
2070.61	24
2071.58	23
2072.55	23.5
2073.52	24
2074.49	24.5
2075.45	24
2076.42	24
2077.39	19.5
2078.36	27
2079.33	23.5
2080.29	25
2081.26	21.5
2082.23	20
2083.2	25
2084.16	26
2085.13	24
2086.1	22
2087.06	26
2088.03	23
2089	25
2089.96	22
2090.93	22.5
2091.89	24.5
2092.86	19.5
2093.83	23
2094.79	23
2095.76	22.5
2096.72	21
2097.69	24
2098.65	22
2099.62	21
2100.58	22
2101.55	24.5
2102.51	25.5
2103.47	24
2104.44	23
2105.4	25
2106.36	23
2107.33	22.5
2108.29	23.5
2109.25	24
2110.22	22
2111.18	24
2112.14	22.5
2113.11	22
2114.07	20
2115.03	21
2115.99	28.5
2116.96	24.5
2117.92	24
2118.88	25.5
2119.84	16
2120.8	27
2121.76	20
2122.72	23.5
2123.68	24.5
2124.65	26
2125.61	24.5
2126.57	24.5
2127.53	26
2128.49	21.5
2129.45	22
2130.41	28.5
2131.37	23.5
2132.33	23
2133.29	23.5
2134.25	22
2135.21	20
2136.17	25
2137.12	25.5
2138.08	24.5
2139.04	26
2140	22
2140.96	22
2141.92	23.5
2142.88	24.9622
2143.83	27.3726
2144.79	20.1227
2145.75	20.1472
2146.71	19.0188
2147.66	21.9652
2148.62	22.3673
2149.58	23.9454
2150.53	21.7368
2151.49	23.64
2152.45	23.5
2153.4	23.854
2154.36	23.2267
2155.32	19.7794
2156.27	22.1256
2157.23	23.302
2158.19	19.7403
2159.14	22.6773
2160.1	21.9453
2161.05	19.3114
2162.01	23.544
2162.96	23.7246
2163.92	23.776
2164.87	21.58
2165.83	22.3107
2166.78	20.9155
2167.73	22.2682
2168.69	24.0872
2169.64	23.5981
2170.6	25.1609
2171.55	23.7521
2172.5	21.8335
2173.46	24.6839
2174.41	19.2681
2175.36	22.1315
2176.32	23.2881
2177.27	21.5981
2178.22	22.0355
2179.18	20.9494
2180.13	21.942
2181.08	24.2808
2182.03	25.0259
2182.98	23.3188
2183.94	22.9753
2184.89	22.5149
2185.84	24.539
2186.79	22.6526
2187.74	22.7465
2188.69	23.6577
2189.64	23.9913
2190.6	22.0168
2191.55	21.2426
2192.5	22.4713
2193.45	21.2429
2194.4	23.3297
2195.35	23.6534
2196.3	24.3183
2197.25	23.4925
2198.2	19.6598
2199.15	20.0558
2200.1	23.0824
2201.04	23.0615
2201.99	21.5492
2202.94	21.3521
2203.89	21.6513
2204.84	20.342
2205.79	24.4577
2206.74	20.2434
2207.69	23.5125
2208.63	22.062
2209.58	22.1108
2210.53	20.6998
2211.48	22.8047
2212.43	24.0824
2213.37	21.4167
2214.32	24.68
2215.27	21.5716
2216.21	21.178
2217.16	25.4411
2218.11	21.9721
2219.05	19.8756
2220	24.0417
2220.95	23.3099
2221.89	22.7537
2222.84	23.7233
2223.78	23.537
2224.73	22.235
2225.68	23.987
2226.62	21.8426
2227.57	18.6634
2228.51	21.8016
2229.46	22.5558
2230.4	20.1882
2231.35	22.3159
2232.29	21.3561
2233.24	23.0756
2234.18	19.3341
2235.12	22.4361
2236.07	26.3703
2237.01	24.0718
2237.95	23.7199
2238.9	23.2201
2239.84	23.3972
2240.06	23.5
2241.01	23.5
2241.96	20.5
2242.91	23
2243.86	24
2244.8	22.5
2245.75	23
2246.7	21
2247.65	22
2248.59	19
2249.54	24
2250.49	23.5
2251.43	20
2252.38	19
2253.33	23.5
2254.27	24
2255.22	22.5
2256.16	22.5
2257.11	21.5
2258.06	23.5
2259	19
2259.95	21.5
2260.89	16.5
2261.84	25
2262.78	25.5
2263.73	25
2264.67	24
2265.62	20.5
2266.56	24.5
2267.5	23.5
2268.45	22.5
2269.39	26
2270.34	23
2271.28	25.5
2272.22	20.5
2273.17	28.5
2274.11	19.5
2275.05	23.5
2276	20.5
2276.94	23
2277.88	22
2278.82	23.5
2279.77	18
2280.71	24
2281.65	22
2282.59	20.5
2283.53	20
2284.48	19
2285.42	27
2286.36	25
2287.3	18.5
2288.24	25
2289.18	23.5
2290.12	26
2291.06	21
2292	20
2292.94	25
2293.89	23
2294.83	20
2295.77	22
2296.71	23.5
2297.65	23
2298.58	23
2299.52	20
2300.46	25
2301.4	25
2302.34	21
2303.28	24
2304.22	19.5
2305.16	20
2306.1	22.5
2307.03	21.5
2307.97	20.5
2308.91	23.5
2309.85	22.5
2310.79	26
2311.72	23.5
2312.66	23.5
2313.6	22.5
2314.54	24.5
2315.47	21.5
2316.41	21
2317.35	23
2318.28	22.5
2319.22	22.5
2320.16	23
2321.09	24
2322.03	22
2322.96	25.5
2323.9	23
2324.84	19.5
2325.77	21.5
2326.71	22.5
2327.64	22
2328.58	25.5
2329.51	20
2330.45	26.5
2331.38	21.5
2332.32	21
2333.25	27
2334.18	27
2335.12	25.5
2336.05	25.5
2336.99	23
2337.92	23.5
2338.85	24.5
2339.79	22
2340.72	22
2341.65	23.5
2342.59	20
2343.52	26
2344.45	26.5
2345.39	23.5
2346.32	23
2347.25	26
2348.18	21.5
2349.11	22
2350.05	22
2350.98	21
2351.91	25
2352.84	24
2353.77	25
2354.7	21.5
2355.64	20.5
2356.57	26
2357.5	22.5
2358.43	24.5
2359.36	24
2360.29	26
2361.22	23
2362.15	21
2363.08	23.5
2364.01	25.5
2364.94	21
2365.87	27
2366.8	23.5
2367.73	28.5
2368.66	24
2369.58	24.5
2370.51	21
2371.44	25.5
2372.37	22.5
2373.3	23
2374.23	23
2375.16	22.5
2376.08	26
2377.01	23
2377.94	20.5
2378.87	20.5
2379.8	26
2380.72	26
2381.65	23
2382.58	22
2383.5	24
2384.43	23.5
2385.36	22.5
2386.28	29.5
2387.21	23
2388.14	21.5
2389.06	25.5
2389.99	25
2390.91	24
2391.84	23.5
2392.77	23.5
2393.69	23.5
2394.62	24
2395.54	27
2396.47	21.5
2397.39	25
2398.32	25.5
2399.24	25.5
2400.16	22
2401.09	23
2402.01	24
2402.94	19
2403.86	24
2404.78	19
2405.71	22.5
2406.63	26
2407.56	18
2408.48	26
2409.4	25.5
2410.32	22.5
2411.25	22
2412.17	22.5
2413.09	25.5
2414.02	22.5
2414.94	23
2415.86	26.5
2416.78	25.5
2417.7	19.5
2418.63	23
2419.55	26
2420.47	23
2421.39	27.5
2422.31	24
2423.23	25
2424.15	20.5
2425.07	26
2425.99	22
2426.92	25
2427.84	22
2428.76	23
2429.68	23.5
2430.59	23.5
2431.51	21
2432.43	24.5
2433.35	22
2434.27	24.5
2435.19	21.5
2436.11	27.5
2437.03	25
2437.95	23.5
2438.87	24
2439.79	21.5
2440.71	24
2441.62	21.5
2442.54	21.5
2443.46	22.5
2444.38	21
2445.3	22
2446.21	26.5
2447.13	24
2448.05	25.5
2448.97	26
2449.88	22
2450.8	21.5
2451.72	24
2452.63	26.5
2453.55	26.5
2454.47	26.5
2455.38	21
2456.3	21.5
2457.21	23
2458.13	24.5
2459.05	23.5
2459.96	26
2460.88	25.5
2461.79	24.5
2462.71	22
2463.62	23
2464.54	24.5
2465.45	22
2466.37	27
2467.28	21
2468.2	25
2469.11	21
2470.02	24
2470.94	25
2471.85	26
2472.77	24.5
2473.68	24
2474.59	23
2475.51	24.5
2476.42	23
2477.33	24
2478.25	22
2479.16	26
2480.07	25
2480.98	23
2481.9	26.5
2482.81	26.5
2483.72	28.5
2484.63	24
2485.55	19
2486.46	24
2487.37	24
2488.28	26.5
2489.19	22
2490.1	24
2491.01	23
2491.92	24.5
2492.83	21
2493.74	25
2494.66	21
2495.57	24.5
2496.48	25
2497.39	24
2498.3	25
2499.21	23.5
2500.12	22.5
2501.03	26
2501.93	23
2502.84	24
2503.75	24.5
2504.66	25.5
2505.57	26.5
2506.48	26.5
2507.39	27
2508.3	21.5
2509.21	26
2510.11	22.5
2511.02	22.5
2511.93	26.5
2512.84	25
2513.75	24
2514.65	25
2515.56	22
2516.47	21
2517.37	28
2518.28	26.5
2519.19	25
2520.09	22
2521	22.5
2521.91	21
2522.81	24
2523.72	25
2524.63	21
2525.53	26.5
2526.44	26
2527.34	25.5
2528.25	27
2529.16	23
2530.06	24
2530.97	26
2531.87	24
2532.78	24.5
2533.68	23.5
2534.58	22
2535.49	27.5
2536.39	26
2537.3	23
2538.2	23.5
2539.11	25
2540.01	25
2540.91	27.5
2541.82	22
2542.72	24.5
2543.62	24.5
2544.53	24.5
2545.43	22
2546.33	22
2547.23	25
2548.14	25
2549.04	19.5
2549.94	26.5
2550.84	22
2551.75	24.5
2552.65	23.5
2553.55	21
2554.45	26
2555.35	21
2556.26	25.5
2557.16	29
2558.06	23
2558.96	23
2559.86	23
2560.76	24
2561.66	24
2562.56	26.5
2563.46	24
2564.36	22.5
2565.26	26
2566.16	25.5
2567.06	27
2567.96	20.5
2568.86	25.5
2569.76	24.5
2570.66	24.5
2571.56	18
2572.46	25.5
2573.36	25
2574.26	25
2575.16	27
2576.05	20.5
2576.95	26.5
2577.85	22
2578.75	24.5
2579.65	25
2580.54	20.5
2581.44	22
2582.34	17
2583.24	25
2584.13	24
2585.03	24
2585.93	23.5
2586.83	23.5
2587.72	23
2588.62	23
2589.52	26
2590.41	20.5
2591.31	23.5
2592.2	27
2593.1	26.5
2594	23.5
2594.89	24
2595.79	27.5
2596.68	22.5
2597.58	20.5
2598.47	25.5
2599.37	23
2600.26	22
2601.16	24
2602.05	23
2602.95	27
2603.84	26
2604.74	20
2605.63	27
2606.52	22
2607.42	27
2608.31	20.5
2609.21	26.5
2610.1	21
2610.99	24
2611.89	25
2612.78	19.5
2613.67	23.5
2614.56	25.5
2615.46	21.5
2616.35	22
2617.24	25.5
2618.13	24
2619.03	26.5
2619.92	24
2620.81	23
2621.7	21
2622.59	27
2623.49	25
2624.38	25.5
2625.27	24.5
2626.16	25
2627.05	26
2627.94	27.5
2628.83	26
2629.72	26
2630.61	19.5
2631.5	24
2632.39	21
2633.28	25.5
2634.17	26.5
2635.06	25
2635.95	26
2636.84	21
2637.73	27
2638.62	24.5
2639.51	26
2640.4	25
2641.29	25
2642.18	27
2643.07	23
2643.96	23
2644.84	25
2645.73	25.5
2646.62	23
2647.51	22
2648.4	25
2649.28	23.5
2650.17	24.5
2651.06	26.5
2651.95	23
2652.83	23
2653.72	24.5
2654.61	23.5
2655.49	24.5
2656.38	24
2657.27	26
2658.16	24.5
2659.04	26
2659.93	25.5
2660.81	23.5
2661.7	25
2662.59	27
2663.47	24
2664.36	27.5
2665.24	28.5
2666.13	24.5
2667.01	25
2667.9	22
2668.78	25.5
2669.67	25
2670.55	27.5
2671.44	24.5
2672.32	22
2673.21	24
2674.09	28
2674.97	25
2675.86	22.5
2676.74	20.5
2677.62	26
2678.51	23
2679.39	21
2680.27	26.5
2681.16	25.5
2682.04	27.5
2682.92	24.5
2683.81	26.5
2684.69	26.5
2685.57	25
2686.45	19
2687.34	23.5
2688.22	21.5
2689.1	23.5
2689.98	22.5
2690.86	25.5
2691.75	23
2692.63	20.5
2693.51	26.5
2694.39	22
2695.27	28
2696.15	24
2697.03	24
2697.91	21.5
2698.79	20
2699.67	22.5
2700.55	27
2701.43	24
2702.31	22
2703.19	22.5
2704.07	25
2704.95	27
2705.83	23
2706.71	24
2707.59	24.5
2708.47	24
2709.35	24.5
2710.23	23
2711.11	24
2711.99	23.5
2712.86	23
2713.74	23
2714.62	25
2715.5	21
2716.38	27
2717.26	24.5
2718.13	27
2719.01	23.5
2719.89	23
2720.77	21
2721.64	22
2722.52	24
2723.4	24.5
2724.27	23.5
2725.15	25
2726.03	24.5
2726.9	26
2727.78	26.5
2728.66	26.5
2729.53	22
2730.41	24.5
2731.28	22
2732.16	26
2733.03	31.5
2733.91	26.5
2734.79	23.5
2735.66	27
2736.54	22.5
2737.41	24
2738.29	25
2739.16	26
2740.03	20
2740.91	25
2741.78	24
2742.66	26
2743.53	29.5
2744.41	25.5
2745.28	26.5
2746.15	28.5
2747.03	21.5
2747.9	26
2748.77	25
2749.65	22
2750.52	21.5
2751.39	19
2752.27	25.5
2753.14	23.5
2754.01	22.5
2754.88	25
2755.75	24
2756.63	22.5
2757.5	21
2758.37	25.5
2759.24	23.5
2760.11	24
2760.99	24
2761.86	21
2762.73	21
2763.6	24
2764.47	22
2765.34	23
2766.21	27.5
2767.08	24
2767.95	20.5
2768.82	23.5
2769.69	22.5
2770.56	22
2771.43	26
2772.3	21.5
2773.17	24.5
2774.04	25.5
2774.91	26.5
2775.78	21
2776.65	27
2777.52	22
2778.39	26
2779.26	25
2780.13	25
2780.99	25.5
2781.86	24.5
2782.73	27.5
2783.6	22
2784.47	24.5
2785.34	26
2786.2	26
2787.07	22
2787.94	25
2788.81	24
2789.67	28
2790.54	23.5
2791.41	25.5
2792.27	24.5
2793.14	23.5
2794.01	27
2794.87	24.5
2795.74	24
2796.61	20.5
2797.47	30
2798.34	26
2799.21	23
2800.07	26
2800.94	24.75
2801.8	23.5
2802.67	22
2803.53	26.5
2804.4	26
2805.26	25
2806.13	24.5
2806.99	24.5
2807.86	25
2808.72	23.5
2809.59	32
2810.45	23.5
2811.32	25
2812.18	25.5
2813.04	23.5
2813.91	20.5
2814.77	25
2815.64	22.5
2816.5	26.5
2817.36	25.5
2818.22	23.5
2819.09	23.5
2819.95	27
2820.81	24.5
2821.68	24
2822.54	26
2823.4	26.5
2824.26	28.5
2825.13	26.5
2825.99	23
2826.85	20
2827.71	26
2828.57	24.5
2829.44	22.5
2830.3	26
2831.16	22
2832.02	25.5
2832.88	23.5
2833.74	23.5
2834.6	25
2835.46	23
2836.32	24
2837.18	23
2838.04	22.5
2838.9	23
2839.76	24
2840.62	25
2841.48	25.5
2842.34	25
2843.2	23
2844.06	25
2844.92	26
2845.78	21.5
2846.64	18.5
2847.5	24.5
2848.36	21.5
2849.22	27
2850.08	26
2850.93	24
2851.79	21
2852.65	25
2853.51	21.5
2854.37	20
2855.22	21
2856.08	24.5
2856.94	23
2857.8	20
2858.65	28.5
2859.51	25
2860.37	26.5
2861.23	24
2862.08	24
2862.94	22
2863.79	23
2864.65	25
2865.51	26
2866.36	22
2867.22	22
2868.08	23
2868.93	25
2869.79	24
2870.64	26
2871.5	25.5
2872.35	24
2873.21	23
2874.06	22
2874.92	21
2875.77	22.5
2876.63	22
2877.48	23.5
2878.34	26
2879.19	23
2880.05	27
2880.9	22
2881.76	25
2882.61	22
2883.46	23.5
2884.32	24.5
2885.17	26
2886.02	25.5
2886.88	25.5
2887.73	20
2888.58	25.5
2889.44	21.5
2890.29	24
2891.14	24
2891.99	26.5
2892.85	25.5
2893.7	26
2894.55	29
2895.4	27.5
2896.25	27
2897.11	29.5
2897.96	27.5
2898.81	26.5
2899.66	29
2900.51	22.5
2901.36	29
2902.21	27.5
2903.07	30
2903.92	26
2904.77	30
2905.62	28.5
2906.47	32
2907.32	30.5
2908.17	29.5
2909.02	31
2909.87	27.5
2910.72	29.5
2911.57	32
2912.42	25.5
2913.27	27
2914.12	23
2914.97	25
2915.81	23.5
2916.66	25
2917.51	21.5
2918.36	26
2919.21	24.5
2920.06	26.5
2920.91	24.5
2921.75	22
2922.6	27
2923.45	24
2924.3	24
2925.15	27.5
2925.99	28
2926.84	22
2927.69	23
2928.54	21.5
2929.38	23.5
2930.23	26
2931.08	24.5
2931.92	24.5
2932.77	22
2933.62	27
2934.46	21.5
2935.31	24.5
2936.16	19
2937	25.5
2937.85	22.5
2938.69	24.5
2939.54	19
2940.38	24.5
2941.23	24.5
2942.08	20
2942.92	24
2943.77	22
2944.61	23
2945.46	22.5
2946.3	22
2947.15	24
2947.99	24
2948.83	26
2949.68	22.5
2950.52	23.5
2951.37	25.5
2952.21	30
2953.05	23
2953.9	27.5
2954.74	27.5
2955.58	22
2956.43	25.5
2957.27	23
2958.11	22
2958.96	26
2959.8	25
2960.64	28
2961.48	20.5
2962.33	29
2963.17	24.5
2964.01	26
2964.85	27.5
2965.69	21
2966.54	27
2967.38	23.5
2968.22	25
2969.06	23
2969.9	23.5
2970.74	23.5
2971.58	21
2972.43	23.9563
2973.27	23.9607
2974.11	23.9646
2974.95	24.355
2975.79	25.4288
2976.63	23.3929
2977.47	22.5574
2978.31	23.3532
2979.15	23.8917
2979.99	23.5845
2980.83	23.8391
2981.67	26.6905
2982.51	22.1989
2983.35	25.0403
2984.19	23.5687
2985.03	23.2583
2985.86	22.9941
2986.7	22.5657
2987.54	22.9988
2988.38	20.8397
2989.22	22.6119
2990.06	22.2274
2990.9	24.6308
2991.73	25.9237
2992.57	23.1038
2993.41	21.4243
2994.25	23.2038
2995.09	26.1998
2995.92	27.2112
2996.76	22.2489
2997.6	23.1894
2998.44	24.3021
2999.27	22.8617
3000.11	21.7493
3000.95	22.4711
3001.78	23.4147
3002.62	24.3558
3003.46	22.6055
3004.29	22.0638
3005.13	23.0375
3005.96	20.841
3006.8	21.1901
3007.64	22.1876
3008.47	20.7762
3009.31	21.9525
3010.14	20.8242
3010.98	23.0563
3011.81	23.9681
3012.65	22.1966
3013.48	21.9994
3014.32	23.3347
3015.15	20.0176
3015.99	22.246
3016.82	23.0182
3017.66	23.6565
3018.49	23.7846
3019.33	22.4544
3020.16	20.1944
3020.99	21.8356
3021.83	21.9241
3022.66	21.476
3023.5	23.9744
3024.33	22.2787
3025.16	21.9682
3026	22.6597
3026.83	21.4482
3027.66	23.5395
3028.49	23.1746
3029.33	21.5547
3030.16	22.2083
3030.99	20.383
3031.83	20.7175
3032.66	21.0525
3033.49	21.8848
3034.32	23.0613
3035.15	22.2003
3035.99	22.2414
3036.82	23.0546
3037.65	20.6818
3038.48	19.4481
3039.31	22.403
3040.14	22.3152
3040.97	21.9949
3041.81	20.5644
3042.64	21.0447
3043.47	22.8317
3044.3	22.094
3045.13	20.7415
3045.96	19.5122
3046.79	21.1376
3047.62	21.9205
3048.45	21.5481
3049.28	22.6907
3050.11	23.5451
3050.94	22.4785
3051.77	22.961
3052.6	23.4343
3053.43	23.9117
3054.26	22.4358
3055.08	22.2518
3055.91	19.7954
3056.74	22.8904
3057.26	26
3058.09	23
3058.92	23
3059.76	23
3060.59	24
3061.42	24
3062.25	22.5
3063.09	22
3063.92	26.5
3064.75	20
3065.58	20
3066.42	20.5
3067.25	22
3068.08	23.5
3068.91	27
3069.74	21
3070.57	24
3071.41	23
3072.24	22
3073.07	22
3073.9	23
3074.73	23
3075.56	22.5
3076.39	17
3077.22	24
3078.05	18.5
3078.88	20.5
3079.71	22
3080.54	19.5
3081.37	20
3082.2	24.5
3083.03	20.5
3083.86	26.5
3084.69	23
3085.52	27
3086.35	20
3087.18	21
3088.01	26
3088.84	23
3089.67	18.5
3090.5	23
3091.32	25
3092.15	24
3092.98	22.5
3093.81	27
3094.64	24.5
3095.47	18
3096.29	24
3097.12	21
3097.95	21.5
3098.78	26.5
3099.6	21.5
3100.43	22
3101.26	21
3102.09	23.5
3102.91	20
3103.74	20
3104.57	23
3105.39	21.5
3106.22	25.5
3107.05	22
3107.87	20.5
3108.7	27.5
3109.52	24
3110.35	19.5
3111.18	23
3112	21
3112.83	23
3113.65	20
3114.48	18
3115.3	22
3116.13	23.5
3116.95	24.5
3117.78	19.5
3118.6	24.5
3119.43	24.5
3120.25	20.5
3121.08	24.5
3121.9	21.5
3122.72	22.5
3123.55	23.5
3124.37	22.5
3125.2	22
3126.02	22
3126.84	19.5
3127.67	24
3128.49	22
3129.31	21.5
3130.14	21
3130.96	25.5
3131.78	22.5
3132.61	24.5
3133.43	24.5
3134.25	22.5
3135.07	22.5
3135.89	19.5
3136.72	23.5
3137.54	22
3138.36	22.5
3139.18	25
3140	27.5
3140.83	22.5
3141.65	22
3142.47	23.5
3143.29	21.5
3144.11	27
3144.93	21.5
3145.75	21
3146.57	23
3147.4	20
3148.22	21.5
3149.04	25
3149.86	22.5
3150.68	26
3151.5	22
3152.32	23
3153.14	20
3153.96	21.5
3154.78	26
3155.59	21.5
3156.42	26.5
3157.23	19
3158.05	24.5
3158.87	20.5
3159.69	22.5
3160.51	21
3161.33	26.5
3162.15	23.5
3162.97	18.5
3163.78	24.5
3164.6	25.5
3165.42	22.5
3166.24	22.5
3167.06	22.5
3167.87	20.5
3168.69	22
3169.51	21
3170.33	25.5
3171.14	21
3171.96	27
3172.78	24
3173.6	23
3174.41	24.5
3175.23	19.5
3176.05	26
3176.86	22.5
3177.68	21.5
3178.5	25.5
3179.31	21.5
3180.13	21
3180.94	22.5
3181.76	24
3182.58	20
3183.39	24
3184.21	22
3185.02	26
3185.84	23
3186.65	22
3187.47	26
3188.28	24
3189.1	22.5
3189.91	20
3190.73	20.5
3191.54	26.5
3192.36	24
3193.17	26.5
3193.98	22.5
3194.8	25.5
3195.61	26
3196.43	23.5
3197.24	25
3198.05	21.5
3198.87	23.5
3199.68	25.5
3200.49	22.5
3201.31	25
3202.12	23
3202.93	22.5
3203.75	16
3204.56	18
3205.37	24.5
3206.18	22
3207	20
3207.81	23
3208.62	20.5
3209.43	21
3210.24	25.5
3211.06	22
3211.87	23
3212.68	21.5
3213.49	21
3214.3	23.5
3215.11	17.5
3215.92	25.5
3216.73	23.5
3217.55	23
3218.36	24.5
3219.17	25.5
3219.98	26
3220.79	21.5
3221.6	23
3222.41	19.5
3223.22	22
3224.03	24
3224.84	26.5
3225.65	23.5
3226.46	22.5
3227.27	22.5
3228.08	22
3228.89	24.5
3229.7	27.5
3230.5	23
3231.31	23
3232.12	23
3232.93	25.5
3233.74	23.5
3234.55	22
3235.36	22.5
3236.16	24
3236.97	25.5
3237.78	23.5
3238.59	25
3239.4	25.5
3240.2	25
3241.01	25
3241.82	27
3242.63	26
3243.43	23
3244.24	21.5
3245.05	24
3245.85	21
3246.66	21
3247.47	21
3248.27	26.5
3249.08	25.5
3249.89	25
3250.69	25
3251.5	23
3252.31	23
3253.11	24.5
3253.92	22.5
3254.72	23
3255.53	22.5
3256.33	25.5
3257.14	22
3257.94	26
3258.75	22.5
3259.55	21.5
3260.36	23.5
3261.16	25.5
3261.97	23
3262.77	25
3263.58	22
3264.38	26
3265.19	23
3265.99	22
3266.79	24
3267.6	22
3268.4	21
3269.21	21.5
3270.01	23
3270.81	23.5
3271.62	26.5
3272.42	23
3273.22	25
3274.03	23.5
3274.83	24
3275.63	23.5
3276.43	22.5
3277.24	21.5
3278.04	24
3278.84	27
3279.64	25.5
3280.45	24
3281.25	29
3282.05	21.5
3282.85	25
3283.65	26
3284.45	23.5
3285.26	22.5
3286.06	28
3286.86	22
3287.66	26.5
3288.46	20
3289.26	22
3290.06	20
3290.86	22
3291.66	24
3292.46	24.5
3293.26	19
3294.06	22.5
3294.86	27
3295.66	24
3296.46	24.5
3297.26	22
3298.06	26
3298.86	26.5
3299.66	20
3300.46	26
3301.26	24
3302.06	22
3302.86	21
3303.66	24
3304.46	26.5
3305.25	25
3306.05	19.5
3306.85	22
3307.65	23.5
3308.45	22.5
3309.25	24
3310.04	24
3310.84	25
3311.64	25
3312.44	28
3313.23	25.5
3314.03	23
3314.83	23
3315.63	25.5
3316.42	23
3317.22	25
3318.02	22
3318.81	21.5
3319.61	26.5
3320.41	24.5
3321.2	23.5
3322	26
3322.8	25
3323.59	25
3324.39	21.5
3325.18	23.5
3325.98	22.5
3326.78	27.5
3327.57	18
3328.37	25
3329.16	24
3329.96	28
3330.75	22.5
3331.55	22
3332.34	20.5
3333.14	25.5
3333.93	28.5
3334.73	23
3335.52	21.5
3336.31	18.5
3337.11	26
3337.9	25.5
3338.7	25.5
3339.49	22
3340.28	23.5
3341.08	24
3341.87	25.5
3342.66	25.5
3343.46	19.5
3344.25	27.5
3345.04	25.5
3345.84	23.5
3346.63	22.5
3347.42	23
3348.22	23.5
3349.01	25
3349.8	27.5
3350.59	23.5
3351.39	19.5
3352.18	21.5
3352.97	23.5
3353.76	24
3354.55	24.5
3355.35	23
3356.14	25
3356.93	22.5
3357.72	23.5
3358.51	23
3359.3	27.5
3360.09	22.5
3360.88	22.5
3361.67	21
3362.46	23.5
3363.26	22
3364.05	26
3364.84	21
3365.63	27.5
3366.42	25
3367.21	26
3368	25.5
3368.79	24.5
3369.58	27
3370.37	20.5
3371.15	23.5
3371.94	24
3372.73	25
3373.52	27
3374.31	23
3375.1	26
3375.89	27
3376.68	22.5
3377.47	23
3378.26	25.5
3379.04	26
3379.83	25
3380.62	28
3381.41	23
3382.2	22.5
3382.98	21
3383.77	25.5
3384.56	24.5
3385.35	22
3386.13	25.5
3386.92	24.5
3387.71	22
3388.5	23.5
3389.28	25.5
3390.07	24
3390.86	24
3391.64	23
3392.43	23
3393.22	26
3394	25
3394.79	23.5
3395.57	23.5
3396.36	26
3397.15	23.5
3397.93	23.5
3398.72	28
3399.5	24.5
3400.29	25
3401.07	21
3401.86	28
3402.65	20.5
3403.43	22
3404.21	21.5
3405	25.5
3405.78	24.5
3406.57	27
3407.35	23.5
3408.14	22
3408.92	20
3409.71	25
3410.49	26
3411.27	22.5
3412.06	22.5
3412.84	26
3413.62	26
3414.41	23
3415.19	21.5
3415.97	22
3416.76	24.5
3417.54	23
3418.32	24.5
3419.11	23.5
3419.89	21.5
3420.67	23
3421.46	22.5
3422.24	21.5
3423.02	22.5
3423.8	25
3424.58	26.5
3425.37	20.5
3426.15	22
3426.93	24.5
3427.71	22.5
3428.49	26.5
3429.27	25
3430.05	22.5
3430.84	25.5
3431.62	26
3432.4	27
3433.18	24.5
3433.96	26
3434.74	20.5
3435.52	23
3436.3	24.5
3437.08	26
3437.86	21.5
3438.64	25
3439.42	20.5
3440.2	26.5
3440.98	24
3441.76	24.5
3442.54	22
3443.32	22.5
3444.1	27
3444.88	18.5
3445.66	30
3446.44	24
3447.22	25.5
3448	26
3448.77	23.5
3449.55	28.5
3450.33	20
3451.11	21.5
3451.89	24
3452.67	19
3453.45	22.5
3454.22	27
3455	22.5
3455.78	22.5
3456.56	25
3457.33	20
3458.11	23
3458.89	20.5
3459.67	24
3460.44	25
3461.22	24
3462	20.5
3462.77	25
3463.55	24
3464.33	21.5
3465.1	23.5
3465.88	24
3466.66	24
3467.43	24
3468.21	25
3468.98	24.5
3469.76	23
3470.54	27
3471.31	25.5
3472.09	27
3472.86	24.5
3473.64	20.5
3474.41	26.5
3475.19	21
3475.96	26.5
3476.74	26
3477.51	23
3478.29	27.5
3479.06	29
3479.84	20
3480.61	26
3481.39	21
3482.16	28.5
3482.93	23
3483.71	20
3484.48	23
3485.25	24
3486.03	22
3486.8	25.5
3487.57	20.5
3488.35	26
3489.12	17.5
3489.89	18
3490.67	29.5
3491.44	29
3492.21	26.5
3492.99	25.5
3493.76	28
3494.53	23.5
3495.3	22
3496.08	25
3496.85	23
3497.62	22
3498.39	24
3499.16	24.5
3499.93	27
