#Acq. time (s)=	5
#Accumulations=	5
#Range (cm-¹)=	100...3500
#Windows=	4
#Autofocus=	Off
#AutoExposure=	Off
#Spike filter=	Multiple accum.
#Delay time (s)=	0
#Binning=	1
#Readout mode=	Signal
#DeNoise=	Off
#ICS correction=	Off
#Dark correction=	Off
#Inst. Process=	Off
#Instrument=	LabRAM HR Evol
#Detector=	Syncerity OE
#Objective=	x100_VIS
#Grating=	600 (500nm)
#ND Filter=	25%
#Laser=	633nm_Edge
#Hole=	100.021
#Range=	Visible
#Project=	verificaciones
#Sample=	at5
#Site=	lined
#Title=	bolusat5lined
#Remark=	
#Date=	13.01.2026 16:26
#Acquired=	13.01.2026 16:26:36
100.692	26
101.975	30
103.258	31.5
104.542	33
105.824	33.5
107.107	28
108.39	30.5
109.672	31
110.954	32.5
112.236	28.5
113.519	33.5
114.8	26
116.081	30.5
117.362	31.5
118.643	26.5
119.924	31.5
121.204	26
122.484	32
123.764	33
125.044	24.5
126.323	36
127.603	36
128.882	37
130.161	31
131.438	35
132.716	35
133.995	36.5
135.273	35
136.55	34
137.828	34
139.106	37
140.383	34
141.66	31
142.937	30.5
144.213	40
145.488	38.5
146.764	37
148.04	36
149.316	41
150.592	39.5
151.867	36.5
153.141	35
154.416	40
155.69	42
156.965	36
158.239	41
159.512	40.5
160.786	38
162.059	39
163.333	39
164.605	40
165.878	39
167.15	39
168.423	42.5
169.694	37
170.966	37
172.238	38.5
173.51	39
174.78	41
176.052	36
177.323	35
178.592	38
179.863	45.5
181.134	40.5
182.403	40
183.673	41.5
184.943	39.5
186.211	36.5
187.481	40.5
188.749	39.5
190.018	41
191.287	39.5
192.554	38
193.822	40
195.089	41.5
196.357	38
197.625	40
198.891	34
200.159	37.5
201.425	34.5
202.692	39.5
203.957	33
205.224	30
206.489	37
207.755	40.5
209.02	33.5
210.286	32
211.55	34
212.815	35
214.079	34
215.344	30
216.607	30
217.872	33.5
219.135	34
220.399	32
221.662	31
222.924	34
224.187	30
225.449	33.5
226.713	36
227.974	31
229.235	31
230.498	30
231.759	31.5
233.019	33
234.281	27.5
235.542	29
236.802	32
238.063	29.5
239.323	29.5
240.582	25.5
241.843	31
243.102	28.5
244.361	31.5
245.621	33.5
246.879	29.5
248.138	27.5
249.396	25
250.655	25.5
251.913	30
253.17	31
254.427	27.5
255.686	29.5
256.943	30.5
258.199	23.5
259.456	28
260.712	28
261.969	29.5
263.225	30
264.481	25
265.736	27.5
266.991	28.5
268.246	27.5
269.502	26
270.757	32.5
272.011	30.5
273.265	27
274.519	25
275.773	28
277.027	26
278.28	28.5
279.533	25
280.786	28
282.04	32
283.293	28
284.545	29.5
285.798	28
287.049	28.5
288.301	29.5
289.553	31.5
290.804	29
292.055	31
293.306	26
294.557	28
295.807	24.5
297.058	26.5
298.308	28
299.558	30.5
300.808	27.5
302.057	26
303.305	26
304.554	29.5
305.803	28
307.052	29
308.3	29
309.549	24
310.797	26.5
312.045	23
313.292	30
314.54	31.5
315.786	30.5
317.033	28.5
318.28	31
319.526	31
320.773	30
322.019	27.5
323.264	30.5
324.51	27.5
325.755	28
327.001	26
328.246	32.5
329.49	25
330.735	32
331.979	28
333.224	31.5
334.467	28.5
335.711	28
336.955	25
338.199	27
339.441	30.5
340.684	30
341.927	30
343.168	28
344.411	26.5
345.654	30
346.895	26.5
348.137	31
349.379	25
350.619	30
351.86	31.5
353.102	28
354.341	33.5
355.582	30.5
356.821	28
358.062	26
359.302	29
360.541	28.5
361.781	25
363.019	26.5
364.259	27
365.496	28.5
366.736	28.5
367.974	28
369.212	28
370.45	27
371.687	31
372.925	26.5
374.162	28.5
375.399	27
376.635	32
377.873	29
379.109	29.5
380.344	29
381.581	27
382.816	24.5
384.052	25.5
385.287	30.5
386.523	28
387.757	27.5
388.991	29
390.227	30
391.46	28
392.695	27.5
393.928	29.5
395.162	33
396.396	26
397.629	27
398.861	28.5
400.095	29.5
401.327	29
402.559	28.5
403.792	28
405.024	30
406.255	28
407.488	27
408.719	31
409.949	30
411.18	27.5
412.412	31
413.642	23.5
414.872	29
416.102	30.5
417.333	29
418.562	27
419.791	27
421.02	30.5
422.249	27
423.479	24.5
424.707	29.5
425.935	24
427.163	29
428.391	30
429.619	25.5
430.848	30.5
432.075	27.5
433.302	30
434.529	32.5
435.755	26.5
436.982	26.5
438.208	24
439.434	27
440.66	28
441.885	27.5
443.111	29.5
444.338	26.5
445.563	25
446.788	28
448.012	30
449.237	27.5
450.461	27
451.685	24
452.909	31.5
454.133	25
455.356	30.5
456.579	24
457.802	34
459.025	26.5
460.247	32
461.469	29.5
462.691	34
463.914	32.5
465.136	31.5
466.357	29.5
467.579	31.5
468.8	27.5
470.021	32.5
471.242	37
472.462	34.5
473.682	37
474.903	37.5
476.123	38.5
477.343	41.5
478.563	37
479.782	49
481	48
482.219	50
483.438	52
484.657	56.5
485.874	51
487.093	57
488.311	58.5
489.529	53
490.747	56.5
491.963	56.5
493.181	54
494.398	52
495.614	50
496.83	47
498.047	43
499.264	48.5
500.479	43
501.695	44.5
502.911	37
504.125	43
505.34	39
506.554	37
507.769	35.5
508.984	32
510.198	34
511.412	39
512.627	30.5
513.839	33
515.053	32.5
516.266	33
517.479	36
518.691	32.5
519.905	31
521.118	34
522.329	30
523.542	35
524.753	31.5
525.965	30
527.176	28
528.388	32
529.598	28.5
530.809	35
532.019	31.5
533.23	30
534.44	29
535.649	28.5
536.86	30.5
538.068	29
539.279	29.5
540.487	32.5
541.697	35.5
542.905	28
544.113	32
545.322	28
546.53	26
547.737	31.5
548.946	28.5
550.153	28
551.361	26.5
552.568	26
553.774	32
554.982	28
556.188	31.5
557.394	28
558.599	28
559.806	25
561.012	32.5
562.217	28
563.423	30.5
564.628	28
565.832	29.5
567.036	25
568.241	25.5
569.446	27
570.65	30
571.853	28
573.057	28
574.26	35.5
575.464	27.5
576.667	30
577.87	28
579.072	31.5
580.274	28.5
581.477	27.5
582.68	32
583.881	24.5
585.083	28
586.284	30
587.485	30
588.686	27
589.887	30
591.087	26.5
592.288	31.5
593.488	25
594.688	27
595.888	28
597.087	31
598.287	29.5
599.486	29
600.685	26
601.884	25.5
603.082	28.5
604.281	25.5
605.479	24
606.677	26.5
607.875	29
609.073	27
610.27	29.5
611.468	29
612.665	29
613.862	27.5
615.058	26
616.255	26
617.451	28.5
618.648	27
619.842	26.5
621.038	31.5
622.234	31.5
623.429	26.5
624.624	26.5
625.819	28
627.013	27
628.207	30
629.402	25.5
630.596	25.5
631.79	28
632.983	31.5
634.177	24.5
635.37	30.5
636.564	30
637.755	28
638.948	28.5
640.141	32
641.334	25.5
642.525	31
643.717	33
644.909	29.5
646.099	26.5
647.291	31
648.483	25.5
649.674	26
650.864	30.5
652.055	27
653.244	25.5
654.435	28.5
655.625	27
656.814	30
658.004	27
659.193	32
660.382	28
661.571	26.5
662.759	27.5
663.948	27
665.135	30
666.324	32.5
667.511	33
668.7	35
669.886	30.5
671.074	27.5
672.262	28
673.448	28
674.634	31
675.821	33
677.007	33
678.194	33.5
679.379	29.5
680.565	34.5
681.75	35
682.936	33
684.121	36.5
685.305	33.5
686.491	33
687.675	33.5
688.86	29
690.043	32
691.227	32
692.411	34
693.594	34
694.777	37.5
695.961	31.5
697.144	38
698.326	33
699.509	37
700.691	37
701.873	32
703.056	42.5
704.237	46
705.419	43
706.599	43
707.782	45
708.962	46.5
710.143	49
711.323	47
712.504	42.5
713.684	39.5
714.864	41
716.043	29
717.223	31.5
718.403	33
719.582	35
720.761	28.5
721.94	29.5
723.118	31
724.296	32.5
725.474	28
726.652	26
727.831	30.5
729.009	29
730.186	26.5
731.363	25
732.54	31.5
733.717	29.5
734.893	29
736.07	28.5
737.246	26
738.422	27.5
739.598	26.5
740.773	29
741.949	27
743.124	29
744.299	27
745.474	27.5
746.649	30
747.823	32
748.997	29.5
750.172	30.5
751.346	29
752.519	28
753.693	30
754.867	28
756.038	27
757.211	29
758.384	28
759.557	30.5
760.73	26.5
761.902	30
763.074	29.5
764.246	26
765.417	27.5
766.588	23
767.76	29
768.931	28
770.102	27
771.271	29
772.442	24.5
773.613	28
774.783	25.5
775.952	31
777.122	26.5
778.291	27
779.461	29
780.629	29
781.798	27
782.967	31
784.135	30
785.304	34.5
786.472	29
787.639	30
788.807	32
789.975	32
791.142	29
792.309	34
793.477	34
794.642	26.5
795.81	29
796.975	31
798.142	28
799.308	31
800.473	26.5
801.639	26
802.804	30
803.97	31
805.134	29.5
806.299	29.5
807.463	31
808.628	25
809.792	26
810.957	30
812.12	29
813.284	31
814.447	29
815.611	29.5
816.773	26.5
817.937	25
819.099	29
820.261	30
821.424	26
822.585	28.5
823.748	24
824.909	32
826.07	29
827.232	27.5
828.393	29.5
829.554	31
830.715	26
831.875	28
833.035	31.5
834.196	26.5
835.356	26.5
836.515	26.5
837.676	29.5
838.835	27
839.994	26
841.152	26.5
842.312	27.5
843.47	24.5
844.629	26
845.786	29
846.946	27
848.103	29
849.261	25
850.418	26
851.575	27.5
852.733	25
853.89	28
855.046	28.5
856.203	27
857.359	32
858.515	28.5
859.67	28
860.827	31
861.983	31
863.138	33
864.293	31
865.448	29
866.603	27
867.757	28
868.912	26
870.066	29.5
871.22	26
872.374	29.5
873.527	28
874.681	25.5
875.834	27.5
876.987	31.5
878.14	26
879.293	26.5
880.445	28
881.598	28
882.75	24
883.902	28.5
885.054	30.5
886.206	28
887.357	26
888.507	27.5
889.658	26.5
890.809	23
891.96	27
893.111	33.5
894.261	28.5
895.411	26
896.561	27
897.71	30
898.86	29
900.009	26.5
901.159	25
902.308	26
903.455	29
904.604	24
905.753	27.5
906.901	27
908.048	26.5
909.197	27.5
910.344	27.5
911.492	26.5
912.639	30
913.786	29
914.933	25.5
916.079	30
917.226	26
918.373	28.5
919.518	26.5
920.664	25
921.81	27.5
922.955	24
924.101	27
925.245	26
926.391	31
927.536	25
928.68	27
929.825	29.5
930.968	26
932.113	31.5
933.256	25.5
934.4	25
935.543	28
936.687	34
937.83	24
938.973	29.5
940.115	27.5
941.258	27.5
942.399	23.5
943.542	24
944.684	27.5
945.826	25.5
946.967	29
948.109	29
949.25	25
950.392	25
951.532	30.5
952.672	26.5
953.813	26.5
954.953	26.5
956.093	28
957.233	29
958.373	30
959.512	28
960.652	25
961.791	28.5
962.929	28.5
964.069	28
965.207	31.5
966.345	24
967.484	26
968.622	28.5
969.759	28.5
970.896	26.25
972.035	23.5
973.172	28
974.309	23
975.445	24.5
976.582	26
977.719	28.5
978.855	27.5
979.991	30.5
981.127	28
982.263	27.5
983.398	27
984.535	25.5
985.67	27.5
986.804	27
987.939	22
989.074	23.5
990.208	27
991.342	27
992.476	28
993.61	23
994.744	29.5
995.877	24.5
997.01	25.5
998.143	31.5
999.276	29
1000.41	29
1001.54	25
1002.67	28
1003.81	28.5
1004.94	25
1006.07	23
1007.2	25.5
1008.33	27.5
1009.47	26.5
1010.6	25
1011.73	23
1012.86	27.5
1013.99	28
1015.12	29
1016.25	26.5
1017.38	25.5
1018.51	24
1019.64	28
1020.77	23
1021.9	28.5
1023.03	26
1024.15	27
1025.28	21.5
1026.41	25
1027.54	25
1028.67	26
1029.8	27
1030.92	27
1032.05	26
1033.18	26
1034.31	26.5
1035.43	25.5
1036.56	24.5
1037.69	25.5
1038.81	28
1039.94	28
1041.07	30
1042.19	22
1043.32	24
1044.44	24
1045.57	29
1046.69	26
1047.82	24
1048.94	21.5
1050.07	24
1051.19	22.5
1052.32	24.5
1053.44	25
1054.57	27
1055.69	26
1056.81	25
1057.94	26
1059.06	25.5
1060.18	26
1061.31	26
1062.43	28
1063.55	26
1064.67	25
1065.8	24.5
1066.92	26
1068.04	24
1069.16	24.5
1070.28	22.5
1071.4	27
1072.52	29
1073.64	26.5
1074.76	29
1075.89	27.5
1077.01	26
1078.13	25.5
1079.25	25.5
1080.37	22
1081.49	25.5
1082.6	25.5
1083.72	24
1084.84	27
1085.96	26.5
1087.08	25.5
1088.2	25
1089.32	28
1090.43	25
1091.55	25.5
1092.67	24.5
1093.79	27.5
1094.91	26.5
1096.02	27
1097.14	26
1098.26	27.5
1099.37	21.5
1100.49	23
1101.61	21
1102.72	23.5
1103.84	22.5
1104.95	24
1106.07	27
1107.18	27
1108.3	25
1109.41	24.5
1110.53	26
1111.64	26
1112.76	24.5
1113.87	25
1114.99	27.5
1116.1	26.5
1117.21	27
1118.33	22.5
1119.44	27
1120.55	30
1121.67	24
1122.78	23.5
1123.89	26.5
1125	25
1126.12	25
1127.23	27
1128.34	27.5
1129.45	28
1130.56	23.5
1131.68	26.5
1132.79	27.5
1133.9	25
1135.01	27.5
1136.12	25.5
1137.23	24
1138.34	28
1139.45	23.5
1140.56	22
1141.67	25.5
1142.78	23
1143.89	28.5
1145	26.5
1146.11	26.5
1147.22	23.5
1148.32	23
1149.43	29
1150.54	29.5
1151.65	24.5
1152.76	24
1153.86	24.5
1154.97	26.5
1156.08	24
1157.19	28
1158.29	21
1159.4	23.5
1160.51	26
1161.61	23.5
1162.72	25
1163.83	29
1164.93	27.5
1166.04	23.5
1167.14	25.5
1168.25	29
1169.35	25.5
1170.46	26.5
1171.56	25
1172.67	30.5
1173.77	28.5
1174.88	25
1175.98	26
1177.08	28
1178.19	26
1179.29	26
1180.4	27.5
1181.5	24
1182.6	26.5
1183.71	25.5
1184.81	27
1185.91	28
1187.01	27
1188.12	22
1189.22	26
1190.32	22
1191.42	23
1192.52	27.5
1193.62	24
1194.72	23.9882
1195.83	24.4574
1196.93	24.08
1198.03	27.4626
1199.13	25.9872
1200.23	22.5612
1201.33	25.668
1202.43	23.9869
1203.53	25.3227
1204.63	24.5225
1205.73	24.8386
1206.83	26.9976
1207.92	26.5526
1209.02	22.4032
1210.12	25.1325
1211.22	22.9245
1212.32	24.2321
1213.42	22.4829
1214.51	23.7694
1215.61	24.1197
1216.71	22.8361
1217.81	26.2933
1218.9	25.3653
1220	23.5876
1221.1	21.868
1222.19	23.9368
1223.29	23.4174
1224.39	23.0656
1225.48	24.9409
1226.58	25.6272
1227.68	22.833
1228.77	25.8177
1229.87	23.5019
1230.96	24.8131
1232.06	24.8113
1233.15	26.2701
1234.25	23.8138
1235.34	24.9472
1236.43	22.5666
1237.53	23.6658
1238.62	22.4498
1239.72	26.2665
1240.81	22.9925
1241.9	26.5794
1243	25.6526
1244.09	26.1489
1245.18	24.8873
1246.27	25.9449
1247.37	26.4335
1248.46	26.1852
1249.55	26.9679
1250.64	25.5153
1251.74	24.0554
1252.83	22.0624
1253.92	22.9417
1255.01	26.8635
1256.1	27.1256
1257.19	24.575
1258.28	25.7472
1259.38	26.288
1260.46	26.5127
1261.56	26.2181
1262.65	25.4738
1263.74	24.8206
1264.82	24.4705
1265.91	24.7596
1267	24.8681
1268.09	24.571
1269.18	25.9322
1270.27	28.3077
1271.36	24.4795
1272.45	24.0385
1273.54	23.982
1274.63	24.1668
1275.71	24.5344
1276.8	25.0359
1277.89	23.9133
1278.98	26.8467
1280.06	23.5441
1281.15	25.8829
1282.24	26.7121
1283.32	24.8617
1284.41	24.801
1285.5	27.1697
1286.58	25.4966
1287.67	25.2419
1288.76	27.1791
1289.84	23.1714
1290.93	23.9529
1292.01	25.5991
1293.1	23.9273
1294.18	21.2261
1295.27	23.7055
1296.35	25.2542
1297.44	22.9413
1298.52	25.7653
1299.6	25.4957
1300.69	23.5134
1301.77	24.3652
1302.86	21.4511
1303.94	24.3446
1305.02	22.8003
1306.11	21.8598
1306.41	22
1307.5	24.5
1308.59	28
1309.68	27
1310.77	26
1311.85	24
1312.94	28
1314.03	24
1315.11	27
1316.2	20
1317.29	21
1318.37	26
1319.46	22
1320.55	22
1321.63	23
1322.72	25.5
1323.8	24.5
1324.89	25
1325.98	22.5
1327.06	26.5
1328.15	26.5
1329.23	26.5
1330.31	18
1331.4	25
1332.48	24
1333.57	26
1334.65	26.5
1335.74	28.5
1336.82	26.5
1337.9	26.5
1338.99	24
1340.07	26.5
1341.15	25
1342.24	30
1343.32	22
1344.4	25
1345.48	22
1346.56	25
1347.65	24.5
1348.73	25.5
1349.81	23
1350.89	22.5
1351.97	24
1353.05	25.5
1354.13	26.5
1355.21	22.5
1356.29	24.5
1357.37	20
1358.46	22
1359.54	24.5
1360.62	25
1361.69	22.5
1362.77	27.5
1363.85	25.5
1364.93	26
1366.01	24.5
1367.09	24.5
1368.17	26.5
1369.25	24
1370.33	27.5
1371.41	24.5
1372.48	22.5
1373.56	24
1374.64	29
1375.72	25
1376.79	28
1377.87	21
1378.95	27
1380.02	27
1381.1	27.5
1382.18	28
1383.25	25.5
1384.33	27.5
1385.4	25
1386.48	25.5
1387.56	29.5
1388.63	26.5
1389.71	29
1390.78	26.5
1391.86	27
1392.93	27.5
1394.01	26
1395.08	29
1396.15	29
1397.23	30
1398.3	24
1399.38	31.5
1400.45	30
1401.52	33
1402.6	29.5
1403.67	31.5
1404.74	28
1405.81	28
1406.89	33
1407.96	28.5
1409.03	30.5
1410.1	24.5
1411.17	29.5
1412.25	27.5
1413.32	28
1414.39	36
1415.46	30.5
1416.53	26.5
1417.6	29.5
1418.67	32
1419.74	28.5
1420.81	31
1421.88	26.5
1422.95	27
1424.02	26
1425.09	26
1426.16	31
1427.23	28
1428.3	22.5
1429.37	23.5
1430.44	25.5
1431.51	28
1432.58	24.5
1433.64	23
1434.71	23
1435.78	26.5
1436.85	24.5
1437.92	26.5
1438.98	25
1440.05	28
1441.12	22
1442.18	26
1443.25	26.5
1444.32	23
1445.38	25
1446.45	25
1447.52	24
1448.58	26
1449.65	21
1450.71	27.5
1451.78	25
1452.84	26
1453.91	26
1454.97	24
1456.04	23
1457.1	26
1458.17	28
1459.23	23
1460.3	26
1461.36	26
1462.42	29.5
1463.49	22.5
1464.55	26
1465.61	22.5
1466.68	28.5
1467.74	28
1468.8	25
1469.86	23.5
1470.93	25
1471.99	28
1473.05	26.5
1474.11	26
1475.17	26
1476.24	27
1477.3	23.5
1478.36	26
1479.42	25
1480.48	23.5
1481.54	26
1482.6	23
1483.66	27
1484.72	22.5
1485.78	26.5
1486.84	24.5
1487.9	23.5
1488.96	24
1490.02	25
1491.08	27
1492.14	27.5
1493.2	21
1494.26	27
1495.31	28
1496.37	28
1497.43	28.5
1498.49	27.5
1499.55	24.5
1500.6	27
1501.66	25
1502.72	27
1503.78	26.5
1504.83	23
1505.89	26.5
1506.95	24.5
1508	26
1509.06	29.5
1510.12	29.5
1511.17	25.5
1512.23	25.5
1513.28	26.5
1514.34	24
1515.39	29
1516.45	28
1517.5	25.5
1518.56	23
1519.61	22.5
1520.67	23.5
1521.72	24
1522.78	30.5
1523.83	26
1524.88	26.5
1525.94	27
1526.99	26
1528.05	24
1529.1	26.5
1530.15	24.5
1531.2	26
1532.26	28
1533.31	26.5
1534.36	23
1535.41	24.5
1536.47	28
1537.52	21
1538.57	27.5
1539.62	22
1540.67	23
1541.72	29
1542.77	23.5
1543.83	24
1544.88	28.5
1545.93	25
1546.98	25.5
1548.03	23.5
1549.08	23.5
1550.13	27
1551.18	26.5
1552.23	25.5
1553.28	24
1554.32	27
1555.37	25.5
1556.42	22
1557.47	31.5
1558.52	28
1559.57	23
1560.62	25
1561.67	26.5
1562.71	23
1563.76	28
1564.81	28
1565.86	25.5
1566.9	28.5
1567.95	31.5
1569	27.5
1570.04	27.5
1571.09	24
1572.14	23.5
1573.18	27.5
1574.23	26
1575.27	23
1576.32	28.5
1577.37	26.5
1578.41	28
1579.46	22
1580.5	28
1581.55	28.5
1582.59	23.5
1583.64	26.5
1584.68	22.5
1585.72	21
1586.77	24.5
1587.81	25
1588.86	23
1589.9	26
1590.94	25.5
1591.99	29
1593.03	29.5
1594.07	22
1595.12	28
1596.16	23
1597.2	27.5
1598.24	24.5
1599.29	25
1600.33	25
1601.37	27
1602.41	26
1603.45	28
1604.49	26
1605.53	30.5
1606.58	24.5
1607.62	24
1608.66	25.5
1609.7	25
1610.74	25.5
1611.78	29
1612.82	23.5
1613.86	24
1614.9	23
1615.94	25.5
1616.98	25
1618.02	26
1619.06	26
1620.09	26
1621.13	25
1622.17	24
1623.21	26
1624.25	29
1625.29	23.5
1626.32	24.5
1627.36	26
1628.4	24.5
1629.44	27
1630.47	24.5
1631.51	25
1632.55	28
1633.58	24
1634.62	24
1635.66	29
1636.69	23.5
1637.73	25
1638.77	28.5
1639.8	22
1640.84	25
1641.87	27.5
1642.91	23
1643.94	28
1644.98	25.5
1646.01	28.5
1647.05	22
1648.08	26
1649.12	26
1650.15	25.5
1651.18	26.5
1652.22	27.5
1653.25	22
1654.29	23
1655.32	27
1656.35	27
1657.39	27
1658.42	22
1659.45	25
1660.48	24.5
1661.52	23
1662.55	25.5
1663.58	23.5
1664.61	22.5
1665.64	22.5
1666.68	24.5
1667.71	22
1668.74	23.5
1669.77	26
1670.8	23.5
1671.83	25
1672.86	26.5
1673.89	24.5
1674.92	21
1675.95	25.5
1676.98	26
1678.01	25.5
1679.04	22.5
1680.07	27
1681.1	24
1682.13	27
1683.16	28
1684.19	27
1685.22	24.5
1686.25	29
1687.27	23
1688.3	25
1689.33	22.5
1690.36	27
1691.38	27
1692.41	28.5
1693.44	24
1694.47	25
1695.49	27.5
1696.52	26
1697.55	25
1698.57	22.5
1699.6	25.5
1700.63	25.5
1701.65	27
1702.68	26.5
1703.7	28
1704.73	26.5
1705.76	28.5
1706.78	23.5
1707.81	26.5
1708.83	24
1709.86	23
1710.88	27
1711.91	25.5
1712.93	24
1713.95	22
1714.98	23
1716	25.5
1717.03	27
1718.05	24.5
1719.07	20
1720.1	28
1721.12	22.5
1722.14	22
1723.16	26
1724.19	26.5
1725.21	21
1726.23	24.5
1727.25	26
1728.28	26
1729.3	30
1730.32	24.5
1731.34	26
1732.36	27.5
1733.38	27
1734.41	30.5
1735.43	26.5
1736.45	28
1737.47	21.5
1738.49	25
1739.51	25
1740.53	26.5
1741.55	26.5
1742.57	24.5
1743.59	27.5
1744.61	25.5
1745.63	29.5
1746.64	23
1747.66	29.5
1748.68	29
1749.7	23.5
1750.72	24.5
1751.74	26
1752.76	25
1753.77	27.5
1754.79	26.5
1755.81	28.5
1756.83	26.5
1757.84	24.5
1758.86	28.5
1759.88	21.5
1760.9	21.5
1761.91	26
1762.93	25.5
1763.95	26
1764.96	28.5
1765.98	25
1766.99	26
1768.01	27.5
1769.02	24
1770.04	22
1771.06	25.5
1772.07	27
1773.09	29
1774.1	26
1775.12	28.5
1776.13	26
1777.14	28
1778.16	29
1779.17	24.5
1780.19	26
1781.2	25.5
1782.21	21
1783.23	25.5
1784.24	22.5
1785.25	26.5
1786.27	24
1787.28	23
1788.29	25.5
1789.3	27.5
1790.32	25.5
1791.33	24.5
1792.34	21.5
1793.35	25
1794.36	26
1795.38	27
1796.39	21.5
1797.4	21
1798.41	29
1799.42	25
1800.43	25
1801.44	26
1802.45	25
1803.46	25.5
1804.47	24
1805.48	23.5
1806.49	23
1807.5	22
1808.51	23
1809.52	26
1810.53	24
1811.54	26
1812.55	30
1813.56	28
1814.57	23
1815.57	24
1816.58	29
1817.59	25.5
1818.6	25.5
1819.61	28
1820.61	24
1821.62	24
1822.63	21.5
1823.64	28
1824.64	24
1825.65	22
1826.66	24.5
1827.66	22
1828.67	25.5
1829.68	23
1830.68	28.5
1831.69	24
1832.69	28.5
1833.7	26
1834.7	25
1835.71	27.5
1836.71	27.5
1837.72	23
1838.72	25
1839.73	25
1840.73	24
1841.74	23
1842.74	25
1843.75	26
1844.75	26
1845.75	29.5
1846.76	25
1847.76	24
1848.76	26.5
1849.77	21
1850.77	27
1851.77	29.5
1852.78	24
1853.78	29.5
1854.78	27
1855.78	25
1856.78	25
1857.79	23
1858.79	28
1859.79	25
1860.79	26.5
1861.79	23
1862.79	24
1863.79	24.5
1864.79	25
1865.79	26.5
1866.8	25.5
1867.8	24.5
1868.8	25.5
1869.8	25
1870.8	27
1871.8	26.5
1872.8	25
1873.79	24
1874.79	22
1875.79	24.5
1876.79	26
1877.79	23
1878.79	22
1879.79	22.5
1880.79	24.5
1881.78	23.5
1882.78	25.5
1883.78	24
1884.78	24.5
1885.77	26.5
1886.77	25.5
1887.77	24
1888.77	26.5
1889.76	29
1890.76	19.5
1891.76	22.5
1892.75	22
1893.75	22
1894.75	28
1895.74	22.5
1896.74	21
1897.73	22
1898.73	21.5
1899.73	24
1900.72	30
1901.72	27.5
1902.71	29
1903.7	28
1904.7	25
1905.69	25
1906.69	25.5
1907.68	26
1908.68	24
1909.67	26
1910.66	26
1911.66	26
1912.65	23.5
1913.64	28
1914.64	24.5
1915.63	25
1916.62	24.5
1917.62	27
1918.61	26.5
1919.6	27.5
1920.59	22
1921.58	24.5
1922.58	24.5
1923.57	26.5
1924.56	22
1925.55	23
1926.54	24.5
1927.53	21
1928.52	28
1929.51	27.5
1930.51	21.5
1931.5	26
1932.49	22
1933.48	25.5
1934.47	25
1935.46	23.5
1936.45	27
1937.44	27
1938.42	23.5
1939.41	25
1940.4	22
1941.39	22
1942.38	23
1943.37	25.5
1944.36	22
1945.35	25.5
1946.33	27.5
1947.32	26.5
1948.31	26.75
1949.3	25.5
1950.29	22
1951.27	28.5
1952.26	25.5
1953.25	26
1954.23	24.5
1955.22	23.5
1956.21	26.5
1957.19	22.5
1958.18	28.5
1959.17	22
1960.15	21
1961.14	23
1962.13	25.5
1963.11	24
1964.1	23
1965.08	27
1966.07	23.5
1967.05	25.5
1968.04	24.5
1969.02	26
1970.01	24.5
1970.99	24
1971.97	25
1972.96	25.5
1973.94	21.5
1974.93	24.5
1975.91	27
1976.89	24
1977.88	24.5
1978.86	24.5
1979.84	20
1980.83	26
1981.81	24
1982.79	22
1983.77	24
1984.76	24
1985.74	26.5
1986.72	19
1987.7	23
1988.68	28.5
1989.67	25.5
1990.65	17
1991.63	27.5
1992.61	25
1993.59	25
1994.57	26
1995.55	25
1996.53	28.5
1997.51	21
1998.49	24.5
1999.47	23.5
2000.45	23.5
2001.43	29
2002.41	24.5
2003.39	23.5
2004.37	23
2005.35	27
2006.33	26.5
2007.31	25.5
2008.29	24.5
2009.26	25
2010.24	20.5
2011.22	24.5
2012.2	27
2013.18	24
2014.15	24.5
2015.13	22
2016.11	21.5
2017.09	23.5
2018.06	26
2019.04	26
2020.02	22.5
2021	28
2021.97	23
2022.95	24
2023.92	26
2024.9	23
2025.88	23
2026.85	24.5
2027.83	25
2028.8	24
2029.78	23
2030.75	25
2031.73	25.5
2032.7	22
2033.68	23
2034.65	25
2035.63	23.5
2036.6	28
2037.58	24.5
2038.55	25
2039.52	21
2040.5	24.5
2041.47	26
2042.45	23
2043.42	26
2044.39	25.5
2045.36	23.5
2046.34	22.5
2047.31	24.5
2048.28	21
2049.26	23
2050.23	25
2051.2	21.5
2052.17	24.5
2053.14	23
2054.12	24
2055.09	22
2056.06	24.5
2057.03	25
2058	24.5
2058.97	26
2059.94	23.5
2060.91	25
2061.88	23
2062.85	28.5
2063.82	24
2064.79	26.5
2065.76	20
2066.73	24.5
2067.7	23
2068.67	26
2069.64	22
2070.61	25
2071.58	27
2072.55	24
2073.52	25
2074.49	25
2075.45	24
2076.42	21.5
2077.39	23
2078.36	24
2079.33	23
2080.29	26.5
2081.26	24.5
2082.23	25.5
2083.2	22.5
2084.16	26.5
2085.13	27.5
2086.1	26
2087.06	19.5
2088.03	22
2089	20.5
2089.96	25
2090.93	24.5
2091.89	22
2092.86	24
2093.83	28.5
2094.79	22
2095.76	24.5
2096.72	20
2097.69	22
2098.65	28.5
2099.62	19
2100.58	24
2101.55	26.5
2102.51	23.5
2103.47	25.5
2104.44	19.5
2105.4	25.5
2106.36	23
2107.33	21.5
2108.29	22
2109.25	22
2110.22	21.5
2111.18	24
2112.14	28
2113.11	24
2114.07	22
2115.03	24
2115.99	24.5
2116.96	22
2117.92	26
2118.88	22
2119.84	24
2120.8	24
2121.76	22.5
2122.72	29.5
2123.68	21
2124.65	22
2125.61	18.5
2126.57	23
2127.53	23.5
2128.49	27
2129.45	19
2130.41	23
2131.37	21.5
2132.33	23
2133.29	21.5
2134.25	19
2135.21	26.5
2136.17	23
2137.12	21.5
2138.08	23.5
2139.04	24.5
2140	29
2140.96	24.5
2141.92	24
2142.88	22.0045
2143.83	22.9443
2144.79	25.4987
2145.75	19.6759
2146.71	21.7068
2147.66	25.4652
2148.62	23.0162
2149.58	26.7816
2150.53	26.2531
2151.49	21.1701
2152.45	25.416
2153.4	23.7381
2154.36	22.7655
2155.32	23.1015
2156.27	24.7054
2157.23	24.3614
2158.19	23.2102
2159.14	20.1362
2160.1	26.5647
2161.05	26.6345
2162.01	19.736
2162.96	23.8927
2163.92	18.0348
2164.87	23.1431
2165.83	23.6712
2166.78	21.3418
2167.73	19.8678
2168.69	21.7129
2169.64	23.7347
2170.6	23.3119
2171.55	23.104
2172.5	23.6301
2173.46	24.2235
2174.41	21.455
2175.36	21.9856
2176.32	21.4391
2177.27	23.6758
2178.22	22.6728
2179.18	23.1012
2180.13	23.513
2181.08	21.0273
2182.03	22.855
2182.98	23.716
2183.94	22.2185
2184.89	22.2995
2185.84	23.2461
2186.79	22.3105
2187.74	20.7191
2188.69	19.7888
2189.64	24.9537
2190.6	20.423
2191.55	19.0887
2192.5	22.0251
2193.45	23.2643
2194.4	24.4743
2195.35	23.7929
2196.3	21.855
2197.25	23.6498
2198.2	22.709
2199.15	21.9193
2200.1	23.4233
2201.04	21.7771
2201.99	25.7547
2202.94	21.2014
2203.89	22.8445
2204.84	24.7177
2205.79	22.1213
2206.74	24.1361
2207.69	23.3595
2208.63	21.8657
2209.58	20.4968
2210.53	21.8965
2211.48	25.0365
2212.43	24.9576
2213.37	22.8513
2214.32	24.5988
2215.27	22.9306
2216.21	22.0299
2217.16	24.2457
2218.11	21.4295
2219.05	24.9964
2220	21.9796
2220.95	23.4417
2221.89	22.6765
2222.84	19.1214
2223.78	25.8174
2224.73	23.0366
2225.68	20.7941
2226.62	23.5091
2227.57	22.6522
2228.51	20.6829
2229.46	21.515
2230.4	23.6196
2231.35	24.6445
2232.29	23.7258
2233.24	25.8378
2234.18	24.0412
2235.12	21.4156
2236.07	21.1748
2237.01	22.6445
2237.95	25.6472
2238.9	20.312
2239.84	20.784
2240.06	21.5
2241.01	22
2241.96	21.5
2242.91	23.5
2243.86	24.5
2244.8	22.5
2245.75	27
2246.7	23
2247.65	23
2248.59	24
2249.54	26.5
2250.49	25
2251.43	20
2252.38	23
2253.33	27
2254.27	23
2255.22	25
2256.16	22
2257.11	22
2258.06	28
2259	26
2259.95	23.5
2260.89	21
2261.84	26.5
2262.78	25
2263.73	20
2264.67	22
2265.62	21
2266.56	19.5
2267.5	20
2268.45	29
2269.39	15.5
2270.34	20.5
2271.28	24.5
2272.22	28
2273.17	23.5
2274.11	20
2275.05	22.5
2276	19.5
2276.94	24.5
2277.88	22.5
2278.82	24.5
2279.77	24
2280.71	24
2281.65	25
2282.59	24.5
2283.53	22
2284.48	24
2285.42	25
2286.36	24
2287.3	20.5
2288.24	22
2289.18	27.5
2290.12	25
2291.06	25
2292	22
2292.94	26
2293.89	21
2294.83	24
2295.77	23
2296.71	23
2297.65	22
2298.58	21
2299.52	24
2300.46	26.5
2301.4	20
2302.34	20.5
2303.28	26
2304.22	23
2305.16	25.5
2306.1	20.5
2307.03	25.5
2307.97	21.5
2308.91	22
2309.85	24.5
2310.79	24.5
2311.72	20
2312.66	24.5
2313.6	27
2314.54	22.5
2315.47	24
2316.41	25.5
2317.35	23
2318.28	23.5
2319.22	25
2320.16	25
2321.09	22
2322.03	25.5
2322.96	24
2323.9	22.5
2324.84	27.5
2325.77	24
2326.71	23
2327.64	22.5
2328.58	20
2329.51	23
2330.45	23.5
2331.38	24
2332.32	22.5
2333.25	24
2334.18	26.5
2335.12	22.5
2336.05	26
2336.99	24
2337.92	20
2338.85	21.5
2339.79	22.5
2340.72	23.5
2341.65	20
2342.59	22.5
2343.52	21.5
2344.45	23
2345.39	21.5
2346.32	23.5
2347.25	26
2348.18	22.5
2349.11	27
2350.05	24.5
2350.98	22
2351.91	21
2352.84	25.5
2353.77	24.5
2354.7	27
2355.64	26
2356.57	24.5
2357.5	23
2358.43	19
2359.36	25.5
2360.29	25.5
2361.22	23
2362.15	19
2363.08	24.5
2364.01	23
2364.94	25
2365.87	21
2366.8	24.5
2367.73	20
2368.66	26
2369.58	22
2370.51	23
2371.44	22
2372.37	23.5
2373.3	26.5
2374.23	26.5
2375.16	24.5
2376.08	25
2377.01	24.5
2377.94	26.5
2378.87	21
2379.8	25.5
2380.72	22.5
2381.65	23
2382.58	23.5
2383.5	26.5
2384.43	24
2385.36	25
2386.28	23
2387.21	22
2388.14	25
2389.06	25
2389.99	23.5
2390.91	22.5
2391.84	24.5
2392.77	18
2393.69	23.5
2394.62	20
2395.54	24
2396.47	20.5
2397.39	23.5
2398.32	27
2399.24	22
2400.16	24
2401.09	25
2402.01	23
2402.94	24
2403.86	23.5
2404.78	26
2405.71	29
2406.63	24
2407.56	24
2408.48	29.5
2409.4	27
2410.32	23
2411.25	22
2412.17	27
2413.09	23
2414.02	20
2414.94	22
2415.86	21
2416.78	22
2417.7	25.5
2418.63	24
2419.55	24
2420.47	21
2421.39	25.5
2422.31	25
2423.23	22
2424.15	26.5
2425.07	21.5
2425.99	25.5
2426.92	24
2427.84	25.5
2428.76	25
2429.68	25.5
2430.59	21
2431.51	23.5
2432.43	23
2433.35	26
2434.27	22
2435.19	25
2436.11	26.5
2437.03	22
2437.95	24.5
2438.87	25.5
2439.79	20
2440.71	25
2441.62	22.5
2442.54	21.5
2443.46	22.5
2444.38	22
2445.3	21
2446.21	23
2447.13	23
2448.05	22
2448.97	25
2449.88	21
2450.8	26
2451.72	23.5
2452.63	21
2453.55	23.5
2454.47	24.5
2455.38	24
2456.3	23.5
2457.21	24.5
2458.13	30
2459.05	23.5
2459.96	24
2460.88	23.5
2461.79	25
2462.71	22
2463.62	26.5
2464.54	27
2465.45	22
2466.37	22.5
2467.28	22.5
2468.2	23
2469.11	27
2470.02	25.5
2470.94	21
2471.85	25
2472.77	22.5
2473.68	22
2474.59	28
2475.51	24.5
2476.42	26
2477.33	26
2478.25	24.5
2479.16	23.5
2480.07	24
2480.98	23
2481.9	24
2482.81	29.5
2483.72	25
2484.63	21.5
2485.55	22
2486.46	23.5
2487.37	25
2488.28	24
2489.19	23
2490.1	24
2491.01	23
2491.92	23.5
2492.83	23.5
2493.74	30
2494.66	24.5
2495.57	28
2496.48	24.5
2497.39	26
2498.3	22.5
2499.21	26
2500.12	23.5
2501.03	28
2501.93	26
2502.84	23.5
2503.75	22
2504.66	26.5
2505.57	24.5
2506.48	23.5
2507.39	26.5
2508.3	21
2509.21	23
2510.11	23.5
2511.02	25
2511.93	28.5
2512.84	24
2513.75	22.5
2514.65	21
2515.56	22.5
2516.47	21.5
2517.37	24.5
2518.28	26.5
2519.19	25.5
2520.09	22
2521	25
2521.91	25
2522.81	22
2523.72	18.5
2524.63	22
2525.53	25.5
2526.44	27
2527.34	24.5
2528.25	26.5
2529.16	29
2530.06	23
2530.97	23
2531.87	20
2532.78	21
2533.68	24.5
2534.58	21.5
2535.49	23
2536.39	25
2537.3	25
2538.2	27.5
2539.11	22
2540.01	25
2540.91	26
2541.82	24.5
2542.72	21
2543.62	21.5
2544.53	26
2545.43	22.5
2546.33	24
2547.23	23.5
2548.14	26
2549.04	21.5
2549.94	22
2550.84	22
2551.75	26
2552.65	23
2553.55	25
2554.45	22
2555.35	25
2556.26	26
2557.16	25
2558.06	21.5
2558.96	27.5
2559.86	26.5
2560.76	25
2561.66	27
2562.56	25.5
2563.46	25
2564.36	26
2565.26	25
2566.16	26.5
2567.06	26.5
2567.96	24.5
2568.86	27.5
2569.76	21.5
2570.66	25
2571.56	22.5
2572.46	28.5
2573.36	26.5
2574.26	24.5
2575.16	22
2576.05	27
2576.95	29
2577.85	24.5
2578.75	24
2579.65	25.5
2580.54	30.5
2581.44	24
2582.34	25.5
2583.24	27
2584.13	25
2585.03	25.5
2585.93	16
2586.83	24.5
2587.72	21.5
2588.62	25
2589.52	20.5
2590.41	26
2591.31	25.5
2592.2	26.5
2593.1	23
2594	27
2594.89	24.5
2595.79	21
2596.68	25
2597.58	21.5
2598.47	26
2599.37	20.5
2600.26	22
2601.16	24
2602.05	23
2602.95	21
2603.84	25
2604.74	21
2605.63	23
2606.52	21.5
2607.42	24.5
2608.31	24
2609.21	26
2610.1	25.5
2610.99	28
2611.89	26
2612.78	24
2613.67	24
2614.56	23
2615.46	26
2616.35	24
2617.24	22
2618.13	21.5
2619.03	25
2619.92	28
2620.81	24.5
2621.7	24
2622.59	28
2623.49	24.5
2624.38	24
2625.27	25.5
2626.16	20
2627.05	25.5
2627.94	24.5
2628.83	26.5
2629.72	23
2630.61	24
2631.5	28
2632.39	19.5
2633.28	26
2634.17	27
2635.06	23
2635.95	27
2636.84	26
2637.73	27.5
2638.62	25.5
2639.51	24
2640.4	22.5
2641.29	20.5
2642.18	22.5
2643.07	24.5
2643.96	25
2644.84	26
2645.73	25.5
2646.62	24
2647.51	25
2648.4	24.5
2649.28	27.5
2650.17	24
2651.06	24
2651.95	22.5
2652.83	23
2653.72	25
2654.61	21.5
2655.49	26.5
2656.38	23
2657.27	24.5
2658.16	21.5
2659.04	23
2659.93	23.5
2660.81	22
2661.7	27.5
2662.59	23
2663.47	25
2664.36	24
2665.24	23.5
2666.13	28
2667.01	22.5
2667.9	23
2668.78	26.5
2669.67	29.5
2670.55	22.5
2671.44	26
2672.32	19
2673.21	25
2674.09	22.5
2674.97	24
2675.86	22
2676.74	20.5
2677.62	23.5
2678.51	23.5
2679.39	26
2680.27	23
2681.16	28.5
2682.04	21.5
2682.92	23
2683.81	25.5
2684.69	24.5
2685.57	24.5
2686.45	26
2687.34	22.5
2688.22	23
2689.1	24
2689.98	19
2690.86	23.5
2691.75	23.5
2692.63	23.5
2693.51	20.5
2694.39	23
2695.27	25
2696.15	24
2697.03	24
2697.91	21
2698.79	25
2699.67	27
2700.55	24.5
2701.43	26.5
2702.31	23
2703.19	21.5
2704.07	25.5
2704.95	23.5
2705.83	21.5
2706.71	20.5
2707.59	26.5
2708.47	25
2709.35	24
2710.23	25.5
2711.11	25
2711.99	26.5
2712.86	25
2713.74	26.5
2714.62	27
2715.5	23.5
2716.38	25
2717.26	23
2718.13	24.5
2719.01	29.5
2719.89	25.5
2720.77	22
2721.64	22
2722.52	27
2723.4	24
2724.27	22
2725.15	22
2726.03	26.5
2726.9	22.5
2727.78	28.5
2728.66	23
2729.53	23
2730.41	22
2731.28	27
2732.16	27
2733.03	24
2733.91	23
2734.79	23.5
2735.66	23.5
2736.54	25.5
2737.41	23
2738.29	27
2739.16	23.5
2740.03	21.5
2740.91	26
2741.78	23.5
2742.66	28
2743.53	26
2744.41	23.5
2745.28	24
2746.15	24
2747.03	21.5
2747.9	23
2748.77	23
2749.65	21.5
2750.52	23
2751.39	25.5
2752.27	24.5
2753.14	20.5
2754.01	24.5
2754.88	21.5
2755.75	22
2756.63	23
2757.5	24.5
2758.37	27
2759.24	21
2760.11	21.5
2760.99	25
2761.86	23.5
2762.73	22.5
2763.6	25.5
2764.47	25
2765.34	27
2766.21	29.5
2767.08	25.5
2767.95	25
2768.82	23.5
2769.69	22
2770.56	24
2771.43	26
2772.3	23
2773.17	25
2774.04	24
2774.91	23
2775.78	25
2776.65	25.5
2777.52	24
2778.39	26
2779.26	26
2780.13	24
2780.99	22.5
2781.86	25
2782.73	22.5
2783.6	23.5
2784.47	26.5
2785.34	23.5
2786.2	21
2787.07	27
2787.94	21
2788.81	26
2789.67	25.5
2790.54	25
2791.41	26.5
2792.27	23.5
2793.14	26
2794.01	29
2794.87	25.5
2795.74	27.5
2796.61	24
2797.47	29
2798.34	25
2799.21	26
2800.07	23.5
2800.94	25.25
2801.8	26
2802.67	27.5
2803.53	26.5
2804.4	27.5
2805.26	28.5
2806.13	25.5
2806.99	27
2807.86	23
2808.72	22
2809.59	30
2810.45	27.5
2811.32	28
2812.18	28
2813.04	26
2813.91	27
2814.77	24.5
2815.64	23
2816.5	25
2817.36	28
2818.22	25.5
2819.09	26.5
2819.95	25
2820.81	26
2821.68	23
2822.54	26.5
2823.4	26.5
2824.26	27
2825.13	25.5
2825.99	28.5
2826.85	27.5
2827.71	28
2828.57	24.5
2829.44	25.5
2830.3	25.5
2831.16	27.5
2832.02	26
2832.88	25
2833.74	28
2834.6	22
2835.46	25
2836.32	26
2837.18	22
2838.04	27
2838.9	27.5
2839.76	24.5
2840.62	23
2841.48	25.5
2842.34	25
2843.2	27.5
2844.06	24
2844.92	25.5
2845.78	26
2846.64	23
2847.5	29
2848.36	25
2849.22	26.5
2850.08	25
2850.93	26.5
2851.79	26.5
2852.65	24
2853.51	30.5
2854.37	28
2855.22	24
2856.08	23.5
2856.94	25.5
2857.8	25
2858.65	24.5
2859.51	27.5
2860.37	24.5
2861.23	24
2862.08	24
2862.94	30
2863.79	29.5
2864.65	28.5
2865.51	25
2866.36	25
2867.22	27.5
2868.08	28
2868.93	27
2869.79	31
2870.64	29
2871.5	27.5
2872.35	32
2873.21	26
2874.06	27
2874.92	30.5
2875.77	29
2876.63	30
2877.48	31
2878.34	29
2879.19	29.5
2880.05	28.5
2880.9	31
2881.76	33
2882.61	31
2883.46	33
2884.32	32.5
2885.17	31
2886.02	36
2886.88	37
2887.73	36
2888.58	34
2889.44	35
2890.29	37.5
2891.14	42.5
2891.99	42
2892.85	40.5
2893.7	44
2894.55	38.5
2895.4	43
2896.25	43.5
2897.11	52.5
2897.96	48
2898.81	51
2899.66	56.5
2900.51	59.5
2901.36	59
2902.21	61.5
2903.07	57
2903.92	66.5
2904.77	65.5
2905.62	67.5
2906.47	65
2907.32	64
2908.17	59.5
2909.02	63
2909.87	61.5
2910.72	61.5
2911.57	57
2912.42	53
2913.27	49
2914.12	47
2914.97	48.5
2915.81	43.5
2916.66	43.5
2917.51	38.5
2918.36	42
2919.21	38
2920.06	35.5
2920.91	40
2921.75	39.5
2922.6	32
2923.45	34
2924.3	33.5
2925.15	29
2925.99	28
2926.84	34
2927.69	32.5
2928.54	26
2929.38	24.5
2930.23	29
2931.08	26
2931.92	28
2932.77	26
2933.62	34
2934.46	32.5
2935.31	33.5
2936.16	20
2937	26.5
2937.85	23
2938.69	32.5
2939.54	27
2940.38	22.5
2941.23	29
2942.08	28
2942.92	27
2943.77	26.5
2944.61	26
2945.46	28
2946.3	26.5
2947.15	29
2947.99	29.5
2948.83	32.5
2949.68	31.5
2950.52	33
2951.37	29
2952.21	31.5
2953.05	29
2953.9	33
2954.74	34.5
2955.58	28.5
2956.43	32.5
2957.27	35
2958.11	35.5
2958.96	35
2959.8	37.5
2960.64	44
2961.48	37
2962.33	37.5
2963.17	42
2964.01	40
2964.85	47.5
2965.69	38.5
2966.54	40
2967.38	41
2968.22	44.5
2969.06	42
2969.9	34.5
2970.74	36
2971.58	42.9587
2972.43	35.9107
2973.27	37.8272
2974.11	36.0635
2974.95	31.1091
2975.79	30.0636
2976.63	31.4968
2977.47	35.3064
2978.31	30.8348
2979.15	30.7694
2979.99	31.6432
2980.83	33.4347
2981.67	32.2692
2982.51	30.564
2983.35	27.204
2984.19	26.6619
2985.03	27.2667
2985.86	28.5038
2986.7	26.8955
2987.54	27.5467
2988.38	26.2944
2989.22	27.6226
2990.06	26.3423
2990.9	24.8965
2991.73	25.2581
2992.57	24.8271
2993.41	25.458
2994.25	21.897
2995.09	26.9644
2995.92	24.057
2996.76	26
2997.6	27.0365
2998.44	25.5082
2999.27	24.5955
3000.11	23.6582
3000.95	23.9785
3001.78	23.2834
3002.62	23.2199
3003.46	22.828
3004.29	24.3757
3005.13	23.2001
3005.96	23.5575
3006.8	25.6982
3007.64	25.3987
3008.47	24.8442
3009.31	23.1652
3010.14	22.8728
3010.98	24.2416
3011.81	22.0358
3012.65	25.5934
3013.48	22.6432
3014.32	23.1653
3015.15	23.5754
3015.99	23.149
3016.82	23.3186
3017.66	21.828
3018.49	25.1479
3019.33	25.416
3020.16	23.0767
3020.99	21.7888
3021.83	20.0163
3022.66	20.0767
3023.5	22.5166
3024.33	23.9587
3025.16	22.6302
3026	22.3641
3026.83	23.9997
3027.66	21.2236
3028.49	21.8733
3029.33	22.7401
3030.16	21.3519
3030.99	21.85
3031.83	21.4056
3032.66	24.1596
3033.49	24.8364
3034.32	23.267
3035.15	22.0862
3035.99	21.5658
3036.82	24.6363
3037.65	22.5497
3038.48	22.0084
3039.31	22.9552
3040.14	20.9876
3040.97	23.1842
3041.81	23.9201
3042.64	22.472
3043.47	21.048
3044.3	22.9025
3045.13	25.7754
3045.96	25.9748
3046.79	23.54
3047.62	21.1116
3048.45	22.0429
3049.28	22.6532
3050.11	23.1041
3050.94	24.2816
3051.77	21.7358
3052.6	18.8179
3053.43	21.3985
3054.26	22.9951
3055.08	23.0403
3055.91	24.3904
3056.74	23.4595
3057.26	21
3058.09	22
3058.92	21
3059.76	22
3060.59	22.5
3061.42	21.5
3062.25	23
3063.09	25.5
3063.92	21.5
3064.75	24
3065.58	21
3066.42	19
3067.25	23.5
3068.08	21.5
3068.91	25
3069.74	23.5
3070.57	23.5
3071.41	21.5
3072.24	22
3073.07	27
3073.9	24
3074.73	20.5
3075.56	22.5
3076.39	20
3077.22	22.5
3078.05	22.5
3078.88	25.5
3079.71	21
3080.54	25
3081.37	26
3082.2	25
3083.03	22.5
3083.86	25
3084.69	24.5
3085.52	26
3086.35	22.5
3087.18	22.5
3088.01	25.5
3088.84	26.5
3089.67	23.5
3090.5	23.5
3091.32	24.5
3092.15	23.5
3092.98	22.5
3093.81	22
3094.64	25.5
3095.47	22
3096.29	22.5
3097.12	24
3097.95	22.5
3098.78	21
3099.6	28
3100.43	22
3101.26	23.5
3102.09	22
3102.91	19
3103.74	23
3104.57	23
3105.39	23.5
3106.22	24
3107.05	23.5
3107.87	24.5
3108.7	23.5
3109.52	25
3110.35	23.5
3111.18	20.5
3112	23
3112.83	22.5
3113.65	23.5
3114.48	22
3115.3	21
3116.13	23
3116.95	23
3117.78	23.5
3118.6	26.5
3119.43	22.5
3120.25	23
3121.08	25
3121.9	24.5
3122.72	26.5
3123.55	20
3124.37	24.5
3125.2	20.5
3126.02	22.5
3126.84	23.5
3127.67	25
3128.49	24
3129.31	23.5
3130.14	22.5
3130.96	21
3131.78	23.5
3132.61	22
3133.43	26.5
3134.25	25
3135.07	25.5
3135.89	23
3136.72	24
3137.54	22
3138.36	24
3139.18	25.5
3140	28.5
3140.83	23
3141.65	22
3142.47	26
3143.29	18
3144.11	27
3144.93	25.5
3145.75	24.5
3146.57	20
3147.4	24.5
3148.22	26
3149.04	25.5
3149.86	26
3150.68	24
3151.5	23
3152.32	22.5
3153.14	21
3153.96	20
3154.78	24
3155.59	27.5
3156.42	25.5
3157.23	20.5
3158.05	21
3158.87	23
3159.69	23.5
3160.51	23
3161.33	24.5
3162.15	24.5
3162.97	21.5
3163.78	24
3164.6	23
3165.42	22
3166.24	25
3167.06	24.5
3167.87	22.5
3168.69	23.5
3169.51	20
3170.33	25.5
3171.14	22.5
3171.96	21
3172.78	23
3173.6	24
3174.41	25
3175.23	23
3176.05	25.5
3176.86	22.5
3177.68	22
3178.5	22
3179.31	25
3180.13	21
3180.94	26
3181.76	22.5
3182.58	24
3183.39	23
3184.21	23.5
3185.02	25
3185.84	27.5
3186.65	20
3187.47	26.5
3188.28	25.5
3189.1	20
3189.91	23.5
3190.73	27
3191.54	23.5
3192.36	24
3193.17	25
3193.98	24.5
3194.8	23.5
3195.61	22.5
3196.43	25
3197.24	24
3198.05	25
3198.87	22
3199.68	21
3200.49	19.5
3201.31	24
3202.12	23
3202.93	23
3203.75	19
3204.56	24
3205.37	25
3206.18	26.5
3207	24
3207.81	21
3208.62	25
3209.43	20.5
3210.24	26
3211.06	27
3211.87	21.5
3212.68	22
3213.49	24.5
3214.3	27
3215.11	21
3215.92	25
3216.73	19.5
3217.55	25.5
3218.36	25
3219.17	24.5
3219.98	23
3220.79	23.5
3221.6	25
3222.41	19.5
3223.22	24
3224.03	21.5
3224.84	21
3225.65	26.5
3226.46	21.5
3227.27	22.5
3228.08	23
3228.89	21.5
3229.7	27
3230.5	29
3231.31	22.5
3232.12	20.5
3232.93	22
3233.74	27
3234.55	21
3235.36	21
3236.16	28
3236.97	20.5
3237.78	23.5
3238.59	22
3239.4	19.5
3240.2	25
3241.01	23.5
3241.82	21
3242.63	23
3243.43	22.5
3244.24	20.5
3245.05	22
3245.85	23.5
3246.66	21
3247.47	25.5
3248.27	23
3249.08	24
3249.89	27
3250.69	24
3251.5	24
3252.31	23.5
3253.11	21
3253.92	27
3254.72	27.5
3255.53	21.5
3256.33	21
3257.14	25.5
3257.94	22
3258.75	22
3259.55	27.5
3260.36	20
3261.16	25.5
3261.97	22.5
3262.77	24
3263.58	21.5
3264.38	22.5
3265.19	21
3265.99	26
3266.79	25
3267.6	27.5
3268.4	21
3269.21	24
3270.01	24.5
3270.81	21
3271.62	20
3272.42	23
3273.22	24.5
3274.03	23.5
3274.83	25.5
3275.63	22
3276.43	28
3277.24	21.5
3278.04	27
3278.84	22
3279.64	24.5
3280.45	24
3281.25	23
3282.05	24
3282.85	22
3283.65	21.5
3284.45	27
3285.26	24.5
3286.06	23
3286.86	25.5
3287.66	24
3288.46	24
3289.26	22.5
3290.06	23.5
3290.86	22.5
3291.66	27
3292.46	26
3293.26	24
3294.06	24
3294.86	24.5
3295.66	26.5
3296.46	27
3297.26	24
3298.06	25
3298.86	22
3299.66	25
3300.46	23
3301.26	24.5
3302.06	24
3302.86	23.5
3303.66	23.5
3304.46	23
3305.25	24.5
3306.05	23
3306.85	25
3307.65	20.5
3308.45	24
3309.25	25
3310.04	23.5
3310.84	26.5
3311.64	20
3312.44	25.5
3313.23	20
3314.03	26
3314.83	24
3315.63	21
3316.42	26
3317.22	24
3318.02	23
3318.81	31
3319.61	23
3320.41	22.5
3321.2	24.5
3322	26.5
3322.8	26
3323.59	25
3324.39	25.5
3325.18	26.5
3325.98	24
3326.78	24
3327.57	24.5
3328.37	17
3329.16	23
3329.96	22
3330.75	25
3331.55	20.5
3332.34	23.5
3333.14	24.5
3333.93	23.5
3334.73	23
3335.52	23
3336.31	24
3337.11	26
3337.9	24.5
3338.7	26
3339.49	22.5
3340.28	23
3341.08	24.5
3341.87	25
3342.66	25
3343.46	24
3344.25	27
3345.04	23
3345.84	23.5
3346.63	27.5
3347.42	22
3348.22	26.5
3349.01	25.5
3349.8	23.5
3350.59	24
3351.39	22
3352.18	21.5
3352.97	24
3353.76	23.5
3354.55	24.5
3355.35	26.5
3356.14	26
3356.93	22
3357.72	21
3358.51	24
3359.3	24.5
3360.09	20
3360.88	26
3361.67	26.5
3362.46	20.5
3363.26	23.5
3364.05	23
3364.84	24
3365.63	26
3366.42	25
3367.21	21
3368	23.5
3368.79	24.5
3369.58	20.5
3370.37	23.5
3371.15	25.5
3371.94	21
3372.73	25
3373.52	24
3374.31	26
3375.1	23.5
3375.89	22.5
3376.68	24.5
3377.47	24.5
3378.26	26
3379.04	21.5
3379.83	25
3380.62	24
3381.41	27
3382.2	24
3382.98	25
3383.77	23
3384.56	25.5
3385.35	23
3386.13	25.5
3386.92	24.5
3387.71	24
3388.5	25
3389.28	19
3390.07	22.5
3390.86	25.5
3391.64	25.5
3392.43	26.5
3393.22	22.5
3394	25
3394.79	22.5
3395.57	25.5
3396.36	25.5
3397.15	24
3397.93	21
3398.72	22.5
3399.5	25.5
3400.29	26.5
3401.07	23
3401.86	26
3402.65	23
3403.43	23.5
3404.21	25
3405	25
3405.78	25
3406.57	23
3407.35	25
3408.14	23
3408.92	23
3409.71	23
3410.49	23.5
3411.27	22
3412.06	25.5
3412.84	25
3413.62	27
3414.41	25.5
3415.19	25
3415.97	24
3416.76	24
3417.54	27
3418.32	24.5
3419.11	22
3419.89	23.5
3420.67	21
3421.46	25
3422.24	24
3423.02	27.5
3423.8	25
3424.58	23.5
3425.37	23
3426.15	25.5
3426.93	22
3427.71	20
3428.49	22
3429.27	24.5
3430.05	22
3430.84	23
3431.62	22.5
3432.4	23
3433.18	22
3433.96	24.5
3434.74	26.5
3435.52	23
3436.3	24.5
3437.08	25
3437.86	24.5
3438.64	21
3439.42	26
3440.2	19.5
3440.98	24
3441.76	24.5
3442.54	22
3443.32	25
3444.1	25.5
3444.88	27
3445.66	22
3446.44	23
3447.22	25.5
3448	20.5
3448.77	25.5
3449.55	26
3450.33	25
3451.11	24.5
3451.89	23.5
3452.67	22.5
3453.45	21
3454.22	20
3455	24
3455.78	25
3456.56	25
3457.33	26
3458.11	25.5
3458.89	20
3459.67	24.5
3460.44	27
3461.22	24
3462	25.5
3462.77	25.5
3463.55	24
3464.33	20.5
3465.1	24
3465.88	20
3466.66	24.5
3467.43	19
3468.21	26.5
3468.98	22
3469.76	25
3470.54	23
3471.31	26.5
3472.09	23
3472.86	25
3473.64	22
3474.41	22
3475.19	23
3475.96	26.5
3476.74	23
3477.51	22.5
3478.29	25
3479.06	26
3479.84	26.5
3480.61	22.5
3481.39	20
3482.16	19.5
3482.93	23
3483.71	24.5
3484.48	23.5
3485.25	26.5
3486.03	23.5
3486.8	27
3487.57	26.5
3488.35	25
3489.12	24.5
3489.89	19.5
3490.67	25.5
3491.44	27.5
3492.21	24.5
3492.99	23
3493.76	21
3494.53	24
3495.3	24
3496.08	26
3496.85	22
3497.62	27
3498.39	24
3499.16	26
3499.93	25
