#Acq. time (s)=	5
#Accumulations=	5
#Range (cm-¹)=	100...3500
#Windows=	4
#Autofocus=	Off
#AutoExposure=	Off
#Spike filter=	Multiple accum.
#Delay time (s)=	0
#Binning=	1
#Readout mode=	Signal
#DeNoise=	Off
#ICS correction=	Off
#Dark correction=	Off
#Inst. Process=	Off
#Instrument=	LabRAM HR Evol
#Detector=	Syncerity OE
#Objective=	x100_VIS
#Grating=	600 (500nm)
#ND Filter=	25%
#Laser=	633nm_Edge
#Hole=	100.021
#Range=	Visible
#Project=	verificaciones
#Sample=	at5
#Site=	plain
#Title=	bolusat5plain
#Remark=	
#Date=	13.01.2026 19:12
#Acquired=	13.01.2026 19:12:42
100.692	26
101.975	26
103.258	30.5
104.542	33.5
105.824	30.5
107.107	31
108.39	25
109.672	30
110.954	31
112.236	32.5
113.519	28
114.8	27.5
116.081	28.5
117.362	33
118.643	29.5
119.924	32.5
121.204	31
122.484	27
123.764	28.5
125.044	33
126.323	29
127.603	34.5
128.882	31.5
130.161	36
131.438	33
132.716	34.5
133.995	35.5
135.273	32
136.55	35
137.828	37.5
139.106	32
140.383	36
141.66	35
142.937	35
144.213	33.5
145.488	38
146.764	32
148.04	41
149.316	39
150.592	40
151.867	33
153.141	38.5
154.416	42.5
155.69	35.5
156.965	38
158.239	41
159.512	40
160.786	38.5
162.059	40
163.333	37
164.605	42.5
165.878	39.5
167.15	32.5
168.423	36.5
169.694	36
170.966	37
172.238	37
173.51	36.5
174.78	39
176.052	35.5
177.323	34
178.592	36.5
179.863	43
181.134	36.5
182.403	36
183.673	42.5
184.943	41
186.211	35.5
187.481	41
188.749	40.5
190.018	37
191.287	38
192.554	38.5
193.822	39.5
195.089	40
196.357	37
197.625	39.5
198.891	35
200.159	39.5
201.425	35.5
202.692	38
203.957	35
205.224	38.5
206.489	34
207.755	36.5
209.02	31.5
210.286	36
211.55	38
212.815	34
214.079	33
215.344	29.5
216.607	34.5
217.872	31.5
219.135	33.5
220.399	34
221.662	32.5
222.924	33
224.187	32.5
225.449	30.5
226.713	31.5
227.974	36.5
229.235	29
230.498	33.5
231.759	30
233.019	31
234.281	35.5
235.542	28
236.802	28.5
238.063	28
239.323	30.5
240.582	29
241.843	30.5
243.102	29.5
244.361	29.5
245.621	28
246.879	31.5
248.138	29
249.396	26
250.655	28
251.913	30.5
253.17	27
254.427	31
255.686	26
256.943	29.5
258.199	24
259.456	27.5
260.712	26
261.969	32
263.225	28
264.481	29
265.736	27
266.991	29.5
268.246	30
269.502	27
270.757	30
272.011	29.5
273.265	32
274.519	28
275.773	26.5
277.027	28
278.28	32
279.533	27.5
280.786	27
282.04	30
283.293	28.5
284.545	31.5
285.798	26
287.049	29.5
288.301	30
289.553	26
290.804	31
292.055	27
293.306	25
294.557	26.5
295.807	30.5
297.058	29
298.308	28
299.558	32.5
300.808	27.5
302.057	30
303.305	31
304.554	23.5
305.803	27
307.052	28
308.3	32.5
309.549	29.5
310.797	30
312.045	26
313.292	31.5
314.54	24.5
315.786	25
317.033	26
318.28	32
319.526	25
320.773	29.5
322.019	29.5
323.264	30.5
324.51	29
325.755	31
327.001	30.5
328.246	29.5
329.49	25
330.735	31.5
331.979	26.5
333.224	29.5
334.467	28
335.711	29.5
336.955	28.5
338.199	30.5
339.441	29.5
340.684	26
341.927	27
343.168	27
344.411	32
345.654	31.5
346.895	28
348.137	25.5
349.379	26
350.619	27.5
351.86	27
353.102	28
354.341	35.5
355.582	31
356.821	30
358.062	27.5
359.302	30
360.541	29
361.781	27.5
363.019	28.5
364.259	28
365.496	31.5
366.736	31
367.974	30
369.212	25
370.45	28
371.687	31.5
372.925	26.5
374.162	26.5
375.399	27.5
376.635	26
377.873	28
379.109	29.5
380.344	24.5
381.581	31
382.816	29.5
384.052	29
385.287	25
386.523	27.5
387.757	25.5
388.991	28.5
390.227	27
391.46	30
392.695	27.5
393.928	27.5
395.162	27
396.396	29
397.629	28.5
398.861	30.5
400.095	26
401.327	25.5
402.559	29.5
403.792	26
405.024	28.5
406.255	25
407.488	29.5
408.719	29
409.949	29
411.18	26
412.412	25
413.642	28.5
414.872	27.5
416.102	27
417.333	28
418.562	27.5
419.791	27.5
421.02	27
422.249	27
423.479	24
424.707	26.5
425.935	25
427.163	26
428.391	26.5
429.619	29
430.848	26
432.075	27
433.302	32
434.529	30.5
435.755	26
436.982	31
438.208	30.5
439.434	31
440.66	31
441.885	32
443.111	28.5
444.338	29.5
445.563	29.5
446.788	32
448.012	30.5
449.237	29
450.461	30.5
451.685	26
452.909	29.5
454.133	32
455.356	29
456.579	27.5
457.802	31.5
459.025	31
460.247	30.5
461.469	33.5
462.691	26
463.914	30
465.136	29
466.357	32
467.579	27
468.8	29
470.021	32
471.242	36
472.462	35
473.682	35.5
474.903	38
476.123	37.5
477.343	39
478.563	40
479.782	42
481	47
482.219	51
483.438	53.5
484.657	52.5
485.874	51
487.093	50.5
488.311	57.5
489.529	51
490.747	50.5
491.963	53.5
493.181	47
494.398	51
495.614	48.5
496.83	48.5
498.047	42
499.264	44
500.479	36.5
501.695	41.5
502.911	39
504.125	37.5
505.34	38.5
506.554	34
507.769	38
508.984	34.5
510.198	33.5
511.412	36
512.627	34.5
513.839	29
515.053	34.5
516.266	33
517.479	34
518.691	32.5
519.905	29.5
521.118	32.5
522.329	32.5
523.542	27.5
524.753	29.5
525.965	31.5
527.176	28.5
528.388	34
529.598	31.5
530.809	31
532.019	28.5
533.23	30.5
534.44	29
535.649	28
536.86	26.5
538.068	29
539.279	30.5
540.487	27.5
541.697	30
542.905	34
544.113	27.5
545.322	30
546.53	25.5
547.737	28.5
548.946	32
550.153	26
551.361	30.5
552.568	28
553.774	29
554.982	27
556.188	26
557.394	30
558.599	26.5
559.806	26
561.012	31.5
562.217	29
563.423	29
564.628	29
565.832	26
567.036	30
568.241	27
569.446	30
570.65	27.5
571.853	29
573.057	28
574.26	29
575.464	28
576.667	28.5
577.87	26.5
579.072	28.5
580.274	28
581.477	28.5
582.68	30
583.881	27
585.083	27.5
586.284	26.5
587.485	28.5
588.686	23
589.887	30.5
591.087	27.5
592.288	27.5
593.488	28.5
594.688	24
595.888	31.5
597.087	31.5
598.287	24
599.486	30
600.685	25
601.884	29
603.082	24.5
604.281	28
605.479	29
606.677	28.5
607.875	27
609.073	28.5
610.27	27.5
611.468	33
612.665	26.5
613.862	30.5
615.058	26
616.255	31
617.451	26.5
618.648	32
619.842	24.5
621.038	27
622.234	20
623.429	31.5
624.624	31.5
625.819	30
627.013	31
628.207	28
629.402	30
630.596	28.5
631.79	28
632.983	28
634.177	28.5
635.37	27
636.564	28
637.755	24
638.948	27
640.141	29.5
641.334	30.5
642.525	26
643.717	30
644.909	28
646.099	29.5
647.291	27.5
648.483	33.5
649.674	23
650.864	29.5
652.055	30.5
653.244	30.5
654.435	26.5
655.625	29.5
656.814	31.5
658.004	25
659.193	28.5
660.382	31.5
661.571	31
662.759	28
663.948	27.5
665.135	21
666.324	25.5
667.511	31
668.7	28
669.886	31
671.074	28.5
672.262	32.5
673.448	27
674.634	31
675.821	30.5
677.007	31
678.194	28
679.379	32
680.565	32
681.75	31
682.936	28.5
684.121	29
685.305	33.5
686.491	33.5
687.675	31
688.86	36
690.043	32.5
691.227	33.5
692.411	32
693.594	32.5
694.777	34
695.961	32
697.144	37.5
698.326	33.5
699.509	36.5
700.691	33
701.873	40.5
703.056	36
704.237	39.5
705.419	42
706.599	46
707.782	45.5
708.962	51
710.143	45
711.323	39
712.504	40
713.684	37.5
714.864	33.5
716.043	32
717.223	35.5
718.403	29
719.582	32.5
720.761	30
721.94	32
723.118	29
724.296	30
725.474	27
726.652	28.5
727.831	23
729.009	28.5
730.186	28.5
731.363	28.5
732.54	25
733.717	34
734.893	28.5
736.07	26.5
737.246	24.5
738.422	26.5
739.598	26.5
740.773	24.5
741.949	25
743.124	30.5
744.299	29
745.474	26.5
746.649	28.5
747.823	29.5
748.997	25.5
750.172	33.5
751.346	31
752.519	24
753.693	27
754.867	28.5
756.038	30
757.211	25.5
758.384	28.5
759.557	26.5
760.73	27.5
761.902	28.5
763.074	23.5
764.246	29.5
765.417	32
766.588	29.5
767.76	30.5
768.931	27
770.102	27
771.271	30
772.442	29
773.613	29.5
774.783	26
775.952	25.5
777.122	31
778.291	29
779.461	30.5
780.629	29
781.798	33
782.967	33.5
784.135	32.5
785.304	28
786.472	27.5
787.639	32
788.807	29
789.975	32
791.142	27.5
792.309	31.5
793.477	27.5
794.642	28.5
795.81	29
796.975	29
798.142	30
799.308	33.5
800.473	27.5
801.639	28.5
802.804	28
803.97	30
805.134	25
806.299	28
807.463	26.5
808.628	27.5
809.792	28.5
810.957	29
812.12	32.5
813.284	31
814.447	31.5
815.611	31
816.773	26
817.937	25
819.099	27.5
820.261	27
821.424	30
822.585	28
823.748	27.5
824.909	27
826.07	25.5
827.232	30.5
828.393	27.5
829.554	25.5
830.715	26
831.875	30
833.035	27
834.196	28
835.356	22.5
836.515	27.5
837.676	27.5
838.835	28
839.994	27
841.152	26
842.312	29
843.47	25
844.629	22.5
845.786	27
846.946	30
848.103	25
849.261	27.5
850.418	26.5
851.575	30.5
852.733	27
853.89	28
855.046	27
856.203	26
857.359	27.5
858.515	29
859.67	30.5
860.827	28.5
861.983	31.5
863.138	27
864.293	31.5
865.448	25
866.603	30.5
867.757	25.5
868.912	28
870.066	24.5
871.22	31
872.374	24.5
873.527	29
874.681	29.5
875.834	31.5
876.987	29
878.14	28
879.293	27.5
880.445	28
881.598	30.5
882.75	25
883.902	27.5
885.054	28
886.206	27
887.357	30
888.507	29
889.658	29.5
890.809	22.5
891.96	25.5
893.111	25
894.261	24.5
895.411	27
896.561	26.5
897.71	25
898.86	32
900.009	26.5
901.159	26
902.308	30
903.455	28
904.604	28
905.753	30.5
906.901	26
908.048	24.5
909.197	29
910.344	30
911.492	25.5
912.639	28
913.786	24.5
914.933	25.5
916.079	29.5
917.226	26.5
918.373	27
919.518	27.5
920.664	28
921.81	26
922.955	24.5
924.101	27
925.245	28
926.391	23.5
927.536	24
928.68	23
929.825	26.5
930.968	27
932.113	28
933.256	27.5
934.4	26
935.543	25
936.687	27
937.83	24
938.973	29
940.115	28
941.258	27
942.399	26.5
943.542	27
944.684	27.5
945.826	29.5
946.967	28
948.109	24
949.25	23.5
950.392	27.5
951.532	27
952.672	27.5
953.813	25.5
954.953	26
956.093	27
957.233	24
958.373	29
959.512	26
960.652	26
961.791	26
962.929	30.5
964.069	28.5
965.207	23
966.345	26
967.484	25
968.622	22.5
969.759	24.5
970.896	26.5
972.035	27.5
973.172	25.5
974.309	28
975.445	25.5
976.582	27
977.719	28.5
978.855	29.5
979.991	24
981.127	27
982.263	32
983.398	28
984.535	29
985.67	26
986.804	26
987.939	26
989.074	26
990.208	28.5
991.342	24
992.476	25
993.61	28
994.744	29.5
995.877	26.5
997.01	23
998.143	29.5
999.276	25.5
1000.41	25
1001.54	22.5
1002.67	28.5
1003.81	25
1004.94	26.5
1006.07	24
1007.2	26.5
1008.33	24
1009.47	24.5
1010.6	25
1011.73	24
1012.86	25
1013.99	25
1015.12	23.5
1016.25	23.5
1017.38	23
1018.51	29.5
1019.64	24.5
1020.77	29.5
1021.9	26
1023.03	24
1024.15	28.5
1025.28	28
1026.41	28
1027.54	26.5
1028.67	24
1029.8	24
1030.92	24
1032.05	23.5
1033.18	25.5
1034.31	27
1035.43	27.5
1036.56	27.5
1037.69	24
1038.81	26
1039.94	26.5
1041.07	22.5
1042.19	23
1043.32	26
1044.44	24
1045.57	25
1046.69	24
1047.82	27
1048.94	21
1050.07	27
1051.19	25
1052.32	28.5
1053.44	24
1054.57	25.5
1055.69	24.5
1056.81	25.5
1057.94	26.5
1059.06	25
1060.18	22
1061.31	28
1062.43	23.5
1063.55	29
1064.67	25
1065.8	30
1066.92	25.5
1068.04	27.5
1069.16	27.5
1070.28	23.5
1071.4	23
1072.52	27.5
1073.64	22.5
1074.76	28
1075.89	24.5
1077.01	25
1078.13	22
1079.25	27
1080.37	26.5
1081.49	25.5
1082.6	23
1083.72	23
1084.84	26
1085.96	25
1087.08	26.5
1088.2	26.5
1089.32	27
1090.43	25.5
1091.55	25
1092.67	25
1093.79	26.5
1094.91	27.5
1096.02	27
1097.14	23
1098.26	26
1099.37	30
1100.49	24
1101.61	27
1102.72	22
1103.84	24
1104.95	24.5
1106.07	26
1107.18	27.5
1108.3	24.5
1109.41	25
1110.53	24
1111.64	22.5
1112.76	23
1113.87	21
1114.99	25
1116.1	23.5
1117.21	24
1118.33	23
1119.44	29
1120.55	25.5
1121.67	27.5
1122.78	25.5
1123.89	27
1125	29
1126.12	26
1127.23	24
1128.34	22
1129.45	23.5
1130.56	25.5
1131.68	27.5
1132.79	25.5
1133.9	26.5
1135.01	24
1136.12	24
1137.23	27.5
1138.34	21.5
1139.45	24
1140.56	28
1141.67	25
1142.78	22
1143.89	24.5
1145	22
1146.11	25.5
1147.22	30.5
1148.32	28
1149.43	27.5
1150.54	24.5
1151.65	27
1152.76	27
1153.86	21.5
1154.97	26
1156.08	23
1157.19	24
1158.29	26.5
1159.4	24
1160.51	24.5
1161.61	27
1162.72	25
1163.83	25
1164.93	28
1166.04	25
1167.14	23.5
1168.25	24
1169.35	28
1170.46	24.5
1171.56	24.5
1172.67	25
1173.77	24
1174.88	24
1175.98	21
1177.08	25.5
1178.19	21.5
1179.29	29.5
1180.4	24.5
1181.5	26.5
1182.6	23
1183.71	25
1184.81	24
1185.91	24.5
1187.01	25.5
1188.12	22.5
1189.22	23.5
1190.32	28
1191.42	25.5
1192.52	25.5
1193.62	27
1194.72	21.4929
1195.83	23.9892
1196.93	20.682
1198.03	23.1395
1199.13	23.0304
1200.23	28.2763
1201.33	24.882
1202.43	22.0226
1203.53	25.0174
1204.63	24.7087
1205.73	23.0086
1206.83	24.5625
1207.92	22.8655
1209.02	24.0199
1210.12	26.2474
1211.22	25.9947
1212.32	28.2432
1213.42	26.7283
1214.51	24.0648
1215.61	22.6877
1216.71	25.7917
1217.81	22.164
1218.9	24.1706
1220	25.7373
1221.1	25.6314
1222.19	24.3529
1223.29	24.1371
1224.39	25.742
1225.48	24.0568
1226.58	28.5059
1227.68	24.7876
1228.77	25.52
1229.87	26.8979
1230.96	26.2885
1232.06	22.9788
1233.15	22.8934
1234.25	24.2178
1235.34	24.9734
1236.43	22.675
1237.53	23.8807
1238.62	24.3756
1239.72	23.2879
1240.81	22.6961
1241.9	26.3578
1243	24.7016
1244.09	24.292
1245.18	23.6692
1246.27	23.8365
1247.37	22.4612
1248.46	25.7148
1249.55	23.6903
1250.64	22.8036
1251.74	22.2639
1252.83	27.6273
1253.92	24.3238
1255.01	26.4706
1256.1	26.3562
1257.19	24.3382
1258.28	29.2481
1259.38	27.7714
1260.46	26.4684
1261.56	25.6869
1262.65	27.1413
1263.74	26.2057
1264.82	24.9311
1265.91	26.4056
1267	23.0099
1268.09	24.7196
1269.18	24.7103
1270.27	23.6346
1271.36	26.4021
1272.45	24.9549
1273.54	25.7039
1274.63	25.4272
1275.71	24.1025
1276.8	25.3912
1277.89	21.784
1278.98	25.8121
1280.06	26.1288
1281.15	24.5596
1282.24	25.5279
1283.32	26.8033
1284.41	24.669
1285.5	25.284
1286.58	25.1796
1287.67	24.7451
1288.76	24.8109
1289.84	25.9807
1290.93	25.104
1292.01	24.1354
1293.1	25.1224
1294.18	25.2209
1295.27	21.7848
1296.35	20.5838
1297.44	26.2846
1298.52	23.9853
1299.6	24.5674
1300.69	27.1098
1301.77	27.494
1302.86	24.955
1303.94	24.6493
1305.02	22.1857
1306.11	26.0124
1306.41	28
1307.5	25
1308.59	27
1309.68	22.5
1310.77	20.5
1311.85	22
1312.94	29
1314.03	24
1315.11	23.5
1316.2	23
1317.29	23
1318.37	23
1319.46	20.5
1320.55	25
1321.63	25
1322.72	24
1323.8	21
1324.89	26
1325.98	23
1327.06	24
1328.15	26.5
1329.23	23.5
1330.31	21.5
1331.4	23.5
1332.48	23.5
1333.57	22.5
1334.65	24.5
1335.74	26.5
1336.82	26
1337.9	25.5
1338.99	28.5
1340.07	23
1341.15	24
1342.24	27
1343.32	24
1344.4	22.5
1345.48	28
1346.56	22
1347.65	23
1348.73	26
1349.81	27
1350.89	22.5
1351.97	25.5
1353.05	25
1354.13	23
1355.21	28
1356.29	22.5
1357.37	24
1358.46	27.5
1359.54	28
1360.62	24
1361.69	24.5
1362.77	24
1363.85	25.5
1364.93	21.5
1366.01	24
1367.09	24.5
1368.17	27
1369.25	24
1370.33	24.5
1371.41	26.5
1372.48	23
1373.56	28
1374.64	27
1375.72	28
1376.79	30
1377.87	24.5
1378.95	28.5
1380.02	25.5
1381.1	27.5
1382.18	23.5
1383.25	26.5
1384.33	23
1385.4	28
1386.48	19
1387.56	27
1388.63	26
1389.71	26
1390.78	25.5
1391.86	27.5
1392.93	23.5
1394.01	27.5
1395.08	26
1396.15	26
1397.23	28.5
1398.3	30
1399.38	29.5
1400.45	25.5
1401.52	27.5
1402.6	26
1403.67	29.5
1404.74	28
1405.81	29.5
1406.89	32
1407.96	27.5
1409.03	25
1410.1	28
1411.17	29
1412.25	29.5
1413.32	30.5
1414.39	33.5
1415.46	26.5
1416.53	27.5
1417.6	30.5
1418.67	27.5
1419.74	26.5
1420.81	29
1421.88	29.5
1422.95	21
1424.02	25
1425.09	27
1426.16	23.5
1427.23	27.5
1428.3	21
1429.37	21.5
1430.44	24
1431.51	27.5
1432.58	26.5
1433.64	23.5
1434.71	30
1435.78	27.5
1436.85	21.5
1437.92	27
1438.98	19
1440.05	25
1441.12	25
1442.18	28
1443.25	25.5
1444.32	27
1445.38	26
1446.45	27
1447.52	26
1448.58	28.5
1449.65	28.5
1450.71	25.5
1451.78	25.5
1452.84	27
1453.91	23
1454.97	25
1456.04	28.5
1457.1	23
1458.17	23
1459.23	26.5
1460.3	22.5
1461.36	24
1462.42	24
1463.49	27.5
1464.55	26.5
1465.61	25.5
1466.68	27
1467.74	29
1468.8	26.5
1469.86	23.5
1470.93	24
1471.99	28.5
1473.05	25
1474.11	28.5
1475.17	23.5
1476.24	25
1477.3	29
1478.36	26.5
1479.42	24
1480.48	28.5
1481.54	26
1482.6	24
1483.66	31
1484.72	26
1485.78	25.5
1486.84	27.5
1487.9	29
1488.96	24.5
1490.02	28.5
1491.08	21.5
1492.14	25.5
1493.2	29
1494.26	28
1495.31	24.5
1496.37	24.5
1497.43	26.5
1498.49	21
1499.55	26
1500.6	28.5
1501.66	26
1502.72	27
1503.78	26
1504.83	28
1505.89	24.5
1506.95	27
1508	24.5
1509.06	26
1510.12	24
1511.17	23
1512.23	29.5
1513.28	25.5
1514.34	28
1515.39	23.5
1516.45	24.5
1517.5	20.5
1518.56	24.5
1519.61	22.5
1520.67	25
1521.72	26.5
1522.78	25
1523.83	25.5
1524.88	22.5
1525.94	24.5
1526.99	26.5
1528.05	25
1529.1	21.5
1530.15	20
1531.2	24.5
1532.26	28.5
1533.31	22.5
1534.36	26.5
1535.41	27.5
1536.47	28
1537.52	27.5
1538.57	25
1539.62	21
1540.67	30
1541.72	25
1542.77	24
1543.83	28
1544.88	25
1545.93	23.5
1546.98	25
1548.03	22
1549.08	24.5
1550.13	25
1551.18	26.5
1552.23	27.5
1553.28	25
1554.32	25.5
1555.37	26
1556.42	26.5
1557.47	27
1558.52	26
1559.57	27.5
1560.62	26
1561.67	27
1562.71	26
1563.76	26
1564.81	24.5
1565.86	27
1566.9	26
1567.95	28.5
1569	27
1570.04	19.5
1571.09	25.5
1572.14	23.5
1573.18	29
1574.23	30
1575.27	25
1576.32	25
1577.37	26
1578.41	25
1579.46	24
1580.5	25
1581.55	25
1582.59	25.5
1583.64	23.5
1584.68	26.5
1585.72	26.5
1586.77	28
1587.81	26
1588.86	24
1589.9	24.5
1590.94	26.5
1591.99	22
1593.03	28.5
1594.07	28
1595.12	26.5
1596.16	26
1597.2	26
1598.24	28.5
1599.29	23.5
1600.33	25
1601.37	28
1602.41	23
1603.45	27
1604.49	23
1605.53	23.5
1606.58	26.5
1607.62	29
1608.66	23
1609.7	23.5
1610.74	27.5
1611.78	25
1612.82	23.5
1613.86	27
1614.9	24
1615.94	25.5
1616.98	25
1618.02	29.5
1619.06	23
1620.09	25.5
1621.13	24
1622.17	24
1623.21	30
1624.25	23.5
1625.29	25
1626.32	23
1627.36	27.5
1628.4	24.5
1629.44	29
1630.47	23.5
1631.51	24
1632.55	25
1633.58	27
1634.62	29.5
1635.66	24
1636.69	25.5
1637.73	23
1638.77	25.5
1639.8	27.5
1640.84	27
1641.87	25
1642.91	24.5
1643.94	26
1644.98	24.5
1646.01	22
1647.05	28.5
1648.08	26
1649.12	27
1650.15	27
1651.18	26
1652.22	26
1653.25	26
1654.29	26
1655.32	26
1656.35	28.5
1657.39	23.5
1658.42	24.5
1659.45	26.5
1660.48	26
1661.52	21
1662.55	24.5
1663.58	24.5
1664.61	26
1665.64	23.5
1666.68	26.5
1667.71	25
1668.74	26
1669.77	23.5
1670.8	22.5
1671.83	26
1672.86	26
1673.89	26.5
1674.92	26
1675.95	20
1676.98	26.5
1678.01	28.5
1679.04	24.5
1680.07	24.5
1681.1	25.5
1682.13	28
1683.16	23.5
1684.19	24.5
1685.22	26.5
1686.25	25
1687.27	28
1688.3	24
1689.33	29.5
1690.36	30
1691.38	26.5
1692.41	25
1693.44	25.5
1694.47	27
1695.49	23.5
1696.52	25.5
1697.55	24
1698.57	27
1699.6	28
1700.63	24
1701.65	25
1702.68	23
1703.7	29
1704.73	26
1705.76	28.5
1706.78	27.5
1707.81	25.5
1708.83	27
1709.86	24
1710.88	26
1711.91	26
1712.93	24
1713.95	24
1714.98	23
1716	27
1717.03	25
1718.05	24
1719.07	24
1720.1	28
1721.12	25.5
1722.14	26
1723.16	25.5
1724.19	26.5
1725.21	30.5
1726.23	25.5
1727.25	26.5
1728.28	29
1729.3	27
1730.32	21
1731.34	26
1732.36	26
1733.38	22.5
1734.41	26
1735.43	23
1736.45	26
1737.47	24.5
1738.49	24
1739.51	28
1740.53	25
1741.55	21.5
1742.57	27.5
1743.59	21.5
1744.61	26
1745.63	22
1746.64	25
1747.66	25
1748.68	29.5
1749.7	27
1750.72	27
1751.74	27.5
1752.76	25.5
1753.77	22.5
1754.79	25.5
1755.81	29.5
1756.83	26
1757.84	24
1758.86	23
1759.88	27
1760.9	23
1761.91	27
1762.93	27.5
1763.95	24.5
1764.96	26
1765.98	25.5
1766.99	27.5
1768.01	28
1769.02	21
1770.04	25.5
1771.06	24
1772.07	24
1773.09	24
1774.1	25
1775.12	24.5
1776.13	30
1777.14	25.5
1778.16	25
1779.17	23
1780.19	27.5
1781.2	24
1782.21	24
1783.23	28.5
1784.24	23.5
1785.25	24
1786.27	24
1787.28	21.5
1788.29	28.5
1789.3	23
1790.32	20.5
1791.33	28
1792.34	23.5
1793.35	27
1794.36	27
1795.38	25
1796.39	24
1797.4	24.5
1798.41	24
1799.42	27.5
1800.43	23
1801.44	27
1802.45	27.5
1803.46	24
1804.47	26
1805.48	25.5
1806.49	27
1807.5	26
1808.51	23.5
1809.52	25
1810.53	26
1811.54	27
1812.55	26
1813.56	25.5
1814.57	25.5
1815.57	29
1816.58	25.5
1817.59	24
1818.6	27
1819.61	23
1820.61	26
1821.62	28.5
1822.63	25
1823.64	25.5
1824.64	25.5
1825.65	24.5
1826.66	25.5
1827.66	26
1828.67	25.5
1829.68	28.5
1830.68	24
1831.69	22
1832.69	26.5
1833.7	25
1834.7	23
1835.71	21.5
1836.71	24
1837.72	27
1838.72	26
1839.73	25.5
1840.73	24
1841.74	23.5
1842.74	26.5
1843.75	28
1844.75	24.5
1845.75	26.5
1846.76	22
1847.76	24.5
1848.76	30.5
1849.77	25.5
1850.77	23.5
1851.77	24.5
1852.78	25
1853.78	25.5
1854.78	29
1855.78	26
1856.78	26
1857.79	28
1858.79	27.5
1859.79	27.5
1860.79	27
1861.79	24.5
1862.79	24
1863.79	24
1864.79	26
1865.79	27
1866.8	21.5
1867.8	20
1868.8	25
1869.8	26
1870.8	28.5
1871.8	25
1872.8	25
1873.79	24.5
1874.79	24
1875.79	25.5
1876.79	24
1877.79	26.5
1878.79	22
1879.79	24.5
1880.79	25
1881.78	26.5
1882.78	25.5
1883.78	27
1884.78	21.5
1885.77	22
1886.77	23
1887.77	20
1888.77	27
1889.76	23
1890.76	23.5
1891.76	27
1892.75	27.5
1893.75	26.5
1894.75	28
1895.74	20.5
1896.74	26.5
1897.73	29
1898.73	25
1899.73	26
1900.72	24.5
1901.72	28.5
1902.71	28
1903.7	26
1904.7	25.5
1905.69	24
1906.69	25.5
1907.68	20
1908.68	26.5
1909.67	23
1910.66	27.5
1911.66	25
1912.65	28
1913.64	23
1914.64	23
1915.63	25.5
1916.62	28
1917.62	29
1918.61	27
1919.6	19.5
1920.59	25.5
1921.58	25
1922.58	26
1923.57	23.5
1924.56	23.5
1925.55	25.5
1926.54	27
1927.53	27.5
1928.52	25.5
1929.51	25
1930.51	21.5
1931.5	22.5
1932.49	26.5
1933.48	19.5
1934.47	24
1935.46	25.5
1936.45	21
1937.44	27
1938.42	25.5
1939.41	28
1940.4	23
1941.39	27
1942.38	24.5
1943.37	25.5
1944.36	26.5
1945.35	24.5
1946.33	23
1947.32	24.5
1948.31	24.25
1949.3	22.5
1950.29	25.5
1951.27	26
1952.26	23.5
1953.25	23.5
1954.23	26
1955.22	24.5
1956.21	23.5
1957.19	23.5
1958.18	26
1959.17	26.5
1960.15	24.5
1961.14	26.5
1962.13	26.5
1963.11	25
1964.1	28
1965.08	25.5
1966.07	23
1967.05	21.5
1968.04	24.5
1969.02	29
1970.01	25.5
1970.99	22
1971.97	25
1972.96	25
1973.94	24
1974.93	25.5
1975.91	21
1976.89	23.5
1977.88	26
1978.86	27
1979.84	24
1980.83	25
1981.81	27
1982.79	21
1983.77	26.5
1984.76	22
1985.74	24
1986.72	22.5
1987.7	23.5
1988.68	27.5
1989.67	26
1990.65	24
1991.63	24.5
1992.61	23.5
1993.59	30
1994.57	26.5
1995.55	25.5
1996.53	28.5
1997.51	25
1998.49	25
1999.47	24.5
2000.45	26.5
2001.43	24.5
2002.41	23.5
2003.39	21.5
2004.37	23
2005.35	28.5
2006.33	23.5
2007.31	21.5
2008.29	23
2009.26	24
2010.24	25
2011.22	24
2012.2	23.5
2013.18	24
2014.15	26
2015.13	22.5
2016.11	25
2017.09	21.5
2018.06	23.5
2019.04	22
2020.02	24.5
2021	21.5
2021.97	23
2022.95	25.5
2023.92	27.5
2024.9	23
2025.88	23
2026.85	27
2027.83	23
2028.8	23
2029.78	23
2030.75	25
2031.73	23
2032.7	25
2033.68	25.5
2034.65	22
2035.63	23.5
2036.6	22
2037.58	26.5
2038.55	27.5
2039.52	27.5
2040.5	23.5
2041.47	20.5
2042.45	19
2043.42	25.5
2044.39	24
2045.36	25
2046.34	23
2047.31	23
2048.28	26
2049.26	26.5
2050.23	26
2051.2	21
2052.17	26
2053.14	27
2054.12	21
2055.09	21.5
2056.06	25.5
2057.03	25.5
2058	20
2058.97	24.5
2059.94	25.5
2060.91	23.5
2061.88	23.5
2062.85	23
2063.82	26
2064.79	22
2065.76	24.5
2066.73	24
2067.7	25.5
2068.67	23.5
2069.64	26
2070.61	25
2071.58	22.5
2072.55	24
2073.52	26.5
2074.49	26
2075.45	22
2076.42	23
2077.39	26
2078.36	25.5
2079.33	24
2080.29	26.5
2081.26	22.5
2082.23	24
2083.2	23
2084.16	26
2085.13	22
2086.1	26
2087.06	24
2088.03	23.5
2089	26
2089.96	23.5
2090.93	20
2091.89	26
2092.86	23.5
2093.83	20.5
2094.79	24.5
2095.76	22.5
2096.72	23
2097.69	22.5
2098.65	24.5
2099.62	24
2100.58	24
2101.55	19.5
2102.51	25
2103.47	21.5
2104.44	22
2105.4	22.5
2106.36	20
2107.33	25
2108.29	23
2109.25	25
2110.22	22
2111.18	28
2112.14	24.5
2113.11	25
2114.07	24
2115.03	22.5
2115.99	25
2116.96	28.5
2117.92	24.5
2118.88	26.5
2119.84	26
2120.8	24.5
2121.76	24
2122.72	26
2123.68	21
2124.65	24
2125.61	22
2126.57	23
2127.53	25
2128.49	21
2129.45	19
2130.41	25
2131.37	23
2132.33	24
2133.29	24
2134.25	26
2135.21	29
2136.17	24.5
2137.12	25
2138.08	21.5
2139.04	24
2140	25.5
2140.96	21.5
2141.92	25
2142.88	26.9695
2143.83	19.0089
2144.79	22.554
2145.75	26.4058
2146.71	22.0437
2147.66	21.587
2148.62	24.8649
2149.58	21.0365
2150.53	24.3762
2151.49	23.9189
2152.45	24.338
2153.4	26.7743
2154.36	24.5834
2155.32	24.4559
2156.27	22.0973
2157.23	22.0871
2158.19	22.6796
2159.14	22.6602
2160.1	23.1562
2161.05	22.7118
2162.01	22.037
2162.96	21.832
2163.92	21.6418
2164.87	24.3397
2165.83	23.8015
2166.78	24.396
2167.73	19.6524
2168.69	22.5741
2169.64	25.5421
2170.6	25.616
2171.55	23.7121
2172.5	20.8136
2173.46	24.0267
2174.41	23.7336
2175.36	24.1675
2176.32	22.0356
2177.27	21.1364
2178.22	22.039
2179.18	19.7425
2180.13	23.2393
2181.08	24.7579
2182.03	23.2579
2182.98	22.0882
2183.94	23.4152
2184.89	23.2718
2185.84	21.955
2186.79	24.0918
2187.74	22.9453
2188.69	22.801
2189.64	22.1608
2190.6	25.139
2191.55	23.7648
2192.5	24.2606
2193.45	23.0777
2194.4	23.3175
2195.35	20.6917
2196.3	21.1299
2197.25	21.4404
2198.2	25.2436
2199.15	21.3302
2200.1	23.4372
2201.04	21.9025
2201.99	22.3199
2202.94	24.4822
2203.89	21.408
2204.84	22.8339
2205.79	23.1973
2206.74	22.5178
2207.69	25.0474
2208.63	23.022
2209.58	19.044
2210.53	24.0762
2211.48	21.0837
2212.43	23.8808
2213.37	22.0643
2214.32	23.7238
2215.27	23.6879
2216.21	21.9805
2217.16	21.76
2218.11	24.3647
2219.05	22.8454
2220	24.6804
2220.95	22.1701
2221.89	23.442
2222.84	23.7039
2223.78	24.5947
2224.73	20.2768
2225.68	21.6741
2226.62	23.3599
2227.57	25.8679
2228.51	21.7149
2229.46	22.8327
2230.4	22.349
2231.35	21.8161
2232.29	23.2677
2233.24	20.718
2234.18	23.1732
2235.12	23.5724
2236.07	26.1262
2237.01	24.2921
2237.95	24.2321
2238.9	21.446
2239.84	23.9441
2240.06	25
2241.01	23.5
2241.96	27
2242.91	24
2243.86	26
2244.8	25.5
2245.75	25
2246.7	22
2247.65	21.5
2248.59	25
2249.54	25
2250.49	23
2251.43	21
2252.38	23
2253.33	25
2254.27	20.5
2255.22	26.5
2256.16	23.5
2257.11	23
2258.06	21
2259	25
2259.95	22.5
2260.89	24.5
2261.84	24.5
2262.78	20.5
2263.73	26
2264.67	22
2265.62	20
2266.56	23
2267.5	24.5
2268.45	25.5
2269.39	26.5
2270.34	22.5
2271.28	29.5
2272.22	23.5
2273.17	25
2274.11	26.5
2275.05	20
2276	24
2276.94	21
2277.88	23
2278.82	25.5
2279.77	25
2280.71	23
2281.65	23.5
2282.59	24
2283.53	22.5
2284.48	21.5
2285.42	18
2286.36	27
2287.3	24
2288.24	25
2289.18	24
2290.12	25
2291.06	22.5
2292	25.5
2292.94	24
2293.89	21
2294.83	25
2295.77	22.5
2296.71	23
2297.65	22
2298.58	24
2299.52	24
2300.46	20.5
2301.4	22
2302.34	24
2303.28	19.5
2304.22	24
2305.16	23
2306.1	21.5
2307.03	24
2307.97	25.5
2308.91	24
2309.85	26
2310.79	23.5
2311.72	26
2312.66	22.5
2313.6	23
2314.54	25.5
2315.47	23.5
2316.41	22
2317.35	23
2318.28	25
2319.22	24.5
2320.16	25
2321.09	23.5
2322.03	21
2322.96	24.5
2323.9	24.5
2324.84	23.5
2325.77	24.5
2326.71	24
2327.64	26
2328.58	22
2329.51	22.5
2330.45	25.5
2331.38	22
2332.32	22
2333.25	27
2334.18	29.5
2335.12	28
2336.05	21
2336.99	23
2337.92	19.5
2338.85	22.5
2339.79	23
2340.72	18
2341.65	22
2342.59	27
2343.52	24
2344.45	25.5
2345.39	24.5
2346.32	24.5
2347.25	22.5
2348.18	22
2349.11	25.5
2350.05	26.5
2350.98	25.5
2351.91	27.5
2352.84	24
2353.77	22.5
2354.7	24
2355.64	27.5
2356.57	25.5
2357.5	27
2358.43	24
2359.36	22.5
2360.29	21
2361.22	24.5
2362.15	23
2363.08	25.5
2364.01	23
2364.94	27
2365.87	22.5
2366.8	29
2367.73	23
2368.66	24
2369.58	25
2370.51	18
2371.44	28
2372.37	23
2373.3	23.5
2374.23	20
2375.16	22
2376.08	25.5
2377.01	26.5
2377.94	24.5
2378.87	23.5
2379.8	26
2380.72	26
2381.65	24
2382.58	22.5
2383.5	25.5
2384.43	21
2385.36	23
2386.28	25
2387.21	27.5
2388.14	23
2389.06	25
2389.99	23.5
2390.91	22.5
2391.84	24
2392.77	25.5
2393.69	24.5
2394.62	26
2395.54	26.5
2396.47	25
2397.39	24
2398.32	27.5
2399.24	27
2400.16	28
2401.09	22.5
2402.01	22.5
2402.94	24
2403.86	22
2404.78	23.5
2405.71	26
2406.63	21.5
2407.56	25.5
2408.48	26
2409.4	23
2410.32	25
2411.25	22.5
2412.17	28.5
2413.09	25.5
2414.02	29.5
2414.94	22.5
2415.86	27
2416.78	24
2417.7	26.5
2418.63	27
2419.55	24
2420.47	24
2421.39	24
2422.31	22
2423.23	25
2424.15	22
2425.07	23
2425.99	29
2426.92	23
2427.84	24.5
2428.76	21.5
2429.68	28
2430.59	20
2431.51	26.5
2432.43	27
2433.35	24
2434.27	21.5
2435.19	25
2436.11	28
2437.03	30.5
2437.95	29
2438.87	19.5
2439.79	26
2440.71	25.5
2441.62	25
2442.54	22
2443.46	25
2444.38	22
2445.3	22.5
2446.21	24.5
2447.13	24
2448.05	24.5
2448.97	23
2449.88	21
2450.8	25.5
2451.72	21
2452.63	25
2453.55	28.5
2454.47	24
2455.38	23.5
2456.3	22.5
2457.21	22.5
2458.13	25.5
2459.05	24.5
2459.96	24
2460.88	24.5
2461.79	21
2462.71	23.5
2463.62	27
2464.54	19.5
2465.45	27
2466.37	22
2467.28	25
2468.2	24.5
2469.11	22.5
2470.02	24
2470.94	25.5
2471.85	24.5
2472.77	23.5
2473.68	28.5
2474.59	26.5
2475.51	27
2476.42	26
2477.33	26.5
2478.25	23
2479.16	24.5
2480.07	24.5
2480.98	24
2481.9	27
2482.81	24
2483.72	24
2484.63	27
2485.55	22.5
2486.46	25
2487.37	24
2488.28	22
2489.19	22
2490.1	24.5
2491.01	21
2491.92	28.5
2492.83	27.5
2493.74	23.5
2494.66	26
2495.57	24
2496.48	24
2497.39	24
2498.3	25
2499.21	25
2500.12	24.5
2501.03	25
2501.93	24.5
2502.84	23.5
2503.75	26.5
2504.66	27
2505.57	25.5
2506.48	23.5
2507.39	22
2508.3	25
2509.21	22
2510.11	25.5
2511.02	23
2511.93	28
2512.84	27
2513.75	22
2514.65	25
2515.56	20.5
2516.47	26.5
2517.37	25
2518.28	23.5
2519.19	26
2520.09	25
2521	21.5
2521.91	18.5
2522.81	21
2523.72	26
2524.63	23.5
2525.53	21.5
2526.44	26.5
2527.34	24
2528.25	22
2529.16	24
2530.06	26.5
2530.97	25
2531.87	24.5
2532.78	26
2533.68	24
2534.58	24.5
2535.49	24
2536.39	26.5
2537.3	29.5
2538.2	29.5
2539.11	22
2540.01	24.5
2540.91	24
2541.82	23
2542.72	23
2543.62	22.5
2544.53	24
2545.43	21
2546.33	25.5
2547.23	23.5
2548.14	28
2549.04	24
2549.94	25.5
2550.84	23.5
2551.75	22.5
2552.65	21
2553.55	26
2554.45	24
2555.35	23.5
2556.26	25
2557.16	22.5
2558.06	24
2558.96	30.5
2559.86	25
2560.76	23
2561.66	21.5
2562.56	26
2563.46	22.5
2564.36	22.5
2565.26	25
2566.16	28.5
2567.06	24.5
2567.96	27
2568.86	22
2569.76	26
2570.66	22.5
2571.56	29.5
2572.46	25
2573.36	26
2574.26	26
2575.16	25
2576.05	24.5
2576.95	24
2577.85	23
2578.75	28.5
2579.65	28.5
2580.54	24.5
2581.44	24
2582.34	28
2583.24	26
2584.13	27
2585.03	27
2585.93	26.5
2586.83	23.5
2587.72	25
2588.62	27
2589.52	27
2590.41	24.5
2591.31	27.5
2592.2	25
2593.1	23
2594	25.5
2594.89	28
2595.79	23
2596.68	22.5
2597.58	21.5
2598.47	24.5
2599.37	26
2600.26	24.5
2601.16	25
2602.05	25.5
2602.95	25
2603.84	26.5
2604.74	30
2605.63	25
2606.52	26.5
2607.42	26.5
2608.31	29
2609.21	25.5
2610.1	23
2610.99	29.5
2611.89	24
2612.78	22.5
2613.67	24.5
2614.56	25
2615.46	25.5
2616.35	23
2617.24	22
2618.13	27.5
2619.03	24.5
2619.92	24.5
2620.81	24
2621.7	23.5
2622.59	24.5
2623.49	19
2624.38	22.5
2625.27	26
2626.16	24.5
2627.05	23.5
2627.94	24
2628.83	20
2629.72	20
2630.61	26.5
2631.5	27.5
2632.39	22.5
2633.28	28
2634.17	24
2635.06	23.5
2635.95	28
2636.84	29
2637.73	23
2638.62	22
2639.51	25
2640.4	23
2641.29	24.5
2642.18	24.5
2643.07	27
2643.96	27
2644.84	26.5
2645.73	25.5
2646.62	27
2647.51	25
2648.4	23.5
2649.28	22.5
2650.17	22.5
2651.06	24.5
2651.95	23
2652.83	25.5
2653.72	21.5
2654.61	26.5
2655.49	25
2656.38	25
2657.27	27
2658.16	23.5
2659.04	24
2659.93	21.5
2660.81	25.5
2661.7	27
2662.59	25
2663.47	24.5
2664.36	22.5
2665.24	26.5
2666.13	24.5
2667.01	26
2667.9	20.5
2668.78	26.5
2669.67	24.5
2670.55	24
2671.44	21
2672.32	25
2673.21	28
2674.09	25
2674.97	26
2675.86	26
2676.74	25
2677.62	24
2678.51	23.5
2679.39	28.5
2680.27	20
2681.16	24
2682.04	23
2682.92	27.5
2683.81	24
2684.69	27
2685.57	22.5
2686.45	27.5
2687.34	24
2688.22	27.5
2689.1	25
2689.98	26
2690.86	24
2691.75	25
2692.63	27.5
2693.51	28
2694.39	22.5
2695.27	25.5
2696.15	23
2697.03	26
2697.91	22.5
2698.79	25.5
2699.67	26
2700.55	25
2701.43	22.5
2702.31	25.5
2703.19	26.5
2704.07	23.5
2704.95	25.5
2705.83	23.5
2706.71	24.5
2707.59	24.5
2708.47	25.5
2709.35	24.5
2710.23	25.5
2711.11	26
2711.99	21
2712.86	20
2713.74	30
2714.62	23
2715.5	26.5
2716.38	25
2717.26	26
2718.13	25
2719.01	27
2719.89	22
2720.77	23.5
2721.64	23
2722.52	22
2723.4	25
2724.27	21
2725.15	28
2726.03	27
2726.9	26.5
2727.78	24
2728.66	25.5
2729.53	26
2730.41	21
2731.28	26.5
2732.16	22.5
2733.03	27.5
2733.91	23
2734.79	28.5
2735.66	27
2736.54	25.5
2737.41	25
2738.29	22
2739.16	23.5
2740.03	24.5
2740.91	25
2741.78	25
2742.66	25
2743.53	25
2744.41	26
2745.28	25.5
2746.15	22.5
2747.03	23
2747.9	29
2748.77	26
2749.65	27
2750.52	24
2751.39	28
2752.27	22
2753.14	24
2754.01	26
2754.88	25
2755.75	23
2756.63	28
2757.5	23
2758.37	24.5
2759.24	21
2760.11	23
2760.99	27
2761.86	25
2762.73	26
2763.6	26
2764.47	22
2765.34	26.5
2766.21	25.5
2767.08	23
2767.95	24.5
2768.82	28.5
2769.69	24
2770.56	26
2771.43	26
2772.3	24.5
2773.17	21.5
2774.04	27.5
2774.91	22.5
2775.78	24.5
2776.65	26.5
2777.52	24.5
2778.39	24
2779.26	25.5
2780.13	26.5
2780.99	27
2781.86	25.5
2782.73	25.5
2783.6	25.5
2784.47	27
2785.34	29
2786.2	23
2787.07	22.5
2787.94	23
2788.81	25
2789.67	27
2790.54	24.5
2791.41	28
2792.27	25.5
2793.14	25
2794.01	26.5
2794.87	24
2795.74	26
2796.61	22
2797.47	28
2798.34	27.5
2799.21	26
2800.07	25.5
2800.94	24.5
2801.8	22.5
2802.67	23
2803.53	27.5
2804.4	30
2805.26	26
2806.13	25.5
2806.99	26
2807.86	27
2808.72	24.5
2809.59	30
2810.45	23
2811.32	28.5
2812.18	25
2813.04	22.5
2813.91	24.5
2814.77	28
2815.64	29
2816.5	22.5
2817.36	28.5
2818.22	28
2819.09	27.5
2819.95	27
2820.81	26.5
2821.68	27
2822.54	23
2823.4	26.5
2824.26	24.5
2825.13	27.5
2825.99	25
2826.85	26.5
2827.71	25
2828.57	25.5
2829.44	26.5
2830.3	27.5
2831.16	27
2832.02	25
2832.88	26.5
2833.74	23
2834.6	27
2835.46	30
2836.32	25
2837.18	26.5
2838.04	26.5
2838.9	28
2839.76	23
2840.62	28
2841.48	25.5
2842.34	28
2843.2	27
2844.06	24
2844.92	29.5
2845.78	27
2846.64	27
2847.5	27
2848.36	24.5
2849.22	24
2850.08	25
2850.93	24.5
2851.79	29.5
2852.65	27.5
2853.51	25
2854.37	25.5
2855.22	24
2856.08	25.5
2856.94	29
2857.8	26
2858.65	30.5
2859.51	25
2860.37	29.5
2861.23	24
2862.08	27.5
2862.94	26
2863.79	26.5
2864.65	27
2865.51	29
2866.36	26
2867.22	29
2868.08	28
2868.93	27.5
2869.79	30
2870.64	29.5
2871.5	28
2872.35	29.5
2873.21	28
2874.06	26.5
2874.92	31
2875.77	33.5
2876.63	28
2877.48	30
2878.34	29
2879.19	30.5
2880.05	26
2880.9	30
2881.76	29
2882.61	35
2883.46	33.5
2884.32	32
2885.17	33.5
2886.02	33
2886.88	31.5
2887.73	32.5
2888.58	38.5
2889.44	33.5
2890.29	35.5
2891.14	35.5
2891.99	39
2892.85	41
2893.7	42
2894.55	50
2895.4	44.5
2896.25	41
2897.11	50
2897.96	51
2898.81	54
2899.66	52
2900.51	60.5
2901.36	60.5
2902.21	61
2903.07	60
2903.92	60.5
2904.77	64.5
2905.62	65
2906.47	57
2907.32	63
2908.17	64
2909.02	60.5
2909.87	60.5
2910.72	53.5
2911.57	57.5
2912.42	49
2913.27	49.5
2914.12	49
2914.97	47
2915.81	42.5
2916.66	42
2917.51	39.5
2918.36	34
2919.21	32
2920.06	32.5
2920.91	35
2921.75	33
2922.6	35.5
2923.45	29
2924.3	30
2925.15	29
2925.99	28
2926.84	31
2927.69	31
2928.54	29
2929.38	26
2930.23	28
2931.08	30.5
2931.92	27
2932.77	30
2933.62	30
2934.46	29
2935.31	30.5
2936.16	27.5
2937	31
2937.85	27
2938.69	26
2939.54	21.5
2940.38	28.5
2941.23	27.5
2942.08	27
2942.92	28
2943.77	31
2944.61	28.5
2945.46	27
2946.3	23
2947.15	26
2947.99	34.5
2948.83	31.5
2949.68	31.5
2950.52	25.5
2951.37	30
2952.21	32.5
2953.05	29
2953.9	29
2954.74	32
2955.58	33
2956.43	38
2957.27	36
2958.11	37
2958.96	36.5
2959.8	36.5
2960.64	38.5
2961.48	43
2962.33	42.5
2963.17	41.5
2964.01	46.5
2964.85	43
2965.69	42.5
2966.54	41
2967.38	36
2968.22	41.5
2969.06	45
2969.9	37
2970.74	33
2971.58	32.0194
2972.43	38.3287
2973.27	39.3624
2974.11	35.5905
2974.95	33.9979
2975.79	29.1437
2976.63	31.8833
2977.47	31.7893
2978.31	31.4038
2979.15	34.0496
2979.99	23.7981
2980.83	30.6369
2981.67	28.668
2982.51	26.9819
2983.35	27.0531
2984.19	31.0399
2985.03	24.3692
2985.86	27.5173
2986.7	26.1904
2987.54	27.8202
2988.38	24.5346
2989.22	25.2056
2990.06	29.4709
2990.9	25.4349
2991.73	23.7842
2992.57	27.4903
2993.41	28.3121
2994.25	25.6054
2995.09	23.7581
2995.92	28.393
2996.76	24.174
2997.6	25.1127
2998.44	24.6321
2999.27	23.1278
3000.11	25.8307
3000.95	21.9223
3001.78	23.1484
3002.62	25.266
3003.46	24.5756
3004.29	26.7893
3005.13	21.2172
3005.96	23.3309
3006.8	23.9343
3007.64	25.8968
3008.47	24.7187
3009.31	22.9784
3010.14	24.4155
3010.98	24.5388
3011.81	22.993
3012.65	24.2197
3013.48	22.9284
3014.32	23.7458
3015.15	23.8909
3015.99	23.2596
3016.82	22.682
3017.66	25.497
3018.49	23.9752
3019.33	24.2665
3020.16	22.4983
3020.99	23.3772
3021.83	22.3862
3022.66	21.916
3023.5	24.2327
3024.33	24.6556
3025.16	24.9822
3026	24.5541
3026.83	22.9699
3027.66	23.3354
3028.49	25.9929
3029.33	23.4573
3030.16	23.0306
3030.99	23.1979
3031.83	23.41
3032.66	23.1001
3033.49	22.4213
3034.32	21.534
3035.15	22.1622
3035.99	23.6695
3036.82	23.466
3037.65	23.2737
3038.48	22.9972
3039.31	23.555
3040.14	22.8462
3040.97	20.736
3041.81	20.2977
3042.64	22.903
3043.47	24.8271
3044.3	23.2843
3045.13	24.6539
3045.96	24.513
3046.79	21.8351
3047.62	22.0236
3048.45	23.8682
3049.28	25.4404
3050.11	23.0461
3050.94	23.8049
3051.77	24.7118
3052.6	22.8424
3053.43	21.9717
3054.26	25.3871
3055.08	25.0646
3055.91	23.6501
3056.74	21.5526
3057.26	24
3058.09	27
3058.92	23
3059.76	20
3060.59	24.5
3061.42	24.5
3062.25	24
3063.09	24
3063.92	25
3064.75	24.5
3065.58	25
3066.42	23
3067.25	27.5
3068.08	24
3068.91	23.5
3069.74	23
3070.57	21
3071.41	23.5
3072.24	20.5
3073.07	22
3073.9	24.5
3074.73	24
3075.56	21.5
3076.39	21.5
3077.22	24.5
3078.05	25
3078.88	21
3079.71	28
3080.54	24.5
3081.37	23
3082.2	26
3083.03	23.5
3083.86	25
3084.69	29.5
3085.52	22
3086.35	22.5
3087.18	22.5
3088.01	23.5
3088.84	24.5
3089.67	23
3090.5	25.5
3091.32	25.5
3092.15	23.5
3092.98	24
3093.81	25
3094.64	26.5
3095.47	23.5
3096.29	25
3097.12	23.5
3097.95	21.5
3098.78	24.5
3099.6	23.5
3100.43	20.5
3101.26	23.5
3102.09	24.5
3102.91	23.5
3103.74	25.5
3104.57	23
3105.39	29
3106.22	24
3107.05	25
3107.87	25.5
3108.7	23.5
3109.52	23
3110.35	26
3111.18	21.5
3112	24.5
3112.83	24
3113.65	28.5
3114.48	26
3115.3	26
3116.13	23
3116.95	23
3117.78	22.5
3118.6	26
3119.43	23.5
3120.25	26
3121.08	22
3121.9	25
3122.72	24
3123.55	23.5
3124.37	23
3125.2	22.5
3126.02	25.5
3126.84	24.5
3127.67	21
3128.49	26
3129.31	19
3130.14	23.5
3130.96	22.5
3131.78	26
3132.61	23.5
3133.43	23
3134.25	26.5
3135.07	23.5
3135.89	24
3136.72	24
3137.54	23
3138.36	23.5
3139.18	26
3140	28
3140.83	24
3141.65	25.5
3142.47	23
3143.29	24.5
3144.11	25
3144.93	21.5
3145.75	25.5
3146.57	22.5
3147.4	22
3148.22	24.5
3149.04	24
3149.86	24.5
3150.68	24.5
3151.5	25.5
3152.32	22.5
3153.14	22
3153.96	24
3154.78	23.5
3155.59	24
3156.42	26
3157.23	24
3158.05	23
3158.87	23.5
3159.69	25.5
3160.51	23
3161.33	24.5
3162.15	25.5
3162.97	20.5
3163.78	29.5
3164.6	22
3165.42	22.5
3166.24	29.5
3167.06	25.5
3167.87	22
3168.69	22
3169.51	26
3170.33	23.5
3171.14	27
3171.96	23
3172.78	18.5
3173.6	24.5
3174.41	20
3175.23	19.5
3176.05	23.5
3176.86	27.5
3177.68	23.5
3178.5	23
3179.31	24
3180.13	25
3180.94	24.5
3181.76	25.5
3182.58	22.5
3183.39	21.5
3184.21	27.5
3185.02	26.5
3185.84	24.5
3186.65	20.5
3187.47	28
3188.28	22.5
3189.1	23
3189.91	24
3190.73	19.5
3191.54	25
3192.36	23.5
3193.17	24
3193.98	26
3194.8	24.5
3195.61	24.5
3196.43	28
3197.24	26
3198.05	25.5
3198.87	25.5
3199.68	27
3200.49	20.5
3201.31	25
3202.12	23
3202.93	27.5
3203.75	25
3204.56	27.5
3205.37	25.5
3206.18	22
3207	22
3207.81	23
3208.62	27
3209.43	25
3210.24	24.5
3211.06	24.5
3211.87	23.5
3212.68	24.5
3213.49	23.5
3214.3	23.5
3215.11	23.5
3215.92	23
3216.73	22.5
3217.55	24
3218.36	24
3219.17	27
3219.98	23.5
3220.79	25.5
3221.6	21.5
3222.41	23.5
3223.22	22.5
3224.03	24
3224.84	24
3225.65	24.5
3226.46	24
3227.27	27
3228.08	22
3228.89	24.5
3229.7	22
3230.5	28
3231.31	20
3232.12	23
3232.93	24
3233.74	27
3234.55	23.5
3235.36	25.5
3236.16	22
3236.97	26.5
3237.78	22
3238.59	23.5
3239.4	22.5
3240.2	25
3241.01	19
3241.82	23
3242.63	25
3243.43	24
3244.24	24.5
3245.05	25
3245.85	23.5
3246.66	23
3247.47	23.5
3248.27	23
3249.08	19
3249.89	23.5
3250.69	25
3251.5	23
3252.31	25
3253.11	27.5
3253.92	23.5
3254.72	25.5
3255.53	26
3256.33	21.5
3257.14	23.5
3257.94	26
3258.75	23
3259.55	25
3260.36	24.5
3261.16	26.5
3261.97	23
3262.77	25
3263.58	23
3264.38	21
3265.19	28
3265.99	24
3266.79	26.5
3267.6	26
3268.4	20
3269.21	24
3270.01	24.5
3270.81	22.5
3271.62	23
3272.42	23.5
3273.22	28.5
3274.03	24.5
3274.83	22.5
3275.63	24
3276.43	23.5
3277.24	24.5
3278.04	25.5
3278.84	26.5
3279.64	29
3280.45	20.5
3281.25	24
3282.05	25.5
3282.85	25.5
3283.65	28.5
3284.45	24.5
3285.26	26
3286.06	26.5
3286.86	24.5
3287.66	21.5
3288.46	23
3289.26	24.5
3290.06	24.5
3290.86	23.5
3291.66	24.5
3292.46	25
3293.26	28
3294.06	23.5
3294.86	26.5
3295.66	23
3296.46	24
3297.26	25
3298.06	28.5
3298.86	21.5
3299.66	25
3300.46	22.5
3301.26	27.5
3302.06	23
3302.86	26
3303.66	26
3304.46	23
3305.25	22
3306.05	24.5
3306.85	25
3307.65	23
3308.45	26
3309.25	24
3310.04	23.5
3310.84	23.5
3311.64	25.5
3312.44	28
3313.23	23
3314.03	26
3314.83	26
3315.63	24
3316.42	27
3317.22	24.5
3318.02	24
3318.81	28
3319.61	25
3320.41	25
3321.2	26
3322	26
3322.8	31
3323.59	25
3324.39	24
3325.18	25
3325.98	22
3326.78	27
3327.57	22.5
3328.37	22.5
3329.16	28
3329.96	23
3330.75	27.5
3331.55	21
3332.34	24
3333.14	28
3333.93	23.5
3334.73	25.5
3335.52	25
3336.31	26
3337.11	22
3337.9	21
3338.7	24
3339.49	25.5
3340.28	26.5
3341.08	25
3341.87	20
3342.66	23
3343.46	24.5
3344.25	20
3345.04	20
3345.84	26
3346.63	26
3347.42	26
3348.22	22
3349.01	24.5
3349.8	26.5
3350.59	23
3351.39	24
3352.18	26
3352.97	22
3353.76	28
3354.55	21.5
3355.35	23
3356.14	29.5
3356.93	25
3357.72	25
3358.51	23.5
3359.3	24.5
3360.09	25.5
3360.88	25.5
3361.67	23.5
3362.46	24.5
3363.26	24.5
3364.05	21
3364.84	25
3365.63	23
3366.42	23
3367.21	22.5
3368	26.5
3368.79	25
3369.58	24.5
3370.37	22
3371.15	23.5
3371.94	25
3372.73	22
3373.52	25.5
3374.31	24.5
3375.1	22
3375.89	23
3376.68	25
3377.47	23.5
3378.26	28.5
3379.04	25
3379.83	28.5
3380.62	28
3381.41	24
3382.2	28
3382.98	25.5
3383.77	27
3384.56	23.5
3385.35	20.5
3386.13	24
3386.92	25
3387.71	29
3388.5	22.5
3389.28	23
3390.07	21.5
3390.86	26
3391.64	27
3392.43	25
3393.22	25.5
3394	21.5
3394.79	23
3395.57	25
3396.36	27.5
3397.15	23
3397.93	20
3398.72	25
3399.5	22
3400.29	27.5
3401.07	26
3401.86	25
3402.65	24
3403.43	24
3404.21	23
3405	22.5
3405.78	26.5
3406.57	22.5
3407.35	23.5
3408.14	26.5
3408.92	26
3409.71	26
3410.49	23
3411.27	26
3412.06	25.5
3412.84	25
3413.62	24.5
3414.41	24
3415.19	25
3415.97	27
3416.76	23
3417.54	24
3418.32	25
3419.11	24
3419.89	23.5
3420.67	22.5
3421.46	24
3422.24	21.5
3423.02	27.5
3423.8	26
3424.58	26
3425.37	27
3426.15	28.5
3426.93	25
3427.71	22
3428.49	24
3429.27	24
3430.05	23
3430.84	25
3431.62	27
3432.4	22
3433.18	24
3433.96	22.5
3434.74	26
3435.52	27
3436.3	24.5
3437.08	27
3437.86	25
3438.64	25.5
3439.42	25
3440.2	26.5
3440.98	26
3441.76	23.5
3442.54	23
3443.32	25
3444.1	23.5
3444.88	25
3445.66	24
3446.44	22
3447.22	25
3448	27
3448.77	27.5
3449.55	23
3450.33	25
3451.11	21.5
3451.89	26
3452.67	24.5
3453.45	25.5
3454.22	26.5
3455	22
3455.78	24.5
3456.56	25
3457.33	25.5
3458.11	25.5
3458.89	21.5
3459.67	27
3460.44	25.5
3461.22	23
3462	24.5
3462.77	24
3463.55	23
3464.33	24.5
3465.1	25
3465.88	24.5
3466.66	26.5
3467.43	24.5
3468.21	26.5
3468.98	24.5
3469.76	23
3470.54	22
3471.31	23
3472.09	25
3472.86	26.5
3473.64	25.5
3474.41	24.5
3475.19	25.5
3475.96	25
3476.74	23.5
3477.51	25.5
3478.29	25
3479.06	24
3479.84	26
3480.61	28
3481.39	24
3482.16	22
3482.93	21.5
3483.71	24.5
3484.48	24.5
3485.25	23.5
3486.03	26
3486.8	25
3487.57	25.5
3488.35	23
3489.12	21.5
3489.89	26
3490.67	25.5
3491.44	26
3492.21	25.5
3492.99	26
3493.76	27
3494.53	24
3495.3	27
3496.08	27
3496.85	23
3497.62	24.5
3498.39	27.5
3499.16	25.5
3499.93	23.5
