#Acq. time (s)=	5
#Accumulations=	5
#Range (cm-¹)=	100...3500
#Windows=	4
#Autofocus=	Off
#AutoExposure=	Off
#Spike filter=	Multiple accum.
#Delay time (s)=	0
#Binning=	1
#Readout mode=	Signal
#DeNoise=	Off
#ICS correction=	Off
#Dark correction=	Off
#Inst. Process=	Off
#Instrument=	LabRAM HR Evol
#Detector=	Syncerity OE
#Objective=	x100_VIS
#Grating=	600 (500nm)
#ND Filter=	25%
#Laser=	633nm_Edge
#Hole=	100.021
#Range=	Visible
#Project=	verificaciones
#Sample=	at5
#Site=	plain
#Title=	bolusat5plain
#Remark=	
#Date=	13.01.2026 19:24
#Acquired=	13.01.2026 19:24:56
100.692	27.5
101.975	30
103.258	30
104.542	36
105.824	30
107.107	28
108.39	28
109.672	29.5
110.954	27.5
112.236	31.5
113.519	28.5
114.8	32.5
116.081	33.5
117.362	33
118.643	33
119.924	29.5
121.204	29
122.484	26
123.764	28.5
125.044	28
126.323	33.5
127.603	33
128.882	31
130.161	30.5
131.438	30
132.716	30
133.995	33.5
135.273	34.5
136.55	31
137.828	33
139.106	33
140.383	31
141.66	37
142.937	38
144.213	35.5
145.488	37.5
146.764	34.5
148.04	35
149.316	37.5
150.592	36.5
151.867	36.5
153.141	37.5
154.416	39
155.69	42.5
156.965	41.5
158.239	40
159.512	36
160.786	37.5
162.059	35.5
163.333	39
164.605	38
165.878	41
167.15	35.5
168.423	38.5
169.694	40
170.966	32.5
172.238	37.5
173.51	38.5
174.78	36
176.052	34.5
177.323	35.5
178.592	35.5
179.863	37
181.134	44
182.403	35
183.673	39
184.943	39
186.211	36
187.481	36.5
188.749	39.5
190.018	37
191.287	36
192.554	34
193.822	40.5
195.089	40
196.357	38.5
197.625	36.5
198.891	39
200.159	38
201.425	34
202.692	31
203.957	34
205.224	33.5
206.489	36
207.755	32.5
209.02	31
210.286	35
211.55	33
212.815	31
214.079	35.5
215.344	31
216.607	29.5
217.872	38.5
219.135	31.5
220.399	33
221.662	24
222.924	32.5
224.187	31.5
225.449	27.5
226.713	29
227.974	29
229.235	32.5
230.498	29.5
231.759	27
233.019	25.5
234.281	27
235.542	31
236.802	31
238.063	29.5
239.323	29
240.582	29
241.843	26
243.102	30
244.361	29.5
245.621	26.5
246.879	33.5
248.138	31
249.396	31.5
250.655	28.5
251.913	29.5
253.17	28
254.427	27.5
255.686	28
256.943	29
258.199	31
259.456	29.5
260.712	27
261.969	30
263.225	27
264.481	30
265.736	28
266.991	32.5
268.246	26
269.502	28.5
270.757	31.5
272.011	26
273.265	24.5
274.519	29
275.773	27
277.027	26.5
278.28	28
279.533	25.5
280.786	29
282.04	29
283.293	29
284.545	27.5
285.798	28
287.049	27.5
288.301	31
289.553	30.5
290.804	29.5
292.055	28.5
293.306	32
294.557	32.5
295.807	29.5
297.058	30
298.308	24
299.558	28
300.808	28
302.057	28
303.305	30.5
304.554	28
305.803	27.5
307.052	29.5
308.3	25.5
309.549	27
310.797	28
312.045	29.5
313.292	27
314.54	27
315.786	25
317.033	28.5
318.28	27.5
319.526	26.5
320.773	27.5
322.019	28
323.264	29
324.51	30
325.755	27
327.001	27.5
328.246	32
329.49	28
330.735	28.5
331.979	29.5
333.224	27.5
334.467	32
335.711	29.5
336.955	27
338.199	27
339.441	29.5
340.684	25
341.927	26.5
343.168	32.5
344.411	24.5
345.654	32.5
346.895	32
348.137	28
349.379	26.5
350.619	33
351.86	30.5
353.102	28.5
354.341	27.5
355.582	25
356.821	27
358.062	28.5
359.302	27.5
360.541	28.5
361.781	26
363.019	24
364.259	28.5
365.496	27.5
366.736	32.5
367.974	31
369.212	29
370.45	30
371.687	30
372.925	24.5
374.162	27
375.399	24
376.635	28
377.873	30.5
379.109	27
380.344	29
381.581	29
382.816	29.5
384.052	27
385.287	25
386.523	30.5
387.757	25.5
388.991	25
390.227	29.5
391.46	25.5
392.695	30
393.928	31.5
395.162	27
396.396	24.5
397.629	29
398.861	29.5
400.095	25
401.327	28
402.559	29
403.792	30
405.024	27.5
406.255	30
407.488	26
408.719	28.5
409.949	22
411.18	28
412.412	27.5
413.642	23.5
414.872	27
416.102	29.5
417.333	27
418.562	27.5
419.791	29.5
421.02	29.5
422.249	28
423.479	30
424.707	27.5
425.935	28
427.163	26.5
428.391	27
429.619	30
430.848	26
432.075	29.5
433.302	31
434.529	27.5
435.755	25.5
436.982	27
438.208	29.5
439.434	28.5
440.66	28.5
441.885	28.5
443.111	25.5
444.338	29
445.563	29.5
446.788	26
448.012	26
449.237	30
450.461	27
451.685	28
452.909	27.5
454.133	30
455.356	25.5
456.579	29.5
457.802	31.5
459.025	31.5
460.247	32.5
461.469	24.5
462.691	30
463.914	33
465.136	28
466.357	29.5
467.579	31.5
468.8	30
470.021	34.5
471.242	38
472.462	32
473.682	35.5
474.903	36.5
476.123	36
477.343	41.5
478.563	39.5
479.782	39
481	42.5
482.219	45.5
483.438	45
484.657	53
485.874	50.5
487.093	48.5
488.311	55.5
489.529	56
490.747	49.5
491.963	52
493.181	50.5
494.398	45
495.614	42
496.83	44
498.047	46
499.264	37
500.479	42
501.695	36
502.911	37
504.125	31.5
505.34	37
506.554	35.5
507.769	34.5
508.984	31
510.198	35
511.412	30.5
512.627	32
513.839	33
515.053	34.5
516.266	32.5
517.479	32
518.691	31
519.905	29
521.118	31
522.329	30.5
523.542	31
524.753	34
525.965	29
527.176	31
528.388	29.5
529.598	25.5
530.809	32.5
532.019	28.5
533.23	28.5
534.44	27
535.649	29
536.86	26
538.068	30
539.279	25.5
540.487	28.5
541.697	31
542.905	26
544.113	26
545.322	29
546.53	31
547.737	29
548.946	29
550.153	28
551.361	29
552.568	30.5
553.774	27
554.982	28.5
556.188	24
557.394	28
558.599	28.5
559.806	26.5
561.012	26.5
562.217	29
563.423	29.5
564.628	26.5
565.832	29
567.036	31.5
568.241	26
569.446	29.5
570.65	28
571.853	29.5
573.057	27.5
574.26	29
575.464	29
576.667	28
577.87	28
579.072	29.5
580.274	25
581.477	29.5
582.68	29.5
583.881	30
585.083	27
586.284	26
587.485	31.5
588.686	26.5
589.887	27
591.087	23
592.288	26.5
593.488	23.5
594.688	24
595.888	27.5
597.087	29
598.287	28
599.486	28.5
600.685	27.5
601.884	27.5
603.082	29.5
604.281	29
605.479	29
606.677	27
607.875	27
609.073	30
610.27	29.5
611.468	28
612.665	30.5
613.862	25
615.058	30.5
616.255	28.5
617.451	29
618.648	29.5
619.842	27
621.038	28.5
622.234	27
623.429	22
624.624	29.5
625.819	23.5
627.013	28.5
628.207	29.5
629.402	30
630.596	23
631.79	26
632.983	23.5
634.177	33.5
635.37	26
636.564	32
637.755	24.5
638.948	28.5
640.141	28.5
641.334	28
642.525	26
643.717	30
644.909	26
646.099	29
647.291	30
648.483	27
649.674	28.5
650.864	31.5
652.055	30
653.244	27
654.435	29
655.625	27.5
656.814	27
658.004	24.5
659.193	28.5
660.382	30
661.571	28
662.759	25.5
663.948	31
665.135	26.5
666.324	29.5
667.511	30.5
668.7	26.5
669.886	32.5
671.074	32
672.262	29
673.448	29.5
674.634	30
675.821	31.5
677.007	29
678.194	31
679.379	30
680.565	33
681.75	31
682.936	30.5
684.121	33
685.305	34.5
686.491	30.5
687.675	32
688.86	34
690.043	32
691.227	32.5
692.411	29
693.594	34.5
694.777	35.5
695.961	37
697.144	32.5
698.326	36.5
699.509	34.5
700.691	35
701.873	36
703.056	40
704.237	42.5
705.419	40
706.599	46
707.782	45
708.962	48
710.143	45.5
711.323	39
712.504	39.5
713.684	42.5
714.864	37.5
716.043	35
717.223	31.5
718.403	29
719.582	29
720.761	29.5
721.94	28
723.118	31
724.296	26
725.474	29
726.652	31
727.831	25
729.009	32
730.186	31
731.363	28
732.54	29
733.717	29
734.893	31.5
736.07	27
737.246	30.5
738.422	25
739.598	29
740.773	27
741.949	30
743.124	25
744.299	32
745.474	26.5
746.649	26.5
747.823	29
748.997	29
750.172	29
751.346	29
752.519	27
753.693	26
754.867	29.5
756.038	29.5
757.211	29.5
758.384	27
759.557	26.5
760.73	27.5
761.902	26
763.074	29
764.246	28.5
765.417	26.5
766.588	28
767.76	29.5
768.931	32
770.102	27.5
771.271	28.5
772.442	27.5
773.613	24.5
774.783	28.5
775.952	27
777.122	26.5
778.291	27.5
779.461	28.5
780.629	26
781.798	28.5
782.967	29
784.135	27.5
785.304	30
786.472	28
787.639	24
788.807	30
789.975	33.5
791.142	31.5
792.309	28
793.477	34
794.642	30
795.81	25
796.975	30
798.142	29.5
799.308	27
800.473	31
801.639	29.5
802.804	30
803.97	28
805.134	28.5
806.299	27
807.463	25.5
808.628	29
809.792	30.5
810.957	29
812.12	26.5
813.284	28.5
814.447	29
815.611	33.5
816.773	27
817.937	26
819.099	27.5
820.261	28
821.424	23.5
822.585	26
823.748	26.5
824.909	25.5
826.07	22.5
827.232	28.5
828.393	25
829.554	27
830.715	25
831.875	30.5
833.035	23.5
834.196	25.5
835.356	25.5
836.515	28.5
837.676	26
838.835	25.5
839.994	24
841.152	25
842.312	25.5
843.47	26
844.629	27
845.786	26.5
846.946	30
848.103	24.5
849.261	23.5
850.418	27
851.575	32
852.733	28
853.89	24
855.046	31.5
856.203	29.5
857.359	30
858.515	29.5
859.67	29.5
860.827	26.5
861.983	31
863.138	32.5
864.293	33.5
865.448	25.5
866.603	28.5
867.757	30.5
868.912	22
870.066	27
871.22	29.5
872.374	26
873.527	30
874.681	25
875.834	28
876.987	26
878.14	27.5
879.293	27.5
880.445	30.5
881.598	29.5
882.75	25
883.902	25
885.054	27
886.206	24.5
887.357	26.5
888.507	27
889.658	26
890.809	27
891.96	24
893.111	27
894.261	23.5
895.411	26.5
896.561	29
897.71	28.5
898.86	25.5
900.009	30.5
901.159	26.5
902.308	26.5
903.455	26
904.604	22.5
905.753	27.5
906.901	24.5
908.048	27
909.197	24
910.344	27.5
911.492	26
912.639	27.5
913.786	25
914.933	30
916.079	27
917.226	25
918.373	25
919.518	25
920.664	22.5
921.81	22
922.955	26.5
924.101	29
925.245	25.5
926.391	27
927.536	25.5
928.68	27.5
929.825	28
930.968	24.5
932.113	27.5
933.256	26
934.4	25.5
935.543	28.5
936.687	30.5
937.83	27
938.973	29
940.115	26.5
941.258	23.5
942.399	27.5
943.542	23
944.684	28.5
945.826	26
946.967	26.5
948.109	29
949.25	23.5
950.392	27
951.532	25
952.672	28
953.813	26
954.953	27.5
956.093	29
957.233	28
958.373	26
959.512	25
960.652	25
961.791	20
962.929	23
964.069	28
965.207	28.5
966.345	26
967.484	25
968.622	26.5
969.759	23
970.896	25.25
972.035	25.5
973.172	22.5
974.309	24
975.445	28
976.582	26
977.719	27
978.855	23.5
979.991	25
981.127	29
982.263	32
983.398	25.5
984.535	28.5
985.67	25
986.804	27.5
987.939	25
989.074	24
990.208	23.5
991.342	22.5
992.476	23.5
993.61	27
994.744	29.5
995.877	28
997.01	23
998.143	25
999.276	29.5
1000.41	26
1001.54	26
1002.67	26
1003.81	25
1004.94	29
1006.07	27.5
1007.2	24.5
1008.33	28
1009.47	25
1010.6	21
1011.73	22
1012.86	25.5
1013.99	31
1015.12	24
1016.25	27.5
1017.38	30
1018.51	25
1019.64	25
1020.77	26.5
1021.9	26.5
1023.03	25.5
1024.15	26.5
1025.28	25.5
1026.41	28.5
1027.54	25
1028.67	29.5
1029.8	24
1030.92	29
1032.05	22.5
1033.18	23
1034.31	27.5
1035.43	27
1036.56	25
1037.69	28
1038.81	23
1039.94	24
1041.07	25
1042.19	27.5
1043.32	25
1044.44	25.5
1045.57	22
1046.69	27
1047.82	27
1048.94	24
1050.07	30
1051.19	24
1052.32	22
1053.44	22.5
1054.57	24
1055.69	28
1056.81	25
1057.94	30
1059.06	22
1060.18	23.5
1061.31	26
1062.43	25.5
1063.55	27
1064.67	24.5
1065.8	25.5
1066.92	25
1068.04	25.5
1069.16	23.5
1070.28	21
1071.4	26
1072.52	24
1073.64	28
1074.76	23.5
1075.89	25.5
1077.01	30
1078.13	28
1079.25	27.5
1080.37	24.5
1081.49	29
1082.6	24
1083.72	24.5
1084.84	23.5
1085.96	25
1087.08	24
1088.2	25
1089.32	24
1090.43	25.5
1091.55	24
1092.67	28.5
1093.79	25.5
1094.91	25.5
1096.02	24
1097.14	29.5
1098.26	29
1099.37	23
1100.49	27.5
1101.61	26
1102.72	26
1103.84	22.5
1104.95	27
1106.07	21
1107.18	26
1108.3	23.5
1109.41	24
1110.53	25
1111.64	22
1112.76	25
1113.87	23.5
1114.99	25
1116.1	26
1117.21	26.5
1118.33	25
1119.44	25
1120.55	28
1121.67	24.5
1122.78	26.5
1123.89	20.5
1125	24
1126.12	25
1127.23	27
1128.34	24
1129.45	22
1130.56	23.5
1131.68	28.5
1132.79	27
1133.9	25
1135.01	25.5
1136.12	23.5
1137.23	24
1138.34	22
1139.45	26.5
1140.56	23
1141.67	26
1142.78	24
1143.89	20
1145	27
1146.11	24
1147.22	26
1148.32	25.5
1149.43	21
1150.54	26.5
1151.65	21
1152.76	24.5
1153.86	23.5
1154.97	25.5
1156.08	22
1157.19	27
1158.29	21.5
1159.4	23
1160.51	25
1161.61	23.5
1162.72	24.5
1163.83	24
1164.93	25
1166.04	24.5
1167.14	24
1168.25	26
1169.35	23.5
1170.46	22
1171.56	23
1172.67	25.5
1173.77	24.5
1174.88	26.5
1175.98	23.5
1177.08	26
1178.19	24
1179.29	23
1180.4	26
1181.5	26
1182.6	24.5
1183.71	24
1184.81	27
1185.91	25
1187.01	27
1188.12	22.5
1189.22	22.5
1190.32	26
1191.42	24
1192.52	25
1193.62	24
1194.72	24.4914
1195.83	23.9355
1196.93	23.5585
1198.03	22.17
1199.13	25.9264
1200.23	24.8384
1201.33	26.7757
1202.43	22.8806
1203.53	25.2792
1204.63	26.1401
1205.73	26.8471
1206.83	23.2157
1207.92	25.6001
1209.02	25.1667
1210.12	24.9793
1211.22	24.339
1212.32	23.0828
1213.42	23.5381
1214.51	24.3987
1215.61	21.925
1216.71	23.8863
1217.81	25.3479
1218.9	22.9761
1220	24.3155
1221.1	25.1191
1222.19	24.1309
1223.29	21.2407
1224.39	23.9887
1225.48	21.703
1226.58	26.1192
1227.68	22.2647
1228.77	24.6843
1229.87	22.7212
1230.96	20.0338
1232.06	24.2084
1233.15	24.6487
1234.25	25.4444
1235.34	24.2781
1236.43	23.5405
1237.53	25.5517
1238.62	23.4654
1239.72	25.7118
1240.81	25.0316
1241.9	25.9188
1243	23.7892
1244.09	21.5606
1245.18	24.6403
1246.27	25.9837
1247.37	24.8092
1248.46	25.7199
1249.55	23.7224
1250.64	27.2041
1251.74	24.8172
1252.83	23.0222
1253.92	24.6189
1255.01	21.5312
1256.1	24.0132
1257.19	26.0989
1258.28	27.7344
1259.38	24.0253
1260.46	26.3891
1261.56	28.3883
1262.65	24.7709
1263.74	25.1174
1264.82	25.4869
1265.91	26.1023
1267	25.2578
1268.09	24.4342
1269.18	23.9167
1270.27	27.0142
1271.36	26.2837
1272.45	25.099
1273.54	23.7871
1274.63	23.3713
1275.71	27.2008
1276.8	24.6323
1277.89	24.9578
1278.98	22.371
1280.06	23.6383
1281.15	22.8304
1282.24	25.6817
1283.32	24.2234
1284.41	23.6462
1285.5	22.4171
1286.58	22.3592
1287.67	24.0064
1288.76	26.4289
1289.84	23.943
1290.93	24.4241
1292.01	24.7379
1293.1	22.8295
1294.18	24.6844
1295.27	22.2826
1296.35	22.654
1297.44	22.9716
1298.52	23.3853
1299.6	24.3585
1300.69	23.4718
1301.77	24.4999
1302.86	22.489
1303.94	24.3397
1305.02	27.6307
1306.11	24.5426
1306.41	23
1307.5	22
1308.59	25.5
1309.68	25.5
1310.77	22
1311.85	22
1312.94	20.5
1314.03	27.5
1315.11	23
1316.2	22
1317.29	22.5
1318.37	26.5
1319.46	24.5
1320.55	22.5
1321.63	22.5
1322.72	24
1323.8	25
1324.89	24
1325.98	26.5
1327.06	25.5
1328.15	23.5
1329.23	25
1330.31	28
1331.4	22.5
1332.48	23
1333.57	23
1334.65	27
1335.74	29.5
1336.82	24
1337.9	25
1338.99	24
1340.07	24
1341.15	22.5
1342.24	26.5
1343.32	25
1344.4	25.5
1345.48	24
1346.56	29
1347.65	27
1348.73	24.5
1349.81	25
1350.89	23.5
1351.97	25
1353.05	25
1354.13	26.5
1355.21	24
1356.29	25
1357.37	23.5
1358.46	24.5
1359.54	27.5
1360.62	22
1361.69	24
1362.77	25.5
1363.85	26.5
1364.93	26
1366.01	21.5
1367.09	26
1368.17	24.5
1369.25	23.5
1370.33	26.5
1371.41	27
1372.48	26
1373.56	25.5
1374.64	21.5
1375.72	29
1376.79	24.5
1377.87	29
1378.95	27.5
1380.02	26.5
1381.1	27
1382.18	25
1383.25	23.5
1384.33	26
1385.4	30.5
1386.48	23
1387.56	29.5
1388.63	23.5
1389.71	29.5
1390.78	23.5
1391.86	29.5
1392.93	22.5
1394.01	26.5
1395.08	23.5
1396.15	24
1397.23	25.5
1398.3	29
1399.38	31
1400.45	27.5
1401.52	30
1402.6	27
1403.67	25.5
1404.74	32
1405.81	32.5
1406.89	25
1407.96	29.5
1409.03	31.5
1410.1	23.5
1411.17	29
1412.25	28.5
1413.32	27.5
1414.39	31.5
1415.46	27
1416.53	30.5
1417.6	27
1418.67	30
1419.74	28.5
1420.81	27
1421.88	29.5
1422.95	25
1424.02	23.5
1425.09	28.5
1426.16	24.5
1427.23	28
1428.3	28
1429.37	29.5
1430.44	26
1431.51	25
1432.58	26.5
1433.64	30
1434.71	29
1435.78	27
1436.85	22.5
1437.92	29
1438.98	21
1440.05	24
1441.12	28.5
1442.18	24
1443.25	27
1444.32	35.5
1445.38	22
1446.45	22
1447.52	22
1448.58	25
1449.65	25
1450.71	24
1451.78	30.5
1452.84	25
1453.91	24
1454.97	26
1456.04	26.5
1457.1	28.5
1458.17	22.5
1459.23	25
1460.3	28.5
1461.36	26
1462.42	22.5
1463.49	27.5
1464.55	27
1465.61	23.5
1466.68	27.5
1467.74	22.5
1468.8	26.5
1469.86	25
1470.93	27
1471.99	26
1473.05	27
1474.11	26.5
1475.17	25.5
1476.24	29
1477.3	25.5
1478.36	24.5
1479.42	23
1480.48	23.5
1481.54	26.5
1482.6	26.5
1483.66	27.5
1484.72	26
1485.78	24.5
1486.84	28
1487.9	27
1488.96	26
1490.02	27
1491.08	26.5
1492.14	25.5
1493.2	25.5
1494.26	24.5
1495.31	27
1496.37	27
1497.43	24
1498.49	25
1499.55	25
1500.6	28
1501.66	24
1502.72	24
1503.78	24
1504.83	24.5
1505.89	25
1506.95	25.5
1508	24
1509.06	21.5
1510.12	25
1511.17	27
1512.23	28.5
1513.28	25.5
1514.34	23.5
1515.39	25
1516.45	25.5
1517.5	25.5
1518.56	22.5
1519.61	26
1520.67	22
1521.72	24.5
1522.78	23
1523.83	26.5
1524.88	23.5
1525.94	22.5
1526.99	24
1528.05	29.5
1529.1	24.5
1530.15	26
1531.2	24
1532.26	23.5
1533.31	27
1534.36	25.5
1535.41	28.5
1536.47	26
1537.52	32.5
1538.57	28.5
1539.62	27.5
1540.67	27.5
1541.72	25
1542.77	25
1543.83	25.5
1544.88	21
1545.93	22.5
1546.98	22
1548.03	24
1549.08	27
1550.13	25
1551.18	25
1552.23	25.5
1553.28	26
1554.32	24.5
1555.37	27
1556.42	31
1557.47	24
1558.52	26
1559.57	26
1560.62	25.5
1561.67	28.5
1562.71	26
1563.76	26.5
1564.81	27.5
1565.86	26
1566.9	26
1567.95	24
1569	27.5
1570.04	26
1571.09	22.5
1572.14	27
1573.18	24
1574.23	25
1575.27	24.5
1576.32	25.5
1577.37	24
1578.41	27.5
1579.46	29.5
1580.5	25
1581.55	27.5
1582.59	26.5
1583.64	28.5
1584.68	23.5
1585.72	26
1586.77	25.5
1587.81	27.5
1588.86	24
1589.9	22
1590.94	27.5
1591.99	20.5
1593.03	24.5
1594.07	24
1595.12	26
1596.16	28
1597.2	24.5
1598.24	25
1599.29	26.5
1600.33	25
1601.37	28.5
1602.41	26
1603.45	27
1604.49	22.5
1605.53	33.5
1606.58	25.5
1607.62	23.5
1608.66	25
1609.7	25
1610.74	25.5
1611.78	23.5
1612.82	24.5
1613.86	25.5
1614.9	26.5
1615.94	24
1616.98	23.5
1618.02	25
1619.06	23
1620.09	24
1621.13	24
1622.17	25
1623.21	26
1624.25	27.5
1625.29	24.5
1626.32	26.5
1627.36	24
1628.4	23.5
1629.44	26.5
1630.47	27
1631.51	30
1632.55	28
1633.58	22.5
1634.62	25.5
1635.66	26
1636.69	23.5
1637.73	29
1638.77	24.5
1639.8	27.5
1640.84	27
1641.87	26
1642.91	27.5
1643.94	25
1644.98	24.5
1646.01	28.5
1647.05	27
1648.08	21
1649.12	28
1650.15	24.5
1651.18	28
1652.22	26
1653.25	25
1654.29	24
1655.32	26
1656.35	27
1657.39	23
1658.42	26
1659.45	26
1660.48	22
1661.52	26
1662.55	27
1663.58	23.5
1664.61	25
1665.64	24.5
1666.68	25
1667.71	28
1668.74	27.5
1669.77	25.5
1670.8	26
1671.83	22
1672.86	25.5
1673.89	20
1674.92	27
1675.95	26
1676.98	26
1678.01	23.5
1679.04	25
1680.07	25.5
1681.1	27.5
1682.13	24
1683.16	25.5
1684.19	28.5
1685.22	24.5
1686.25	22
1687.27	24
1688.3	20
1689.33	25
1690.36	20
1691.38	26
1692.41	28
1693.44	23
1694.47	26
1695.49	27
1696.52	26
1697.55	23
1698.57	23.5
1699.6	24.5
1700.63	26
1701.65	22.5
1702.68	27.5
1703.7	22.5
1704.73	25
1705.76	23.5
1706.78	27.5
1707.81	24
1708.83	27.5
1709.86	27
1710.88	22.5
1711.91	24
1712.93	25.5
1713.95	23
1714.98	24.5
1716	28
1717.03	27
1718.05	23
1719.07	26
1720.1	25
1721.12	27
1722.14	27.5
1723.16	23.5
1724.19	27.5
1725.21	24.5
1726.23	24.5
1727.25	32
1728.28	26.5
1729.3	22.5
1730.32	22
1731.34	24.5
1732.36	22.5
1733.38	25
1734.41	26.5
1735.43	29
1736.45	29
1737.47	26.5
1738.49	26.5
1739.51	25
1740.53	25.5
1741.55	25
1742.57	26.5
1743.59	24.5
1744.61	27
1745.63	23.5
1746.64	27.5
1747.66	26
1748.68	27.5
1749.7	23
1750.72	22
1751.74	24
1752.76	24.5
1753.77	25
1754.79	25.5
1755.81	26.5
1756.83	25
1757.84	25
1758.86	26
1759.88	24.5
1760.9	25
1761.91	23
1762.93	25.5
1763.95	26.5
1764.96	26.5
1765.98	25.5
1766.99	26.5
1768.01	26.5
1769.02	27.5
1770.04	24.5
1771.06	23.5
1772.07	24
1773.09	27
1774.1	24
1775.12	26
1776.13	25.5
1777.14	24.5
1778.16	30.5
1779.17	20.5
1780.19	26.5
1781.2	27
1782.21	25
1783.23	24
1784.24	26.5
1785.25	24
1786.27	27
1787.28	27
1788.29	21
1789.3	24.5
1790.32	26
1791.33	25
1792.34	26
1793.35	24.5
1794.36	25
1795.38	25.5
1796.39	22
1797.4	24
1798.41	23.5
1799.42	24
1800.43	23.5
1801.44	23
1802.45	22
1803.46	28
1804.47	27
1805.48	27
1806.49	24.5
1807.5	24
1808.51	25.5
1809.52	25
1810.53	24.5
1811.54	25
1812.55	25.5
1813.56	27
1814.57	24
1815.57	25.5
1816.58	24.5
1817.59	28
1818.6	24
1819.61	22.5
1820.61	23
1821.62	24.5
1822.63	23
1823.64	24.5
1824.64	25
1825.65	24
1826.66	23.5
1827.66	21
1828.67	25
1829.68	25
1830.68	25
1831.69	26
1832.69	24
1833.7	22
1834.7	23.5
1835.71	25.5
1836.71	26
1837.72	24
1838.72	25.5
1839.73	26
1840.73	21.5
1841.74	25
1842.74	26.5
1843.75	24
1844.75	24.5
1845.75	26
1846.76	26.5
1847.76	23.5
1848.76	23
1849.77	26
1850.77	26
1851.77	26
1852.78	26
1853.78	26.5
1854.78	26.5
1855.78	23
1856.78	25.5
1857.79	27
1858.79	21.5
1859.79	23
1860.79	26.5
1861.79	25.5
1862.79	27
1863.79	24.5
1864.79	27
1865.79	24.5
1866.8	23
1867.8	26.5
1868.8	25
1869.8	27.5
1870.8	27
1871.8	25.5
1872.8	26.5
1873.79	24
1874.79	25.5
1875.79	23.5
1876.79	24
1877.79	24
1878.79	29
1879.79	30
1880.79	24
1881.78	20.5
1882.78	25
1883.78	24
1884.78	23
1885.77	25
1886.77	20
1887.77	26
1888.77	26
1889.76	27.5
1890.76	23
1891.76	28
1892.75	25
1893.75	22.5
1894.75	24.5
1895.74	23.5
1896.74	24.5
1897.73	24
1898.73	25.5
1899.73	27.5
1900.72	21
1901.72	26
1902.71	24.5
1903.7	20.5
1904.7	22
1905.69	26.5
1906.69	29.5
1907.68	28.5
1908.68	22
1909.67	25.5
1910.66	26
1911.66	27
1912.65	24
1913.64	24
1914.64	24.5
1915.63	25
1916.62	25
1917.62	25.5
1918.61	26
1919.6	24.5
1920.59	26
1921.58	26
1922.58	26.5
1923.57	24
1924.56	21.5
1925.55	20
1926.54	25.5
1927.53	26
1928.52	26
1929.51	25.5
1930.51	25
1931.5	20.5
1932.49	25.5
1933.48	27.5
1934.47	24.5
1935.46	22.5
1936.45	24
1937.44	25
1938.42	26
1939.41	24.5
1940.4	22
1941.39	25.5
1942.38	23
1943.37	25
1944.36	22
1945.35	22
1946.33	20.5
1947.32	26.5
1948.31	29.75
1949.3	31
1950.29	23
1951.27	22.5
1952.26	23
1953.25	24
1954.23	25.5
1955.22	26.5
1956.21	24
1957.19	20
1958.18	29.5
1959.17	23
1960.15	22
1961.14	25.5
1962.13	22.5
1963.11	23
1964.1	26
1965.08	22
1966.07	26
1967.05	22.5
1968.04	27
1969.02	22
1970.01	24.5
1970.99	25
1971.97	26.5
1972.96	25
1973.94	22
1974.93	22.5
1975.91	24.5
1976.89	24
1977.88	24
1978.86	28
1979.84	25.5
1980.83	27
1981.81	27
1982.79	25
1983.77	25
1984.76	23
1985.74	21
1986.72	25
1987.7	27
1988.68	23.5
1989.67	23.5
1990.65	22.5
1991.63	25
1992.61	22.5
1993.59	21
1994.57	24
1995.55	27
1996.53	22
1997.51	23
1998.49	22
1999.47	19
2000.45	25.5
2001.43	22
2002.41	25.5
2003.39	27
2004.37	25.5
2005.35	24
2006.33	27.5
2007.31	22
2008.29	24
2009.26	24
2010.24	25.5
2011.22	21
2012.2	25
2013.18	25.5
2014.15	24.5
2015.13	27
2016.11	25
2017.09	25
2018.06	21
2019.04	26
2020.02	26.5
2021	25.5
2021.97	22.5
2022.95	24.5
2023.92	27.5
2024.9	25
2025.88	22
2026.85	23
2027.83	24
2028.8	26.5
2029.78	26.5
2030.75	28.5
2031.73	24.5
2032.7	22
2033.68	22.5
2034.65	24
2035.63	26.5
2036.6	23.5
2037.58	25.5
2038.55	24
2039.52	21
2040.5	24.5
2041.47	19.5
2042.45	22
2043.42	24.5
2044.39	28.5
2045.36	25
2046.34	24.5
2047.31	25.5
2048.28	22.5
2049.26	22
2050.23	25
2051.2	25.5
2052.17	23.5
2053.14	24
2054.12	21
2055.09	24
2056.06	24
2057.03	23.5
2058	27
2058.97	24
2059.94	25
2060.91	25.5
2061.88	21
2062.85	23.5
2063.82	24
2064.79	24.5
2065.76	21.5
2066.73	23.5
2067.7	25
2068.67	24.5
2069.64	23.5
2070.61	20.5
2071.58	25
2072.55	25
2073.52	26
2074.49	25.5
2075.45	28
2076.42	23
2077.39	21
2078.36	25
2079.33	27
2080.29	22.5
2081.26	25.5
2082.23	23
2083.2	22
2084.16	24.5
2085.13	25
2086.1	25.5
2087.06	22
2088.03	22
2089	23
2089.96	23.5
2090.93	23
2091.89	22
2092.86	22
2093.83	23
2094.79	27.5
2095.76	23
2096.72	24.5
2097.69	19
2098.65	20.5
2099.62	25.5
2100.58	26
2101.55	26
2102.51	24.5
2103.47	25
2104.44	23.5
2105.4	26
2106.36	20
2107.33	23
2108.29	23.5
2109.25	23.5
2110.22	26
2111.18	22
2112.14	24
2113.11	26
2114.07	24
2115.03	24
2115.99	23.5
2116.96	28.5
2117.92	26.5
2118.88	27
2119.84	25.5
2120.8	23.5
2121.76	20
2122.72	22.5
2123.68	27
2124.65	20
2125.61	20.5
2126.57	25.5
2127.53	20
2128.49	23
2129.45	25.5
2130.41	22
2131.37	24.5
2132.33	21.5
2133.29	25
2134.25	25.5
2135.21	24.5
2136.17	24
2137.12	23
2138.08	25
2139.04	18.5
2140	26
2140.96	20.5
2141.92	22
2142.88	18.4927
2143.83	22.9511
2144.79	21.0127
2145.75	23.568
2146.71	26.4447
2147.66	24.9803
2148.62	23.0696
2149.58	23.8819
2150.53	25.8768
2151.49	21.2067
2152.45	23.964
2153.4	23.0344
2154.36	23.2814
2155.32	23
2156.27	21.1902
2157.23	24.7991
2158.19	25.6136
2159.14	21.602
2160.1	18.0229
2161.05	23.0045
2162.01	23.4769
2162.96	22.6044
2163.92	28.1566
2164.87	24.2865
2165.83	24.4963
2166.78	24.7722
2167.73	22.9148
2168.69	22.0602
2169.64	23.8012
2170.6	24.9954
2171.55	23.2485
2172.5	22.7738
2173.46	22.8743
2174.41	24.3755
2175.36	24.2605
2176.32	23.3257
2177.27	19.8184
2178.22	23.2882
2179.18	23.2777
2180.13	22.9765
2181.08	24.3433
2182.03	20.0073
2182.98	20.6805
2183.94	22.6915
2184.89	24.0111
2185.84	23.4668
2186.79	19.5123
2187.74	21.9661
2188.69	19.4182
2189.64	21.4607
2190.6	22.8222
2191.55	24.9409
2192.5	22.5057
2193.45	21.549
2194.4	21.5429
2195.35	23.756
2196.3	22.0827
2197.25	22.4974
2198.2	23.2137
2199.15	21.1417
2200.1	23.0003
2201.04	24.3746
2201.99	23.7044
2202.94	23.6085
2203.89	21.5412
2204.84	22.5055
2205.79	25.166
2206.74	27.7234
2207.69	27.2265
2208.63	23.1819
2209.58	21.8657
2210.53	21.4797
2211.48	21.5923
2212.43	22.1832
2213.37	22.5528
2214.32	22.5347
2215.27	21.0851
2216.21	25.7178
2217.16	24.1856
2218.11	23.7015
2219.05	23.4078
2220	21.0014
2220.95	22.936
2221.89	24.4007
2222.84	23.1286
2223.78	24.9066
2224.73	24.967
2225.68	23.06
2226.62	22.5
2227.57	22.6311
2228.51	22.0152
2229.46	23.0087
2230.4	22.1138
2231.35	22.3228
2232.29	23.8485
2233.24	22.8687
2234.18	21.3811
2235.12	23.1378
2236.07	25.7073
2237.01	25.2666
2237.95	23.4145
2238.9	23.7872
2239.84	22.4717
2240.06	22
2241.01	21.5
2241.96	23
2242.91	21.5
2243.86	24
2244.8	22
2245.75	21
2246.7	25
2247.65	23.5
2248.59	23.5
2249.54	22
2250.49	21
2251.43	20
2252.38	24.5
2253.33	22
2254.27	26.5
2255.22	22
2256.16	22
2257.11	24
2258.06	26.5
2259	20.5
2259.95	24
2260.89	24
2261.84	24
2262.78	24
2263.73	17
2264.67	24
2265.62	26
2266.56	19
2267.5	25.5
2268.45	24
2269.39	23
2270.34	25
2271.28	23
2272.22	23
2273.17	26
2274.11	24.5
2275.05	23
2276	23
2276.94	23.5
2277.88	24.5
2278.82	27
2279.77	24.5
2280.71	25
2281.65	25
2282.59	19.5
2283.53	22
2284.48	22.5
2285.42	24.5
2286.36	23
2287.3	23
2288.24	22.5
2289.18	22.5
2290.12	18
2291.06	24
2292	24.5
2292.94	24
2293.89	20.5
2294.83	23.5
2295.77	28
2296.71	26
2297.65	23.5
2298.58	24.5
2299.52	24.5
2300.46	21.5
2301.4	25.5
2302.34	21.5
2303.28	25
2304.22	27
2305.16	22
2306.1	25
2307.03	24
2307.97	24.5
2308.91	26
2309.85	20.5
2310.79	23.5
2311.72	24
2312.66	24
2313.6	25
2314.54	26
2315.47	24
2316.41	24.5
2317.35	21
2318.28	25
2319.22	24
2320.16	21.5
2321.09	23
2322.03	21
2322.96	23
2323.9	24.5
2324.84	24
2325.77	25.5
2326.71	26.5
2327.64	24.5
2328.58	23.5
2329.51	24.5
2330.45	26
2331.38	22
2332.32	23.5
2333.25	23
2334.18	29
2335.12	25
2336.05	25
2336.99	28.5
2337.92	20
2338.85	22.5
2339.79	26
2340.72	28.5
2341.65	25.5
2342.59	27
2343.52	27
2344.45	23.5
2345.39	25.5
2346.32	27
2347.25	22
2348.18	25
2349.11	22.5
2350.05	22.5
2350.98	24.5
2351.91	25
2352.84	23
2353.77	21.5
2354.7	24
2355.64	26
2356.57	20
2357.5	25
2358.43	21.5
2359.36	24
2360.29	22
2361.22	25
2362.15	24
2363.08	23.5
2364.01	22
2364.94	23
2365.87	23
2366.8	26
2367.73	24
2368.66	23.5
2369.58	26
2370.51	26
2371.44	24
2372.37	25
2373.3	21.5
2374.23	23
2375.16	22.5
2376.08	26
2377.01	24
2377.94	19
2378.87	22.5
2379.8	24.5
2380.72	24.5
2381.65	23
2382.58	26.5
2383.5	25
2384.43	21
2385.36	24.5
2386.28	25
2387.21	29.5
2388.14	25.5
2389.06	23
2389.99	24
2390.91	25
2391.84	27
2392.77	22
2393.69	26
2394.62	23.5
2395.54	23.5
2396.47	27.5
2397.39	25.5
2398.32	25
2399.24	24
2400.16	24
2401.09	26
2402.01	26
2402.94	24
2403.86	24
2404.78	25.5
2405.71	27
2406.63	21
2407.56	22
2408.48	25
2409.4	23.5
2410.32	24
2411.25	27.5
2412.17	25.5
2413.09	24
2414.02	23.5
2414.94	23
2415.86	27
2416.78	21.5
2417.7	22
2418.63	24.5
2419.55	26
2420.47	25.5
2421.39	23.5
2422.31	24.5
2423.23	26
2424.15	24.5
2425.07	26
2425.99	22.5
2426.92	23
2427.84	23
2428.76	24
2429.68	22.5
2430.59	21.5
2431.51	25
2432.43	23.5
2433.35	21
2434.27	23
2435.19	24.5
2436.11	25
2437.03	25.5
2437.95	26
2438.87	22.5
2439.79	26.5
2440.71	24
2441.62	21.5
2442.54	25.5
2443.46	26
2444.38	20.5
2445.3	24.5
2446.21	22
2447.13	24.5
2448.05	26.5
2448.97	24
2449.88	23
2450.8	27.5
2451.72	24.5
2452.63	24
2453.55	28
2454.47	25.5
2455.38	23
2456.3	23.5
2457.21	22
2458.13	23.5
2459.05	27
2459.96	25
2460.88	26.5
2461.79	21.5
2462.71	23
2463.62	23
2464.54	22.5
2465.45	25
2466.37	25.5
2467.28	27.5
2468.2	26
2469.11	21.5
2470.02	23
2470.94	24
2471.85	25
2472.77	26
2473.68	25
2474.59	25.5
2475.51	22.5
2476.42	25.5
2477.33	25.5
2478.25	23.5
2479.16	22.5
2480.07	24
2480.98	24
2481.9	23.5
2482.81	26
2483.72	28.5
2484.63	27.5
2485.55	24.5
2486.46	27.5
2487.37	25.5
2488.28	24.5
2489.19	25.5
2490.1	24
2491.01	24.5
2491.92	27.5
2492.83	24
2493.74	27
2494.66	26.5
2495.57	27.5
2496.48	24
2497.39	23
2498.3	26.5
2499.21	27.5
2500.12	25
2501.03	23
2501.93	25.5
2502.84	26
2503.75	25
2504.66	27
2505.57	27.5
2506.48	26.5
2507.39	27
2508.3	26
2509.21	26
2510.11	21.5
2511.02	28.5
2511.93	25
2512.84	27
2513.75	25
2514.65	26.5
2515.56	22
2516.47	27
2517.37	29
2518.28	26
2519.19	23.5
2520.09	25
2521	20.5
2521.91	24.5
2522.81	24.5
2523.72	23
2524.63	24.5
2525.53	24
2526.44	20.5
2527.34	23.5
2528.25	23
2529.16	25
2530.06	27
2530.97	23.5
2531.87	25
2532.78	25.5
2533.68	23.5
2534.58	23.5
2535.49	23.5
2536.39	23
2537.3	25.5
2538.2	22
2539.11	24
2540.01	25.5
2540.91	21
2541.82	26
2542.72	29.5
2543.62	24
2544.53	26
2545.43	24
2546.33	25.5
2547.23	23.5
2548.14	28.5
2549.04	23
2549.94	24
2550.84	28
2551.75	26
2552.65	25
2553.55	27
2554.45	25
2555.35	24
2556.26	25.5
2557.16	27.5
2558.06	26.5
2558.96	26
2559.86	27.5
2560.76	26.5
2561.66	27.5
2562.56	28
2563.46	24
2564.36	22
2565.26	25
2566.16	24.5
2567.06	28
2567.96	25
2568.86	26
2569.76	23.5
2570.66	22.5
2571.56	24
2572.46	26.5
2573.36	24
2574.26	23
2575.16	26.5
2576.05	24
2576.95	24
2577.85	27
2578.75	26
2579.65	30
2580.54	24
2581.44	28
2582.34	20
2583.24	23.5
2584.13	23
2585.03	25.5
2585.93	26
2586.83	22
2587.72	23
2588.62	24.5
2589.52	22.5
2590.41	24
2591.31	27
2592.2	23
2593.1	28
2594	22
2594.89	25
2595.79	24
2596.68	25
2597.58	25
2598.47	28.5
2599.37	25
2600.26	21.5
2601.16	23
2602.05	27
2602.95	23
2603.84	23.5
2604.74	26
2605.63	28
2606.52	27
2607.42	24
2608.31	23
2609.21	22.5
2610.1	20
2610.99	27
2611.89	28
2612.78	25
2613.67	23
2614.56	25
2615.46	23
2616.35	25
2617.24	30
2618.13	19
2619.03	26
2619.92	23
2620.81	25
2621.7	25.5
2622.59	24
2623.49	28
2624.38	26
2625.27	23.5
2626.16	25.5
2627.05	26.5
2627.94	23.5
2628.83	23.5
2629.72	22
2630.61	27
2631.5	28.5
2632.39	28
2633.28	25
2634.17	29.5
2635.06	20
2635.95	23
2636.84	29.5
2637.73	24.5
2638.62	22.5
2639.51	22
2640.4	28
2641.29	21
2642.18	21
2643.07	24.5
2643.96	27
2644.84	26.5
2645.73	24
2646.62	26.5
2647.51	23.5
2648.4	26.5
2649.28	25.5
2650.17	30.5
2651.06	26.5
2651.95	27
2652.83	23
2653.72	26.5
2654.61	26.5
2655.49	21.5
2656.38	27
2657.27	24
2658.16	22
2659.04	25
2659.93	24
2660.81	23
2661.7	23.5
2662.59	25
2663.47	23
2664.36	22
2665.24	26.5
2666.13	25
2667.01	24.5
2667.9	24
2668.78	23.5
2669.67	26
2670.55	24
2671.44	24
2672.32	23
2673.21	23
2674.09	28.5
2674.97	25.5
2675.86	22.5
2676.74	25.5
2677.62	26.5
2678.51	24
2679.39	23
2680.27	28.5
2681.16	22.5
2682.04	24
2682.92	26
2683.81	28
2684.69	26.5
2685.57	27.5
2686.45	25
2687.34	21.5
2688.22	28
2689.1	24.5
2689.98	25.5
2690.86	23.5
2691.75	23.5
2692.63	26
2693.51	29.5
2694.39	18
2695.27	25
2696.15	25.5
2697.03	24.5
2697.91	24.5
2698.79	22
2699.67	24
2700.55	25.5
2701.43	20
2702.31	23.5
2703.19	25
2704.07	25.5
2704.95	29
2705.83	24
2706.71	26.5
2707.59	23.5
2708.47	23
2709.35	24
2710.23	26.5
2711.11	26
2711.99	24
2712.86	24.5
2713.74	25.5
2714.62	25
2715.5	22.5
2716.38	24.5
2717.26	19
2718.13	26
2719.01	26
2719.89	23
2720.77	25
2721.64	27.5
2722.52	25
2723.4	24
2724.27	25
2725.15	20.5
2726.03	25.5
2726.9	24.5
2727.78	28.5
2728.66	25
2729.53	27
2730.41	26
2731.28	23
2732.16	24
2733.03	28
2733.91	20.5
2734.79	20
2735.66	26.5
2736.54	23.5
2737.41	23
2738.29	25.5
2739.16	26.5
2740.03	22
2740.91	25.5
2741.78	23.5
2742.66	25.5
2743.53	26.5
2744.41	26.5
2745.28	26.5
2746.15	27
2747.03	27
2747.9	26.5
2748.77	24.5
2749.65	26.5
2750.52	26.5
2751.39	25.5
2752.27	23
2753.14	27
2754.01	24
2754.88	22.5
2755.75	30
2756.63	24.5
2757.5	23.5
2758.37	24.5
2759.24	22
2760.11	28
2760.99	27
2761.86	21.5
2762.73	22
2763.6	23.5
2764.47	23.5
2765.34	25.5
2766.21	27.5
2767.08	28
2767.95	27.5
2768.82	26.5
2769.69	27.5
2770.56	22
2771.43	25.5
2772.3	23
2773.17	26.5
2774.04	20.5
2774.91	23
2775.78	25.5
2776.65	28.5
2777.52	24
2778.39	22
2779.26	25.5
2780.13	28
2780.99	29
2781.86	26
2782.73	23
2783.6	24.5
2784.47	26
2785.34	24.5
2786.2	22
2787.07	23
2787.94	28
2788.81	24.5
2789.67	25.5
2790.54	25.5
2791.41	26
2792.27	27
2793.14	24
2794.01	27
2794.87	25
2795.74	25
2796.61	28.5
2797.47	26
2798.34	27.5
2799.21	28.5
2800.07	25.5
2800.94	25.75
2801.8	25
2802.67	23
2803.53	22
2804.4	27.5
2805.26	28
2806.13	25
2806.99	28
2807.86	23.5
2808.72	26
2809.59	27
2810.45	26.5
2811.32	23.5
2812.18	26
2813.04	25
2813.91	24.5
2814.77	26.5
2815.64	28.5
2816.5	22.5
2817.36	25
2818.22	23
2819.09	29.5
2819.95	23.5
2820.81	28
2821.68	24.5
2822.54	25.5
2823.4	28
2824.26	24.5
2825.13	26.5
2825.99	30
2826.85	25
2827.71	27.5
2828.57	26.5
2829.44	26
2830.3	26
2831.16	25
2832.02	27.5
2832.88	28
2833.74	28
2834.6	24
2835.46	26.5
2836.32	27
2837.18	23
2838.04	28.5
2838.9	26.5
2839.76	21.5
2840.62	25.5
2841.48	26.5
2842.34	28.5
2843.2	24
2844.06	24
2844.92	22
2845.78	25.5
2846.64	24
2847.5	26.5
2848.36	24
2849.22	24.5
2850.08	32.5
2850.93	23
2851.79	30
2852.65	25.5
2853.51	25
2854.37	26.5
2855.22	26.5
2856.08	28
2856.94	28.5
2857.8	26
2858.65	26.5
2859.51	24
2860.37	24.5
2861.23	25
2862.08	29.5
2862.94	22
2863.79	31.5
2864.65	26
2865.51	27.5
2866.36	28
2867.22	27.5
2868.08	27.5
2868.93	27.5
2869.79	28.5
2870.64	28
2871.5	27
2872.35	33.5
2873.21	27
2874.06	25.5
2874.92	32
2875.77	27
2876.63	28.5
2877.48	32
2878.34	31.5
2879.19	31
2880.05	33
2880.9	31
2881.76	30
2882.61	32.5
2883.46	29
2884.32	33.5
2885.17	34.5
2886.02	36
2886.88	34
2887.73	33.5
2888.58	36.5
2889.44	35.5
2890.29	39.5
2891.14	37.5
2891.99	46.5
2892.85	39
2893.7	42
2894.55	46.5
2895.4	44
2896.25	45.5
2897.11	52.5
2897.96	48.5
2898.81	53
2899.66	51.5
2900.51	51
2901.36	49
2902.21	56
2903.07	63.5
2903.92	63.5
2904.77	63.5
2905.62	66
2906.47	65.5
2907.32	64.5
2908.17	61
2909.02	59
2909.87	55.5
2910.72	54.5
2911.57	55.5
2912.42	48
2913.27	49
2914.12	44
2914.97	43
2915.81	45.5
2916.66	39.5
2917.51	34.5
2918.36	38.5
2919.21	38.5
2920.06	31.5
2920.91	35.5
2921.75	30
2922.6	32
2923.45	31.5
2924.3	27
2925.15	29.5
2925.99	28.5
2926.84	29
2927.69	28.5
2928.54	31
2929.38	31
2930.23	29
2931.08	28.5
2931.92	26.5
2932.77	28
2933.62	26
2934.46	26
2935.31	28
2936.16	29
2937	31.5
2937.85	30
2938.69	26
2939.54	27
2940.38	27
2941.23	28.5
2942.08	29
2942.92	24.5
2943.77	27.5
2944.61	22.5
2945.46	28
2946.3	26
2947.15	30
2947.99	27
2948.83	30
2949.68	29.5
2950.52	25.5
2951.37	32
2952.21	32
2953.05	29.5
2953.9	29.5
2954.74	32.5
2955.58	28.5
2956.43	33.5
2957.27	37
2958.11	33
2958.96	34.5
2959.8	35
2960.64	36
2961.48	39
2962.33	44
2963.17	38.5
2964.01	44
2964.85	37
2965.69	39
2966.54	38.5
2967.38	37.5
2968.22	38
2969.06	39.5
2969.9	33.5
2970.74	40
2971.58	31.0049
2972.43	36.3805
2973.27	33.955
2974.11	35.0084
2974.95	29.1648
2975.79	34.6732
2976.63	24.3691
2977.47	35.6282
2978.31	32.4863
2979.15	32.2148
2979.99	29.449
2980.83	31.416
2981.67	28.3641
2982.51	24.8045
2983.35	28.2212
2984.19	25.3564
2985.03	26.5247
2985.86	24.6737
2986.7	29.2682
2987.54	27.48
2988.38	25.4827
2989.22	25.8631
2990.06	25.6465
2990.9	23.6413
2991.73	27.6424
2992.57	25.554
2993.41	24.3605
2994.25	25.2985
2995.09	25.5801
2995.92	25.3954
2996.76	23.9827
2997.6	23.9793
2998.44	26.9033
2999.27	25.3091
3000.11	24.1645
3000.95	25.5511
3001.78	23.6772
3002.62	22.6102
3003.46	26.2377
3004.29	26.6879
3005.13	25.6238
3005.96	24.582
3006.8	25.425
3007.64	23.7349
3008.47	24.1156
3009.31	21.9688
3010.14	24.8354
3010.98	24.8367
3011.81	22.1562
3012.65	25.1726
3013.48	22.1061
3014.32	23.2583
3015.15	22.3812
3015.99	22.2965
3016.82	23.0874
3017.66	24.7855
3018.49	24.5756
3019.33	23.235
3020.16	22.9283
3020.99	24.5358
3021.83	25.9126
3022.66	24.5948
3023.5	24.5588
3024.33	24.1158
3025.16	23.6085
3026	23.0199
3026.83	22.5739
3027.66	22.0657
3028.49	22.1244
3029.33	23.2509
3030.16	23.3325
3030.99	22.3013
3031.83	22.5922
3032.66	22.6229
3033.49	24.0774
3034.32	21.1746
3035.15	22.4954
3035.99	24.8548
3036.82	24.8471
3037.65	23.9563
3038.48	24.5931
3039.31	23.1823
3040.14	24.0704
3040.97	22.5984
3041.81	21.7595
3042.64	23.1129
3043.47	24.6168
3044.3	25.5374
3045.13	26.2734
3045.96	23.4334
3046.79	21.1068
3047.62	22.4984
3048.45	25.1019
3049.28	23.5446
3050.11	22.1961
3050.94	22.9414
3051.77	23.0556
3052.6	21.6335
3053.43	22.6643
3054.26	23.0861
3055.08	22.8336
3055.91	23.9547
3056.74	23.8473
3057.26	26
3058.09	23.5
3058.92	25
3059.76	24.5
3060.59	21.5
3061.42	24.5
3062.25	26
3063.09	25.5
3063.92	23.5
3064.75	27
3065.58	22
3066.42	23.5
3067.25	22.5
3068.08	26.5
3068.91	21
3069.74	23
3070.57	19
3071.41	25
3072.24	25.5
3073.07	22
3073.9	25.5
3074.73	17
3075.56	23.5
3076.39	24.5
3077.22	23
3078.05	23.5
3078.88	24
3079.71	26
3080.54	23
3081.37	26.5
3082.2	25
3083.03	25.5
3083.86	21
3084.69	25
3085.52	26.5
3086.35	21.5
3087.18	24
3088.01	23
3088.84	21
3089.67	20
3090.5	25.5
3091.32	24
3092.15	23.5
3092.98	27
3093.81	25.5
3094.64	20.5
3095.47	23.5
3096.29	26
3097.12	23
3097.95	22
3098.78	22
3099.6	24
3100.43	19.5
3101.26	26.5
3102.09	23
3102.91	22
3103.74	25
3104.57	28
3105.39	24
3106.22	20
3107.05	24
3107.87	22
3108.7	20
3109.52	21
3110.35	26
3111.18	25.5
3112	21.5
3112.83	24.5
3113.65	23
3114.48	22
3115.3	22.5
3116.13	22.5
3116.95	21
3117.78	20.5
3118.6	21.5
3119.43	27
3120.25	23.5
3121.08	22.5
3121.9	22
3122.72	21
3123.55	23
3124.37	22.5
3125.2	26
3126.02	22
3126.84	21
3127.67	22
3128.49	24.5
3129.31	21.5
3130.14	22
3130.96	25
3131.78	25.5
3132.61	23
3133.43	19.5
3134.25	27
3135.07	24.5
3135.89	22
3136.72	22
3137.54	25.5
3138.36	20.5
3139.18	24
3140	26
3140.83	26.5
3141.65	21
3142.47	24
3143.29	24.5
3144.11	19.5
3144.93	22.5
3145.75	26.5
3146.57	19.5
3147.4	21
3148.22	25
3149.04	24
3149.86	22.5
3150.68	26
3151.5	26
3152.32	25
3153.14	22
3153.96	21.5
3154.78	23.5
3155.59	26
3156.42	26.5
3157.23	29
3158.05	23.5
3158.87	25.5
3159.69	24
3160.51	26.5
3161.33	19
3162.15	22
3162.97	24
3163.78	25.5
3164.6	27
3165.42	23
3166.24	24.5
3167.06	25
3167.87	25.5
3168.69	26.5
3169.51	22
3170.33	24
3171.14	24.5
3171.96	24
3172.78	25.5
3173.6	28
3174.41	26
3175.23	22.5
3176.05	21.5
3176.86	23.5
3177.68	23
3178.5	25
3179.31	23.5
3180.13	21.5
3180.94	24
3181.76	27
3182.58	21
3183.39	22
3184.21	20
3185.02	25
3185.84	21.5
3186.65	25.5
3187.47	22.5
3188.28	23.5
3189.1	21
3189.91	27
3190.73	22.5
3191.54	24.5
3192.36	23
3193.17	26
3193.98	26
3194.8	23
3195.61	27
3196.43	28
3197.24	26
3198.05	29.5
3198.87	23
3199.68	23
3200.49	25
3201.31	24
3202.12	21
3202.93	26
3203.75	21
3204.56	22.5
3205.37	27
3206.18	22
3207	22.5
3207.81	22.5
3208.62	22.5
3209.43	28
3210.24	26.5
3211.06	25
3211.87	25.5
3212.68	20
3213.49	21
3214.3	27
3215.11	25
3215.92	26
3216.73	24
3217.55	24.5
3218.36	23.5
3219.17	22
3219.98	26
3220.79	24.5
3221.6	20
3222.41	22.5
3223.22	27
3224.03	25.5
3224.84	24.5
3225.65	24
3226.46	23.5
3227.27	20.5
3228.08	23.5
3228.89	26
3229.7	27
3230.5	21.5
3231.31	26.5
3232.12	25
3232.93	25
3233.74	28.5
3234.55	22
3235.36	21
3236.16	23.5
3236.97	22
3237.78	27.5
3238.59	23
3239.4	25
3240.2	23
3241.01	25
3241.82	23.5
3242.63	21
3243.43	23
3244.24	26
3245.05	22
3245.85	23
3246.66	26
3247.47	23.5
3248.27	23
3249.08	23
3249.89	26
3250.69	23.5
3251.5	23
3252.31	22.5
3253.11	25
3253.92	19
3254.72	25.5
3255.53	28
3256.33	22
3257.14	22
3257.94	23
3258.75	22.5
3259.55	25.5
3260.36	24
3261.16	26
3261.97	27
3262.77	25
3263.58	24
3264.38	24
3265.19	28
3265.99	21
3266.79	22.5
3267.6	22
3268.4	20
3269.21	23
3270.01	23
3270.81	23
3271.62	23
3272.42	25
3273.22	27
3274.03	22.5
3274.83	24.5
3275.63	26.5
3276.43	25
3277.24	26
3278.04	20.5
3278.84	23
3279.64	22.5
3280.45	24.5
3281.25	20.5
3282.05	24
3282.85	22
3283.65	23
3284.45	23.5
3285.26	22
3286.06	20.5
3286.86	25.5
3287.66	23.5
3288.46	23.5
3289.26	22.5
3290.06	23.5
3290.86	26
3291.66	25
3292.46	27.5
3293.26	22
3294.06	26
3294.86	26
3295.66	26.5
3296.46	29
3297.26	23.5
3298.06	21.5
3298.86	25
3299.66	25
3300.46	24
3301.26	23.5
3302.06	24
3302.86	22
3303.66	25
3304.46	24
3305.25	26.5
3306.05	21.5
3306.85	23.5
3307.65	25
3308.45	25.5
3309.25	25
3310.04	25.5
3310.84	27.5
3311.64	21
3312.44	23.5
3313.23	25.5
3314.03	25
3314.83	18.5
3315.63	24
3316.42	23
3317.22	26
3318.02	23.5
3318.81	26
3319.61	22
3320.41	25.5
3321.2	27
3322	24.5
3322.8	22.5
3323.59	27
3324.39	27
3325.18	21
3325.98	22.5
3326.78	23
3327.57	24
3328.37	27
3329.16	24
3329.96	21
3330.75	25
3331.55	26.5
3332.34	24
3333.14	18
3333.93	25.5
3334.73	24.5
3335.52	26
3336.31	25
3337.11	22.5
3337.9	22.5
3338.7	24
3339.49	26.5
3340.28	24
3341.08	27.5
3341.87	24.5
3342.66	24
3343.46	21.5
3344.25	23.5
3345.04	23
3345.84	27.5
3346.63	24.5
3347.42	25.5
3348.22	23
3349.01	29
3349.8	26
3350.59	20
3351.39	24
3352.18	24.5
3352.97	25
3353.76	25
3354.55	21.5
3355.35	23
3356.14	26
3356.93	26
3357.72	24
3358.51	21
3359.3	20
3360.09	26.5
3360.88	22
3361.67	25.5
3362.46	21
3363.26	22.5
3364.05	24
3364.84	26.5
3365.63	24
3366.42	25
3367.21	25
3368	24
3368.79	24.5
3369.58	24
3370.37	22
3371.15	22
3371.94	24
3372.73	28.5
3373.52	22
3374.31	23
3375.1	22.5
3375.89	26
3376.68	25
3377.47	24
3378.26	24
3379.04	26
3379.83	25
3380.62	25
3381.41	28
3382.2	21
3382.98	24
3383.77	23
3384.56	29.5
3385.35	26.5
3386.13	26
3386.92	24.5
3387.71	28
3388.5	23.5
3389.28	28
3390.07	23.5
3390.86	24
3391.64	24
3392.43	23
3393.22	27
3394	25
3394.79	20
3395.57	25
3396.36	21.5
3397.15	26
3397.93	24
3398.72	26
3399.5	25.5
3400.29	28.5
3401.07	25.5
3401.86	27
3402.65	27
3403.43	26.5
3404.21	24.5
3405	22
3405.78	27.5
3406.57	22.5
3407.35	23.5
3408.14	26
3408.92	25
3409.71	27
3410.49	24
3411.27	21
3412.06	23
3412.84	24.5
3413.62	26
3414.41	25.5
3415.19	24
3415.97	23
3416.76	24.5
3417.54	24.5
3418.32	24
3419.11	23
3419.89	21.5
3420.67	27.5
3421.46	23
3422.24	22
3423.02	23.5
3423.8	22
3424.58	24
3425.37	24
3426.15	25
3426.93	25
3427.71	23.5
3428.49	25
3429.27	26
3430.05	22
3430.84	24.5
3431.62	26
3432.4	22.5
3433.18	28
3433.96	28
3434.74	19
3435.52	24.5
3436.3	27.5
3437.08	21
3437.86	27
3438.64	23.5
3439.42	21.5
3440.2	25.5
3440.98	22
3441.76	27
3442.54	25
3443.32	22.5
3444.1	24.5
3444.88	29
3445.66	25
3446.44	27
3447.22	26.5
3448	28
3448.77	24
3449.55	27
3450.33	22.5
3451.11	25.5
3451.89	22
3452.67	24.5
3453.45	25.5
3454.22	23
3455	22
3455.78	24
3456.56	25.5
3457.33	24
3458.11	25.5
3458.89	23
3459.67	24.5
3460.44	24
3461.22	26.5
3462	26.5
3462.77	23
3463.55	23
3464.33	18
3465.1	28
3465.88	26.5
3466.66	25.5
3467.43	23
3468.21	24
3468.98	26.5
3469.76	21.5
3470.54	25
3471.31	24
3472.09	23
3472.86	22.5
3473.64	24.5
3474.41	22.5
3475.19	20
3475.96	23.5
3476.74	22.5
3477.51	24.5
3478.29	21
3479.06	27
3479.84	24.5
3480.61	27
3481.39	28.5
3482.16	26
3482.93	23.5
3483.71	24
3484.48	28
3485.25	28.5
3486.03	29.5
3486.8	23
3487.57	24.5
3488.35	26
3489.12	27.5
3489.89	27
3490.67	27
3491.44	25
3492.21	21.5
3492.99	23.5
3493.76	27
3494.53	27.5
3495.3	24.5
3496.08	27
3496.85	20.5
3497.62	25.5
3498.39	24.5
3499.16	25
3499.93	22.5
