#Acq. time (s)=	5
#Accumulations=	5
#Range (cm-¹)=	100...3500
#Windows=	4
#Autofocus=	Off
#AutoExposure=	Off
#Spike filter=	Multiple accum.
#Delay time (s)=	0
#Binning=	1
#Readout mode=	Signal
#DeNoise=	Off
#ICS correction=	Off
#Dark correction=	Off
#Inst. Process=	Off
#Instrument=	LabRAM HR Evol
#Detector=	Syncerity OE
#Objective=	x100_VIS
#Grating=	600 (500nm)
#ND Filter=	25%
#Laser=	633nm_Edge
#Hole=	100.021
#Range=	Visible
#Project=	verificaciones
#Sample=	at5
#Site=	plain
#Title=	bolusat5plain
#Remark=	
#Date=	13.01.2026 19:05
#Acquired=	13.01.2026 19:05:28
100.692	25
101.975	29
103.258	34
104.542	27.5
105.824	24.5
107.107	31.5
108.39	28.5
109.672	26.5
110.954	30.5
112.236	29.5
113.519	28.5
114.8	26
116.081	32
117.362	31.5
118.643	28.5
119.924	31.5
121.204	31.5
122.484	25
123.764	30.5
125.044	30.5
126.323	33.5
127.603	35
128.882	29.5
130.161	30.5
131.438	31
132.716	33.5
133.995	34
135.273	29.5
136.55	34
137.828	35
139.106	31
140.383	39
141.66	34
142.937	37
144.213	31
145.488	39.5
146.764	36
148.04	34.5
149.316	40
150.592	39
151.867	38
153.141	39.5
154.416	40.5
155.69	36.5
156.965	37
158.239	39.5
159.512	36
160.786	39
162.059	37
163.333	37
164.605	37
165.878	32.5
167.15	33.5
168.423	37.5
169.694	37
170.966	35
172.238	40.5
173.51	38
174.78	40
176.052	40
177.323	35
178.592	40
179.863	37
181.134	36.5
182.403	39.5
183.673	36.5
184.943	38
186.211	42
187.481	39
188.749	38
190.018	32.5
191.287	39.5
192.554	38
193.822	38
195.089	36
196.357	37
197.625	34
198.891	35.5
200.159	33
201.425	37
202.692	33
203.957	31.5
205.224	34.5
206.489	36
207.755	32.5
209.02	34
210.286	33
211.55	38.5
212.815	35
214.079	29.5
215.344	31.5
216.607	33.5
217.872	33
219.135	35.5
220.399	33
221.662	33.5
222.924	34.5
224.187	34
225.449	35
226.713	33.5
227.974	33.5
229.235	30.5
230.498	30
231.759	30
233.019	31
234.281	26.5
235.542	30.5
236.802	31.5
238.063	24.5
239.323	28.5
240.582	29
241.843	29
243.102	29
244.361	24
245.621	29.5
246.879	25
248.138	30
249.396	29
250.655	28
251.913	30.5
253.17	29.5
254.427	26.5
255.686	25
256.943	28.5
258.199	32.5
259.456	30.5
260.712	31
261.969	34
263.225	30.5
264.481	30
265.736	28.5
266.991	30
268.246	33
269.502	31
270.757	34
272.011	27.5
273.265	26.5
274.519	30
275.773	26
277.027	27
278.28	26
279.533	29
280.786	28
282.04	32.5
283.293	29.5
284.545	28
285.798	23.5
287.049	27
288.301	31.5
289.553	27.5
290.804	29
292.055	27.5
293.306	33
294.557	29
295.807	25
297.058	27
298.308	30.5
299.558	25
300.808	27
302.057	28.5
303.305	28
304.554	27
305.803	28
307.052	26
308.3	28.5
309.549	30
310.797	26.5
312.045	30
313.292	28
314.54	27.5
315.786	28
317.033	29
318.28	29
319.526	30
320.773	26
322.019	32.5
323.264	26
324.51	26
325.755	28
327.001	27
328.246	24
329.49	29
330.735	27
331.979	28.5
333.224	30.5
334.467	27.5
335.711	26.5
336.955	32.5
338.199	29.5
339.441	34
340.684	24.5
341.927	32
343.168	26
344.411	28
345.654	30.5
346.895	27
348.137	29
349.379	28
350.619	26.5
351.86	30
353.102	26.5
354.341	29.5
355.582	30
356.821	34
358.062	26.5
359.302	29
360.541	26
361.781	28.5
363.019	29
364.259	29
365.496	31.5
366.736	30
367.974	30.5
369.212	29.5
370.45	25
371.687	29
372.925	27.5
374.162	30
375.399	31.5
376.635	28.5
377.873	31
379.109	31
380.344	31
381.581	23
382.816	24.5
384.052	26
385.287	25.5
386.523	34
387.757	23
388.991	24.5
390.227	31
391.46	26
392.695	25
393.928	29
395.162	28.5
396.396	26.5
397.629	30
398.861	28.5
400.095	24.5
401.327	25.5
402.559	27.5
403.792	27
405.024	28.5
406.255	30.5
407.488	26
408.719	25.5
409.949	28
411.18	27
412.412	27
413.642	28.5
414.872	28
416.102	21
417.333	25
418.562	25
419.791	30.5
421.02	33
422.249	26
423.479	28
424.707	29.5
425.935	29.5
427.163	27
428.391	26
429.619	27.5
430.848	27
432.075	26
433.302	25.5
434.529	27
435.755	27
436.982	31.5
438.208	28
439.434	31.5
440.66	23.5
441.885	30.5
443.111	24
444.338	26.5
445.563	26
446.788	30.5
448.012	31
449.237	27
450.461	27.5
451.685	27
452.909	25.5
454.133	30.5
455.356	26.5
456.579	28
457.802	28.5
459.025	30.5
460.247	32
461.469	28
462.691	28
463.914	29
465.136	29
466.357	28
467.579	32.5
468.8	32
470.021	33.5
471.242	34.5
472.462	34.5
473.682	36
474.903	39
476.123	40
477.343	43.5
478.563	42.5
479.782	42.5
481	48
482.219	48.5
483.438	51.5
484.657	53.5
485.874	55
487.093	60
488.311	53
489.529	58
490.747	49.5
491.963	52
493.181	50
494.398	49
495.614	47
496.83	47.5
498.047	46
499.264	41
500.479	46
501.695	32
502.911	36
504.125	37
505.34	37.5
506.554	40.5
507.769	32.5
508.984	33.5
510.198	31.5
511.412	35.5
512.627	36.5
513.839	30
515.053	30.5
516.266	30
517.479	32
518.691	36.5
519.905	29.5
521.118	35
522.329	32
523.542	28.5
524.753	34
525.965	30
527.176	29
528.388	31.5
529.598	29
530.809	32
532.019	30
533.23	32
534.44	32.5
535.649	26.5
536.86	28.5
538.068	28
539.279	29
540.487	31
541.697	24
542.905	29
544.113	28.5
545.322	29
546.53	29
547.737	27
548.946	25
550.153	29
551.361	28.5
552.568	29.5
553.774	28
554.982	26
556.188	30.5
557.394	24
558.599	30
559.806	25.5
561.012	30.5
562.217	25
563.423	28
564.628	31
565.832	27
567.036	30.5
568.241	30
569.446	28
570.65	29.5
571.853	26.5
573.057	27
574.26	23
575.464	27
576.667	29
577.87	25.5
579.072	26
580.274	28.5
581.477	28
582.68	29.5
583.881	27.5
585.083	31
586.284	31
587.485	34.5
588.686	27.5
589.887	31
591.087	24
592.288	29
593.488	30
594.688	30
595.888	26
597.087	32
598.287	33
599.486	28
600.685	31
601.884	24
603.082	24
604.281	31
605.479	27
606.677	27
607.875	28
609.073	26.5
610.27	26.5
611.468	29.5
612.665	30
613.862	29.5
615.058	31
616.255	25
617.451	28
618.648	25.5
619.842	26
621.038	30.5
622.234	28
623.429	31
624.624	31
625.819	28
627.013	28.5
628.207	29
629.402	28
630.596	23
631.79	31
632.983	26
634.177	30
635.37	32.5
636.564	27
637.755	27
638.948	30.5
640.141	24.5
641.334	25
642.525	28
643.717	31.5
644.909	32.5
646.099	31.5
647.291	32.5
648.483	25.5
649.674	27
650.864	26
652.055	29
653.244	26
654.435	28
655.625	31.5
656.814	30.5
658.004	27.5
659.193	31.5
660.382	25.5
661.571	26
662.759	27.5
663.948	30
665.135	30.5
666.324	34.5
667.511	28
668.7	28
669.886	29
671.074	31.5
672.262	28.5
673.448	32
674.634	28
675.821	31
677.007	30
678.194	31.5
679.379	33
680.565	35.5
681.75	33.5
682.936	34.5
684.121	29
685.305	32
686.491	33.5
687.675	35.5
688.86	33
690.043	35
691.227	33.5
692.411	32
693.594	33
694.777	34
695.961	35.5
697.144	33
698.326	39.5
699.509	35
700.691	37
701.873	42
703.056	39
704.237	37
705.419	48
706.599	47.5
707.782	46.5
708.962	45
710.143	47
711.323	43.5
712.504	45.5
713.684	35
714.864	35
716.043	30.5
717.223	33
718.403	30
719.582	32
720.761	28
721.94	31
723.118	28
724.296	26.5
725.474	27
726.652	27
727.831	29.5
729.009	27
730.186	26
731.363	27
732.54	27.5
733.717	26
734.893	28.5
736.07	30
737.246	32.5
738.422	30.5
739.598	29
740.773	30
741.949	25
743.124	28.5
744.299	27.5
745.474	30.5
746.649	30
747.823	24.5
748.997	26
750.172	29
751.346	28
752.519	28
753.693	27.5
754.867	28
756.038	28
757.211	26.5
758.384	29
759.557	27
760.73	29.5
761.902	29
763.074	28
764.246	25.5
765.417	29.5
766.588	31.5
767.76	24
768.931	29.5
770.102	27
771.271	30
772.442	25.5
773.613	30.5
774.783	28
775.952	33.5
777.122	33
778.291	27
779.461	29.5
780.629	31.5
781.798	30
782.967	30
784.135	29.5
785.304	29.5
786.472	30.5
787.639	30.5
788.807	28.5
789.975	31
791.142	31.5
792.309	29.5
793.477	31
794.642	31.5
795.81	30
796.975	29
798.142	29.5
799.308	30
800.473	30
801.639	26
802.804	29
803.97	28.5
805.134	28.5
806.299	26
807.463	27
808.628	26
809.792	26
810.957	25
812.12	29
813.284	29.5
814.447	31
815.611	31.5
816.773	29.5
817.937	31
819.099	31
820.261	26
821.424	27
822.585	26.5
823.748	29.5
824.909	25.5
826.07	26.5
827.232	28
828.393	27
829.554	27.5
830.715	26.5
831.875	27.5
833.035	30
834.196	25
835.356	25
836.515	29
837.676	26.5
838.835	26
839.994	28
841.152	29.5
842.312	27
843.47	25
844.629	24.5
845.786	29.5
846.946	29.5
848.103	27
849.261	27.5
850.418	28
851.575	28
852.733	27
853.89	27.5
855.046	25.5
856.203	29.5
857.359	29
858.515	27
859.67	30.5
860.827	29
861.983	27
863.138	30.5
864.293	30.5
865.448	27.5
866.603	28.5
867.757	29.5
868.912	28.5
870.066	27
871.22	28.5
872.374	29.5
873.527	28
874.681	29
875.834	28
876.987	25
878.14	26
879.293	28.5
880.445	25.5
881.598	25
882.75	28
883.902	25
885.054	26
886.206	24.5
887.357	29
888.507	25.5
889.658	23.5
890.809	25
891.96	29.5
893.111	28.5
894.261	28.5
895.411	25
896.561	28.5
897.71	27
898.86	27.5
900.009	25.5
901.159	27.5
902.308	30
903.455	28.5
904.604	27.5
905.753	27
906.901	27
908.048	29.5
909.197	23.5
910.344	29
911.492	26.5
912.639	26
913.786	27
914.933	27
916.079	23
917.226	30.5
918.373	27.5
919.518	28
920.664	26
921.81	26
922.955	25
924.101	25.5
925.245	28
926.391	29
927.536	26
928.68	30.5
929.825	25.5
930.968	28
932.113	25.5
933.256	25.5
934.4	27.5
935.543	27
936.687	28
937.83	25
938.973	24
940.115	30
941.258	23.5
942.399	28
943.542	25
944.684	26.5
945.826	28
946.967	29
948.109	27.5
949.25	24
950.392	26
951.532	26
952.672	26.5
953.813	26.5
954.953	28.5
956.093	21.5
957.233	23.5
958.373	26
959.512	28.5
960.652	32
961.791	26
962.929	23
964.069	29
965.207	26
966.345	25.5
967.484	25
968.622	24
969.759	28
970.896	28.75
972.035	29.5
973.172	31
974.309	26.5
975.445	24.5
976.582	26
977.719	30
978.855	28
979.991	28
981.127	29.5
982.263	29
983.398	28
984.535	22.5
985.67	23.5
986.804	25
987.939	27.5
989.074	25.5
990.208	25
991.342	22.5
992.476	27
993.61	25.5
994.744	25.5
995.877	30
997.01	30
998.143	26.5
999.276	27
1000.41	29
1001.54	26
1002.67	27.5
1003.81	29.5
1004.94	26.5
1006.07	29.5
1007.2	26
1008.33	22
1009.47	26
1010.6	26.5
1011.73	24.5
1012.86	25.5
1013.99	25.5
1015.12	28.5
1016.25	26
1017.38	22
1018.51	29.5
1019.64	29
1020.77	25.5
1021.9	23
1023.03	21
1024.15	26
1025.28	27.5
1026.41	27
1027.54	22
1028.67	26
1029.8	26
1030.92	25
1032.05	19
1033.18	24.5
1034.31	29
1035.43	28.5
1036.56	27
1037.69	27
1038.81	24.5
1039.94	24
1041.07	25
1042.19	26
1043.32	26
1044.44	26
1045.57	30
1046.69	24
1047.82	25
1048.94	28
1050.07	26
1051.19	25
1052.32	26.5
1053.44	23
1054.57	26
1055.69	25
1056.81	24
1057.94	27
1059.06	28
1060.18	28
1061.31	25.5
1062.43	25
1063.55	27
1064.67	27.5
1065.8	29
1066.92	27
1068.04	26.5
1069.16	22
1070.28	27.5
1071.4	29
1072.52	27
1073.64	24
1074.76	26
1075.89	24
1077.01	26
1078.13	24
1079.25	25.5
1080.37	23.5
1081.49	26
1082.6	24
1083.72	25
1084.84	23.5
1085.96	26
1087.08	22
1088.2	25
1089.32	23
1090.43	24
1091.55	24
1092.67	25.5
1093.79	25.5
1094.91	25.5
1096.02	27.5
1097.14	22
1098.26	25
1099.37	24
1100.49	26
1101.61	28
1102.72	25.5
1103.84	22.5
1104.95	29
1106.07	23
1107.18	27
1108.3	22
1109.41	27.5
1110.53	22.5
1111.64	26.5
1112.76	25.5
1113.87	27
1114.99	25.5
1116.1	25
1117.21	24
1118.33	25
1119.44	22.5
1120.55	23
1121.67	25
1122.78	23
1123.89	24.5
1125	25.5
1126.12	28
1127.23	22
1128.34	22.5
1129.45	25.5
1130.56	25
1131.68	26
1132.79	27
1133.9	21.5
1135.01	26
1136.12	25
1137.23	27.5
1138.34	25.5
1139.45	27.5
1140.56	20
1141.67	24.5
1142.78	27.5
1143.89	25
1145	27
1146.11	23.5
1147.22	26
1148.32	26
1149.43	29
1150.54	30
1151.65	25.5
1152.76	26.5
1153.86	27
1154.97	23
1156.08	29
1157.19	28
1158.29	24
1159.4	25
1160.51	27
1161.61	23.5
1162.72	25
1163.83	26
1164.93	30
1166.04	23.5
1167.14	27.5
1168.25	26
1169.35	27.5
1170.46	25.5
1171.56	23
1172.67	22.5
1173.77	25
1174.88	25
1175.98	24
1177.08	24.5
1178.19	28.5
1179.29	24
1180.4	26.5
1181.5	25
1182.6	24
1183.71	23
1184.81	24
1185.91	23.5
1187.01	25
1188.12	26
1189.22	24.5
1190.32	23
1191.42	22.5
1192.52	29.5
1193.62	23.5
1194.72	23.9913
1195.83	26.449
1196.93	24.9763
1198.03	24.1122
1199.13	23.0271
1200.23	23.8624
1201.33	25.1519
1202.43	27.4243
1203.53	27.1532
1204.63	23.702
1205.73	19.5268
1206.83	26.0897
1207.92	25.3596
1209.02	26.5612
1210.12	23.6511
1211.22	27.0702
1212.32	21.3065
1213.42	22.8853
1214.51	22.5648
1215.61	26.0866
1216.71	27.0517
1217.81	24.5805
1218.9	25.5631
1220	23.5902
1221.1	22.6189
1222.19	24.117
1223.29	24.7742
1224.39	24.1788
1225.48	28.2296
1226.58	25.8975
1227.68	23.9442
1228.77	24.9798
1229.87	22.6311
1230.96	21.3653
1232.06	25.1203
1233.15	26.1383
1234.25	24.8303
1235.34	24.3109
1236.43	23.2512
1237.53	24.4328
1238.62	22.5942
1239.72	22.5073
1240.81	24.0027
1241.9	24.2164
1243	25.4267
1244.09	23.3392
1245.18	24.9934
1246.27	25.7252
1247.37	25.6364
1248.46	23.2565
1249.55	22.2642
1250.64	24.727
1251.74	26.9446
1252.83	24.2639
1253.92	25.4926
1255.01	24.3125
1256.1	23.7743
1257.19	24.4417
1258.28	27.9024
1259.38	23.5855
1260.46	27.6154
1261.56	25.2406
1262.65	25.3155
1263.74	26.671
1264.82	26.6197
1265.91	26.8326
1267	26.1163
1268.09	24.3447
1269.18	23.8787
1270.27	26.0159
1271.36	25.2189
1272.45	23.901
1273.54	23.5303
1274.63	23.4296
1275.71	25.3061
1276.8	23.8264
1277.89	26.43
1278.98	27.4555
1280.06	24.2953
1281.15	21.5745
1282.24	22.0155
1283.32	24.8102
1284.41	23.5382
1285.5	24.4616
1286.58	24.7412
1287.67	24.3464
1288.76	26.3483
1289.84	24.1777
1290.93	24.1678
1292.01	24.7671
1293.1	25.318
1294.18	25.2122
1295.27	23.9145
1296.35	23.3842
1297.44	24.5151
1298.52	23.0157
1299.6	25.248
1300.69	25.2582
1301.77	23.1252
1302.86	22.1291
1303.94	22.6978
1305.02	23.3855
1306.11	24.2025
1306.41	24.5
1307.5	23
1308.59	25.5
1309.68	24
1310.77	26.5
1311.85	24
1312.94	26
1314.03	23
1315.11	22.5
1316.2	22.5
1317.29	25
1318.37	24.5
1319.46	22.5
1320.55	25
1321.63	25.5
1322.72	23
1323.8	25.5
1324.89	24.5
1325.98	25.5
1327.06	22.5
1328.15	25
1329.23	22.5
1330.31	26
1331.4	27
1332.48	22.5
1333.57	26
1334.65	26
1335.74	25.5
1336.82	22
1337.9	27.5
1338.99	28
1340.07	24.5
1341.15	27
1342.24	26.5
1343.32	26
1344.4	25.5
1345.48	25
1346.56	25
1347.65	26.5
1348.73	25
1349.81	25.5
1350.89	26.5
1351.97	25
1353.05	23
1354.13	23.5
1355.21	27
1356.29	24.5
1357.37	23
1358.46	25
1359.54	24
1360.62	26.5
1361.69	26
1362.77	23.5
1363.85	25
1364.93	25
1366.01	29.5
1367.09	23
1368.17	26.5
1369.25	24.5
1370.33	24.5
1371.41	28
1372.48	22.5
1373.56	26.5
1374.64	27.5
1375.72	30
1376.79	26
1377.87	26
1378.95	23
1380.02	24
1381.1	27
1382.18	24
1383.25	24.5
1384.33	26
1385.4	26.5
1386.48	27
1387.56	24
1388.63	25.5
1389.71	27.5
1390.78	27.5
1391.86	24.5
1392.93	24.5
1394.01	26.5
1395.08	25.5
1396.15	28
1397.23	28.5
1398.3	25
1399.38	29
1400.45	26.5
1401.52	28.5
1402.6	27.5
1403.67	29.5
1404.74	26
1405.81	30.5
1406.89	30
1407.96	29.5
1409.03	29
1410.1	30.5
1411.17	32.5
1412.25	29.5
1413.32	30
1414.39	33
1415.46	28
1416.53	29.5
1417.6	31.5
1418.67	26
1419.74	29.5
1420.81	29
1421.88	26.5
1422.95	24
1424.02	28
1425.09	30.5
1426.16	28.5
1427.23	29
1428.3	26.5
1429.37	24
1430.44	28
1431.51	23.5
1432.58	28.5
1433.64	27
1434.71	29
1435.78	26
1436.85	26.5
1437.92	26
1438.98	25.5
1440.05	26.5
1441.12	27.5
1442.18	25
1443.25	24.5
1444.32	26
1445.38	25
1446.45	26
1447.52	24
1448.58	29
1449.65	27
1450.71	24
1451.78	25
1452.84	25.5
1453.91	23.5
1454.97	24
1456.04	26.5
1457.1	27.5
1458.17	26
1459.23	23
1460.3	25.5
1461.36	25
1462.42	26
1463.49	28
1464.55	28
1465.61	29.5
1466.68	23
1467.74	26
1468.8	26
1469.86	23
1470.93	26
1471.99	29
1473.05	26.5
1474.11	23.5
1475.17	25.5
1476.24	27
1477.3	26
1478.36	28.5
1479.42	24.5
1480.48	27.5
1481.54	26
1482.6	24
1483.66	30
1484.72	26
1485.78	27
1486.84	23
1487.9	28
1488.96	30
1490.02	25.5
1491.08	26
1492.14	28
1493.2	28
1494.26	26.5
1495.31	26.5
1496.37	25
1497.43	28
1498.49	26
1499.55	26.5
1500.6	25
1501.66	25.5
1502.72	22
1503.78	29
1504.83	26
1505.89	25.5
1506.95	25
1508	26.5
1509.06	22.5
1510.12	23.5
1511.17	26
1512.23	26.5
1513.28	29
1514.34	23.5
1515.39	27
1516.45	31
1517.5	25.5
1518.56	21
1519.61	26
1520.67	27.5
1521.72	24
1522.78	25
1523.83	25
1524.88	28
1525.94	25
1526.99	25.5
1528.05	27
1529.1	24.5
1530.15	29
1531.2	29
1532.26	29
1533.31	27.5
1534.36	26
1535.41	25
1536.47	27.5
1537.52	33
1538.57	26.5
1539.62	27
1540.67	26
1541.72	27.5
1542.77	27
1543.83	26
1544.88	25
1545.93	29
1546.98	26.5
1548.03	26
1549.08	28
1550.13	23.5
1551.18	26
1552.23	28.5
1553.28	26.5
1554.32	25
1555.37	26.5
1556.42	23.5
1557.47	25.5
1558.52	26.5
1559.57	21
1560.62	28
1561.67	28
1562.71	27.5
1563.76	23
1564.81	25
1565.86	26
1566.9	30.5
1567.95	28
1569	23.5
1570.04	27
1571.09	27.5
1572.14	26.5
1573.18	23
1574.23	27
1575.27	26
1576.32	27.5
1577.37	27.5
1578.41	26.5
1579.46	22.5
1580.5	24.5
1581.55	26.5
1582.59	24.5
1583.64	27
1584.68	26
1585.72	25
1586.77	25.5
1587.81	24
1588.86	24
1589.9	26
1590.94	25
1591.99	24
1593.03	25
1594.07	22
1595.12	26
1596.16	28
1597.2	28
1598.24	29.5
1599.29	24
1600.33	23
1601.37	26.5
1602.41	28.5
1603.45	24
1604.49	23
1605.53	27
1606.58	26
1607.62	26.5
1608.66	25.5
1609.7	27.5
1610.74	23
1611.78	24
1612.82	20
1613.86	27
1614.9	28
1615.94	23
1616.98	27
1618.02	29
1619.06	26.5
1620.09	28
1621.13	27.5
1622.17	24.5
1623.21	25
1624.25	26
1625.29	25
1626.32	28.5
1627.36	23
1628.4	26.5
1629.44	25
1630.47	26.5
1631.51	25
1632.55	27.5
1633.58	23.5
1634.62	20.5
1635.66	22
1636.69	25.5
1637.73	27
1638.77	27
1639.8	27.5
1640.84	28.5
1641.87	26.5
1642.91	24
1643.94	23.5
1644.98	25.5
1646.01	25
1647.05	25
1648.08	26
1649.12	24.5
1650.15	24
1651.18	23.5
1652.22	24
1653.25	25
1654.29	25
1655.32	24
1656.35	22
1657.39	25
1658.42	25.5
1659.45	30.5
1660.48	22
1661.52	20
1662.55	22
1663.58	26.5
1664.61	24
1665.64	26
1666.68	26
1667.71	24.5
1668.74	25
1669.77	26.5
1670.8	25.5
1671.83	24.5
1672.86	23.5
1673.89	25
1674.92	27.5
1675.95	29.5
1676.98	24.5
1678.01	28
1679.04	24.5
1680.07	28
1681.1	20
1682.13	25
1683.16	28.5
1684.19	28.5
1685.22	24
1686.25	26
1687.27	23.5
1688.3	28.5
1689.33	26.5
1690.36	23.5
1691.38	28
1692.41	23
1693.44	25.5
1694.47	27
1695.49	23.5
1696.52	27
1697.55	24.5
1698.57	23
1699.6	25.5
1700.63	23
1701.65	26.5
1702.68	28
1703.7	24.5
1704.73	29
1705.76	24
1706.78	25.5
1707.81	26
1708.83	28.5
1709.86	26
1710.88	26.5
1711.91	24.5
1712.93	26
1713.95	25
1714.98	27.5
1716	23
1717.03	25.5
1718.05	27
1719.07	27
1720.1	26.5
1721.12	24.5
1722.14	21
1723.16	26
1724.19	23
1725.21	26
1726.23	28
1727.25	28.5
1728.28	25.5
1729.3	23
1730.32	25
1731.34	25.5
1732.36	26.5
1733.38	23
1734.41	24
1735.43	23
1736.45	26.5
1737.47	25
1738.49	29.5
1739.51	29
1740.53	25.5
1741.55	25.5
1742.57	23.5
1743.59	26
1744.61	28.5
1745.63	22
1746.64	27
1747.66	27
1748.68	25
1749.7	24.5
1750.72	24
1751.74	25
1752.76	26
1753.77	28
1754.79	26.5
1755.81	26.5
1756.83	30.5
1757.84	26.5
1758.86	23.5
1759.88	23
1760.9	24
1761.91	28
1762.93	27.5
1763.95	28
1764.96	25
1765.98	23
1766.99	26
1768.01	27.5
1769.02	23.5
1770.04	25
1771.06	29
1772.07	32
1773.09	28
1774.1	30
1775.12	25
1776.13	28.5
1777.14	21
1778.16	28
1779.17	24
1780.19	28.5
1781.2	22
1782.21	24.5
1783.23	23
1784.24	25
1785.25	23.5
1786.27	26.5
1787.28	25
1788.29	25
1789.3	27
1790.32	23.5
1791.33	25
1792.34	26.5
1793.35	20
1794.36	21.5
1795.38	23.5
1796.39	26
1797.4	22
1798.41	24
1799.42	25
1800.43	21
1801.44	24
1802.45	29
1803.46	24
1804.47	27
1805.48	24.5
1806.49	28
1807.5	22.5
1808.51	28.5
1809.52	25
1810.53	27.5
1811.54	25.5
1812.55	26
1813.56	26.5
1814.57	27
1815.57	26.5
1816.58	29
1817.59	23.5
1818.6	22
1819.61	26
1820.61	22.5
1821.62	25.5
1822.63	26
1823.64	24.5
1824.64	25.5
1825.65	25
1826.66	23
1827.66	25.5
1828.67	27
1829.68	26.5
1830.68	22.5
1831.69	26
1832.69	23.5
1833.7	25
1834.7	21
1835.71	23
1836.71	26
1837.72	24.5
1838.72	24.5
1839.73	29
1840.73	23
1841.74	23.5
1842.74	25.5
1843.75	23
1844.75	29
1845.75	24
1846.76	24
1847.76	25.5
1848.76	23.5
1849.77	27.5
1850.77	26
1851.77	25.5
1852.78	27
1853.78	25.5
1854.78	29
1855.78	28
1856.78	23
1857.79	27.5
1858.79	28
1859.79	26
1860.79	27
1861.79	27
1862.79	28.5
1863.79	28
1864.79	27.5
1865.79	26
1866.8	23.5
1867.8	26.5
1868.8	26.5
1869.8	29
1870.8	31.5
1871.8	24.5
1872.8	24.5
1873.79	22.5
1874.79	23
1875.79	28.5
1876.79	26
1877.79	25.5
1878.79	21
1879.79	24.5
1880.79	27.5
1881.78	24.5
1882.78	29.5
1883.78	30.5
1884.78	28.5
1885.77	26.5
1886.77	23.5
1887.77	26
1888.77	27
1889.76	26.5
1890.76	21.5
1891.76	25
1892.75	26
1893.75	25
1894.75	28.5
1895.74	25
1896.74	23.5
1897.73	24.5
1898.73	25
1899.73	20
1900.72	24
1901.72	24.5
1902.71	27.5
1903.7	21
1904.7	25
1905.69	23.5
1906.69	24.5
1907.68	25
1908.68	30
1909.67	25
1910.66	24
1911.66	24
1912.65	27
1913.64	24
1914.64	26
1915.63	24
1916.62	25
1917.62	28
1918.61	27.5
1919.6	24.5
1920.59	25
1921.58	29
1922.58	25
1923.57	26
1924.56	25
1925.55	26.5
1926.54	27
1927.53	25
1928.52	26
1929.51	24.5
1930.51	27
1931.5	21
1932.49	27
1933.48	24.5
1934.47	24
1935.46	27.5
1936.45	27
1937.44	28
1938.42	22
1939.41	25.5
1940.4	24.5
1941.39	22
1942.38	24
1943.37	28
1944.36	25.5
1945.35	25.5
1946.33	22
1947.32	20
1948.31	22.5
1949.3	24
1950.29	23
1951.27	24
1952.26	27.5
1953.25	25.5
1954.23	25.5
1955.22	22.5
1956.21	24.5
1957.19	23.5
1958.18	25.5
1959.17	23.5
1960.15	25
1961.14	27
1962.13	24
1963.11	27
1964.1	25
1965.08	25
1966.07	27.5
1967.05	23.5
1968.04	24.5
1969.02	25
1970.01	29
1970.99	23
1971.97	26
1972.96	27
1973.94	21
1974.93	24.5
1975.91	27
1976.89	25
1977.88	23.5
1978.86	27.5
1979.84	23
1980.83	23.5
1981.81	25
1982.79	26.5
1983.77	28.5
1984.76	26
1985.74	28
1986.72	27
1987.7	27
1988.68	24.5
1989.67	22
1990.65	22.5
1991.63	19.5
1992.61	24.5
1993.59	26
1994.57	25
1995.55	24
1996.53	23.5
1997.51	23
1998.49	23.5
1999.47	23
2000.45	29
2001.43	25
2002.41	27
2003.39	24.5
2004.37	24
2005.35	25
2006.33	28
2007.31	24.5
2008.29	25
2009.26	22
2010.24	22.5
2011.22	20
2012.2	25.5
2013.18	25
2014.15	21.5
2015.13	25
2016.11	25
2017.09	27
2018.06	21
2019.04	25
2020.02	22.5
2021	26
2021.97	25.5
2022.95	26
2023.92	25.5
2024.9	22
2025.88	23.5
2026.85	26
2027.83	20.5
2028.8	21
2029.78	23
2030.75	28
2031.73	23
2032.7	23.5
2033.68	21
2034.65	23
2035.63	21.5
2036.6	22
2037.58	27
2038.55	21.5
2039.52	25.5
2040.5	24
2041.47	26
2042.45	23
2043.42	24.5
2044.39	28.5
2045.36	24
2046.34	22
2047.31	24
2048.28	22
2049.26	21
2050.23	23.5
2051.2	27.5
2052.17	25.5
2053.14	21
2054.12	22.5
2055.09	24
2056.06	22
2057.03	24
2058	24
2058.97	24
2059.94	22
2060.91	25.5
2061.88	21
2062.85	23
2063.82	23
2064.79	23
2065.76	23
2066.73	25
2067.7	26.5
2068.67	22.5
2069.64	28
2070.61	26
2071.58	25
2072.55	20
2073.52	25.5
2074.49	20
2075.45	25
2076.42	22.5
2077.39	17.5
2078.36	25
2079.33	24
2080.29	24
2081.26	23
2082.23	26
2083.2	25
2084.16	27
2085.13	24
2086.1	23
2087.06	20.5
2088.03	23
2089	26.5
2089.96	29
2090.93	25.5
2091.89	24.5
2092.86	26
2093.83	20
2094.79	22.5
2095.76	25
2096.72	25
2097.69	26
2098.65	28
2099.62	22.5
2100.58	25.5
2101.55	25.5
2102.51	22.5
2103.47	24
2104.44	23.5
2105.4	20
2106.36	24
2107.33	26.5
2108.29	24.5
2109.25	24.5
2110.22	25
2111.18	23
2112.14	27
2113.11	21.5
2114.07	24
2115.03	27
2115.99	25.5
2116.96	23.5
2117.92	26
2118.88	27.5
2119.84	26.5
2120.8	26
2121.76	24
2122.72	28
2123.68	22.5
2124.65	23.5
2125.61	21
2126.57	22
2127.53	24
2128.49	25
2129.45	25
2130.41	25
2131.37	28
2132.33	25
2133.29	24.5
2134.25	24.5
2135.21	22.5
2136.17	25
2137.12	25
2138.08	24.5
2139.04	24.5
2140	24
2140.96	22.5
2141.92	19
2142.88	25.4664
2143.83	23.4295
2144.79	23.6025
2145.75	23.1267
2146.71	23.1078
2147.66	23.9583
2148.62	22.8819
2149.58	22.8999
2150.53	27.5252
2151.49	25.2249
2152.45	23.6702
2153.4	22.2724
2154.36	19.4329
2155.32	22.2552
2156.27	24.6843
2157.23	24.194
2158.19	23.9482
2159.14	22.9562
2160.1	23.4548
2161.05	24.8651
2162.01	21.8866
2162.96	21.3768
2163.92	23.2163
2164.87	23.6677
2165.83	23.7781
2166.78	21.7131
2167.73	21.7391
2168.69	23.5795
2169.64	22.0604
2170.6	25.9371
2171.55	23.4677
2172.5	22.1117
2173.46	23.8224
2174.41	21.6113
2175.36	22.173
2176.32	23.532
2177.27	23.759
2178.22	24.8016
2179.18	24.4039
2180.13	22.9462
2181.08	25.7259
2182.03	21.9104
2182.98	22.6351
2183.94	23.59
2184.89	21.9055
2185.84	23.4227
2186.79	25.9263
2187.74	22.4612
2188.69	22.5121
2189.64	24.684
2190.6	22.238
2191.55	21.2648
2192.5	23.015
2193.45	26.659
2194.4	22.4793
2195.35	19.7497
2196.3	25.1752
2197.25	23.8855
2198.2	20.6622
2199.15	26.6623
2200.1	22.2113
2201.04	23.5143
2201.99	20.5335
2202.94	22.992
2203.89	21.9638
2204.84	22.1875
2205.79	21.9727
2206.74	21.3459
2207.69	23.2169
2208.63	23.7848
2209.58	23.5438
2210.53	23.4895
2211.48	21.1116
2212.43	23.7568
2213.37	22.6819
2214.32	23.0641
2215.27	21.8938
2216.21	23.772
2217.16	20.2626
2218.11	23.4138
2219.05	25.4993
2220	21.9634
2220.95	21.7459
2221.89	24.5854
2222.84	25.8592
2223.78	25.5143
2224.73	24.4146
2225.68	23.4164
2226.62	24.7191
2227.57	22.2702
2228.51	22.5902
2229.46	23.1973
2230.4	25.7411
2231.35	21.3028
2232.29	23.5749
2233.24	25.3885
2234.18	24.2864
2235.12	22.7707
2236.07	22.5218
2237.01	23.6314
2237.95	23.1951
2238.9	20.6749
2239.84	25.3308
2240.06	27
2241.01	22
2241.96	24.5
2242.91	23
2243.86	23
2244.8	21
2245.75	25
2246.7	21
2247.65	21.5
2248.59	28
2249.54	21.5
2250.49	24
2251.43	22.5
2252.38	27.5
2253.33	24
2254.27	23.5
2255.22	25
2256.16	24
2257.11	24
2258.06	25.5
2259	21
2259.95	25
2260.89	24
2261.84	21
2262.78	26
2263.73	21.5
2264.67	23
2265.62	22.5
2266.56	21
2267.5	26
2268.45	24
2269.39	20.5
2270.34	24
2271.28	28.5
2272.22	24
2273.17	19.5
2274.11	23
2275.05	21
2276	21
2276.94	24
2277.88	24.5
2278.82	27
2279.77	24.5
2280.71	23.5
2281.65	26
2282.59	22
2283.53	25
2284.48	22
2285.42	24.5
2286.36	21
2287.3	25.5
2288.24	25.5
2289.18	22
2290.12	21
2291.06	20.5
2292	26
2292.94	22
2293.89	23.5
2294.83	24
2295.77	25
2296.71	21.5
2297.65	19
2298.58	24
2299.52	25
2300.46	26
2301.4	25
2302.34	22
2303.28	22
2304.22	23
2305.16	25
2306.1	23
2307.03	20.5
2307.97	22
2308.91	19
2309.85	22.5
2310.79	26
2311.72	22
2312.66	25.5
2313.6	24
2314.54	18.5
2315.47	24
2316.41	24.5
2317.35	22
2318.28	21
2319.22	23
2320.16	21.5
2321.09	19
2322.03	22
2322.96	22
2323.9	24
2324.84	20
2325.77	23
2326.71	20
2327.64	22
2328.58	23.5
2329.51	24
2330.45	25
2331.38	25
2332.32	25.5
2333.25	24
2334.18	27
2335.12	25
2336.05	27
2336.99	24.5
2337.92	23
2338.85	23
2339.79	24.5
2340.72	18
2341.65	24
2342.59	26
2343.52	21
2344.45	29
2345.39	24.5
2346.32	25
2347.25	22.5
2348.18	27
2349.11	24.5
2350.05	20.5
2350.98	27
2351.91	24
2352.84	26.5
2353.77	22.5
2354.7	24
2355.64	21.5
2356.57	22.5
2357.5	29.5
2358.43	24
2359.36	23.5
2360.29	22
2361.22	25
2362.15	27.5
2363.08	25
2364.01	25
2364.94	24
2365.87	22
2366.8	25
2367.73	28.5
2368.66	21.5
2369.58	23
2370.51	26.5
2371.44	28
2372.37	24.5
2373.3	22.5
2374.23	20
2375.16	25
2376.08	28
2377.01	24.5
2377.94	22.5
2378.87	25
2379.8	27
2380.72	23
2381.65	26
2382.58	28.5
2383.5	23.5
2384.43	23
2385.36	23.5
2386.28	23
2387.21	24
2388.14	24.5
2389.06	25
2389.99	27.5
2390.91	23.5
2391.84	27.5
2392.77	25.5
2393.69	20.5
2394.62	23
2395.54	23
2396.47	25
2397.39	24
2398.32	22.5
2399.24	26.5
2400.16	23.5
2401.09	27.5
2402.01	25
2402.94	25
2403.86	23
2404.78	26
2405.71	23.5
2406.63	23.5
2407.56	26
2408.48	27
2409.4	25.5
2410.32	22
2411.25	25
2412.17	24.5
2413.09	23.5
2414.02	22
2414.94	23
2415.86	25
2416.78	24.5
2417.7	25.5
2418.63	25
2419.55	27
2420.47	26.5
2421.39	24
2422.31	23.5
2423.23	24.5
2424.15	24.5
2425.07	23.5
2425.99	23.5
2426.92	23
2427.84	20
2428.76	21.5
2429.68	25
2430.59	26.5
2431.51	27
2432.43	28
2433.35	27
2434.27	25
2435.19	27
2436.11	29.5
2437.03	26.5
2437.95	26
2438.87	23.5
2439.79	25.5
2440.71	26.5
2441.62	24.5
2442.54	21
2443.46	24.5
2444.38	21
2445.3	27
2446.21	23.5
2447.13	27
2448.05	23
2448.97	21.5
2449.88	22
2450.8	25.5
2451.72	27.5
2452.63	23.5
2453.55	26.5
2454.47	24
2455.38	27
2456.3	25
2457.21	23
2458.13	28
2459.05	26.5
2459.96	24.5
2460.88	26
2461.79	21
2462.71	29
2463.62	23.5
2464.54	25
2465.45	24.5
2466.37	24
2467.28	22
2468.2	29
2469.11	26
2470.02	25.5
2470.94	25.5
2471.85	27
2472.77	22
2473.68	24.5
2474.59	24
2475.51	21
2476.42	25
2477.33	28.5
2478.25	26
2479.16	22
2480.07	23
2480.98	26
2481.9	26
2482.81	24
2483.72	25.5
2484.63	25.5
2485.55	25.5
2486.46	25
2487.37	21
2488.28	24.5
2489.19	24.5
2490.1	26.5
2491.01	26
2491.92	25.5
2492.83	23
2493.74	22
2494.66	26
2495.57	26
2496.48	25
2497.39	26
2498.3	28
2499.21	21.5
2500.12	23
2501.03	25.5
2501.93	29.5
2502.84	24
2503.75	22.5
2504.66	24
2505.57	27
2506.48	21
2507.39	22
2508.3	27
2509.21	27
2510.11	25.5
2511.02	21
2511.93	25
2512.84	22
2513.75	25
2514.65	18.5
2515.56	25.5
2516.47	23
2517.37	25
2518.28	22.5
2519.19	22.5
2520.09	23
2521	21.5
2521.91	26
2522.81	28.5
2523.72	26.5
2524.63	26.5
2525.53	26
2526.44	26.5
2527.34	23
2528.25	24.5
2529.16	23
2530.06	25.5
2530.97	26
2531.87	24
2532.78	26
2533.68	26
2534.58	28.5
2535.49	27.5
2536.39	27.5
2537.3	23.5
2538.2	28
2539.11	23
2540.01	23
2540.91	24
2541.82	25.5
2542.72	24.5
2543.62	25.5
2544.53	29
2545.43	26
2546.33	27
2547.23	26.5
2548.14	24
2549.04	24
2549.94	22.5
2550.84	25
2551.75	22
2552.65	27
2553.55	22.5
2554.45	27.5
2555.35	22.5
2556.26	27
2557.16	23.5
2558.06	28.5
2558.96	25.5
2559.86	23
2560.76	27
2561.66	23
2562.56	28
2563.46	25
2564.36	26.5
2565.26	27
2566.16	28
2567.06	26
2567.96	28.5
2568.86	24.5
2569.76	27
2570.66	22.5
2571.56	29
2572.46	26
2573.36	26
2574.26	24
2575.16	25.5
2576.05	23
2576.95	24
2577.85	25.5
2578.75	26
2579.65	26
2580.54	24
2581.44	26.5
2582.34	25.5
2583.24	26.5
2584.13	24
2585.03	24.5
2585.93	26
2586.83	26
2587.72	25
2588.62	25.5
2589.52	27
2590.41	25.5
2591.31	22
2592.2	22
2593.1	26.5
2594	22.5
2594.89	26.5
2595.79	26.5
2596.68	25
2597.58	24
2598.47	23
2599.37	24
2600.26	20.5
2601.16	26
2602.05	26
2602.95	21.5
2603.84	24.5
2604.74	25
2605.63	25
2606.52	24.5
2607.42	26
2608.31	24
2609.21	23
2610.1	22.5
2610.99	20.5
2611.89	26
2612.78	24.5
2613.67	24.5
2614.56	25
2615.46	24
2616.35	24.5
2617.24	29
2618.13	27.5
2619.03	24
2619.92	24.5
2620.81	24
2621.7	27.5
2622.59	22.5
2623.49	22
2624.38	24
2625.27	22.5
2626.16	27
2627.05	21
2627.94	26
2628.83	21.5
2629.72	23.5
2630.61	27.5
2631.5	22
2632.39	25
2633.28	26.5
2634.17	27
2635.06	27
2635.95	22
2636.84	25.5
2637.73	26
2638.62	25.5
2639.51	25.5
2640.4	24
2641.29	24
2642.18	27
2643.07	23
2643.96	25
2644.84	26.5
2645.73	20
2646.62	27.5
2647.51	24.5
2648.4	23.5
2649.28	21.5
2650.17	28.5
2651.06	22
2651.95	27.5
2652.83	28.5
2653.72	25
2654.61	21.5
2655.49	25
2656.38	25
2657.27	28.5
2658.16	23
2659.04	25.5
2659.93	26.5
2660.81	22.5
2661.7	24
2662.59	24
2663.47	23
2664.36	25.5
2665.24	27
2666.13	24
2667.01	25
2667.9	26.5
2668.78	25
2669.67	23.5
2670.55	25
2671.44	26
2672.32	27.5
2673.21	28
2674.09	23.5
2674.97	25
2675.86	26.5
2676.74	23.5
2677.62	23.5
2678.51	23.5
2679.39	23
2680.27	24.5
2681.16	24
2682.04	25.5
2682.92	25.5
2683.81	22
2684.69	24
2685.57	25.5
2686.45	24.5
2687.34	25
2688.22	25
2689.1	21
2689.98	27
2690.86	20
2691.75	22.5
2692.63	26.5
2693.51	26
2694.39	26
2695.27	21.5
2696.15	25.5
2697.03	25
2697.91	24.5
2698.79	28
2699.67	27
2700.55	26
2701.43	22
2702.31	22
2703.19	26.5
2704.07	25.5
2704.95	27
2705.83	25
2706.71	23
2707.59	25
2708.47	23
2709.35	25.5
2710.23	25
2711.11	25.5
2711.99	27.5
2712.86	24
2713.74	25
2714.62	22.5
2715.5	27.5
2716.38	24
2717.26	24.5
2718.13	22.5
2719.01	33
2719.89	27.5
2720.77	22.5
2721.64	27
2722.52	25.5
2723.4	19.5
2724.27	21
2725.15	21
2726.03	25
2726.9	27.5
2727.78	25.5
2728.66	22
2729.53	27
2730.41	27
2731.28	23
2732.16	25
2733.03	28
2733.91	23.5
2734.79	20
2735.66	23
2736.54	25.5
2737.41	24.5
2738.29	24.5
2739.16	25
2740.03	25
2740.91	26.5
2741.78	21
2742.66	24
2743.53	25.5
2744.41	25.5
2745.28	22
2746.15	26
2747.03	26
2747.9	26
2748.77	21.5
2749.65	28
2750.52	21
2751.39	27
2752.27	27.5
2753.14	27.5
2754.01	25
2754.88	22.5
2755.75	22
2756.63	26
2757.5	25
2758.37	26
2759.24	22.5
2760.11	25
2760.99	30
2761.86	23.5
2762.73	24.5
2763.6	26
2764.47	28.5
2765.34	28
2766.21	26.5
2767.08	26.5
2767.95	24.5
2768.82	25.5
2769.69	25
2770.56	23.5
2771.43	22
2772.3	26.5
2773.17	26
2774.04	23
2774.91	27
2775.78	22.5
2776.65	23
2777.52	28.5
2778.39	25.5
2779.26	22.5
2780.13	25
2780.99	21.5
2781.86	24.5
2782.73	26
2783.6	25
2784.47	24
2785.34	25.5
2786.2	23
2787.07	23
2787.94	21.5
2788.81	27
2789.67	28
2790.54	27
2791.41	27.5
2792.27	19.5
2793.14	27
2794.01	23
2794.87	26.5
2795.74	30
2796.61	25
2797.47	27
2798.34	26.5
2799.21	24
2800.07	27
2800.94	28.5
2801.8	29
2802.67	24.5
2803.53	23
2804.4	28
2805.26	29
2806.13	26
2806.99	30
2807.86	28
2808.72	26
2809.59	30
2810.45	24
2811.32	25.5
2812.18	27
2813.04	27
2813.91	22
2814.77	27
2815.64	27
2816.5	24
2817.36	29
2818.22	23
2819.09	26
2819.95	25.5
2820.81	25
2821.68	25.5
2822.54	26
2823.4	26
2824.26	26
2825.13	26
2825.99	22.5
2826.85	24.5
2827.71	28.5
2828.57	26.5
2829.44	29
2830.3	27
2831.16	26.5
2832.02	21.5
2832.88	28.5
2833.74	28.5
2834.6	22
2835.46	23
2836.32	24.5
2837.18	23.5
2838.04	29.5
2838.9	26.5
2839.76	26
2840.62	26.5
2841.48	25
2842.34	25.5
2843.2	28
2844.06	25
2844.92	27
2845.78	24
2846.64	25
2847.5	25
2848.36	23
2849.22	23.5
2850.08	25
2850.93	26
2851.79	20
2852.65	23.5
2853.51	25.5
2854.37	24.5
2855.22	28
2856.08	26
2856.94	25
2857.8	21.5
2858.65	26
2859.51	24
2860.37	29
2861.23	25.5
2862.08	30.5
2862.94	27.5
2863.79	28.5
2864.65	27
2865.51	28
2866.36	23
2867.22	29
2868.08	27
2868.93	27
2869.79	29
2870.64	29
2871.5	33.5
2872.35	27
2873.21	29
2874.06	26.5
2874.92	31
2875.77	29
2876.63	33
2877.48	28
2878.34	32.5
2879.19	29
2880.05	26
2880.9	27.5
2881.76	30.5
2882.61	29.5
2883.46	32
2884.32	32.5
2885.17	33
2886.02	32.5
2886.88	32
2887.73	33
2888.58	32
2889.44	36
2890.29	40
2891.14	39
2891.99	41.5
2892.85	36
2893.7	40
2894.55	42
2895.4	47.5
2896.25	45.5
2897.11	50
2897.96	51.5
2898.81	51
2899.66	51
2900.51	60
2901.36	60
2902.21	57.5
2903.07	58.5
2903.92	62.5
2904.77	65
2905.62	65
2906.47	68
2907.32	68
2908.17	61
2909.02	60.5
2909.87	58.5
2910.72	55
2911.57	52.5
2912.42	54
2913.27	50
2914.12	49.5
2914.97	44
2915.81	42
2916.66	41
2917.51	40
2918.36	39.5
2919.21	38
2920.06	36.5
2920.91	37.5
2921.75	38.5
2922.6	33
2923.45	33
2924.3	31.5
2925.15	31
2925.99	27
2926.84	32.5
2927.69	27.5
2928.54	28
2929.38	29
2930.23	29
2931.08	25
2931.92	30
2932.77	30
2933.62	27.5
2934.46	28.5
2935.31	26.5
2936.16	29
2937	29
2937.85	31
2938.69	23.5
2939.54	26
2940.38	27
2941.23	30
2942.08	26
2942.92	26
2943.77	29.5
2944.61	28
2945.46	28
2946.3	24
2947.15	27
2947.99	34.5
2948.83	30
2949.68	29
2950.52	32
2951.37	33
2952.21	33.5
2953.05	30.5
2953.9	30.5
2954.74	34
2955.58	28
2956.43	28
2957.27	33.5
2958.11	37.5
2958.96	31.5
2959.8	36.5
2960.64	40
2961.48	37
2962.33	36
2963.17	39
2964.01	44.5
2964.85	39
2965.69	44.5
2966.54	34.5
2967.38	41
2968.22	42.5
2969.06	40
2969.9	42
2970.74	34.5
2971.58	37.5
2972.43	35.4887
2973.27	35.0997
2974.11	32.1304
2974.95	33.1291
2975.79	33.102
2976.63	33.0625
2977.47	32.8852
2978.31	30.0825
2979.15	30.7499
2979.99	28.9661
2980.83	31.0604
2981.67	24.0561
2982.51	31.2905
2983.35	26.2615
2984.19	28.8252
2985.03	25.2594
2985.86	28.5173
2986.7	28.1609
2987.54	26.1054
2988.38	27.6216
2989.22	27.6257
2990.06	25.9976
2990.9	25.0161
2991.73	25.3598
2992.57	25.0995
2993.41	26.4854
2994.25	24.5832
2995.09	25.4879
2995.92	25.6844
2996.76	24.4257
2997.6	24.0413
2998.44	25.7008
2999.27	22.9766
3000.11	23.1743
3000.95	20.5674
3001.78	24.9841
3002.62	25.3937
3003.46	26.7225
3004.29	25.2633
3005.13	27.5275
3005.96	24.0933
3006.8	23.8227
3007.64	26.1589
3008.47	26.5571
3009.31	24.8212
3010.14	22.3184
3010.98	22.5065
3011.81	23.7382
3012.65	24.0083
3013.48	24.5085
3014.32	24.75
3015.15	25.1563
3015.99	25.9728
3016.82	25.2221
3017.66	25.061
3018.49	24.9989
3019.33	24.4029
3020.16	23.6281
3020.99	23.7641
3021.83	25.8332
3022.66	24.1619
3023.5	22.0365
3024.33	23.3311
3025.16	22.9851
3026	23.2639
3026.83	25.1971
3027.66	25.983
3028.49	24.4641
3029.33	23.0304
3030.16	23.7218
3030.99	22.4977
3031.83	23.2997
3032.66	23.6581
3033.49	23.1049
3034.32	24.0655
3035.15	23.962
3035.99	23.4232
3036.82	21.9947
3037.65	21.2607
3038.48	24.5272
3039.31	24.1883
3040.14	22.6106
3040.97	22.6294
3041.81	22.6365
3042.64	23.3573
3043.47	23.2939
3044.3	22.4147
3045.13	24.945
3045.96	24.8427
3046.79	22.9203
3047.62	22.13
3048.45	24.5802
3049.28	25.3453
3050.11	25.4905
3050.94	25.963
3051.77	24.593
3052.6	23.5874
3053.43	24.3683
3054.26	24.3641
3055.08	23.298
3055.91	21.6843
3056.74	22.9658
3057.26	24.5
3058.09	20.5
3058.92	26.5
3059.76	23.5
3060.59	24
3061.42	27
3062.25	20
3063.09	25
3063.92	22
3064.75	22
3065.58	23
3066.42	23
3067.25	24.5
3068.08	23.5
3068.91	26
3069.74	23.5
3070.57	21
3071.41	26.5
3072.24	17
3073.07	23.5
3073.9	24
3074.73	28.5
3075.56	22
3076.39	21
3077.22	22.5
3078.05	24
3078.88	23
3079.71	27
3080.54	21
3081.37	22.5
3082.2	25
3083.03	24.5
3083.86	24.5
3084.69	25
3085.52	27
3086.35	20.5
3087.18	23
3088.01	26
3088.84	19.5
3089.67	21
3090.5	24
3091.32	23
3092.15	25
3092.98	27
3093.81	23
3094.64	25
3095.47	26.5
3096.29	24.5
3097.12	26
3097.95	24.5
3098.78	23
3099.6	25
3100.43	23
3101.26	22
3102.09	23
3102.91	24.5
3103.74	25.5
3104.57	24
3105.39	26.5
3106.22	26
3107.05	25.5
3107.87	20
3108.7	24
3109.52	24
3110.35	24
3111.18	27
3112	23.5
3112.83	26.5
3113.65	22
3114.48	26.5
3115.3	25.5
3116.13	25
3116.95	25.5
3117.78	25
3118.6	27.5
3119.43	22
3120.25	26.5
3121.08	24
3121.9	26.5
3122.72	25.5
3123.55	20.5
3124.37	25
3125.2	28
3126.02	21
3126.84	22.5
3127.67	26
3128.49	21.5
3129.31	28.5
3130.14	19.5
3130.96	25
3131.78	23.5
3132.61	24
3133.43	24
3134.25	26.5
3135.07	22
3135.89	21
3136.72	21.5
3137.54	25.5
3138.36	21.5
3139.18	25.5
3140	23
3140.83	25
3141.65	28
3142.47	21.5
3143.29	25.5
3144.11	24
3144.93	26
3145.75	26
3146.57	21.5
3147.4	21
3148.22	25.5
3149.04	27.5
3149.86	26
3150.68	25.5
3151.5	23
3152.32	22
3153.14	25
3153.96	21
3154.78	23.5
3155.59	26.5
3156.42	22.5
3157.23	25.5
3158.05	23.5
3158.87	24
3159.69	23.5
3160.51	23
3161.33	23.5
3162.15	25
3162.97	26
3163.78	25.5
3164.6	25.5
3165.42	25
3166.24	25.5
3167.06	24
3167.87	24.5
3168.69	24.5
3169.51	22
3170.33	23.5
3171.14	28
3171.96	22.5
3172.78	27.5
3173.6	23.5
3174.41	25.5
3175.23	23.5
3176.05	25.5
3176.86	22.5
3177.68	27
3178.5	22.5
3179.31	22.5
3180.13	21
3180.94	21
3181.76	24
3182.58	24.5
3183.39	22
3184.21	22.5
3185.02	21.5
3185.84	23.5
3186.65	26.5
3187.47	26.5
3188.28	25.5
3189.1	26
3189.91	24
3190.73	24.5
3191.54	21.5
3192.36	24
3193.17	24
3193.98	21
3194.8	25.5
3195.61	25
3196.43	26.5
3197.24	27
3198.05	24
3198.87	25.5
3199.68	22.5
3200.49	26
3201.31	24.5
3202.12	27
3202.93	22
3203.75	23
3204.56	26.5
3205.37	22
3206.18	24.5
3207	23.5
3207.81	25
3208.62	19
3209.43	27.5
3210.24	25
3211.06	24
3211.87	23
3212.68	21.5
3213.49	23.5
3214.3	24
3215.11	25.5
3215.92	23.5
3216.73	26
3217.55	25.5
3218.36	22.5
3219.17	24.5
3219.98	25.5
3220.79	25
3221.6	30
3222.41	24
3223.22	21.5
3224.03	22
3224.84	20.5
3225.65	22.5
3226.46	25
3227.27	21
3228.08	24
3228.89	20
3229.7	24.5
3230.5	25
3231.31	25
3232.12	24.5
3232.93	25
3233.74	24.5
3234.55	26
3235.36	26.5
3236.16	24.5
3236.97	23.5
3237.78	23.5
3238.59	27
3239.4	26.5
3240.2	24.5
3241.01	24.5
3241.82	27
3242.63	23
3243.43	24
3244.24	25
3245.05	22
3245.85	28
3246.66	25.5
3247.47	22.5
3248.27	21
3249.08	26.5
3249.89	24.5
3250.69	22.5
3251.5	22
3252.31	23
3253.11	23
3253.92	26.5
3254.72	25
3255.53	22
3256.33	21.5
3257.14	22
3257.94	20.5
3258.75	28
3259.55	23.5
3260.36	22
3261.16	26
3261.97	26
3262.77	24.5
3263.58	24.5
3264.38	29
3265.19	26
3265.99	26.5
3266.79	20.5
3267.6	26.5
3268.4	27.5
3269.21	27
3270.01	27.5
3270.81	25.5
3271.62	24.5
3272.42	19
3273.22	21
3274.03	26
3274.83	26
3275.63	22.5
3276.43	24
3277.24	26
3278.04	26
3278.84	25
3279.64	27
3280.45	23
3281.25	28
3282.05	23
3282.85	26
3283.65	24.5
3284.45	27
3285.26	27
3286.06	25
3286.86	23
3287.66	26
3288.46	23
3289.26	24.5
3290.06	24
3290.86	22.5
3291.66	23.5
3292.46	27
3293.26	25.5
3294.06	23
3294.86	25
3295.66	23
3296.46	25.5
3297.26	25
3298.06	25
3298.86	24.5
3299.66	22.5
3300.46	21.5
3301.26	28
3302.06	25
3302.86	21.5
3303.66	25.5
3304.46	26
3305.25	25.5
3306.05	22
3306.85	21.5
3307.65	25.5
3308.45	24
3309.25	24.5
3310.04	24.5
3310.84	27.5
3311.64	25.5
3312.44	27.5
3313.23	23.5
3314.03	25.5
3314.83	26
3315.63	24
3316.42	25
3317.22	24.5
3318.02	25
3318.81	25.5
3319.61	25
3320.41	27.5
3321.2	25.5
3322	24
3322.8	24.5
3323.59	25.5
3324.39	22
3325.18	27
3325.98	26.5
3326.78	27
3327.57	22
3328.37	21.5
3329.16	25
3329.96	25.5
3330.75	24
3331.55	24.5
3332.34	25
3333.14	23
3333.93	26
3334.73	28
3335.52	30
3336.31	24
3337.11	24.5
3337.9	21
3338.7	21
3339.49	26.5
3340.28	26.5
3341.08	23
3341.87	23
3342.66	25.5
3343.46	23.5
3344.25	27
3345.04	24
3345.84	27
3346.63	25
3347.42	20.5
3348.22	27
3349.01	28
3349.8	23
3350.59	27.5
3351.39	25
3352.18	22
3352.97	24.5
3353.76	23
3354.55	25
3355.35	22
3356.14	24
3356.93	27
3357.72	22.5
3358.51	25
3359.3	24
3360.09	25.5
3360.88	24
3361.67	25.5
3362.46	23
3363.26	21.5
3364.05	21.5
3364.84	23.5
3365.63	26
3366.42	26
3367.21	23
3368	26
3368.79	22
3369.58	26.5
3370.37	22
3371.15	24
3371.94	26
3372.73	29
3373.52	20.5
3374.31	21
3375.1	26
3375.89	24.5
3376.68	26
3377.47	28
3378.26	23
3379.04	24
3379.83	28.5
3380.62	25.5
3381.41	24.5
3382.2	20
3382.98	26.5
3383.77	22
3384.56	26
3385.35	25
3386.13	24.5
3386.92	23
3387.71	24
3388.5	25
3389.28	23
3390.07	23.5
3390.86	23.5
3391.64	26
3392.43	27
3393.22	21
3394	25
3394.79	25
3395.57	23
3396.36	26
3397.15	24.5
3397.93	25
3398.72	23
3399.5	28
3400.29	22
3401.07	24.5
3401.86	22
3402.65	23.5
3403.43	27.5
3404.21	26
3405	23.5
3405.78	26
3406.57	27.5
3407.35	19
3408.14	22.5
3408.92	26
3409.71	21.5
3410.49	19
3411.27	25.5
3412.06	26
3412.84	23.5
3413.62	23.5
3414.41	23.5
3415.19	20.5
3415.97	26
3416.76	22
3417.54	21
3418.32	24
3419.11	26.5
3419.89	25
3420.67	24
3421.46	26.5
3422.24	31
3423.02	24
3423.8	25.5
3424.58	24
3425.37	23.5
3426.15	22
3426.93	23.5
3427.71	23
3428.49	26
3429.27	24.5
3430.05	24
3430.84	25.5
3431.62	23.5
3432.4	23
3433.18	24
3433.96	23
3434.74	25
3435.52	25
3436.3	19
3437.08	24.5
3437.86	25
3438.64	21
3439.42	26
3440.2	27
3440.98	25
3441.76	25
3442.54	26
3443.32	24
3444.1	21.5
3444.88	24.5
3445.66	23.5
3446.44	28
3447.22	27
3448	27
3448.77	26.5
3449.55	28.5
3450.33	25.5
3451.11	25.5
3451.89	29.5
3452.67	25
3453.45	24.5
3454.22	24.5
3455	27
3455.78	24.5
3456.56	22.5
3457.33	25.5
3458.11	20
3458.89	25.5
3459.67	25
3460.44	23
3461.22	25.5
3462	26.5
3462.77	23
3463.55	24
3464.33	25
3465.1	24
3465.88	24
3466.66	27
3467.43	20.5
3468.21	21.5
3468.98	21
3469.76	25
3470.54	20.5
3471.31	25.5
3472.09	25.5
3472.86	23.5
3473.64	26
3474.41	25.5
3475.19	28
3475.96	25
3476.74	27.5
3477.51	24
3478.29	24
3479.06	26.5
3479.84	24
3480.61	24
3481.39	25
3482.16	25.5
3482.93	26.5
3483.71	27.5
3484.48	23
3485.25	25
3486.03	25.5
3486.8	26.5
3487.57	25
3488.35	24.5
3489.12	25.5
3489.89	26.5
3490.67	23
3491.44	26
3492.21	23.5
3492.99	27.5
3493.76	25
3494.53	22.5
3495.3	21
3496.08	25
3496.85	25.5
3497.62	23.5
3498.39	22
3499.16	19
3499.93	27.5
