#Acq. time (s)=	5
#Accumulations=	5
#Range (cm-¹)=	100...3500
#Windows=	4
#Autofocus=	Off
#AutoExposure=	Off
#Spike filter=	Multiple accum.
#Delay time (s)=	0
#Binning=	1
#Readout mode=	Signal
#DeNoise=	Off
#ICS correction=	Off
#Dark correction=	Off
#Inst. Process=	Off
#Instrument=	LabRAM HR Evol
#Detector=	Syncerity OE
#Objective=	x100_VIS
#Grating=	600 (500nm)
#ND Filter=	25%
#Laser=	633nm_Edge
#Hole=	100.021
#Range=	Visible
#Project=	verificaciones
#Sample=	at5
#Site=	lined
#Title=	bolusat5lined
#Remark=	
#Date=	13.01.2026 16:18
#Acquired=	13.01.2026 16:18:05
100.692	28.5
101.975	26.5
103.258	31
104.542	31
105.824	32
107.107	30
108.39	27
109.672	27
110.954	34.5
112.236	24
113.519	31.5
114.8	30
116.081	31.5
117.362	31
118.643	32.5
119.924	31
121.204	32
122.484	27
123.764	33.5
125.044	32
126.323	30
127.603	30
128.882	35
130.161	32.5
131.438	41.5
132.716	31
133.995	31
135.273	34.5
136.55	35.5
137.828	37
139.106	32
140.383	35
141.66	33.5
142.937	37.5
144.213	40
145.488	36
146.764	36.5
148.04	37.5
149.316	40
150.592	35
151.867	38
153.141	40
154.416	39
155.69	41.5
156.965	39.5
158.239	40.5
159.512	39
160.786	37.5
162.059	36.5
163.333	41
164.605	39.5
165.878	41
167.15	41
168.423	37
169.694	35.5
170.966	38.5
172.238	37
173.51	37
174.78	41.5
176.052	38
177.323	36
178.592	40
179.863	36.5
181.134	41.5
182.403	38
183.673	41
184.943	37
186.211	41
187.481	41.5
188.749	40
190.018	37
191.287	39
192.554	37
193.822	39
195.089	38.5
196.357	39
197.625	36
198.891	44
200.159	40
201.425	36.5
202.692	34.5
203.957	35.5
205.224	31.5
206.489	39
207.755	35.5
209.02	33.5
210.286	33.5
211.55	33
212.815	33
214.079	35
215.344	38.5
216.607	30
217.872	35
219.135	34.5
220.399	36.5
221.662	38
222.924	29.5
224.187	31
225.449	32
226.713	28.5
227.974	30.5
229.235	33.5
230.498	30.5
231.759	32
233.019	27
234.281	31
235.542	27
236.802	30
238.063	33
239.323	28
240.582	32
241.843	30.5
243.102	31.5
244.361	27.5
245.621	29.5
246.879	29
248.138	26.5
249.396	29
250.655	30.5
251.913	30.5
253.17	29.5
254.427	32
255.686	28
256.943	28
258.199	30.5
259.456	31
260.712	24.5
261.969	27
263.225	30
264.481	29
265.736	28
266.991	31
268.246	29
269.502	28
270.757	28.5
272.011	29
273.265	24.5
274.519	32
275.773	30.5
277.027	28.5
278.28	28
279.533	32.5
280.786	25.5
282.04	32
283.293	29.5
284.545	26.5
285.798	24
287.049	30.5
288.301	30.5
289.553	26
290.804	28.5
292.055	28
293.306	29.5
294.557	23.5
295.807	27.5
297.058	29
298.308	26
299.558	24.5
300.808	28
302.057	29.5
303.305	32
304.554	25.5
305.803	28
307.052	27.5
308.3	32
309.549	29
310.797	30.5
312.045	29.5
313.292	27
314.54	26.5
315.786	30
317.033	26
318.28	30.5
319.526	25
320.773	28
322.019	25.5
323.264	29.5
324.51	25
325.755	29
327.001	24
328.246	28.5
329.49	31
330.735	28.5
331.979	28.5
333.224	26.5
334.467	26
335.711	22
336.955	28.5
338.199	26
339.441	27.5
340.684	29
341.927	24
343.168	29.5
344.411	28
345.654	30.5
346.895	27
348.137	32.5
349.379	26
350.619	25
351.86	29.5
353.102	26
354.341	34
355.582	29.5
356.821	28
358.062	29.5
359.302	30
360.541	28
361.781	24
363.019	26
364.259	31
365.496	25
366.736	25
367.974	27.5
369.212	28.5
370.45	25
371.687	24.5
372.925	22
374.162	28
375.399	26.5
376.635	29.5
377.873	27
379.109	25.5
380.344	25.5
381.581	29
382.816	27.5
384.052	32
385.287	26
386.523	28
387.757	29
388.991	24.5
390.227	29
391.46	27
392.695	30
393.928	29
395.162	27.5
396.396	27.5
397.629	31.5
398.861	29
400.095	25
401.327	28.5
402.559	28
403.792	27
405.024	30
406.255	31.5
407.488	29
408.719	29.5
409.949	24.5
411.18	25
412.412	30.5
413.642	25
414.872	24.5
416.102	29
417.333	30
418.562	25
419.791	29.5
421.02	29
422.249	29.5
423.479	29.5
424.707	30
425.935	30.5
427.163	27.5
428.391	29.5
429.619	28
430.848	30.5
432.075	29.5
433.302	27
434.529	25.5
435.755	27.5
436.982	26
438.208	30
439.434	29
440.66	27.5
441.885	31.5
443.111	28.5
444.338	28.5
445.563	30.5
446.788	26
448.012	34
449.237	25
450.461	31
451.685	30.5
452.909	32.5
454.133	29.5
455.356	27.5
456.579	33
457.802	28.5
459.025	31
460.247	30.5
461.469	35.5
462.691	30
463.914	32.5
465.136	29.5
466.357	32
467.579	33.5
468.8	31.5
470.021	35.5
471.242	36
472.462	33
473.682	36.5
474.903	44
476.123	41
477.343	40.5
478.563	44
479.782	46
481	47.5
482.219	55.5
483.438	54.5
484.657	55.5
485.874	58
487.093	58
488.311	60.5
489.529	57
490.747	59
491.963	54
493.181	54
494.398	56
495.614	47.5
496.83	45
498.047	45
499.264	46
500.479	39
501.695	43
502.911	40
504.125	37
505.34	38.5
506.554	35
507.769	38
508.984	33
510.198	32
511.412	33.5
512.627	35.5
513.839	34
515.053	36
516.266	34.5
517.479	32
518.691	36.5
519.905	32
521.118	35.5
522.329	29.5
523.542	33
524.753	33
525.965	30.5
527.176	30.5
528.388	33
529.598	28.5
530.809	36.5
532.019	29.5
533.23	29
534.44	32.5
535.649	29
536.86	27.5
538.068	27.5
539.279	29.5
540.487	29.5
541.697	29
542.905	33
544.113	28
545.322	25.5
546.53	28
547.737	27
548.946	26
550.153	28
551.361	27.5
552.568	32.5
553.774	27
554.982	27
556.188	26.5
557.394	28.5
558.599	27
559.806	30
561.012	28.5
562.217	30
563.423	27
564.628	32
565.832	27.5
567.036	30.5
568.241	29
569.446	26.5
570.65	27
571.853	29
573.057	30.5
574.26	26
575.464	35
576.667	28
577.87	29
579.072	26.5
580.274	31.5
581.477	29.5
582.68	26.5
583.881	33
585.083	26.5
586.284	28
587.485	26.5
588.686	31.5
589.887	26
591.087	29
592.288	30
593.488	29
594.688	26.5
595.888	35
597.087	29.5
598.287	28.5
599.486	25
600.685	28.5
601.884	28
603.082	25
604.281	30.5
605.479	28
606.677	28.5
607.875	28
609.073	26.5
610.27	26.5
611.468	29
612.665	24.5
613.862	30
615.058	29
616.255	30
617.451	29
618.648	26.5
619.842	27
621.038	30
622.234	25
623.429	32
624.624	27.5
625.819	30
627.013	32
628.207	28
629.402	29.5
630.596	30.5
631.79	32.5
632.983	25
634.177	31.5
635.37	25.5
636.564	29.5
637.755	31
638.948	25
640.141	32
641.334	32
642.525	28.5
643.717	30.5
644.909	30.5
646.099	31.5
647.291	28
648.483	30
649.674	31.5
650.864	26.5
652.055	27
653.244	29.5
654.435	23
655.625	28
656.814	31.5
658.004	31.5
659.193	30
660.382	30
661.571	26
662.759	26
663.948	31.5
665.135	27
666.324	32.5
667.511	24.5
668.7	30.5
669.886	31
671.074	30
672.262	32
673.448	26
674.634	27.5
675.821	32.5
677.007	36.5
678.194	32
679.379	27
680.565	32.5
681.75	35
682.936	37
684.121	37
685.305	35
686.491	35.5
687.675	38.5
688.86	33.5
690.043	33.5
691.227	34
692.411	33
693.594	30
694.777	36
695.961	31.5
697.144	34.5
698.326	34.5
699.509	34
700.691	33.5
701.873	36
703.056	37.5
704.237	45.5
705.419	45.5
706.599	43.5
707.782	50
708.962	50
710.143	50.5
711.323	44
712.504	39
713.684	36.5
714.864	39
716.043	34
717.223	37
718.403	31
719.582	34
720.761	31
721.94	31.5
723.118	24
724.296	29
725.474	28.5
726.652	28.5
727.831	28
729.009	31
730.186	30.5
731.363	28.5
732.54	31
733.717	23
734.893	24.5
736.07	25.5
737.246	26.5
738.422	31
739.598	27.5
740.773	29
741.949	29.5
743.124	27
744.299	27.5
745.474	29
746.649	28
747.823	27.5
748.997	32.5
750.172	29.5
751.346	26.5
752.519	30
753.693	26.5
754.867	29.5
756.038	28.5
757.211	29.5
758.384	27
759.557	31.5
760.73	28.5
761.902	30
763.074	27
764.246	28
765.417	28
766.588	25.5
767.76	27
768.931	26.5
770.102	26.5
771.271	30.5
772.442	27.5
773.613	25.5
774.783	29.5
775.952	29
777.122	34
778.291	30.5
779.461	31
780.629	29
781.798	30.5
782.967	30.5
784.135	27.5
785.304	33.5
786.472	30.5
787.639	29
788.807	29.5
789.975	30
791.142	34
792.309	31
793.477	30.5
794.642	31
795.81	32
796.975	33
798.142	29.5
799.308	30
800.473	32.5
801.639	25
802.804	30.5
803.97	32.5
805.134	23.5
806.299	27
807.463	27.5
808.628	29
809.792	27.5
810.957	28
812.12	30
813.284	31
814.447	28.5
815.611	30
816.773	31.5
817.937	28
819.099	27.5
820.261	30
821.424	25
822.585	27
823.748	26
824.909	27
826.07	27
827.232	23
828.393	24.5
829.554	28
830.715	25.5
831.875	24.5
833.035	29.5
834.196	29
835.356	23.5
836.515	30
837.676	25
838.835	31
839.994	29.5
841.152	25
842.312	27
843.47	22.5
844.629	30.5
845.786	27
846.946	30
848.103	28.5
849.261	29.5
850.418	26.5
851.575	25.5
852.733	26
853.89	29
855.046	28
856.203	25
857.359	27
858.515	30
859.67	30
860.827	30
861.983	28
863.138	33.5
864.293	25.5
865.448	30
866.603	32
867.757	26
868.912	27
870.066	28
871.22	28.5
872.374	26
873.527	27
874.681	29.5
875.834	27.5
876.987	28
878.14	28
879.293	28
880.445	31
881.598	30
882.75	26.5
883.902	29
885.054	30
886.206	22.5
887.357	25.5
888.507	26.5
889.658	28
890.809	27.5
891.96	28
893.111	27
894.261	24.5
895.411	30
896.561	30
897.71	29
898.86	27
900.009	26
901.159	29.5
902.308	29
903.455	30.5
904.604	24
905.753	27
906.901	30
908.048	23.5
909.197	26
910.344	26
911.492	27.5
912.639	27.5
913.786	26.5
914.933	26.5
916.079	27
917.226	28
918.373	25.5
919.518	25
920.664	26
921.81	24.5
922.955	26.5
924.101	29.5
925.245	28.5
926.391	28.5
927.536	26
928.68	23
929.825	26.5
930.968	29.5
932.113	29
933.256	27
934.4	29.5
935.543	27.5
936.687	31
937.83	25
938.973	23
940.115	26
941.258	26
942.399	27
943.542	26
944.684	30.5
945.826	24
946.967	26
948.109	27
949.25	29
950.392	29
951.532	27.5
952.672	27
953.813	25
954.953	25
956.093	26
957.233	25
958.373	25.5
959.512	30.5
960.652	26
961.791	25.5
962.929	24.5
964.069	25
965.207	25.5
966.345	25.5
967.484	27.5
968.622	23
969.759	23
970.896	26.25
972.035	27
973.172	23.5
974.309	27
975.445	27
976.582	26.5
977.719	30
978.855	29
979.991	26
981.127	25
982.263	31
983.398	28.5
984.535	25.5
985.67	25.5
986.804	28
987.939	27.5
989.074	22.5
990.208	26.5
991.342	25
992.476	24
993.61	24
994.744	26.5
995.877	27
997.01	23.5
998.143	27.5
999.276	27
1000.41	24
1001.54	24.5
1002.67	22.5
1003.81	26
1004.94	24
1006.07	29
1007.2	24.5
1008.33	27.5
1009.47	26
1010.6	28
1011.73	28.5
1012.86	23
1013.99	25.5
1015.12	23.5
1016.25	26.5
1017.38	26
1018.51	28.5
1019.64	28
1020.77	26.5
1021.9	25.5
1023.03	26
1024.15	26
1025.28	28
1026.41	26
1027.54	22.5
1028.67	23.5
1029.8	27
1030.92	27
1032.05	27
1033.18	26.5
1034.31	25.5
1035.43	26
1036.56	26.5
1037.69	26.5
1038.81	24.5
1039.94	28.5
1041.07	24
1042.19	24.5
1043.32	25
1044.44	23.5
1045.57	25.5
1046.69	29
1047.82	26
1048.94	27
1050.07	24
1051.19	28
1052.32	28
1053.44	23
1054.57	26.5
1055.69	25
1056.81	27.5
1057.94	22.5
1059.06	27.5
1060.18	25.5
1061.31	29
1062.43	23
1063.55	26.5
1064.67	24
1065.8	28
1066.92	24
1068.04	26
1069.16	28
1070.28	23.5
1071.4	24.5
1072.52	25
1073.64	28
1074.76	23.5
1075.89	26.5
1077.01	26
1078.13	25.5
1079.25	25
1080.37	29.5
1081.49	26
1082.6	28
1083.72	29
1084.84	22
1085.96	28
1087.08	23.5
1088.2	25
1089.32	26.5
1090.43	24
1091.55	22
1092.67	24
1093.79	26
1094.91	24.5
1096.02	24
1097.14	24
1098.26	28
1099.37	25
1100.49	25.5
1101.61	24.5
1102.72	27
1103.84	26
1104.95	25.5
1106.07	25
1107.18	26.5
1108.3	29
1109.41	27.5
1110.53	22
1111.64	29
1112.76	27.5
1113.87	24.5
1114.99	20.5
1116.1	27.5
1117.21	24
1118.33	28
1119.44	26.5
1120.55	28
1121.67	24
1122.78	26.5
1123.89	24
1125	23
1126.12	23
1127.23	26
1128.34	25
1129.45	25.5
1130.56	27.5
1131.68	24
1132.79	23
1133.9	24.5
1135.01	29.5
1136.12	26
1137.23	26
1138.34	21.5
1139.45	21.5
1140.56	23.5
1141.67	26.5
1142.78	25
1143.89	21
1145	28
1146.11	28
1147.22	21.5
1148.32	22.5
1149.43	26
1150.54	22
1151.65	21.5
1152.76	25
1153.86	24.5
1154.97	23
1156.08	26
1157.19	26
1158.29	24
1159.4	23
1160.51	24.5
1161.61	26
1162.72	26
1163.83	25
1164.93	27.5
1166.04	23.5
1167.14	23.5
1168.25	24
1169.35	25
1170.46	25
1171.56	25
1172.67	24.5
1173.77	27
1174.88	23
1175.98	23
1177.08	25.5
1178.19	21.5
1179.29	24.5
1180.4	28.5
1181.5	24
1182.6	26.5
1183.71	23
1184.81	24.5
1185.91	25
1187.01	25.5
1188.12	23.5
1189.22	24
1190.32	26.5
1191.42	27.5
1192.52	20.5
1193.62	25.5
1194.72	22.9976
1195.83	22.018
1196.93	28.4617
1198.03	26.6089
1199.13	25.0655
1200.23	23.1768
1201.33	24.5514
1202.43	24.9833
1203.53	24.6383
1204.63	24.2452
1205.73	24.0511
1206.83	23.8311
1207.92	24.0738
1209.02	23.8731
1210.12	22.4906
1211.22	22.0967
1212.32	26.0305
1213.42	20.2646
1214.51	24.4447
1215.61	22.5467
1216.71	22.985
1217.81	25.2346
1218.9	25.1826
1220	26.0437
1221.1	25.989
1222.19	25.3389
1223.29	24.98
1224.39	25.5972
1225.48	27.0237
1226.58	27.0491
1227.68	22.7717
1228.77	20.4163
1229.87	25.9559
1230.96	21.5041
1232.06	26.0236
1233.15	24.2144
1234.25	24.4325
1235.34	25.7012
1236.43	23.7703
1237.53	23.4302
1238.62	28.1702
1239.72	23.3817
1240.81	23.8709
1241.9	27.2313
1243	25.5672
1244.09	23.942
1245.18	26.6443
1246.27	23.7776
1247.37	25.2194
1248.46	27.6741
1249.55	25.2127
1250.64	25.2959
1251.74	23.5173
1252.83	26.1779
1253.92	22.7146
1255.01	26.2082
1256.1	25.9545
1257.19	28.1538
1258.28	26.9872
1259.38	28.3621
1260.46	28.4126
1261.56	25.9854
1262.65	27.5257
1263.74	26.2735
1264.82	23.7508
1265.91	25.2596
1267	22.6517
1268.09	25.8698
1269.18	24.9572
1270.27	24.9736
1271.36	27.3487
1272.45	25.2773
1273.54	26.5061
1274.63	23.1094
1275.71	23.7262
1276.8	26.9672
1277.89	25.5986
1278.98	23.4404
1280.06	22.561
1281.15	21.0426
1282.24	25.2973
1283.32	24.8278
1284.41	25.3981
1285.5	22.9288
1286.58	28.2267
1287.67	28.6343
1288.76	24.1109
1289.84	26.2956
1290.93	25.5489
1292.01	24.664
1293.1	25.7818
1294.18	25.7656
1295.27	25.0674
1296.35	25.6315
1297.44	24.3611
1298.52	26.6822
1299.6	26.1568
1300.69	26.5698
1301.77	26.2282
1302.86	23.5399
1303.94	23.9563
1305.02	24.4417
1306.11	27.349
1306.41	28.5
1307.5	26
1308.59	26.5
1309.68	25
1310.77	22.5
1311.85	24
1312.94	28.5
1314.03	25
1315.11	23
1316.2	25
1317.29	25
1318.37	21.5
1319.46	22.5
1320.55	24
1321.63	24.5
1322.72	22
1323.8	22
1324.89	24
1325.98	22.5
1327.06	25.5
1328.15	26.5
1329.23	24.5
1330.31	26.5
1331.4	26
1332.48	24.5
1333.57	26.5
1334.65	26.5
1335.74	25.5
1336.82	27
1337.9	25
1338.99	27
1340.07	25
1341.15	24.5
1342.24	25.5
1343.32	24.5
1344.4	27
1345.48	24
1346.56	23
1347.65	24
1348.73	25
1349.81	24.5
1350.89	24
1351.97	26.5
1353.05	25
1354.13	24
1355.21	24.5
1356.29	22.5
1357.37	25
1358.46	23
1359.54	24
1360.62	24
1361.69	24.5
1362.77	25
1363.85	25.5
1364.93	26.5
1366.01	26.5
1367.09	28.5
1368.17	26
1369.25	24.5
1370.33	26
1371.41	26.5
1372.48	24.5
1373.56	25
1374.64	28
1375.72	26.5
1376.79	23.5
1377.87	24.5
1378.95	23
1380.02	23
1381.1	22
1382.18	24.5
1383.25	26.5
1384.33	26
1385.4	26
1386.48	28
1387.56	27
1388.63	24
1389.71	26
1390.78	26
1391.86	30
1392.93	26.5
1394.01	27.5
1395.08	25
1396.15	27.5
1397.23	22.5
1398.3	28.5
1399.38	31
1400.45	26.5
1401.52	30.5
1402.6	30
1403.67	29
1404.74	30
1405.81	32.5
1406.89	29
1407.96	32.5
1409.03	32.5
1410.1	30
1411.17	27.5
1412.25	34.5
1413.32	29
1414.39	32.5
1415.46	28
1416.53	28
1417.6	27
1418.67	31
1419.74	26
1420.81	28
1421.88	30
1422.95	27
1424.02	26.5
1425.09	26
1426.16	26
1427.23	24
1428.3	26
1429.37	28
1430.44	24
1431.51	29
1432.58	24.5
1433.64	27
1434.71	25
1435.78	25.5
1436.85	35
1437.92	26
1438.98	28.5
1440.05	25.5
1441.12	27.5
1442.18	28
1443.25	22
1444.32	24
1445.38	23
1446.45	26
1447.52	26.5
1448.58	24
1449.65	28.5
1450.71	26
1451.78	26.5
1452.84	24
1453.91	28.5
1454.97	25
1456.04	28.5
1457.1	25.5
1458.17	24.5
1459.23	24
1460.3	24
1461.36	25.5
1462.42	26.5
1463.49	21.5
1464.55	23
1465.61	25
1466.68	23
1467.74	27
1468.8	26
1469.86	26
1470.93	24
1471.99	24.5
1473.05	23.5
1474.11	22
1475.17	24
1476.24	26.5
1477.3	26.5
1478.36	29
1479.42	24
1480.48	26
1481.54	26.5
1482.6	27
1483.66	23
1484.72	24
1485.78	23
1486.84	23.5
1487.9	26.5
1488.96	27
1490.02	26
1491.08	26
1492.14	24.5
1493.2	23.5
1494.26	26.5
1495.31	30.5
1496.37	25
1497.43	26
1498.49	25.5
1499.55	24.5
1500.6	25
1501.66	27.5
1502.72	26.5
1503.78	26
1504.83	25
1505.89	27.5
1506.95	22
1508	25.5
1509.06	27
1510.12	27.5
1511.17	24
1512.23	25
1513.28	28
1514.34	24
1515.39	28
1516.45	23.5
1517.5	25
1518.56	24
1519.61	26.5
1520.67	25
1521.72	25.5
1522.78	25.5
1523.83	25.5
1524.88	26
1525.94	23.5
1526.99	25
1528.05	25.5
1529.1	28
1530.15	26.5
1531.2	25.5
1532.26	24.5
1533.31	28
1534.36	26
1535.41	25
1536.47	24
1537.52	27.5
1538.57	25
1539.62	25
1540.67	25
1541.72	26.5
1542.77	27.5
1543.83	27
1544.88	24.5
1545.93	25
1546.98	28
1548.03	25
1549.08	28.5
1550.13	25.5
1551.18	26.5
1552.23	24
1553.28	23.5
1554.32	25
1555.37	22
1556.42	26.5
1557.47	25.5
1558.52	25.5
1559.57	27
1560.62	26
1561.67	30
1562.71	29
1563.76	25
1564.81	24.5
1565.86	27
1566.9	21
1567.95	23.5
1569	25.5
1570.04	27.5
1571.09	24.5
1572.14	29.5
1573.18	25.5
1574.23	26
1575.27	25
1576.32	26.5
1577.37	25
1578.41	28.5
1579.46	27
1580.5	29
1581.55	23
1582.59	27
1583.64	23.5
1584.68	24.5
1585.72	28
1586.77	28
1587.81	25
1588.86	25
1589.9	24
1590.94	26.5
1591.99	26
1593.03	26
1594.07	26
1595.12	24.5
1596.16	27.5
1597.2	27
1598.24	26
1599.29	27
1600.33	23.5
1601.37	26
1602.41	25
1603.45	25
1604.49	25.5
1605.53	28.5
1606.58	24
1607.62	27
1608.66	24
1609.7	29
1610.74	26
1611.78	28.5
1612.82	26.5
1613.86	28.5
1614.9	25
1615.94	24
1616.98	26.5
1618.02	27
1619.06	26
1620.09	20
1621.13	29.5
1622.17	21
1623.21	22
1624.25	22.5
1625.29	25.5
1626.32	23
1627.36	27
1628.4	26.5
1629.44	25.5
1630.47	27.5
1631.51	27.5
1632.55	26.5
1633.58	24
1634.62	28.5
1635.66	26
1636.69	26
1637.73	27.5
1638.77	28
1639.8	29
1640.84	25.5
1641.87	28.5
1642.91	24
1643.94	22.5
1644.98	21
1646.01	22.5
1647.05	30.5
1648.08	28.5
1649.12	25.5
1650.15	25.5
1651.18	28
1652.22	27.5
1653.25	26
1654.29	20
1655.32	28.5
1656.35	24.5
1657.39	27
1658.42	28
1659.45	25.5
1660.48	25
1661.52	26
1662.55	26
1663.58	25.5
1664.61	26
1665.64	27
1666.68	27
1667.71	24
1668.74	27
1669.77	22.5
1670.8	21
1671.83	23.5
1672.86	24.5
1673.89	26
1674.92	26
1675.95	23.5
1676.98	28.5
1678.01	26.5
1679.04	25.5
1680.07	24.5
1681.1	26.5
1682.13	25
1683.16	23
1684.19	26.5
1685.22	26.5
1686.25	25
1687.27	25.5
1688.3	25
1689.33	24.5
1690.36	24
1691.38	23
1692.41	25
1693.44	27
1694.47	23.5
1695.49	25
1696.52	23.5
1697.55	25
1698.57	27.5
1699.6	29.5
1700.63	23
1701.65	27
1702.68	26
1703.7	26.5
1704.73	23
1705.76	20.5
1706.78	23
1707.81	29
1708.83	23.5
1709.86	21
1710.88	29.5
1711.91	26
1712.93	28.5
1713.95	26
1714.98	29
1716	22.5
1717.03	26
1718.05	27.5
1719.07	29
1720.1	26.5
1721.12	30.5
1722.14	26.5
1723.16	25
1724.19	25
1725.21	28
1726.23	27
1727.25	24
1728.28	25
1729.3	24.5
1730.32	26.5
1731.34	26
1732.36	24.5
1733.38	29
1734.41	22.5
1735.43	25
1736.45	25.5
1737.47	25
1738.49	25
1739.51	27.5
1740.53	24
1741.55	28
1742.57	24.5
1743.59	22.5
1744.61	27.5
1745.63	24.5
1746.64	25
1747.66	27
1748.68	27.5
1749.7	25.5
1750.72	27.5
1751.74	27
1752.76	28
1753.77	25.5
1754.79	29
1755.81	23
1756.83	27
1757.84	27
1758.86	24.5
1759.88	25
1760.9	25
1761.91	27
1762.93	28.5
1763.95	24
1764.96	24.5
1765.98	21.5
1766.99	23.5
1768.01	26.5
1769.02	29
1770.04	25.5
1771.06	25.5
1772.07	22
1773.09	28.5
1774.1	26.5
1775.12	22
1776.13	29
1777.14	26
1778.16	23.5
1779.17	26
1780.19	25
1781.2	27
1782.21	27.5
1783.23	23
1784.24	26
1785.25	23
1786.27	27
1787.28	26
1788.29	24
1789.3	26
1790.32	27
1791.33	24.5
1792.34	22.5
1793.35	25.5
1794.36	27.5
1795.38	24.5
1796.39	20
1797.4	27.5
1798.41	29
1799.42	24.5
1800.43	26.5
1801.44	24.5
1802.45	29.5
1803.46	22
1804.47	26
1805.48	27
1806.49	26.5
1807.5	21
1808.51	24
1809.52	23
1810.53	28.5
1811.54	29
1812.55	22
1813.56	28
1814.57	26.5
1815.57	27
1816.58	24.5
1817.59	24
1818.6	22
1819.61	27
1820.61	22
1821.62	25.5
1822.63	21
1823.64	23
1824.64	22
1825.65	25
1826.66	26
1827.66	26
1828.67	26
1829.68	29
1830.68	26
1831.69	30
1832.69	29
1833.7	24.5
1834.7	24
1835.71	29
1836.71	28
1837.72	20
1838.72	25
1839.73	23.5
1840.73	24.5
1841.74	23.5
1842.74	25.5
1843.75	29
1844.75	28
1845.75	25
1846.76	25
1847.76	23
1848.76	26
1849.77	28.5
1850.77	24
1851.77	22.5
1852.78	22
1853.78	27
1854.78	23.5
1855.78	25.5
1856.78	23.5
1857.79	22
1858.79	24.5
1859.79	24
1860.79	25
1861.79	25
1862.79	26
1863.79	24.5
1864.79	30
1865.79	26
1866.8	26.5
1867.8	27
1868.8	25
1869.8	27.5
1870.8	27
1871.8	22.5
1872.8	26.5
1873.79	25.5
1874.79	26.5
1875.79	27.5
1876.79	23.5
1877.79	24.5
1878.79	24
1879.79	22
1880.79	24.5
1881.78	25
1882.78	23.5
1883.78	25
1884.78	23.5
1885.77	26.5
1886.77	29.5
1887.77	25
1888.77	25
1889.76	26
1890.76	29.5
1891.76	27
1892.75	25
1893.75	21
1894.75	22.5
1895.74	25
1896.74	25.5
1897.73	28.5
1898.73	24
1899.73	25.5
1900.72	26
1901.72	28
1902.71	18
1903.7	28
1904.7	25.5
1905.69	26.5
1906.69	27
1907.68	27.5
1908.68	26.5
1909.67	25
1910.66	26.5
1911.66	22
1912.65	23
1913.64	23
1914.64	23
1915.63	25
1916.62	26.5
1917.62	24
1918.61	25
1919.6	26.5
1920.59	20.5
1921.58	25
1922.58	22.5
1923.57	28.5
1924.56	22
1925.55	27.5
1926.54	23
1927.53	26.5
1928.52	26
1929.51	25
1930.51	25
1931.5	20.5
1932.49	25.5
1933.48	23
1934.47	27
1935.46	26.5
1936.45	22
1937.44	24
1938.42	22.5
1939.41	23
1940.4	25
1941.39	24
1942.38	26
1943.37	26
1944.36	30
1945.35	21.5
1946.33	25
1947.32	25.5
1948.31	24.25
1949.3	20
1950.29	22.5
1951.27	27
1952.26	26.5
1953.25	24
1954.23	27.5
1955.22	26
1956.21	26.5
1957.19	25
1958.18	30.5
1959.17	20
1960.15	22
1961.14	25.5
1962.13	25
1963.11	25.5
1964.1	22
1965.08	22.5
1966.07	24.5
1967.05	24
1968.04	27
1969.02	23.5
1970.01	22.5
1970.99	27.5
1971.97	23.5
1972.96	28
1973.94	25
1974.93	28
1975.91	25
1976.89	24
1977.88	23.5
1978.86	23.5
1979.84	24.5
1980.83	26.5
1981.81	28
1982.79	26
1983.77	27.5
1984.76	25
1985.74	25.5
1986.72	27
1987.7	22
1988.68	28
1989.67	20
1990.65	23
1991.63	21.5
1992.61	25.5
1993.59	22
1994.57	22
1995.55	25
1996.53	25
1997.51	22.5
1998.49	24
1999.47	17
2000.45	24
2001.43	20
2002.41	24.5
2003.39	29.5
2004.37	25.5
2005.35	25
2006.33	26
2007.31	25
2008.29	26
2009.26	24.5
2010.24	24
2011.22	23
2012.2	24.5
2013.18	26
2014.15	23
2015.13	20.5
2016.11	21
2017.09	25
2018.06	25.5
2019.04	23.5
2020.02	25
2021	23
2021.97	25.5
2022.95	24
2023.92	23
2024.9	25
2025.88	26.5
2026.85	24.5
2027.83	24.5
2028.8	21.5
2029.78	26
2030.75	24.5
2031.73	25
2032.7	22.5
2033.68	27.5
2034.65	18
2035.63	20
2036.6	24
2037.58	23
2038.55	23.5
2039.52	27
2040.5	25
2041.47	26
2042.45	22
2043.42	25.5
2044.39	21
2045.36	21.5
2046.34	25.5
2047.31	26.5
2048.28	24
2049.26	19.5
2050.23	25.5
2051.2	24.5
2052.17	20.5
2053.14	24.5
2054.12	24.5
2055.09	23.5
2056.06	26
2057.03	24
2058	29
2058.97	22
2059.94	24.5
2060.91	23.5
2061.88	20
2062.85	24.5
2063.82	24.5
2064.79	27
2065.76	23.5
2066.73	23
2067.7	27
2068.67	22
2069.64	23.5
2070.61	21
2071.58	19
2072.55	22
2073.52	24
2074.49	23.5
2075.45	22.5
2076.42	22
2077.39	24
2078.36	23
2079.33	26.5
2080.29	22
2081.26	22.5
2082.23	24.5
2083.2	24
2084.16	23.5
2085.13	23.5
2086.1	25.5
2087.06	28.5
2088.03	24
2089	24.5
2089.96	24
2090.93	22.5
2091.89	22
2092.86	23
2093.83	21
2094.79	26.5
2095.76	21
2096.72	25.5
2097.69	24.5
2098.65	23.5
2099.62	21.5
2100.58	23.5
2101.55	22.5
2102.51	23.5
2103.47	29
2104.44	27
2105.4	24.5
2106.36	21
2107.33	27
2108.29	26
2109.25	27
2110.22	23.5
2111.18	24.5
2112.14	21
2113.11	23
2114.07	24
2115.03	24.5
2115.99	23
2116.96	29
2117.92	26.5
2118.88	23.5
2119.84	25
2120.8	27
2121.76	17
2122.72	21
2123.68	28
2124.65	25
2125.61	23
2126.57	21.5
2127.53	24
2128.49	22
2129.45	22.5
2130.41	30
2131.37	21
2132.33	22
2133.29	21
2134.25	25
2135.21	23.5
2136.17	27
2137.12	22.5
2138.08	23
2139.04	28
2140	22
2140.96	22
2141.92	24
2142.88	21.9958
2143.83	24.9552
2144.79	24.9682
2145.75	24.534
2146.71	21.6399
2147.66	23.0081
2148.62	21.1796
2149.58	20.4909
2150.53	26.4934
2151.49	22.9349
2152.45	21.7032
2153.4	22.7767
2154.36	23.2655
2155.32	24.8034
2156.27	25.2489
2157.23	25.7267
2158.19	24.6466
2159.14	23.3134
2160.1	24.4979
2161.05	26.0406
2162.01	24.7227
2162.96	22.0973
2163.92	25.1532
2164.87	20.8957
2165.83	22.2752
2166.78	22.7768
2167.73	22.0199
2168.69	21.767
2169.64	22.9019
2170.6	27.9024
2171.55	26.5523
2172.5	20.1209
2173.46	20.7171
2174.41	23.5513
2175.36	21.1916
2176.32	21.3976
2177.27	23.0035
2178.22	20.0806
2179.18	22.8485
2180.13	24.373
2181.08	24.3937
2182.03	22.8552
2182.98	22.9692
2183.94	21.3933
2184.89	22.9879
2185.84	23.0323
2186.79	23.4515
2187.74	23.9083
2188.69	20.6116
2189.64	25.5583
2190.6	25.1733
2191.55	20.1108
2192.5	24.9639
2193.45	22.2485
2194.4	23.5617
2195.35	24.7675
2196.3	25.3997
2197.25	22.4451
2198.2	25.4371
2199.15	24.1335
2200.1	22.5926
2201.04	24.2087
2201.99	23.9839
2202.94	24.0197
2203.89	21.0293
2204.84	21.7577
2205.79	21.906
2206.74	23.103
2207.69	24.7735
2208.63	21.8135
2209.58	20.5341
2210.53	23.0729
2211.48	22.0194
2212.43	23.8568
2213.37	20.1314
2214.32	22.6145
2215.27	22.122
2216.21	23.8165
2217.16	23.7642
2218.11	24.5907
2219.05	23.2834
2220	23.0658
2220.95	21.8626
2221.89	23.5633
2222.84	22.9612
2223.78	23.4008
2224.73	23.1961
2225.68	22.6154
2226.62	23.5077
2227.57	21.6976
2228.51	20.9393
2229.46	24.2534
2230.4	24.7961
2231.35	23.8943
2232.29	22.6021
2233.24	24.8378
2234.18	23.1043
2235.12	24.4776
2236.07	28.0232
2237.01	23.1391
2237.95	21.8903
2238.9	23.9096
2239.84	22.5914
2240.06	22
2241.01	25
2241.96	25
2242.91	23
2243.86	22
2244.8	24
2245.75	24
2246.7	25
2247.65	21
2248.59	23
2249.54	21
2250.49	21.5
2251.43	21.5
2252.38	23
2253.33	19
2254.27	23
2255.22	24.5
2256.16	22.5
2257.11	26
2258.06	24.5
2259	24
2259.95	24
2260.89	20
2261.84	23
2262.78	24.5
2263.73	25
2264.67	25.5
2265.62	23
2266.56	25
2267.5	24.5
2268.45	25.5
2269.39	25
2270.34	24
2271.28	24.5
2272.22	20.5
2273.17	25
2274.11	24.5
2275.05	23.5
2276	22.5
2276.94	21.5
2277.88	25
2278.82	23.5
2279.77	24
2280.71	25
2281.65	23.5
2282.59	23
2283.53	26.5
2284.48	22
2285.42	18
2286.36	25
2287.3	22
2288.24	18.5
2289.18	24.5
2290.12	26.5
2291.06	28
2292	26.5
2292.94	24
2293.89	27.5
2294.83	18
2295.77	23.5
2296.71	21.5
2297.65	20.5
2298.58	22.5
2299.52	22.5
2300.46	21.5
2301.4	21.5
2302.34	28.5
2303.28	23
2304.22	23.5
2305.16	21
2306.1	24.5
2307.03	24.5
2307.97	24.5
2308.91	21.5
2309.85	24.5
2310.79	23
2311.72	26
2312.66	23.5
2313.6	18
2314.54	26
2315.47	24.5
2316.41	26
2317.35	26
2318.28	23.5
2319.22	24
2320.16	24
2321.09	25
2322.03	25
2322.96	18
2323.9	21
2324.84	26.5
2325.77	20.5
2326.71	23
2327.64	23.5
2328.58	20
2329.51	25.5
2330.45	21.5
2331.38	27
2332.32	27
2333.25	23
2334.18	26
2335.12	25.5
2336.05	22
2336.99	23
2337.92	26.5
2338.85	22
2339.79	24
2340.72	24.5
2341.65	23
2342.59	25
2343.52	26.5
2344.45	22.5
2345.39	25
2346.32	22
2347.25	26
2348.18	23
2349.11	20
2350.05	24.5
2350.98	22
2351.91	23
2352.84	25.5
2353.77	24
2354.7	22
2355.64	24
2356.57	26
2357.5	25.5
2358.43	23
2359.36	23.5
2360.29	27
2361.22	25.5
2362.15	24
2363.08	23.5
2364.01	23.5
2364.94	24
2365.87	22.5
2366.8	25.5
2367.73	25
2368.66	22
2369.58	24
2370.51	26
2371.44	25.5
2372.37	24
2373.3	26.5
2374.23	22
2375.16	25
2376.08	27
2377.01	23
2377.94	23
2378.87	22
2379.8	25
2380.72	25.5
2381.65	20.5
2382.58	23
2383.5	24
2384.43	23
2385.36	27.5
2386.28	21
2387.21	23.5
2388.14	27
2389.06	23
2389.99	25.5
2390.91	17.5
2391.84	25
2392.77	23
2393.69	22
2394.62	25
2395.54	24
2396.47	24
2397.39	24
2398.32	25.5
2399.24	23
2400.16	24.5
2401.09	23
2402.01	22.5
2402.94	22
2403.86	25.5
2404.78	26
2405.71	25.5
2406.63	24
2407.56	25
2408.48	23
2409.4	21
2410.32	21
2411.25	23
2412.17	26
2413.09	26
2414.02	22
2414.94	23
2415.86	22
2416.78	25
2417.7	24
2418.63	26
2419.55	25.5
2420.47	24
2421.39	24.5
2422.31	31
2423.23	24.5
2424.15	22.5
2425.07	24.5
2425.99	25
2426.92	24
2427.84	25
2428.76	25.5
2429.68	26.5
2430.59	23.5
2431.51	22
2432.43	26
2433.35	24.5
2434.27	21
2435.19	27.5
2436.11	26.5
2437.03	28.5
2437.95	24
2438.87	21.5
2439.79	21
2440.71	27
2441.62	24
2442.54	22.5
2443.46	26
2444.38	19.5
2445.3	20
2446.21	25.5
2447.13	27
2448.05	20
2448.97	23.5
2449.88	27
2450.8	22.5
2451.72	27
2452.63	24
2453.55	22
2454.47	25.5
2455.38	24
2456.3	28.5
2457.21	28
2458.13	23
2459.05	24
2459.96	25
2460.88	23.5
2461.79	20.5
2462.71	27
2463.62	22
2464.54	25
2465.45	25
2466.37	19
2467.28	18
2468.2	23.5
2469.11	25
2470.02	21
2470.94	26
2471.85	25
2472.77	26
2473.68	22.5
2474.59	21
2475.51	26.5
2476.42	26.5
2477.33	26
2478.25	24
2479.16	21.5
2480.07	22.5
2480.98	26
2481.9	24
2482.81	22.5
2483.72	24
2484.63	24
2485.55	24
2486.46	23
2487.37	28
2488.28	23
2489.19	23.5
2490.1	24
2491.01	23.5
2491.92	24.5
2492.83	23
2493.74	24.5
2494.66	26.5
2495.57	22.5
2496.48	23
2497.39	24.5
2498.3	23
2499.21	24.5
2500.12	25
2501.03	25.5
2501.93	26.5
2502.84	24.5
2503.75	22.5
2504.66	25
2505.57	23.5
2506.48	23
2507.39	24.5
2508.3	25.5
2509.21	26.5
2510.11	25.5
2511.02	23
2511.93	24.5
2512.84	23
2513.75	24.5
2514.65	23
2515.56	24.5
2516.47	26
2517.37	25
2518.28	23
2519.19	25.5
2520.09	21
2521	27.5
2521.91	25
2522.81	23
2523.72	24.5
2524.63	24.5
2525.53	24.5
2526.44	28
2527.34	24
2528.25	22
2529.16	24.5
2530.06	25.5
2530.97	26.5
2531.87	23
2532.78	27.5
2533.68	24.5
2534.58	26.5
2535.49	26
2536.39	23.5
2537.3	22
2538.2	25
2539.11	22
2540.01	23.5
2540.91	24.5
2541.82	25
2542.72	23
2543.62	25
2544.53	24
2545.43	24
2546.33	25
2547.23	26
2548.14	23.5
2549.04	26
2549.94	24.5
2550.84	22.5
2551.75	25.5
2552.65	22
2553.55	20
2554.45	27.5
2555.35	26
2556.26	25
2557.16	22.5
2558.06	22.5
2558.96	23.5
2559.86	25.5
2560.76	24.5
2561.66	23.5
2562.56	27
2563.46	24.5
2564.36	26
2565.26	24.5
2566.16	20
2567.06	27
2567.96	24.5
2568.86	23.5
2569.76	25.5
2570.66	20
2571.56	25.5
2572.46	24.5
2573.36	23.5
2574.26	23.5
2575.16	24
2576.05	23
2576.95	28.5
2577.85	22.5
2578.75	23.5
2579.65	24
2580.54	26
2581.44	28
2582.34	25.5
2583.24	24
2584.13	24.5
2585.03	26.5
2585.93	27
2586.83	23.5
2587.72	25
2588.62	22
2589.52	24
2590.41	25
2591.31	28.5
2592.2	25.5
2593.1	25
2594	22
2594.89	22.5
2595.79	26.5
2596.68	21.5
2597.58	22
2598.47	24
2599.37	25.5
2600.26	21.5
2601.16	27
2602.05	27.5
2602.95	25.5
2603.84	26.5
2604.74	23
2605.63	25
2606.52	25
2607.42	30
2608.31	26
2609.21	24
2610.1	26.5
2610.99	24
2611.89	29.5
2612.78	27
2613.67	28
2614.56	26
2615.46	25.5
2616.35	23
2617.24	26.5
2618.13	21
2619.03	24
2619.92	24.5
2620.81	27
2621.7	26.5
2622.59	23
2623.49	25.5
2624.38	31
2625.27	23
2626.16	25
2627.05	26
2627.94	25.5
2628.83	24.5
2629.72	23.5
2630.61	25.5
2631.5	25.5
2632.39	26
2633.28	22.5
2634.17	24
2635.06	26
2635.95	28
2636.84	26.5
2637.73	26
2638.62	24.5
2639.51	24.5
2640.4	26
2641.29	27.5
2642.18	24
2643.07	23.5
2643.96	21.5
2644.84	22
2645.73	21.5
2646.62	28
2647.51	23.5
2648.4	26
2649.28	26
2650.17	22.5
2651.06	22
2651.95	26.5
2652.83	21
2653.72	25
2654.61	23
2655.49	22.5
2656.38	28
2657.27	25
2658.16	26.5
2659.04	26
2659.93	23
2660.81	23
2661.7	26.5
2662.59	21.5
2663.47	22.5
2664.36	26.5
2665.24	20.5
2666.13	24.5
2667.01	24
2667.9	26.5
2668.78	26
2669.67	20
2670.55	25
2671.44	23
2672.32	25
2673.21	23.5
2674.09	26.5
2674.97	23
2675.86	24.5
2676.74	20.5
2677.62	25
2678.51	25.5
2679.39	22.5
2680.27	25
2681.16	25
2682.04	23
2682.92	27
2683.81	26
2684.69	24
2685.57	24.5
2686.45	22
2687.34	25.5
2688.22	25.5
2689.1	25
2689.98	25
2690.86	25.5
2691.75	23
2692.63	27
2693.51	25
2694.39	24.5
2695.27	25
2696.15	23.5
2697.03	27.5
2697.91	23.5
2698.79	23
2699.67	27
2700.55	24.5
2701.43	27
2702.31	25
2703.19	25
2704.07	25.5
2704.95	28.5
2705.83	26
2706.71	23
2707.59	26
2708.47	24
2709.35	25
2710.23	21
2711.11	28.5
2711.99	26.5
2712.86	21
2713.74	26.5
2714.62	23.5
2715.5	22
2716.38	22
2717.26	23.5
2718.13	26.5
2719.01	26
2719.89	22.5
2720.77	21.5
2721.64	23
2722.52	25.5
2723.4	29
2724.27	23
2725.15	24
2726.03	27
2726.9	26
2727.78	26
2728.66	22.5
2729.53	23.5
2730.41	24.5
2731.28	24.5
2732.16	23
2733.03	24.5
2733.91	26.5
2734.79	25
2735.66	19.5
2736.54	23
2737.41	25.5
2738.29	24.5
2739.16	23.5
2740.03	22
2740.91	24
2741.78	21.5
2742.66	24
2743.53	28
2744.41	27
2745.28	26.5
2746.15	30.5
2747.03	21
2747.9	24.5
2748.77	25.5
2749.65	25
2750.52	22
2751.39	25
2752.27	24.5
2753.14	27
2754.01	24
2754.88	24
2755.75	24
2756.63	24
2757.5	21
2758.37	27
2759.24	26
2760.11	24
2760.99	28
2761.86	22
2762.73	26
2763.6	26.5
2764.47	22.5
2765.34	22.5
2766.21	27
2767.08	23
2767.95	24
2768.82	24.5
2769.69	22.5
2770.56	24
2771.43	25.5
2772.3	28
2773.17	23.5
2774.04	25.5
2774.91	21.5
2775.78	25
2776.65	24
2777.52	24
2778.39	23
2779.26	26
2780.13	24.5
2780.99	25
2781.86	23
2782.73	23
2783.6	22
2784.47	27
2785.34	27.5
2786.2	21.5
2787.07	21
2787.94	27
2788.81	24
2789.67	21
2790.54	25
2791.41	24
2792.27	22.5
2793.14	26
2794.01	23.5
2794.87	24
2795.74	24.5
2796.61	20.5
2797.47	25.5
2798.34	29.5
2799.21	24
2800.07	25
2800.94	27
2801.8	28.5
2802.67	24
2803.53	26
2804.4	26.5
2805.26	27
2806.13	27
2806.99	22
2807.86	27.5
2808.72	26.5
2809.59	27.5
2810.45	25
2811.32	23.5
2812.18	24
2813.04	26
2813.91	23
2814.77	24.5
2815.64	29.5
2816.5	25
2817.36	25.5
2818.22	25.5
2819.09	28
2819.95	27
2820.81	24
2821.68	28
2822.54	24
2823.4	28.5
2824.26	24
2825.13	24.5
2825.99	25
2826.85	22.5
2827.71	26
2828.57	21
2829.44	28
2830.3	24.5
2831.16	23
2832.02	27.5
2832.88	25
2833.74	26
2834.6	28
2835.46	26
2836.32	26.5
2837.18	25.5
2838.04	26
2838.9	23
2839.76	22.5
2840.62	25
2841.48	27.5
2842.34	25
2843.2	28
2844.06	26
2844.92	26
2845.78	20
2846.64	27
2847.5	26
2848.36	26
2849.22	27
2850.08	25.5
2850.93	25
2851.79	18.5
2852.65	24
2853.51	29
2854.37	24.5
2855.22	23.5
2856.08	25
2856.94	27
2857.8	27
2858.65	25
2859.51	28.5
2860.37	26
2861.23	25
2862.08	26.5
2862.94	26
2863.79	26.5
2864.65	28
2865.51	27
2866.36	28
2867.22	28
2868.08	25
2868.93	24
2869.79	29.5
2870.64	28
2871.5	29.5
2872.35	27
2873.21	29
2874.06	25
2874.92	29.5
2875.77	26.5
2876.63	27
2877.48	28.5
2878.34	28.5
2879.19	33.5
2880.05	32
2880.9	31
2881.76	32.5
2882.61	33
2883.46	34
2884.32	35.5
2885.17	32
2886.02	31
2886.88	31
2887.73	39
2888.58	34.5
2889.44	38.5
2890.29	39.5
2891.14	41
2891.99	37
2892.85	39.5
2893.7	40.5
2894.55	40
2895.4	46.5
2896.25	46.5
2897.11	48
2897.96	48.5
2898.81	53
2899.66	52
2900.51	59
2901.36	55.5
2902.21	55.5
2903.07	60
2903.92	70.5
2904.77	64.5
2905.62	69.5
2906.47	60.5
2907.32	64
2908.17	69
2909.02	67
2909.87	62
2910.72	59.5
2911.57	61
2912.42	49.5
2913.27	48.5
2914.12	48.5
2914.97	45.5
2915.81	50
2916.66	39.5
2917.51	39.5
2918.36	39
2919.21	34.5
2920.06	32
2920.91	36
2921.75	33
2922.6	30.5
2923.45	35.5
2924.3	28.5
2925.15	35
2925.99	31.5
2926.84	34
2927.69	28
2928.54	28
2929.38	26
2930.23	27
2931.08	28
2931.92	29.5
2932.77	27.5
2933.62	28.5
2934.46	31
2935.31	29.5
2936.16	26.5
2937	29
2937.85	25
2938.69	26
2939.54	30.5
2940.38	28.5
2941.23	29
2942.08	29
2942.92	28.5
2943.77	25
2944.61	29
2945.46	28
2946.3	27
2947.15	29.5
2947.99	28
2948.83	29.5
2949.68	28.5
2950.52	28
2951.37	34
2952.21	32
2953.05	31
2953.9	32.5
2954.74	33.5
2955.58	32
2956.43	33
2957.27	34
2958.11	39.5
2958.96	38
2959.8	40
2960.64	36
2961.48	46
2962.33	38
2963.17	40.5
2964.01	41
2964.85	46.5
2965.69	42
2966.54	40.5
2967.38	45.5
2968.22	43.5
2969.06	37
2969.9	42
2970.74	37
2971.58	32.9951
2972.43	33.4714
2973.27	35.4924
2974.11	34.0665
2974.95	31.4582
2975.79	32.3665
2976.63	34.7128
2977.47	31.3295
2978.31	33.0552
2979.15	31.3051
2979.99	28.9841
2980.83	29.7274
2981.67	29.8626
2982.51	25.2417
2983.35	30.0504
2984.19	27.6418
2985.03	26.549
2985.86	24.1293
2986.7	25.6703
2987.54	25.8693
2988.38	27.5698
2989.22	26.3738
2990.06	25.2961
2990.9	24.1361
2991.73	24.2389
2992.57	26.1724
2993.41	25.0301
2994.25	25.2881
2995.09	25.1627
2995.92	24.7204
2996.76	27.1002
2997.6	25.97
2998.44	26.8129
2999.27	23.2937
3000.11	25.2953
3000.95	25.1865
3001.78	24.9016
3002.62	24.1941
3003.46	21.6513
3004.29	23.9847
3005.13	25.6168
3005.96	25.1869
3006.8	21.1739
3007.64	25.397
3008.47	23.2664
3009.31	19.4608
3010.14	20.2492
3010.98	23.6055
3011.81	22.399
3012.65	22.1371
3013.48	22.5705
3014.32	21.0889
3015.15	21.8534
3015.99	21.6494
3016.82	23.6414
3017.66	21.7211
3018.49	22.4741
3019.33	22.051
3020.16	24.7056
3020.99	24.5387
3021.83	22.8332
3022.66	22.8117
3023.5	21.4498
3024.33	22.2951
3025.16	24.1363
3026	21.624
3026.83	22.6769
3027.66	24.1133
3028.49	25.1866
3029.33	24.1823
3030.16	22.7917
3030.99	23.3875
3031.83	22.7256
3032.66	23.5
3033.49	24.193
3034.32	23.1284
3035.15	22.9809
3035.99	23.2268
3036.82	22.6849
3037.65	22.5188
3038.48	21.7704
3039.31	21.4147
3040.14	22.5032
3040.97	21.7869
3041.81	24.3062
3042.64	23.5857
3043.47	22.9382
3044.3	22.905
3045.13	23.6085
3045.96	24.4738
3046.79	24.5471
3047.62	22.9559
3048.45	20.6259
3049.28	23.939
3050.11	24.4072
3050.94	23.4709
3051.77	21.4909
3052.6	24.1067
3053.43	25.6603
3054.26	23.0982
3055.08	21.3966
3055.91	21.8011
3056.74	21.8888
3057.26	22.5
3058.09	23.5
3058.92	24
3059.76	25
3060.59	25
3061.42	22
3062.25	17
3063.09	21
3063.92	23.5
3064.75	22.5
3065.58	20.5
3066.42	24
3067.25	21.5
3068.08	23.5
3068.91	23.5
3069.74	24
3070.57	22
3071.41	24
3072.24	20.5
3073.07	24.5
3073.9	23
3074.73	22
3075.56	23.5
3076.39	23
3077.22	20
3078.05	25
3078.88	23
3079.71	22
3080.54	24
3081.37	23.5
3082.2	29.5
3083.03	23
3083.86	22
3084.69	27.5
3085.52	24.5
3086.35	26
3087.18	21.5
3088.01	22
3088.84	23.5
3089.67	22
3090.5	26
3091.32	23.5
3092.15	23
3092.98	21.5
3093.81	26.5
3094.64	22
3095.47	22.5
3096.29	22.5
3097.12	20.5
3097.95	25.5
3098.78	23
3099.6	25
3100.43	24.5
3101.26	24
3102.09	25.5
3102.91	19
3103.74	21.5
3104.57	25.5
3105.39	26
3106.22	22
3107.05	21.5
3107.87	24
3108.7	25
3109.52	26
3110.35	25.5
3111.18	22
3112	20
3112.83	22.5
3113.65	22
3114.48	21
3115.3	26
3116.13	19.5
3116.95	25
3117.78	22
3118.6	24
3119.43	24.5
3120.25	28
3121.08	20
3121.9	20
3122.72	26
3123.55	25
3124.37	23.5
3125.2	22
3126.02	21.5
3126.84	26
3127.67	20.5
3128.49	25.5
3129.31	27.5
3130.14	22.5
3130.96	23
3131.78	23.5
3132.61	26.5
3133.43	24
3134.25	21
3135.07	20
3135.89	26
3136.72	23.5
3137.54	24
3138.36	22.5
3139.18	22
3140	26
3140.83	22
3141.65	24.5
3142.47	23.5
3143.29	20
3144.11	22.5
3144.93	26
3145.75	26
3146.57	19
3147.4	19.5
3148.22	22
3149.04	25.5
3149.86	23.5
3150.68	22
3151.5	23
3152.32	24
3153.14	25.5
3153.96	23.5
3154.78	23
3155.59	23.5
3156.42	23
3157.23	24
3158.05	25
3158.87	17.5
3159.69	20
3160.51	23
3161.33	24.5
3162.15	26.5
3162.97	25.5
3163.78	23
3164.6	24.5
3165.42	22
3166.24	27
3167.06	26
3167.87	23
3168.69	18.5
3169.51	25.5
3170.33	21.5
3171.14	22
3171.96	22.5
3172.78	25.5
3173.6	25.5
3174.41	23.5
3175.23	22
3176.05	25.5
3176.86	26.5
3177.68	23.5
3178.5	24.5
3179.31	21
3180.13	23.5
3180.94	26
3181.76	23.5
3182.58	23
3183.39	23
3184.21	22.5
3185.02	24
3185.84	22.5
3186.65	24
3187.47	27
3188.28	22.5
3189.1	24
3189.91	19
3190.73	25
3191.54	25.5
3192.36	24
3193.17	27.5
3193.98	24.5
3194.8	24
3195.61	20
3196.43	26.5
3197.24	22.5
3198.05	24.5
3198.87	21.5
3199.68	23.5
3200.49	27
3201.31	21
3202.12	21.5
3202.93	22
3203.75	22.5
3204.56	25
3205.37	20.5
3206.18	24.5
3207	22.5
3207.81	23
3208.62	23.5
3209.43	21
3210.24	21
3211.06	22.5
3211.87	24.5
3212.68	21.5
3213.49	25.5
3214.3	23.5
3215.11	24.5
3215.92	21
3216.73	24
3217.55	24.5
3218.36	21
3219.17	25.5
3219.98	24
3220.79	21
3221.6	21.5
3222.41	28
3223.22	27
3224.03	23
3224.84	25
3225.65	21.5
3226.46	27
3227.27	23
3228.08	20
3228.89	25
3229.7	25
3230.5	23
3231.31	22.5
3232.12	24.5
3232.93	21.5
3233.74	22.5
3234.55	20.5
3235.36	23
3236.16	23.5
3236.97	22
3237.78	25
3238.59	27
3239.4	27
3240.2	23.5
3241.01	22
3241.82	25
3242.63	23
3243.43	23.5
3244.24	24
3245.05	20.5
3245.85	20
3246.66	26
3247.47	25
3248.27	23.5
3249.08	23.5
3249.89	23.5
3250.69	24
3251.5	23.5
3252.31	22
3253.11	25
3253.92	25.5
3254.72	23.5
3255.53	24
3256.33	22
3257.14	18
3257.94	26
3258.75	24.5
3259.55	27
3260.36	23.5
3261.16	21
3261.97	22.5
3262.77	19
3263.58	25.5
3264.38	21.5
3265.19	25
3265.99	26
3266.79	23.5
3267.6	24.5
3268.4	20
3269.21	25
3270.01	21
3270.81	23
3271.62	25.5
3272.42	24
3273.22	22.5
3274.03	22.5
3274.83	24.5
3275.63	22.5
3276.43	21.5
3277.24	25
3278.04	24.5
3278.84	28
3279.64	25.5
3280.45	20
3281.25	25
3282.05	23.5
3282.85	24.5
3283.65	24
3284.45	26
3285.26	19
3286.06	24
3286.86	24
3287.66	22.5
3288.46	28.5
3289.26	23
3290.06	22
3290.86	24
3291.66	24
3292.46	25
3293.26	25
3294.06	22
3294.86	21
3295.66	24.5
3296.46	24
3297.26	25
3298.06	23
3298.86	25.5
3299.66	20
3300.46	25
3301.26	27
3302.06	23.5
3302.86	21.5
3303.66	27
3304.46	22
3305.25	21
3306.05	22.5
3306.85	19
3307.65	22.5
3308.45	21.5
3309.25	21.5
3310.04	27.5
3310.84	21.5
3311.64	23.5
3312.44	24
3313.23	24
3314.03	26.5
3314.83	28.5
3315.63	23
3316.42	25
3317.22	24
3318.02	22
3318.81	25
3319.61	25.5
3320.41	22
3321.2	26
3322	21.5
3322.8	23.5
3323.59	25
3324.39	21.5
3325.18	25
3325.98	21.5
3326.78	25
3327.57	25
3328.37	23.5
3329.16	21
3329.96	25
3330.75	25
3331.55	21
3332.34	24.5
3333.14	23.5
3333.93	23
3334.73	21
3335.52	23.5
3336.31	22
3337.11	25
3337.9	23
3338.7	19
3339.49	23
3340.28	22
3341.08	26
3341.87	22
3342.66	26
3343.46	26.5
3344.25	23
3345.04	26
3345.84	24
3346.63	26
3347.42	24
3348.22	22
3349.01	22
3349.8	27
3350.59	21
3351.39	25.5
3352.18	23
3352.97	24
3353.76	29
3354.55	24.5
3355.35	26.5
3356.14	20
3356.93	26.5
3357.72	26
3358.51	24
3359.3	23.5
3360.09	24
3360.88	31
3361.67	26
3362.46	24.5
3363.26	22.5
3364.05	17
3364.84	25.5
3365.63	27
3366.42	28
3367.21	25
3368	26.5
3368.79	21
3369.58	24.5
3370.37	23
3371.15	24.5
3371.94	23
3372.73	26
3373.52	24
3374.31	23
3375.1	25.5
3375.89	24.5
3376.68	22
3377.47	26
3378.26	22
3379.04	23
3379.83	23
3380.62	26
3381.41	25.5
3382.2	22.5
3382.98	23.5
3383.77	27
3384.56	22
3385.35	27.5
3386.13	21.5
3386.92	22
3387.71	25.5
3388.5	24
3389.28	25
3390.07	25.5
3390.86	25.5
3391.64	22
3392.43	20
3393.22	23.5
3394	24
3394.79	26
3395.57	22.5
3396.36	24
3397.15	24
3397.93	22
3398.72	24.5
3399.5	23
3400.29	21.5
3401.07	26
3401.86	24
3402.65	22
3403.43	25
3404.21	21.5
3405	26.5
3405.78	27
3406.57	26
3407.35	26
3408.14	26
3408.92	23
3409.71	24
3410.49	23.5
3411.27	21
3412.06	24
3412.84	21
3413.62	23
3414.41	22
3415.19	25
3415.97	24
3416.76	25
3417.54	25
3418.32	20.5
3419.11	26
3419.89	26
3420.67	24
3421.46	25.5
3422.24	24.5
3423.02	26
3423.8	21
3424.58	24.5
3425.37	20.5
3426.15	24
3426.93	25
3427.71	26
3428.49	26
3429.27	25
3430.05	24.5
3430.84	23.5
3431.62	23
3432.4	23
3433.18	20
3433.96	25.5
3434.74	24.5
3435.52	23.5
3436.3	26.5
3437.08	28.5
3437.86	27
3438.64	24
3439.42	24
3440.2	24.5
3440.98	23
3441.76	25
3442.54	23.5
3443.32	24
3444.1	27
3444.88	25.5
3445.66	22.5
3446.44	24.5
3447.22	24.5
3448	25
3448.77	22.5
3449.55	28.5
3450.33	22
3451.11	25.5
3451.89	24
3452.67	23
3453.45	26.5
3454.22	23.5
3455	24.5
3455.78	29
3456.56	20
3457.33	25
3458.11	23
3458.89	26.5
3459.67	23.5
3460.44	21
3461.22	25
3462	23
3462.77	21
3463.55	22.5
3464.33	23
3465.1	20.5
3465.88	23
3466.66	21
3467.43	21
3468.21	22
3468.98	25
3469.76	27
3470.54	21.5
3471.31	24
3472.09	17
3472.86	22
3473.64	25.5
3474.41	24.5
3475.19	20
3475.96	25.5
3476.74	24.5
3477.51	25.5
3478.29	23.5
3479.06	27
3479.84	25.5
3480.61	23
3481.39	23.5
3482.16	24.5
3482.93	24.5
3483.71	25
3484.48	24.5
3485.25	24
3486.03	21
3486.8	25.5
3487.57	26
3488.35	26.5
3489.12	23
3489.89	24
3490.67	24
3491.44	25
3492.21	24
3492.99	24
3493.76	23
3494.53	20
3495.3	22
3496.08	21
3496.85	23.5
3497.62	24
3498.39	24
3499.16	25.5
3499.93	22
