#Acq. time (s)=	5
#Accumulations=	5
#Range (cm-ｹ)=	100...3500
#Windows=	4
#Autofocus=	Off
#AutoExposure=	Off
#Spike filter=	Multiple accum.
#Delay time (s)=	0
#Binning=	1
#Readout mode=	Signal
#DeNoise=	Off
#ICS correction=	Off
#Dark correction=	Off
#Inst. Process=	Off
#Instrument=	LabRAM HR Evol
#Detector=	Syncerity OE
#Objective=	x100_VIS
#Grating=	600 (500nm)
#ND Filter=	25%
#Laser=	633nm_Edge
#Hole=	100.021
#Range=	Visible
#Project=	verificaciones
#Sample=	at5
#Site=	lined
#Title=	bolusat5lined
#Remark=	
#Date=	13.01.2026 16:20
#Acquired=	13.01.2026 16:20:41
100.692	31.5
101.975	28
103.258	30
104.542	32.5
105.824	27
107.107	30.5
108.39	25
109.672	31.5
110.954	29
112.236	31
113.519	30
114.8	30
116.081	29.5
117.362	30
118.643	30
119.924	29
121.204	32.5
122.484	27.5
123.764	35
125.044	38.5
126.323	30
127.603	31
128.882	35
130.161	29
131.438	32
132.716	35.5
133.995	30.5
135.273	31.5
136.55	33.5
137.828	32
139.106	36
140.383	39
141.66	35.5
142.937	34.5
144.213	35.5
145.488	41
146.764	42
148.04	38.5
149.316	41.5
150.592	34
151.867	40
153.141	42
154.416	44
155.69	41
156.965	37.5
158.239	36
159.512	41.5
160.786	36.5
162.059	37.5
163.333	38.5
164.605	40.5
165.878	39
167.15	38
168.423	36
169.694	39
170.966	38
172.238	41
173.51	42.5
174.78	38
176.052	39
177.323	38
178.592	36.5
179.863	35
181.134	39
182.403	35.5
183.673	36
184.943	36
186.211	36
187.481	41.5
188.749	40.5
190.018	38
191.287	36.5
192.554	45
193.822	42
195.089	36.5
196.357	39
197.625	37.5
198.891	40
200.159	37.5
201.425	33
202.692	37.5
203.957	35.5
205.224	33
206.489	35
207.755	35
209.02	38
210.286	33
211.55	34
212.815	34
214.079	34
215.344	33.5
216.607	31
217.872	31
219.135	35.5
220.399	33.5
221.662	32.5
222.924	30.5
224.187	29.5
225.449	29.5
226.713	32
227.974	29
229.235	31
230.498	32
231.759	34.5
233.019	32.5
234.281	32
235.542	32.5
236.802	33
238.063	30.5
239.323	27
240.582	28.5
241.843	29
243.102	31
244.361	27.5
245.621	27
246.879	28
248.138	30
249.396	28
250.655	28
251.913	31.5
253.17	28.5
254.427	26
255.686	24.5
256.943	29.5
258.199	25.5
259.456	26
260.712	29
261.969	29
263.225	31
264.481	24.5
265.736	29.5
266.991	29
268.246	30.5
269.502	27.5
270.757	31
272.011	29.5
273.265	31.5
274.519	27
275.773	26
277.027	29.5
278.28	31
279.533	28.5
280.786	28.5
282.04	29.5
283.293	29.5
284.545	29
285.798	26.5
287.049	24
288.301	30
289.553	27
290.804	24.5
292.055	27
293.306	28
294.557	27
295.807	27
297.058	27
298.308	29
299.558	33
300.808	24
302.057	27
303.305	29
304.554	32
305.803	26
307.052	29
308.3	28.5
309.549	34.5
310.797	27.5
312.045	26
313.292	26.5
314.54	28
315.786	27
317.033	29.5
318.28	27
319.526	25.5
320.773	27.5
322.019	32.5
323.264	29.5
324.51	32.5
325.755	31.5
327.001	25.5
328.246	28.5
329.49	28.5
330.735	29
331.979	28
333.224	27
334.467	30
335.711	25
336.955	29
338.199	29
339.441	29.5
340.684	26.5
341.927	29
343.168	29.5
344.411	32
345.654	29
346.895	27
348.137	28
349.379	25
350.619	34.5
351.86	28.5
353.102	27
354.341	36.5
355.582	30.5
356.821	31.5
358.062	29.5
359.302	25.5
360.541	28.5
361.781	28.5
363.019	29
364.259	28
365.496	30
366.736	24
367.974	27.5
369.212	26
370.45	29
371.687	28
372.925	27
374.162	28
375.399	26
376.635	25
377.873	26.5
379.109	27
380.344	29.5
381.581	29
382.816	25
384.052	25
385.287	29
386.523	29
387.757	27
388.991	22.5
390.227	28
391.46	29.5
392.695	28.5
393.928	32
395.162	31
396.396	30
397.629	28.5
398.861	25.5
400.095	25
401.327	25.5
402.559	30
403.792	26.5
405.024	25
406.255	32.5
407.488	30.5
408.719	24
409.949	28.5
411.18	28.5
412.412	25.5
413.642	26
414.872	30
416.102	25.5
417.333	26.5
418.562	26.5
419.791	27
421.02	31
422.249	26
423.479	26
424.707	27
425.935	27
427.163	26
428.391	26.5
429.619	26
430.848	30.5
432.075	30.5
433.302	27
434.529	23
435.755	27.5
436.982	26.5
438.208	26
439.434	22.5
440.66	31
441.885	28
443.111	27
444.338	31
445.563	29
446.788	27.5
448.012	28
449.237	27
450.461	26.5
451.685	26.5
452.909	32.5
454.133	31
455.356	29
456.579	27
457.802	27.5
459.025	29
460.247	28.5
461.469	25.5
462.691	29
463.914	32
465.136	31
466.357	32
467.579	31
468.8	32
470.021	32.5
471.242	33.5
472.462	31
473.682	36
474.903	40
476.123	40
477.343	37
478.563	42
479.782	44.5
481	54
482.219	42
483.438	54
484.657	50.5
485.874	54
487.093	54.5
488.311	58
489.529	60
490.747	59
491.963	57.5
493.181	51.5
494.398	48
495.614	51
496.83	46.5
498.047	44.5
499.264	44
500.479	43.5
501.695	47
502.911	38.5
504.125	45
505.34	43
506.554	39
507.769	34
508.984	36
510.198	35.5
511.412	36.5
512.627	34.5
513.839	35.5
515.053	33
516.266	27
517.479	31.5
518.691	27
519.905	34.5
521.118	34
522.329	31.5
523.542	31.5
524.753	26.5
525.965	27
527.176	30.5
528.388	34
529.598	29.5
530.809	29.5
532.019	31
533.23	34.5
534.44	31
535.649	31
536.86	33
538.068	32
539.279	28
540.487	22.5
541.697	29.5
542.905	27.5
544.113	28
545.322	25
546.53	29.5
547.737	30.5
548.946	32.5
550.153	26
551.361	31
552.568	28
553.774	27.5
554.982	30.5
556.188	31
557.394	29
558.599	28
559.806	28
561.012	26.5
562.217	28
563.423	26.5
564.628	28
565.832	27
567.036	22.5
568.241	32.5
569.446	28
570.65	30.5
571.853	26
573.057	31.5
574.26	27
575.464	28
576.667	29.5
577.87	32.5
579.072	30.5
580.274	29
581.477	26.5
582.68	30
583.881	26
585.083	32
586.284	27
587.485	27.5
588.686	28
589.887	34.5
591.087	28
592.288	27
593.488	27.5
594.688	29.5
595.888	26.5
597.087	26.5
598.287	29
599.486	26
600.685	30.5
601.884	27.5
603.082	27.5
604.281	27.5
605.479	30.5
606.677	32
607.875	25.5
609.073	26
610.27	25.5
611.468	28
612.665	31
613.862	30
615.058	28.5
616.255	27
617.451	29
618.648	28.5
619.842	30
621.038	27
622.234	28
623.429	29
624.624	25.5
625.819	29
627.013	29.5
628.207	30.5
629.402	27.5
630.596	30.5
631.79	28
632.983	28.5
634.177	30
635.37	28
636.564	29
637.755	28.5
638.948	28.5
640.141	29
641.334	31.5
642.525	29.5
643.717	27
644.909	31.5
646.099	29
647.291	29
648.483	29.5
649.674	28
650.864	29
652.055	29.5
653.244	29
654.435	27.5
655.625	27
656.814	30
658.004	29.5
659.193	32.5
660.382	26.5
661.571	24.5
662.759	30.5
663.948	30.5
665.135	30
666.324	27.5
667.511	29
668.7	29
669.886	30.5
671.074	29
672.262	28.5
673.448	30.5
674.634	29
675.821	31
677.007	31
678.194	31
679.379	32
680.565	32.5
681.75	29
682.936	35
684.121	34
685.305	35
686.491	34.5
687.675	36
688.86	31.5
690.043	36.5
691.227	37
692.411	32
693.594	36.5
694.777	38
695.961	31
697.144	34.5
698.326	37
699.509	37
700.691	39.5
701.873	39.5
703.056	38.5
704.237	43
705.419	47.5
706.599	45.5
707.782	48.5
708.962	55.5
710.143	51
711.323	45.5
712.504	38
713.684	42.5
714.864	38.5
716.043	38.5
717.223	30
718.403	32
719.582	29.5
720.761	34
721.94	28
723.118	30
724.296	29
725.474	27
726.652	27.5
727.831	30
729.009	29
730.186	24.5
731.363	27.5
732.54	29
733.717	28
734.893	29
736.07	31.5
737.246	27
738.422	25
739.598	29.5
740.773	26
741.949	30
743.124	27
744.299	29
745.474	25
746.649	31.5
747.823	32
748.997	24
750.172	31
751.346	27.5
752.519	26
753.693	23
754.867	27
756.038	29
757.211	28
758.384	27
759.557	27.5
760.73	28.5
761.902	30
763.074	27
764.246	29
765.417	27.5
766.588	25.5
767.76	29
768.931	27.5
770.102	25
771.271	29.5
772.442	30.5
773.613	28
774.783	30.5
775.952	29
777.122	29.5
778.291	27
779.461	32.5
780.629	29.5
781.798	29
782.967	32
784.135	31.5
785.304	30
786.472	32
787.639	34.5
788.807	34
789.975	31
791.142	27
792.309	32
793.477	26.5
794.642	31
795.81	30.5
796.975	31.5
798.142	29.5
799.308	26
800.473	29
801.639	29
802.804	32
803.97	31.5
805.134	29
806.299	28.5
807.463	29
808.628	29.5
809.792	27
810.957	29.5
812.12	28
813.284	28
814.447	24.5
815.611	29.5
816.773	27
817.937	26
819.099	26.5
820.261	29
821.424	27
822.585	32
823.748	26.5
824.909	26
826.07	30
827.232	29
828.393	25
829.554	30
830.715	26.5
831.875	23
833.035	27
834.196	22
835.356	27.5
836.515	30.5
837.676	25.5
838.835	30
839.994	26
841.152	28
842.312	27
843.47	27
844.629	27.5
845.786	23.5
846.946	29.5
848.103	30
849.261	30.5
850.418	26.5
851.575	32
852.733	27
853.89	31.5
855.046	25.5
856.203	25.5
857.359	31.5
858.515	28.5
859.67	25.5
860.827	29.5
861.983	26
863.138	32
864.293	25
865.448	25
866.603	27.5
867.757	29
868.912	30.5
870.066	25
871.22	24.5
872.374	25.5
873.527	31
874.681	31
875.834	29.5
876.987	29
878.14	26.5
879.293	29
880.445	29
881.598	29.5
882.75	31
883.902	28
885.054	27
886.206	26
887.357	32.5
888.507	25.5
889.658	32
890.809	21.5
891.96	28.5
893.111	26
894.261	27.5
895.411	28.5
896.561	25.5
897.71	28
898.86	26.5
900.009	26
901.159	27
902.308	23.5
903.455	30
904.604	24
905.753	26
906.901	26.5
908.048	25.5
909.197	25
910.344	28
911.492	26
912.639	28
913.786	27
914.933	26.5
916.079	24.5
917.226	27.5
918.373	26.5
919.518	26
920.664	29.5
921.81	24.5
922.955	27
924.101	28
925.245	27
926.391	24.5
927.536	29.5
928.68	27
929.825	27
930.968	22
932.113	26
933.256	27
934.4	29
935.543	26.5
936.687	27
937.83	25
938.973	29
940.115	25
941.258	29
942.399	25.5
943.542	28
944.684	29.5
945.826	27
946.967	27
948.109	25.5
949.25	25
950.392	27
951.532	23
952.672	21
953.813	24
954.953	29.5
956.093	25.5
957.233	26.5
958.373	28
959.512	24
960.652	27
961.791	25
962.929	29
964.069	28
965.207	27.5
966.345	26.5
967.484	27.5
968.622	26
969.759	23.5
970.896	25.5
972.035	25.5
973.172	25
974.309	22
975.445	26
976.582	26
977.719	24
978.855	26
979.991	27
981.127	29
982.263	25.5
983.398	27
984.535	30
985.67	23
986.804	26
987.939	24.5
989.074	26
990.208	24.5
991.342	28.5
992.476	27.5
993.61	27
994.744	25
995.877	28
997.01	27
998.143	26
999.276	26
1000.41	27.5
1001.54	24
1002.67	30.5
1003.81	23
1004.94	30
1006.07	28
1007.2	23
1008.33	23
1009.47	30
1010.6	26
1011.73	29.5
1012.86	28
1013.99	26.5
1015.12	28
1016.25	25
1017.38	25
1018.51	27
1019.64	24
1020.77	27
1021.9	25
1023.03	24.5
1024.15	25
1025.28	29
1026.41	27
1027.54	26
1028.67	23
1029.8	26
1030.92	28
1032.05	23
1033.18	28
1034.31	23.5
1035.43	29
1036.56	29
1037.69	28.5
1038.81	26
1039.94	26
1041.07	28
1042.19	24.5
1043.32	20.5
1044.44	23.5
1045.57	24.5
1046.69	24
1047.82	24.5
1048.94	25
1050.07	28.5
1051.19	28.5
1052.32	25
1053.44	24.5
1054.57	24
1055.69	29.5
1056.81	22
1057.94	25
1059.06	24.5
1060.18	19
1061.31	28
1062.43	26
1063.55	28
1064.67	29.5
1065.8	27
1066.92	23.5
1068.04	26.5
1069.16	26
1070.28	23.5
1071.4	27
1072.52	26.5
1073.64	20
1074.76	32.5
1075.89	29
1077.01	28.5
1078.13	28
1079.25	27
1080.37	25.5
1081.49	23
1082.6	27
1083.72	24
1084.84	24.5
1085.96	26
1087.08	27
1088.2	28.5
1089.32	26
1090.43	20.5
1091.55	24
1092.67	25
1093.79	22
1094.91	23.5
1096.02	21
1097.14	25
1098.26	26
1099.37	26.5
1100.49	25.5
1101.61	23.5
1102.72	26.5
1103.84	22
1104.95	23
1106.07	25
1107.18	27.5
1108.3	27
1109.41	24.5
1110.53	28
1111.64	29
1112.76	25
1113.87	28
1114.99	26
1116.1	27.5
1117.21	24.5
1118.33	24.5
1119.44	26
1120.55	26.5
1121.67	24
1122.78	26.5
1123.89	26.5
1125	25
1126.12	25
1127.23	28.5
1128.34	27
1129.45	29
1130.56	28
1131.68	26.5
1132.79	23
1133.9	26
1135.01	24
1136.12	26.5
1137.23	23.5
1138.34	26.5
1139.45	22.5
1140.56	26.5
1141.67	24.5
1142.78	24
1143.89	25
1145	24.5
1146.11	26
1147.22	23.5
1148.32	23.5
1149.43	25
1150.54	26
1151.65	23
1152.76	26
1153.86	23.5
1154.97	26
1156.08	27.5
1157.19	27
1158.29	22.5
1159.4	29
1160.51	24
1161.61	25.5
1162.72	24.5
1163.83	26.5
1164.93	26
1166.04	26
1167.14	26
1168.25	23.5
1169.35	26
1170.46	25
1171.56	25
1172.67	26
1173.77	27
1174.88	25.5
1175.98	25.5
1177.08	24
1178.19	23.5
1179.29	24
1180.4	23
1181.5	24
1182.6	27.5
1183.71	26
1184.81	24.5
1185.91	25
1187.01	22.5
1188.12	22.5
1189.22	24
1190.32	26.5
1191.42	28
1192.52	26
1193.62	27
1194.72	24.0051
1195.83	20.0341
1196.93	24.0538
1198.03	24.1462
1199.13	20.744
1200.23	24.1897
1201.33	26.7616
1202.43	23.9002
1203.53	24.6115
1204.63	24.6822
1205.73	22.8809
1206.83	27.144
1207.92	22.245
1209.02	26.0711
1210.12	28.3872
1211.22	25.9355
1212.32	26.3206
1213.42	23.1828
1214.51	23.7306
1215.61	25.3374
1216.71	23.7132
1217.81	23.0596
1218.9	27.4778
1220	25.8237
1221.1	23.8453
1222.19	23.8224
1223.29	24.8514
1224.39	24.8325
1225.48	27.396
1226.58	24.3109
1227.68	22.2058
1228.77	24.8067
1229.87	21.5023
1230.96	25.7145
1232.06	25.2109
1233.15	25.6008
1234.25	22.2357
1235.34	24.2739
1236.43	24.6143
1237.53	22.671
1238.62	22.8116
1239.72	22.1254
1240.81	22.3648
1241.9	24.7513
1243	25.1291
1244.09	23.5443
1245.18	25.9987
1246.27	27.0562
1247.37	24.2078
1248.46	26.0032
1249.55	27.2134
1250.64	25.0766
1251.74	23.7271
1252.83	23.9355
1253.92	25.6116
1255.01	27.9181
1256.1	27.0893
1257.19	26.9991
1258.28	25.3086
1259.38	25.8866
1260.46	26.6305
1261.56	24.9
1262.65	25.9179
1263.74	28.6505
1264.82	27.3262
1265.91	24.9191
1267	26.5118
1268.09	24.5052
1269.18	27.0237
1270.27	23.4975
1271.36	25.7914
1272.45	22.758
1273.54	24.4592
1274.63	25.1881
1275.71	22.6215
1276.8	23.1224
1277.89	24.0439
1278.98	26.1389
1280.06	26.4004
1281.15	26.2441
1282.24	24.0613
1283.32	23.9393
1284.41	24.0816
1285.5	25.6738
1286.58	22.641
1287.67	23.6828
1288.76	25.1085
1289.84	25.6046
1290.93	27.2913
1292.01	22.7114
1293.1	21.5842
1294.18	24.5838
1295.27	23.431
1296.35	24.9014
1297.44	25.6828
1298.52	21.6309
1299.6	23.4058
1300.69	27.7447
1301.77	27.6348
1302.86	24.5501
1303.94	25.6541
1305.02	25.3509
1306.11	24.9976
1306.41	25
1307.5	25
1308.59	30
1309.68	26
1310.77	24.5
1311.85	25.5
1312.94	23
1314.03	26.5
1315.11	20.5
1316.2	27.5
1317.29	28
1318.37	23.5
1319.46	19.5
1320.55	23.5
1321.63	26
1322.72	23
1323.8	19
1324.89	22.5
1325.98	25.5
1327.06	26
1328.15	24.5
1329.23	23.5
1330.31	24
1331.4	27
1332.48	23.5
1333.57	27.5
1334.65	27
1335.74	23.5
1336.82	28.5
1337.9	26
1338.99	28
1340.07	22
1341.15	27.5
1342.24	23
1343.32	23.5
1344.4	29
1345.48	24
1346.56	24
1347.65	26.5
1348.73	25.5
1349.81	26
1350.89	24
1351.97	25.5
1353.05	24.5
1354.13	27.5
1355.21	24
1356.29	23.5
1357.37	19
1358.46	22.5
1359.54	23.5
1360.62	24
1361.69	25.5
1362.77	27.5
1363.85	25
1364.93	23.5
1366.01	25.5
1367.09	22.5
1368.17	24
1369.25	22.5
1370.33	23.5
1371.41	27
1372.48	23
1373.56	22.5
1374.64	25.5
1375.72	25.5
1376.79	27.5
1377.87	22.5
1378.95	24.5
1380.02	24
1381.1	25.5
1382.18	23.5
1383.25	26
1384.33	27.5
1385.4	27.5
1386.48	27
1387.56	25
1388.63	23.5
1389.71	25
1390.78	29
1391.86	28
1392.93	23
1394.01	27
1395.08	24.5
1396.15	29
1397.23	30
1398.3	31.5
1399.38	28.5
1400.45	28
1401.52	27.5
1402.6	31.5
1403.67	28.5
1404.74	27
1405.81	28.5
1406.89	32
1407.96	33
1409.03	28
1410.1	30
1411.17	31
1412.25	31
1413.32	32
1414.39	33.5
1415.46	32
1416.53	28
1417.6	31
1418.67	31
1419.74	26
1420.81	26
1421.88	24.5
1422.95	26
1424.02	25
1425.09	23
1426.16	28
1427.23	30.5
1428.3	27
1429.37	27
1430.44	29
1431.51	25
1432.58	25
1433.64	28
1434.71	25
1435.78	25
1436.85	29.5
1437.92	22.5
1438.98	26
1440.05	27.5
1441.12	25
1442.18	27
1443.25	28.5
1444.32	26
1445.38	24
1446.45	24.5
1447.52	28.5
1448.58	29
1449.65	25
1450.71	26
1451.78	26
1452.84	29
1453.91	28
1454.97	23
1456.04	23.5
1457.1	26
1458.17	19
1459.23	21
1460.3	29
1461.36	22
1462.42	27.5
1463.49	26
1464.55	26.5
1465.61	28
1466.68	25
1467.74	24
1468.8	24.5
1469.86	25
1470.93	26.5
1471.99	24
1473.05	28
1474.11	26.5
1475.17	25.5
1476.24	24
1477.3	23
1478.36	26
1479.42	25
1480.48	28
1481.54	29
1482.6	25.5
1483.66	24
1484.72	25
1485.78	28
1486.84	25.5
1487.9	24
1488.96	28.5
1490.02	27
1491.08	27.5
1492.14	24
1493.2	28
1494.26	28
1495.31	23.5
1496.37	30
1497.43	27
1498.49	25.5
1499.55	26
1500.6	26
1501.66	25
1502.72	24
1503.78	23.5
1504.83	26
1505.89	24
1506.95	25
1508	23
1509.06	24.5
1510.12	21
1511.17	27
1512.23	26.5
1513.28	25
1514.34	25.5
1515.39	26
1516.45	29
1517.5	23
1518.56	29.5
1519.61	28
1520.67	26
1521.72	24.5
1522.78	25.5
1523.83	28
1524.88	28
1525.94	25
1526.99	26
1528.05	29
1529.1	25
1530.15	29
1531.2	28.5
1532.26	29
1533.31	24.5
1534.36	27
1535.41	27
1536.47	28.5
1537.52	23
1538.57	23.5
1539.62	23
1540.67	24
1541.72	28
1542.77	26
1543.83	26
1544.88	26
1545.93	25.5
1546.98	23.5
1548.03	26
1549.08	26.5
1550.13	21.5
1551.18	28
1552.23	26.5
1553.28	30
1554.32	25
1555.37	28
1556.42	28
1557.47	25.5
1558.52	24
1559.57	29.5
1560.62	26.5
1561.67	27
1562.71	27
1563.76	29
1564.81	27.5
1565.86	27.5
1566.9	27.5
1567.95	29
1569	28.5
1570.04	28
1571.09	23
1572.14	27
1573.18	30
1574.23	28
1575.27	29
1576.32	25
1577.37	27.5
1578.41	23
1579.46	25
1580.5	22.5
1581.55	25
1582.59	23.5
1583.64	26
1584.68	25
1585.72	19.5
1586.77	28.5
1587.81	26.5
1588.86	23
1589.9	20
1590.94	28.5
1591.99	25.5
1593.03	26.5
1594.07	23
1595.12	28
1596.16	23
1597.2	22
1598.24	29
1599.29	25.5
1600.33	25
1601.37	25
1602.41	27.5
1603.45	26
1604.49	24
1605.53	24.5
1606.58	24
1607.62	23.5
1608.66	27
1609.7	25
1610.74	24
1611.78	24.5
1612.82	26
1613.86	26.5
1614.9	29
1615.94	26
1616.98	28.5
1618.02	27.5
1619.06	27.5
1620.09	24.5
1621.13	22.5
1622.17	27
1623.21	25.5
1624.25	25
1625.29	26
1626.32	25
1627.36	27
1628.4	27
1629.44	26.5
1630.47	24
1631.51	21
1632.55	28
1633.58	25
1634.62	26.5
1635.66	24.5
1636.69	27
1637.73	26
1638.77	26
1639.8	28
1640.84	28.5
1641.87	29.5
1642.91	25
1643.94	26
1644.98	25
1646.01	25.5
1647.05	27
1648.08	24.5
1649.12	25
1650.15	25
1651.18	26
1652.22	27.5
1653.25	25
1654.29	26.5
1655.32	26.5
1656.35	26.5
1657.39	31
1658.42	26.5
1659.45	27
1660.48	24.5
1661.52	24
1662.55	30
1663.58	23.5
1664.61	24.5
1665.64	24.5
1666.68	22
1667.71	21
1668.74	27
1669.77	26.5
1670.8	26.5
1671.83	23.5
1672.86	24
1673.89	23.5
1674.92	26.5
1675.95	27.5
1676.98	22
1678.01	25
1679.04	27.5
1680.07	23
1681.1	26
1682.13	28
1683.16	24.5
1684.19	26.5
1685.22	28.5
1686.25	29.5
1687.27	26
1688.3	27
1689.33	27.5
1690.36	24.5
1691.38	26
1692.41	25
1693.44	21
1694.47	25.5
1695.49	24.5
1696.52	27
1697.55	23.5
1698.57	26.5
1699.6	27.5
1700.63	25
1701.65	24
1702.68	25
1703.7	25.5
1704.73	24.5
1705.76	27
1706.78	24.5
1707.81	25.5
1708.83	25
1709.86	26
1710.88	27
1711.91	26.5
1712.93	24
1713.95	25
1714.98	23
1716	28
1717.03	26
1718.05	22.5
1719.07	24
1720.1	27.5
1721.12	24
1722.14	25.5
1723.16	25.5
1724.19	27
1725.21	25
1726.23	25.5
1727.25	27.5
1728.28	26
1729.3	25.5
1730.32	26
1731.34	26.5
1732.36	28.5
1733.38	25
1734.41	26
1735.43	29
1736.45	26
1737.47	24.5
1738.49	23.5
1739.51	25
1740.53	27.5
1741.55	23.5
1742.57	26
1743.59	28.5
1744.61	23.5
1745.63	29.5
1746.64	28.5
1747.66	24.5
1748.68	25
1749.7	26.5
1750.72	26
1751.74	27
1752.76	29.5
1753.77	28.5
1754.79	27
1755.81	25
1756.83	22
1757.84	25
1758.86	25
1759.88	25.5
1760.9	27
1761.91	25.5
1762.93	24
1763.95	27
1764.96	25
1765.98	24
1766.99	22
1768.01	26.5
1769.02	24
1770.04	24
1771.06	24
1772.07	25
1773.09	25.5
1774.1	27.5
1775.12	26
1776.13	26
1777.14	23.5
1778.16	23
1779.17	24
1780.19	29
1781.2	27
1782.21	25.5
1783.23	26
1784.24	21.5
1785.25	23
1786.27	24
1787.28	21
1788.29	24.5
1789.3	26
1790.32	26.5
1791.33	26.5
1792.34	21
1793.35	24.5
1794.36	24
1795.38	23.5
1796.39	29
1797.4	25.5
1798.41	28.5
1799.42	26
1800.43	24
1801.44	28.5
1802.45	22
1803.46	25.5
1804.47	28
1805.48	26
1806.49	25.5
1807.5	25
1808.51	28.5
1809.52	21.5
1810.53	27
1811.54	27
1812.55	22.5
1813.56	28
1814.57	24
1815.57	28
1816.58	23
1817.59	25
1818.6	23.5
1819.61	27
1820.61	28.5
1821.62	24
1822.63	23
1823.64	24
1824.64	25.5
1825.65	27
1826.66	25.5
1827.66	21
1828.67	26
1829.68	25
1830.68	24
1831.69	25.5
1832.69	25.5
1833.7	28.5
1834.7	24.5
1835.71	25
1836.71	26.5
1837.72	21.5
1838.72	26.5
1839.73	24.5
1840.73	26
1841.74	25.5
1842.74	22.5
1843.75	25
1844.75	26
1845.75	25.5
1846.76	25
1847.76	26
1848.76	26.5
1849.77	21.5
1850.77	30
1851.77	24
1852.78	27
1853.78	22
1854.78	29
1855.78	26.5
1856.78	22.5
1857.79	30.5
1858.79	27
1859.79	21.5
1860.79	27.5
1861.79	26.5
1862.79	28
1863.79	26.5
1864.79	28
1865.79	26.5
1866.8	22.5
1867.8	23.5
1868.8	27.5
1869.8	28
1870.8	23
1871.8	27.5
1872.8	27
1873.79	29
1874.79	19
1875.79	26
1876.79	23
1877.79	21.5
1878.79	27
1879.79	20.5
1880.79	27.5
1881.78	28.5
1882.78	25.5
1883.78	25
1884.78	25.5
1885.77	26.5
1886.77	26
1887.77	25.5
1888.77	24
1889.76	26
1890.76	22.5
1891.76	26.5
1892.75	23
1893.75	24.5
1894.75	25
1895.74	24
1896.74	22
1897.73	25
1898.73	28
1899.73	26.5
1900.72	27
1901.72	21
1902.71	27
1903.7	27
1904.7	24.5
1905.69	25.5
1906.69	26.5
1907.68	29
1908.68	27
1909.67	25
1910.66	21.5
1911.66	26
1912.65	26
1913.64	22.5
1914.64	23
1915.63	22
1916.62	25
1917.62	24
1918.61	25.5
1919.6	23
1920.59	27
1921.58	21
1922.58	21.5
1923.57	27
1924.56	24
1925.55	23.5
1926.54	27
1927.53	27.5
1928.52	23
1929.51	27
1930.51	25.5
1931.5	23
1932.49	28
1933.48	26
1934.47	24
1935.46	23
1936.45	23
1937.44	27.5
1938.42	23
1939.41	26
1940.4	21.5
1941.39	21.5
1942.38	25.5
1943.37	26
1944.36	27
1945.35	24.5
1946.33	20
1947.32	24
1948.31	25.25
1949.3	26.5
1950.29	22
1951.27	25.5
1952.26	22
1953.25	25.5
1954.23	24
1955.22	23
1956.21	20
1957.19	25
1958.18	29.5
1959.17	24.5
1960.15	25.5
1961.14	24.5
1962.13	23.5
1963.11	23.5
1964.1	22.5
1965.08	24.5
1966.07	26
1967.05	23
1968.04	23
1969.02	27
1970.01	21.5
1970.99	23.5
1971.97	27.5
1972.96	24.5
1973.94	26
1974.93	19
1975.91	25
1976.89	22.5
1977.88	27
1978.86	21.5
1979.84	25
1980.83	25
1981.81	28.5
1982.79	21.5
1983.77	26.5
1984.76	24.5
1985.74	24.5
1986.72	21
1987.7	25
1988.68	21
1989.67	24
1990.65	22.5
1991.63	25.5
1992.61	23
1993.59	26
1994.57	27
1995.55	26
1996.53	26
1997.51	26.5
1998.49	22.5
1999.47	24
2000.45	24
2001.43	24.5
2002.41	23
2003.39	21
2004.37	26
2005.35	25.5
2006.33	24.5
2007.31	27
2008.29	26.5
2009.26	25
2010.24	21
2011.22	22
2012.2	24.5
2013.18	25
2014.15	23.5
2015.13	23.5
2016.11	26
2017.09	26
2018.06	26
2019.04	25
2020.02	23.5
2021	23.5
2021.97	25.5
2022.95	27.5
2023.92	22.5
2024.9	19
2025.88	24
2026.85	24
2027.83	23
2028.8	25.5
2029.78	19
2030.75	23.5
2031.73	26
2032.7	24
2033.68	21.5
2034.65	26
2035.63	20.5
2036.6	22.5
2037.58	27
2038.55	28
2039.52	21.5
2040.5	26.5
2041.47	28.5
2042.45	25.5
2043.42	25.5
2044.39	22
2045.36	27
2046.34	22
2047.31	22.5
2048.28	25
2049.26	26
2050.23	27.5
2051.2	24
2052.17	24.5
2053.14	21.5
2054.12	24
2055.09	24
2056.06	18.5
2057.03	26
2058	25
2058.97	22.5
2059.94	24
2060.91	24.5
2061.88	23
2062.85	24
2063.82	24.5
2064.79	23.5
2065.76	21
2066.73	26
2067.7	26
2068.67	25.5
2069.64	25
2070.61	18
2071.58	23
2072.55	26
2073.52	25
2074.49	25.5
2075.45	19
2076.42	18.5
2077.39	25.5
2078.36	23
2079.33	23.5
2080.29	23
2081.26	24.5
2082.23	19
2083.2	22
2084.16	19.5
2085.13	26
2086.1	24
2087.06	24
2088.03	23
2089	25
2089.96	24.5
2090.93	24
2091.89	21
2092.86	23
2093.83	23.5
2094.79	21
2095.76	26
2096.72	24.5
2097.69	22
2098.65	23
2099.62	26.5
2100.58	23.5
2101.55	26
2102.51	21
2103.47	19.5
2104.44	25.5
2105.4	23
2106.36	24
2107.33	26.5
2108.29	26.5
2109.25	27
2110.22	22.5
2111.18	26.5
2112.14	26.5
2113.11	22.5
2114.07	25.5
2115.03	25.5
2115.99	19.5
2116.96	24
2117.92	24.5
2118.88	21
2119.84	25
2120.8	23.5
2121.76	26
2122.72	24.5
2123.68	27
2124.65	22.5
2125.61	23.5
2126.57	23
2127.53	22.5
2128.49	22.5
2129.45	24
2130.41	24
2131.37	22.5
2132.33	24
2133.29	24
2134.25	23.5
2135.21	25
2136.17	24
2137.12	24.5
2138.08	25.5
2139.04	26
2140	22.5
2140.96	22
2141.92	25
2142.88	21.5076
2143.83	22.4666
2144.79	22.4946
2145.75	25.8842
2146.71	22.4621
2147.66	21.0186
2148.62	24.2411
2149.58	20.6455
2150.53	22.906
2151.49	22.2528
2152.45	23.6559
2153.4	20.8092
2154.36	25.1635
2155.32	22.1676
2156.27	24.2032
2157.23	23.7307
2158.19	20.8675
2159.14	25.3887
2160.1	21.4336
2161.05	25.1616
2162.01	23.2175
2162.96	22.4086
2163.92	22.9292
2164.87	23.2503
2165.83	21.6152
2166.78	22.0147
2167.73	23.7862
2168.69	23.0524
2169.64	22.5412
2170.6	25.0602
2171.55	23.5235
2172.5	22.1728
2173.46	24.3491
2174.41	23.6102
2175.36	23.6699
2176.32	24.2309
2177.27	22
2178.22	22.3361
2179.18	20.3259
2180.13	24.1985
2181.08	25.6408
2182.03	23.4448
2182.98	21.9684
2183.94	24.3563
2184.89	24.284
2185.84	21.9154
2186.79	22.103
2187.74	22.1847
2188.69	19.3902
2189.64	18.3629
2190.6	23.0071
2191.55	25.2278
2192.5	23.4788
2193.45	22.2541
2194.4	22.3263
2195.35	23.0585
2196.3	21.4889
2197.25	23.2732
2198.2	22.4391
2199.15	23.6365
2200.1	22.9335
2201.04	21.737
2201.99	24.6305
2202.94	24.3083
2203.89	22.5363
2204.84	22.1279
2205.79	21.5984
2206.74	22.6379
2207.69	22.5197
2208.63	20.6145
2209.58	22.4837
2210.53	21.7953
2211.48	22.0279
2212.43	21.584
2213.37	23.1166
2214.32	24.7879
2215.27	23.1185
2216.21	24.7274
2217.16	24.0325
2218.11	24.726
2219.05	23.7981
2220	22.2204
2220.95	18.717
2221.89	23.5006
2222.84	22.2573
2223.78	24.1711
2224.73	22.0501
2225.68	24.927
2226.62	24.4989
2227.57	24.6653
2228.51	24.4552
2229.46	23.9442
2230.4	23.002
2231.35	22.8228
2232.29	22.5842
2233.24	24.3742
2234.18	24.9053
2235.12	23.6639
2236.07	23.5218
2237.01	24.5634
2237.95	21.4509
2238.9	21.3163
2239.84	20.7298
2240.06	20.5
2241.01	17
2241.96	20
2242.91	21
2243.86	24.5
2244.8	20.5
2245.75	22
2246.7	20.5
2247.65	22.5
2248.59	24
2249.54	23
2250.49	20
2251.43	21
2252.38	19
2253.33	23.5
2254.27	22.5
2255.22	20.5
2256.16	21
2257.11	24
2258.06	20
2259	22.5
2259.95	22
2260.89	26
2261.84	25
2262.78	23
2263.73	24.5
2264.67	25
2265.62	23
2266.56	23
2267.5	22
2268.45	26
2269.39	18.5
2270.34	22.5
2271.28	21
2272.22	24
2273.17	18.5
2274.11	23
2275.05	24
2276	23.5
2276.94	22
2277.88	24
2278.82	24.5
2279.77	25
2280.71	24
2281.65	26
2282.59	22.5
2283.53	23
2284.48	24
2285.42	27
2286.36	21
2287.3	22.5
2288.24	22
2289.18	19.5
2290.12	25
2291.06	21
2292	21.5
2292.94	22.5
2293.89	25
2294.83	23
2295.77	25
2296.71	21
2297.65	24.5
2298.58	22
2299.52	22.5
2300.46	23.5
2301.4	24.5
2302.34	26.5
2303.28	24
2304.22	23
2305.16	22
2306.1	23.5
2307.03	21
2307.97	23
2308.91	22
2309.85	21.5
2310.79	23.5
2311.72	25
2312.66	25.5
2313.6	21
2314.54	22
2315.47	23.5
2316.41	22.5
2317.35	22
2318.28	20
2319.22	25.5
2320.16	23
2321.09	25
2322.03	22.5
2322.96	21.5
2323.9	26
2324.84	25.5
2325.77	23.5
2326.71	23.5
2327.64	22
2328.58	23
2329.51	27
2330.45	23.5
2331.38	18
2332.32	28
2333.25	26.5
2334.18	26
2335.12	25
2336.05	21.5
2336.99	22
2337.92	23
2338.85	20.5
2339.79	21
2340.72	24
2341.65	24
2342.59	25
2343.52	26.5
2344.45	23
2345.39	26
2346.32	22
2347.25	27
2348.18	21
2349.11	24.5
2350.05	26
2350.98	23
2351.91	23
2352.84	24
2353.77	19.5
2354.7	23.5
2355.64	27
2356.57	27.5
2357.5	28
2358.43	26.5
2359.36	23
2360.29	18.5
2361.22	27
2362.15	25.5
2363.08	24
2364.01	24.5
2364.94	23
2365.87	23
2366.8	24.5
2367.73	26
2368.66	26.5
2369.58	24
2370.51	21
2371.44	22.5
2372.37	22
2373.3	25.5
2374.23	22.5
2375.16	23
2376.08	22
2377.01	23
2377.94	24
2378.87	24.5
2379.8	18.5
2380.72	23
2381.65	22
2382.58	23.5
2383.5	24.5
2384.43	28
2385.36	20.5
2386.28	27
2387.21	23.5
2388.14	24
2389.06	24.5
2389.99	22.5
2390.91	21.5
2391.84	23
2392.77	24
2393.69	20.5
2394.62	21
2395.54	24
2396.47	26
2397.39	25
2398.32	27
2399.24	22
2400.16	23
2401.09	21.5
2402.01	25
2402.94	23.5
2403.86	24
2404.78	29.5
2405.71	22.5
2406.63	21
2407.56	27.5
2408.48	21
2409.4	20
2410.32	22
2411.25	21
2412.17	22
2413.09	26.5
2414.02	22
2414.94	24
2415.86	22.5
2416.78	21.5
2417.7	25
2418.63	21
2419.55	24.5
2420.47	25
2421.39	24.5
2422.31	25.5
2423.23	27.5
2424.15	23.5
2425.07	20.5
2425.99	23.5
2426.92	24
2427.84	20.5
2428.76	22
2429.68	22.5
2430.59	26
2431.51	24
2432.43	22
2433.35	25.5
2434.27	23.5
2435.19	23
2436.11	24
2437.03	23.5
2437.95	24
2438.87	22
2439.79	21.5
2440.71	27.5
2441.62	23.5
2442.54	23
2443.46	25
2444.38	22.5
2445.3	21.5
2446.21	24
2447.13	23
2448.05	27
2448.97	24
2449.88	24.5
2450.8	20
2451.72	24.5
2452.63	19
2453.55	22
2454.47	22.5
2455.38	21
2456.3	24
2457.21	22
2458.13	26
2459.05	21
2459.96	25.5
2460.88	23
2461.79	20.5
2462.71	24.5
2463.62	24.5
2464.54	25
2465.45	24.5
2466.37	25
2467.28	24.5
2468.2	25.5
2469.11	25
2470.02	22.5
2470.94	23
2471.85	21.5
2472.77	27
2473.68	25.5
2474.59	24
2475.51	24.5
2476.42	22
2477.33	25
2478.25	22.5
2479.16	27.5
2480.07	22
2480.98	21
2481.9	24.5
2482.81	26
2483.72	23
2484.63	25
2485.55	24.5
2486.46	24.5
2487.37	21.5
2488.28	25
2489.19	24.5
2490.1	23.5
2491.01	23
2491.92	24.5
2492.83	24.5
2493.74	29.5
2494.66	20.5
2495.57	25
2496.48	24
2497.39	23.5
2498.3	29.5
2499.21	27
2500.12	23.5
2501.03	22.5
2501.93	26
2502.84	27.5
2503.75	22
2504.66	25
2505.57	23.5
2506.48	24.5
2507.39	28
2508.3	27
2509.21	22
2510.11	27
2511.02	24.5
2511.93	27.5
2512.84	25.5
2513.75	26
2514.65	25
2515.56	20
2516.47	22
2517.37	27.5
2518.28	21.5
2519.19	22
2520.09	23
2521	24
2521.91	25.5
2522.81	23
2523.72	22
2524.63	23.5
2525.53	25.5
2526.44	23
2527.34	28
2528.25	24
2529.16	22.5
2530.06	29
2530.97	25.5
2531.87	25
2532.78	28
2533.68	24.5
2534.58	24
2535.49	23
2536.39	27.5
2537.3	25
2538.2	24
2539.11	21
2540.01	24.5
2540.91	28.5
2541.82	23
2542.72	25
2543.62	26
2544.53	26
2545.43	23
2546.33	22.5
2547.23	26
2548.14	22
2549.04	25
2549.94	24
2550.84	24.5
2551.75	21.5
2552.65	20.5
2553.55	24.5
2554.45	24
2555.35	25
2556.26	28
2557.16	27
2558.06	27
2558.96	24
2559.86	24.5
2560.76	24.5
2561.66	26
2562.56	25
2563.46	27
2564.36	25
2565.26	27.5
2566.16	24
2567.06	22.5
2567.96	20
2568.86	27.5
2569.76	29.5
2570.66	22.5
2571.56	27
2572.46	21.5
2573.36	28
2574.26	21.5
2575.16	24
2576.05	24.5
2576.95	26.5
2577.85	25
2578.75	25.5
2579.65	21
2580.54	25
2581.44	26
2582.34	23
2583.24	27.5
2584.13	24.5
2585.03	27
2585.93	25
2586.83	25.5
2587.72	24
2588.62	22.5
2589.52	25
2590.41	23.5
2591.31	26.5
2592.2	25.5
2593.1	21.5
2594	24.5
2594.89	24.5
2595.79	23
2596.68	25
2597.58	21.5
2598.47	24.5
2599.37	22.5
2600.26	22
2601.16	25.5
2602.05	25.5
2602.95	21.5
2603.84	25.5
2604.74	23
2605.63	22.5
2606.52	25.5
2607.42	23
2608.31	25
2609.21	24
2610.1	23.5
2610.99	22
2611.89	23
2612.78	25.5
2613.67	26.5
2614.56	22
2615.46	23.5
2616.35	19
2617.24	24.5
2618.13	22
2619.03	28
2619.92	25.5
2620.81	26
2621.7	23
2622.59	22.5
2623.49	24
2624.38	24.5
2625.27	25
2626.16	22.5
2627.05	25
2627.94	22
2628.83	27.5
2629.72	27
2630.61	28
2631.5	25.5
2632.39	26
2633.28	24.5
2634.17	23
2635.06	27.5
2635.95	27.5
2636.84	26
2637.73	24
2638.62	23.5
2639.51	24
2640.4	25
2641.29	23
2642.18	23
2643.07	26
2643.96	28
2644.84	21
2645.73	26
2646.62	29
2647.51	26.5
2648.4	25
2649.28	22
2650.17	23
2651.06	24
2651.95	24.5
2652.83	26
2653.72	24.5
2654.61	30
2655.49	25
2656.38	25
2657.27	24.5
2658.16	28
2659.04	27
2659.93	23.5
2660.81	25
2661.7	24
2662.59	28
2663.47	21
2664.36	23
2665.24	27.5
2666.13	24.5
2667.01	24
2667.9	25
2668.78	27
2669.67	25
2670.55	23.5
2671.44	24
2672.32	25
2673.21	25
2674.09	26
2674.97	25
2675.86	24.5
2676.74	26
2677.62	25
2678.51	23
2679.39	23
2680.27	24
2681.16	27.5
2682.04	23
2682.92	25
2683.81	19
2684.69	27
2685.57	23.5
2686.45	25.5
2687.34	21.5
2688.22	26
2689.1	25.5
2689.98	26
2690.86	20.5
2691.75	25.5
2692.63	23.5
2693.51	25.5
2694.39	20
2695.27	21
2696.15	25
2697.03	26.5
2697.91	24
2698.79	27
2699.67	24.5
2700.55	24
2701.43	21.5
2702.31	25
2703.19	32
2704.07	26.5
2704.95	23.5
2705.83	24
2706.71	23.5
2707.59	18.5
2708.47	27.5
2709.35	24.5
2710.23	26
2711.11	24
2711.99	24
2712.86	23
2713.74	27
2714.62	23
2715.5	25.5
2716.38	22
2717.26	29
2718.13	28.5
2719.01	29
2719.89	20
2720.77	24
2721.64	21.5
2722.52	23
2723.4	24.5
2724.27	29
2725.15	22.5
2726.03	25
2726.9	23
2727.78	25.5
2728.66	23.5
2729.53	25
2730.41	24
2731.28	28.5
2732.16	28.5
2733.03	30
2733.91	27
2734.79	27
2735.66	22.5
2736.54	27
2737.41	23
2738.29	21
2739.16	26
2740.03	22.5
2740.91	30
2741.78	21
2742.66	24
2743.53	24
2744.41	26
2745.28	22
2746.15	26
2747.03	24.5
2747.9	22.5
2748.77	25.5
2749.65	23
2750.52	28.5
2751.39	22.5
2752.27	21.5
2753.14	22.5
2754.01	22.5
2754.88	21.5
2755.75	26
2756.63	25.5
2757.5	23
2758.37	25.5
2759.24	23.5
2760.11	28
2760.99	25.5
2761.86	21
2762.73	22
2763.6	22.5
2764.47	25
2765.34	26
2766.21	22
2767.08	22.5
2767.95	25.5
2768.82	24
2769.69	25
2770.56	22.5
2771.43	23.5
2772.3	23
2773.17	27.5
2774.04	23
2774.91	26
2775.78	25.5
2776.65	23
2777.52	25.5
2778.39	21.5
2779.26	27.5
2780.13	24.5
2780.99	22
2781.86	26
2782.73	24
2783.6	25
2784.47	25.5
2785.34	27
2786.2	25
2787.07	27.5
2787.94	23
2788.81	27.5
2789.67	26
2790.54	28.5
2791.41	22
2792.27	26
2793.14	24.5
2794.01	23.5
2794.87	26
2795.74	26.5
2796.61	28.5
2797.47	25.5
2798.34	23.5
2799.21	23.5
2800.07	20.5
2800.94	22.25
2801.8	23.5
2802.67	27
2803.53	23.5
2804.4	23
2805.26	24
2806.13	27
2806.99	27.5
2807.86	25
2808.72	26
2809.59	30
2810.45	27.5
2811.32	26.5
2812.18	27.5
2813.04	26
2813.91	26
2814.77	25
2815.64	29.5
2816.5	25.5
2817.36	28
2818.22	29
2819.09	25.5
2819.95	27.5
2820.81	23.5
2821.68	28
2822.54	24
2823.4	21.5
2824.26	22.5
2825.13	28
2825.99	22.5
2826.85	27
2827.71	25.5
2828.57	28
2829.44	28
2830.3	22.5
2831.16	26.5
2832.02	27.5
2832.88	22
2833.74	27
2834.6	24.5
2835.46	24
2836.32	22
2837.18	23.5
2838.04	28
2838.9	27
2839.76	25.5
2840.62	24
2841.48	26.5
2842.34	25
2843.2	22
2844.06	26.5
2844.92	23.5
2845.78	27
2846.64	25
2847.5	27.5
2848.36	22.5
2849.22	28
2850.08	24.5
2850.93	27
2851.79	25.5
2852.65	24
2853.51	26
2854.37	24.5
2855.22	26
2856.08	26
2856.94	23.5
2857.8	25
2858.65	27
2859.51	25
2860.37	27.5
2861.23	26
2862.08	25.5
2862.94	26
2863.79	24.5
2864.65	25.5
2865.51	24.5
2866.36	23
2867.22	26
2868.08	29
2868.93	26.5
2869.79	28.5
2870.64	26.5
2871.5	25
2872.35	28.5
2873.21	30
2874.06	31
2874.92	27
2875.77	29.5
2876.63	31.5
2877.48	30
2878.34	31
2879.19	28
2880.05	31
2880.9	31.5
2881.76	30
2882.61	30.5
2883.46	29.5
2884.32	34
2885.17	32.5
2886.02	32.5
2886.88	35
2887.73	33.5
2888.58	33
2889.44	36
2890.29	36
2891.14	41.5
2891.99	40
2892.85	39.5
2893.7	41
2894.55	46
2895.4	48.5
2896.25	45
2897.11	50
2897.96	49.5
2898.81	52
2899.66	55.5
2900.51	58
2901.36	62.5
2902.21	64
2903.07	68
2903.92	68
2904.77	75
2905.62	64
2906.47	66.5
2907.32	66.5
2908.17	64
2909.02	62.5
2909.87	60
2910.72	57.5
2911.57	58.5
2912.42	53.5
2913.27	56
2914.12	47.5
2914.97	50
2915.81	41.5
2916.66	39
2917.51	42
2918.36	40
2919.21	37
2920.06	39.5
2920.91	43
2921.75	33.5
2922.6	32
2923.45	32.5
2924.3	31.5
2925.15	30.5
2925.99	29.5
2926.84	28
2927.69	30
2928.54	30.5
2929.38	31
2930.23	29.5
2931.08	28
2931.92	26
2932.77	33
2933.62	27.5
2934.46	27
2935.31	29
2936.16	28.5
2937	27
2937.85	26.5
2938.69	28.5
2939.54	26
2940.38	28
2941.23	29
2942.08	28.5
2942.92	29.5
2943.77	25
2944.61	25
2945.46	29
2946.3	29
2947.15	28.5
2947.99	31.5
2948.83	33
2949.68	29.5
2950.52	28.5
2951.37	29
2952.21	31
2953.05	33.5
2953.9	31
2954.74	29.5
2955.58	33.5
2956.43	34
2957.27	36
2958.11	35.5
2958.96	37
2959.8	39.5
2960.64	35.5
2961.48	39
2962.33	43
2963.17	41.5
2964.01	38
2964.85	48.5
2965.69	43.5
2966.54	41
2967.38	40
2968.22	39.5
2969.06	42.5
2969.9	39.5
2970.74	39
2971.58	34.9927
2972.43	31.5156
2973.27	33.6435
2974.11	33.129
2974.95	34.488
2975.79	34.5699
2976.63	33.6156
2977.47	30.6032
2978.31	31.1972
2979.15	25.4987
2979.99	26.8568
2980.83	26.1539
2981.67	28.318
2982.51	27.0565
2983.35	26.6336
2984.19	25.4539
2985.03	27.852
2985.86	26.1564
2986.7	29.1878
2987.54	23.9865
2988.38	27.3445
2989.22	25.1143
2990.06	26.203
2990.9	26.5003
2991.73	26.712
2992.57	25.4848
2993.41	24.125
2994.25	24.4227
2995.09	25.4466
2995.92	25.3158
2996.76	26.6588
2997.6	23.9635
2998.44	25.5565
2999.27	24.4919
3000.11	23.7439
3000.95	22.4274
3001.78	24.8975
3002.62	25.9316
3003.46	22.1353
3004.29	22.9396
3005.13	21.8275
3005.96	23.3353
3006.8	22.3346
3007.64	25.4204
3008.47	24.95
3009.31	24.5799
3010.14	24.5427
3010.98	27.4079
3011.81	25.4902
3012.65	26.0025
3013.48	21.9515
3014.32	26.4111
3015.15	22.3006
3015.99	22.3372
3016.82	24.6238
3017.66	23.0419
3018.49	22.5056
3019.33	23.4296
3020.16	22.3161
3020.99	23.1428
3021.83	20.6432
3022.66	21.4723
3023.5	25.64
3024.33	22.7034
3025.16	22.2266
3026	23.9921
3026.83	25.187
3027.66	23.6804
3028.49	23.5
3029.33	23.2553
3030.16	22.5165
3030.99	24.5772
3031.83	22.8633
3032.66	23.4797
3033.49	23.9706
3034.32	20.984
3035.15	19.7763
3035.99	22.2048
3036.82	24.0129
3037.65	22.0042
3038.48	21.2042
3039.31	21.4044
3040.14	23.8757
3040.97	24.1693
3041.81	23.7467
3042.64	21.7461
3043.47	22.2061
3044.3	22.7289
3045.13	22.5
3045.96	22.8296
3046.79	23.1205
3047.62	21.958
3048.45	20.996
3049.28	22.1696
3050.11	23.9447
3050.94	24.6933
3051.77	23.0316
3052.6	24.165
3053.43	24.2114
3054.26	22.7719
3055.08	23.4354
3055.91	20.9164
3056.74	21.2043
3057.26	25.5
3058.09	20
3058.92	23
3059.76	20.5
3060.59	20.5
3061.42	25
3062.25	20
3063.09	22.5
3063.92	25
3064.75	26.5
3065.58	24
3066.42	23
3067.25	20
3068.08	25
3068.91	24
3069.74	23
3070.57	26
3071.41	25.5
3072.24	22
3073.07	25
3073.9	24
3074.73	26
3075.56	18.5
3076.39	24
3077.22	23
3078.05	24
3078.88	20.5
3079.71	26
3080.54	22
3081.37	24.5
3082.2	27
3083.03	20
3083.86	24
3084.69	27.5
3085.52	24.5
3086.35	23
3087.18	19
3088.01	26
3088.84	26.5
3089.67	28.5
3090.5	25.5
3091.32	18
3092.15	21
3092.98	25
3093.81	23.5
3094.64	21
3095.47	25.5
3096.29	23.5
3097.12	26.5
3097.95	22
3098.78	25
3099.6	25
3100.43	24
3101.26	24
3102.09	21
3102.91	24.5
3103.74	26
3104.57	22.5
3105.39	27
3106.22	22
3107.05	24
3107.87	24
3108.7	23.5
3109.52	20
3110.35	22
3111.18	22.5
3112	21
3112.83	24
3113.65	26
3114.48	22
3115.3	21.5
3116.13	22.5
3116.95	23
3117.78	27.5
3118.6	24.5
3119.43	27
3120.25	20.5
3121.08	24
3121.9	25
3122.72	25
3123.55	21.5
3124.37	22
3125.2	24
3126.02	22
3126.84	23
3127.67	24.5
3128.49	24
3129.31	28
3130.14	22.5
3130.96	20
3131.78	19
3132.61	24
3133.43	22
3134.25	30
3135.07	23.5
3135.89	24
3136.72	21.5
3137.54	22
3138.36	22.5
3139.18	23.5
3140	24.5
3140.83	23.5
3141.65	25.5
3142.47	23.5
3143.29	24.5
3144.11	22
3144.93	21.5
3145.75	21.5
3146.57	27.5
3147.4	26.5
3148.22	21
3149.04	23.5
3149.86	21.5
3150.68	22
3151.5	22.5
3152.32	21.5
3153.14	23
3153.96	24
3154.78	24
3155.59	22.5
3156.42	23
3157.23	25
3158.05	25
3158.87	24.5
3159.69	28.5
3160.51	22
3161.33	23
3162.15	21
3162.97	26.5
3163.78	28.5
3164.6	22
3165.42	24.5
3166.24	21.5
3167.06	22
3167.87	25
3168.69	25.5
3169.51	20.5
3170.33	20.5
3171.14	23
3171.96	26
3172.78	17
3173.6	23.5
3174.41	22.5
3175.23	19.5
3176.05	21.5
3176.86	21.5
3177.68	23
3178.5	24.5
3179.31	29.5
3180.13	24.5
3180.94	21
3181.76	26
3182.58	23
3183.39	23
3184.21	22.5
3185.02	26.5
3185.84	20.5
3186.65	24.5
3187.47	22
3188.28	24.5
3189.1	26
3189.91	24.5
3190.73	24
3191.54	21
3192.36	26
3193.17	24.5
3193.98	23
3194.8	24
3195.61	23
3196.43	24.5
3197.24	24
3198.05	24
3198.87	22
3199.68	22.5
3200.49	20
3201.31	24
3202.12	23
3202.93	26.5
3203.75	26.5
3204.56	24
3205.37	27
3206.18	20.5
3207	23
3207.81	21
3208.62	23
3209.43	22
3210.24	25.5
3211.06	22.5
3211.87	25
3212.68	21.5
3213.49	23.5
3214.3	24
3215.11	24.5
3215.92	24.5
3216.73	24.5
3217.55	24.5
3218.36	25.5
3219.17	23.5
3219.98	23.5
3220.79	26.5
3221.6	23.5
3222.41	26
3223.22	26
3224.03	27
3224.84	21
3225.65	26.5
3226.46	23
3227.27	26
3228.08	23.5
3228.89	24.5
3229.7	25
3230.5	25
3231.31	22
3232.12	23.5
3232.93	22
3233.74	32
3234.55	24
3235.36	24.5
3236.16	24.5
3236.97	25.5
3237.78	22
3238.59	23
3239.4	22
3240.2	28.5
3241.01	28
3241.82	22
3242.63	21
3243.43	24
3244.24	22.5
3245.05	26.5
3245.85	22
3246.66	20
3247.47	21
3248.27	24.5
3249.08	22
3249.89	21
3250.69	30
3251.5	24
3252.31	25.5
3253.11	26.5
3253.92	21
3254.72	25
3255.53	28.5
3256.33	23.5
3257.14	25.5
3257.94	20
3258.75	23.5
3259.55	24
3260.36	25.5
3261.16	25.5
3261.97	26
3262.77	28
3263.58	23
3264.38	25.5
3265.19	23.5
3265.99	24
3266.79	24
3267.6	22.5
3268.4	25.5
3269.21	25
3270.01	24
3270.81	25
3271.62	25
3272.42	24.5
3273.22	24.5
3274.03	26
3274.83	24
3275.63	22.5
3276.43	22
3277.24	24
3278.04	26.5
3278.84	23.5
3279.64	22.5
3280.45	22.5
3281.25	24
3282.05	27
3282.85	25.5
3283.65	21.5
3284.45	23
3285.26	24.5
3286.06	24.5
3286.86	27.5
3287.66	25.5
3288.46	23
3289.26	23.5
3290.06	23.5
3290.86	22.5
3291.66	22
3292.46	26
3293.26	25.5
3294.06	22.5
3294.86	28
3295.66	25.5
3296.46	28
3297.26	24.5
3298.06	23.5
3298.86	23
3299.66	25.5
3300.46	27
3301.26	25
3302.06	26.5
3302.86	22.5
3303.66	22.5
3304.46	25
3305.25	19.5
3306.05	20.5
3306.85	24
3307.65	24
3308.45	27
3309.25	22
3310.04	26.5
3310.84	22.5
3311.64	24.5
3312.44	23.5
3313.23	24
3314.03	23.5
3314.83	26
3315.63	24.5
3316.42	27
3317.22	24.5
3318.02	23
3318.81	23
3319.61	23
3320.41	22.5
3321.2	22
3322	22
3322.8	26
3323.59	19
3324.39	24.5
3325.18	24
3325.98	21.5
3326.78	19.5
3327.57	25
3328.37	23.5
3329.16	24.5
3329.96	23
3330.75	24.5
3331.55	22.5
3332.34	25.5
3333.14	26
3333.93	28.5
3334.73	21.5
3335.52	23.5
3336.31	23
3337.11	21
3337.9	22.5
3338.7	23
3339.49	20
3340.28	23.5
3341.08	23
3341.87	21.5
3342.66	22
3343.46	26
3344.25	22
3345.04	22
3345.84	23
3346.63	25
3347.42	24
3348.22	23
3349.01	28
3349.8	20.5
3350.59	24.5
3351.39	23.5
3352.18	25
3352.97	25
3353.76	26
3354.55	25
3355.35	26.5
3356.14	22.5
3356.93	24
3357.72	24
3358.51	22.5
3359.3	20
3360.09	24
3360.88	26
3361.67	25
3362.46	24
3363.26	23
3364.05	23.5
3364.84	23
3365.63	25.5
3366.42	23
3367.21	24
3368	22.5
3368.79	25.5
3369.58	22
3370.37	24
3371.15	25.5
3371.94	20.5
3372.73	29.5
3373.52	24
3374.31	26.5
3375.1	26
3375.89	23.5
3376.68	26
3377.47	26
3378.26	27
3379.04	23
3379.83	21
3380.62	24.5
3381.41	27
3382.2	22.5
3382.98	24.5
3383.77	26
3384.56	23
3385.35	24
3386.13	21.5
3386.92	23.5
3387.71	22.5
3388.5	25
3389.28	22.5
3390.07	23
3390.86	25
3391.64	22.5
3392.43	22.5
3393.22	24
3394	24
3394.79	28
3395.57	27.5
3396.36	25
3397.15	23
3397.93	24
3398.72	21
3399.5	27.5
3400.29	25.5
3401.07	23
3401.86	27
3402.65	25.5
3403.43	23
3404.21	25
3405	24
3405.78	21.5
3406.57	28.5
3407.35	25.5
3408.14	22
3408.92	23.5
3409.71	23
3410.49	23.5
3411.27	20.5
3412.06	24.5
3412.84	25
3413.62	24
3414.41	24.5
3415.19	22
3415.97	27
3416.76	23.5
3417.54	27
3418.32	25
3419.11	26
3419.89	25
3420.67	22.5
3421.46	25
3422.24	24
3423.02	23.5
3423.8	21
3424.58	24.5
3425.37	24.5
3426.15	20.5
3426.93	25
3427.71	22.5
3428.49	19
3429.27	19.5
3430.05	25
3430.84	26.5
3431.62	25
3432.4	27.5
3433.18	27
3433.96	25
3434.74	25
3435.52	23.5
3436.3	24
3437.08	26.5
3437.86	20
3438.64	26
3439.42	22.5
3440.2	24.5
3440.98	27
3441.76	26.5
3442.54	26
3443.32	25
3444.1	25.5
3444.88	22.5
3445.66	24.5
3446.44	24
3447.22	22
3448	32
3448.77	24.5
3449.55	25.5
3450.33	24
3451.11	24.5
3451.89	25
3452.67	25.5
3453.45	26.5
3454.22	25
3455	24.5
3455.78	25
3456.56	20
3457.33	23
3458.11	25
3458.89	22
3459.67	22.5
3460.44	23.5
3461.22	23.5
3462	22.5
3462.77	21.5
3463.55	23
3464.33	24
3465.1	23
3465.88	23.5
3466.66	22.5
3467.43	23
3468.21	26
3468.98	26
3469.76	23.5
3470.54	25
3471.31	23
3472.09	27
3472.86	20
3473.64	23.5
3474.41	22
3475.19	24
3475.96	25
3476.74	27.5
3477.51	27.5
3478.29	21.5
3479.06	25
3479.84	26
3480.61	20
3481.39	25.5
3482.16	21.5
3482.93	28
3483.71	23.5
3484.48	26
3485.25	25
3486.03	27.5
3486.8	24
3487.57	26
3488.35	26.5
3489.12	25.5
3489.89	23
3490.67	21
3491.44	22.5
3492.21	24.5
3492.99	20.5
3493.76	19.5
3494.53	22.5
3495.3	24
3496.08	22
3496.85	24.5
3497.62	25
3498.39	24
3499.16	20.5
3499.93	22.5
