#Acq. time (s)=	5
#Accumulations=	5
#Range (cm-¹)=	100...3500
#Windows=	4
#Autofocus=	Off
#AutoExposure=	Off
#Spike filter=	Multiple accum.
#Delay time (s)=	0
#Binning=	1
#Readout mode=	Signal
#DeNoise=	Off
#ICS correction=	Off
#Dark correction=	Off
#Inst. Process=	Off
#Instrument=	LabRAM HR Evol
#Detector=	Syncerity OE
#Objective=	x100_VIS
#Grating=	600 (500nm)
#ND Filter=	25%
#Laser=	633nm_Edge
#Hole=	100.021
#Range=	Visible
#Project=	verificaciones
#Sample=	at5
#Site=	plain
#Title=	bolusat5plain
#Remark=	
#Date=	13.01.2026 19:15
#Acquired=	13.01.2026 19:15:15
100.692	25
101.975	29
103.258	30.5
104.542	29.5
105.824	31.5
107.107	27.5
108.39	29
109.672	29.5
110.954	28
112.236	31.5
113.519	30
114.8	28
116.081	27.5
117.362	28
118.643	33
119.924	29
121.204	30.5
122.484	31
123.764	30
125.044	28
126.323	33.5
127.603	29.5
128.882	30
130.161	30.5
131.438	31
132.716	33.5
133.995	36.5
135.273	31.5
136.55	32
137.828	33
139.106	35.5
140.383	35.5
141.66	31
142.937	34.5
144.213	33.5
145.488	37.5
146.764	39
148.04	36.5
149.316	38
150.592	36
151.867	36
153.141	38.5
154.416	40
155.69	37.5
156.965	41
158.239	40
159.512	37.5
160.786	35.5
162.059	41
163.333	41.5
164.605	35
165.878	37.5
167.15	39
168.423	38
169.694	37.5
170.966	35
172.238	36
173.51	35.5
174.78	37
176.052	36
177.323	37.5
178.592	40
179.863	34
181.134	39.5
182.403	34.5
183.673	39.5
184.943	38
186.211	44
187.481	43.5
188.749	40.5
190.018	40.5
191.287	39
192.554	33.5
193.822	41
195.089	39
196.357	39.5
197.625	36
198.891	37
200.159	34
201.425	38
202.692	34.5
203.957	33
205.224	35
206.489	34.5
207.755	36.5
209.02	33.5
210.286	35
211.55	31.5
212.815	33
214.079	35.5
215.344	29
216.607	27.5
217.872	31
219.135	30.5
220.399	28
221.662	35.5
222.924	36
224.187	34.5
225.449	31.5
226.713	28
227.974	35
229.235	25
230.498	29.5
231.759	26
233.019	29
234.281	27
235.542	27
236.802	31.5
238.063	31.5
239.323	30.5
240.582	32
241.843	31.5
243.102	29.5
244.361	29
245.621	28
246.879	27
248.138	26.5
249.396	29.5
250.655	31
251.913	27.5
253.17	31
254.427	30.5
255.686	30
256.943	28
258.199	29
259.456	31
260.712	28
261.969	28.5
263.225	24.5
264.481	28
265.736	31.5
266.991	31
268.246	29.5
269.502	27
270.757	34
272.011	28
273.265	25.5
274.519	27
275.773	26
277.027	29
278.28	30
279.533	26.5
280.786	23.5
282.04	29.5
283.293	30
284.545	29.5
285.798	31
287.049	28.5
288.301	30.5
289.553	29.5
290.804	27
292.055	27.5
293.306	25.5
294.557	29
295.807	26
297.058	29
298.308	27
299.558	28.5
300.808	29
302.057	31
303.305	26
304.554	29
305.803	27
307.052	26
308.3	26
309.549	29.5
310.797	28
312.045	26
313.292	29
314.54	26.5
315.786	27.5
317.033	30
318.28	29
319.526	24
320.773	26
322.019	28.5
323.264	31.5
324.51	27
325.755	31
327.001	30.5
328.246	27
329.49	23.5
330.735	29.5
331.979	26.5
333.224	28.5
334.467	29
335.711	27.5
336.955	27
338.199	21.5
339.441	27.5
340.684	29
341.927	30.5
343.168	26.5
344.411	27.5
345.654	26.5
346.895	26.5
348.137	26.5
349.379	30
350.619	29
351.86	27
353.102	22
354.341	27.5
355.582	29.5
356.821	26
358.062	29
359.302	27
360.541	29.5
361.781	27.5
363.019	28
364.259	25
365.496	25.5
366.736	25.5
367.974	29.5
369.212	29.5
370.45	33
371.687	25.5
372.925	30
374.162	27.5
375.399	25.5
376.635	27
377.873	28
379.109	24.5
380.344	31.5
381.581	26
382.816	25.5
384.052	27
385.287	24
386.523	28.5
387.757	29.5
388.991	27.5
390.227	25
391.46	28
392.695	26
393.928	25
395.162	25.5
396.396	27
397.629	23.5
398.861	26
400.095	27.5
401.327	28.5
402.559	27
403.792	32
405.024	30.5
406.255	28.5
407.488	30.5
408.719	25
409.949	24
411.18	25
412.412	29
413.642	24
414.872	24.5
416.102	30.5
417.333	28
418.562	24.5
419.791	27
421.02	26.5
422.249	27.5
423.479	27
424.707	24
425.935	26
427.163	29
428.391	29
429.619	27
430.848	29
432.075	26.5
433.302	26.5
434.529	27
435.755	27
436.982	25.5
438.208	26
439.434	32.5
440.66	28.5
441.885	30.5
443.111	28
444.338	29
445.563	30.5
446.788	28
448.012	28
449.237	28
450.461	28
451.685	30
452.909	29
454.133	27.5
455.356	23.5
456.579	29
457.802	30
459.025	28
460.247	27
461.469	28.5
462.691	28
463.914	33
465.136	27
466.357	33.5
467.579	32.5
468.8	34
470.021	31
471.242	37
472.462	32.5
473.682	37.5
474.903	36
476.123	35
477.343	40
478.563	42
479.782	44.5
481	44
482.219	44
483.438	55
484.657	54
485.874	53
487.093	47.5
488.311	55
489.529	54
490.747	55.5
491.963	53.5
493.181	49
494.398	51
495.614	49
496.83	40
498.047	43
499.264	39.5
500.479	43
501.695	37.5
502.911	39
504.125	34
505.34	33.5
506.554	37
507.769	36
508.984	38
510.198	32
511.412	28.5
512.627	36
513.839	37.5
515.053	35.5
516.266	34
517.479	30
518.691	31
519.905	31
521.118	31.5
522.329	27
523.542	29.5
524.753	28
525.965	30.5
527.176	34
528.388	30.5
529.598	30.5
530.809	30
532.019	32.5
533.23	30
534.44	28.5
535.649	24.5
536.86	25
538.068	32
539.279	27.5
540.487	29
541.697	28.5
542.905	31
544.113	30
545.322	27
546.53	30
547.737	26
548.946	32.5
550.153	29
551.361	30
552.568	27.5
553.774	22.5
554.982	29.5
556.188	28
557.394	26
558.599	24
559.806	25
561.012	31
562.217	26
563.423	30.5
564.628	30
565.832	31.5
567.036	30
568.241	25.5
569.446	30
570.65	21
571.853	28.5
573.057	24
574.26	27
575.464	30.5
576.667	25
577.87	27
579.072	27
580.274	25.5
581.477	32.5
582.68	28
583.881	29.5
585.083	26.5
586.284	27
587.485	26.5
588.686	32.5
589.887	27.5
591.087	25.5
592.288	30
593.488	29.5
594.688	28.5
595.888	29.5
597.087	25
598.287	26
599.486	31
600.685	28.5
601.884	26
603.082	30
604.281	29.5
605.479	26.5
606.677	28.5
607.875	29
609.073	31.5
610.27	29.5
611.468	28
612.665	24.5
613.862	29.5
615.058	30.5
616.255	26
617.451	27
618.648	30
619.842	31
621.038	26.5
622.234	23
623.429	31.5
624.624	27
625.819	28
627.013	23
628.207	24
629.402	26.5
630.596	31
631.79	30
632.983	27
634.177	31.5
635.37	27
636.564	29
637.755	30
638.948	28.5
640.141	29.5
641.334	29
642.525	32
643.717	29
644.909	28
646.099	27.5
647.291	30.5
648.483	28.5
649.674	28
650.864	29.5
652.055	32.5
653.244	26
654.435	26
655.625	27
656.814	24.5
658.004	26.5
659.193	32.5
660.382	26.5
661.571	28.5
662.759	28
663.948	29
665.135	30
666.324	31.5
667.511	29
668.7	29
669.886	26.5
671.074	28.5
672.262	28
673.448	26.5
674.634	28
675.821	28
677.007	31.5
678.194	30.5
679.379	32.5
680.565	32.5
681.75	32
682.936	33.5
684.121	35
685.305	35
686.491	41
687.675	30
688.86	31
690.043	32.5
691.227	31
692.411	32
693.594	30
694.777	30
695.961	32
697.144	35
698.326	35.5
699.509	36.5
700.691	37
701.873	34.5
703.056	37.5
704.237	38.5
705.419	43
706.599	47
707.782	43.5
708.962	47
710.143	41
711.323	45
712.504	41.5
713.684	41
714.864	33.5
716.043	31
717.223	32
718.403	33
719.582	28.5
720.761	29.5
721.94	29
723.118	26.5
724.296	31
725.474	29
726.652	29
727.831	27.5
729.009	27.5
730.186	29.5
731.363	23
732.54	26
733.717	25.5
734.893	28
736.07	26
737.246	30.5
738.422	29
739.598	29.5
740.773	30
741.949	27
743.124	22
744.299	27.5
745.474	30.5
746.649	32.5
747.823	27.5
748.997	26.5
750.172	26
751.346	31.5
752.519	29
753.693	28.5
754.867	28
756.038	26.5
757.211	26.5
758.384	25.5
759.557	29
760.73	29.5
761.902	28
763.074	26
764.246	25.5
765.417	28
766.588	29
767.76	23
768.931	28
770.102	28.5
771.271	29
772.442	27
773.613	27
774.783	28
775.952	30
777.122	34.5
778.291	25.5
779.461	29
780.629	33
781.798	31.5
782.967	31
784.135	28
785.304	33
786.472	29
787.639	30.5
788.807	31
789.975	31
791.142	29.5
792.309	29
793.477	32
794.642	28
795.81	33
796.975	30
798.142	31
799.308	28
800.473	32
801.639	26.5
802.804	28.5
803.97	26.5
805.134	27.5
806.299	28
807.463	28
808.628	28.5
809.792	27
810.957	28
812.12	30.5
813.284	29
814.447	26.5
815.611	27
816.773	30.5
817.937	29.5
819.099	29
820.261	25
821.424	27
822.585	23
823.748	26
824.909	28
826.07	24.5
827.232	27.5
828.393	28
829.554	28
830.715	27
831.875	28.5
833.035	28.5
834.196	26.5
835.356	29
836.515	24
837.676	30
838.835	30
839.994	26
841.152	28
842.312	25
843.47	26.5
844.629	25
845.786	28.5
846.946	30
848.103	29.5
849.261	28
850.418	25
851.575	29
852.733	27
853.89	29.5
855.046	30
856.203	28.5
857.359	30.5
858.515	29.5
859.67	28.5
860.827	28
861.983	23
863.138	26
864.293	27
865.448	27
866.603	26.5
867.757	29
868.912	27
870.066	25
871.22	28
872.374	29
873.527	26
874.681	30.5
875.834	27.5
876.987	25
878.14	26.5
879.293	26
880.445	26
881.598	30
882.75	23.5
883.902	27
885.054	25
886.206	26.5
887.357	24
888.507	26
889.658	25.5
890.809	27
891.96	26
893.111	23.5
894.261	25.5
895.411	28
896.561	27.5
897.71	26.5
898.86	27
900.009	24
901.159	31
902.308	24
903.455	30
904.604	25
905.753	28
906.901	24.5
908.048	25.5
909.197	27.5
910.344	27
911.492	24
912.639	26
913.786	25
914.933	28
916.079	23
917.226	25
918.373	24
919.518	28
920.664	27
921.81	24
922.955	28
924.101	31
925.245	28.5
926.391	25
927.536	29
928.68	25
929.825	22
930.968	27.5
932.113	29.5
933.256	26.5
934.4	23
935.543	24
936.687	26
937.83	24
938.973	27.5
940.115	31.5
941.258	26
942.399	22.5
943.542	25.5
944.684	25.5
945.826	31.5
946.967	25.5
948.109	31
949.25	29.5
950.392	28
951.532	25
952.672	25.5
953.813	24
954.953	26.5
956.093	24.5
957.233	25
958.373	23
959.512	26
960.652	25
961.791	27
962.929	25.5
964.069	26
965.207	28.5
966.345	31
967.484	25
968.622	25.5
969.759	25
970.896	26.25
972.035	26
973.172	28
974.309	26.5
975.445	26.5
976.582	27.5
977.719	27.5
978.855	28.5
979.991	25
981.127	27
982.263	27
983.398	26
984.535	22.5
985.67	26.5
986.804	24.5
987.939	27
989.074	21
990.208	29
991.342	24
992.476	23.5
993.61	26.5
994.744	23.5
995.877	27.5
997.01	28.5
998.143	23
999.276	29
1000.41	28
1001.54	22
1002.67	26
1003.81	24.5
1004.94	29.5
1006.07	27
1007.2	26
1008.33	20.5
1009.47	25.5
1010.6	25
1011.73	25
1012.86	24
1013.99	27
1015.12	28
1016.25	27.5
1017.38	25
1018.51	30
1019.64	26.5
1020.77	27.5
1021.9	29.5
1023.03	26.5
1024.15	25
1025.28	25
1026.41	26
1027.54	26
1028.67	25.5
1029.8	29
1030.92	25.5
1032.05	26
1033.18	22.5
1034.31	29
1035.43	25
1036.56	26
1037.69	26
1038.81	27
1039.94	25
1041.07	25
1042.19	28
1043.32	30
1044.44	24.5
1045.57	24
1046.69	21
1047.82	28.5
1048.94	30.5
1050.07	25
1051.19	27.5
1052.32	26
1053.44	25.5
1054.57	22
1055.69	27
1056.81	29
1057.94	21.5
1059.06	24
1060.18	25.5
1061.31	26.5
1062.43	26
1063.55	23.5
1064.67	24.5
1065.8	26
1066.92	27.5
1068.04	22.5
1069.16	27
1070.28	22.5
1071.4	24.5
1072.52	28
1073.64	26.5
1074.76	28.5
1075.89	26
1077.01	28.5
1078.13	27.5
1079.25	23
1080.37	26
1081.49	25.5
1082.6	26
1083.72	26
1084.84	25
1085.96	21.5
1087.08	27.5
1088.2	26.5
1089.32	25
1090.43	25
1091.55	23
1092.67	27
1093.79	22
1094.91	26
1096.02	24
1097.14	28
1098.26	26.5
1099.37	28
1100.49	21
1101.61	26.5
1102.72	26
1103.84	25.5
1104.95	27.5
1106.07	25.5
1107.18	27
1108.3	23
1109.41	24
1110.53	23.5
1111.64	25
1112.76	29.5
1113.87	25
1114.99	24
1116.1	25
1117.21	25.5
1118.33	21.5
1119.44	27.5
1120.55	24
1121.67	23.5
1122.78	22
1123.89	28
1125	23
1126.12	27.5
1127.23	26
1128.34	25
1129.45	27
1130.56	26
1131.68	24.5
1132.79	25.5
1133.9	27
1135.01	24
1136.12	24
1137.23	22.5
1138.34	28
1139.45	22
1140.56	25
1141.67	20.5
1142.78	23.5
1143.89	24
1145	25.5
1146.11	24.5
1147.22	23
1148.32	23.5
1149.43	24
1150.54	27.5
1151.65	23.5
1152.76	23
1153.86	23.5
1154.97	24
1156.08	28
1157.19	23.5
1158.29	26
1159.4	23
1160.51	24.5
1161.61	25.5
1162.72	24
1163.83	22
1164.93	21.5
1166.04	23
1167.14	20.5
1168.25	22.5
1169.35	26.5
1170.46	28
1171.56	24.5
1172.67	27.5
1173.77	23
1174.88	27.5
1175.98	23.5
1177.08	25
1178.19	25.5
1179.29	27
1180.4	21.5
1181.5	25
1182.6	24.5
1183.71	28
1184.81	25
1185.91	29
1187.01	25
1188.12	25.5
1189.22	24.5
1190.32	23
1191.42	26.5
1192.52	22
1193.62	26.5
1194.72	27.4742
1195.83	20.0344
1196.93	24.5604
1198.03	24.0374
1199.13	24.548
1200.23	25.5318
1201.33	24.597
1202.43	26.3245
1203.53	23.597
1204.63	26.8223
1205.73	26.1517
1206.83	22.1584
1207.92	23.8786
1209.02	22.1809
1210.12	23.2795
1211.22	26.3226
1212.32	24.2624
1213.42	25.2549
1214.51	26.0898
1215.61	26.8358
1216.71	27.0458
1217.81	23.829
1218.9	25.8088
1220	25.1352
1221.1	24.0235
1222.19	24.6238
1223.29	25.023
1224.39	23.0453
1225.48	23.4636
1226.58	24.6651
1227.68	24.7438
1228.77	25.1128
1229.87	24.471
1230.96	22.7178
1232.06	25.3002
1233.15	26.3099
1234.25	21.7793
1235.34	23.2277
1236.43	24.1977
1237.53	25.3158
1238.62	26.1658
1239.72	25.1218
1240.81	27.484
1241.9	23.0576
1243	24.9992
1244.09	25.3376
1245.18	25.1483
1246.27	24.5361
1247.37	24.2646
1248.46	23.5296
1249.55	22.4421
1250.64	23.25
1251.74	25.9716
1252.83	26.2375
1253.92	24.2719
1255.01	23.3313
1256.1	26.3544
1257.19	24.4203
1258.28	25.9504
1259.38	26.5751
1260.46	26.7506
1261.56	27.0493
1262.65	23.6592
1263.74	25.7059
1264.82	24.964
1265.91	23.9493
1267	25.3228
1268.09	24.8107
1269.18	25.0438
1270.27	23.1865
1271.36	21.8028
1272.45	25.2744
1273.54	23.9456
1274.63	24.3076
1275.71	24.948
1276.8	24.9549
1277.89	23.6854
1278.98	25.7823
1280.06	27.5629
1281.15	25.6341
1282.24	21.5504
1283.32	22.9146
1284.41	24.7543
1285.5	25.3294
1286.58	25.6846
1287.67	22.9938
1288.76	23.2398
1289.84	25.4092
1290.93	26.7337
1292.01	25.4834
1293.1	24.7337
1294.18	25.1203
1295.27	24.6574
1296.35	21.8208
1297.44	24.5326
1298.52	23.4483
1299.6	21.8308
1300.69	23.2047
1301.77	25.853
1302.86	23.1623
1303.94	23.0649
1305.02	25.3254
1306.11	25.2805
1306.41	25
1307.5	26
1308.59	25
1309.68	26
1310.77	24.5
1311.85	21
1312.94	24.5
1314.03	20
1315.11	24
1316.2	27
1317.29	21.5
1318.37	22.5
1319.46	24
1320.55	28
1321.63	25
1322.72	26.5
1323.8	26
1324.89	26
1325.98	23
1327.06	23.5
1328.15	23
1329.23	23
1330.31	26.5
1331.4	25.5
1332.48	23.5
1333.57	23.5
1334.65	22.5
1335.74	27
1336.82	22
1337.9	29.5
1338.99	27
1340.07	26
1341.15	24
1342.24	23.5
1343.32	24.5
1344.4	27
1345.48	25
1346.56	23
1347.65	24
1348.73	23.5
1349.81	22.5
1350.89	28
1351.97	24
1353.05	22.5
1354.13	24
1355.21	26
1356.29	20
1357.37	25
1358.46	24.5
1359.54	25.5
1360.62	24
1361.69	20.5
1362.77	27.5
1363.85	27
1364.93	25
1366.01	30
1367.09	25
1368.17	29
1369.25	26
1370.33	23.5
1371.41	27.5
1372.48	25
1373.56	26
1374.64	26.5
1375.72	23
1376.79	23.5
1377.87	23.5
1378.95	27
1380.02	29
1381.1	26.5
1382.18	25
1383.25	27
1384.33	26.5
1385.4	27
1386.48	26
1387.56	26.5
1388.63	28.5
1389.71	28.5
1390.78	26
1391.86	21.5
1392.93	25.5
1394.01	23.5
1395.08	28
1396.15	27
1397.23	25
1398.3	26.5
1399.38	31
1400.45	29.5
1401.52	29
1402.6	29.5
1403.67	30.5
1404.74	30
1405.81	28.5
1406.89	31
1407.96	28
1409.03	26
1410.1	25
1411.17	26.5
1412.25	24
1413.32	29.5
1414.39	33
1415.46	31
1416.53	28.5
1417.6	25
1418.67	26
1419.74	26.5
1420.81	26.5
1421.88	32
1422.95	28
1424.02	23.5
1425.09	29
1426.16	29.5
1427.23	25.5
1428.3	26.5
1429.37	24
1430.44	26
1431.51	24.5
1432.58	28
1433.64	24.5
1434.71	25
1435.78	26
1436.85	26
1437.92	26.5
1438.98	26
1440.05	27
1441.12	28
1442.18	31
1443.25	26
1444.32	25.5
1445.38	22
1446.45	25.5
1447.52	23
1448.58	29.5
1449.65	24.5
1450.71	27
1451.78	23
1452.84	24.5
1453.91	28.5
1454.97	27
1456.04	26
1457.1	25.5
1458.17	24
1459.23	29.5
1460.3	24
1461.36	27.5
1462.42	26.5
1463.49	25.5
1464.55	28
1465.61	29
1466.68	25.5
1467.74	26
1468.8	25.5
1469.86	23.5
1470.93	26
1471.99	24
1473.05	25
1474.11	26.5
1475.17	23
1476.24	26
1477.3	29
1478.36	25
1479.42	29
1480.48	24.5
1481.54	27.5
1482.6	26
1483.66	23.5
1484.72	25
1485.78	26.5
1486.84	22.5
1487.9	28.5
1488.96	26.5
1490.02	27.5
1491.08	28
1492.14	27.5
1493.2	18.5
1494.26	25.5
1495.31	25
1496.37	28.5
1497.43	25
1498.49	20.5
1499.55	25
1500.6	25.5
1501.66	23
1502.72	30
1503.78	25
1504.83	25.5
1505.89	25.5
1506.95	27
1508	25
1509.06	26
1510.12	26.5
1511.17	26.5
1512.23	24
1513.28	25.5
1514.34	27
1515.39	22.5
1516.45	28
1517.5	23.5
1518.56	25.5
1519.61	24.5
1520.67	27
1521.72	28
1522.78	25.5
1523.83	28.5
1524.88	26
1525.94	24.5
1526.99	25.5
1528.05	25
1529.1	24
1530.15	25
1531.2	26.5
1532.26	28
1533.31	27.5
1534.36	27
1535.41	24.5
1536.47	28
1537.52	27.5
1538.57	26.5
1539.62	23
1540.67	19
1541.72	26
1542.77	26
1543.83	25.5
1544.88	25.5
1545.93	24.5
1546.98	24.5
1548.03	23
1549.08	28.5
1550.13	27
1551.18	28
1552.23	24.5
1553.28	26.5
1554.32	28
1555.37	25.5
1556.42	29
1557.47	29
1558.52	26.5
1559.57	23.5
1560.62	21.5
1561.67	27
1562.71	24.5
1563.76	25.5
1564.81	25.5
1565.86	28
1566.9	24.5
1567.95	29.5
1569	27.5
1570.04	26.5
1571.09	27
1572.14	25
1573.18	20.5
1574.23	27
1575.27	25.5
1576.32	33
1577.37	26.5
1578.41	24.5
1579.46	28.5
1580.5	24.5
1581.55	27
1582.59	25
1583.64	29.5
1584.68	25.5
1585.72	24.5
1586.77	25
1587.81	27
1588.86	27
1589.9	29
1590.94	25
1591.99	25
1593.03	29
1594.07	27.5
1595.12	25.5
1596.16	25.5
1597.2	26
1598.24	23.5
1599.29	20.5
1600.33	25.5
1601.37	27
1602.41	25
1603.45	23
1604.49	24
1605.53	26
1606.58	29
1607.62	26.5
1608.66	26.5
1609.7	25
1610.74	25
1611.78	24.5
1612.82	28
1613.86	27
1614.9	25.5
1615.94	26
1616.98	25
1618.02	27
1619.06	27
1620.09	26
1621.13	22.5
1622.17	25
1623.21	25
1624.25	25.5
1625.29	27
1626.32	24.5
1627.36	26
1628.4	26
1629.44	23
1630.47	26
1631.51	29
1632.55	28
1633.58	22
1634.62	25
1635.66	27
1636.69	24
1637.73	23.5
1638.77	26
1639.8	28
1640.84	26.5
1641.87	28.5
1642.91	29
1643.94	25.5
1644.98	26
1646.01	27
1647.05	24.5
1648.08	24.5
1649.12	30
1650.15	25
1651.18	24.5
1652.22	25
1653.25	24
1654.29	25.5
1655.32	28
1656.35	26
1657.39	22
1658.42	26
1659.45	26
1660.48	25
1661.52	24
1662.55	28
1663.58	24
1664.61	28
1665.64	24
1666.68	26.5
1667.71	26
1668.74	28
1669.77	29.5
1670.8	26.5
1671.83	24
1672.86	28
1673.89	25
1674.92	27
1675.95	23
1676.98	27.5
1678.01	26
1679.04	25
1680.07	27
1681.1	21
1682.13	26
1683.16	23
1684.19	30
1685.22	24
1686.25	29.5
1687.27	28.5
1688.3	24.5
1689.33	24
1690.36	28
1691.38	25.5
1692.41	27
1693.44	25.5
1694.47	27
1695.49	26
1696.52	26
1697.55	25.5
1698.57	26.5
1699.6	29
1700.63	24.5
1701.65	26
1702.68	27
1703.7	26
1704.73	24
1705.76	26.5
1706.78	28.5
1707.81	24.5
1708.83	28.5
1709.86	23
1710.88	26.5
1711.91	26
1712.93	23.5
1713.95	23
1714.98	26.5
1716	26.5
1717.03	26
1718.05	26
1719.07	24.5
1720.1	23
1721.12	23.5
1722.14	23
1723.16	30
1724.19	28
1725.21	29
1726.23	27
1727.25	26
1728.28	22.5
1729.3	27
1730.32	24.5
1731.34	28
1732.36	27
1733.38	28
1734.41	25
1735.43	26
1736.45	26.5
1737.47	24
1738.49	26
1739.51	22.5
1740.53	29
1741.55	25
1742.57	26
1743.59	25.5
1744.61	24.5
1745.63	25
1746.64	24
1747.66	25.5
1748.68	24
1749.7	22.5
1750.72	25
1751.74	29
1752.76	26.5
1753.77	24.5
1754.79	27
1755.81	25
1756.83	31
1757.84	25.5
1758.86	25
1759.88	22
1760.9	21.5
1761.91	25.5
1762.93	24.5
1763.95	26.5
1764.96	27.5
1765.98	27.5
1766.99	28.5
1768.01	27
1769.02	24
1770.04	24
1771.06	21
1772.07	26
1773.09	24.5
1774.1	26
1775.12	23.5
1776.13	27.5
1777.14	26.5
1778.16	27
1779.17	27
1780.19	23
1781.2	26
1782.21	28
1783.23	21
1784.24	25
1785.25	29
1786.27	22
1787.28	21
1788.29	28
1789.3	29.5
1790.32	25.5
1791.33	24.5
1792.34	24.5
1793.35	25.5
1794.36	22.5
1795.38	25.5
1796.39	24.5
1797.4	27.5
1798.41	27
1799.42	24.5
1800.43	28
1801.44	25
1802.45	19.5
1803.46	25
1804.47	26
1805.48	25
1806.49	24
1807.5	22
1808.51	25
1809.52	27
1810.53	26
1811.54	22
1812.55	25
1813.56	23.5
1814.57	25
1815.57	28
1816.58	25.5
1817.59	21.5
1818.6	27.5
1819.61	25
1820.61	27.5
1821.62	22
1822.63	23.5
1823.64	21
1824.64	25.5
1825.65	27.5
1826.66	25
1827.66	24.5
1828.67	25
1829.68	22
1830.68	25
1831.69	21.5
1832.69	25
1833.7	24
1834.7	20
1835.71	24
1836.71	25
1837.72	28
1838.72	26
1839.73	31
1840.73	27
1841.74	28
1842.74	23.5
1843.75	21
1844.75	23
1845.75	23
1846.76	28.5
1847.76	28
1848.76	26.5
1849.77	23.5
1850.77	28
1851.77	26.5
1852.78	24.5
1853.78	25
1854.78	27
1855.78	27.5
1856.78	23.5
1857.79	27.5
1858.79	25.5
1859.79	24.5
1860.79	23
1861.79	30
1862.79	20
1863.79	26.5
1864.79	27
1865.79	24.5
1866.8	24.5
1867.8	23
1868.8	25
1869.8	24
1870.8	25
1871.8	27.5
1872.8	26.5
1873.79	23.5
1874.79	22.5
1875.79	22
1876.79	25
1877.79	22.5
1878.79	22
1879.79	25.5
1880.79	24.5
1881.78	21.5
1882.78	25.5
1883.78	21
1884.78	25
1885.77	28.5
1886.77	26
1887.77	24.5
1888.77	21
1889.76	23
1890.76	27.5
1891.76	27
1892.75	28.5
1893.75	25.5
1894.75	25
1895.74	25
1896.74	25
1897.73	24
1898.73	23
1899.73	24.5
1900.72	23
1901.72	24
1902.71	24.5
1903.7	24
1904.7	25.5
1905.69	23
1906.69	22.5
1907.68	26
1908.68	27
1909.67	26.5
1910.66	23.5
1911.66	26
1912.65	27
1913.64	22
1914.64	26
1915.63	25.5
1916.62	27.5
1917.62	26.5
1918.61	23.5
1919.6	26.5
1920.59	26.5
1921.58	25
1922.58	22
1923.57	26.5
1924.56	20
1925.55	24
1926.54	19.5
1927.53	26
1928.52	24.5
1929.51	28.5
1930.51	26.5
1931.5	22.5
1932.49	27.5
1933.48	25
1934.47	22.5
1935.46	21
1936.45	26
1937.44	26
1938.42	24
1939.41	22
1940.4	18
1941.39	26
1942.38	26
1943.37	23
1944.36	23.5
1945.35	26.5
1946.33	26
1947.32	22.5
1948.31	23.25
1949.3	24
1950.29	22
1951.27	23
1952.26	24
1953.25	24
1954.23	24
1955.22	27
1956.21	23
1957.19	21
1958.18	28.5
1959.17	24
1960.15	28.5
1961.14	24
1962.13	24.5
1963.11	23.5
1964.1	21.5
1965.08	23.5
1966.07	27.5
1967.05	27.5
1968.04	22.5
1969.02	26.5
1970.01	23
1970.99	25
1971.97	22.5
1972.96	24.5
1973.94	25
1974.93	27
1975.91	24
1976.89	22
1977.88	21
1978.86	31
1979.84	26
1980.83	27
1981.81	25
1982.79	22
1983.77	25.5
1984.76	25
1985.74	25.5
1986.72	25
1987.7	25
1988.68	28.5
1989.67	22
1990.65	24.5
1991.63	21.5
1992.61	21
1993.59	23
1994.57	25.5
1995.55	25
1996.53	26.5
1997.51	24
1998.49	25.5
1999.47	24.5
2000.45	26.5
2001.43	25
2002.41	26.5
2003.39	28.5
2004.37	23
2005.35	22
2006.33	27.5
2007.31	27.5
2008.29	27
2009.26	26
2010.24	25
2011.22	21
2012.2	25.5
2013.18	24
2014.15	25.5
2015.13	24
2016.11	23.5
2017.09	27.5
2018.06	22.5
2019.04	22.5
2020.02	22.5
2021	23
2021.97	23
2022.95	23
2023.92	21
2024.9	25
2025.88	26
2026.85	23
2027.83	27
2028.8	25.5
2029.78	23.5
2030.75	21.5
2031.73	22
2032.7	24.5
2033.68	25
2034.65	22
2035.63	27.5
2036.6	22.5
2037.58	24
2038.55	24.5
2039.52	26.5
2040.5	21.5
2041.47	27
2042.45	22
2043.42	25
2044.39	27
2045.36	25
2046.34	24
2047.31	24.5
2048.28	27.5
2049.26	24
2050.23	25.5
2051.2	26
2052.17	22
2053.14	24.5
2054.12	21.5
2055.09	22
2056.06	23.5
2057.03	27
2058	27
2058.97	23
2059.94	24
2060.91	25.5
2061.88	22
2062.85	27
2063.82	25
2064.79	22
2065.76	21
2066.73	26.5
2067.7	25.5
2068.67	24
2069.64	25
2070.61	23
2071.58	21
2072.55	26.5
2073.52	25
2074.49	25
2075.45	22.5
2076.42	27
2077.39	22
2078.36	22.5
2079.33	22
2080.29	23.5
2081.26	29
2082.23	24
2083.2	23
2084.16	24.5
2085.13	25
2086.1	24.5
2087.06	22.5
2088.03	21
2089	23
2089.96	24.5
2090.93	23
2091.89	25
2092.86	23
2093.83	22
2094.79	24
2095.76	21.5
2096.72	24.5
2097.69	23.5
2098.65	21.5
2099.62	24
2100.58	27
2101.55	28
2102.51	26.5
2103.47	23
2104.44	22.5
2105.4	26
2106.36	24.5
2107.33	23.5
2108.29	22.5
2109.25	20
2110.22	23
2111.18	26
2112.14	24
2113.11	22
2114.07	22
2115.03	27
2115.99	22.5
2116.96	23
2117.92	24
2118.88	26
2119.84	25.5
2120.8	27
2121.76	22
2122.72	27.5
2123.68	24.5
2124.65	22.5
2125.61	24.5
2126.57	22
2127.53	24
2128.49	25.5
2129.45	23.5
2130.41	26
2131.37	25
2132.33	25.5
2133.29	25
2134.25	23
2135.21	25.5
2136.17	25
2137.12	21
2138.08	19
2139.04	21.5
2140	24
2140.96	21.5
2141.92	24.5
2142.88	21.9903
2143.83	21.9309
2144.79	25.4527
2145.75	25.4462
2146.71	21.0639
2147.66	25.0314
2148.62	20.1327
2149.58	24.6635
2150.53	22.0317
2151.49	22.3823
2152.45	25.6851
2153.4	23.7423
2154.36	25.3317
2155.32	21.4442
2156.27	23.5399
2157.23	23.5357
2158.19	24.3345
2159.14	17.4783
2160.1	22.0957
2161.05	21.9279
2162.01	25.1508
2162.96	22.2306
2163.92	25.678
2164.87	21.5972
2165.83	21.6939
2166.78	22.6487
2167.73	21.7627
2168.69	23.3927
2169.64	22.2968
2170.6	24.3546
2171.55	25.2003
2172.5	23.2917
2173.46	20.4283
2174.41	24.6074
2175.36	23.7011
2176.32	23.4035
2177.27	21.7532
2178.22	21.9201
2179.18	21.3613
2180.13	23.0987
2181.08	23.4665
2182.03	24.3871
2182.98	22.8568
2183.94	23.0589
2184.89	22.7867
2185.84	23.1757
2186.79	22.4941
2187.74	22.6509
2188.69	23.7919
2189.64	22.3548
2190.6	25.7419
2191.55	23.7943
2192.5	25.2125
2193.45	21.3078
2194.4	22.7661
2195.35	22.511
2196.3	23.6837
2197.25	25.7847
2198.2	24.4701
2199.15	22.0671
2200.1	23.6383
2201.04	22.0353
2201.99	22.5898
2202.94	24.5574
2203.89	22.3724
2204.84	22.8671
2205.79	24.2127
2206.74	21.3294
2207.69	23.3005
2208.63	22.7471
2209.58	22.3158
2210.53	25.7412
2211.48	23.7597
2212.43	21.2016
2213.37	23.8715
2214.32	23.26
2215.27	22.5157
2216.21	25.3464
2217.16	21.9762
2218.11	21.1141
2219.05	23.2797
2220	22.2371
2220.95	24.1309
2221.89	23.5029
2222.84	22.0461
2223.78	26.1963
2224.73	23.4288
2225.68	22.3025
2226.62	24.7979
2227.57	26.523
2228.51	24.85
2229.46	22.5408
2230.4	22.7235
2231.35	22.8217
2232.29	25.7595
2233.24	23.6452
2234.18	24.2711
2235.12	22.9957
2236.07	24.4851
2237.01	23.0973
2237.95	24.4636
2238.9	21.9388
2239.84	21.0146
2240.06	21
2241.01	21
2241.96	19
2242.91	20
2243.86	27
2244.8	24.5
2245.75	25
2246.7	24
2247.65	23
2248.59	18.5
2249.54	28
2250.49	20.5
2251.43	25
2252.38	24
2253.33	21.5
2254.27	25.5
2255.22	24.5
2256.16	26
2257.11	23
2258.06	23
2259	24
2259.95	23.5
2260.89	21.5
2261.84	24
2262.78	22.5
2263.73	23.5
2264.67	23
2265.62	17
2266.56	23
2267.5	24
2268.45	23
2269.39	23
2270.34	23.5
2271.28	28.5
2272.22	21.5
2273.17	28.5
2274.11	22.5
2275.05	20.5
2276	27.5
2276.94	22
2277.88	22
2278.82	24.5
2279.77	22
2280.71	24
2281.65	23
2282.59	25
2283.53	21.5
2284.48	26
2285.42	25.5
2286.36	24.5
2287.3	18
2288.24	19.5
2289.18	23.5
2290.12	20
2291.06	23.5
2292	21
2292.94	25.5
2293.89	20
2294.83	21.5
2295.77	18
2296.71	20
2297.65	22
2298.58	27
2299.52	25
2300.46	23
2301.4	23.5
2302.34	25
2303.28	22
2304.22	22
2305.16	25.5
2306.1	26
2307.03	24
2307.97	24.5
2308.91	25.5
2309.85	23.5
2310.79	23
2311.72	23
2312.66	22.5
2313.6	23
2314.54	27
2315.47	22.5
2316.41	23.5
2317.35	25
2318.28	24
2319.22	21.5
2320.16	22
2321.09	24.5
2322.03	25.5
2322.96	23
2323.9	20
2324.84	23.5
2325.77	29.5
2326.71	22.5
2327.64	25.5
2328.58	24.5
2329.51	23
2330.45	22.5
2331.38	22
2332.32	24
2333.25	23.5
2334.18	26
2335.12	23.5
2336.05	27.5
2336.99	22.5
2337.92	25
2338.85	24
2339.79	26
2340.72	21
2341.65	23.5
2342.59	26
2343.52	24
2344.45	23
2345.39	27.5
2346.32	25
2347.25	25
2348.18	25
2349.11	26.5
2350.05	19
2350.98	23
2351.91	26
2352.84	24.5
2353.77	27.5
2354.7	22
2355.64	25
2356.57	25
2357.5	25.5
2358.43	27.5
2359.36	22.5
2360.29	25
2361.22	25
2362.15	22
2363.08	21
2364.01	23
2364.94	29
2365.87	24
2366.8	23.5
2367.73	26
2368.66	27
2369.58	22
2370.51	22.5
2371.44	24
2372.37	22
2373.3	26
2374.23	25.5
2375.16	24
2376.08	24
2377.01	21
2377.94	23
2378.87	21.5
2379.8	26
2380.72	25
2381.65	28
2382.58	28
2383.5	25
2384.43	26
2385.36	19
2386.28	24
2387.21	22
2388.14	27.5
2389.06	23
2389.99	22.5
2390.91	24.5
2391.84	24.5
2392.77	21.5
2393.69	23
2394.62	23
2395.54	23.5
2396.47	26
2397.39	23
2398.32	25
2399.24	24
2400.16	25
2401.09	22
2402.01	24.5
2402.94	25
2403.86	22
2404.78	28.5
2405.71	26.5
2406.63	23
2407.56	22.5
2408.48	26
2409.4	26
2410.32	23.5
2411.25	24.5
2412.17	23.5
2413.09	23
2414.02	28.5
2414.94	24.5
2415.86	25.5
2416.78	26.5
2417.7	26
2418.63	23.5
2419.55	24.5
2420.47	25.5
2421.39	26.5
2422.31	25.5
2423.23	25.5
2424.15	23.5
2425.07	23
2425.99	21
2426.92	25
2427.84	27
2428.76	24
2429.68	29
2430.59	24
2431.51	24.5
2432.43	23
2433.35	22.5
2434.27	24
2435.19	23
2436.11	26
2437.03	23
2437.95	25
2438.87	25
2439.79	27.5
2440.71	26.5
2441.62	22.5
2442.54	27.5
2443.46	26
2444.38	22
2445.3	24.5
2446.21	21
2447.13	23
2448.05	24.5
2448.97	25.5
2449.88	23
2450.8	26
2451.72	26
2452.63	23.5
2453.55	24
2454.47	25
2455.38	21
2456.3	25.5
2457.21	22
2458.13	25.5
2459.05	25.5
2459.96	22
2460.88	23
2461.79	24
2462.71	25
2463.62	24
2464.54	25.5
2465.45	23.5
2466.37	23.5
2467.28	23
2468.2	27
2469.11	26.5
2470.02	27.5
2470.94	25
2471.85	28.5
2472.77	27.5
2473.68	26
2474.59	25.5
2475.51	25
2476.42	28
2477.33	24
2478.25	25
2479.16	28.5
2480.07	25
2480.98	27
2481.9	22
2482.81	24
2483.72	28.5
2484.63	20.5
2485.55	23.5
2486.46	26.5
2487.37	27.5
2488.28	26.5
2489.19	22
2490.1	24.5
2491.01	23
2491.92	26.5
2492.83	24.5
2493.74	25.5
2494.66	27.5
2495.57	21.5
2496.48	24
2497.39	23
2498.3	25.5
2499.21	24
2500.12	22
2501.03	22.5
2501.93	25
2502.84	24
2503.75	23
2504.66	29.5
2505.57	25
2506.48	24
2507.39	21.5
2508.3	26.5
2509.21	22.5
2510.11	27
2511.02	28
2511.93	26.5
2512.84	27.5
2513.75	25
2514.65	26
2515.56	25.5
2516.47	23
2517.37	24
2518.28	24
2519.19	22.5
2520.09	26
2521	24
2521.91	22
2522.81	30
2523.72	20
2524.63	24
2525.53	24.5
2526.44	27.5
2527.34	27
2528.25	26.5
2529.16	24
2530.06	26
2530.97	29
2531.87	26.5
2532.78	25
2533.68	24.5
2534.58	27
2535.49	25.5
2536.39	22.5
2537.3	26.5
2538.2	23.5
2539.11	22.5
2540.01	24.5
2540.91	23
2541.82	26.5
2542.72	23
2543.62	26
2544.53	18
2545.43	23
2546.33	22
2547.23	26.5
2548.14	24.5
2549.04	24.5
2549.94	26.5
2550.84	22
2551.75	23.5
2552.65	23
2553.55	25.5
2554.45	25
2555.35	21.5
2556.26	25.5
2557.16	24.5
2558.06	25.5
2558.96	20.5
2559.86	23.5
2560.76	20
2561.66	26
2562.56	28.5
2563.46	21
2564.36	23
2565.26	24
2566.16	24
2567.06	25.5
2567.96	24
2568.86	23.5
2569.76	26
2570.66	25
2571.56	28
2572.46	25
2573.36	24.5
2574.26	26.5
2575.16	23
2576.05	25.5
2576.95	26
2577.85	26.5
2578.75	27.5
2579.65	24
2580.54	24.5
2581.44	25.5
2582.34	25.5
2583.24	22
2584.13	26.5
2585.03	26
2585.93	23
2586.83	24
2587.72	26.5
2588.62	24
2589.52	23.5
2590.41	29.5
2591.31	25
2592.2	22.5
2593.1	29
2594	28.5
2594.89	24
2595.79	21.5
2596.68	23.5
2597.58	24.5
2598.47	21.5
2599.37	25.5
2600.26	28.5
2601.16	23
2602.05	26
2602.95	22
2603.84	26.5
2604.74	27
2605.63	27.5
2606.52	29
2607.42	24.5
2608.31	25.5
2609.21	29
2610.1	28
2610.99	28
2611.89	21
2612.78	24.5
2613.67	22
2614.56	24
2615.46	24
2616.35	27.5
2617.24	26
2618.13	27
2619.03	23.5
2619.92	25
2620.81	26
2621.7	24.5
2622.59	24.5
2623.49	20
2624.38	22.5
2625.27	25.5
2626.16	25.5
2627.05	25
2627.94	27.5
2628.83	30
2629.72	24
2630.61	24
2631.5	28.5
2632.39	24
2633.28	26.5
2634.17	27.5
2635.06	23
2635.95	25
2636.84	20.5
2637.73	23
2638.62	25.5
2639.51	27
2640.4	26
2641.29	23
2642.18	27
2643.07	24
2643.96	24
2644.84	27.5
2645.73	28
2646.62	27.5
2647.51	23
2648.4	25.5
2649.28	22
2650.17	28.5
2651.06	24.5
2651.95	27
2652.83	22
2653.72	29
2654.61	23.5
2655.49	23
2656.38	20
2657.27	25
2658.16	25
2659.04	22
2659.93	23.5
2660.81	24.5
2661.7	27
2662.59	26.5
2663.47	27.5
2664.36	26
2665.24	27.5
2666.13	23.5
2667.01	27
2667.9	25
2668.78	24.5
2669.67	25
2670.55	24
2671.44	26
2672.32	22.5
2673.21	23.5
2674.09	23.5
2674.97	29
2675.86	28
2676.74	28.5
2677.62	26
2678.51	24.5
2679.39	28.5
2680.27	24
2681.16	30.5
2682.04	26.5
2682.92	23.5
2683.81	27.5
2684.69	25.5
2685.57	24
2686.45	27
2687.34	25.5
2688.22	26
2689.1	26.5
2689.98	28
2690.86	22
2691.75	27
2692.63	24.5
2693.51	28
2694.39	23
2695.27	27
2696.15	26
2697.03	26
2697.91	24.5
2698.79	25
2699.67	24.5
2700.55	23
2701.43	23.5
2702.31	27
2703.19	26.5
2704.07	21
2704.95	26
2705.83	22.5
2706.71	21
2707.59	26.5
2708.47	28
2709.35	25.5
2710.23	25.5
2711.11	23.5
2711.99	24.5
2712.86	25.5
2713.74	25.5
2714.62	25.5
2715.5	26
2716.38	22
2717.26	22
2718.13	21.5
2719.01	28.5
2719.89	27
2720.77	27
2721.64	24.5
2722.52	27.5
2723.4	21.5
2724.27	26
2725.15	24
2726.03	22
2726.9	23.5
2727.78	29.5
2728.66	26
2729.53	26.5
2730.41	25.5
2731.28	22
2732.16	25
2733.03	24
2733.91	26
2734.79	27
2735.66	22
2736.54	25
2737.41	25
2738.29	25
2739.16	24.5
2740.03	22
2740.91	27
2741.78	22.5
2742.66	25.5
2743.53	26
2744.41	28
2745.28	25.5
2746.15	25
2747.03	28
2747.9	27
2748.77	18
2749.65	26
2750.52	24.5
2751.39	24
2752.27	19
2753.14	25.5
2754.01	25
2754.88	25
2755.75	27
2756.63	24
2757.5	20
2758.37	25
2759.24	27.5
2760.11	24.5
2760.99	28
2761.86	24.5
2762.73	28
2763.6	24
2764.47	23
2765.34	28
2766.21	24.5
2767.08	30
2767.95	23
2768.82	24.5
2769.69	26.5
2770.56	23
2771.43	27
2772.3	25
2773.17	25.5
2774.04	23
2774.91	27
2775.78	26.5
2776.65	24.5
2777.52	22
2778.39	26
2779.26	22
2780.13	26
2780.99	24
2781.86	24.5
2782.73	27.5
2783.6	26
2784.47	21
2785.34	28
2786.2	27
2787.07	27.5
2787.94	26
2788.81	23
2789.67	28
2790.54	26.5
2791.41	24.5
2792.27	28
2793.14	27
2794.01	24
2794.87	28
2795.74	28.5
2796.61	25
2797.47	25
2798.34	25.5
2799.21	28.5
2800.07	26.5
2800.94	26.5
2801.8	25
2802.67	25
2803.53	26.5
2804.4	26
2805.26	26
2806.13	24
2806.99	25
2807.86	25
2808.72	26.5
2809.59	28.5
2810.45	28
2811.32	27
2812.18	29
2813.04	24.5
2813.91	23.5
2814.77	24.5
2815.64	24
2816.5	28
2817.36	21
2818.22	25
2819.09	26
2819.95	26
2820.81	25.5
2821.68	24
2822.54	27
2823.4	26
2824.26	21.5
2825.13	28
2825.99	27.5
2826.85	27
2827.71	27.5
2828.57	25
2829.44	29
2830.3	26.5
2831.16	23
2832.02	23.5
2832.88	24.5
2833.74	26
2834.6	25.5
2835.46	24
2836.32	27
2837.18	26
2838.04	27
2838.9	27
2839.76	24.5
2840.62	28.5
2841.48	26
2842.34	25
2843.2	27
2844.06	28.5
2844.92	26.5
2845.78	27
2846.64	29.5
2847.5	26.5
2848.36	26
2849.22	25
2850.08	27
2850.93	24
2851.79	26.5
2852.65	25.5
2853.51	29
2854.37	24
2855.22	28
2856.08	26.5
2856.94	26.5
2857.8	25.5
2858.65	26
2859.51	21
2860.37	25
2861.23	25.5
2862.08	27
2862.94	28.5
2863.79	25.5
2864.65	26.5
2865.51	24.5
2866.36	26.5
2867.22	32
2868.08	28.5
2868.93	23.5
2869.79	25
2870.64	28
2871.5	28
2872.35	27.5
2873.21	30
2874.06	28
2874.92	31
2875.77	27
2876.63	30.5
2877.48	30
2878.34	33.5
2879.19	29.5
2880.05	33
2880.9	28.5
2881.76	32
2882.61	31.5
2883.46	35
2884.32	31
2885.17	32
2886.02	31
2886.88	33.5
2887.73	32.5
2888.58	38
2889.44	38
2890.29	41.5
2891.14	35
2891.99	42.5
2892.85	42
2893.7	43
2894.55	37
2895.4	45
2896.25	41.5
2897.11	46
2897.96	53
2898.81	52
2899.66	50.5
2900.51	52.5
2901.36	57.5
2902.21	57.5
2903.07	62
2903.92	64
2904.77	64
2905.62	68
2906.47	63.5
2907.32	68.5
2908.17	63.5
2909.02	59.5
2909.87	55
2910.72	56
2911.57	62.5
2912.42	51.5
2913.27	51.5
2914.12	45
2914.97	48
2915.81	46.5
2916.66	40.5
2917.51	38
2918.36	34
2919.21	41
2920.06	33.5
2920.91	34
2921.75	36
2922.6	27.5
2923.45	31
2924.3	33
2925.15	26
2925.99	34.5
2926.84	31
2927.69	33.5
2928.54	27.5
2929.38	28.5
2930.23	27.5
2931.08	25.5
2931.92	28
2932.77	29.5
2933.62	27
2934.46	30
2935.31	30
2936.16	26
2937	25
2937.85	27
2938.69	27.5
2939.54	24.5
2940.38	26.5
2941.23	30
2942.08	25
2942.92	30
2943.77	27.5
2944.61	28
2945.46	21
2946.3	26.5
2947.15	30
2947.99	28.5
2948.83	31
2949.68	28.5
2950.52	29
2951.37	32.5
2952.21	29
2953.05	31
2953.9	34
2954.74	33
2955.58	32
2956.43	34.5
2957.27	32.5
2958.11	36.5
2958.96	41.5
2959.8	34.5
2960.64	35.5
2961.48	43
2962.33	39.5
2963.17	39.5
2964.01	44.5
2964.85	39
2965.69	43
2966.54	39.5
2967.38	42.5
2968.22	38
2969.06	39
2969.9	40.5
2970.74	32
2971.58	37.0024
2972.43	36.9196
2973.27	35.5921
2974.11	33.9394
2974.95	33.4325
2975.79	32.7775
2976.63	31.5944
2977.47	28.2052
2978.31	30.6284
2979.15	28.9327
2979.99	30.3177
2980.83	26.4396
2981.67	28.1027
2982.51	29.1837
2983.35	28.2989
2984.19	29.3561
2985.03	25.9199
2985.86	28.8339
2986.7	22.0817
2987.54	26.8254
2988.38	27.5156
2989.22	25.3863
2990.06	27.1018
2990.9	26.049
2991.73	26.0232
2992.57	24.0801
2993.41	25.6861
2994.25	24.7071
2995.09	23.6521
2995.92	26.377
2996.76	23.8655
2997.6	23.8875
2998.44	26.2117
2999.27	24.9652
3000.11	24.7513
3000.95	23.6162
3001.78	26.5301
3002.62	24.0821
3003.46	23.9793
3004.29	21.0415
3005.13	23.2999
3005.96	24.8353
3006.8	25.7417
3007.64	25.5067
3008.47	24.8344
3009.31	22.3604
3010.14	23.3993
3010.98	25.9876
3011.81	23.2144
3012.65	24.3654
3013.48	24.2251
3014.32	24.6736
3015.15	22.6758
3015.99	23.1997
3016.82	23.6699
3017.66	24.4684
3018.49	23.7517
3019.33	25.5592
3020.16	23.9016
3020.99	22.3371
3021.83	24.8941
3022.66	24.9473
3023.5	23.5336
3024.33	24.6652
3025.16	22.008
3026	22.5803
3026.83	23.2203
3027.66	20.8605
3028.49	22.2201
3029.33	24.3996
3030.16	25.0874
3030.99	23.7782
3031.83	21.9636
3032.66	22.5495
3033.49	20.411
3034.32	22.267
3035.15	23.8764
3035.99	23.4378
3036.82	22.8107
3037.65	23.9365
3038.48	22.8796
3039.31	22.3452
3040.14	21.8981
3040.97	22.9521
3041.81	23.3918
3042.64	23.8766
3043.47	24.4439
3044.3	22.2934
3045.13	21.2358
3045.96	23.1966
3046.79	24.4583
3047.62	24.8044
3048.45	22.9478
3049.28	22.9107
3050.11	22.0825
3050.94	22.0364
3051.77	22.8497
3052.6	23.4491
3053.43	22.54
3054.26	22.682
3055.08	22.3966
3055.91	22.4107
3056.74	21.698
3057.26	22
3058.09	23
3058.92	28
3059.76	20
3060.59	28
3061.42	23.5
3062.25	24
3063.09	24.5
3063.92	23.5
3064.75	26
3065.58	21
3066.42	27.5
3067.25	25
3068.08	24
3068.91	28
3069.74	23
3070.57	24
3071.41	27
3072.24	21
3073.07	25.5
3073.9	24
3074.73	25
3075.56	21
3076.39	24.5
3077.22	21
3078.05	26.5
3078.88	24
3079.71	26
3080.54	24
3081.37	26.5
3082.2	26.5
3083.03	24.5
3083.86	22.5
3084.69	28
3085.52	23.5
3086.35	23
3087.18	20
3088.01	22
3088.84	20.5
3089.67	22
3090.5	21
3091.32	24
3092.15	26.5
3092.98	25.5
3093.81	23.5
3094.64	23.5
3095.47	22.5
3096.29	23
3097.12	25
3097.95	26.5
3098.78	25
3099.6	24.5
3100.43	21.5
3101.26	27
3102.09	21
3102.91	23
3103.74	20.5
3104.57	23
3105.39	23
3106.22	24.5
3107.05	23
3107.87	28
3108.7	22
3109.52	25
3110.35	22.5
3111.18	26.5
3112	22.5
3112.83	25.5
3113.65	22.5
3114.48	23
3115.3	23.5
3116.13	24
3116.95	23.5
3117.78	22.5
3118.6	25
3119.43	24.5
3120.25	21
3121.08	22
3121.9	23.5
3122.72	22
3123.55	27
3124.37	25
3125.2	21.5
3126.02	27
3126.84	23
3127.67	23.5
3128.49	22
3129.31	24
3130.14	21.5
3130.96	25
3131.78	27.5
3132.61	28
3133.43	23
3134.25	23
3135.07	27.5
3135.89	21
3136.72	22
3137.54	27
3138.36	24.5
3139.18	24
3140	23
3140.83	23.5
3141.65	21.5
3142.47	25.5
3143.29	27
3144.11	23
3144.93	23.5
3145.75	22.5
3146.57	23
3147.4	26.5
3148.22	25
3149.04	23
3149.86	22
3150.68	25
3151.5	26
3152.32	26.5
3153.14	22.5
3153.96	25.5
3154.78	23.5
3155.59	23.5
3156.42	20
3157.23	22
3158.05	22
3158.87	26.5
3159.69	27
3160.51	25
3161.33	24
3162.15	26
3162.97	24
3163.78	28
3164.6	27.5
3165.42	24.5
3166.24	24.5
3167.06	25
3167.87	23
3168.69	25
3169.51	26.5
3170.33	20.5
3171.14	20
3171.96	24
3172.78	21.5
3173.6	26
3174.41	27
3175.23	25.5
3176.05	27
3176.86	24
3177.68	25
3178.5	21.5
3179.31	25
3180.13	24
3180.94	21.5
3181.76	24
3182.58	22.5
3183.39	23
3184.21	26.5
3185.02	24.5
3185.84	24.5
3186.65	26
3187.47	28
3188.28	24.5
3189.1	22.5
3189.91	24
3190.73	25
3191.54	26
3192.36	26
3193.17	27
3193.98	23
3194.8	23.5
3195.61	21
3196.43	26
3197.24	23
3198.05	24.5
3198.87	23
3199.68	23
3200.49	23.5
3201.31	24
3202.12	26
3202.93	26.5
3203.75	24.5
3204.56	25
3205.37	21.5
3206.18	24.5
3207	25.5
3207.81	25.5
3208.62	22.5
3209.43	24.5
3210.24	21
3211.06	25
3211.87	24
3212.68	22.5
3213.49	24.5
3214.3	24.5
3215.11	20.5
3215.92	24
3216.73	26
3217.55	22
3218.36	25
3219.17	21.5
3219.98	20.5
3220.79	26
3221.6	23.5
3222.41	24.5
3223.22	26
3224.03	24.5
3224.84	27
3225.65	23
3226.46	22
3227.27	26
3228.08	25
3228.89	24.5
3229.7	22.5
3230.5	27.5
3231.31	25.5
3232.12	30
3232.93	25
3233.74	28
3234.55	24
3235.36	25
3236.16	24.5
3236.97	26.5
3237.78	23
3238.59	25.5
3239.4	24.5
3240.2	25
3241.01	21
3241.82	28.5
3242.63	24.5
3243.43	27
3244.24	22.5
3245.05	24.5
3245.85	27.5
3246.66	23
3247.47	28.5
3248.27	20.5
3249.08	25
3249.89	26
3250.69	24
3251.5	27.5
3252.31	26
3253.11	24
3253.92	24
3254.72	20.5
3255.53	23
3256.33	26.5
3257.14	27
3257.94	27
3258.75	22.5
3259.55	20.5
3260.36	23
3261.16	25
3261.97	24
3262.77	23
3263.58	26
3264.38	22
3265.19	26
3265.99	15.5
3266.79	27
3267.6	26
3268.4	23
3269.21	23.5
3270.01	25.5
3270.81	24
3271.62	26
3272.42	25
3273.22	24
3274.03	20.5
3274.83	22.5
3275.63	25
3276.43	22
3277.24	23
3278.04	25.5
3278.84	25
3279.64	23.5
3280.45	22.5
3281.25	24.5
3282.05	25
3282.85	28.5
3283.65	22
3284.45	21
3285.26	26
3286.06	24
3286.86	27
3287.66	22.5
3288.46	25
3289.26	23
3290.06	25
3290.86	23
3291.66	22.5
3292.46	23.5
3293.26	27
3294.06	27
3294.86	26
3295.66	23.5
3296.46	28.5
3297.26	23
3298.06	26.5
3298.86	22.5
3299.66	23
3300.46	22
3301.26	26.5
3302.06	26.5
3302.86	21.5
3303.66	25
3304.46	27
3305.25	25
3306.05	26.5
3306.85	21
3307.65	22.5
3308.45	19.5
3309.25	24
3310.04	29
3310.84	24
3311.64	30
3312.44	24.5
3313.23	27.5
3314.03	25
3314.83	28
3315.63	25
3316.42	25
3317.22	23
3318.02	25.5
3318.81	24.5
3319.61	29
3320.41	26.5
3321.2	22
3322	19
3322.8	26.5
3323.59	25
3324.39	24.5
3325.18	23.5
3325.98	25
3326.78	27.5
3327.57	26.5
3328.37	22
3329.16	26
3329.96	25
3330.75	23
3331.55	25
3332.34	22
3333.14	24
3333.93	28.5
3334.73	25.5
3335.52	23
3336.31	28.5
3337.11	25.5
3337.9	24
3338.7	26
3339.49	24
3340.28	21
3341.08	25
3341.87	24
3342.66	24.5
3343.46	25
3344.25	22
3345.04	23.5
3345.84	24.5
3346.63	22
3347.42	25
3348.22	23.5
3349.01	27.5
3349.8	23
3350.59	25
3351.39	27.5
3352.18	23
3352.97	21
3353.76	26.5
3354.55	27.5
3355.35	21
3356.14	23.5
3356.93	24
3357.72	25
3358.51	20.5
3359.3	22.5
3360.09	24.5
3360.88	29.5
3361.67	22
3362.46	25
3363.26	21.5
3364.05	22
3364.84	23.5
3365.63	26
3366.42	20.5
3367.21	26.5
3368	27.5
3368.79	28
3369.58	26
3370.37	24.5
3371.15	27
3371.94	23
3372.73	25.5
3373.52	28
3374.31	26
3375.1	24.5
3375.89	27
3376.68	24
3377.47	25.5
3378.26	26
3379.04	24.5
3379.83	20
3380.62	27
3381.41	26.5
3382.2	21
3382.98	24.5
3383.77	26.5
3384.56	21
3385.35	21.5
3386.13	27.5
3386.92	25
3387.71	25.5
3388.5	23
3389.28	26
3390.07	21
3390.86	24
3391.64	23.5
3392.43	24
3393.22	23
3394	25.5
3394.79	24
3395.57	20
3396.36	23
3397.15	27
3397.93	27.5
3398.72	28
3399.5	22
3400.29	22
3401.07	26
3401.86	24.5
3402.65	23.5
3403.43	26.5
3404.21	23.5
3405	21.5
3405.78	24
3406.57	27.5
3407.35	22.5
3408.14	23
3408.92	24
3409.71	23
3410.49	22.5
3411.27	24
3412.06	24
3412.84	28.5
3413.62	24
3414.41	23.5
3415.19	19
3415.97	22.5
3416.76	23.5
3417.54	23.5
3418.32	22.5
3419.11	23
3419.89	25.5
3420.67	21
3421.46	25
3422.24	22
3423.02	25
3423.8	26
3424.58	23.5
3425.37	25
3426.15	25
3426.93	23.5
3427.71	23.5
3428.49	22.5
3429.27	26
3430.05	25
3430.84	23.5
3431.62	24
3432.4	22
3433.18	27.5
3433.96	23.5
3434.74	23.5
3435.52	24.5
3436.3	25.5
3437.08	21
3437.86	27
3438.64	23.5
3439.42	25.5
3440.2	22.5
3440.98	24
3441.76	22
3442.54	21.5
3443.32	26.5
3444.1	25
3444.88	23
3445.66	24.5
3446.44	26
3447.22	29.5
3448	25
3448.77	21.5
3449.55	25
3450.33	22.5
3451.11	22.5
3451.89	24
3452.67	24.5
3453.45	25.5
3454.22	23
3455	24
3455.78	23.5
3456.56	26.5
3457.33	21
3458.11	26
3458.89	22.5
3459.67	24
3460.44	22.5
3461.22	24.5
3462	22
3462.77	27
3463.55	26.5
3464.33	25.5
3465.1	25
3465.88	26
3466.66	22.5
3467.43	21
3468.21	23.5
3468.98	25.5
3469.76	22.5
3470.54	28
3471.31	25.5
3472.09	24.5
3472.86	24
3473.64	26.5
3474.41	23.5
3475.19	23
3475.96	25
3476.74	21
3477.51	26.5
3478.29	21.5
3479.06	31.5
3479.84	23
3480.61	21.5
3481.39	24.5
3482.16	27.5
3482.93	24.5
3483.71	22.5
3484.48	24.5
3485.25	27.5
3486.03	25
3486.8	27
3487.57	22
3488.35	22.5
3489.12	25.5
3489.89	27
3490.67	24.5
3491.44	31.5
3492.21	28.5
3492.99	22.5
3493.76	23
3494.53	25.5
3495.3	21
3496.08	24.5
3496.85	21
3497.62	24
3498.39	26.5
3499.16	25
3499.93	25.5
