#Acq. time (s)=	5
#Accumulations=	5
#Range (cm-¹)=	100...3500
#Windows=	4
#Autofocus=	Off
#AutoExposure=	Off
#Spike filter=	Multiple accum.
#Delay time (s)=	0
#Binning=	1
#Readout mode=	Signal
#DeNoise=	Off
#ICS correction=	Off
#Dark correction=	Off
#Inst. Process=	Off
#Instrument=	LabRAM HR Evol
#Detector=	Syncerity OE
#Objective=	x100_VIS
#Grating=	600 (500nm)
#ND Filter=	25%
#Laser=	633nm_Edge
#Hole=	100.021
#Range=	Visible
#Project=	verificaciones
#Sample=	at5
#Site=	plain
#Title=	bolusat5plain
#Remark=	
#Date=	13.01.2026 16:39
#Acquired=	13.01.2026 16:39:47
100.692	22.5
101.975	28.5
103.258	30
104.542	28
105.824	27
107.107	27
108.39	23
109.672	26.5
110.954	26.5
112.236	24.5
113.519	23
114.8	26.5
116.081	27
117.362	27
118.643	25
119.924	22
121.204	23.5
122.484	26.5
123.764	23
125.044	20
126.323	25.5
127.603	23
128.882	27.5
130.161	23.5
131.438	27.5
132.716	24.5
133.995	27.5
135.273	27.5
136.55	27
137.828	23
139.106	29.5
140.383	26
141.66	28.5
142.937	25
144.213	26
145.488	23
146.764	24.5
148.04	28.5
149.316	26
150.592	23
151.867	27.5
153.141	23.5
154.416	28
155.69	26
156.965	29
158.239	23.5
159.512	27
160.786	27
162.059	26
163.333	26.5
164.605	22
165.878	30.5
167.15	28.5
168.423	25.5
169.694	26.5
170.966	25.5
172.238	27.5
173.51	29
174.78	27
176.052	28
177.323	25.5
178.592	26
179.863	22
181.134	25
182.403	29
183.673	25
184.943	28.5
186.211	27.5
187.481	28.5
188.749	27.5
190.018	25.5
191.287	33
192.554	28.5
193.822	26
195.089	24
196.357	27.5
197.625	28.5
198.891	27.5
200.159	29.5
201.425	25.5
202.692	26
203.957	25
205.224	30
206.489	28
207.755	27
209.02	30
210.286	27.5
211.55	31
212.815	24.5
214.079	21
215.344	25
216.607	28
217.872	27.5
219.135	25
220.399	26.5
221.662	25
222.924	25.5
224.187	25
225.449	27.5
226.713	28.5
227.974	25
229.235	23
230.498	27.5
231.759	27
233.019	24.5
234.281	27
235.542	27
236.802	23.5
238.063	28
239.323	28
240.582	26.5
241.843	24.5
243.102	24.5
244.361	24.5
245.621	26
246.879	24.5
248.138	26.5
249.396	27
250.655	26.5
251.913	28.5
253.17	29
254.427	23
255.686	26
256.943	21.5
258.199	25.5
259.456	25.5
260.712	25
261.969	29.5
263.225	23.5
264.481	29.5
265.736	23
266.991	28
268.246	23.5
269.502	28.5
270.757	29
272.011	26.5
273.265	23.5
274.519	28
275.773	30.5
277.027	25
278.28	24.5
279.533	26.5
280.786	26.5
282.04	25
283.293	26
284.545	26
285.798	27
287.049	23
288.301	22.5
289.553	28.5
290.804	27
292.055	24
293.306	26
294.557	26.5
295.807	29
297.058	23
298.308	24
299.558	25.5
300.808	24
302.057	26
303.305	24.5
304.554	25
305.803	25.5
307.052	23.5
308.3	29
309.549	25.5
310.797	28
312.045	27.5
313.292	26.5
314.54	29
315.786	27
317.033	30
318.28	28
319.526	25.5
320.773	25
322.019	28.5
323.264	28
324.51	24
325.755	25
327.001	27
328.246	25
329.49	27.5
330.735	24.5
331.979	28
333.224	24
334.467	23.5
335.711	24
336.955	28
338.199	23.5
339.441	25
340.684	25
341.927	23
343.168	25.5
344.411	22
345.654	26.5
346.895	26.5
348.137	24
349.379	27
350.619	20.5
351.86	26
353.102	24
354.341	29
355.582	31
356.821	27
358.062	20.5
359.302	26.5
360.541	25.5
361.781	27.5
363.019	26.5
364.259	26.5
365.496	28
366.736	24
367.974	26
369.212	20.5
370.45	22
371.687	27
372.925	28
374.162	25.5
375.399	28.5
376.635	27
377.873	25.5
379.109	26
380.344	29
381.581	26.5
382.816	25.5
384.052	25.5
385.287	28
386.523	28.5
387.757	26
388.991	30
390.227	27
391.46	22
392.695	31
393.928	29
395.162	29
396.396	28
397.629	22.5
398.861	24
400.095	20.5
401.327	21
402.559	29
403.792	31
405.024	26.5
406.255	28.5
407.488	28.5
408.719	25
409.949	23
411.18	28
412.412	24.5
413.642	24
414.872	30
416.102	22.5
417.333	29
418.562	23.5
419.791	28.5
421.02	28
422.249	25
423.479	25.5
424.707	24
425.935	27.5
427.163	26
428.391	26.5
429.619	29
430.848	26
432.075	26
433.302	25.5
434.529	27
435.755	25.5
436.982	31.5
438.208	26.5
439.434	27
440.66	29.5
441.885	25
443.111	26.5
444.338	21.5
445.563	26
446.788	25
448.012	24.5
449.237	26.5
450.461	28
451.685	29
452.909	27.5
454.133	23
455.356	27.5
456.579	25.5
457.802	28.5
459.025	24
460.247	28
461.469	30
462.691	28.5
463.914	27
465.136	27
466.357	29
467.579	26
468.8	31
470.021	25.5
471.242	30
472.462	29
473.682	28.5
474.903	24.5
476.123	28.5
477.343	25
478.563	29.5
479.782	32.5
481	30
482.219	31
483.438	29.5
484.657	30.5
485.874	26.5
487.093	28
488.311	28
489.529	32.5
490.747	29
491.963	28
493.181	32
494.398	30.5
495.614	30
496.83	26
498.047	27.5
499.264	24.5
500.479	28
501.695	28
502.911	30
504.125	27
505.34	24.5
506.554	27
507.769	25
508.984	27.5
510.198	30.5
511.412	29.5
512.627	27.5
513.839	26
515.053	30
516.266	24
517.479	29.5
518.691	27
519.905	24.5
521.118	29
522.329	23
523.542	26.5
524.753	29
525.965	29.5
527.176	28
528.388	29
529.598	28
530.809	29
532.019	25
533.23	28
534.44	24.5
535.649	29
536.86	28
538.068	31
539.279	28
540.487	26
541.697	25.5
542.905	26.5
544.113	23
545.322	26.5
546.53	26.5
547.737	27.5
548.946	26.5
550.153	27
551.361	25
552.568	19.5
553.774	27.5
554.982	28.5
556.188	24
557.394	27.5
558.599	28
559.806	28
561.012	26.5
562.217	26
563.423	23.5
564.628	26.5
565.832	26
567.036	27
568.241	28
569.446	28.5
570.65	23
571.853	25
573.057	24.5
574.26	23
575.464	34
576.667	27.5
577.87	24
579.072	26.5
580.274	27.5
581.477	25
582.68	27
583.881	26.5
585.083	24
586.284	26
587.485	26
588.686	29
589.887	30.5
591.087	32
592.288	25.5
593.488	26
594.688	27.5
595.888	31.5
597.087	26.5
598.287	22.5
599.486	28
600.685	27.5
601.884	26.5
603.082	24
604.281	24.5
605.479	25
606.677	26
607.875	27
609.073	24
610.27	26.5
611.468	25.5
612.665	23.5
613.862	26.5
615.058	26.5
616.255	26
617.451	24
618.648	28
619.842	26
621.038	27
622.234	29
623.429	29.5
624.624	23
625.819	27
627.013	26.5
628.207	27.5
629.402	29
630.596	24
631.79	21
632.983	28.5
634.177	26.5
635.37	25.5
636.564	29.5
637.755	27.5
638.948	27.5
640.141	24.5
641.334	26.5
642.525	26.5
643.717	28
644.909	25.5
646.099	29
647.291	25.5
648.483	30.5
649.674	27.5
650.864	27
652.055	29
653.244	30
654.435	23
655.625	30
656.814	31.5
658.004	27
659.193	26
660.382	27
661.571	25.5
662.759	28
663.948	28
665.135	27.5
666.324	30
667.511	29.5
668.7	26
669.886	24
671.074	27
672.262	25
673.448	29.5
674.634	27.5
675.821	30.5
677.007	28.5
678.194	27
679.379	24.5
680.565	29
681.75	27
682.936	29.5
684.121	25
685.305	27
686.491	27.5
687.675	28
688.86	26.5
690.043	29.5
691.227	28.5
692.411	28
693.594	28
694.777	32
695.961	26.5
697.144	26
698.326	30
699.509	29.5
700.691	27.5
701.873	30
703.056	29.5
704.237	28
705.419	29
706.599	28.5
707.782	26
708.962	26.5
710.143	31
711.323	27.5
712.504	25
713.684	27.5
714.864	29
716.043	29
717.223	26
718.403	24
719.582	27
720.761	27
721.94	24.5
723.118	32
724.296	25.5
725.474	24.5
726.652	28
727.831	29.5
729.009	27
730.186	28
731.363	25
732.54	27.5
733.717	28.5
734.893	29.5
736.07	25
737.246	26
738.422	26.5
739.598	27.5
740.773	23
741.949	27.5
743.124	24
744.299	24
745.474	24
746.649	25
747.823	28
748.997	26.5
750.172	27
751.346	26.5
752.519	27
753.693	22
754.867	22.5
756.038	25.5
757.211	25
758.384	24.5
759.557	25
760.73	26
761.902	27.5
763.074	31.5
764.246	29.5
765.417	27.5
766.588	27
767.76	25
768.931	26.5
770.102	28
771.271	24
772.442	23
773.613	25.5
774.783	26.5
775.952	25
777.122	28
778.291	26
779.461	26
780.629	28.5
781.798	26
782.967	23
784.135	26.5
785.304	24.5
786.472	31
787.639	28.5
788.807	27.5
789.975	25.5
791.142	27
792.309	33
793.477	27
794.642	29.5
795.81	27.5
796.975	24
798.142	27.5
799.308	24.5
800.473	29.5
801.639	25
802.804	28.5
803.97	27
805.134	26
806.299	30
807.463	25.5
808.628	27
809.792	28
810.957	24
812.12	27
813.284	27
814.447	28.5
815.611	29
816.773	28
817.937	28.5
819.099	28
820.261	28
821.424	26.5
822.585	30
823.748	33.5
824.909	28
826.07	31.5
827.232	28
828.393	25
829.554	26.5
830.715	26.5
831.875	24.5
833.035	26.5
834.196	27
835.356	25.5
836.515	23.5
837.676	27
838.835	21.5
839.994	30
841.152	28
842.312	24
843.47	25
844.629	28
845.786	26
846.946	24
848.103	22
849.261	26.5
850.418	23
851.575	25
852.733	29.5
853.89	27
855.046	26.5
856.203	25.5
857.359	26
858.515	26
859.67	27
860.827	25.5
861.983	25
863.138	26.5
864.293	27.5
865.448	24.5
866.603	28.5
867.757	28.5
868.912	25
870.066	28.5
871.22	26
872.374	27
873.527	24.5
874.681	25
875.834	26.5
876.987	23.5
878.14	27.5
879.293	29.5
880.445	26
881.598	28
882.75	26
883.902	26
885.054	24.5
886.206	30.5
887.357	29.5
888.507	26.5
889.658	25.5
890.809	26
891.96	28.5
893.111	25
894.261	24
895.411	23
896.561	24.5
897.71	22.5
898.86	21.5
900.009	25.5
901.159	26.5
902.308	23
903.455	26
904.604	26
905.753	23
906.901	26
908.048	25.5
909.197	26
910.344	25
911.492	31.5
912.639	28.5
913.786	25.5
914.933	28.5
916.079	26.5
917.226	26
918.373	22.5
919.518	26.5
920.664	25
921.81	24
922.955	28
924.101	24.5
925.245	28
926.391	25.5
927.536	26
928.68	20
929.825	26.5
930.968	24.5
932.113	27
933.256	25
934.4	26
935.543	26.5
936.687	23
937.83	24.5
938.973	23.5
940.115	26.5
941.258	24
942.399	27.5
943.542	25
944.684	26.5
945.826	24.5
946.967	26
948.109	25
949.25	25.5
950.392	29.5
951.532	28.5
952.672	23
953.813	26
954.953	27.5
956.093	22
957.233	25
958.373	26
959.512	27.5
960.652	26.5
961.791	26
962.929	22
964.069	26
965.207	25
966.345	23
967.484	24
968.622	22
969.759	24
970.896	24.25
972.035	21
973.172	26
974.309	27.5
975.445	28
976.582	29
977.719	23
978.855	24.5
979.991	24
981.127	26.5
982.263	28
983.398	27.5
984.535	27.5
985.67	23
986.804	23
987.939	28.5
989.074	24.5
990.208	26.5
991.342	24
992.476	23
993.61	26
994.744	29
995.877	22
997.01	26.5
998.143	25
999.276	23
1000.41	25
1001.54	23
1002.67	27.5
1003.81	27
1004.94	23
1006.07	26
1007.2	25
1008.33	27.5
1009.47	27.5
1010.6	24
1011.73	24
1012.86	23.5
1013.99	26
1015.12	27
1016.25	25
1017.38	25
1018.51	24
1019.64	26.5
1020.77	23.5
1021.9	28.5
1023.03	27
1024.15	23.5
1025.28	28
1026.41	27.5
1027.54	24
1028.67	25
1029.8	26
1030.92	19.5
1032.05	24.5
1033.18	21
1034.31	25.5
1035.43	25.5
1036.56	22.5
1037.69	26.5
1038.81	24.5
1039.94	21
1041.07	24
1042.19	24
1043.32	20
1044.44	21
1045.57	27.5
1046.69	25.5
1047.82	25.5
1048.94	27.5
1050.07	24
1051.19	24
1052.32	26
1053.44	27.5
1054.57	23
1055.69	26
1056.81	27.5
1057.94	21
1059.06	28
1060.18	21
1061.31	24.5
1062.43	26.5
1063.55	27
1064.67	24.5
1065.8	26
1066.92	23.5
1068.04	25.5
1069.16	26
1070.28	26
1071.4	26.5
1072.52	27
1073.64	25
1074.76	27.5
1075.89	22
1077.01	21
1078.13	24.5
1079.25	27
1080.37	24.5
1081.49	23
1082.6	22.5
1083.72	26
1084.84	25.5
1085.96	27
1087.08	23.5
1088.2	25
1089.32	25.5
1090.43	24
1091.55	26.5
1092.67	26
1093.79	22
1094.91	24.5
1096.02	21.5
1097.14	28
1098.26	25.5
1099.37	25
1100.49	23
1101.61	22.5
1102.72	20
1103.84	24.5
1104.95	24
1106.07	24
1107.18	25
1108.3	22.5
1109.41	22
1110.53	25.5
1111.64	24
1112.76	21.5
1113.87	27.5
1114.99	23.5
1116.1	26.5
1117.21	24
1118.33	24
1119.44	23
1120.55	20.5
1121.67	25.5
1122.78	22
1123.89	22.5
1125	25
1126.12	24.5
1127.23	23.5
1128.34	22
1129.45	25.5
1130.56	22
1131.68	29
1132.79	24.5
1133.9	24
1135.01	25
1136.12	23
1137.23	25.5
1138.34	22.5
1139.45	26.5
1140.56	26
1141.67	24
1142.78	22
1143.89	20.5
1145	21
1146.11	22.5
1147.22	25.5
1148.32	20.5
1149.43	22.5
1150.54	25.5
1151.65	28
1152.76	27.5
1153.86	21
1154.97	26
1156.08	25
1157.19	22.5
1158.29	22.5
1159.4	22.5
1160.51	25.5
1161.61	28
1162.72	21
1163.83	26
1164.93	25.5
1166.04	22.5
1167.14	25
1168.25	26
1169.35	24
1170.46	26
1171.56	25
1172.67	24
1173.77	19.5
1174.88	23.5
1175.98	20
1177.08	24.5
1178.19	27.5
1179.29	27.5
1180.4	27
1181.5	24.5
1182.6	24
1183.71	23.5
1184.81	25
1185.91	23.5
1187.01	23.5
1188.12	26.5
1189.22	23
1190.32	26.5
1191.42	24
1192.52	25
1193.62	22
1194.72	24.9862
1195.83	24.9248
1196.93	22.5146
1198.03	23.9965
1199.13	24.0698
1200.23	25.9848
1201.33	25.8878
1202.43	20.682
1203.53	28.0751
1204.63	23.1608
1205.73	23.0848
1206.83	26.3068
1207.92	24.1038
1209.02	22.4502
1210.12	22.5466
1211.22	23.3117
1212.32	24.4918
1213.42	24.3769
1214.51	22.2003
1215.61	25.0283
1216.71	24.2306
1217.81	20.8837
1218.9	23.186
1220	25.9375
1221.1	24.4884
1222.19	25.3811
1223.29	23.0711
1224.39	24.2985
1225.48	21.8244
1226.58	26.1812
1227.68	22.8291
1228.77	20.9195
1229.87	21.4996
1230.96	22.0276
1232.06	23.1067
1233.15	22.7026
1234.25	25.3078
1235.34	21.4297
1236.43	21.35
1237.53	23.1449
1238.62	24.7424
1239.72	19.8307
1240.81	21.5631
1241.9	23.0419
1243	21.6428
1244.09	23.8812
1245.18	23.3544
1246.27	19.1988
1247.37	25.8311
1248.46	24.0847
1249.55	23.59
1250.64	23.9541
1251.74	23.0062
1252.83	21.7209
1253.92	21.5573
1255.01	21.1186
1256.1	22.4926
1257.19	21.8303
1258.28	26.3968
1259.38	22.2016
1260.46	22.7367
1261.56	23.2268
1262.65	23.4189
1263.74	22.871
1264.82	22.7737
1265.91	23.2865
1267	22.7734
1268.09	22.5577
1269.18	23.4727
1270.27	21.6342
1271.36	26.1846
1272.45	23.9907
1273.54	21.8808
1274.63	20.0347
1275.71	23.29
1276.8	23.0204
1277.89	24.915
1278.98	22.1781
1280.06	24.666
1281.15	21.633
1282.24	21.8756
1283.32	22.3715
1284.41	23.5349
1285.5	23.7652
1286.58	22.3275
1287.67	26.2611
1288.76	22.6666
1289.84	23.1707
1290.93	25.2698
1292.01	25.0985
1293.1	25.6214
1294.18	23.4942
1295.27	23.4955
1296.35	22.4607
1297.44	24.2521
1298.52	24.0989
1299.6	22.957
1300.69	23.8219
1301.77	25.6564
1302.86	21.4269
1303.94	21.4326
1305.02	23.8326
1306.11	23.0755
1306.41	22.5
1307.5	25.5
1308.59	18.5
1309.68	24.5
1310.77	19.5
1311.85	23
1312.94	24
1314.03	22
1315.11	24.5
1316.2	23.5
1317.29	22.5
1318.37	24.5
1319.46	26
1320.55	21
1321.63	26
1322.72	22.5
1323.8	22.5
1324.89	22.5
1325.98	27.5
1327.06	20
1328.15	27
1329.23	23.5
1330.31	26
1331.4	25.5
1332.48	19
1333.57	22
1334.65	27
1335.74	21
1336.82	24.5
1337.9	21
1338.99	26.5
1340.07	20
1341.15	28
1342.24	27
1343.32	22
1344.4	25
1345.48	21
1346.56	21
1347.65	24
1348.73	21
1349.81	23
1350.89	26
1351.97	22
1353.05	21
1354.13	24.5
1355.21	21
1356.29	22.5
1357.37	25
1358.46	22
1359.54	23.5
1360.62	21
1361.69	23.5
1362.77	24
1363.85	25
1364.93	23
1366.01	25
1367.09	27.5
1368.17	25
1369.25	26
1370.33	16.5
1371.41	25.5
1372.48	18
1373.56	22
1374.64	26
1375.72	24
1376.79	26
1377.87	28
1378.95	26
1380.02	23
1381.1	23
1382.18	21
1383.25	21
1384.33	23.5
1385.4	24
1386.48	20
1387.56	25
1388.63	23.5
1389.71	25.5
1390.78	23
1391.86	20
1392.93	23
1394.01	26
1395.08	22.5
1396.15	25
1397.23	22.5
1398.3	20
1399.38	22
1400.45	27
1401.52	25.5
1402.6	24
1403.67	23.5
1404.74	25.5
1405.81	25
1406.89	22.5
1407.96	22
1409.03	25.5
1410.1	24.5
1411.17	24.5
1412.25	24.5
1413.32	22
1414.39	25
1415.46	20
1416.53	21.5
1417.6	25
1418.67	22.5
1419.74	25
1420.81	25.5
1421.88	22.5
1422.95	26
1424.02	29
1425.09	25
1426.16	23
1427.23	23
1428.3	25
1429.37	26
1430.44	22
1431.51	27.5
1432.58	24.5
1433.64	24
1434.71	22
1435.78	24.5
1436.85	23.5
1437.92	19.5
1438.98	21
1440.05	23
1441.12	26
1442.18	25.5
1443.25	24
1444.32	22.5
1445.38	27.5
1446.45	29
1447.52	25.5
1448.58	24.5
1449.65	29
1450.71	20.5
1451.78	25
1452.84	23.5
1453.91	28
1454.97	25
1456.04	25.5
1457.1	23.5
1458.17	22.5
1459.23	24
1460.3	25.5
1461.36	23
1462.42	26.5
1463.49	21
1464.55	24
1465.61	26.5
1466.68	21.5
1467.74	26.5
1468.8	30.5
1469.86	21.5
1470.93	19.5
1471.99	26.5
1473.05	27
1474.11	24.5
1475.17	25.5
1476.24	22.5
1477.3	24
1478.36	24.5
1479.42	24
1480.48	24.5
1481.54	21.5
1482.6	22
1483.66	23
1484.72	24.5
1485.78	22
1486.84	27
1487.9	24.5
1488.96	20.5
1490.02	26.5
1491.08	25
1492.14	27.5
1493.2	27.5
1494.26	25
1495.31	24
1496.37	22
1497.43	23.5
1498.49	23
1499.55	25.5
1500.6	24
1501.66	21.5
1502.72	26.5
1503.78	26
1504.83	23.5
1505.89	25
1506.95	23.5
1508	23
1509.06	26
1510.12	23
1511.17	24.5
1512.23	22.5
1513.28	22.5
1514.34	25
1515.39	23
1516.45	21.5
1517.5	24.5
1518.56	22.5
1519.61	25.5
1520.67	25
1521.72	15.5
1522.78	24.5
1523.83	25.5
1524.88	25.5
1525.94	25
1526.99	26
1528.05	25.5
1529.1	24
1530.15	27
1531.2	25
1532.26	31.5
1533.31	24
1534.36	26.5
1535.41	25
1536.47	22
1537.52	25
1538.57	24.5
1539.62	27
1540.67	24.5
1541.72	21
1542.77	27
1543.83	26.5
1544.88	26.5
1545.93	21
1546.98	24.5
1548.03	21.5
1549.08	23.5
1550.13	24.5
1551.18	24
1552.23	23.5
1553.28	24
1554.32	21
1555.37	25.5
1556.42	26.5
1557.47	27
1558.52	28
1559.57	26
1560.62	24
1561.67	22.5
1562.71	23.5
1563.76	23.5
1564.81	23.5
1565.86	22.5
1566.9	23.5
1567.95	26
1569	26.5
1570.04	23
1571.09	26.5
1572.14	21.5
1573.18	27
1574.23	23
1575.27	24
1576.32	26
1577.37	26
1578.41	22
1579.46	26.5
1580.5	27.5
1581.55	22.5
1582.59	22
1583.64	26
1584.68	25
1585.72	20
1586.77	24
1587.81	20
1588.86	25
1589.9	26
1590.94	25
1591.99	26
1593.03	24.5
1594.07	27
1595.12	25.5
1596.16	24
1597.2	26
1598.24	26
1599.29	21
1600.33	24
1601.37	23
1602.41	25
1603.45	25
1604.49	25.5
1605.53	22.5
1606.58	24
1607.62	24
1608.66	25
1609.7	21
1610.74	26.5
1611.78	21
1612.82	25
1613.86	27
1614.9	24.5
1615.94	19
1616.98	29
1618.02	27.5
1619.06	26
1620.09	25
1621.13	29
1622.17	26
1623.21	27.5
1624.25	24
1625.29	25
1626.32	24.5
1627.36	25.5
1628.4	21
1629.44	25
1630.47	26
1631.51	22.5
1632.55	27
1633.58	23
1634.62	26.5
1635.66	24
1636.69	27
1637.73	24
1638.77	27
1639.8	23
1640.84	25
1641.87	28.5
1642.91	29
1643.94	26.5
1644.98	28
1646.01	23
1647.05	26
1648.08	27
1649.12	23.5
1650.15	25
1651.18	23.5
1652.22	25
1653.25	22.5
1654.29	20
1655.32	24.5
1656.35	22.5
1657.39	25
1658.42	22
1659.45	24.5
1660.48	24.5
1661.52	22.5
1662.55	22.5
1663.58	23
1664.61	28.5
1665.64	22
1666.68	26.5
1667.71	25.5
1668.74	26
1669.77	25.5
1670.8	20
1671.83	28
1672.86	25.5
1673.89	23
1674.92	26
1675.95	28
1676.98	23
1678.01	22
1679.04	24.5
1680.07	22
1681.1	27
1682.13	25
1683.16	22
1684.19	26.5
1685.22	23.5
1686.25	25
1687.27	21.5
1688.3	25
1689.33	23
1690.36	23.5
1691.38	24
1692.41	24
1693.44	21.5
1694.47	26
1695.49	27.5
1696.52	25
1697.55	24
1698.57	29
1699.6	25.5
1700.63	28
1701.65	23
1702.68	21
1703.7	22.5
1704.73	26.5
1705.76	25
1706.78	23
1707.81	20.5
1708.83	28
1709.86	26
1710.88	23
1711.91	24
1712.93	27.5
1713.95	24.5
1714.98	24.5
1716	24.5
1717.03	24
1718.05	24.5
1719.07	28
1720.1	20.5
1721.12	25.5
1722.14	28
1723.16	27
1724.19	28
1725.21	26
1726.23	26
1727.25	28.5
1728.28	23.5
1729.3	22.5
1730.32	22
1731.34	27.5
1732.36	23
1733.38	24
1734.41	22.5
1735.43	23
1736.45	21
1737.47	26
1738.49	26
1739.51	23.5
1740.53	26.5
1741.55	24
1742.57	24
1743.59	24.5
1744.61	27
1745.63	24.5
1746.64	24
1747.66	26
1748.68	26
1749.7	26
1750.72	19.5
1751.74	22.5
1752.76	26.5
1753.77	22
1754.79	30
1755.81	24.5
1756.83	25
1757.84	25
1758.86	21
1759.88	27
1760.9	28.5
1761.91	24.5
1762.93	29.5
1763.95	24.5
1764.96	25
1765.98	25
1766.99	26
1768.01	24.5
1769.02	27
1770.04	24
1771.06	25
1772.07	22.5
1773.09	23.5
1774.1	26
1775.12	26.5
1776.13	25.5
1777.14	22.5
1778.16	22.5
1779.17	25
1780.19	25
1781.2	21
1782.21	24.5
1783.23	24.5
1784.24	24.5
1785.25	26.5
1786.27	27.5
1787.28	24
1788.29	26
1789.3	23.5
1790.32	25
1791.33	25.5
1792.34	26
1793.35	28.5
1794.36	24.5
1795.38	23
1796.39	26.5
1797.4	25
1798.41	23
1799.42	24
1800.43	24.5
1801.44	28
1802.45	25.5
1803.46	25
1804.47	25.5
1805.48	25.5
1806.49	25
1807.5	23.5
1808.51	22
1809.52	27
1810.53	25.5
1811.54	27
1812.55	26
1813.56	27
1814.57	24.5
1815.57	25
1816.58	24.5
1817.59	24
1818.6	23
1819.61	25.5
1820.61	23
1821.62	25.5
1822.63	23
1823.64	25
1824.64	23.5
1825.65	24
1826.66	26
1827.66	25
1828.67	24
1829.68	24
1830.68	24
1831.69	23.5
1832.69	23.5
1833.7	24.5
1834.7	27.5
1835.71	22.5
1836.71	21
1837.72	25
1838.72	21
1839.73	24.5
1840.73	24.5
1841.74	22
1842.74	22.5
1843.75	27.5
1844.75	26.5
1845.75	24.5
1846.76	29.5
1847.76	24
1848.76	24
1849.77	20.5
1850.77	27
1851.77	20.5
1852.78	28
1853.78	27.5
1854.78	22
1855.78	26.5
1856.78	26.5
1857.79	27
1858.79	24
1859.79	29
1860.79	23.5
1861.79	23.5
1862.79	22
1863.79	23
1864.79	26.5
1865.79	22
1866.8	25.5
1867.8	28
1868.8	26.5
1869.8	20.5
1870.8	25.5
1871.8	23.5
1872.8	24.5
1873.79	26
1874.79	26.5
1875.79	25
1876.79	24.5
1877.79	24
1878.79	21.5
1879.79	28.5
1880.79	22
1881.78	23
1882.78	22
1883.78	25
1884.78	23
1885.77	26
1886.77	23.5
1887.77	26.5
1888.77	24.5
1889.76	23
1890.76	22
1891.76	23.5
1892.75	24
1893.75	24.5
1894.75	25
1895.74	25
1896.74	21.5
1897.73	19.5
1898.73	24.5
1899.73	24
1900.72	25
1901.72	26.5
1902.71	24
1903.7	25
1904.7	23
1905.69	25
1906.69	25
1907.68	26.5
1908.68	23.5
1909.67	23
1910.66	21
1911.66	26.5
1912.65	21
1913.64	26.5
1914.64	26
1915.63	23
1916.62	24
1917.62	26.5
1918.61	22.5
1919.6	23.5
1920.59	24
1921.58	20.5
1922.58	21.5
1923.57	26.5
1924.56	22
1925.55	25
1926.54	28.5
1927.53	25
1928.52	22.5
1929.51	25.5
1930.51	22
1931.5	24
1932.49	24
1933.48	24.5
1934.47	23.5
1935.46	25
1936.45	23
1937.44	24
1938.42	24.5
1939.41	21.5
1940.4	24
1941.39	26.5
1942.38	22.5
1943.37	23
1944.36	23
1945.35	25
1946.33	27
1947.32	24
1948.31	24
1949.3	24
1950.29	23.5
1951.27	20.5
1952.26	25
1953.25	25
1954.23	24
1955.22	27.5
1956.21	25.5
1957.19	25.5
1958.18	29.5
1959.17	23.5
1960.15	22.5
1961.14	22
1962.13	24
1963.11	27
1964.1	27
1965.08	21.5
1966.07	24
1967.05	20
1968.04	25
1969.02	27
1970.01	24
1970.99	26
1971.97	24
1972.96	25.5
1973.94	26.5
1974.93	21
1975.91	26
1976.89	23
1977.88	25.5
1978.86	27.5
1979.84	23.5
1980.83	21.5
1981.81	25
1982.79	25
1983.77	24
1984.76	24.5
1985.74	28
1986.72	23.5
1987.7	20
1988.68	22.5
1989.67	25.5
1990.65	23.5
1991.63	25.5
1992.61	24
1993.59	26
1994.57	24
1995.55	22.5
1996.53	27
1997.51	24.5
1998.49	25.5
1999.47	21.5
2000.45	26.5
2001.43	24
2002.41	24.5
2003.39	21.5
2004.37	24
2005.35	22.5
2006.33	24.5
2007.31	26
2008.29	25
2009.26	24
2010.24	22
2011.22	25
2012.2	24.5
2013.18	20.5
2014.15	20
2015.13	21
2016.11	21.5
2017.09	26
2018.06	22
2019.04	24.5
2020.02	26
2021	23
2021.97	23
2022.95	25
2023.92	24
2024.9	24
2025.88	22
2026.85	28
2027.83	24.5
2028.8	23
2029.78	23.5
2030.75	23.5
2031.73	19
2032.7	22
2033.68	24
2034.65	25.5
2035.63	24
2036.6	27
2037.58	23
2038.55	26.5
2039.52	25.5
2040.5	21.5
2041.47	24.5
2042.45	19
2043.42	22
2044.39	23
2045.36	22.5
2046.34	23.5
2047.31	24
2048.28	21
2049.26	20
2050.23	23.5
2051.2	26.5
2052.17	21
2053.14	22
2054.12	19.5
2055.09	22
2056.06	23.5
2057.03	22.5
2058	22
2058.97	19.5
2059.94	23.5
2060.91	20.5
2061.88	25
2062.85	21.5
2063.82	25
2064.79	22
2065.76	24
2066.73	26
2067.7	23.5
2068.67	18
2069.64	24.5
2070.61	27.5
2071.58	24.5
2072.55	22.5
2073.52	23.5
2074.49	26.5
2075.45	21.5
2076.42	23
2077.39	23.5
2078.36	19.5
2079.33	25
2080.29	27.5
2081.26	24
2082.23	20.5
2083.2	18
2084.16	24
2085.13	26.5
2086.1	23
2087.06	22.5
2088.03	23.5
2089	19
2089.96	27
2090.93	23
2091.89	25.5
2092.86	26
2093.83	23.5
2094.79	23.5
2095.76	23
2096.72	23
2097.69	22.5
2098.65	26.5
2099.62	23
2100.58	23
2101.55	20
2102.51	21.5
2103.47	23
2104.44	23
2105.4	22
2106.36	20.5
2107.33	20
2108.29	20
2109.25	24.5
2110.22	23.5
2111.18	25
2112.14	22.5
2113.11	22.5
2114.07	22
2115.03	23.5
2115.99	24.5
2116.96	23
2117.92	25.5
2118.88	25
2119.84	27
2120.8	24.5
2121.76	22.5
2122.72	26.5
2123.68	24.5
2124.65	24
2125.61	24
2126.57	22
2127.53	22
2128.49	23
2129.45	25.5
2130.41	27.5
2131.37	21
2132.33	23
2133.29	23
2134.25	20.5
2135.21	25
2136.17	20.5
2137.12	21.5
2138.08	22.5
2139.04	25
2140	24
2140.96	23.5
2141.92	22.5
2142.88	23.9834
2143.83	21.9579
2144.79	23.0062
2145.75	20.9844
2146.71	20.099
2147.66	25.3457
2148.62	21.0477
2149.58	22.009
2150.53	22.8857
2151.49	21.5844
2152.45	23.1253
2153.4	18.438
2154.36	23.1579
2155.32	20.3642
2156.27	21.9391
2157.23	22.5802
2158.19	23.0995
2159.14	24.7013
2160.1	23.3166
2161.05	21.7025
2162.01	21.7338
2162.96	21.8201
2163.92	25.1048
2164.87	23.6358
2165.83	18.3568
2166.78	22.2522
2167.73	23.2228
2168.69	23.1196
2169.64	24.2478
2170.6	22.4876
2171.55	23.5558
2172.5	22.7675
2173.46	24.0015
2174.41	23.4925
2175.36	24.4815
2176.32	23.032
2177.27	23.7926
2178.22	21.9737
2179.18	21.9747
2180.13	23.9185
2181.08	23.6129
2182.03	20.6203
2182.98	22.8349
2183.94	21.6843
2184.89	21.3127
2185.84	22.1434
2186.79	24.6204
2187.74	22.3088
2188.69	23.6341
2189.64	22.6521
2190.6	23.877
2191.55	20.7796
2192.5	22.7606
2193.45	23.7449
2194.4	22.8228
2195.35	23.5121
2196.3	20.1673
2197.25	22.4927
2198.2	24.4906
2199.15	24.7112
2200.1	21.4893
2201.04	23.353
2201.99	21.7545
2202.94	23.6523
2203.89	22.6799
2204.84	21.3199
2205.79	24.7176
2206.74	21.1055
2207.69	24.7394
2208.63	23.292
2209.58	22.6845
2210.53	21.4093
2211.48	22.5364
2212.43	22.836
2213.37	21.8524
2214.32	23.5248
2215.27	23.717
2216.21	22.114
2217.16	21.1432
2218.11	21.838
2219.05	19.6117
2220	21.2899
2220.95	22.1488
2221.89	21.8658
2222.84	21.3859
2223.78	21.085
2224.73	23.1019
2225.68	23.6322
2226.62	22.2882
2227.57	21.1835
2228.51	24.6196
2229.46	23.2852
2230.4	21.9099
2231.35	23.5657
2232.29	23.2606
2233.24	20.0286
2234.18	21.4588
2235.12	25.2873
2236.07	27.5381
2237.01	23.9908
2237.95	21.4995
2238.9	22.9096
2239.84	23.1319
2240.06	23
2241.01	19.5
2241.96	26
2242.91	21.5
2243.86	20
2244.8	27.5
2245.75	25
2246.7	21.5
2247.65	22
2248.59	23
2249.54	18.5
2250.49	20.5
2251.43	23
2252.38	20.5
2253.33	24
2254.27	25.5
2255.22	19.5
2256.16	24
2257.11	22
2258.06	20
2259	23.5
2259.95	23.5
2260.89	24
2261.84	23.5
2262.78	19
2263.73	22
2264.67	21
2265.62	22
2266.56	25.5
2267.5	24
2268.45	26.5
2269.39	24
2270.34	23.5
2271.28	25
2272.22	25
2273.17	25.5
2274.11	21.5
2275.05	19
2276	23
2276.94	22.5
2277.88	22.5
2278.82	19
2279.77	22.5
2280.71	23
2281.65	23.5
2282.59	20
2283.53	23.5
2284.48	27.5
2285.42	22
2286.36	24
2287.3	23.5
2288.24	22.5
2289.18	21
2290.12	24.5
2291.06	20.5
2292	17
2292.94	20
2293.89	18
2294.83	22.5
2295.77	23.5
2296.71	21
2297.65	22
2298.58	24
2299.52	23
2300.46	19.5
2301.4	22
2302.34	21
2303.28	23
2304.22	22.5
2305.16	24
2306.1	24.5
2307.03	17
2307.97	21.5
2308.91	22.5
2309.85	22
2310.79	21
2311.72	24.5
2312.66	24
2313.6	25.5
2314.54	22
2315.47	22
2316.41	25
2317.35	27
2318.28	21.5
2319.22	24
2320.16	23
2321.09	20
2322.03	24
2322.96	26
2323.9	24.5
2324.84	26
2325.77	24.5
2326.71	24
2327.64	25.5
2328.58	27
2329.51	21.5
2330.45	25
2331.38	21
2332.32	21
2333.25	24
2334.18	22.5
2335.12	22.5
2336.05	24
2336.99	22.5
2337.92	24.5
2338.85	24
2339.79	24
2340.72	24
2341.65	23
2342.59	23.5
2343.52	21
2344.45	25
2345.39	24.5
2346.32	25
2347.25	23.5
2348.18	24.5
2349.11	22.5
2350.05	22.5
2350.98	23.5
2351.91	22.5
2352.84	24
2353.77	24
2354.7	22.5
2355.64	25
2356.57	24.5
2357.5	24
2358.43	23
2359.36	23
2360.29	23.5
2361.22	22.5
2362.15	23
2363.08	26.5
2364.01	24.5
2364.94	24.5
2365.87	21
2366.8	26
2367.73	22.5
2368.66	23.5
2369.58	25.5
2370.51	21
2371.44	26.5
2372.37	18
2373.3	27
2374.23	23
2375.16	24
2376.08	26
2377.01	26.5
2377.94	25
2378.87	23.5
2379.8	26
2380.72	25
2381.65	19
2382.58	25.5
2383.5	23.5
2384.43	22
2385.36	20.5
2386.28	23
2387.21	23.5
2388.14	26
2389.06	25
2389.99	24.5
2390.91	22.5
2391.84	22.5
2392.77	22
2393.69	23.5
2394.62	24.5
2395.54	29
2396.47	28
2397.39	21.5
2398.32	26.5
2399.24	25.5
2400.16	26.5
2401.09	20
2402.01	25
2402.94	24
2403.86	20
2404.78	23
2405.71	26
2406.63	21.5
2407.56	22
2408.48	25.5
2409.4	24
2410.32	20.5
2411.25	22.5
2412.17	26
2413.09	24.5
2414.02	23
2414.94	24
2415.86	21
2416.78	24.5
2417.7	24
2418.63	24
2419.55	23.5
2420.47	24.5
2421.39	22.5
2422.31	24.5
2423.23	24
2424.15	20.5
2425.07	21.5
2425.99	23
2426.92	25.5
2427.84	23
2428.76	26.5
2429.68	25.5
2430.59	24.5
2431.51	24
2432.43	23.5
2433.35	24.5
2434.27	26.5
2435.19	25
2436.11	28
2437.03	24.5
2437.95	24.5
2438.87	22
2439.79	23
2440.71	23
2441.62	25
2442.54	25
2443.46	25.5
2444.38	26
2445.3	25
2446.21	21
2447.13	24
2448.05	24
2448.97	23
2449.88	22
2450.8	18
2451.72	24.5
2452.63	23.5
2453.55	22.5
2454.47	21
2455.38	23.5
2456.3	20
2457.21	25
2458.13	22
2459.05	24
2459.96	24
2460.88	22
2461.79	25
2462.71	25.5
2463.62	21
2464.54	27
2465.45	23.5
2466.37	24.5
2467.28	21
2468.2	21.5
2469.11	24
2470.02	22
2470.94	21
2471.85	24.5
2472.77	24.5
2473.68	22
2474.59	20
2475.51	23
2476.42	18.5
2477.33	22.5
2478.25	24.5
2479.16	25
2480.07	20.5
2480.98	26
2481.9	28
2482.81	21
2483.72	28.5
2484.63	21
2485.55	23
2486.46	27.5
2487.37	22
2488.28	22.5
2489.19	25
2490.1	23
2491.01	23
2491.92	26.5
2492.83	23
2493.74	22
2494.66	25
2495.57	25
2496.48	24
2497.39	28
2498.3	23
2499.21	24
2500.12	23
2501.03	28
2501.93	26.5
2502.84	24.5
2503.75	23
2504.66	25.5
2505.57	26.5
2506.48	26.5
2507.39	22
2508.3	21.5
2509.21	26
2510.11	24.5
2511.02	26
2511.93	23
2512.84	24
2513.75	26.5
2514.65	22
2515.56	20.5
2516.47	21
2517.37	27
2518.28	23.5
2519.19	24.5
2520.09	23
2521	22
2521.91	23
2522.81	24
2523.72	23.5
2524.63	21.5
2525.53	25.5
2526.44	24.5
2527.34	19.5
2528.25	23.5
2529.16	27.5
2530.06	27.5
2530.97	23.5
2531.87	24.5
2532.78	22.5
2533.68	23
2534.58	26
2535.49	28
2536.39	26
2537.3	27.5
2538.2	22
2539.11	24
2540.01	24.5
2540.91	23
2541.82	22.5
2542.72	25
2543.62	25.5
2544.53	24
2545.43	24
2546.33	23.5
2547.23	23
2548.14	24
2549.04	22.5
2549.94	20
2550.84	22.5
2551.75	24.5
2552.65	22
2553.55	23
2554.45	27
2555.35	25.5
2556.26	20
2557.16	24
2558.06	25
2558.96	26.5
2559.86	22.5
2560.76	25
2561.66	24
2562.56	21
2563.46	23
2564.36	21
2565.26	25
2566.16	26
2567.06	25
2567.96	24.5
2568.86	26
2569.76	25.5
2570.66	23.5
2571.56	27
2572.46	24
2573.36	25.5
2574.26	25
2575.16	22.5
2576.05	26
2576.95	23.5
2577.85	27
2578.75	24.5
2579.65	23.5
2580.54	22
2581.44	25
2582.34	23
2583.24	24.5
2584.13	22
2585.03	24.5
2585.93	22.5
2586.83	23.5
2587.72	23
2588.62	23.5
2589.52	25
2590.41	22
2591.31	26
2592.2	24.5
2593.1	26
2594	26
2594.89	23.5
2595.79	21
2596.68	26.5
2597.58	23
2598.47	23.5
2599.37	25.5
2600.26	21
2601.16	26
2602.05	22
2602.95	26.5
2603.84	25
2604.74	23
2605.63	27
2606.52	20
2607.42	24
2608.31	24.5
2609.21	24.5
2610.1	25.5
2610.99	28
2611.89	26
2612.78	21.5
2613.67	27.5
2614.56	21
2615.46	27
2616.35	23
2617.24	23
2618.13	25.5
2619.03	24
2619.92	24
2620.81	21
2621.7	24.5
2622.59	27.5
2623.49	24.5
2624.38	24
2625.27	23.5
2626.16	25
2627.05	23.5
2627.94	24.5
2628.83	24
2629.72	26
2630.61	21.5
2631.5	24
2632.39	19.5
2633.28	25.5
2634.17	27
2635.06	24.5
2635.95	26
2636.84	25
2637.73	24
2638.62	26.5
2639.51	26
2640.4	23.5
2641.29	25.5
2642.18	23.5
2643.07	23
2643.96	25
2644.84	26
2645.73	27
2646.62	22.5
2647.51	25
2648.4	24
2649.28	23.5
2650.17	27.5
2651.06	22.5
2651.95	26.5
2652.83	23.5
2653.72	21.5
2654.61	21
2655.49	19.5
2656.38	23
2657.27	22.5
2658.16	25
2659.04	25.5
2659.93	24.5
2660.81	26.5
2661.7	25
2662.59	25.5
2663.47	25.5
2664.36	25
2665.24	23.5
2666.13	23.5
2667.01	24
2667.9	28
2668.78	23.5
2669.67	27.5
2670.55	22
2671.44	23
2672.32	25.5
2673.21	22
2674.09	24.5
2674.97	24
2675.86	18
2676.74	22
2677.62	25
2678.51	26.5
2679.39	25.5
2680.27	26
2681.16	27
2682.04	28
2682.92	27
2683.81	25
2684.69	22.5
2685.57	25.5
2686.45	20
2687.34	25
2688.22	21.5
2689.1	22
2689.98	23
2690.86	24.5
2691.75	25
2692.63	23.5
2693.51	23.5
2694.39	21.5
2695.27	22
2696.15	27
2697.03	23
2697.91	23
2698.79	26
2699.67	28.5
2700.55	23.5
2701.43	24.5
2702.31	24.5
2703.19	24
2704.07	22.5
2704.95	25
2705.83	26.5
2706.71	23.5
2707.59	25
2708.47	21
2709.35	20
2710.23	24
2711.11	24
2711.99	27
2712.86	22.5
2713.74	22
2714.62	23
2715.5	26.5
2716.38	23.5
2717.26	27
2718.13	24.5
2719.01	27.5
2719.89	27
2720.77	23
2721.64	22.5
2722.52	22.5
2723.4	25
2724.27	23.5
2725.15	26.5
2726.03	22
2726.9	23.5
2727.78	25
2728.66	24
2729.53	23
2730.41	23.5
2731.28	22
2732.16	23
2733.03	25
2733.91	29.5
2734.79	24
2735.66	24
2736.54	25
2737.41	24
2738.29	25
2739.16	27.5
2740.03	25.5
2740.91	19
2741.78	24.5
2742.66	19
2743.53	22
2744.41	23.5
2745.28	23.5
2746.15	23
2747.03	24.5
2747.9	22.5
2748.77	24
2749.65	24
2750.52	23.5
2751.39	22.5
2752.27	21
2753.14	24.5
2754.01	23.5
2754.88	25
2755.75	23.5
2756.63	20.5
2757.5	25.5
2758.37	23
2759.24	25
2760.11	18.5
2760.99	22.5
2761.86	22
2762.73	24.5
2763.6	22
2764.47	21.5
2765.34	22.5
2766.21	27.5
2767.08	24
2767.95	23
2768.82	23.5
2769.69	23
2770.56	22.5
2771.43	28
2772.3	25
2773.17	20.5
2774.04	23.5
2774.91	25
2775.78	20.5
2776.65	22
2777.52	28.5
2778.39	25.5
2779.26	26
2780.13	24
2780.99	25
2781.86	24
2782.73	20
2783.6	23.5
2784.47	23
2785.34	19
2786.2	24.5
2787.07	24.5
2787.94	23.5
2788.81	25
2789.67	22
2790.54	23.5
2791.41	19
2792.27	20.5
2793.14	23.5
2794.01	20
2794.87	22
2795.74	23
2796.61	26
2797.47	22
2798.34	26
2799.21	25
2800.07	23
2800.94	22.75
2801.8	21.5
2802.67	26
2803.53	23
2804.4	25
2805.26	22
2806.13	23
2806.99	24
2807.86	22.5
2808.72	23
2809.59	25
2810.45	25
2811.32	24
2812.18	21
2813.04	24.5
2813.91	23
2814.77	24
2815.64	25
2816.5	24.5
2817.36	24
2818.22	25.5
2819.09	26.5
2819.95	25.5
2820.81	24
2821.68	23
2822.54	21.5
2823.4	20
2824.26	21.5
2825.13	25.5
2825.99	20.5
2826.85	24
2827.71	23
2828.57	26
2829.44	26.5
2830.3	23.5
2831.16	20.5
2832.02	24
2832.88	23
2833.74	26.5
2834.6	26
2835.46	26.5
2836.32	23
2837.18	22
2838.04	24
2838.9	20
2839.76	25
2840.62	25
2841.48	23.5
2842.34	25.5
2843.2	24
2844.06	23.5
2844.92	21
2845.78	20
2846.64	22.5
2847.5	23.5
2848.36	25
2849.22	22.5
2850.08	21
2850.93	19.5
2851.79	28.5
2852.65	25.5
2853.51	24
2854.37	22
2855.22	25
2856.08	25.5
2856.94	21
2857.8	27
2858.65	21.5
2859.51	19
2860.37	20
2861.23	23.5
2862.08	20
2862.94	23
2863.79	22.5
2864.65	23.5
2865.51	22.5
2866.36	24
2867.22	24.5
2868.08	21
2868.93	22
2869.79	25.5
2870.64	21
2871.5	22
2872.35	21
2873.21	24.5
2874.06	25.5
2874.92	24
2875.77	22.5
2876.63	27.5
2877.48	21.5
2878.34	24
2879.19	24.5
2880.05	21.5
2880.9	26.5
2881.76	25
2882.61	25
2883.46	24
2884.32	23
2885.17	24
2886.02	24
2886.88	20
2887.73	22.5
2888.58	25
2889.44	24.5
2890.29	22.5
2891.14	23.5
2891.99	23
2892.85	27
2893.7	26
2894.55	25.5
2895.4	27
2896.25	28
2897.11	25
2897.96	24.5
2898.81	26
2899.66	28.5
2900.51	29
2901.36	26
2902.21	26
2903.07	30
2903.92	29.5
2904.77	27.5
2905.62	27
2906.47	29
2907.32	24.5
2908.17	26.5
2909.02	28.5
2909.87	28
2910.72	27.5
2911.57	30
2912.42	22
2913.27	25.5
2914.12	23.5
2914.97	27
2915.81	24.5
2916.66	25
2917.51	24.5
2918.36	20
2919.21	23.5
2920.06	22
2920.91	21
2921.75	23
2922.6	25
2923.45	27
2924.3	24.5
2925.15	22
2925.99	26
2926.84	24
2927.69	23.5
2928.54	23
2929.38	23
2930.23	20
2931.08	20.5
2931.92	23.5
2932.77	21
2933.62	21.5
2934.46	23
2935.31	21.5
2936.16	23.5
2937	23.5
2937.85	26
2938.69	21.5
2939.54	23
2940.38	22
2941.23	24
2942.08	22
2942.92	22
2943.77	28
2944.61	22
2945.46	25
2946.3	21
2947.15	21
2947.99	25.5
2948.83	22.5
2949.68	23.5
2950.52	26
2951.37	27
2952.21	25.5
2953.05	20
2953.9	26
2954.74	24
2955.58	24.5
2956.43	22
2957.27	20.5
2958.11	27.5
2958.96	24.5
2959.8	22
2960.64	27
2961.48	24
2962.33	24
2963.17	24
2964.01	25
2964.85	22.5
2965.69	25
2966.54	22.5
2967.38	24.5
2968.22	25
2969.06	26
2969.9	25
2970.74	23
2971.58	20.0146
2972.43	23.9315
2973.27	22.5828
2974.11	25.4251
2974.95	22.0437
2975.79	20.6818
2976.63	26.2288
2977.47	21.3411
2978.31	26.5233
2979.15	21.1684
2979.99	24.1231
2980.83	22.7209
2981.67	26.1585
2982.51	24.1149
2983.35	23.6809
2984.19	22.854
2985.03	20.7455
2985.86	24.0617
2986.7	23.4504
2987.54	24.2255
2988.38	22.3832
2989.22	25.5076
2990.06	24.9595
2990.9	20.2335
2991.73	25.5313
2992.57	24.5297
2993.41	22.7308
2994.25	22.6113
2995.09	21.8245
2995.92	21.614
2996.76	21.8834
2997.6	20.6069
2998.44	22.2297
2999.27	22
3000.11	24.7052
3000.95	22.1309
3001.78	21.6062
3002.62	21.3699
3003.46	17.3943
3004.29	22.3757
3005.13	21.5035
3005.96	21.2589
3006.8	20.7651
3007.64	21.4139
3008.47	23.1914
3009.31	23.4282
3010.14	21.9891
3010.98	21.1449
3011.81	20.8337
3012.65	21.2563
3013.48	22.6134
3014.32	21.157
3015.15	20.3612
3015.99	20.6181
3016.82	21.2475
3017.66	22.4575
3018.49	22.9571
3019.33	20.4286
3020.16	21.2177
3020.99	22.3804
3021.83	20.9289
3022.66	20.235
3023.5	21.1656
3024.33	21.0834
3025.16	21.672
3026	18.6136
3026.83	19.6233
3027.66	22.0761
3028.49	22.5168
3029.33	22.0197
3030.16	22.6946
3030.99	22.0885
3031.83	22.5992
3032.66	22.8404
3033.49	21.0272
3034.32	20.9236
3035.15	20.6097
3035.99	19.8762
3036.82	22.4794
3037.65	22.1302
3038.48	22.1393
3039.31	22.3738
3040.14	21.6162
3040.97	20.1919
3041.81	21.5191
3042.64	23.972
3043.47	22.0296
3044.3	21.3762
3045.13	21.0704
3045.96	21.3961
3046.79	20.1459
3047.62	20.1186
3048.45	22.0109
3049.28	21.5774
3050.11	20.8649
3050.94	20.7339
3051.77	22.4369
3052.6	23.5582
3053.43	23.8831
3054.26	21.949
3055.08	21.2553
3055.91	20.3977
3056.74	21.1956
3057.26	21.5
3058.09	22
3058.92	22
3059.76	19.5
3060.59	22.5
3061.42	22.5
3062.25	21
3063.09	22.5
3063.92	21.5
3064.75	23.5
3065.58	22.5
3066.42	20
3067.25	24
3068.08	24
3068.91	25
3069.74	22
3070.57	25.5
3071.41	21
3072.24	20.5
3073.07	24.5
3073.9	22
3074.73	22.5
3075.56	23.5
3076.39	21
3077.22	24.5
3078.05	19
3078.88	22
3079.71	23.5
3080.54	23
3081.37	26
3082.2	28
3083.03	22.5
3083.86	22
3084.69	21
3085.52	25
3086.35	22.5
3087.18	19
3088.01	22.5
3088.84	24.5
3089.67	20
3090.5	20
3091.32	23
3092.15	23.5
3092.98	21
3093.81	22
3094.64	15.5
3095.47	20
3096.29	24.5
3097.12	26
3097.95	20.5
3098.78	23.5
3099.6	22
3100.43	26
3101.26	22
3102.09	22
3102.91	19.5
3103.74	24.5
3104.57	21
3105.39	25
3106.22	21
3107.05	22.5
3107.87	21
3108.7	23.5
3109.52	19.5
3110.35	20
3111.18	22.5
3112	21.5
3112.83	25
3113.65	27
3114.48	22.5
3115.3	22.5
3116.13	25.5
3116.95	22.5
3117.78	25
3118.6	20.5
3119.43	24
3120.25	21
3121.08	23
3121.9	24
3122.72	25.5
3123.55	21.5
3124.37	23
3125.2	24.5
3126.02	21
3126.84	20.5
3127.67	21
3128.49	24
3129.31	24
3130.14	20.5
3130.96	21
3131.78	23
3132.61	20
3133.43	24
3134.25	19.5
3135.07	18
3135.89	27
3136.72	24.5
3137.54	20
3138.36	19
3139.18	24
3140	25
3140.83	25.5
3141.65	25
3142.47	24.5
3143.29	26
3144.11	23
3144.93	20
3145.75	22.5
3146.57	22
3147.4	22.5
3148.22	26
3149.04	22.5
3149.86	23
3150.68	19.5
3151.5	23
3152.32	23.5
3153.14	23
3153.96	22
3154.78	23
3155.59	21
3156.42	29
3157.23	21.5
3158.05	24.5
3158.87	22
3159.69	23.5
3160.51	30
3161.33	23.5
3162.15	22.5
3162.97	22.5
3163.78	24.5
3164.6	25
3165.42	26
3166.24	25
3167.06	21
3167.87	23
3168.69	23.5
3169.51	22
3170.33	21.5
3171.14	20.5
3171.96	26
3172.78	26
3173.6	25
3174.41	22.5
3175.23	24
3176.05	23.5
3176.86	24
3177.68	22
3178.5	24
3179.31	23
3180.13	22.5
3180.94	20.5
3181.76	25
3182.58	21
3183.39	24
3184.21	21
3185.02	23
3185.84	24.5
3186.65	19.5
3187.47	23
3188.28	21.5
3189.1	25.5
3189.91	23.5
3190.73	24
3191.54	25
3192.36	25
3193.17	23.5
3193.98	21.5
3194.8	19
3195.61	26
3196.43	26
3197.24	23.5
3198.05	22
3198.87	25.5
3199.68	21
3200.49	25.5
3201.31	24
3202.12	25.5
3202.93	28.5
3203.75	23.5
3204.56	24.5
3205.37	20
3206.18	20.5
3207	23
3207.81	25
3208.62	21
3209.43	23
3210.24	25
3211.06	23.5
3211.87	23
3212.68	22.5
3213.49	20.5
3214.3	19.5
3215.11	23.5
3215.92	26.5
3216.73	22
3217.55	26
3218.36	21
3219.17	23
3219.98	23
3220.79	23
3221.6	24.5
3222.41	25.5
3223.22	23.5
3224.03	21.5
3224.84	25.5
3225.65	24
3226.46	24
3227.27	25
3228.08	22
3228.89	24
3229.7	27
3230.5	26.5
3231.31	26.5
3232.12	22.5
3232.93	22
3233.74	26
3234.55	21
3235.36	25
3236.16	23.5
3236.97	22.5
3237.78	24.5
3238.59	19.5
3239.4	23
3240.2	22
3241.01	22
3241.82	21.5
3242.63	26.5
3243.43	23
3244.24	25
3245.05	24.5
3245.85	26
3246.66	22.5
3247.47	22.5
3248.27	22
3249.08	21.5
3249.89	24.5
3250.69	24.5
3251.5	25.5
3252.31	24
3253.11	25
3253.92	25
3254.72	24.5
3255.53	27.5
3256.33	21.5
3257.14	24
3257.94	27.5
3258.75	25
3259.55	25
3260.36	22.5
3261.16	28
3261.97	21.5
3262.77	22.5
3263.58	21.5
3264.38	26
3265.19	23
3265.99	27
3266.79	20
3267.6	20.5
3268.4	22.5
3269.21	23.5
3270.01	20.5
3270.81	20.5
3271.62	23.5
3272.42	24
3273.22	21.5
3274.03	23
3274.83	23
3275.63	27.5
3276.43	22.5
3277.24	22
3278.04	21.5
3278.84	24
3279.64	21
3280.45	24
3281.25	20
3282.05	28
3282.85	24
3283.65	26
3284.45	27
3285.26	25
3286.06	23
3286.86	26.5
3287.66	22.5
3288.46	23
3289.26	22.5
3290.06	22
3290.86	25.5
3291.66	24.5
3292.46	23
3293.26	23
3294.06	24.5
3294.86	24
3295.66	23.5
3296.46	24
3297.26	24
3298.06	25
3298.86	22
3299.66	25
3300.46	26
3301.26	23
3302.06	25
3302.86	21
3303.66	23.5
3304.46	23.5
3305.25	22
3306.05	23
3306.85	28
3307.65	22
3308.45	26
3309.25	21.5
3310.04	21
3310.84	23
3311.64	22
3312.44	23
3313.23	25.5
3314.03	23
3314.83	22
3315.63	22
3316.42	25
3317.22	26
3318.02	21.5
3318.81	23
3319.61	25
3320.41	19.5
3321.2	19
3322	22.5
3322.8	23
3323.59	24.5
3324.39	27
3325.18	25.5
3325.98	21
3326.78	27
3327.57	24
3328.37	24.5
3329.16	20.5
3329.96	19.5
3330.75	27
3331.55	22.5
3332.34	25.5
3333.14	23.5
3333.93	25
3334.73	25.5
3335.52	20
3336.31	26.5
3337.11	25
3337.9	18
3338.7	21.5
3339.49	24.5
3340.28	26
3341.08	26.5
3341.87	22
3342.66	21
3343.46	22
3344.25	23.5
3345.04	26
3345.84	23
3346.63	25.5
3347.42	22
3348.22	26.5
3349.01	27
3349.8	25
3350.59	23.5
3351.39	26.5
3352.18	22
3352.97	23.5
3353.76	23
3354.55	24
3355.35	22.5
3356.14	21.5
3356.93	20.5
3357.72	26
3358.51	23.5
3359.3	28
3360.09	22.5
3360.88	25
3361.67	20
3362.46	24.5
3363.26	23.5
3364.05	23
3364.84	23.5
3365.63	23.5
3366.42	25
3367.21	23.5
3368	25
3368.79	24
3369.58	24
3370.37	22
3371.15	24
3371.94	21.5
3372.73	23
3373.52	21.5
3374.31	21.5
3375.1	26.5
3375.89	25
3376.68	22
3377.47	26
3378.26	25.5
3379.04	26.5
3379.83	22.5
3380.62	26
3381.41	25
3382.2	20
3382.98	25
3383.77	24
3384.56	22.5
3385.35	22.5
3386.13	25
3386.92	23.5
3387.71	26.5
3388.5	27.5
3389.28	25.5
3390.07	26.5
3390.86	24.5
3391.64	25
3392.43	22
3393.22	27
3394	20
3394.79	27.5
3395.57	24
3396.36	23.5
3397.15	22
3397.93	23
3398.72	25.5
3399.5	20
3400.29	25.5
3401.07	22.5
3401.86	25.5
3402.65	28
3403.43	24.5
3404.21	20.5
3405	23
3405.78	20.5
3406.57	21.5
3407.35	25
3408.14	22
3408.92	23.5
3409.71	29
3410.49	27.5
3411.27	21
3412.06	24.5
3412.84	26.5
3413.62	29.5
3414.41	25
3415.19	20
3415.97	24.5
3416.76	23
3417.54	25.5
3418.32	27
3419.11	24.5
3419.89	22
3420.67	23
3421.46	24
3422.24	25.5
3423.02	26
3423.8	22
3424.58	26
3425.37	22
3426.15	24
3426.93	20.5
3427.71	22
3428.49	27
3429.27	23
3430.05	24
3430.84	23.5
3431.62	22
3432.4	27.5
3433.18	23.5
3433.96	27
3434.74	23.5
3435.52	24.5
3436.3	24.5
3437.08	24.5
3437.86	26.5
3438.64	23
3439.42	23.5
3440.2	28
3440.98	24.5
3441.76	26.5
3442.54	22.5
3443.32	22.5
3444.1	22
3444.88	24.5
3445.66	25.5
3446.44	24.5
3447.22	26
3448	26
3448.77	22.5
3449.55	23.5
3450.33	23
3451.11	21.5
3451.89	24
3452.67	22.5
3453.45	24
3454.22	24
3455	17.5
3455.78	23
3456.56	24
3457.33	16
3458.11	23.5
3458.89	27
3459.67	23.5
3460.44	24
3461.22	22.5
3462	20.5
3462.77	24.5
3463.55	24.5
3464.33	25.5
3465.1	26
3465.88	26
3466.66	22
3467.43	23
3468.21	18.5
3468.98	23
3469.76	22
3470.54	22
3471.31	26
3472.09	25.5
3472.86	26.5
3473.64	25
3474.41	24
3475.19	22
3475.96	23
3476.74	22
3477.51	22
3478.29	23.5
3479.06	25.5
3479.84	24
3480.61	25
3481.39	22
3482.16	25
3482.93	24
3483.71	22.5
3484.48	23
3485.25	21
3486.03	22
3486.8	26
3487.57	22
3488.35	25
3489.12	23.5
3489.89	26.5
3490.67	23.5
3491.44	25
3492.21	24.5
3492.99	21
3493.76	23.5
3494.53	26
3495.3	26.5
3496.08	24.5
3496.85	27
3497.62	19.5
3498.39	27
3499.16	25
3499.93	24.5
