#Acq. time (s)=	5
#Accumulations=	5
#Range (cm-¹)=	100...3500
#Windows=	4
#Autofocus=	Off
#AutoExposure=	Off
#Spike filter=	Multiple accum.
#Delay time (s)=	0
#Binning=	1
#Readout mode=	Signal
#DeNoise=	Off
#ICS correction=	Off
#Dark correction=	Off
#Inst. Process=	Off
#Instrument=	LabRAM HR Evol
#Detector=	Syncerity OE
#Objective=	x100_VIS
#Grating=	600 (500nm)
#ND Filter=	25%
#Laser=	633nm_Edge
#Hole=	100.021
#Range=	Visible
#Project=	verificaciones
#Sample=	at5
#Site=	plain
#Title=	bolusat5plain
#Remark=	
#Date=	13.01.2026 18:57
#Acquired=	13.01.2026 18:57:42
100.692	23.5
101.975	33
103.258	32.5
104.542	29
105.824	26.5
107.107	31.5
108.39	28.5
109.672	26.5
110.954	30
112.236	29.5
113.519	30
114.8	30.5
116.081	32
117.362	34
118.643	33.5
119.924	32.5
121.204	34.5
122.484	26
123.764	29.5
125.044	31
126.323	36.5
127.603	34
128.882	33.5
130.161	34
131.438	37
132.716	32
133.995	33
135.273	30.5
136.55	31.5
137.828	34
139.106	34.5
140.383	38.5
141.66	36
142.937	39.5
144.213	34.5
145.488	38.5
146.764	37
148.04	39
149.316	40
150.592	37.5
151.867	38.5
153.141	38.5
154.416	36
155.69	42
156.965	39.5
158.239	40
159.512	37
160.786	36
162.059	39
163.333	38
164.605	39
165.878	39.5
167.15	38
168.423	38.5
169.694	39.5
170.966	41
172.238	34
173.51	35
174.78	37
176.052	45
177.323	36.5
178.592	38.5
179.863	40
181.134	37.5
182.403	39
183.673	39.5
184.943	35
186.211	40
187.481	40.5
188.749	41.5
190.018	33.5
191.287	41.5
192.554	42
193.822	37.5
195.089	40.5
196.357	35.5
197.625	37
198.891	37
200.159	37
201.425	37
202.692	43
203.957	34
205.224	38
206.489	34.5
207.755	32
209.02	29
210.286	34.5
211.55	34.5
212.815	37
214.079	36
215.344	34.5
216.607	30
217.872	34
219.135	33
220.399	34
221.662	33
222.924	33
224.187	31
225.449	32.5
226.713	31.5
227.974	29.5
229.235	37
230.498	36
231.759	29
233.019	27
234.281	31
235.542	28.5
236.802	33.5
238.063	32.5
239.323	30.5
240.582	32
241.843	30.5
243.102	29.5
244.361	29
245.621	30
246.879	28.5
248.138	27
249.396	32
250.655	28.5
251.913	33.5
253.17	31
254.427	32
255.686	28
256.943	31.5
258.199	25.5
259.456	32.5
260.712	29
261.969	29.5
263.225	30
264.481	30
265.736	30.5
266.991	34.5
268.246	30
269.502	27
270.757	28
272.011	29
273.265	27
274.519	32
275.773	28.5
277.027	28.5
278.28	24.5
279.533	31.5
280.786	28
282.04	28.5
283.293	30.5
284.545	28.5
285.798	27.5
287.049	28.5
288.301	25
289.553	32.5
290.804	31
292.055	27.5
293.306	25.5
294.557	26.5
295.807	31.5
297.058	24.5
298.308	30
299.558	26
300.808	28
302.057	27.5
303.305	31
304.554	24.5
305.803	26.5
307.052	30.5
308.3	24
309.549	26.5
310.797	30
312.045	28
313.292	30.5
314.54	28.5
315.786	32.5
317.033	25
318.28	32
319.526	24.5
320.773	30
322.019	30
323.264	28
324.51	28
325.755	27.5
327.001	25.5
328.246	33.5
329.49	26
330.735	31.5
331.979	30
333.224	31.5
334.467	29.5
335.711	27.5
336.955	31.5
338.199	29
339.441	31
340.684	27.5
341.927	28.5
343.168	28.5
344.411	27
345.654	27.5
346.895	30
348.137	27
349.379	27.5
350.619	26.5
351.86	27.5
353.102	26
354.341	33
355.582	28
356.821	33
358.062	32
359.302	28.5
360.541	28.5
361.781	26.5
363.019	30.5
364.259	27
365.496	27.5
366.736	29.5
367.974	32.5
369.212	26
370.45	30
371.687	24.5
372.925	29.5
374.162	29
375.399	30
376.635	31.5
377.873	27.5
379.109	28.5
380.344	29
381.581	28
382.816	27
384.052	24
385.287	28.5
386.523	30
387.757	31.5
388.991	26
390.227	31
391.46	29
392.695	24
393.928	31
395.162	31.5
396.396	29
397.629	32
398.861	24
400.095	28.5
401.327	28
402.559	29
403.792	29
405.024	28.5
406.255	28
407.488	30
408.719	26
409.949	28
411.18	27.5
412.412	27.5
413.642	25
414.872	31
416.102	25.5
417.333	31.5
418.562	29
419.791	31
421.02	31
422.249	27.5
423.479	29.5
424.707	27
425.935	25
427.163	25.5
428.391	28
429.619	29
430.848	31
432.075	27
433.302	31.5
434.529	26
435.755	29
436.982	24.5
438.208	27
439.434	25
440.66	26.5
441.885	32.5
443.111	29
444.338	27
445.563	28.5
446.788	31
448.012	27.5
449.237	31
450.461	31
451.685	29.5
452.909	27.5
454.133	28.5
455.356	32
456.579	31.5
457.802	29
459.025	29
460.247	30
461.469	28
462.691	31
463.914	28
465.136	35
466.357	32.5
467.579	34.5
468.8	36
470.021	31
471.242	36.5
472.462	34.5
473.682	35.5
474.903	38
476.123	40
477.343	35
478.563	46
479.782	46
481	49
482.219	50
483.438	54.5
484.657	55
485.874	56
487.093	53.5
488.311	56
489.529	54.5
490.747	54.5
491.963	55
493.181	51
494.398	47.5
495.614	48.5
496.83	43.5
498.047	43.5
499.264	44.5
500.479	43
501.695	42
502.911	41
504.125	39.5
505.34	39
506.554	41.5
507.769	35.5
508.984	33
510.198	34.5
511.412	33
512.627	31
513.839	31
515.053	34
516.266	34
517.479	32
518.691	35
519.905	34
521.118	29.5
522.329	30
523.542	29
524.753	34.5
525.965	30.5
527.176	33
528.388	31
529.598	22.5
530.809	25
532.019	33
533.23	30.5
534.44	30
535.649	29
536.86	28
538.068	31
539.279	29
540.487	31
541.697	29.5
542.905	31.5
544.113	30
545.322	28.5
546.53	29.5
547.737	30.5
548.946	29
550.153	29.5
551.361	31
552.568	30
553.774	28.5
554.982	30
556.188	29.5
557.394	28.5
558.599	27.5
559.806	22.5
561.012	27.5
562.217	30
563.423	32.5
564.628	27.5
565.832	27
567.036	29
568.241	31.5
569.446	29
570.65	28
571.853	27.5
573.057	28
574.26	25
575.464	32.5
576.667	29.5
577.87	29.5
579.072	32.5
580.274	34
581.477	30
582.68	29.5
583.881	25
585.083	29
586.284	27
587.485	27
588.686	26
589.887	30
591.087	25
592.288	31.5
593.488	30
594.688	25
595.888	29
597.087	27.5
598.287	29.5
599.486	27.5
600.685	25
601.884	25.5
603.082	29.5
604.281	28
605.479	27
606.677	28
607.875	29
609.073	26.5
610.27	30.5
611.468	24.5
612.665	25.5
613.862	30
615.058	33
616.255	29
617.451	26.5
618.648	29
619.842	26
621.038	28.5
622.234	26
623.429	26
624.624	29
625.819	29.5
627.013	28
628.207	31
629.402	28
630.596	32.5
631.79	29
632.983	32
634.177	33.5
635.37	30
636.564	27.5
637.755	33.5
638.948	26
640.141	24.5
641.334	30.5
642.525	28.5
643.717	31.5
644.909	30
646.099	30.5
647.291	32.5
648.483	32.5
649.674	29
650.864	28.5
652.055	29.5
653.244	28
654.435	30
655.625	26.5
656.814	28.5
658.004	28
659.193	35
660.382	28.5
661.571	27.5
662.759	32
663.948	30.5
665.135	28
666.324	28.5
667.511	30
668.7	31.5
669.886	32
671.074	30.5
672.262	33.5
673.448	31.5
674.634	29
675.821	31
677.007	29.5
678.194	28
679.379	36
680.565	33
681.75	37.5
682.936	33.5
684.121	34.5
685.305	34
686.491	33.5
687.675	33.5
688.86	35.5
690.043	35
691.227	34
692.411	30
693.594	34
694.777	33
695.961	34
697.144	37
698.326	32.5
699.509	35
700.691	37
701.873	38
703.056	34
704.237	40.5
705.419	38.5
706.599	48
707.782	50.5
708.962	53.5
710.143	47
711.323	39.5
712.504	41
713.684	39
714.864	33.5
716.043	34.5
717.223	30
718.403	37
719.582	30
720.761	26.5
721.94	31.5
723.118	28.5
724.296	30.5
725.474	31.5
726.652	28.5
727.831	28.5
729.009	29
730.186	27
731.363	27.5
732.54	28
733.717	29.5
734.893	30.5
736.07	30
737.246	28
738.422	31
739.598	29.5
740.773	24
741.949	30
743.124	25
744.299	30
745.474	30
746.649	23.5
747.823	33
748.997	30.5
750.172	29
751.346	28
752.519	23.5
753.693	29
754.867	33
756.038	27.5
757.211	30
758.384	28.5
759.557	28
760.73	24
761.902	28.5
763.074	30
764.246	27.5
765.417	32.5
766.588	31
767.76	30.5
768.931	26
770.102	31
771.271	30.5
772.442	32
773.613	28
774.783	25
775.952	29.5
777.122	29.5
778.291	29.5
779.461	32.5
780.629	33.5
781.798	30
782.967	31
784.135	34.5
785.304	31
786.472	30
787.639	32
788.807	33
789.975	28
791.142	35
792.309	33.5
793.477	32
794.642	28
795.81	30.5
796.975	31
798.142	30
799.308	28
800.473	29
801.639	27.5
802.804	28
803.97	31
805.134	30
806.299	27
807.463	28
808.628	27
809.792	29
810.957	29
812.12	29.5
813.284	25
814.447	29
815.611	27
816.773	28
817.937	26
819.099	28
820.261	24
821.424	30.5
822.585	27.5
823.748	27
824.909	32
826.07	25.5
827.232	30
828.393	25
829.554	26
830.715	27
831.875	27.5
833.035	25.5
834.196	24.5
835.356	29.5
836.515	32
837.676	27
838.835	28.5
839.994	29
841.152	29
842.312	24
843.47	26
844.629	31
845.786	31
846.946	29.5
848.103	25.5
849.261	25
850.418	28
851.575	27
852.733	31.5
853.89	29
855.046	31
856.203	30
857.359	34
858.515	32.5
859.67	29
860.827	30
861.983	30
863.138	30.5
864.293	29
865.448	26.5
866.603	29.5
867.757	33
868.912	27
870.066	32
871.22	26
872.374	27.5
873.527	28.5
874.681	27.5
875.834	27.5
876.987	30
878.14	30
879.293	31.5
880.445	27.5
881.598	30
882.75	30
883.902	28
885.054	27
886.206	30
887.357	25.5
888.507	28.5
889.658	29.5
890.809	25
891.96	28.5
893.111	28
894.261	24
895.411	30.5
896.561	24.5
897.71	30
898.86	28.5
900.009	30
901.159	28.5
902.308	26
903.455	27.5
904.604	28.5
905.753	23
906.901	29
908.048	27
909.197	30
910.344	30
911.492	27.5
912.639	28
913.786	25.5
914.933	30
916.079	27
917.226	26.5
918.373	24.5
919.518	29
920.664	25
921.81	27.5
922.955	30
924.101	31.5
925.245	26
926.391	27.5
927.536	26.5
928.68	27
929.825	27
930.968	24
932.113	22
933.256	25.5
934.4	27.5
935.543	31
936.687	28.5
937.83	28
938.973	20.5
940.115	29.5
941.258	26
942.399	29.5
943.542	27
944.684	23
945.826	30.5
946.967	26.5
948.109	26
949.25	27.5
950.392	29.5
951.532	28
952.672	24.5
953.813	23.5
954.953	26.5
956.093	27
957.233	25.5
958.373	30
959.512	29.5
960.652	25.5
961.791	30
962.929	29
964.069	26.5
965.207	26
966.345	24.5
967.484	25.5
968.622	23
969.759	27
970.896	26.75
972.035	25
973.172	28
974.309	29.5
975.445	27.5
976.582	24
977.719	29
978.855	27.5
979.991	26.5
981.127	29
982.263	32
983.398	28
984.535	26
985.67	28.5
986.804	30.5
987.939	28
989.074	28
990.208	26
991.342	26
992.476	25
993.61	26
994.744	29
995.877	28
997.01	27
998.143	25
999.276	26
1000.41	26
1001.54	24
1002.67	25
1003.81	24
1004.94	24
1006.07	27.5
1007.2	26
1008.33	34
1009.47	27
1010.6	27.5
1011.73	28.5
1012.86	26
1013.99	26
1015.12	29
1016.25	25
1017.38	25.5
1018.51	29
1019.64	27
1020.77	28.5
1021.9	24
1023.03	27
1024.15	27.5
1025.28	28.5
1026.41	28
1027.54	26.5
1028.67	29
1029.8	28.5
1030.92	25
1032.05	23.5
1033.18	27.5
1034.31	26.5
1035.43	25
1036.56	26.5
1037.69	25
1038.81	27
1039.94	26.5
1041.07	25
1042.19	26.5
1043.32	28
1044.44	29
1045.57	28
1046.69	25
1047.82	30.5
1048.94	27
1050.07	27
1051.19	26
1052.32	27
1053.44	29.5
1054.57	25
1055.69	26
1056.81	24.5
1057.94	23.5
1059.06	29
1060.18	26
1061.31	24.5
1062.43	23
1063.55	26.5
1064.67	29
1065.8	28
1066.92	23
1068.04	26.5
1069.16	23.5
1070.28	26.5
1071.4	26.5
1072.52	25.5
1073.64	25
1074.76	29.5
1075.89	24.5
1077.01	27
1078.13	25
1079.25	22.5
1080.37	27.5
1081.49	27.5
1082.6	23
1083.72	23
1084.84	28
1085.96	26
1087.08	24.5
1088.2	31.5
1089.32	27
1090.43	25
1091.55	25
1092.67	25
1093.79	27.5
1094.91	25
1096.02	25
1097.14	23
1098.26	26.5
1099.37	23.5
1100.49	24.5
1101.61	27
1102.72	21.5
1103.84	26.5
1104.95	27
1106.07	23.5
1107.18	23.5
1108.3	30
1109.41	28
1110.53	25.5
1111.64	28
1112.76	26
1113.87	27
1114.99	22.5
1116.1	27.5
1117.21	24.5
1118.33	26.5
1119.44	27
1120.55	27.5
1121.67	28.5
1122.78	30
1123.89	25.5
1125	25.5
1126.12	29
1127.23	26
1128.34	23
1129.45	26
1130.56	27
1131.68	25
1132.79	25
1133.9	23
1135.01	25
1136.12	24
1137.23	23.5
1138.34	27
1139.45	25
1140.56	20.5
1141.67	22.5
1142.78	27.5
1143.89	25.5
1145	26
1146.11	25.5
1147.22	25.5
1148.32	22
1149.43	25
1150.54	27
1151.65	28
1152.76	26.5
1153.86	24.5
1154.97	27
1156.08	25.5
1157.19	24
1158.29	25.5
1159.4	23.5
1160.51	24
1161.61	27
1162.72	27
1163.83	28
1164.93	25
1166.04	23.5
1167.14	25
1168.25	25
1169.35	27.5
1170.46	25
1171.56	27.5
1172.67	25.5
1173.77	28.5
1174.88	24.5
1175.98	24
1177.08	26.5
1178.19	27.5
1179.29	23.5
1180.4	28
1181.5	25
1182.6	22.5
1183.71	28
1184.81	27
1185.91	26.5
1187.01	23.5
1188.12	22.5
1189.22	26.5
1190.32	26.5
1191.42	26
1192.52	27
1193.62	24.5
1194.72	23.4932
1195.83	22.5061
1196.93	26.9443
1198.03	24.0544
1199.13	26.9264
1200.23	23.477
1201.33	27.3388
1202.43	28.0893
1203.53	26.3422
1204.63	24.4831
1205.73	23.2621
1206.83	27.3664
1207.92	23.6367
1209.02	25.3235
1210.12	25.2971
1211.22	25.4837
1212.32	24.6685
1213.42	24.2338
1214.51	24.1753
1215.61	25.6214
1216.71	25.2601
1217.81	26.7764
1218.9	24.2953
1220	27.0396
1221.1	23.6419
1222.19	22.4504
1223.29	25.3964
1224.39	25.8778
1225.48	23.8413
1226.58	26.7704
1227.68	21.8275
1228.77	23.3764
1229.87	28.8593
1230.96	27.2822
1232.06	23.3436
1233.15	22.5096
1234.25	22.0691
1235.34	25.4801
1236.43	25.2168
1237.53	23.4868
1238.62	25.1106
1239.72	25.1003
1240.81	24.2937
1241.9	25.7313
1243	24.9268
1244.09	26.0438
1245.18	23.113
1246.27	25.5024
1247.37	23.5214
1248.46	23.8772
1249.55	29.3278
1250.64	27.5766
1251.74	25.2722
1252.83	26.7091
1253.92	25.4891
1255.01	25.8583
1256.1	24.1924
1257.19	26.5788
1258.28	27.1792
1259.38	27.2688
1260.46	27.6305
1261.56	23.6659
1262.65	27.9048
1263.74	27.2875
1264.82	26.2017
1265.91	23.927
1267	26.8779
1268.09	25.6945
1269.18	26.3052
1270.27	24.281
1271.36	26.1476
1272.45	24.1782
1273.54	25.5165
1274.63	23.0298
1275.71	23.1244
1276.8	25.877
1277.89	25.1564
1278.98	24.8564
1280.06	23.6373
1281.15	22.3358
1282.24	24.354
1283.32	24.2792
1284.41	24.3981
1285.5	26.9194
1286.58	24.8418
1287.67	26.8396
1288.76	24.091
1289.84	24.1644
1290.93	23.6408
1292.01	21.7985
1293.1	24.339
1294.18	23.8104
1295.27	22.8245
1296.35	24.3778
1297.44	24.1757
1298.52	21.7705
1299.6	24.922
1300.69	23.9436
1301.77	23.4623
1302.86	25.3883
1303.94	24.5559
1305.02	25.1709
1306.11	27.277
1306.41	28
1307.5	28
1308.59	25
1309.68	24.5
1310.77	25
1311.85	24.5
1312.94	23.5
1314.03	28
1315.11	22
1316.2	22
1317.29	22.5
1318.37	26.5
1319.46	25
1320.55	30
1321.63	23
1322.72	28
1323.8	25
1324.89	23
1325.98	26.5
1327.06	25
1328.15	22.5
1329.23	23
1330.31	22
1331.4	23.5
1332.48	26
1333.57	23.5
1334.65	26.5
1335.74	23
1336.82	24
1337.9	24.5
1338.99	27.5
1340.07	30.5
1341.15	27
1342.24	27
1343.32	23.5
1344.4	26
1345.48	27
1346.56	25
1347.65	26
1348.73	23.5
1349.81	26
1350.89	20.5
1351.97	23
1353.05	27
1354.13	21
1355.21	26
1356.29	22.5
1357.37	24.5
1358.46	22
1359.54	30
1360.62	26
1361.69	24
1362.77	27
1363.85	28
1364.93	27.5
1366.01	24.5
1367.09	25
1368.17	28
1369.25	28
1370.33	23.5
1371.41	25
1372.48	25
1373.56	26
1374.64	27.5
1375.72	23.5
1376.79	26
1377.87	24
1378.95	26
1380.02	30.5
1381.1	23.5
1382.18	26
1383.25	24.5
1384.33	26
1385.4	28
1386.48	26
1387.56	25
1388.63	21.5
1389.71	22
1390.78	25
1391.86	25.5
1392.93	31
1394.01	27.5
1395.08	24
1396.15	32.5
1397.23	28.5
1398.3	30.5
1399.38	33
1400.45	29
1401.52	31
1402.6	30.5
1403.67	31
1404.74	30.5
1405.81	29.5
1406.89	27
1407.96	33
1409.03	32
1410.1	29.5
1411.17	31
1412.25	32
1413.32	32
1414.39	31.5
1415.46	30
1416.53	31.5
1417.6	28
1418.67	29
1419.74	25.5
1420.81	26.5
1421.88	28.5
1422.95	29
1424.02	28
1425.09	32.5
1426.16	26
1427.23	32
1428.3	23.5
1429.37	29.5
1430.44	22
1431.51	27
1432.58	28
1433.64	26
1434.71	25.5
1435.78	26
1436.85	28
1437.92	25
1438.98	25.5
1440.05	26.5
1441.12	26
1442.18	29
1443.25	22
1444.32	27
1445.38	27
1446.45	25.5
1447.52	29.5
1448.58	28
1449.65	26.5
1450.71	29.5
1451.78	28.5
1452.84	25.5
1453.91	26.5
1454.97	25
1456.04	23
1457.1	22
1458.17	26
1459.23	26.5
1460.3	26
1461.36	25
1462.42	26.5
1463.49	27.5
1464.55	27
1465.61	24
1466.68	25
1467.74	27
1468.8	27.5
1469.86	21
1470.93	29
1471.99	28
1473.05	28
1474.11	23.5
1475.17	25.5
1476.24	25
1477.3	23.5
1478.36	26
1479.42	27
1480.48	27.5
1481.54	28.5
1482.6	28.5
1483.66	27.5
1484.72	21
1485.78	28.5
1486.84	26.5
1487.9	25
1488.96	27
1490.02	26.5
1491.08	24
1492.14	31
1493.2	24.5
1494.26	26.5
1495.31	26
1496.37	28
1497.43	25
1498.49	21
1499.55	28
1500.6	25.5
1501.66	23
1502.72	29.5
1503.78	27
1504.83	24.5
1505.89	30.5
1506.95	23
1508	27
1509.06	26.5
1510.12	27.5
1511.17	24
1512.23	22.5
1513.28	26.5
1514.34	25.5
1515.39	28
1516.45	27.5
1517.5	26
1518.56	26
1519.61	26.5
1520.67	25
1521.72	32
1522.78	28
1523.83	30
1524.88	27.5
1525.94	26.5
1526.99	27
1528.05	29
1529.1	25
1530.15	30
1531.2	27.5
1532.26	29
1533.31	27
1534.36	26.5
1535.41	29
1536.47	30
1537.52	24
1538.57	24.5
1539.62	26.5
1540.67	26
1541.72	29.5
1542.77	27
1543.83	24
1544.88	27
1545.93	30
1546.98	28.5
1548.03	25
1549.08	25
1550.13	28.5
1551.18	26.5
1552.23	29
1553.28	27.5
1554.32	27
1555.37	26
1556.42	30
1557.47	28
1558.52	25
1559.57	25
1560.62	23.5
1561.67	28
1562.71	28
1563.76	21.5
1564.81	26.5
1565.86	25
1566.9	25
1567.95	31
1569	22.5
1570.04	25.5
1571.09	27.5
1572.14	25
1573.18	28
1574.23	27
1575.27	27
1576.32	23.5
1577.37	31.5
1578.41	28
1579.46	25
1580.5	30.5
1581.55	28.5
1582.59	26.5
1583.64	23.5
1584.68	30
1585.72	27
1586.77	27.5
1587.81	26
1588.86	26
1589.9	27.5
1590.94	29
1591.99	27
1593.03	26.5
1594.07	26.5
1595.12	27.5
1596.16	27
1597.2	27.5
1598.24	25
1599.29	29
1600.33	27
1601.37	26.5
1602.41	22
1603.45	21
1604.49	24.5
1605.53	30
1606.58	28
1607.62	28.5
1608.66	27.5
1609.7	28
1610.74	27.5
1611.78	28
1612.82	25.5
1613.86	26.5
1614.9	29
1615.94	27
1616.98	25
1618.02	28
1619.06	25
1620.09	23.5
1621.13	25.5
1622.17	28
1623.21	27
1624.25	27
1625.29	25
1626.32	25.5
1627.36	27
1628.4	26
1629.44	22
1630.47	24
1631.51	24
1632.55	22.5
1633.58	28.5
1634.62	25.5
1635.66	21.5
1636.69	26
1637.73	26
1638.77	19.5
1639.8	24
1640.84	26.5
1641.87	26
1642.91	27
1643.94	28.5
1644.98	25
1646.01	25.5
1647.05	29
1648.08	31.5
1649.12	26.5
1650.15	23
1651.18	25.5
1652.22	28
1653.25	26
1654.29	24
1655.32	26
1656.35	24.5
1657.39	28
1658.42	26.5
1659.45	25.5
1660.48	27.5
1661.52	24
1662.55	26
1663.58	25
1664.61	28
1665.64	28
1666.68	27
1667.71	26.5
1668.74	24.5
1669.77	25
1670.8	24.5
1671.83	26.5
1672.86	27
1673.89	28.5
1674.92	26
1675.95	28.5
1676.98	25.5
1678.01	28
1679.04	27
1680.07	23
1681.1	26.5
1682.13	26.5
1683.16	28
1684.19	25
1685.22	24
1686.25	30.5
1687.27	22
1688.3	28
1689.33	25
1690.36	26
1691.38	25
1692.41	27
1693.44	27
1694.47	21.5
1695.49	23
1696.52	24.5
1697.55	25
1698.57	24.5
1699.6	25
1700.63	27.5
1701.65	28
1702.68	25.5
1703.7	27
1704.73	25
1705.76	27
1706.78	28
1707.81	28
1708.83	24
1709.86	29.5
1710.88	25
1711.91	29
1712.93	24
1713.95	27.5
1714.98	25
1716	26
1717.03	28
1718.05	28.5
1719.07	25
1720.1	25.5
1721.12	28
1722.14	27
1723.16	28
1724.19	27
1725.21	29
1726.23	26.5
1727.25	26
1728.28	27
1729.3	26
1730.32	30.5
1731.34	24.5
1732.36	22
1733.38	26.5
1734.41	26
1735.43	24.5
1736.45	28.5
1737.47	26
1738.49	23.5
1739.51	27.5
1740.53	25
1741.55	23.5
1742.57	25
1743.59	24
1744.61	27
1745.63	25.5
1746.64	22
1747.66	24.5
1748.68	26.5
1749.7	29
1750.72	24
1751.74	22.5
1752.76	25
1753.77	28
1754.79	27
1755.81	25
1756.83	25
1757.84	26.5
1758.86	25
1759.88	22.5
1760.9	28
1761.91	26.5
1762.93	24
1763.95	26
1764.96	26
1765.98	21
1766.99	25
1768.01	26
1769.02	28
1770.04	26
1771.06	27
1772.07	25.5
1773.09	24.5
1774.1	24.5
1775.12	26.5
1776.13	26
1777.14	28
1778.16	32.5
1779.17	24
1780.19	28
1781.2	26
1782.21	26.5
1783.23	25
1784.24	25.5
1785.25	25.5
1786.27	24
1787.28	31.5
1788.29	25.5
1789.3	30
1790.32	29
1791.33	25.5
1792.34	27
1793.35	25.5
1794.36	22
1795.38	29.5
1796.39	28.5
1797.4	29
1798.41	25.5
1799.42	28
1800.43	26.5
1801.44	24.5
1802.45	26
1803.46	28.5
1804.47	24
1805.48	23
1806.49	28
1807.5	26
1808.51	28
1809.52	26
1810.53	25.5
1811.54	26
1812.55	24.5
1813.56	28
1814.57	33.5
1815.57	23.5
1816.58	23
1817.59	24.5
1818.6	26
1819.61	22
1820.61	27.5
1821.62	28
1822.63	23
1823.64	26
1824.64	26
1825.65	25.5
1826.66	25.5
1827.66	26
1828.67	25
1829.68	27
1830.68	24
1831.69	26
1832.69	26
1833.7	27
1834.7	25
1835.71	25
1836.71	28
1837.72	26
1838.72	26.5
1839.73	30
1840.73	25.5
1841.74	23
1842.74	29
1843.75	24
1844.75	26.5
1845.75	25.5
1846.76	24
1847.76	26
1848.76	27
1849.77	24
1850.77	23.5
1851.77	24
1852.78	25
1853.78	25.5
1854.78	29
1855.78	30
1856.78	24
1857.79	26.5
1858.79	21.5
1859.79	26
1860.79	26.5
1861.79	25.5
1862.79	28
1863.79	29.5
1864.79	22.5
1865.79	26.5
1866.8	25
1867.8	24
1868.8	24
1869.8	27.5
1870.8	26.5
1871.8	27.5
1872.8	25
1873.79	29.5
1874.79	26.5
1875.79	26
1876.79	23.5
1877.79	26
1878.79	27
1879.79	25.5
1880.79	27
1881.78	23
1882.78	26
1883.78	26
1884.78	23
1885.77	21
1886.77	27
1887.77	22
1888.77	25.5
1889.76	24
1890.76	24.5
1891.76	24.5
1892.75	22
1893.75	23
1894.75	29
1895.74	26
1896.74	28.5
1897.73	24
1898.73	24
1899.73	23.5
1900.72	26.5
1901.72	25
1902.71	26.5
1903.7	28
1904.7	28.5
1905.69	24.5
1906.69	28
1907.68	26
1908.68	27
1909.67	28
1910.66	25
1911.66	26.5
1912.65	23
1913.64	25.5
1914.64	28.5
1915.63	25
1916.62	28
1917.62	25
1918.61	26
1919.6	21
1920.59	27
1921.58	25
1922.58	27.5
1923.57	26.5
1924.56	24
1925.55	26
1926.54	27
1927.53	27.5
1928.52	24
1929.51	28
1930.51	29
1931.5	25
1932.49	25
1933.48	23.5
1934.47	24.5
1935.46	25
1936.45	24.5
1937.44	25.5
1938.42	24.5
1939.41	28
1940.4	25
1941.39	27
1942.38	25.5
1943.37	27
1944.36	28
1945.35	23
1946.33	26
1947.32	25
1948.31	25
1949.3	23.5
1950.29	26.5
1951.27	21
1952.26	25
1953.25	24.5
1954.23	25.5
1955.22	24.5
1956.21	25
1957.19	28.5
1958.18	27.5
1959.17	25
1960.15	27.5
1961.14	26
1962.13	26.5
1963.11	24
1964.1	23
1965.08	26
1966.07	26.5
1967.05	25.5
1968.04	26
1969.02	28
1970.01	26
1970.99	29
1971.97	25.5
1972.96	24.5
1973.94	29.5
1974.93	23.5
1975.91	21.5
1976.89	26
1977.88	27
1978.86	25.5
1979.84	24
1980.83	29.5
1981.81	28
1982.79	20.5
1983.77	24.5
1984.76	25.5
1985.74	26.5
1986.72	24.5
1987.7	26
1988.68	24.5
1989.67	27
1990.65	24
1991.63	25
1992.61	25
1993.59	24.5
1994.57	24
1995.55	31
1996.53	25.5
1997.51	22
1998.49	28.5
1999.47	26.5
2000.45	26
2001.43	21.5
2002.41	26
2003.39	25.5
2004.37	31
2005.35	19
2006.33	27
2007.31	25
2008.29	26
2009.26	25
2010.24	26
2011.22	22
2012.2	24.5
2013.18	27
2014.15	23.5
2015.13	26.5
2016.11	27.5
2017.09	26.5
2018.06	22
2019.04	26
2020.02	24.5
2021	25
2021.97	26.5
2022.95	25
2023.92	27.5
2024.9	23
2025.88	26
2026.85	22
2027.83	28
2028.8	24.5
2029.78	25.5
2030.75	24
2031.73	20.5
2032.7	27
2033.68	25
2034.65	26
2035.63	28.5
2036.6	24.5
2037.58	28
2038.55	24.5
2039.52	26
2040.5	22.5
2041.47	25.5
2042.45	27.5
2043.42	27
2044.39	24
2045.36	25.5
2046.34	25.5
2047.31	23
2048.28	23.5
2049.26	21
2050.23	25
2051.2	25
2052.17	23.5
2053.14	20
2054.12	24.5
2055.09	23
2056.06	25.5
2057.03	25.5
2058	23.5
2058.97	23
2059.94	25.5
2060.91	27
2061.88	22
2062.85	25
2063.82	21
2064.79	23
2065.76	22
2066.73	26
2067.7	24
2068.67	24.5
2069.64	22
2070.61	26.5
2071.58	21
2072.55	22.5
2073.52	20
2074.49	26.5
2075.45	23.5
2076.42	26
2077.39	26
2078.36	23
2079.33	25.5
2080.29	22
2081.26	22
2082.23	22.5
2083.2	23.5
2084.16	22
2085.13	24.5
2086.1	24
2087.06	22.5
2088.03	28.5
2089	23.5
2089.96	22.5
2090.93	24.5
2091.89	23
2092.86	25
2093.83	23
2094.79	22.5
2095.76	26
2096.72	25.5
2097.69	26
2098.65	23
2099.62	23.5
2100.58	29
2101.55	24.5
2102.51	22
2103.47	26
2104.44	22.5
2105.4	23
2106.36	23.5
2107.33	25
2108.29	25
2109.25	22
2110.22	27.5
2111.18	26
2112.14	22.5
2113.11	22
2114.07	22
2115.03	23
2115.99	28
2116.96	27
2117.92	25
2118.88	22.5
2119.84	25
2120.8	25.5
2121.76	26
2122.72	22.5
2123.68	22.5
2124.65	23
2125.61	26
2126.57	26
2127.53	22
2128.49	27
2129.45	28.5
2130.41	27
2131.37	23
2132.33	24.5
2133.29	27
2134.25	25
2135.21	24
2136.17	22.5
2137.12	25
2138.08	27.5
2139.04	24.5
2140	26.5
2140.96	23.5
2141.92	25.5
2142.88	22.9941
2143.83	24.4529
2144.79	22.0775
2145.75	22.1423
2146.71	21.102
2147.66	22.5092
2148.62	21.3155
2149.58	23.6272
2150.53	25.6712
2151.49	22.255
2152.45	23.4821
2153.4	25.4785
2154.36	23.8786
2155.32	24.3759
2156.27	25.4239
2157.23	22.5911
2158.19	22.2898
2159.14	23.3057
2160.1	21.949
2161.05	22.4327
2162.01	24.1691
2162.96	23.6958
2163.92	24.4371
2164.87	23.0099
2165.83	25.4803
2166.78	26.7624
2167.73	24.268
2168.69	23.6528
2169.64	24.9379
2170.6	23.332
2171.55	24.7597
2172.5	23.734
2173.46	24.8626
2174.41	25.9423
2175.36	23.0329
2176.32	21.7711
2177.27	22.4756
2178.22	23.6803
2179.18	22.9522
2180.13	26.455
2181.08	25.1469
2182.03	22.4682
2182.98	23.644
2183.94	21.558
2184.89	24.9613
2185.84	23.8051
2186.79	21.3777
2187.74	22.7948
2188.69	20.8865
2189.64	24.9725
2190.6	23.826
2191.55	22.2204
2192.5	23.7429
2193.45	22.0961
2194.4	25.505
2195.35	22.7344
2196.3	23.271
2197.25	23.6538
2198.2	24.4179
2199.15	23.8416
2200.1	23.6033
2201.04	22.5071
2201.99	24.0733
2202.94	24.1184
2203.89	24.5655
2204.84	22.1545
2205.79	22.256
2206.74	22.6544
2207.69	25.3623
2208.63	21.8257
2209.58	22.9466
2210.53	21.9385
2211.48	24.3047
2212.43	22.3393
2213.37	23.3606
2214.32	25.193
2215.27	24.1107
2216.21	22.5299
2217.16	25.167
2218.11	23.6555
2219.05	24.3742
2220	22.8196
2220.95	19.2178
2221.89	23.6063
2222.84	24.7039
2223.78	25.085
2224.73	22.1054
2225.68	24.6256
2226.62	23.1401
2227.57	25.2026
2228.51	20.957
2229.46	22.0238
2230.4	22.3783
2231.35	22.9279
2232.29	23.8632
2233.24	22.5581
2234.18	20.3252
2235.12	22.787
2236.07	24.691
2237.01	22.1222
2237.95	23.8661
2238.9	23.0203
2239.84	25.9271
2240.06	27
2241.01	22.5
2241.96	22.5
2242.91	25
2243.86	25.5
2244.8	23.5
2245.75	22
2246.7	21.5
2247.65	23.5
2248.59	23
2249.54	26
2250.49	22.5
2251.43	23
2252.38	19.5
2253.33	24
2254.27	21
2255.22	23
2256.16	18
2257.11	21
2258.06	25.5
2259	23.5
2259.95	21
2260.89	21
2261.84	23.5
2262.78	28
2263.73	25
2264.67	25.5
2265.62	27
2266.56	24
2267.5	24
2268.45	24
2269.39	25
2270.34	27.5
2271.28	27.5
2272.22	22
2273.17	23.5
2274.11	23
2275.05	23
2276	20
2276.94	21.5
2277.88	24.5
2278.82	23
2279.77	23
2280.71	28
2281.65	20.5
2282.59	23
2283.53	25.5
2284.48	26
2285.42	22.5
2286.36	25.5
2287.3	23.5
2288.24	23.5
2289.18	22.5
2290.12	25.5
2291.06	27
2292	24
2292.94	21
2293.89	26
2294.83	20.5
2295.77	24.5
2296.71	25
2297.65	23
2298.58	27
2299.52	26.5
2300.46	23.5
2301.4	21
2302.34	21.5
2303.28	24.5
2304.22	20.5
2305.16	25.5
2306.1	24
2307.03	21.5
2307.97	29
2308.91	22.5
2309.85	21.5
2310.79	25.5
2311.72	21.5
2312.66	25
2313.6	24
2314.54	24
2315.47	24.5
2316.41	20
2317.35	26.5
2318.28	23.5
2319.22	26
2320.16	24
2321.09	28
2322.03	26.5
2322.96	24
2323.9	26.5
2324.84	25.5
2325.77	24.5
2326.71	24.5
2327.64	23.5
2328.58	27
2329.51	21
2330.45	23.5
2331.38	24
2332.32	21.5
2333.25	24.5
2334.18	27.5
2335.12	24
2336.05	22
2336.99	26.5
2337.92	26
2338.85	24.5
2339.79	27
2340.72	24.5
2341.65	26
2342.59	23.5
2343.52	23
2344.45	24.5
2345.39	23
2346.32	29
2347.25	24.5
2348.18	21.5
2349.11	27
2350.05	25
2350.98	22.5
2351.91	25
2352.84	25
2353.77	27.5
2354.7	25.5
2355.64	22.5
2356.57	25
2357.5	24
2358.43	26
2359.36	23
2360.29	24
2361.22	26.5
2362.15	24
2363.08	24
2364.01	26
2364.94	23
2365.87	29
2366.8	22
2367.73	25.5
2368.66	24
2369.58	23
2370.51	21
2371.44	28
2372.37	24
2373.3	23.5
2374.23	25
2375.16	24
2376.08	26.5
2377.01	26.5
2377.94	25.5
2378.87	27
2379.8	25
2380.72	25.5
2381.65	23
2382.58	22
2383.5	25
2384.43	27.5
2385.36	23
2386.28	22.5
2387.21	25.5
2388.14	26
2389.06	23.5
2389.99	23
2390.91	21
2391.84	27
2392.77	26
2393.69	23
2394.62	24.5
2395.54	24.5
2396.47	20
2397.39	22
2398.32	23.5
2399.24	25
2400.16	23.5
2401.09	26.5
2402.01	24
2402.94	21
2403.86	25.5
2404.78	26.5
2405.71	24.5
2406.63	24
2407.56	25
2408.48	26
2409.4	21
2410.32	21
2411.25	27
2412.17	24.5
2413.09	25
2414.02	26.5
2414.94	26.5
2415.86	15
2416.78	26
2417.7	26
2418.63	22
2419.55	27.5
2420.47	25.5
2421.39	25
2422.31	25
2423.23	24.5
2424.15	24.5
2425.07	26.5
2425.99	21
2426.92	23
2427.84	27.5
2428.76	27.5
2429.68	23
2430.59	24
2431.51	22
2432.43	23.5
2433.35	22.5
2434.27	23
2435.19	25.5
2436.11	25.5
2437.03	27
2437.95	23.5
2438.87	25.5
2439.79	26.5
2440.71	25
2441.62	25.5
2442.54	26
2443.46	23.5
2444.38	24.5
2445.3	23.5
2446.21	26.5
2447.13	24
2448.05	25.5
2448.97	22.5
2449.88	21
2450.8	21
2451.72	26
2452.63	29
2453.55	27
2454.47	28.5
2455.38	27.5
2456.3	21.5
2457.21	27.5
2458.13	25.5
2459.05	24
2459.96	25.5
2460.88	24.5
2461.79	22
2462.71	28
2463.62	24.5
2464.54	25
2465.45	23
2466.37	23
2467.28	23
2468.2	26
2469.11	24.5
2470.02	22.5
2470.94	22.5
2471.85	24.5
2472.77	26
2473.68	20
2474.59	28
2475.51	23.5
2476.42	26
2477.33	26.5
2478.25	25
2479.16	26
2480.07	25
2480.98	23.5
2481.9	23
2482.81	25
2483.72	26.5
2484.63	22.5
2485.55	27.5
2486.46	25
2487.37	27
2488.28	24
2489.19	26
2490.1	20.5
2491.01	29.5
2491.92	27.5
2492.83	25.5
2493.74	24.5
2494.66	26
2495.57	27
2496.48	23.5
2497.39	24
2498.3	22
2499.21	23
2500.12	27.5
2501.03	23.5
2501.93	25
2502.84	22
2503.75	26.5
2504.66	27
2505.57	25.5
2506.48	26
2507.39	24
2508.3	28
2509.21	26
2510.11	25
2511.02	23
2511.93	25
2512.84	25
2513.75	24.5
2514.65	20.5
2515.56	24
2516.47	26
2517.37	24
2518.28	23
2519.19	21.5
2520.09	24.5
2521	25.5
2521.91	23.5
2522.81	31.5
2523.72	27
2524.63	25
2525.53	27.5
2526.44	24.5
2527.34	24.5
2528.25	25.5
2529.16	27.5
2530.06	21.5
2530.97	27
2531.87	25.5
2532.78	24
2533.68	26.5
2534.58	26
2535.49	28.5
2536.39	23
2537.3	24.5
2538.2	30.5
2539.11	25.5
2540.01	26
2540.91	25
2541.82	27
2542.72	25
2543.62	26
2544.53	22
2545.43	28.5
2546.33	27
2547.23	23
2548.14	30
2549.04	26
2549.94	26
2550.84	22.5
2551.75	25
2552.65	26
2553.55	26.5
2554.45	25.5
2555.35	24
2556.26	27
2557.16	27
2558.06	22.5
2558.96	26.5
2559.86	28.5
2560.76	24
2561.66	27
2562.56	22.5
2563.46	25
2564.36	24.5
2565.26	25.5
2566.16	24.5
2567.06	24
2567.96	23.5
2568.86	27
2569.76	24
2570.66	27
2571.56	28.5
2572.46	25.5
2573.36	23.5
2574.26	27
2575.16	28.5
2576.05	23
2576.95	25.5
2577.85	23.5
2578.75	28.5
2579.65	26.5
2580.54	27
2581.44	20
2582.34	22.5
2583.24	29
2584.13	25
2585.03	25.5
2585.93	27.5
2586.83	22
2587.72	27.5
2588.62	24.5
2589.52	28
2590.41	26.5
2591.31	24
2592.2	22
2593.1	24
2594	27.5
2594.89	24.5
2595.79	23.5
2596.68	24.5
2597.58	24.5
2598.47	29.5
2599.37	27.5
2600.26	24.5
2601.16	25.5
2602.05	27
2602.95	25
2603.84	24.5
2604.74	29
2605.63	25.5
2606.52	26
2607.42	23.5
2608.31	28
2609.21	28
2610.1	25
2610.99	22.5
2611.89	26
2612.78	23
2613.67	26.5
2614.56	20.5
2615.46	23
2616.35	25
2617.24	23
2618.13	25
2619.03	27
2619.92	25
2620.81	24.5
2621.7	28
2622.59	25.5
2623.49	26
2624.38	23
2625.27	25.5
2626.16	22.5
2627.05	24
2627.94	24.5
2628.83	27
2629.72	27.5
2630.61	26.5
2631.5	22.5
2632.39	26.5
2633.28	25.5
2634.17	23
2635.06	25
2635.95	24.5
2636.84	26
2637.73	24.5
2638.62	24
2639.51	23
2640.4	28.5
2641.29	25.5
2642.18	27.5
2643.07	26
2643.96	24
2644.84	25
2645.73	23.5
2646.62	28.5
2647.51	25.5
2648.4	30.5
2649.28	23
2650.17	24
2651.06	26.5
2651.95	28.5
2652.83	25.5
2653.72	23
2654.61	26
2655.49	24
2656.38	24.5
2657.27	25
2658.16	24.5
2659.04	26
2659.93	26
2660.81	25.5
2661.7	26
2662.59	27.5
2663.47	23
2664.36	24
2665.24	27
2666.13	27.5
2667.01	26
2667.9	24
2668.78	23
2669.67	20.5
2670.55	28
2671.44	26
2672.32	28
2673.21	24
2674.09	26.5
2674.97	29
2675.86	23.5
2676.74	25
2677.62	24
2678.51	28.5
2679.39	27
2680.27	25.5
2681.16	28
2682.04	23
2682.92	28.5
2683.81	26.5
2684.69	26
2685.57	26
2686.45	22
2687.34	24.5
2688.22	22
2689.1	25
2689.98	20
2690.86	27
2691.75	24
2692.63	25
2693.51	28
2694.39	25.5
2695.27	27.5
2696.15	26
2697.03	24.5
2697.91	21.5
2698.79	26
2699.67	27
2700.55	23.5
2701.43	20.5
2702.31	27.5
2703.19	26
2704.07	27
2704.95	25.5
2705.83	27.5
2706.71	23
2707.59	26.5
2708.47	24
2709.35	20
2710.23	25
2711.11	25
2711.99	23.5
2712.86	27
2713.74	25.5
2714.62	25.5
2715.5	28
2716.38	26
2717.26	25.5
2718.13	25.5
2719.01	29.5
2719.89	26.5
2720.77	23
2721.64	23.5
2722.52	25.5
2723.4	25.5
2724.27	23.5
2725.15	24
2726.03	24
2726.9	27
2727.78	24.5
2728.66	23.5
2729.53	26.5
2730.41	26.5
2731.28	26.5
2732.16	25.5
2733.03	29.5
2733.91	24
2734.79	26.5
2735.66	23.5
2736.54	28
2737.41	28
2738.29	26.5
2739.16	25.5
2740.03	25.5
2740.91	24
2741.78	28
2742.66	25.5
2743.53	25
2744.41	27.5
2745.28	24.5
2746.15	27.5
2747.03	25
2747.9	26
2748.77	24.5
2749.65	23.5
2750.52	23.5
2751.39	27
2752.27	23
2753.14	27.5
2754.01	26.5
2754.88	22
2755.75	23
2756.63	22.5
2757.5	27.5
2758.37	26
2759.24	24
2760.11	23.5
2760.99	23
2761.86	25
2762.73	29
2763.6	25
2764.47	23
2765.34	24
2766.21	30.5
2767.08	29.5
2767.95	21
2768.82	24
2769.69	26
2770.56	24
2771.43	25.5
2772.3	27
2773.17	24
2774.04	26.5
2774.91	23
2775.78	27.5
2776.65	27
2777.52	23
2778.39	22
2779.26	27.5
2780.13	25.5
2780.99	26
2781.86	26
2782.73	24
2783.6	26
2784.47	25
2785.34	23.5
2786.2	26
2787.07	29
2787.94	26
2788.81	28.5
2789.67	24.5
2790.54	26.5
2791.41	20.5
2792.27	29
2793.14	29
2794.01	26
2794.87	32
2795.74	25.5
2796.61	26
2797.47	32
2798.34	27
2799.21	26.5
2800.07	28
2800.94	29.5
2801.8	29.5
2802.67	23
2803.53	29.5
2804.4	29
2805.26	26
2806.13	31
2806.99	23
2807.86	24
2808.72	30
2809.59	31.5
2810.45	24
2811.32	21
2812.18	27.5
2813.04	28
2813.91	27.5
2814.77	24
2815.64	30
2816.5	26
2817.36	26.5
2818.22	29
2819.09	30
2819.95	26
2820.81	23.5
2821.68	28
2822.54	23.5
2823.4	23
2824.26	25.5
2825.13	27
2825.99	22
2826.85	26.5
2827.71	28
2828.57	26
2829.44	24.5
2830.3	28
2831.16	25.5
2832.02	27
2832.88	27.5
2833.74	26
2834.6	22
2835.46	28
2836.32	27
2837.18	25.5
2838.04	25
2838.9	26.5
2839.76	29.5
2840.62	27.5
2841.48	25.5
2842.34	27.5
2843.2	26.5
2844.06	25
2844.92	28
2845.78	23.5
2846.64	30
2847.5	27.5
2848.36	28
2849.22	25.5
2850.08	24.5
2850.93	24
2851.79	23.5
2852.65	26.5
2853.51	26
2854.37	25
2855.22	25.5
2856.08	26.5
2856.94	27.5
2857.8	27.5
2858.65	27.5
2859.51	27
2860.37	24
2861.23	28
2862.08	28.5
2862.94	26.5
2863.79	27.5
2864.65	28.5
2865.51	26
2866.36	25
2867.22	30
2868.08	31
2868.93	26
2869.79	28
2870.64	27.5
2871.5	25
2872.35	32
2873.21	30
2874.06	30
2874.92	31
2875.77	28.5
2876.63	26
2877.48	29.5
2878.34	29
2879.19	33.5
2880.05	28
2880.9	30
2881.76	32.5
2882.61	31
2883.46	33.5
2884.32	33
2885.17	29.5
2886.02	33
2886.88	31.5
2887.73	33
2888.58	35.5
2889.44	36.5
2890.29	35.5
2891.14	36.5
2891.99	42.5
2892.85	38
2893.7	44
2894.55	40.5
2895.4	43
2896.25	44
2897.11	43
2897.96	50.5
2898.81	54
2899.66	56.5
2900.51	54.5
2901.36	56
2902.21	62
2903.07	66.5
2903.92	62
2904.77	58.5
2905.62	63.5
2906.47	68
2907.32	63
2908.17	65.5
2909.02	61
2909.87	57.5
2910.72	61.5
2911.57	55
2912.42	53.5
2913.27	49
2914.12	43
2914.97	45
2915.81	46
2916.66	40.5
2917.51	42
2918.36	41.5
2919.21	33
2920.06	31.5
2920.91	37.5
2921.75	38.5
2922.6	28
2923.45	34.5
2924.3	31
2925.15	33.5
2925.99	28
2926.84	31
2927.69	32
2928.54	28.5
2929.38	31
2930.23	28.5
2931.08	27
2931.92	30
2932.77	29
2933.62	31
2934.46	30
2935.31	28
2936.16	26
2937	28
2937.85	28
2938.69	31
2939.54	24.5
2940.38	25
2941.23	30
2942.08	30
2942.92	29.5
2943.77	28.5
2944.61	26.5
2945.46	28.5
2946.3	26.5
2947.15	29.5
2947.99	30.5
2948.83	31
2949.68	24
2950.52	32
2951.37	36
2952.21	29
2953.05	31.5
2953.9	34
2954.74	32
2955.58	29
2956.43	32
2957.27	34
2958.11	38
2958.96	39
2959.8	38.5
2960.64	39.5
2961.48	39
2962.33	41
2963.17	41.5
2964.01	41
2964.85	41.5
2965.69	40
2966.54	39.5
2967.38	45.5
2968.22	42
2969.06	41
2969.9	39
2970.74	39
2971.58	36.9903
2972.43	33.0291
2973.27	35.376
2974.11	36.248
2974.95	35.4147
2975.79	31.2568
2976.63	30.2935
2977.47	34.0364
2978.31	30.775
2979.15	28.9839
2979.99	32.2328
2980.83	28.8677
2981.67	28.7653
2982.51	28.3034
2983.35	25.5157
2984.19	31.3696
2985.03	25.6169
2985.86	25.3031
2986.7	27.3499
2987.54	28.2907
2988.38	27.6496
2989.22	28.3069
2990.06	26.475
2990.9	28.1475
2991.73	25.736
2992.57	22.4617
2993.41	23.7846
2994.25	25.1779
2995.09	24.5615
2995.92	24.9432
2996.76	27.6252
2997.6	23.908
2998.44	24.4892
2999.27	24.3892
3000.11	24.1685
3000.95	22.9756
3001.78	22.9856
3002.62	24.8699
3003.46	25.7273
3004.29	24.0488
3005.13	26.4689
3005.96	25.2696
3006.8	24.0576
3007.64	26
3008.47	22.5395
3009.31	25.6381
3010.14	27.7
3010.98	22.5403
3011.81	24.3368
3012.65	25.7477
3013.48	24.3082
3014.32	22.9194
3015.15	24.5791
3015.99	23.7985
3016.82	23.6766
3017.66	22.3243
3018.49	24.781
3019.33	24.6301
3020.16	23.3215
3020.99	23.6009
3021.83	23.6269
3022.66	23.2685
3023.5	21.8204
3024.33	23.3754
3025.16	23.1302
3026	25.0764
3026.83	23.7725
3027.66	23.2403
3028.49	22.6149
3029.33	22.6033
3030.16	22.5811
3030.99	22.5413
3031.83	24.2142
3032.66	24.0907
3033.49	24.5556
3034.32	24.733
3035.15	24.2193
3035.99	23.6792
3036.82	25.1319
3037.65	24.5249
3038.48	22.3202
3039.31	23.0349
3040.14	23.2837
3040.97	22.7186
3041.81	23.0247
3042.64	24.0465
3043.47	25.4005
3044.3	24.905
3045.13	23.8158
3045.96	23.5262
3046.79	23.6051
3047.62	23.8411
3048.45	23.7589
3049.28	22.6311
3050.11	23.4024
3050.94	23.4636
3051.77	23.8214
3052.6	24.7232
3053.43	23.5683
3054.26	21.8217
3055.08	23.9335
3055.91	24.0238
3056.74	23.4595
3057.26	21
3058.09	23
3058.92	25
3059.76	28
3060.59	27.5
3061.42	26
3062.25	23
3063.09	23.5
3063.92	25.5
3064.75	24
3065.58	23
3066.42	25
3067.25	26
3068.08	22
3068.91	23.5
3069.74	28.5
3070.57	25.5
3071.41	23
3072.24	24.5
3073.07	21.5
3073.9	28
3074.73	24
3075.56	19.5
3076.39	25
3077.22	23.5
3078.05	27
3078.88	23
3079.71	22
3080.54	24.5
3081.37	22
3082.2	22.5
3083.03	25.5
3083.86	22.5
3084.69	28.5
3085.52	25
3086.35	25
3087.18	23
3088.01	21.5
3088.84	25.5
3089.67	20.5
3090.5	26.5
3091.32	20.5
3092.15	25.5
3092.98	27.5
3093.81	26
3094.64	24
3095.47	24
3096.29	25
3097.12	21
3097.95	23
3098.78	25
3099.6	26.5
3100.43	20.5
3101.26	24.5
3102.09	20
3102.91	25.5
3103.74	26.5
3104.57	21
3105.39	26.5
3106.22	21.5
3107.05	25.5
3107.87	24.5
3108.7	26.5
3109.52	25.5
3110.35	23
3111.18	20.5
3112	25.5
3112.83	27
3113.65	22
3114.48	22
3115.3	22
3116.13	23
3116.95	24.5
3117.78	26
3118.6	24.5
3119.43	21
3120.25	25
3121.08	28
3121.9	25.5
3122.72	22.5
3123.55	25
3124.37	25
3125.2	26.5
3126.02	24
3126.84	26.5
3127.67	21
3128.49	26.5
3129.31	26.5
3130.14	24
3130.96	29
3131.78	23
3132.61	21.5
3133.43	26.5
3134.25	24
3135.07	26
3135.89	27
3136.72	25
3137.54	24
3138.36	24.5
3139.18	25
3140	28.5
3140.83	26
3141.65	24
3142.47	24
3143.29	24
3144.11	23
3144.93	21.5
3145.75	22.5
3146.57	25
3147.4	24.5
3148.22	24
3149.04	24
3149.86	23.5
3150.68	23.5
3151.5	24
3152.32	21.5
3153.14	24.5
3153.96	27.5
3154.78	23
3155.59	23
3156.42	28
3157.23	28
3158.05	25.5
3158.87	22
3159.69	23.5
3160.51	22
3161.33	25
3162.15	26
3162.97	25
3163.78	20
3164.6	22.5
3165.42	22.5
3166.24	26.5
3167.06	23.5
3167.87	23.5
3168.69	21
3169.51	24
3170.33	23
3171.14	24.5
3171.96	24
3172.78	26
3173.6	23.5
3174.41	28
3175.23	22.5
3176.05	30.5
3176.86	22.5
3177.68	21
3178.5	24
3179.31	26.5
3180.13	24
3180.94	26
3181.76	22
3182.58	23.5
3183.39	22
3184.21	27.5
3185.02	23
3185.84	23
3186.65	21
3187.47	28.5
3188.28	23.5
3189.1	23
3189.91	23.5
3190.73	25
3191.54	24
3192.36	20
3193.17	27
3193.98	25.5
3194.8	24
3195.61	27.5
3196.43	27
3197.24	24
3198.05	26.5
3198.87	25.5
3199.68	26.5
3200.49	26
3201.31	26.5
3202.12	27.5
3202.93	28.5
3203.75	25
3204.56	23.5
3205.37	25
3206.18	25
3207	25
3207.81	27
3208.62	23.5
3209.43	22
3210.24	26
3211.06	24
3211.87	24.5
3212.68	25
3213.49	22.5
3214.3	25
3215.11	25
3215.92	23
3216.73	24
3217.55	26
3218.36	24
3219.17	25
3219.98	21
3220.79	26.5
3221.6	24.5
3222.41	25
3223.22	24.5
3224.03	23
3224.84	25
3225.65	24.5
3226.46	21
3227.27	25
3228.08	27.5
3228.89	23.5
3229.7	26.5
3230.5	28
3231.31	23
3232.12	25.5
3232.93	23
3233.74	24
3234.55	26
3235.36	21.5
3236.16	25.5
3236.97	25
3237.78	26.5
3238.59	24.5
3239.4	29
3240.2	22
3241.01	27
3241.82	23.5
3242.63	27
3243.43	24
3244.24	22.5
3245.05	27.5
3245.85	25
3246.66	21
3247.47	25
3248.27	23.5
3249.08	23.5
3249.89	22
3250.69	25
3251.5	24.5
3252.31	24.5
3253.11	26
3253.92	23
3254.72	21
3255.53	26
3256.33	24
3257.14	23.5
3257.94	24.5
3258.75	22.5
3259.55	23
3260.36	25.5
3261.16	22.5
3261.97	24
3262.77	25.5
3263.58	23
3264.38	21.5
3265.19	22
3265.99	21.5
3266.79	22
3267.6	21
3268.4	20.5
3269.21	27
3270.01	24
3270.81	24
3271.62	24.5
3272.42	24
3273.22	24
3274.03	25
3274.83	24
3275.63	23.5
3276.43	21.5
3277.24	26.5
3278.04	20
3278.84	24.5
3279.64	23
3280.45	27.5
3281.25	24.5
3282.05	25.5
3282.85	25
3283.65	24.5
3284.45	25
3285.26	25
3286.06	21.5
3286.86	27
3287.66	25
3288.46	28
3289.26	21
3290.06	22
3290.86	24.5
3291.66	22
3292.46	24
3293.26	26
3294.06	24.5
3294.86	24
3295.66	26
3296.46	25
3297.26	27.5
3298.06	28
3298.86	26
3299.66	26.5
3300.46	24.5
3301.26	21.5
3302.06	26
3302.86	25
3303.66	24.5
3304.46	27.5
3305.25	22.5
3306.05	25
3306.85	22
3307.65	23
3308.45	25
3309.25	25
3310.04	26.5
3310.84	28
3311.64	24.5
3312.44	26.5
3313.23	22.5
3314.03	24.5
3314.83	26
3315.63	24.5
3316.42	23
3317.22	21
3318.02	21.5
3318.81	23
3319.61	27
3320.41	27
3321.2	25
3322	28
3322.8	23
3323.59	23
3324.39	23
3325.18	24
3325.98	21
3326.78	24.5
3327.57	26
3328.37	26.5
3329.16	21.5
3329.96	25.5
3330.75	21
3331.55	23
3332.34	27
3333.14	25
3333.93	23.5
3334.73	25
3335.52	27
3336.31	26
3337.11	26.5
3337.9	26
3338.7	26
3339.49	24
3340.28	21
3341.08	25.5
3341.87	25
3342.66	25
3343.46	24.5
3344.25	20
3345.04	28
3345.84	24
3346.63	26.5
3347.42	26.5
3348.22	23.5
3349.01	27
3349.8	24
3350.59	23
3351.39	25.5
3352.18	25
3352.97	24
3353.76	27
3354.55	29
3355.35	25
3356.14	24
3356.93	25
3357.72	23.5
3358.51	28
3359.3	24
3360.09	25.5
3360.88	28
3361.67	28
3362.46	27.5
3363.26	23
3364.05	27.5
3364.84	26
3365.63	27.5
3366.42	26
3367.21	24
3368	24.5
3368.79	25
3369.58	23.5
3370.37	26
3371.15	25
3371.94	26
3372.73	25
3373.52	28.5
3374.31	23
3375.1	24.5
3375.89	24
3376.68	22
3377.47	26
3378.26	23.5
3379.04	27
3379.83	25
3380.62	23.5
3381.41	27
3382.2	23.5
3382.98	26
3383.77	26
3384.56	25.5
3385.35	27.5
3386.13	24
3386.92	25.5
3387.71	23.5
3388.5	25.5
3389.28	26.5
3390.07	24.5
3390.86	25.5
3391.64	25.5
3392.43	21
3393.22	24
3394	22.5
3394.79	25.5
3395.57	23
3396.36	24.5
3397.15	23
3397.93	26
3398.72	24
3399.5	23.5
3400.29	25
3401.07	27
3401.86	25.5
3402.65	22
3403.43	28.5
3404.21	23.5
3405	25
3405.78	29
3406.57	27.5
3407.35	25.5
3408.14	21
3408.92	27.5
3409.71	29
3410.49	26
3411.27	22
3412.06	23
3412.84	24
3413.62	26
3414.41	25.5
3415.19	27.5
3415.97	23
3416.76	26
3417.54	23.5
3418.32	22.5
3419.11	22.5
3419.89	23.5
3420.67	23.5
3421.46	26.5
3422.24	26.5
3423.02	16.5
3423.8	27
3424.58	27
3425.37	24.5
3426.15	25
3426.93	21
3427.71	26
3428.49	28.5
3429.27	24
3430.05	22.5
3430.84	23.5
3431.62	24
3432.4	27.5
3433.18	25
3433.96	24.5
3434.74	24.5
3435.52	25.5
3436.3	28
3437.08	23
3437.86	22
3438.64	27
3439.42	25.5
3440.2	25.5
3440.98	23.5
3441.76	22
3442.54	21.5
3443.32	26
3444.1	27
3444.88	26
3445.66	26.5
3446.44	27
3447.22	24.5
3448	26.5
3448.77	25
3449.55	24.5
3450.33	23
3451.11	27.5
3451.89	25
3452.67	21
3453.45	27
3454.22	19
3455	23
3455.78	23
3456.56	23
3457.33	25
3458.11	23.5
3458.89	23
3459.67	23.5
3460.44	26
3461.22	26.5
3462	25
3462.77	25
3463.55	23.5
3464.33	24.5
3465.1	28
3465.88	25.5
3466.66	22
3467.43	22.5
3468.21	23.5
3468.98	26
3469.76	24
3470.54	26
3471.31	23.5
3472.09	23.5
3472.86	25.5
3473.64	25
3474.41	24
3475.19	26
3475.96	24
3476.74	25
3477.51	27.5
3478.29	23
3479.06	27
3479.84	23
3480.61	20
3481.39	23.5
3482.16	27
3482.93	27
3483.71	24.5
3484.48	19.5
3485.25	28
3486.03	20
3486.8	23.5
3487.57	25
3488.35	21
3489.12	25
3489.89	22
3490.67	24
3491.44	24
3492.21	27.5
3492.99	26
3493.76	23
3494.53	24.5
3495.3	27
3496.08	24
3496.85	24
3497.62	29
3498.39	22.5
3499.16	25.5
3499.93	27
