#Acq. time (s)=	5
#Accumulations=	5
#Range (cm-¹)=	100...3500
#Windows=	4
#Autofocus=	Off
#AutoExposure=	Off
#Spike filter=	Multiple accum.
#Delay time (s)=	0
#Binning=	1
#Readout mode=	Signal
#DeNoise=	Off
#ICS correction=	Off
#Dark correction=	Off
#Inst. Process=	Off
#Instrument=	LabRAM HR Evol
#Detector=	Syncerity OE
#Objective=	x100_VIS
#Grating=	600 (500nm)
#ND Filter=	25%
#Laser=	633nm_Edge
#Hole=	100.021
#Range=	Visible
#Project=	verificaciones
#Sample=	at5
#Site=	lined
#Title=	bolusat5lined
#Remark=	
#Date=	13.01.2026 16:08
#Acquired=	13.01.2026 16:08:28
100.692	29.5
101.975	30.5
103.258	33.5
104.542	35.5
105.824	31.5
107.107	29.5
108.39	29.5
109.672	31
110.954	29.5
112.236	31
113.519	28
114.8	31.5
116.081	37
117.362	33
118.643	31.5
119.924	27.5
121.204	34
122.484	32.5
123.764	35
125.044	31.5
126.323	32
127.603	35
128.882	33
130.161	29.5
131.438	32
132.716	34.5
133.995	34
135.273	38.5
136.55	36
137.828	36
139.106	37
140.383	36
141.66	35.5
142.937	36.5
144.213	39
145.488	38
146.764	35.5
148.04	42
149.316	38.5
150.592	40.5
151.867	40.5
153.141	40
154.416	41
155.69	37
156.965	44.5
158.239	39.5
159.512	41.5
160.786	41.5
162.059	40
163.333	43
164.605	38.5
165.878	40
167.15	37
168.423	40.5
169.694	39.5
170.966	36
172.238	35.5
173.51	43.5
174.78	41
176.052	41.5
177.323	38.5
178.592	42.5
179.863	44.5
181.134	43
182.403	39.5
183.673	38.5
184.943	40
186.211	44
187.481	37
188.749	39
190.018	44
191.287	36
192.554	43
193.822	42
195.089	44.5
196.357	36
197.625	36.5
198.891	37.5
200.159	39.5
201.425	40
202.692	36
203.957	38
205.224	37.5
206.489	36
207.755	37.5
209.02	36
210.286	34
211.55	31.5
212.815	29.5
214.079	30.5
215.344	35
216.607	34
217.872	36
219.135	35
220.399	31.5
221.662	29
222.924	35.5
224.187	31.5
225.449	35
226.713	30
227.974	31
229.235	32.5
230.498	36.5
231.759	35
233.019	35
234.281	28
235.542	31.5
236.802	32.5
238.063	36
239.323	30.5
240.582	33.5
241.843	30
243.102	35
244.361	29.5
245.621	29.5
246.879	31
248.138	27.5
249.396	28.5
250.655	35.5
251.913	31.5
253.17	33
254.427	30.5
255.686	33
256.943	29
258.199	30
259.456	28
260.712	31
261.969	32
263.225	32
264.481	31
265.736	31
266.991	31.5
268.246	28
269.502	29.5
270.757	30.5
272.011	23
273.265	28.5
274.519	28
275.773	29.5
277.027	26.5
278.28	32.5
279.533	29.5
280.786	28.5
282.04	29
283.293	29
284.545	27
285.798	28
287.049	27
288.301	27
289.553	27.5
290.804	30
292.055	31.5
293.306	29.5
294.557	28
295.807	30
297.058	29
298.308	32
299.558	28
300.808	31
302.057	31
303.305	31
304.554	30
305.803	29.5
307.052	29.5
308.3	26
309.549	24.5
310.797	27
312.045	26
313.292	26
314.54	30
315.786	28
317.033	29.5
318.28	29
319.526	29.5
320.773	32.5
322.019	28.5
323.264	29.5
324.51	31.5
325.755	32
327.001	28
328.246	26
329.49	32
330.735	29
331.979	27.5
333.224	28.5
334.467	28
335.711	29
336.955	28.5
338.199	29
339.441	30
340.684	28.5
341.927	26
343.168	25.5
344.411	34
345.654	34
346.895	28
348.137	30
349.379	27
350.619	32
351.86	32
353.102	29
354.341	27.5
355.582	25.5
356.821	30
358.062	27
359.302	30.5
360.541	27.5
361.781	28
363.019	32.5
364.259	25
365.496	30.5
366.736	31
367.974	30
369.212	31
370.45	27
371.687	27.5
372.925	27.5
374.162	27.5
375.399	34.5
376.635	27.5
377.873	28
379.109	33
380.344	27.5
381.581	31
382.816	30.5
384.052	29
385.287	30
386.523	29
387.757	28
388.991	32
390.227	29.5
391.46	30.5
392.695	28.5
393.928	29.5
395.162	29.5
396.396	29
397.629	35.5
398.861	29.5
400.095	27.5
401.327	30.5
402.559	27.5
403.792	29.5
405.024	32.5
406.255	28.5
407.488	30.5
408.719	31
409.949	29
411.18	25.5
412.412	31
413.642	27.5
414.872	29
416.102	30.5
417.333	28.5
418.562	30.5
419.791	28.5
421.02	27
422.249	26.5
423.479	26.5
424.707	28.5
425.935	30
427.163	28.5
428.391	28
429.619	26
430.848	29
432.075	30
433.302	32
434.529	27.5
435.755	22
436.982	27
438.208	34
439.434	29.5
440.66	24
441.885	31
443.111	29.5
444.338	31
445.563	28
446.788	32
448.012	26
449.237	30
450.461	33.5
451.685	28
452.909	33
454.133	31
455.356	28
456.579	25.5
457.802	29
459.025	32
460.247	30
461.469	30
462.691	33
463.914	33
465.136	29
466.357	33.5
467.579	34
468.8	31.5
470.021	30.5
471.242	31
472.462	38
473.682	37
474.903	39
476.123	37.5
477.343	45.5
478.563	41
479.782	46
481	46
482.219	51
483.438	57
484.657	58
485.874	53
487.093	55
488.311	61
489.529	60.5
490.747	57
491.963	55.5
493.181	54
494.398	51
495.614	52
496.83	44
498.047	48
499.264	46
500.479	43.5
501.695	42.5
502.911	40
504.125	35.5
505.34	43
506.554	34
507.769	36.5
508.984	34.5
510.198	32
511.412	39.5
512.627	34
513.839	36
515.053	34.5
516.266	34.5
517.479	33.5
518.691	32.5
519.905	32
521.118	33.5
522.329	30
523.542	29
524.753	32
525.965	34.5
527.176	35
528.388	31
529.598	28.5
530.809	29
532.019	34
533.23	32.5
534.44	29.5
535.649	29.5
536.86	33.5
538.068	37.5
539.279	28
540.487	31.5
541.697	33
542.905	33
544.113	30
545.322	30.5
546.53	29
547.737	31
548.946	27
550.153	26.5
551.361	27
552.568	31.5
553.774	31.5
554.982	31
556.188	28.5
557.394	30.5
558.599	32
559.806	27
561.012	30.5
562.217	31
563.423	29.5
564.628	28.5
565.832	28.5
567.036	32
568.241	28
569.446	28
570.65	28.5
571.853	30.5
573.057	29
574.26	28.5
575.464	29.5
576.667	30
577.87	31.5
579.072	31
580.274	27.5
581.477	29.5
582.68	25
583.881	30
585.083	27
586.284	29
587.485	32
588.686	28.5
589.887	35.5
591.087	31.5
592.288	26.5
593.488	29.5
594.688	27
595.888	30
597.087	29.5
598.287	29.5
599.486	31
600.685	34
601.884	31
603.082	29.5
604.281	32
605.479	29.5
606.677	27.5
607.875	29
609.073	29.5
610.27	32
611.468	29.5
612.665	30
613.862	31.5
615.058	27.5
616.255	28
617.451	29.5
618.648	26
619.842	34
621.038	30
622.234	30
623.429	31
624.624	30
625.819	29.5
627.013	28
628.207	33
629.402	30
630.596	31
631.79	34
632.983	30.5
634.177	30
635.37	29.5
636.564	31
637.755	29.5
638.948	30.5
640.141	31.5
641.334	30
642.525	35
643.717	29
644.909	32.5
646.099	31.5
647.291	31
648.483	31.5
649.674	30.5
650.864	28.5
652.055	27.5
653.244	28
654.435	30
655.625	34.5
656.814	27
658.004	30.5
659.193	34
660.382	30.5
661.571	34
662.759	32
663.948	29
665.135	33
666.324	29.5
667.511	32.5
668.7	30
669.886	31
671.074	28.5
672.262	34
673.448	30
674.634	29.5
675.821	32
677.007	35
678.194	34.5
679.379	32
680.565	31
681.75	34
682.936	36.5
684.121	37
685.305	32
686.491	34.5
687.675	32.5
688.86	35
690.043	31
691.227	37
692.411	36
693.594	39.5
694.777	40
695.961	32.5
697.144	38
698.326	35
699.509	35.5
700.691	36
701.873	33
703.056	43
704.237	49.5
705.419	48.5
706.599	50
707.782	48
708.962	50
710.143	48
711.323	42
712.504	45
713.684	42.5
714.864	43.5
716.043	31.5
717.223	35.5
718.403	36
719.582	32.5
720.761	33
721.94	32.5
723.118	31.5
724.296	30
725.474	30.5
726.652	33.5
727.831	30
729.009	30.5
730.186	30.5
731.363	29.5
732.54	31.5
733.717	26
734.893	25
736.07	34
737.246	32
738.422	25
739.598	30
740.773	34
741.949	31
743.124	27.5
744.299	27
745.474	33
746.649	30.5
747.823	31
748.997	32.5
750.172	27
751.346	32.5
752.519	25.5
753.693	31
754.867	29
756.038	27
757.211	28.5
758.384	28
759.557	28
760.73	26
761.902	30
763.074	26.5
764.246	26
765.417	31.5
766.588	31
767.76	32.5
768.931	28
770.102	28
771.271	32
772.442	24.5
773.613	32
774.783	32
775.952	27.5
777.122	34.5
778.291	29.5
779.461	29.5
780.629	28
781.798	33.5
782.967	29.5
784.135	31
785.304	31.5
786.472	31.5
787.639	34.5
788.807	31
789.975	31
791.142	32.5
792.309	32
793.477	32
794.642	33
795.81	32
796.975	31.5
798.142	35.5
799.308	34
800.473	33
801.639	30.5
802.804	30.5
803.97	31.5
805.134	29.5
806.299	28.5
807.463	32
808.628	29
809.792	30.5
810.957	30.5
812.12	29
813.284	33
814.447	32
815.611	30
816.773	30
817.937	28.5
819.099	29
820.261	31
821.424	26
822.585	30
823.748	31.5
824.909	32.5
826.07	30
827.232	29.5
828.393	26
829.554	29
830.715	30
831.875	28.5
833.035	29
834.196	32
835.356	29
836.515	31.5
837.676	28.5
838.835	30
839.994	25
841.152	29.5
842.312	31.5
843.47	29
844.629	26.5
845.786	29
846.946	28
848.103	28
849.261	28
850.418	30.5
851.575	29.5
852.733	27
853.89	34
855.046	31
856.203	30.5
857.359	33.5
858.515	30
859.67	30
860.827	27.5
861.983	33.5
863.138	31
864.293	27.5
865.448	29
866.603	27
867.757	27
868.912	30.5
870.066	30.5
871.22	29
872.374	33
873.527	29.5
874.681	33.5
875.834	32
876.987	27.5
878.14	28.5
879.293	29
880.445	32.5
881.598	32
882.75	26
883.902	26.5
885.054	27.5
886.206	29
887.357	33.5
888.507	22.5
889.658	27.5
890.809	26.5
891.96	31
893.111	31
894.261	28.5
895.411	31
896.561	27.5
897.71	32
898.86	28
900.009	32
901.159	29.5
902.308	22.5
903.455	32
904.604	30.5
905.753	24.5
906.901	27
908.048	28
909.197	26
910.344	24
911.492	28
912.639	29
913.786	29.5
914.933	31
916.079	29
917.226	29
918.373	28
919.518	27.5
920.664	25
921.81	24
922.955	26.5
924.101	29
925.245	29
926.391	29.5
927.536	28
928.68	27
929.825	27
930.968	28
932.113	28
933.256	27
934.4	28.5
935.543	28.5
936.687	24
937.83	25
938.973	30.5
940.115	28
941.258	29.5
942.399	29
943.542	27.5
944.684	22.5
945.826	27
946.967	28.5
948.109	27
949.25	29
950.392	28.5
951.532	29
952.672	27
953.813	26.5
954.953	28.5
956.093	25.5
957.233	29
958.373	31.5
959.512	27
960.652	30.5
961.791	27
962.929	28.5
964.069	27
965.207	27.5
966.345	24
967.484	31
968.622	27.5
969.759	26.5
970.896	27.75
972.035	28.5
973.172	28
974.309	25.5
975.445	27
976.582	28.5
977.719	22
978.855	31
979.991	25.5
981.127	31
982.263	30
983.398	26.5
984.535	25.5
985.67	26
986.804	29.5
987.939	25
989.074	30
990.208	27
991.342	26.5
992.476	26
993.61	27
994.744	28.5
995.877	26
997.01	27
998.143	23
999.276	27.5
1000.41	26
1001.54	18
1002.67	26
1003.81	30
1004.94	26
1006.07	29
1007.2	27
1008.33	30
1009.47	25
1010.6	29.5
1011.73	30
1012.86	23.5
1013.99	28
1015.12	27.5
1016.25	30
1017.38	26
1018.51	29
1019.64	25.5
1020.77	28
1021.9	24.5
1023.03	28.5
1024.15	21
1025.28	27.5
1026.41	29
1027.54	22
1028.67	25.5
1029.8	27.5
1030.92	26.5
1032.05	26
1033.18	24
1034.31	27
1035.43	27
1036.56	27.5
1037.69	26
1038.81	27
1039.94	28
1041.07	27.5
1042.19	25
1043.32	25
1044.44	30
1045.57	23.5
1046.69	29
1047.82	27.5
1048.94	25
1050.07	29.5
1051.19	27
1052.32	29.5
1053.44	29
1054.57	24.5
1055.69	27.5
1056.81	26
1057.94	28
1059.06	30
1060.18	26.5
1061.31	25
1062.43	28
1063.55	28
1064.67	31.5
1065.8	26
1066.92	24
1068.04	28
1069.16	28
1070.28	28.5
1071.4	26.5
1072.52	29.5
1073.64	29
1074.76	29
1075.89	30
1077.01	26.5
1078.13	24
1079.25	30
1080.37	27.5
1081.49	29.5
1082.6	24.5
1083.72	30.5
1084.84	29
1085.96	27
1087.08	27
1088.2	24
1089.32	29.5
1090.43	28
1091.55	28
1092.67	28
1093.79	28
1094.91	27
1096.02	27.5
1097.14	30
1098.26	31.5
1099.37	24.5
1100.49	24.5
1101.61	27.5
1102.72	29.5
1103.84	29
1104.95	23
1106.07	27.5
1107.18	24.5
1108.3	24.5
1109.41	25
1110.53	28.5
1111.64	23.5
1112.76	28.5
1113.87	26.5
1114.99	26.5
1116.1	25
1117.21	24
1118.33	26
1119.44	27.5
1120.55	26
1121.67	29
1122.78	27.5
1123.89	27
1125	24.5
1126.12	25.5
1127.23	30
1128.34	27.5
1129.45	24
1130.56	27
1131.68	24
1132.79	26.5
1133.9	25
1135.01	25
1136.12	30
1137.23	21.5
1138.34	24.5
1139.45	26
1140.56	31
1141.67	29
1142.78	29
1143.89	27.5
1145	27.5
1146.11	26
1147.22	29
1148.32	26
1149.43	26.5
1150.54	28
1151.65	27
1152.76	25.5
1153.86	27.5
1154.97	28.5
1156.08	26
1157.19	29.5
1158.29	27
1159.4	27.5
1160.51	27.5
1161.61	27.5
1162.72	29
1163.83	27
1164.93	26
1166.04	25.5
1167.14	27
1168.25	26
1169.35	29
1170.46	25.5
1171.56	29.5
1172.67	21.5
1173.77	24.5
1174.88	24.5
1175.98	27
1177.08	26
1178.19	26
1179.29	27
1180.4	29.5
1181.5	27
1182.6	24
1183.71	27
1184.81	29
1185.91	28
1187.01	22.5
1188.12	27.5
1189.22	23
1190.32	28.5
1191.42	23
1192.52	24.5
1193.62	28.5
1194.72	24.9865
1195.83	25.9578
1196.93	26.9225
1198.03	21.6257
1199.13	22.1577
1200.23	25.3743
1201.33	26.6142
1202.43	28.3711
1203.53	28.7039
1204.63	27.7076
1205.73	29.7866
1206.83	24.1817
1207.92	24.5607
1209.02	28.0413
1210.12	25.8592
1211.22	26.7205
1212.32	26.7957
1213.42	25.3017
1214.51	25.622
1215.61	23.1893
1216.71	26.061
1217.81	27.9752
1218.9	27.1638
1220	24.6445
1221.1	23.1432
1222.19	24.7618
1223.29	27.048
1224.39	26.9547
1225.48	25.2718
1226.58	22.4704
1227.68	26.9865
1228.77	23.5197
1229.87	24.9633
1230.96	25.5983
1232.06	25.1342
1233.15	25.7092
1234.25	25.8724
1235.34	26.1093
1236.43	25.3846
1237.53	24.6269
1238.62	24.0546
1239.72	25.8123
1240.81	24.8119
1241.9	25.8055
1243	24.2726
1244.09	26.1284
1245.18	26.0904
1246.27	25.4557
1247.37	24.1481
1248.46	24.9221
1249.55	24.5261
1250.64	25.4923
1251.74	23.9834
1252.83	23.3089
1253.92	28.5889
1255.01	22.7526
1256.1	24.4119
1257.19	26.4217
1258.28	31.3225
1259.38	27.2941
1260.46	27.5316
1261.56	28.0936
1262.65	26.8971
1263.74	30.2199
1264.82	27.0868
1265.91	28.5147
1267	27.7106
1268.09	25.23
1269.18	28.1961
1270.27	27.6589
1271.36	28.2417
1272.45	23.6084
1273.54	24.524
1274.63	23.2391
1275.71	22.0759
1276.8	23.6532
1277.89	26.6015
1278.98	28.4059
1280.06	28.0852
1281.15	27.257
1282.24	24.5674
1283.32	28.3317
1284.41	26.3307
1285.5	23.4288
1286.58	22.4385
1287.67	26.8298
1288.76	24.2661
1289.84	23.301
1290.93	25.1713
1292.01	25.3194
1293.1	26.2673
1294.18	26.5645
1295.27	24.4842
1296.35	26.2939
1297.44	28.7392
1298.52	24.2874
1299.6	23.8351
1300.69	26.3546
1301.77	26.8629
1302.86	25.1627
1303.94	24.145
1305.02	22.9674
1306.11	23.2244
1306.41	23.5
1307.5	26
1308.59	27.5
1309.68	27.5
1310.77	24.5
1311.85	28
1312.94	21.5
1314.03	26
1315.11	26
1316.2	25.5
1317.29	22.5
1318.37	24
1319.46	24
1320.55	24
1321.63	27.5
1322.72	23
1323.8	29
1324.89	24
1325.98	26
1327.06	27.5
1328.15	22
1329.23	22
1330.31	24
1331.4	29.5
1332.48	25.5
1333.57	20.5
1334.65	27
1335.74	26.5
1336.82	24
1337.9	25.5
1338.99	28
1340.07	24
1341.15	26.5
1342.24	29
1343.32	25.5
1344.4	21
1345.48	26
1346.56	20
1347.65	25
1348.73	27
1349.81	27.5
1350.89	23
1351.97	24
1353.05	26.5
1354.13	24.5
1355.21	24
1356.29	24
1357.37	26.5
1358.46	27
1359.54	23.5
1360.62	25.5
1361.69	27
1362.77	24.5
1363.85	25
1364.93	25
1366.01	25.5
1367.09	29
1368.17	29
1369.25	26.5
1370.33	25
1371.41	19
1372.48	28.5
1373.56	21
1374.64	26.5
1375.72	25.5
1376.79	29
1377.87	23.5
1378.95	27
1380.02	26
1381.1	23.5
1382.18	23
1383.25	26.5
1384.33	25
1385.4	26
1386.48	28.5
1387.56	29.5
1388.63	23
1389.71	28.5
1390.78	25.5
1391.86	27.5
1392.93	28
1394.01	28
1395.08	28.5
1396.15	30
1397.23	29.5
1398.3	27.5
1399.38	31.5
1400.45	25.5
1401.52	31.5
1402.6	32
1403.67	32
1404.74	32.5
1405.81	30
1406.89	33
1407.96	34.5
1409.03	29
1410.1	33.5
1411.17	35
1412.25	31
1413.32	35
1414.39	32
1415.46	31.5
1416.53	27.5
1417.6	29
1418.67	29
1419.74	32.5
1420.81	29
1421.88	30
1422.95	27
1424.02	28.5
1425.09	33
1426.16	29
1427.23	29
1428.3	26.5
1429.37	28
1430.44	28
1431.51	33
1432.58	29.5
1433.64	29
1434.71	27
1435.78	27.5
1436.85	27.5
1437.92	24
1438.98	26
1440.05	20
1441.12	26
1442.18	25.5
1443.25	25
1444.32	27
1445.38	25.5
1446.45	26.5
1447.52	26
1448.58	28
1449.65	29
1450.71	28
1451.78	24.5
1452.84	26
1453.91	23
1454.97	25.5
1456.04	27.5
1457.1	27
1458.17	27.5
1459.23	24
1460.3	27
1461.36	24.5
1462.42	27.5
1463.49	24
1464.55	29.5
1465.61	28
1466.68	29
1467.74	23
1468.8	25
1469.86	25
1470.93	28
1471.99	26.5
1473.05	29.5
1474.11	25.5
1475.17	28.5
1476.24	22.5
1477.3	25
1478.36	23
1479.42	24.5
1480.48	26
1481.54	26.5
1482.6	27.5
1483.66	28
1484.72	25.5
1485.78	27.5
1486.84	26
1487.9	26.5
1488.96	27
1490.02	28
1491.08	26
1492.14	27
1493.2	25.5
1494.26	27
1495.31	28
1496.37	28
1497.43	26.5
1498.49	24.5
1499.55	27
1500.6	28
1501.66	23.5
1502.72	24
1503.78	26
1504.83	28.5
1505.89	24
1506.95	20.5
1508	25
1509.06	28
1510.12	26
1511.17	28
1512.23	30
1513.28	26.5
1514.34	31
1515.39	29.5
1516.45	29.5
1517.5	23.5
1518.56	27
1519.61	27.5
1520.67	23
1521.72	22.5
1522.78	25.5
1523.83	26.5
1524.88	26
1525.94	29
1526.99	27.5
1528.05	28.5
1529.1	26.5
1530.15	27
1531.2	29
1532.26	26
1533.31	26
1534.36	23
1535.41	28
1536.47	26.5
1537.52	28.5
1538.57	26.5
1539.62	26
1540.67	26.5
1541.72	25.5
1542.77	24
1543.83	27
1544.88	24.5
1545.93	26
1546.98	28.5
1548.03	28.5
1549.08	29
1550.13	26
1551.18	25.5
1552.23	27
1553.28	28
1554.32	27.5
1555.37	26.5
1556.42	22
1557.47	26.5
1558.52	27.5
1559.57	27
1560.62	27
1561.67	30
1562.71	25
1563.76	27
1564.81	24
1565.86	26.5
1566.9	28
1567.95	29.5
1569	25
1570.04	26.5
1571.09	25
1572.14	27
1573.18	28.5
1574.23	27
1575.27	23.5
1576.32	25
1577.37	28
1578.41	26
1579.46	28
1580.5	22
1581.55	27
1582.59	24.5
1583.64	25.5
1584.68	25
1585.72	25
1586.77	28
1587.81	25
1588.86	27
1589.9	28
1590.94	29.5
1591.99	32.5
1593.03	29.5
1594.07	26
1595.12	31
1596.16	24
1597.2	26.5
1598.24	30.5
1599.29	25
1600.33	31
1601.37	25.5
1602.41	27
1603.45	25.5
1604.49	26
1605.53	29
1606.58	22.5
1607.62	25
1608.66	29
1609.7	25.5
1610.74	25
1611.78	27.5
1612.82	29.5
1613.86	26
1614.9	23
1615.94	26.5
1616.98	26
1618.02	26
1619.06	29
1620.09	22
1621.13	27
1622.17	25.5
1623.21	26.5
1624.25	24.5
1625.29	23
1626.32	25
1627.36	22
1628.4	26
1629.44	25.5
1630.47	26.5
1631.51	26
1632.55	30
1633.58	26.5
1634.62	24.5
1635.66	25
1636.69	29
1637.73	27
1638.77	24.5
1639.8	30.5
1640.84	24
1641.87	29
1642.91	26
1643.94	28.5
1644.98	26
1646.01	23.5
1647.05	27.5
1648.08	28.5
1649.12	29.5
1650.15	24.5
1651.18	24.5
1652.22	24.5
1653.25	29
1654.29	29
1655.32	26.5
1656.35	26
1657.39	28
1658.42	27
1659.45	26.5
1660.48	24.5
1661.52	24
1662.55	29.5
1663.58	22.5
1664.61	25.5
1665.64	22
1666.68	26
1667.71	27.5
1668.74	27.5
1669.77	25
1670.8	27.5
1671.83	25.5
1672.86	26.5
1673.89	27
1674.92	27.5
1675.95	23
1676.98	31
1678.01	26
1679.04	27.5
1680.07	28
1681.1	28.5
1682.13	22
1683.16	25
1684.19	24
1685.22	26
1686.25	27
1687.27	27.5
1688.3	29.5
1689.33	20
1690.36	25.5
1691.38	23
1692.41	23
1693.44	22
1694.47	28.5
1695.49	26.5
1696.52	23.5
1697.55	26.5
1698.57	24.5
1699.6	24.5
1700.63	27
1701.65	29
1702.68	27
1703.7	21
1704.73	25.5
1705.76	26
1706.78	24
1707.81	25.5
1708.83	26
1709.86	24.5
1710.88	24.5
1711.91	24
1712.93	27
1713.95	26
1714.98	27
1716	26.5
1717.03	23
1718.05	27.5
1719.07	24
1720.1	29.5
1721.12	27
1722.14	27
1723.16	26
1724.19	26
1725.21	26.5
1726.23	23
1727.25	27
1728.28	30
1729.3	23.5
1730.32	25
1731.34	23
1732.36	29
1733.38	25
1734.41	24
1735.43	25.5
1736.45	26.5
1737.47	28
1738.49	26.5
1739.51	25.5
1740.53	25
1741.55	25.5
1742.57	26
1743.59	26.5
1744.61	27.5
1745.63	23
1746.64	24
1747.66	25.5
1748.68	28
1749.7	28
1750.72	26.5
1751.74	24
1752.76	25.5
1753.77	28
1754.79	27
1755.81	28
1756.83	28
1757.84	25
1758.86	29
1759.88	25.5
1760.9	29
1761.91	26.5
1762.93	23.5
1763.95	25
1764.96	29
1765.98	30.5
1766.99	24.5
1768.01	22.5
1769.02	21
1770.04	25
1771.06	24
1772.07	26.5
1773.09	27
1774.1	25
1775.12	27.5
1776.13	27
1777.14	26.5
1778.16	24.5
1779.17	27
1780.19	26
1781.2	29
1782.21	22
1783.23	23.5
1784.24	24
1785.25	25
1786.27	27.5
1787.28	24.5
1788.29	25.5
1789.3	25
1790.32	29
1791.33	25
1792.34	24
1793.35	27.5
1794.36	23
1795.38	23
1796.39	24
1797.4	26.5
1798.41	25
1799.42	26
1800.43	27
1801.44	27
1802.45	25.5
1803.46	26.5
1804.47	25
1805.48	23.5
1806.49	26
1807.5	20.5
1808.51	23.5
1809.52	27
1810.53	24.5
1811.54	29.5
1812.55	25
1813.56	31.5
1814.57	29
1815.57	26
1816.58	28.5
1817.59	24.5
1818.6	22.5
1819.61	28.5
1820.61	24
1821.62	27
1822.63	26
1823.64	27.5
1824.64	23
1825.65	27
1826.66	26.5
1827.66	23.5
1828.67	25
1829.68	27.5
1830.68	23
1831.69	27.5
1832.69	25.5
1833.7	28
1834.7	25
1835.71	25
1836.71	27.5
1837.72	26.5
1838.72	25.5
1839.73	24
1840.73	23
1841.74	27.5
1842.74	24.5
1843.75	29
1844.75	26.5
1845.75	25
1846.76	30
1847.76	26
1848.76	26.5
1849.77	27.5
1850.77	25.5
1851.77	26.5
1852.78	26
1853.78	23.5
1854.78	29.5
1855.78	20.5
1856.78	26
1857.79	28.5
1858.79	25.5
1859.79	22.5
1860.79	25.5
1861.79	25.5
1862.79	24
1863.79	24.5
1864.79	26
1865.79	24
1866.8	24.5
1867.8	19.5
1868.8	23.5
1869.8	25
1870.8	31
1871.8	22
1872.8	24
1873.79	24
1874.79	27
1875.79	27
1876.79	24
1877.79	23
1878.79	28
1879.79	23
1880.79	26.5
1881.78	22.5
1882.78	25.5
1883.78	28
1884.78	27
1885.77	30
1886.77	28.5
1887.77	26.5
1888.77	29
1889.76	24
1890.76	26
1891.76	21
1892.75	25.5
1893.75	24
1894.75	27
1895.74	26.5
1896.74	24
1897.73	24.5
1898.73	23
1899.73	22
1900.72	25.5
1901.72	27
1902.71	23.5
1903.7	23.5
1904.7	26.5
1905.69	24.5
1906.69	26
1907.68	23
1908.68	22
1909.67	23.5
1910.66	23
1911.66	22
1912.65	28.5
1913.64	24
1914.64	26.5
1915.63	21
1916.62	25.5
1917.62	24
1918.61	27
1919.6	26
1920.59	27
1921.58	26
1922.58	25.5
1923.57	28
1924.56	27
1925.55	29.5
1926.54	29
1927.53	22.5
1928.52	28.5
1929.51	21
1930.51	24
1931.5	26.5
1932.49	25.5
1933.48	25.5
1934.47	22.5
1935.46	27.5
1936.45	23.5
1937.44	26.5
1938.42	26
1939.41	23
1940.4	25
1941.39	24
1942.38	24.5
1943.37	21.5
1944.36	23.5
1945.35	23.5
1946.33	27.5
1947.32	24.5
1948.31	26
1949.3	23.5
1950.29	32
1951.27	20.5
1952.26	24.5
1953.25	22.5
1954.23	24.5
1955.22	26
1956.21	29.5
1957.19	24
1958.18	27.5
1959.17	25.5
1960.15	24.5
1961.14	24.5
1962.13	24.5
1963.11	22.5
1964.1	24.5
1965.08	24
1966.07	24
1967.05	24.5
1968.04	29
1969.02	24
1970.01	23
1970.99	27
1971.97	26
1972.96	28.5
1973.94	24.5
1974.93	25.5
1975.91	26.5
1976.89	25
1977.88	26.5
1978.86	26
1979.84	26
1980.83	28
1981.81	24
1982.79	28.5
1983.77	20
1984.76	24
1985.74	23.5
1986.72	24
1987.7	24
1988.68	25
1989.67	22
1990.65	23.5
1991.63	21.5
1992.61	24.5
1993.59	25
1994.57	29
1995.55	28
1996.53	25.5
1997.51	25
1998.49	25
1999.47	19.5
2000.45	21
2001.43	26.5
2002.41	27.5
2003.39	28
2004.37	26
2005.35	26
2006.33	23
2007.31	25.5
2008.29	22
2009.26	24
2010.24	21
2011.22	24
2012.2	25.5
2013.18	23.5
2014.15	25
2015.13	19.5
2016.11	27
2017.09	28
2018.06	25
2019.04	21
2020.02	26
2021	26
2021.97	24.5
2022.95	26
2023.92	21.5
2024.9	23.5
2025.88	28
2026.85	26
2027.83	24
2028.8	24.5
2029.78	26
2030.75	25
2031.73	25
2032.7	25
2033.68	21.5
2034.65	24
2035.63	27.5
2036.6	25.5
2037.58	26
2038.55	26
2039.52	26
2040.5	24.5
2041.47	28
2042.45	24
2043.42	22.5
2044.39	24
2045.36	25
2046.34	22
2047.31	25.5
2048.28	26
2049.26	24
2050.23	25.5
2051.2	24.5
2052.17	24.5
2053.14	21.5
2054.12	25
2055.09	20
2056.06	23
2057.03	24
2058	24.5
2058.97	23.5
2059.94	20
2060.91	26
2061.88	25
2062.85	25
2063.82	23
2064.79	29
2065.76	25.5
2066.73	25
2067.7	29.5
2068.67	24.5
2069.64	28.5
2070.61	27.5
2071.58	18.5
2072.55	22
2073.52	21.5
2074.49	25
2075.45	23.5
2076.42	21.5
2077.39	24
2078.36	22
2079.33	25.5
2080.29	24.5
2081.26	23.5
2082.23	22.5
2083.2	24.5
2084.16	20
2085.13	24
2086.1	25.5
2087.06	22.5
2088.03	24
2089	23.5
2089.96	24
2090.93	27.5
2091.89	23
2092.86	29
2093.83	23.5
2094.79	25.5
2095.76	23.5
2096.72	24
2097.69	20
2098.65	25
2099.62	25
2100.58	23.5
2101.55	26.5
2102.51	23
2103.47	24.5
2104.44	23
2105.4	23
2106.36	25.5
2107.33	23.5
2108.29	25
2109.25	25.5
2110.22	25
2111.18	24
2112.14	26.5
2113.11	25.5
2114.07	24.5
2115.03	21
2115.99	26.5
2116.96	22.5
2117.92	23
2118.88	23.5
2119.84	28
2120.8	25.5
2121.76	23.5
2122.72	26.5
2123.68	23.5
2124.65	25.5
2125.61	24
2126.57	26.5
2127.53	22
2128.49	23
2129.45	23.5
2130.41	26.5
2131.37	21.5
2132.33	27
2133.29	25
2134.25	25
2135.21	26.5
2136.17	26
2137.12	29
2138.08	23
2139.04	27
2140	21
2140.96	24
2141.92	25.5
2142.88	22.4962
2143.83	22.9145
2144.79	27.3448
2145.75	22.1048
2146.71	22.6531
2147.66	22.4141
2148.62	26.6845
2149.58	23.8909
2150.53	25.8451
2151.49	24.4222
2152.45	20.15
2153.4	22.8841
2154.36	24.2662
2155.32	23.5848
2156.27	22.1066
2157.23	21.189
2158.19	23.8539
2159.14	21.1532
2160.1	23.1249
2161.05	25.6078
2162.01	24.3589
2162.96	22.9622
2163.92	22.4673
2164.87	23.5946
2165.83	21.897
2166.78	23.0444
2167.73	25.4709
2168.69	23.2731
2169.64	26.7347
2170.6	26.568
2171.55	23.6839
2172.5	21.2112
2173.46	24.5588
2174.41	20.5345
2175.36	23.6867
2176.32	23.1704
2177.27	23.888
2178.22	22.9621
2179.18	22.7777
2180.13	24.3433
2181.08	22.4894
2182.03	22.7925
2182.98	23.8059
2183.94	24.9753
2184.89	25.5127
2185.84	23.0261
2186.79	22.8783
2187.74	23.8312
2188.69	23.6942
2189.64	22.2691
2190.6	22.7969
2191.55	24.2278
2192.5	24.6799
2193.45	22.1847
2194.4	23.2799
2195.35	23.6026
2196.3	20.3609
2197.25	23.7725
2198.2	22.9855
2199.15	25.7142
2200.1	26.5454
2201.04	24.2366
2201.99	24.5078
2202.94	21.8594
2203.89	22.9275
2204.84	23.8075
2205.79	23.4682
2206.74	24.9138
2207.69	22.7803
2208.63	27.0598
2209.58	22.9493
2210.53	22.8527
2211.48	24.2124
2212.43	20.9168
2213.37	25.3698
2214.32	24.6002
2215.27	23.2103
2216.21	24.4256
2217.16	24.0667
2218.11	20.9721
2219.05	23.7786
2220	21.781
2220.95	25.0824
2221.89	23.8263
2222.84	20.2039
2223.78	23.5789
2224.73	23.2821
2225.68	22.4817
2226.62	26.6499
2227.57	24.3044
2228.51	24.1814
2229.46	23.9119
2230.4	21.8609
2231.35	21.5461
2232.29	21.911
2233.24	23.1871
2234.18	23.7783
2235.12	24.3208
2236.07	24.4782
2237.01	22.8216
2237.95	21.7679
2238.9	24.1895
2239.84	22.7233
2240.06	22
2241.01	25
2241.96	25
2242.91	24.5
2243.86	23.5
2244.8	23
2245.75	21
2246.7	23.5
2247.65	26.5
2248.59	21
2249.54	23
2250.49	22.5
2251.43	24.5
2252.38	21.5
2253.33	25.5
2254.27	26
2255.22	23
2256.16	20.5
2257.11	26.5
2258.06	27
2259	24.5
2259.95	21.5
2260.89	24
2261.84	21.5
2262.78	24.5
2263.73	26
2264.67	21
2265.62	27
2266.56	21
2267.5	22
2268.45	29
2269.39	24
2270.34	20.5
2271.28	23
2272.22	22
2273.17	19
2274.11	21
2275.05	20.5
2276	25
2276.94	25
2277.88	25
2278.82	25.5
2279.77	21.5
2280.71	23
2281.65	25
2282.59	18.5
2283.53	26
2284.48	24
2285.42	24
2286.36	24
2287.3	22.5
2288.24	22.5
2289.18	22.5
2290.12	23
2291.06	24.5
2292	24
2292.94	23.5
2293.89	22.5
2294.83	22.5
2295.77	21
2296.71	24.5
2297.65	21.5
2298.58	27
2299.52	21.5
2300.46	22.5
2301.4	24.5
2302.34	23.5
2303.28	28.5
2304.22	25.5
2305.16	25
2306.1	24.5
2307.03	25
2307.97	18.5
2308.91	26.5
2309.85	26
2310.79	23
2311.72	26
2312.66	24
2313.6	23.5
2314.54	20.5
2315.47	23
2316.41	24
2317.35	24
2318.28	25.5
2319.22	26.5
2320.16	21
2321.09	24.5
2322.03	25.5
2322.96	26.5
2323.9	25
2324.84	21
2325.77	24
2326.71	22.5
2327.64	23
2328.58	23
2329.51	24.5
2330.45	26
2331.38	25
2332.32	19
2333.25	22
2334.18	28.5
2335.12	25.5
2336.05	23.5
2336.99	24.5
2337.92	23.5
2338.85	22.5
2339.79	24
2340.72	24
2341.65	20.5
2342.59	22.5
2343.52	25.5
2344.45	22.5
2345.39	23
2346.32	23.5
2347.25	17
2348.18	26
2349.11	26
2350.05	22
2350.98	24.5
2351.91	23
2352.84	22.5
2353.77	24
2354.7	23
2355.64	26.5
2356.57	21
2357.5	26.5
2358.43	23.5
2359.36	22.5
2360.29	25
2361.22	25
2362.15	24.5
2363.08	22.5
2364.01	24.5
2364.94	24
2365.87	23.5
2366.8	25
2367.73	26
2368.66	24.5
2369.58	25.5
2370.51	20.5
2371.44	25
2372.37	22.5
2373.3	27
2374.23	25.5
2375.16	27
2376.08	28
2377.01	22
2377.94	24
2378.87	22
2379.8	22
2380.72	22.5
2381.65	25
2382.58	22
2383.5	25
2384.43	23.5
2385.36	25.5
2386.28	25.5
2387.21	23.5
2388.14	25.5
2389.06	24.5
2389.99	24.5
2390.91	23.5
2391.84	25
2392.77	24
2393.69	21
2394.62	27
2395.54	25.5
2396.47	21.5
2397.39	19
2398.32	23
2399.24	26.5
2400.16	20
2401.09	26
2402.01	23
2402.94	26
2403.86	21.5
2404.78	23.5
2405.71	26
2406.63	20
2407.56	24
2408.48	21
2409.4	27
2410.32	24.5
2411.25	25.5
2412.17	27
2413.09	21
2414.02	24.5
2414.94	24
2415.86	25
2416.78	24.5
2417.7	24.5
2418.63	25
2419.55	25
2420.47	25.5
2421.39	24.5
2422.31	22
2423.23	25
2424.15	25
2425.07	25
2425.99	24
2426.92	24
2427.84	22
2428.76	21.5
2429.68	26
2430.59	25.5
2431.51	22.5
2432.43	24.5
2433.35	21.5
2434.27	22.5
2435.19	22
2436.11	29
2437.03	28
2437.95	27
2438.87	26
2439.79	25.5
2440.71	29.5
2441.62	24
2442.54	23
2443.46	25.5
2444.38	27
2445.3	25
2446.21	25
2447.13	24
2448.05	19.5
2448.97	21
2449.88	26
2450.8	23.5
2451.72	24.5
2452.63	23.5
2453.55	27
2454.47	25.5
2455.38	24
2456.3	20
2457.21	26.5
2458.13	25.5
2459.05	27
2459.96	23.5
2460.88	22
2461.79	27
2462.71	22
2463.62	24
2464.54	27
2465.45	26
2466.37	27
2467.28	25.5
2468.2	25
2469.11	21
2470.02	25.5
2470.94	20
2471.85	27
2472.77	21.5
2473.68	25.5
2474.59	26.5
2475.51	27
2476.42	25.5
2477.33	25
2478.25	23.5
2479.16	25
2480.07	28.5
2480.98	22.5
2481.9	23
2482.81	26.5
2483.72	25
2484.63	26
2485.55	30
2486.46	23.5
2487.37	26.5
2488.28	24
2489.19	24
2490.1	26
2491.01	21.5
2491.92	23.5
2492.83	24.5
2493.74	27
2494.66	23
2495.57	27
2496.48	27
2497.39	26
2498.3	26
2499.21	24
2500.12	25.5
2501.03	26
2501.93	27
2502.84	22.5
2503.75	23.5
2504.66	21
2505.57	24
2506.48	25.5
2507.39	32
2508.3	21
2509.21	25
2510.11	28.5
2511.02	27.5
2511.93	24.5
2512.84	26
2513.75	25
2514.65	28.5
2515.56	26.5
2516.47	25.5
2517.37	23.5
2518.28	25
2519.19	24
2520.09	24
2521	21
2521.91	26
2522.81	27
2523.72	28
2524.63	25
2525.53	21
2526.44	25
2527.34	27.5
2528.25	27
2529.16	22.5
2530.06	26
2530.97	29
2531.87	24
2532.78	25
2533.68	24.5
2534.58	25.5
2535.49	19
2536.39	23.5
2537.3	24.5
2538.2	24.5
2539.11	24.5
2540.01	20.5
2540.91	30.5
2541.82	25
2542.72	26.5
2543.62	21
2544.53	25
2545.43	22
2546.33	24.5
2547.23	22
2548.14	22.5
2549.04	25.5
2549.94	23.5
2550.84	22.5
2551.75	26.5
2552.65	23
2553.55	25.5
2554.45	23.5
2555.35	19.5
2556.26	23.5
2557.16	23
2558.06	24.5
2558.96	26.5
2559.86	22.5
2560.76	23.5
2561.66	29.5
2562.56	24.5
2563.46	21
2564.36	24.5
2565.26	24.5
2566.16	21
2567.06	26.5
2567.96	25.5
2568.86	27
2569.76	28
2570.66	25
2571.56	27
2572.46	26.5
2573.36	24.5
2574.26	24.5
2575.16	23.5
2576.05	22.5
2576.95	27.5
2577.85	26.5
2578.75	24.5
2579.65	27
2580.54	22
2581.44	22.5
2582.34	26.5
2583.24	25.5
2584.13	25
2585.03	25
2585.93	24.5
2586.83	25.5
2587.72	24.5
2588.62	25
2589.52	21.5
2590.41	23.5
2591.31	18
2592.2	23
2593.1	26
2594	25
2594.89	27
2595.79	21
2596.68	24
2597.58	24.5
2598.47	26
2599.37	24
2600.26	27
2601.16	26.5
2602.05	27
2602.95	21.5
2603.84	28
2604.74	26
2605.63	29
2606.52	26
2607.42	25.5
2608.31	24.5
2609.21	23
2610.1	22.5
2610.99	23
2611.89	25.5
2612.78	26
2613.67	22.5
2614.56	26.5
2615.46	21
2616.35	25.5
2617.24	27.5
2618.13	27.5
2619.03	23.5
2619.92	23.5
2620.81	24.5
2621.7	26.5
2622.59	22.5
2623.49	27
2624.38	25.5
2625.27	25
2626.16	30.5
2627.05	26
2627.94	26.5
2628.83	23
2629.72	24.5
2630.61	24.5
2631.5	27
2632.39	23.5
2633.28	21.5
2634.17	25
2635.06	22
2635.95	20.5
2636.84	24
2637.73	27.5
2638.62	26
2639.51	25.5
2640.4	24
2641.29	24.5
2642.18	25
2643.07	27
2643.96	26.5
2644.84	23
2645.73	24
2646.62	25
2647.51	28.5
2648.4	24.5
2649.28	25
2650.17	24.5
2651.06	20
2651.95	25
2652.83	26
2653.72	26.5
2654.61	22.5
2655.49	26
2656.38	22.5
2657.27	27
2658.16	26
2659.04	23.5
2659.93	23
2660.81	27.5
2661.7	25
2662.59	22.5
2663.47	22
2664.36	26
2665.24	25.5
2666.13	26.5
2667.01	24
2667.9	26.5
2668.78	20.5
2669.67	26
2670.55	25.5
2671.44	23.5
2672.32	28
2673.21	23.5
2674.09	25.5
2674.97	23
2675.86	28
2676.74	25
2677.62	23.5
2678.51	25.5
2679.39	23
2680.27	26.5
2681.16	23
2682.04	25
2682.92	22
2683.81	27
2684.69	22.5
2685.57	28
2686.45	23
2687.34	23.5
2688.22	25
2689.1	24
2689.98	21
2690.86	20
2691.75	27
2692.63	25.5
2693.51	24.5
2694.39	28
2695.27	27.5
2696.15	24.5
2697.03	21
2697.91	24
2698.79	22.5
2699.67	25.5
2700.55	24.5
2701.43	29.5
2702.31	26
2703.19	27.5
2704.07	23
2704.95	24
2705.83	21.5
2706.71	20
2707.59	27
2708.47	25.5
2709.35	23
2710.23	26
2711.11	25
2711.99	26
2712.86	22
2713.74	24
2714.62	25.5
2715.5	25.5
2716.38	25.5
2717.26	24
2718.13	25
2719.01	28
2719.89	25
2720.77	24.5
2721.64	24.5
2722.52	25
2723.4	27.5
2724.27	24.5
2725.15	23
2726.03	25.5
2726.9	28
2727.78	24
2728.66	27
2729.53	27.5
2730.41	21.5
2731.28	25.5
2732.16	25
2733.03	25
2733.91	24.5
2734.79	23
2735.66	24.5
2736.54	23.5
2737.41	25
2738.29	20
2739.16	24
2740.03	24
2740.91	25.5
2741.78	24.5
2742.66	26
2743.53	22.5
2744.41	26
2745.28	26.5
2746.15	26
2747.03	26
2747.9	25
2748.77	26.5
2749.65	25
2750.52	24
2751.39	26.5
2752.27	25
2753.14	24
2754.01	29
2754.88	26
2755.75	21
2756.63	26
2757.5	24
2758.37	25
2759.24	26
2760.11	23.5
2760.99	22
2761.86	25
2762.73	24.5
2763.6	25
2764.47	26.5
2765.34	24.5
2766.21	26
2767.08	26.5
2767.95	20.5
2768.82	24
2769.69	25.5
2770.56	24
2771.43	23.5
2772.3	23.5
2773.17	27
2774.04	23
2774.91	24.5
2775.78	23.5
2776.65	26.5
2777.52	27
2778.39	26
2779.26	25.5
2780.13	24.5
2780.99	27.5
2781.86	25
2782.73	21.5
2783.6	22.5
2784.47	26
2785.34	25.5
2786.2	28
2787.07	24.5
2787.94	23
2788.81	28
2789.67	25.5
2790.54	25
2791.41	26.5
2792.27	25.5
2793.14	27
2794.01	26.5
2794.87	25
2795.74	25
2796.61	23
2797.47	27
2798.34	29.5
2799.21	26
2800.07	27
2800.94	27.5
2801.8	26.5
2802.67	24.5
2803.53	23
2804.4	26
2805.26	24.5
2806.13	21
2806.99	28.5
2807.86	27
2808.72	25.5
2809.59	29.5
2810.45	25.5
2811.32	26
2812.18	26.5
2813.04	22
2813.91	25
2814.77	26.5
2815.64	27.5
2816.5	26.5
2817.36	26
2818.22	22
2819.09	26
2819.95	27
2820.81	26
2821.68	26.5
2822.54	24
2823.4	24
2824.26	29
2825.13	23
2825.99	27
2826.85	28
2827.71	30
2828.57	29
2829.44	28.5
2830.3	23.5
2831.16	26
2832.02	25.5
2832.88	24
2833.74	23
2834.6	22
2835.46	24.5
2836.32	21.5
2837.18	27.5
2838.04	27
2838.9	27.5
2839.76	25.5
2840.62	27
2841.48	25
2842.34	28
2843.2	26
2844.06	26
2844.92	28
2845.78	24.5
2846.64	25
2847.5	23
2848.36	25
2849.22	25
2850.08	25
2850.93	23
2851.79	27
2852.65	24
2853.51	25
2854.37	25
2855.22	23.5
2856.08	28
2856.94	25
2857.8	23.5
2858.65	29.5
2859.51	25
2860.37	25
2861.23	24.5
2862.08	24.5
2862.94	25
2863.79	29
2864.65	30
2865.51	26
2866.36	27.5
2867.22	27.5
2868.08	28.5
2868.93	29
2869.79	30
2870.64	32
2871.5	25
2872.35	25
2873.21	31
2874.06	29
2874.92	30
2875.77	29
2876.63	29.5
2877.48	29
2878.34	32.5
2879.19	26.5
2880.05	32
2880.9	31.5
2881.76	33
2882.61	31
2883.46	31.5
2884.32	33.5
2885.17	30
2886.02	36.5
2886.88	33
2887.73	35.5
2888.58	35
2889.44	37.5
2890.29	39
2891.14	41
2891.99	39
2892.85	41.5
2893.7	41.5
2894.55	45
2895.4	43.5
2896.25	45.5
2897.11	46.5
2897.96	46
2898.81	49
2899.66	58
2900.51	55
2901.36	61.5
2902.21	64.5
2903.07	58.5
2903.92	65
2904.77	63
2905.62	65
2906.47	70
2907.32	65
2908.17	62
2909.02	55
2909.87	62
2910.72	58
2911.57	56.5
2912.42	52
2913.27	50
2914.12	47
2914.97	45
2915.81	45.5
2916.66	40
2917.51	40.5
2918.36	43
2919.21	35.5
2920.06	32.5
2920.91	34
2921.75	37
2922.6	34
2923.45	32.5
2924.3	33
2925.15	31
2925.99	31.5
2926.84	31
2927.69	29
2928.54	31.5
2929.38	30.5
2930.23	34
2931.08	29.5
2931.92	28
2932.77	30
2933.62	26.5
2934.46	30
2935.31	28
2936.16	23
2937	29
2937.85	27.5
2938.69	31
2939.54	28.5
2940.38	25.5
2941.23	28
2942.08	27.5
2942.92	28.5
2943.77	27
2944.61	32
2945.46	26
2946.3	28.5
2947.15	30
2947.99	26.5
2948.83	28.5
2949.68	27.5
2950.52	28
2951.37	28
2952.21	32
2953.05	32.5
2953.9	35.5
2954.74	32
2955.58	34
2956.43	34.5
2957.27	32
2958.11	38
2958.96	37.5
2959.8	41.5
2960.64	41.5
2961.48	41.5
2962.33	41.5
2963.17	39.5
2964.01	45.5
2964.85	43.5
2965.69	38
2966.54	39
2967.38	44.5
2968.22	40
2969.06	47
2969.9	37
2970.74	37.5
2971.58	35
2972.43	34.4736
2973.27	36.094
2974.11	36.527
2974.95	33.9721
2975.79	35.864
2976.63	34.9337
2977.47	32.6743
2978.31	30.853
2979.15	26.6845
2979.99	30.1618
2980.83	27.2927
2981.67	28.7527
2982.51	25.1577
2983.35	29.0273
2984.19	27.9202
2985.03	25.2719
2985.86	27.1196
2986.7	26.4705
2987.54	26.8147
2988.38	24.1555
2989.22	25.8188
2990.06	27.1562
2990.9	27.2067
2991.73	26.6896
2992.57	25.9363
2993.41	25.5839
2994.25	26.7319
2995.09	22.8658
2995.92	27.7113
2996.76	23.2739
2997.6	24.1838
2998.44	24.3319
2999.27	24.7581
3000.11	21.6611
3000.95	22.3935
3001.78	23.4332
3002.62	25.8699
3003.46	27.0404
3004.29	24.6129
3005.13	23.5722
3005.96	25.5613
3006.8	21.5068
3007.64	23.8529
3008.47	22.5872
3009.31	21.2344
3010.14	21.0985
3010.98	21.7066
3011.81	22.4712
3012.65	23.2952
3013.48	26.3168
3014.32	23.2625
3015.15	22.087
3015.99	24.1026
3016.82	24.4594
3017.66	23.9809
3018.49	24.0463
3019.33	23.5597
3020.16	21.6514
3020.99	20.4159
3021.83	20.9145
3022.66	23.0935
3023.5	23.9578
3024.33	24.2065
3025.16	23.8123
3026	21.694
3026.83	23.0101
3027.66	21.5251
3028.49	22.3398
3029.33	23.3329
3030.16	25.4733
3030.99	23.279
3031.83	24.4853
3032.66	26.3935
3033.49	25.2043
3034.32	20.725
3035.15	23.3624
3035.99	24.184
3036.82	24.4434
3037.65	22.1646
3038.48	23.2618
3039.31	24.5162
3040.14	25.0143
3040.97	23.6974
3041.81	21.8401
3042.64	21.8285
3043.47	22.445
3044.3	21.8783
3045.13	22.8404
3045.96	24.8558
3046.79	25.5598
3047.62	24.8003
3048.45	24.4668
3049.28	24.8261
3050.11	24.2957
3050.94	20.1599
3051.77	22.2973
3052.6	23.1093
3053.43	22.04
3054.26	23.0449
3055.08	24
3055.91	23.5586
3056.74	22.2346
3057.26	21
3058.09	21
3058.92	25
3059.76	24.5
3060.59	25
3061.42	26.5
3062.25	27.5
3063.09	24
3063.92	25
3064.75	21
3065.58	24
3066.42	24.5
3067.25	24.5
3068.08	20.5
3068.91	24
3069.74	25
3070.57	26
3071.41	22.5
3072.24	23
3073.07	23.5
3073.9	24
3074.73	22
3075.56	25
3076.39	21
3077.22	21
3078.05	24
3078.88	23
3079.71	20.5
3080.54	23.5
3081.37	21.5
3082.2	26
3083.03	20
3083.86	20
3084.69	26.5
3085.52	24
3086.35	22
3087.18	22
3088.01	23
3088.84	25
3089.67	23
3090.5	22
3091.32	25
3092.15	22
3092.98	23.5
3093.81	23.5
3094.64	22
3095.47	21.5
3096.29	23.5
3097.12	21.5
3097.95	26.5
3098.78	23.5
3099.6	24
3100.43	22
3101.26	25.5
3102.09	22
3102.91	23
3103.74	20
3104.57	24.5
3105.39	23
3106.22	27.5
3107.05	23
3107.87	25.5
3108.7	26
3109.52	23.5
3110.35	22.5
3111.18	23.5
3112	22.5
3112.83	23.5
3113.65	24.5
3114.48	27.5
3115.3	26
3116.13	27.5
3116.95	23
3117.78	22.5
3118.6	26
3119.43	24
3120.25	21
3121.08	26.5
3121.9	22.5
3122.72	26.5
3123.55	22
3124.37	27
3125.2	24
3126.02	21.5
3126.84	22
3127.67	23.5
3128.49	24
3129.31	23
3130.14	19
3130.96	25
3131.78	25
3132.61	24
3133.43	26
3134.25	20.5
3135.07	21.5
3135.89	25
3136.72	19
3137.54	27
3138.36	25
3139.18	23.5
3140	31.5
3140.83	25.5
3141.65	23
3142.47	25
3143.29	24.5
3144.11	22.5
3144.93	23.5
3145.75	23.5
3146.57	24
3147.4	21
3148.22	25
3149.04	27
3149.86	22
3150.68	22
3151.5	27
3152.32	23
3153.14	22.5
3153.96	24
3154.78	25.5
3155.59	21.5
3156.42	23
3157.23	25.5
3158.05	24.5
3158.87	22
3159.69	21
3160.51	25.5
3161.33	23.5
3162.15	24.5
3162.97	27
3163.78	20
3164.6	22
3165.42	19
3166.24	29
3167.06	22.5
3167.87	22.5
3168.69	26
3169.51	24.5
3170.33	22.5
3171.14	21
3171.96	25
3172.78	22.5
3173.6	26
3174.41	22.5
3175.23	25.5
3176.05	21.5
3176.86	27
3177.68	25
3178.5	25
3179.31	23
3180.13	23
3180.94	21
3181.76	25
3182.58	22.5
3183.39	25
3184.21	24.5
3185.02	23
3185.84	22.5
3186.65	24
3187.47	24.5
3188.28	24
3189.1	22.5
3189.91	24
3190.73	23
3191.54	26.5
3192.36	27
3193.17	22
3193.98	21
3194.8	24
3195.61	22.5
3196.43	26.5
3197.24	26
3198.05	26
3198.87	23.5
3199.68	27
3200.49	22
3201.31	24
3202.12	24.5
3202.93	23.5
3203.75	25
3204.56	25
3205.37	21.5
3206.18	22.5
3207	21
3207.81	25.5
3208.62	21
3209.43	24
3210.24	19
3211.06	23.5
3211.87	24.5
3212.68	24
3213.49	23.5
3214.3	26
3215.11	25.5
3215.92	23
3216.73	22
3217.55	25.5
3218.36	20
3219.17	22
3219.98	22.5
3220.79	18.5
3221.6	21.5
3222.41	22
3223.22	25.5
3224.03	24
3224.84	25
3225.65	25
3226.46	22
3227.27	20
3228.08	21
3228.89	21
3229.7	28
3230.5	24
3231.31	25
3232.12	22
3232.93	24
3233.74	26
3234.55	24
3235.36	27
3236.16	24
3236.97	24
3237.78	27
3238.59	24.5
3239.4	25
3240.2	27.5
3241.01	25.5
3241.82	24
3242.63	25
3243.43	24.5
3244.24	25.5
3245.05	24.5
3245.85	22
3246.66	26
3247.47	25
3248.27	20
3249.08	24
3249.89	25.5
3250.69	25.5
3251.5	27.5
3252.31	22
3253.11	26
3253.92	26
3254.72	23
3255.53	21
3256.33	24.5
3257.14	25
3257.94	30.5
3258.75	25.5
3259.55	20
3260.36	21
3261.16	24
3261.97	22.5
3262.77	23.5
3263.58	23
3264.38	24
3265.19	21.5
3265.99	22.5
3266.79	20
3267.6	25.5
3268.4	21
3269.21	26
3270.01	24.5
3270.81	22.5
3271.62	26
3272.42	28
3273.22	22.5
3274.03	24.5
3274.83	25.5
3275.63	23.5
3276.43	22
3277.24	24
3278.04	24
3278.84	24.5
3279.64	21
3280.45	20
3281.25	27
3282.05	21.5
3282.85	23
3283.65	23.5
3284.45	26
3285.26	22
3286.06	23.5
3286.86	27
3287.66	27
3288.46	21.5
3289.26	21.5
3290.06	25.5
3290.86	20
3291.66	27
3292.46	22.5
3293.26	21.5
3294.06	24
3294.86	27
3295.66	24
3296.46	24
3297.26	24
3298.06	22
3298.86	19.5
3299.66	22.5
3300.46	27.5
3301.26	24.5
3302.06	22
3302.86	25.5
3303.66	23.5
3304.46	22
3305.25	23
3306.05	21
3306.85	23
3307.65	20
3308.45	21.5
3309.25	23.5
3310.04	26.5
3310.84	25
3311.64	26.5
3312.44	22
3313.23	20.5
3314.03	24
3314.83	27.5
3315.63	26.5
3316.42	25.5
3317.22	26
3318.02	24
3318.81	28
3319.61	23.5
3320.41	21
3321.2	25
3322	24.5
3322.8	25.5
3323.59	22.5
3324.39	25.5
3325.18	21
3325.98	24.5
3326.78	28
3327.57	23.5
3328.37	22
3329.16	26.5
3329.96	23.5
3330.75	21
3331.55	27
3332.34	24
3333.14	20.5
3333.93	24
3334.73	23.5
3335.52	20
3336.31	20.5
3337.11	27.5
3337.9	25.5
3338.7	22.5
3339.49	22
3340.28	22
3341.08	26
3341.87	22
3342.66	28
3343.46	23.5
3344.25	23.5
3345.04	22
3345.84	27
3346.63	26
3347.42	20
3348.22	24
3349.01	25
3349.8	24
3350.59	23.5
3351.39	23
3352.18	22.5
3352.97	26
3353.76	26.5
3354.55	25
3355.35	21
3356.14	23
3356.93	27
3357.72	22.5
3358.51	26
3359.3	24.5
3360.09	22.5
3360.88	25
3361.67	22
3362.46	23.5
3363.26	25
3364.05	25
3364.84	23.5
3365.63	23
3366.42	23
3367.21	23
3368	25.5
3368.79	26
3369.58	24
3370.37	23
3371.15	27
3371.94	22
3372.73	23.5
3373.52	30.5
3374.31	23.5
3375.1	21.5
3375.89	26
3376.68	23
3377.47	25.5
3378.26	22.5
3379.04	23.5
3379.83	25
3380.62	24
3381.41	23
3382.2	24.5
3382.98	20
3383.77	25
3384.56	26
3385.35	24
3386.13	24
3386.92	21
3387.71	24.5
3388.5	24
3389.28	27
3390.07	22
3390.86	22
3391.64	26
3392.43	25
3393.22	23.5
3394	23
3394.79	24.5
3395.57	25.5
3396.36	27
3397.15	24.5
3397.93	26
3398.72	24
3399.5	24.5
3400.29	25.5
3401.07	25
3401.86	23
3402.65	24.5
3403.43	27
3404.21	22.5
3405	24
3405.78	25.5
3406.57	23
3407.35	26.5
3408.14	26
3408.92	18.5
3409.71	23.5
3410.49	24.5
3411.27	23.5
3412.06	23
3412.84	28.5
3413.62	28.5
3414.41	21.5
3415.19	27
3415.97	25
3416.76	20
3417.54	23.5
3418.32	27
3419.11	23.5
3419.89	23
3420.67	23.5
3421.46	26
3422.24	23
3423.02	25
3423.8	22
3424.58	27
3425.37	20.5
3426.15	25.5
3426.93	25
3427.71	25
3428.49	23.5
3429.27	25
3430.05	19
3430.84	24
3431.62	24.5
3432.4	25
3433.18	22.5
3433.96	25
3434.74	27.5
3435.52	28
3436.3	21.5
3437.08	27
3437.86	24.5
3438.64	25
3439.42	23.5
3440.2	23.5
3440.98	24
3441.76	22.5
3442.54	22.5
3443.32	25
3444.1	26.5
3444.88	22.5
3445.66	24.5
3446.44	24
3447.22	26
3448	23.5
3448.77	22.5
3449.55	23.5
3450.33	24.5
3451.11	22.5
3451.89	23
3452.67	20
3453.45	23.5
3454.22	21.5
3455	23
3455.78	24
3456.56	23
3457.33	27
3458.11	23
3458.89	26.5
3459.67	25.5
3460.44	21.5
3461.22	25.5
3462	23.5
3462.77	23.5
3463.55	20.5
3464.33	24
3465.1	20.5
3465.88	26
3466.66	25
3467.43	22
3468.21	24
3468.98	25.5
3469.76	23.5
3470.54	26
3471.31	23
3472.09	19
3472.86	25
3473.64	22.5
3474.41	25.5
3475.19	23.5
3475.96	23
3476.74	21
3477.51	21
3478.29	25
3479.06	27.5
3479.84	22.5
3480.61	24
3481.39	26
3482.16	23.5
3482.93	23.5
3483.71	30
3484.48	20
3485.25	26
3486.03	23.5
3486.8	27
3487.57	23
3488.35	25.5
3489.12	25.5
3489.89	28
3490.67	22.5
3491.44	26.5
3492.21	24
3492.99	26
3493.76	23.5
3494.53	27.5
3495.3	25.5
3496.08	21.5
3496.85	21.5
3497.62	25
3498.39	23.5
3499.16	25
3499.93	24.5
