#Acq. time (s)=	5
#Accumulations=	5
#Range (cm-¹)=	100...3500
#Windows=	4
#Autofocus=	Off
#AutoExposure=	Off
#Spike filter=	Multiple accum.
#Delay time (s)=	0
#Binning=	1
#Readout mode=	Signal
#DeNoise=	Off
#ICS correction=	Off
#Dark correction=	Off
#Inst. Process=	Off
#Instrument=	LabRAM HR Evol
#Detector=	Syncerity OE
#Objective=	x100_VIS
#Grating=	600 (500nm)
#ND Filter=	25%
#Laser=	633nm_Edge
#Hole=	100.021
#Range=	Visible
#Project=	verificaciones
#Sample=	at5
#Site=	plain
#Title=	bolusat5plain
#Remark=	
#Date=	13.01.2026 19:03
#Acquired=	13.01.2026 19:03:13
100.692	29
101.975	30
103.258	34.5
104.542	31.5
105.824	30
107.107	29
108.39	29.5
109.672	28
110.954	30.5
112.236	27.5
113.519	29
114.8	29.5
116.081	31.5
117.362	35
118.643	28.5
119.924	28
121.204	31
122.484	32
123.764	31
125.044	33
126.323	34.5
127.603	31
128.882	32.5
130.161	37
131.438	35.5
132.716	31
133.995	33.5
135.273	34.5
136.55	30
137.828	35
139.106	37
140.383	36
141.66	37
142.937	36
144.213	35
145.488	39.5
146.764	28
148.04	37.5
149.316	39
150.592	39
151.867	37
153.141	36
154.416	34
155.69	40
156.965	38.5
158.239	42.5
159.512	36.5
160.786	42.5
162.059	37.5
163.333	38.5
164.605	37.5
165.878	40
167.15	38.5
168.423	37.5
169.694	37.5
170.966	39
172.238	34.5
173.51	35.5
174.78	34.5
176.052	40
177.323	37
178.592	39.5
179.863	37.5
181.134	37
182.403	39
183.673	34
184.943	39
186.211	36
187.481	39.5
188.749	39.5
190.018	38
191.287	41
192.554	39
193.822	32.5
195.089	38.5
196.357	38.5
197.625	40.5
198.891	36
200.159	38
201.425	34
202.692	35.5
203.957	34
205.224	36.5
206.489	33.5
207.755	33.5
209.02	33.5
210.286	33.5
211.55	36.5
212.815	35
214.079	35.5
215.344	31.5
216.607	33
217.872	35
219.135	31.5
220.399	27
221.662	34
222.924	34
224.187	33
225.449	32.5
226.713	35
227.974	32.5
229.235	30
230.498	29.5
231.759	33.5
233.019	35.5
234.281	29.5
235.542	30.5
236.802	30.5
238.063	33.5
239.323	30
240.582	30
241.843	28.5
243.102	30.5
244.361	25.5
245.621	27
246.879	30.5
248.138	32
249.396	26
250.655	26.5
251.913	31
253.17	31
254.427	29.5
255.686	28
256.943	27.5
258.199	31.5
259.456	29
260.712	30
261.969	30
263.225	30.5
264.481	26.5
265.736	31
266.991	30
268.246	32
269.502	32
270.757	27
272.011	29
273.265	25.5
274.519	28.5
275.773	28
277.027	32
278.28	31
279.533	26
280.786	30
282.04	30
283.293	30
284.545	28
285.798	25
287.049	29
288.301	28
289.553	27
290.804	28
292.055	28
293.306	28.5
294.557	27
295.807	29.5
297.058	28
298.308	30.5
299.558	34
300.808	26.5
302.057	30.5
303.305	29.5
304.554	26
305.803	27
307.052	27.5
308.3	27.5
309.549	30
310.797	32
312.045	30
313.292	30.5
314.54	29
315.786	29
317.033	28.5
318.28	28
319.526	27
320.773	31
322.019	26.5
323.264	28.5
324.51	28.5
325.755	24.5
327.001	26.5
328.246	26.5
329.49	30.5
330.735	25.5
331.979	29.5
333.224	29
334.467	24.5
335.711	27
336.955	27
338.199	26
339.441	27
340.684	28
341.927	28
343.168	24
344.411	26
345.654	29.5
346.895	29
348.137	31.5
349.379	30
350.619	30
351.86	30
353.102	29.5
354.341	33
355.582	28
356.821	28
358.062	26
359.302	28.5
360.541	30
361.781	29
363.019	26.5
364.259	33.5
365.496	28
366.736	30.5
367.974	30
369.212	27
370.45	25
371.687	25.5
372.925	27.5
374.162	33
375.399	30
376.635	29.5
377.873	29
379.109	26
380.344	30.5
381.581	28.5
382.816	28.5
384.052	28
385.287	27
386.523	30
387.757	27
388.991	27.5
390.227	34.5
391.46	25
392.695	31.5
393.928	24.5
395.162	28
396.396	26
397.629	26.5
398.861	29
400.095	28.5
401.327	28
402.559	28
403.792	26.5
405.024	29
406.255	28.5
407.488	25
408.719	26
409.949	29
411.18	29.5
412.412	30
413.642	32
414.872	29
416.102	26.5
417.333	25
418.562	29.5
419.791	28
421.02	27.5
422.249	27.5
423.479	27
424.707	29
425.935	29
427.163	24.5
428.391	27
429.619	31
430.848	29.5
432.075	27
433.302	28.5
434.529	31.5
435.755	26
436.982	27
438.208	29.5
439.434	28
440.66	23.5
441.885	28.5
443.111	31
444.338	26.5
445.563	31
446.788	29.5
448.012	27
449.237	30
450.461	27
451.685	30.5
452.909	30
454.133	31.5
455.356	31
456.579	31
457.802	28.5
459.025	28
460.247	30.5
461.469	29
462.691	32.5
463.914	34
465.136	29
466.357	31.5
467.579	29
468.8	34.5
470.021	32.5
471.242	31.5
472.462	35
473.682	40
474.903	37
476.123	33
477.343	38
478.563	42.5
479.782	42.5
481	49.5
482.219	52
483.438	53
484.657	51.5
485.874	55
487.093	53.5
488.311	53
489.529	56
490.747	56.5
491.963	59
493.181	48
494.398	51.5
495.614	51.5
496.83	43
498.047	42
499.264	43.5
500.479	48.5
501.695	39
502.911	36
504.125	35
505.34	38.5
506.554	34.5
507.769	37
508.984	37
510.198	32.5
511.412	36
512.627	33.5
513.839	33.5
515.053	31
516.266	33
517.479	32
518.691	31.5
519.905	27.5
521.118	29
522.329	29.5
523.542	32
524.753	29
525.965	27
527.176	31.5
528.388	34
529.598	28.5
530.809	28.5
532.019	31
533.23	32
534.44	27
535.649	27.5
536.86	28
538.068	29
539.279	28.5
540.487	26
541.697	32
542.905	32.5
544.113	29
545.322	34
546.53	30
547.737	25.5
548.946	28
550.153	27
551.361	25.5
552.568	27
553.774	28
554.982	26
556.188	30
557.394	32
558.599	27.5
559.806	31
561.012	29
562.217	29
563.423	30.5
564.628	27
565.832	30.5
567.036	26.5
568.241	25
569.446	29.5
570.65	27
571.853	27.5
573.057	30
574.26	25.5
575.464	28
576.667	26
577.87	28.5
579.072	30
580.274	28.5
581.477	27.5
582.68	26.5
583.881	28.5
585.083	28.5
586.284	26
587.485	29
588.686	26.5
589.887	29
591.087	26
592.288	26.5
593.488	28
594.688	30
595.888	28.5
597.087	29.5
598.287	28
599.486	23
600.685	26.5
601.884	25.5
603.082	26.5
604.281	30.5
605.479	29.5
606.677	26
607.875	26
609.073	32
610.27	27
611.468	29.5
612.665	31
613.862	30
615.058	29
616.255	25.5
617.451	27
618.648	24.5
619.842	27
621.038	29
622.234	28.5
623.429	28
624.624	26.5
625.819	25.5
627.013	28.5
628.207	32.5
629.402	27
630.596	30
631.79	31.5
632.983	29
634.177	24.5
635.37	25.5
636.564	31.5
637.755	24
638.948	28.5
640.141	28
641.334	31
642.525	30.5
643.717	28
644.909	29
646.099	30
647.291	30
648.483	29.5
649.674	28
650.864	28
652.055	30.5
653.244	25.5
654.435	32.5
655.625	31
656.814	30
658.004	27
659.193	28.5
660.382	28.5
661.571	32.5
662.759	28
663.948	29
665.135	31.5
666.324	28.5
667.511	27.5
668.7	32
669.886	36
671.074	27.5
672.262	29.5
673.448	29.5
674.634	28
675.821	31
677.007	32.5
678.194	29
679.379	32.5
680.565	32
681.75	37.5
682.936	34
684.121	35
685.305	32.5
686.491	40
687.675	32.5
688.86	33.5
690.043	29
691.227	34.5
692.411	31
693.594	30.5
694.777	34.5
695.961	32.5
697.144	34.5
698.326	35
699.509	36
700.691	38
701.873	33.5
703.056	37
704.237	41.5
705.419	48
706.599	46
707.782	50.5
708.962	54.5
710.143	45.5
711.323	49
712.504	36.5
713.684	38.5
714.864	40
716.043	34.5
717.223	34
718.403	30
719.582	33
720.761	31
721.94	26
723.118	23
724.296	32
725.474	26
726.652	30
727.831	27.5
729.009	28.5
730.186	33
731.363	29.5
732.54	28
733.717	29.5
734.893	29
736.07	32.5
737.246	30
738.422	31.5
739.598	23.5
740.773	32
741.949	27
743.124	28.5
744.299	30.5
745.474	31
746.649	28.5
747.823	31
748.997	32.5
750.172	29.5
751.346	32
752.519	26.5
753.693	30
754.867	25
756.038	28
757.211	26.5
758.384	30.5
759.557	28.5
760.73	27.5
761.902	30.5
763.074	30.5
764.246	27.5
765.417	31
766.588	23.5
767.76	28
768.931	29.5
770.102	26
771.271	28.5
772.442	31.5
773.613	28
774.783	34
775.952	26
777.122	31.5
778.291	26.5
779.461	30
780.629	26
781.798	27
782.967	31
784.135	31
785.304	28
786.472	29.5
787.639	31.5
788.807	32
789.975	30.5
791.142	33.5
792.309	27.5
793.477	30.5
794.642	24
795.81	30.5
796.975	26
798.142	31
799.308	26
800.473	27
801.639	28
802.804	25.5
803.97	29.5
805.134	27.5
806.299	28.5
807.463	28
808.628	25.5
809.792	25.5
810.957	25
812.12	30.5
813.284	29
814.447	30
815.611	31
816.773	30
817.937	28.5
819.099	25.5
820.261	27
821.424	29
822.585	27
823.748	31
824.909	27
826.07	29
827.232	28.5
828.393	27
829.554	26
830.715	30
831.875	25.5
833.035	22.5
834.196	30
835.356	25
836.515	33
837.676	28
838.835	27
839.994	28
841.152	31
842.312	28
843.47	26.5
844.629	28.5
845.786	29
846.946	28
848.103	27
849.261	29.5
850.418	26
851.575	26.5
852.733	33
853.89	28
855.046	27.5
856.203	27
857.359	29.5
858.515	29
859.67	28
860.827	27.5
861.983	29.5
863.138	32
864.293	30.5
865.448	31.5
866.603	28
867.757	29
868.912	28
870.066	27
871.22	29
872.374	24.5
873.527	26
874.681	32
875.834	29
876.987	24
878.14	27
879.293	29
880.445	27.5
881.598	27.5
882.75	26.5
883.902	32
885.054	25
886.206	28
887.357	25.5
888.507	27.5
889.658	24.5
890.809	27.5
891.96	30.5
893.111	26
894.261	27
895.411	26.5
896.561	23.5
897.71	22.5
898.86	27
900.009	30
901.159	25.5
902.308	26
903.455	23.5
904.604	31
905.753	29
906.901	29
908.048	27.5
909.197	26
910.344	26.5
911.492	27
912.639	28.5
913.786	26.5
914.933	28.5
916.079	28.5
917.226	30.5
918.373	26
919.518	25
920.664	24
921.81	27
922.955	25
924.101	27
925.245	28
926.391	28
927.536	28
928.68	28
929.825	24
930.968	28.5
932.113	29
933.256	27
934.4	27
935.543	24.5
936.687	28.5
937.83	27.5
938.973	27
940.115	24.5
941.258	30
942.399	23.5
943.542	27
944.684	31
945.826	24.5
946.967	27
948.109	25.5
949.25	24
950.392	27.5
951.532	23.5
952.672	25
953.813	25
954.953	25.5
956.093	22.5
957.233	28
958.373	23.5
959.512	31
960.652	25
961.791	28
962.929	22.5
964.069	27.5
965.207	26.5
966.345	23.5
967.484	26.5
968.622	26.5
969.759	28
970.896	28
972.035	27.5
973.172	23
974.309	26
975.445	25
976.582	28.5
977.719	25.5
978.855	24
979.991	24.5
981.127	27
982.263	29.5
983.398	26
984.535	27
985.67	23
986.804	24
987.939	26.5
989.074	25.5
990.208	27
991.342	26
992.476	25.5
993.61	25
994.744	32
995.877	25
997.01	25.5
998.143	27
999.276	26
1000.41	24
1001.54	25
1002.67	28.5
1003.81	24
1004.94	24.5
1006.07	23.5
1007.2	26.5
1008.33	26
1009.47	24.5
1010.6	23
1011.73	23
1012.86	26.5
1013.99	24
1015.12	27
1016.25	26.5
1017.38	24
1018.51	27.5
1019.64	27
1020.77	23
1021.9	25
1023.03	26
1024.15	26.5
1025.28	27.5
1026.41	30
1027.54	27
1028.67	27
1029.8	23.5
1030.92	24.5
1032.05	24.5
1033.18	26.5
1034.31	24.5
1035.43	26.5
1036.56	27.5
1037.69	30
1038.81	23
1039.94	27
1041.07	27.5
1042.19	24
1043.32	28.5
1044.44	24
1045.57	21
1046.69	27
1047.82	22
1048.94	26
1050.07	26
1051.19	24
1052.32	26
1053.44	27
1054.57	26
1055.69	27
1056.81	26.5
1057.94	26
1059.06	28
1060.18	24.5
1061.31	22
1062.43	23.5
1063.55	25.5
1064.67	27.5
1065.8	28.5
1066.92	30.5
1068.04	28.5
1069.16	28
1070.28	27.5
1071.4	27
1072.52	28
1073.64	26
1074.76	23.5
1075.89	31
1077.01	27
1078.13	25
1079.25	24
1080.37	24
1081.49	24
1082.6	25.5
1083.72	25
1084.84	27
1085.96	27.5
1087.08	22.5
1088.2	24.5
1089.32	26
1090.43	26
1091.55	26
1092.67	24.5
1093.79	27.5
1094.91	22
1096.02	22
1097.14	23
1098.26	24
1099.37	23.5
1100.49	25.5
1101.61	24
1102.72	28
1103.84	26
1104.95	26.5
1106.07	28
1107.18	24.5
1108.3	25
1109.41	26.5
1110.53	21.5
1111.64	25
1112.76	28
1113.87	23
1114.99	23
1116.1	29
1117.21	23
1118.33	24
1119.44	27
1120.55	25.5
1121.67	26.5
1122.78	24.5
1123.89	21
1125	22.5
1126.12	21
1127.23	25
1128.34	27.5
1129.45	26
1130.56	24.5
1131.68	26
1132.79	22
1133.9	23
1135.01	27
1136.12	25.5
1137.23	22
1138.34	22.5
1139.45	21.5
1140.56	23
1141.67	23.5
1142.78	23.5
1143.89	27
1145	24
1146.11	29
1147.22	24.5
1148.32	25
1149.43	23
1150.54	28
1151.65	22.5
1152.76	23.5
1153.86	28
1154.97	28
1156.08	28
1157.19	25.5
1158.29	25.5
1159.4	22
1160.51	28
1161.61	26
1162.72	23
1163.83	27
1164.93	27
1166.04	27.5
1167.14	27.5
1168.25	28
1169.35	29.5
1170.46	23
1171.56	21.5
1172.67	25
1173.77	23.5
1174.88	23.5
1175.98	25
1177.08	28
1178.19	26.5
1179.29	25
1180.4	28.5
1181.5	24
1182.6	25
1183.71	26
1184.81	21
1185.91	24
1187.01	28
1188.12	26.5
1189.22	21.5
1190.32	25.5
1191.42	25
1192.52	26.5
1193.62	25
1194.72	23.9872
1195.83	25.924
1196.93	28.4708
1198.03	25.5407
1199.13	26.9621
1200.23	29.065
1201.33	24.9533
1202.43	21.9403
1203.53	28.036
1204.63	23.3453
1205.73	24.9579
1206.83	24.0066
1207.92	24.5775
1209.02	27.3946
1210.12	25.3675
1211.22	24.6451
1212.32	24.3453
1213.42	25.2225
1214.51	23.7974
1215.61	24.1195
1216.71	25.9062
1217.81	23.6779
1218.9	26.7098
1220	28.005
1221.1	25.9767
1222.19	28.65
1223.29	21.9485
1224.39	23.733
1225.48	22.6833
1226.58	26.0272
1227.68	23.0105
1228.77	27.2474
1229.87	24.8396
1230.96	24.1685
1232.06	22.567
1233.15	24.8528
1234.25	24.0406
1235.34	25.4339
1236.43	23.0119
1237.53	24.6009
1238.62	23.4322
1239.72	25.2985
1240.81	27.3549
1241.9	27.4302
1243	23.9871
1244.09	25.6872
1245.18	24.866
1246.27	26.4636
1247.37	24.2937
1248.46	23.8969
1249.55	25.9679
1250.64	24.5306
1251.74	24.9993
1252.83	26.2091
1253.92	25.0755
1255.01	27.1917
1256.1	26.4333
1257.19	27.1291
1258.28	22.9623
1259.38	27.493
1260.46	27.2927
1261.56	25.1224
1262.65	27.1451
1263.74	25.5951
1264.82	25.5247
1265.91	24.964
1267	26.9038
1268.09	27.0473
1269.18	23.3468
1270.27	26.1108
1271.36	24.5674
1272.45	24.4488
1273.54	25.7871
1274.63	22.5602
1275.71	25.2226
1276.8	25.5
1277.89	26.8436
1278.98	23.3563
1280.06	25.2339
1281.15	25.1311
1282.24	26.3908
1283.32	23.2723
1284.41	23.8802
1285.5	24.6134
1286.58	24.3487
1287.67	25.6666
1288.76	25.2263
1289.84	26.3174
1290.93	23.8984
1292.01	21.1834
1293.1	23.3996
1294.18	23.6564
1295.27	24.7264
1296.35	26.9543
1297.44	24.07
1298.52	22.526
1299.6	25.5668
1300.69	23.9734
1301.77	24.5873
1302.86	25.4218
1303.94	24.3987
1305.02	25.8181
1306.11	21.8473
1306.41	20
1307.5	27
1308.59	27
1309.68	25.5
1310.77	23.5
1311.85	23.5
1312.94	24
1314.03	23
1315.11	26.5
1316.2	20
1317.29	24.5
1318.37	22.5
1319.46	22.5
1320.55	24
1321.63	24.5
1322.72	22.5
1323.8	27
1324.89	24
1325.98	22.5
1327.06	25.5
1328.15	26
1329.23	25
1330.31	25.5
1331.4	27
1332.48	22.5
1333.57	21.5
1334.65	24
1335.74	28
1336.82	26
1337.9	24.5
1338.99	25.5
1340.07	25
1341.15	25.5
1342.24	28
1343.32	27
1344.4	24
1345.48	25.5
1346.56	25
1347.65	25
1348.73	24.5
1349.81	24
1350.89	24
1351.97	24
1353.05	28.5
1354.13	26
1355.21	26
1356.29	27
1357.37	24.5
1358.46	26
1359.54	24
1360.62	24
1361.69	23
1362.77	27.5
1363.85	26
1364.93	25
1366.01	24.5
1367.09	24
1368.17	23
1369.25	28
1370.33	26
1371.41	24.5
1372.48	26
1373.56	27
1374.64	28
1375.72	30
1376.79	25.5
1377.87	26
1378.95	24
1380.02	26
1381.1	21
1382.18	24.5
1383.25	23.5
1384.33	24
1385.4	23.5
1386.48	26
1387.56	24
1388.63	22.5
1389.71	24
1390.78	24
1391.86	26
1392.93	29.5
1394.01	26.5
1395.08	28
1396.15	27.5
1397.23	27.5
1398.3	30
1399.38	29
1400.45	30.5
1401.52	29
1402.6	29.5
1403.67	29
1404.74	30
1405.81	30
1406.89	28
1407.96	29
1409.03	31
1410.1	31
1411.17	27
1412.25	31
1413.32	28.5
1414.39	31.5
1415.46	27
1416.53	28
1417.6	29.5
1418.67	28
1419.74	28
1420.81	27.5
1421.88	27.5
1422.95	24
1424.02	29
1425.09	28
1426.16	26.5
1427.23	25.5
1428.3	26
1429.37	27.5
1430.44	26.5
1431.51	25
1432.58	23.5
1433.64	25.5
1434.71	23.5
1435.78	25.5
1436.85	24.5
1437.92	24
1438.98	27
1440.05	25
1441.12	26.5
1442.18	25
1443.25	23
1444.32	26
1445.38	27
1446.45	25
1447.52	23
1448.58	28
1449.65	24.5
1450.71	28
1451.78	30
1452.84	29
1453.91	26
1454.97	28
1456.04	25
1457.1	26.5
1458.17	23.5
1459.23	27.5
1460.3	24
1461.36	27
1462.42	23.5
1463.49	29.5
1464.55	23.5
1465.61	29.5
1466.68	23
1467.74	28
1468.8	32.5
1469.86	28.5
1470.93	28
1471.99	29
1473.05	22
1474.11	27
1475.17	27.5
1476.24	28
1477.3	28
1478.36	23.5
1479.42	24.5
1480.48	25
1481.54	27
1482.6	24
1483.66	26.5
1484.72	26
1485.78	28.5
1486.84	23.5
1487.9	26
1488.96	24
1490.02	28.5
1491.08	26.5
1492.14	25.5
1493.2	25.5
1494.26	26.5
1495.31	22.5
1496.37	26
1497.43	25.5
1498.49	31
1499.55	24
1500.6	28.5
1501.66	24.5
1502.72	26.5
1503.78	24
1504.83	22
1505.89	19.5
1506.95	25
1508	25
1509.06	26.5
1510.12	24
1511.17	21
1512.23	24
1513.28	26
1514.34	29
1515.39	24
1516.45	27
1517.5	22.5
1518.56	26.5
1519.61	24
1520.67	26.5
1521.72	25
1522.78	25.5
1523.83	23
1524.88	26.5
1525.94	26.5
1526.99	22
1528.05	26.5
1529.1	24
1530.15	23
1531.2	31.5
1532.26	26.5
1533.31	31
1534.36	25.5
1535.41	26.5
1536.47	27.5
1537.52	27.5
1538.57	26.5
1539.62	24
1540.67	23
1541.72	21.5
1542.77	26.5
1543.83	28
1544.88	24
1545.93	25
1546.98	25.5
1548.03	27
1549.08	29.5
1550.13	26
1551.18	26
1552.23	26
1553.28	26
1554.32	28
1555.37	27
1556.42	28
1557.47	23
1558.52	26
1559.57	26.5
1560.62	27
1561.67	28
1562.71	25
1563.76	25.5
1564.81	26
1565.86	29
1566.9	26.5
1567.95	27.5
1569	29.5
1570.04	27.5
1571.09	23.5
1572.14	24.5
1573.18	25
1574.23	26.5
1575.27	26.5
1576.32	21
1577.37	24.5
1578.41	28.5
1579.46	27
1580.5	26.5
1581.55	25.5
1582.59	23.5
1583.64	24
1584.68	27
1585.72	26
1586.77	27
1587.81	25.5
1588.86	22.5
1589.9	23
1590.94	21.5
1591.99	23.5
1593.03	26.5
1594.07	28.5
1595.12	26.5
1596.16	24
1597.2	27
1598.24	24.5
1599.29	24.5
1600.33	28
1601.37	26
1602.41	25
1603.45	26
1604.49	23
1605.53	25.5
1606.58	25.5
1607.62	28
1608.66	28
1609.7	24
1610.74	26.5
1611.78	23.5
1612.82	25
1613.86	25
1614.9	30
1615.94	26
1616.98	27
1618.02	27
1619.06	27
1620.09	26
1621.13	27.5
1622.17	27
1623.21	23.5
1624.25	26
1625.29	26
1626.32	24.5
1627.36	29
1628.4	29.5
1629.44	25
1630.47	24.5
1631.51	27.5
1632.55	24.5
1633.58	25
1634.62	25.5
1635.66	27.5
1636.69	18.5
1637.73	24.5
1638.77	23.5
1639.8	24
1640.84	26.5
1641.87	25.5
1642.91	24
1643.94	24
1644.98	25
1646.01	24
1647.05	27
1648.08	25
1649.12	28.5
1650.15	23.5
1651.18	27
1652.22	24
1653.25	29
1654.29	26
1655.32	29.5
1656.35	22.5
1657.39	23
1658.42	25
1659.45	27
1660.48	29
1661.52	24
1662.55	30
1663.58	23.5
1664.61	22.5
1665.64	24.5
1666.68	23
1667.71	27
1668.74	21.5
1669.77	28
1670.8	25.5
1671.83	29
1672.86	29
1673.89	28.5
1674.92	27
1675.95	26.5
1676.98	24
1678.01	27.5
1679.04	25
1680.07	25
1681.1	26
1682.13	27.5
1683.16	23.5
1684.19	25
1685.22	27.5
1686.25	21.5
1687.27	26
1688.3	27.5
1689.33	28
1690.36	24.5
1691.38	21
1692.41	27
1693.44	27.5
1694.47	26
1695.49	26
1696.52	26.5
1697.55	29.5
1698.57	26.5
1699.6	19
1700.63	25
1701.65	26.5
1702.68	24.5
1703.7	27
1704.73	23.5
1705.76	30
1706.78	21.5
1707.81	27
1708.83	27.5
1709.86	24
1710.88	25
1711.91	26.5
1712.93	27
1713.95	26
1714.98	25
1716	25
1717.03	26
1718.05	27
1719.07	25
1720.1	25.5
1721.12	24.5
1722.14	27.5
1723.16	27
1724.19	24.5
1725.21	27
1726.23	26
1727.25	27
1728.28	26.5
1729.3	26.5
1730.32	26
1731.34	25.5
1732.36	24.5
1733.38	24.5
1734.41	23.5
1735.43	23
1736.45	26
1737.47	26.5
1738.49	26
1739.51	27.5
1740.53	22
1741.55	24
1742.57	25.5
1743.59	22
1744.61	31.5
1745.63	29
1746.64	28.5
1747.66	23.5
1748.68	24
1749.7	22
1750.72	26.5
1751.74	19
1752.76	29.5
1753.77	28
1754.79	26
1755.81	25.5
1756.83	26
1757.84	26
1758.86	26
1759.88	25
1760.9	27.5
1761.91	24
1762.93	29
1763.95	26.5
1764.96	26
1765.98	25
1766.99	27
1768.01	23.5
1769.02	24.5
1770.04	25.5
1771.06	24
1772.07	27
1773.09	26.5
1774.1	30.5
1775.12	25
1776.13	24.5
1777.14	24.5
1778.16	29.5
1779.17	24
1780.19	27
1781.2	27
1782.21	21.5
1783.23	22.5
1784.24	23.5
1785.25	21.5
1786.27	26
1787.28	29
1788.29	22.5
1789.3	23
1790.32	26
1791.33	25.5
1792.34	28
1793.35	29
1794.36	21
1795.38	26
1796.39	28
1797.4	27.5
1798.41	25
1799.42	24
1800.43	27
1801.44	25.5
1802.45	31.5
1803.46	22
1804.47	27
1805.48	28
1806.49	28
1807.5	22.5
1808.51	26
1809.52	24.5
1810.53	25.5
1811.54	27
1812.55	28.5
1813.56	26
1814.57	25.5
1815.57	25
1816.58	27.5
1817.59	25
1818.6	25
1819.61	28
1820.61	25
1821.62	25.5
1822.63	25
1823.64	26
1824.64	29
1825.65	23.5
1826.66	25.5
1827.66	22
1828.67	23.5
1829.68	23
1830.68	30.5
1831.69	21
1832.69	27
1833.7	25
1834.7	25.5
1835.71	21.5
1836.71	25
1837.72	27
1838.72	29
1839.73	28
1840.73	31.5
1841.74	27
1842.74	23
1843.75	24
1844.75	23
1845.75	25.5
1846.76	22
1847.76	26.5
1848.76	24.5
1849.77	25.5
1850.77	29.5
1851.77	26.5
1852.78	26
1853.78	25
1854.78	26
1855.78	25
1856.78	25
1857.79	26
1858.79	23.5
1859.79	28
1860.79	23.5
1861.79	21
1862.79	23.5
1863.79	30
1864.79	27.5
1865.79	25
1866.8	26.5
1867.8	26
1868.8	28
1869.8	24.5
1870.8	30
1871.8	20.5
1872.8	24
1873.79	25
1874.79	19.5
1875.79	23.5
1876.79	25.5
1877.79	27
1878.79	25.5
1879.79	25.5
1880.79	26
1881.78	25
1882.78	24.5
1883.78	29
1884.78	26.5
1885.77	29
1886.77	27.5
1887.77	28.5
1888.77	27
1889.76	26
1890.76	24
1891.76	23.5
1892.75	26
1893.75	22.5
1894.75	25
1895.74	26.5
1896.74	24
1897.73	27.5
1898.73	27
1899.73	24
1900.72	25
1901.72	24
1902.71	22.5
1903.7	26
1904.7	22
1905.69	23
1906.69	27.5
1907.68	28.5
1908.68	23
1909.67	26.5
1910.66	24
1911.66	25
1912.65	23
1913.64	25
1914.64	27.5
1915.63	26.5
1916.62	28
1917.62	25.5
1918.61	23
1919.6	22
1920.59	25.5
1921.58	27.5
1922.58	20
1923.57	25
1924.56	25
1925.55	24.5
1926.54	26
1927.53	24
1928.52	25
1929.51	26
1930.51	25
1931.5	27
1932.49	22.5
1933.48	26.5
1934.47	28.5
1935.46	24.5
1936.45	28
1937.44	24.5
1938.42	26
1939.41	24
1940.4	27.5
1941.39	24.5
1942.38	27
1943.37	25
1944.36	19
1945.35	27
1946.33	25
1947.32	28.5
1948.31	27
1949.3	24
1950.29	24.5
1951.27	23
1952.26	26.5
1953.25	23
1954.23	25
1955.22	24
1956.21	27
1957.19	25
1958.18	30.5
1959.17	27
1960.15	25.5
1961.14	27.5
1962.13	27
1963.11	26
1964.1	26
1965.08	28
1966.07	24.5
1967.05	29.5
1968.04	23
1969.02	25.5
1970.01	28.5
1970.99	24.5
1971.97	26.5
1972.96	25
1973.94	22
1974.93	21.5
1975.91	24
1976.89	25
1977.88	26
1978.86	27.5
1979.84	24
1980.83	22.5
1981.81	24.5
1982.79	25.5
1983.77	25.5
1984.76	26
1985.74	25.5
1986.72	25
1987.7	25
1988.68	27.5
1989.67	24.5
1990.65	23
1991.63	25
1992.61	28
1993.59	28
1994.57	22
1995.55	25
1996.53	26
1997.51	24.5
1998.49	27
1999.47	23
2000.45	22.5
2001.43	27
2002.41	22
2003.39	26
2004.37	28.5
2005.35	26.5
2006.33	25.5
2007.31	24
2008.29	23.5
2009.26	23.5
2010.24	25.5
2011.22	25.5
2012.2	23
2013.18	25
2014.15	26
2015.13	24
2016.11	24.5
2017.09	22
2018.06	25
2019.04	23.5
2020.02	24
2021	21.5
2021.97	27
2022.95	27
2023.92	25
2024.9	22
2025.88	26
2026.85	25
2027.83	24.5
2028.8	22.5
2029.78	21
2030.75	24.5
2031.73	24.5
2032.7	24
2033.68	23.5
2034.65	23
2035.63	26
2036.6	23
2037.58	25
2038.55	26
2039.52	29
2040.5	23
2041.47	28.5
2042.45	21
2043.42	26
2044.39	24
2045.36	27
2046.34	25
2047.31	22.5
2048.28	23
2049.26	25.5
2050.23	22.5
2051.2	23
2052.17	22.5
2053.14	24.5
2054.12	27
2055.09	20
2056.06	22
2057.03	22
2058	30
2058.97	21.5
2059.94	24
2060.91	25.5
2061.88	25
2062.85	25.5
2063.82	21.5
2064.79	23.5
2065.76	25
2066.73	23.5
2067.7	25
2068.67	24.5
2069.64	27
2070.61	21
2071.58	27
2072.55	23.5
2073.52	22
2074.49	22
2075.45	24
2076.42	24.5
2077.39	22
2078.36	24
2079.33	27
2080.29	24.5
2081.26	21
2082.23	25
2083.2	25
2084.16	26.5
2085.13	23.5
2086.1	21
2087.06	25
2088.03	27
2089	25
2089.96	25.5
2090.93	26
2091.89	22.5
2092.86	20
2093.83	26.5
2094.79	23.5
2095.76	21
2096.72	23.5
2097.69	20.5
2098.65	24.5
2099.62	22.5
2100.58	22.5
2101.55	26.5
2102.51	25.5
2103.47	22
2104.44	23.5
2105.4	22.5
2106.36	23
2107.33	20
2108.29	28.5
2109.25	26.5
2110.22	22
2111.18	24.5
2112.14	23.5
2113.11	25.5
2114.07	21
2115.03	24.5
2115.99	28
2116.96	28
2117.92	26
2118.88	22
2119.84	25
2120.8	25
2121.76	22
2122.72	24
2123.68	23
2124.65	23
2125.61	27
2126.57	22.5
2127.53	22
2128.49	25.5
2129.45	22
2130.41	24
2131.37	25.5
2132.33	23.5
2133.29	21
2134.25	25
2135.21	25.5
2136.17	24
2137.12	20
2138.08	26.5
2139.04	25
2140	25
2140.96	24.5
2141.92	25.5
2142.88	22.9743
2143.83	25.9238
2144.79	24.0134
2145.75	22.1635
2146.71	25.1225
2147.66	22.6346
2148.62	25.0704
2149.58	24.9543
2150.53	22.0413
2151.49	21.0939
2152.45	21.4341
2153.4	22.2896
2154.36	23.2495
2155.32	22.7401
2156.27	23.7359
2157.23	21.0267
2158.19	25.1772
2159.14	23.524
2160.1	23.5095
2161.05	24.4012
2162.01	24.155
2162.96	22.3638
2163.92	24.6094
2164.87	23.4759
2165.83	24.044
2166.78	22.1685
2167.73	23.7391
2168.69	20.0217
2169.64	22.9221
2170.6	26.0199
2171.55	19.9442
2172.5	21.586
2173.46	24.1632
2174.41	25.0179
2175.36	22.8853
2176.32	23.985
2177.27	23.4311
2178.22	22.3815
2179.18	21.5202
2180.13	24.3903
2181.08	22.4498
2182.03	22.8232
2182.98	22.8811
2183.94	19.7473
2184.89	24.4851
2185.84	23.5121
2186.79	22.22
2187.74	23.3517
2188.69	25.5674
2189.64	23.682
2190.6	25.2536
2191.55	24.4483
2192.5	20.7954
2193.45	24.1702
2194.4	18.5191
2195.35	24.9923
2196.3	22.9968
2197.25	21.3868
2198.2	23.4859
2199.15	21.0188
2200.1	21.8252
2201.04	23.4861
2201.99	25.3523
2202.94	23.0375
2203.89	21.2831
2204.84	25.3049
2205.79	23.9327
2206.74	24.6374
2207.69	25.5839
2208.63	23.3041
2209.58	27.1575
2210.53	22.3105
2211.48	22.324
2212.43	22.8496
2213.37	25.4869
2214.32	24.7075
2215.27	23.3569
2216.21	22.5793
2217.16	22.2741
2218.11	24.0726
2219.05	22.814
2220	24.384
2220.95	22.5147
2221.89	24.4512
2222.84	22.2354
2223.78	24.4739
2224.73	24.616
2225.68	22.8912
2226.62	22.0774
2227.57	23.882
2228.51	24.4393
2229.46	24.6415
2230.4	23.4922
2231.35	24.099
2232.29	21.0836
2233.24	25.4548
2234.18	26.0963
2235.12	26.1606
2236.07	25.3308
2237.01	23.1313
2237.95	24.8782
2238.9	26.5934
2239.84	24.7015
2240.06	24
2241.01	21
2241.96	22.5
2242.91	24
2243.86	24
2244.8	25.5
2245.75	21.5
2246.7	20
2247.65	28.5
2248.59	24.5
2249.54	23
2250.49	24.5
2251.43	24
2252.38	23
2253.33	22
2254.27	21.5
2255.22	23
2256.16	27
2257.11	22.5
2258.06	28.5
2259	26.5
2259.95	23
2260.89	22
2261.84	24.5
2262.78	22.5
2263.73	22
2264.67	26.5
2265.62	23.5
2266.56	21.5
2267.5	23
2268.45	23.5
2269.39	22
2270.34	22.5
2271.28	24.5
2272.22	26.5
2273.17	23
2274.11	24
2275.05	24.5
2276	24.5
2276.94	20.5
2277.88	21
2278.82	25.5
2279.77	24.5
2280.71	25
2281.65	20
2282.59	24
2283.53	24
2284.48	22
2285.42	23
2286.36	22
2287.3	24.5
2288.24	25.5
2289.18	26.5
2290.12	23
2291.06	23.5
2292	23.5
2292.94	21
2293.89	25.5
2294.83	20
2295.77	21.5
2296.71	24
2297.65	22.5
2298.58	20
2299.52	26
2300.46	21.5
2301.4	20
2302.34	20
2303.28	23
2304.22	23.5
2305.16	20.5
2306.1	23.5
2307.03	25
2307.97	23
2308.91	23
2309.85	24.5
2310.79	26
2311.72	24.5
2312.66	25
2313.6	22
2314.54	26.5
2315.47	23
2316.41	23
2317.35	24
2318.28	22
2319.22	25.5
2320.16	25.5
2321.09	26.5
2322.03	26
2322.96	24
2323.9	23
2324.84	26
2325.77	22
2326.71	24.5
2327.64	25
2328.58	23.5
2329.51	26
2330.45	22
2331.38	22.5
2332.32	26
2333.25	24.5
2334.18	27
2335.12	25.5
2336.05	23.5
2336.99	26
2337.92	26
2338.85	27
2339.79	26
2340.72	30
2341.65	23
2342.59	27
2343.52	23.5
2344.45	24
2345.39	25
2346.32	20
2347.25	27.5
2348.18	23
2349.11	26
2350.05	23.5
2350.98	26
2351.91	26
2352.84	26.5
2353.77	24
2354.7	25.5
2355.64	25
2356.57	28.5
2357.5	26.5
2358.43	25
2359.36	22.5
2360.29	27.5
2361.22	24
2362.15	24
2363.08	24
2364.01	26
2364.94	25.5
2365.87	24.5
2366.8	21.5
2367.73	25.5
2368.66	25
2369.58	29.5
2370.51	23
2371.44	19
2372.37	25.5
2373.3	23.5
2374.23	23.5
2375.16	26
2376.08	17
2377.01	29
2377.94	20.5
2378.87	23
2379.8	28.5
2380.72	24
2381.65	27.5
2382.58	24
2383.5	25
2384.43	27
2385.36	25
2386.28	23.5
2387.21	27.5
2388.14	22
2389.06	24.5
2389.99	25.5
2390.91	22
2391.84	22
2392.77	23.5
2393.69	26.5
2394.62	24.5
2395.54	27
2396.47	26
2397.39	25
2398.32	23.5
2399.24	29
2400.16	21.5
2401.09	25
2402.01	25
2402.94	23.5
2403.86	25
2404.78	28
2405.71	24.5
2406.63	24.5
2407.56	26
2408.48	28
2409.4	23.5
2410.32	25
2411.25	22
2412.17	21.5
2413.09	23.5
2414.02	23
2414.94	24.5
2415.86	23
2416.78	26.5
2417.7	24
2418.63	24.5
2419.55	23
2420.47	25.5
2421.39	25.5
2422.31	27.5
2423.23	25.5
2424.15	23.5
2425.07	24.5
2425.99	21
2426.92	24
2427.84	25.5
2428.76	27.5
2429.68	18.5
2430.59	25.5
2431.51	22.5
2432.43	25
2433.35	24
2434.27	26.5
2435.19	25
2436.11	26
2437.03	27
2437.95	27
2438.87	24
2439.79	26
2440.71	25.5
2441.62	25.5
2442.54	26
2443.46	22
2444.38	27.5
2445.3	27
2446.21	24.5
2447.13	25.5
2448.05	25
2448.97	25
2449.88	23.5
2450.8	28.5
2451.72	26.5
2452.63	25
2453.55	25.5
2454.47	24.5
2455.38	25
2456.3	28.5
2457.21	19
2458.13	24.5
2459.05	21.5
2459.96	26
2460.88	24
2461.79	22
2462.71	31
2463.62	23
2464.54	24
2465.45	29
2466.37	26
2467.28	24.5
2468.2	25.5
2469.11	20
2470.02	24.5
2470.94	27
2471.85	23
2472.77	23.5
2473.68	20
2474.59	25.5
2475.51	24
2476.42	32.5
2477.33	23.5
2478.25	22.5
2479.16	23
2480.07	24
2480.98	24.5
2481.9	24
2482.81	26
2483.72	26
2484.63	24
2485.55	24
2486.46	25.5
2487.37	22.5
2488.28	25
2489.19	22
2490.1	23
2491.01	23
2491.92	25.5
2492.83	27
2493.74	24.5
2494.66	28.5
2495.57	27
2496.48	24.5
2497.39	24.5
2498.3	25.5
2499.21	23
2500.12	25
2501.03	27
2501.93	28
2502.84	25.5
2503.75	23
2504.66	26
2505.57	27
2506.48	26
2507.39	25
2508.3	23.5
2509.21	26.5
2510.11	27
2511.02	26
2511.93	24.5
2512.84	25
2513.75	25.5
2514.65	25.5
2515.56	20
2516.47	21.5
2517.37	25
2518.28	26
2519.19	23
2520.09	22.5
2521	22
2521.91	24.5
2522.81	23
2523.72	26
2524.63	25
2525.53	26.5
2526.44	24
2527.34	24
2528.25	24.5
2529.16	26
2530.06	24.5
2530.97	24.5
2531.87	27
2532.78	24.5
2533.68	27
2534.58	27
2535.49	24.5
2536.39	28
2537.3	30.5
2538.2	26
2539.11	26
2540.01	23
2540.91	25
2541.82	25
2542.72	24
2543.62	24
2544.53	29
2545.43	23
2546.33	25
2547.23	27.5
2548.14	24
2549.04	27.5
2549.94	22
2550.84	27
2551.75	19.5
2552.65	23.5
2553.55	26.5
2554.45	25.5
2555.35	23.5
2556.26	24
2557.16	23.5
2558.06	26.5
2558.96	24
2559.86	20.5
2560.76	25
2561.66	27.5
2562.56	23
2563.46	27.5
2564.36	24
2565.26	23
2566.16	26.5
2567.06	25
2567.96	23.5
2568.86	24
2569.76	26.5
2570.66	23.5
2571.56	27
2572.46	26.5
2573.36	24.5
2574.26	24.5
2575.16	27
2576.05	27.5
2576.95	22
2577.85	26.5
2578.75	26
2579.65	28.5
2580.54	25
2581.44	26
2582.34	22.5
2583.24	28
2584.13	25
2585.03	23
2585.93	27.5
2586.83	24.5
2587.72	26.5
2588.62	27
2589.52	24
2590.41	25.5
2591.31	26.5
2592.2	26.5
2593.1	23
2594	24
2594.89	26.5
2595.79	28.5
2596.68	26
2597.58	27
2598.47	24.5
2599.37	29.5
2600.26	26
2601.16	25.5
2602.05	27
2602.95	23.5
2603.84	22
2604.74	29.5
2605.63	29.5
2606.52	26
2607.42	25.5
2608.31	24.5
2609.21	25
2610.1	27.5
2610.99	29.5
2611.89	25.5
2612.78	23.5
2613.67	26
2614.56	25
2615.46	26
2616.35	23.5
2617.24	24
2618.13	24.5
2619.03	27
2619.92	27
2620.81	28
2621.7	24
2622.59	24.5
2623.49	25
2624.38	23
2625.27	27
2626.16	25.5
2627.05	25
2627.94	24.5
2628.83	25.5
2629.72	25.5
2630.61	23
2631.5	29
2632.39	25
2633.28	25
2634.17	25
2635.06	25.5
2635.95	24.5
2636.84	28.5
2637.73	26
2638.62	25.5
2639.51	24.5
2640.4	27.5
2641.29	27.5
2642.18	25
2643.07	27
2643.96	27
2644.84	22.5
2645.73	30
2646.62	25.5
2647.51	22
2648.4	25
2649.28	24.5
2650.17	27
2651.06	23
2651.95	26.5
2652.83	25.5
2653.72	26.5
2654.61	25.5
2655.49	24.5
2656.38	23.5
2657.27	26.5
2658.16	25.5
2659.04	23.5
2659.93	26.5
2660.81	26
2661.7	23.5
2662.59	25.5
2663.47	25
2664.36	27
2665.24	24.5
2666.13	25
2667.01	23
2667.9	26.5
2668.78	21.5
2669.67	24
2670.55	25.5
2671.44	25.5
2672.32	25
2673.21	26.5
2674.09	25.5
2674.97	24
2675.86	27
2676.74	26.5
2677.62	25.5
2678.51	20.5
2679.39	25
2680.27	21
2681.16	22
2682.04	27
2682.92	27
2683.81	28.5
2684.69	29
2685.57	25
2686.45	22.5
2687.34	26
2688.22	26.5
2689.1	24
2689.98	24
2690.86	27
2691.75	23.5
2692.63	24.5
2693.51	24.5
2694.39	20
2695.27	24.5
2696.15	22.5
2697.03	25
2697.91	25
2698.79	26.5
2699.67	25
2700.55	27
2701.43	25.5
2702.31	28
2703.19	27.5
2704.07	24
2704.95	22
2705.83	27
2706.71	22.5
2707.59	22
2708.47	24
2709.35	23
2710.23	27
2711.11	23
2711.99	22.5
2712.86	26.5
2713.74	25.5
2714.62	25
2715.5	25.5
2716.38	27.5
2717.26	25.5
2718.13	27.5
2719.01	29
2719.89	23.5
2720.77	24.5
2721.64	27
2722.52	25
2723.4	25
2724.27	24
2725.15	27.5
2726.03	24.5
2726.9	26
2727.78	24.5
2728.66	26.5
2729.53	25
2730.41	24
2731.28	23
2732.16	26.5
2733.03	27
2733.91	22
2734.79	23.5
2735.66	25
2736.54	26
2737.41	26
2738.29	24
2739.16	26
2740.03	27
2740.91	22.5
2741.78	24
2742.66	27
2743.53	24
2744.41	26
2745.28	24.5
2746.15	25.5
2747.03	23.5
2747.9	27
2748.77	25
2749.65	27.5
2750.52	23
2751.39	28
2752.27	22.5
2753.14	27
2754.01	22.5
2754.88	26.5
2755.75	23
2756.63	25
2757.5	25.5
2758.37	25
2759.24	25
2760.11	26
2760.99	25.5
2761.86	25
2762.73	22.5
2763.6	23.5
2764.47	24.5
2765.34	24.5
2766.21	27.5
2767.08	24
2767.95	26
2768.82	28
2769.69	26.5
2770.56	26
2771.43	22
2772.3	22
2773.17	25.5
2774.04	27.5
2774.91	28
2775.78	20.5
2776.65	26
2777.52	23.5
2778.39	26
2779.26	27
2780.13	25
2780.99	25.5
2781.86	26
2782.73	26.5
2783.6	26
2784.47	27.5
2785.34	24.5
2786.2	25
2787.07	28
2787.94	25.5
2788.81	25
2789.67	24.5
2790.54	26.5
2791.41	27.5
2792.27	26.5
2793.14	27
2794.01	26.5
2794.87	27
2795.74	25.5
2796.61	27
2797.47	26.5
2798.34	27
2799.21	28
2800.07	31
2800.94	28.25
2801.8	25.5
2802.67	23.5
2803.53	26
2804.4	27.5
2805.26	28.5
2806.13	25
2806.99	22
2807.86	27.5
2808.72	24
2809.59	30.5
2810.45	27
2811.32	26
2812.18	26
2813.04	28
2813.91	28
2814.77	25.5
2815.64	28
2816.5	28.5
2817.36	27.5
2818.22	27
2819.09	28.5
2819.95	26
2820.81	28.5
2821.68	24.5
2822.54	25.5
2823.4	24.5
2824.26	27.5
2825.13	27.5
2825.99	26
2826.85	27
2827.71	29
2828.57	23
2829.44	30.5
2830.3	26
2831.16	26
2832.02	24.5
2832.88	27
2833.74	28
2834.6	25
2835.46	24
2836.32	26.5
2837.18	25.5
2838.04	30.5
2838.9	25.5
2839.76	26
2840.62	27.5
2841.48	27
2842.34	30
2843.2	28
2844.06	24
2844.92	21.5
2845.78	28
2846.64	25
2847.5	25.5
2848.36	25
2849.22	29.5
2850.08	25
2850.93	27
2851.79	30
2852.65	27.5
2853.51	27
2854.37	27
2855.22	25
2856.08	23
2856.94	26
2857.8	27
2858.65	24
2859.51	25.5
2860.37	25.5
2861.23	28.5
2862.08	29.5
2862.94	28.5
2863.79	23
2864.65	28
2865.51	25
2866.36	29
2867.22	25
2868.08	31.5
2868.93	24.5
2869.79	27
2870.64	26.5
2871.5	30.5
2872.35	27.5
2873.21	31.5
2874.06	31
2874.92	26
2875.77	29
2876.63	24
2877.48	25
2878.34	30
2879.19	30
2880.05	30
2880.9	30
2881.76	28
2882.61	31
2883.46	28.5
2884.32	34.5
2885.17	35
2886.02	33.5
2886.88	33.5
2887.73	34.5
2888.58	35
2889.44	37
2890.29	34
2891.14	39.5
2891.99	40.5
2892.85	39.5
2893.7	38
2894.55	43
2895.4	45
2896.25	49.5
2897.11	49.5
2897.96	49
2898.81	56
2899.66	51.5
2900.51	54
2901.36	60
2902.21	58
2903.07	64
2903.92	63.5
2904.77	65
2905.62	64
2906.47	67.5
2907.32	62.5
2908.17	60.5
2909.02	59
2909.87	57
2910.72	55.5
2911.57	53
2912.42	57.5
2913.27	49
2914.12	51
2914.97	48
2915.81	42
2916.66	40
2917.51	37.5
2918.36	37.5
2919.21	33.5
2920.06	35
2920.91	31.5
2921.75	34
2922.6	35.5
2923.45	33
2924.3	33.5
2925.15	32
2925.99	29
2926.84	27
2927.69	30
2928.54	29
2929.38	29.5
2930.23	28.5
2931.08	31.5
2931.92	27
2932.77	32
2933.62	29
2934.46	33.5
2935.31	29.5
2936.16	30
2937	26.5
2937.85	22
2938.69	32
2939.54	27.5
2940.38	30
2941.23	27.5
2942.08	24.5
2942.92	28
2943.77	27.5
2944.61	23
2945.46	30
2946.3	29
2947.15	31
2947.99	29
2948.83	32
2949.68	30.5
2950.52	32
2951.37	28
2952.21	35.5
2953.05	30.5
2953.9	33
2954.74	32.5
2955.58	35
2956.43	30.5
2957.27	37.5
2958.11	37
2958.96	34
2959.8	37.5
2960.64	37
2961.48	38
2962.33	44
2963.17	37.5
2964.01	42
2964.85	41
2965.69	41
2966.54	41
2967.38	41
2968.22	39.5
2969.06	39.5
2969.9	39
2970.74	37
2971.58	39.4782
2972.43	39.4817
2973.27	34.5412
2974.11	31.6529
2974.95	35.3033
2975.79	33.0115
2976.63	31.456
2977.47	32.8505
2978.31	28.2109
2979.15	29.7609
2979.99	30.5474
2980.83	29.7068
2981.67	28.2553
2982.51	23.531
2983.35	29.2659
2984.19	26.9445
2985.03	27.704
2985.86	23.5233
2986.7	27.134
2987.54	24.1906
2988.38	28.4226
2989.22	24.31
2990.06	27.6399
2990.9	24.315
2991.73	23.1923
2992.57	27.0655
2993.41	25.5575
2994.25	28.0877
2995.09	24.1804
2995.92	25.4748
2996.76	25.6117
2997.6	26.1689
2998.44	24.3721
2999.27	24.1432
3000.11	25.577
3000.95	23.8662
3001.78	22.1391
3002.62	26.2515
3003.46	22.1307
3004.29	24.0223
3005.13	24.3345
3005.96	25.2623
3006.8	23.1488
3007.64	21.0625
3008.47	23.591
3009.31	21.8293
3010.14	22.9559
3010.98	24.3367
3011.81	25.5734
3012.65	24.3617
3013.48	23.5103
3014.32	23.4917
3015.15	23.0273
3015.99	24.6414
3016.82	21.6645
3017.66	21.7436
3018.49	22.0181
3019.33	23.4286
3020.16	22.568
3020.99	24.039
3021.83	21.2261
3022.66	21.9317
3023.5	23.5029
3024.33	23.1312
3025.16	23.8508
3026	24.4698
3026.83	23.167
3027.66	24.2867
3028.49	23.7057
3029.33	24.2249
3030.16	21.1544
3030.99	19.9924
3031.83	21.7759
3032.66	24.5407
3033.49	23.5859
3034.32	23.0953
3035.15	23.3859
3035.99	23.8347
3036.82	23.0789
3037.65	23.4563
3038.48	23.1092
3039.31	24.2175
3040.14	25.39
3040.97	23.5772
3041.81	23.8678
3042.64	27.2801
3043.47	25.741
3044.3	21.8474
3045.13	24.1881
3045.96	24.5684
3046.79	24.3958
3047.62	24.2706
3048.45	24.3431
3049.28	25.0581
3050.11	24.7468
3050.94	23.2536
3051.77	21.1818
3052.6	21.9367
3053.43	25.1348
3054.26	24.0971
3055.08	22.8505
3055.91	22.1843
3056.74	22.8888
3057.26	23.5
3058.09	22
3058.92	25.5
3059.76	27
3060.59	21.5
3061.42	26
3062.25	24.5
3063.09	26.5
3063.92	25.5
3064.75	24.5
3065.58	24.5
3066.42	20.5
3067.25	22
3068.08	28.5
3068.91	26.5
3069.74	25
3070.57	22.5
3071.41	25
3072.24	24
3073.07	24
3073.9	23.5
3074.73	20
3075.56	21.5
3076.39	22.5
3077.22	22
3078.05	21
3078.88	25
3079.71	23.5
3080.54	25
3081.37	24
3082.2	27.5
3083.03	23
3083.86	26
3084.69	25
3085.52	24
3086.35	23
3087.18	22
3088.01	24
3088.84	22
3089.67	25
3090.5	23
3091.32	22
3092.15	25
3092.98	22
3093.81	24
3094.64	24.5
3095.47	24
3096.29	23.5
3097.12	27.5
3097.95	23
3098.78	24
3099.6	25.5
3100.43	21.5
3101.26	27
3102.09	22
3102.91	26
3103.74	25.5
3104.57	23.5
3105.39	26.5
3106.22	24
3107.05	27.5
3107.87	25
3108.7	24
3109.52	20.5
3110.35	25.5
3111.18	22.5
3112	25.5
3112.83	23
3113.65	24.5
3114.48	22
3115.3	26
3116.13	21
3116.95	24
3117.78	22.5
3118.6	25.5
3119.43	28.5
3120.25	24
3121.08	24
3121.9	24
3122.72	26.5
3123.55	25.5
3124.37	24
3125.2	23.5
3126.02	27
3126.84	23.5
3127.67	24
3128.49	21
3129.31	28
3130.14	24
3130.96	28.5
3131.78	27.5
3132.61	24.5
3133.43	26.5
3134.25	24.5
3135.07	21
3135.89	26
3136.72	24.5
3137.54	24
3138.36	24
3139.18	26
3140	27
3140.83	23
3141.65	23
3142.47	24
3143.29	24.5
3144.11	21
3144.93	24.5
3145.75	21.5
3146.57	24
3147.4	26.5
3148.22	22
3149.04	24
3149.86	28
3150.68	25
3151.5	25
3152.32	27.5
3153.14	23
3153.96	26
3154.78	25
3155.59	21.5
3156.42	22
3157.23	24
3158.05	24
3158.87	24.5
3159.69	23
3160.51	22.5
3161.33	24.5
3162.15	23
3162.97	26
3163.78	27.5
3164.6	25
3165.42	24
3166.24	25
3167.06	23
3167.87	22.5
3168.69	24.5
3169.51	26
3170.33	25
3171.14	26.5
3171.96	25.5
3172.78	24
3173.6	22.5
3174.41	22.5
3175.23	26
3176.05	23
3176.86	24.5
3177.68	22.5
3178.5	24
3179.31	23
3180.13	21
3180.94	28.5
3181.76	22
3182.58	26.5
3183.39	21.5
3184.21	24
3185.02	23
3185.84	24.5
3186.65	23
3187.47	23
3188.28	22
3189.1	24.5
3189.91	21.5
3190.73	24
3191.54	22
3192.36	24.5
3193.17	23
3193.98	21
3194.8	20
3195.61	26
3196.43	27.5
3197.24	22
3198.05	24
3198.87	25
3199.68	23.5
3200.49	21
3201.31	23.5
3202.12	24
3202.93	23.5
3203.75	23
3204.56	25.5
3205.37	23
3206.18	26
3207	22
3207.81	27.5
3208.62	25.5
3209.43	24.5
3210.24	20
3211.06	22
3211.87	26
3212.68	23.5
3213.49	26
3214.3	24
3215.11	27
3215.92	22
3216.73	26
3217.55	29
3218.36	20
3219.17	21
3219.98	26.5
3220.79	26
3221.6	24
3222.41	27
3223.22	24.5
3224.03	24
3224.84	24.5
3225.65	26
3226.46	20
3227.27	26
3228.08	21
3228.89	25.5
3229.7	30.5
3230.5	24.5
3231.31	25
3232.12	23.5
3232.93	24
3233.74	28
3234.55	22
3235.36	23.5
3236.16	25.5
3236.97	24.5
3237.78	27
3238.59	26
3239.4	25
3240.2	19.5
3241.01	22.5
3241.82	24.5
3242.63	24
3243.43	26
3244.24	25.5
3245.05	20
3245.85	26.5
3246.66	22
3247.47	28.5
3248.27	24.5
3249.08	24.5
3249.89	27.5
3250.69	23
3251.5	24
3252.31	23
3253.11	25
3253.92	21
3254.72	25.5
3255.53	24
3256.33	25.5
3257.14	22.5
3257.94	27
3258.75	24
3259.55	23
3260.36	26.5
3261.16	21.5
3261.97	23.5
3262.77	23.5
3263.58	25.5
3264.38	26.5
3265.19	25
3265.99	25
3266.79	23
3267.6	24
3268.4	28.5
3269.21	22.5
3270.01	24
3270.81	22.5
3271.62	22
3272.42	25
3273.22	27
3274.03	18.5
3274.83	24
3275.63	25
3276.43	27
3277.24	22.5
3278.04	23.5
3278.84	21.5
3279.64	23
3280.45	24
3281.25	24.5
3282.05	27.5
3282.85	25.5
3283.65	22
3284.45	24
3285.26	23.5
3286.06	22
3286.86	27.5
3287.66	21
3288.46	27
3289.26	25
3290.06	25
3290.86	24.5
3291.66	22.5
3292.46	25
3293.26	26
3294.06	23
3294.86	22.5
3295.66	25.5
3296.46	25
3297.26	25
3298.06	26.5
3298.86	24
3299.66	24
3300.46	22
3301.26	25.5
3302.06	22
3302.86	25.5
3303.66	25.5
3304.46	22
3305.25	25
3306.05	26
3306.85	25
3307.65	25
3308.45	26.5
3309.25	22.5
3310.04	25.5
3310.84	27
3311.64	25
3312.44	26
3313.23	21.5
3314.03	23
3314.83	25
3315.63	23.5
3316.42	25.5
3317.22	24.5
3318.02	25.5
3318.81	21
3319.61	24
3320.41	23
3321.2	23
3322	26.5
3322.8	23.5
3323.59	21
3324.39	22.5
3325.18	22.5
3325.98	20
3326.78	25.5
3327.57	25
3328.37	22
3329.16	21.5
3329.96	22
3330.75	24
3331.55	24
3332.34	25
3333.14	26
3333.93	25.5
3334.73	24
3335.52	21
3336.31	26.5
3337.11	24
3337.9	22.5
3338.7	25
3339.49	26.5
3340.28	24.5
3341.08	27
3341.87	23.5
3342.66	26
3343.46	26.5
3344.25	24
3345.04	26
3345.84	23
3346.63	23.5
3347.42	27.5
3348.22	26
3349.01	26
3349.8	21
3350.59	23.5
3351.39	24.5
3352.18	21.5
3352.97	25
3353.76	24
3354.55	24.5
3355.35	23.5
3356.14	23
3356.93	22
3357.72	21
3358.51	21
3359.3	22.5
3360.09	23
3360.88	28.5
3361.67	25
3362.46	21
3363.26	25.5
3364.05	25
3364.84	22
3365.63	24
3366.42	24
3367.21	19.5
3368	24.5
3368.79	23
3369.58	25
3370.37	26.5
3371.15	29
3371.94	26
3372.73	23
3373.52	26.5
3374.31	18
3375.1	25.5
3375.89	26
3376.68	22.5
3377.47	26.5
3378.26	25.5
3379.04	28.5
3379.83	28.5
3380.62	23.5
3381.41	26
3382.2	23.5
3382.98	23.5
3383.77	23.5
3384.56	25
3385.35	26
3386.13	27
3386.92	29.5
3387.71	25.5
3388.5	24
3389.28	24.5
3390.07	26.5
3390.86	25
3391.64	25.5
3392.43	24
3393.22	24
3394	26.5
3394.79	21
3395.57	24.5
3396.36	25.5
3397.15	25.5
3397.93	26.5
3398.72	28
3399.5	24.5
3400.29	26.5
3401.07	25.5
3401.86	27.5
3402.65	22
3403.43	25
3404.21	26
3405	24
3405.78	27.5
3406.57	26
3407.35	26.5
3408.14	25
3408.92	23.5
3409.71	24
3410.49	21
3411.27	27.5
3412.06	23
3412.84	23.5
3413.62	26.5
3414.41	25
3415.19	25.5
3415.97	23
3416.76	24
3417.54	26.5
3418.32	26
3419.11	25.5
3419.89	24
3420.67	22.5
3421.46	30
3422.24	24
3423.02	24.5
3423.8	23
3424.58	29
3425.37	26.5
3426.15	22
3426.93	25.5
3427.71	22
3428.49	25
3429.27	23.5
3430.05	21
3430.84	24
3431.62	26
3432.4	23
3433.18	27
3433.96	23
3434.74	25.5
3435.52	25.5
3436.3	27
3437.08	20
3437.86	21
3438.64	22
3439.42	24
3440.2	23
3440.98	20
3441.76	26
3442.54	27.5
3443.32	21
3444.1	21
3444.88	23
3445.66	25
3446.44	25.5
3447.22	22.5
3448	28
3448.77	23.5
3449.55	23.5
3450.33	23
3451.11	28.5
3451.89	21.5
3452.67	25.5
3453.45	24.5
3454.22	25.5
3455	25
3455.78	24.5
3456.56	24.5
3457.33	22
3458.11	25.5
3458.89	24
3459.67	28
3460.44	25.5
3461.22	21
3462	25
3462.77	21.5
3463.55	25
3464.33	24
3465.1	26
3465.88	25.5
3466.66	23
3467.43	20
3468.21	23
3468.98	23.5
3469.76	26
3470.54	25.5
3471.31	20.5
3472.09	25.5
3472.86	20.5
3473.64	22
3474.41	22
3475.19	24
3475.96	27
3476.74	25
3477.51	25.5
3478.29	25.5
3479.06	28
3479.84	23
3480.61	24
3481.39	29.5
3482.16	24
3482.93	25
3483.71	22
3484.48	23.5
3485.25	24.5
3486.03	25
3486.8	26
3487.57	23.5
3488.35	23.5
3489.12	25
3489.89	26.5
3490.67	28.5
3491.44	24
3492.21	26
3492.99	27.5
3493.76	25.5
3494.53	26
3495.3	24
3496.08	18
3496.85	23.5
3497.62	24
3498.39	21
3499.16	25
3499.93	21
