#Acq. time (s)=	5
#Accumulations=	5
#Range (cm-¹)=	100...3500
#Windows=	4
#Autofocus=	Off
#AutoExposure=	Off
#Spike filter=	Multiple accum.
#Delay time (s)=	0
#Binning=	1
#Readout mode=	Signal
#DeNoise=	Off
#ICS correction=	Off
#Dark correction=	Off
#Inst. Process=	Off
#Instrument=	LabRAM HR Evol
#Detector=	Syncerity OE
#Objective=	x100_VIS
#Grating=	600 (500nm)
#ND Filter=	25%
#Laser=	633nm_Edge
#Hole=	100.021
#Range=	Visible
#Project=	verificaciones
#Sample=	at5
#Site=	plain
#Title=	bolusat5plain
#Remark=	
#Date=	13.01.2026 19:34
#Acquired=	13.01.2026 19:34:04
100.692	28.5
101.975	26.5
103.258	32.5
104.542	29
105.824	32
107.107	32.5
108.39	29.5
109.672	30.5
110.954	27.5
112.236	27.5
113.519	28
114.8	30.5
116.081	30.5
117.362	33
118.643	27.5
119.924	27.5
121.204	31.5
122.484	31
123.764	30.5
125.044	29
126.323	29
127.603	27.5
128.882	35
130.161	30
131.438	32.5
132.716	33.5
133.995	30
135.273	29.5
136.55	31
137.828	30.5
139.106	36.5
140.383	31.5
141.66	35
142.937	35
144.213	35.5
145.488	37
146.764	38
148.04	36
149.316	33
150.592	33
151.867	35
153.141	38
154.416	37
155.69	38
156.965	36.5
158.239	39
159.512	38
160.786	34.5
162.059	42
163.333	38
164.605	38.5
165.878	35
167.15	43.5
168.423	34.5
169.694	32
170.966	39
172.238	35
173.51	36
174.78	37
176.052	43
177.323	39
178.592	42.5
179.863	37
181.134	37
182.403	42
183.673	39.5
184.943	35
186.211	33.5
187.481	37.5
188.749	39
190.018	39
191.287	34
192.554	40
193.822	39
195.089	39
196.357	38.5
197.625	37
198.891	32.5
200.159	35.5
201.425	36.5
202.692	34
203.957	36.5
205.224	37.5
206.489	32.5
207.755	34
209.02	33.5
210.286	32
211.55	34
212.815	35
214.079	29
215.344	36.5
216.607	31
217.872	33
219.135	31
220.399	35
221.662	31.5
222.924	33
224.187	34
225.449	35.5
226.713	30.5
227.974	29
229.235	32
230.498	33
231.759	33
233.019	28.5
234.281	28.5
235.542	28
236.802	33
238.063	33.5
239.323	26.5
240.582	29
241.843	26.5
243.102	29
244.361	26
245.621	30.5
246.879	32
248.138	27.5
249.396	29
250.655	27
251.913	31
253.17	28
254.427	24
255.686	27.5
256.943	30.5
258.199	27
259.456	27
260.712	27
261.969	28
263.225	26.5
264.481	27
265.736	28
266.991	32
268.246	26
269.502	24.5
270.757	29
272.011	30
273.265	25
274.519	27.5
275.773	27.5
277.027	29.5
278.28	27
279.533	27.5
280.786	28.5
282.04	30
283.293	28
284.545	28
285.798	31
287.049	27.5
288.301	26.5
289.553	29
290.804	28
292.055	26
293.306	24
294.557	29.5
295.807	26
297.058	28.5
298.308	30.5
299.558	26
300.808	29.5
302.057	27
303.305	29.5
304.554	25
305.803	26.5
307.052	26
308.3	27
309.549	28
310.797	30
312.045	26
313.292	28.5
314.54	26.5
315.786	28.5
317.033	28
318.28	26.5
319.526	23.5
320.773	28.5
322.019	26
323.264	32
324.51	27
325.755	28
327.001	30.5
328.246	26
329.49	28
330.735	29.5
331.979	29
333.224	23
334.467	30.5
335.711	25
336.955	28
338.199	28
339.441	30.5
340.684	27.5
341.927	25.5
343.168	24.5
344.411	26
345.654	30.5
346.895	30
348.137	26.5
349.379	30
350.619	28
351.86	29.5
353.102	25.5
354.341	30.5
355.582	32
356.821	26.5
358.062	27
359.302	30.5
360.541	29.5
361.781	24.5
363.019	29
364.259	26
365.496	30.5
366.736	28.5
367.974	27
369.212	26.5
370.45	29
371.687	27.5
372.925	31.5
374.162	30
375.399	29.5
376.635	20.5
377.873	29
379.109	29.5
380.344	31
381.581	28.5
382.816	24.5
384.052	27
385.287	29
386.523	23
387.757	29.5
388.991	25
390.227	25.5
391.46	28.5
392.695	26
393.928	28
395.162	29.5
396.396	30.5
397.629	28
398.861	29.5
400.095	27.5
401.327	25.5
402.559	28
403.792	23
405.024	25.5
406.255	27
407.488	30.5
408.719	30
409.949	26
411.18	23
412.412	29.5
413.642	29
414.872	26.5
416.102	31
417.333	27
418.562	26
419.791	25
421.02	28
422.249	27
423.479	26
424.707	26.5
425.935	27
427.163	24
428.391	30.5
429.619	26
430.848	31.5
432.075	24.5
433.302	27.5
434.529	24.5
435.755	27
436.982	28.5
438.208	32
439.434	28
440.66	26.5
441.885	28
443.111	29
444.338	28.5
445.563	30
446.788	29.5
448.012	27
449.237	30.5
450.461	27
451.685	30.5
452.909	27
454.133	31.5
455.356	27
456.579	32
457.802	26.5
459.025	28.5
460.247	25.5
461.469	29.5
462.691	31
463.914	27
465.136	28
466.357	33.5
467.579	36
468.8	30
470.021	35
471.242	34.5
472.462	36
473.682	37
474.903	35.5
476.123	40
477.343	40.5
478.563	37.5
479.782	40
481	47
482.219	48.5
483.438	52.5
484.657	55
485.874	47.5
487.093	51.5
488.311	49.5
489.529	55.5
490.747	52
491.963	52.5
493.181	48.5
494.398	49.5
495.614	49
496.83	45.5
498.047	42.5
499.264	41.5
500.479	43
501.695	39.5
502.911	36
504.125	40
505.34	38.5
506.554	31.5
507.769	32
508.984	34.5
510.198	31.5
511.412	36
512.627	33.5
513.839	35
515.053	31
516.266	33
517.479	32
518.691	29.5
519.905	31
521.118	28
522.329	31.5
523.542	29
524.753	31
525.965	30.5
527.176	33
528.388	33
529.598	31
530.809	26
532.019	26
533.23	31
534.44	31.5
535.649	27.5
536.86	29
538.068	30.5
539.279	29
540.487	26.5
541.697	28.5
542.905	27.5
544.113	27
545.322	30
546.53	31.5
547.737	27.5
548.946	28.5
550.153	25.5
551.361	27
552.568	31
553.774	26.5
554.982	32
556.188	27
557.394	28
558.599	28
559.806	28
561.012	31
562.217	26.5
563.423	31
564.628	29.5
565.832	28.5
567.036	30
568.241	28
569.446	27
570.65	30.5
571.853	28.5
573.057	24
574.26	29
575.464	27
576.667	28.5
577.87	27
579.072	28
580.274	28.5
581.477	27.5
582.68	28
583.881	28.5
585.083	29
586.284	25.5
587.485	30
588.686	26
589.887	28.5
591.087	27.5
592.288	25
593.488	30.5
594.688	32
595.888	27.5
597.087	28.5
598.287	28.5
599.486	26
600.685	27.5
601.884	28
603.082	27.5
604.281	29
605.479	29
606.677	26
607.875	26.5
609.073	23
610.27	30
611.468	29.5
612.665	28.5
613.862	30.5
615.058	31
616.255	27
617.451	28.5
618.648	28.5
619.842	24
621.038	31.5
622.234	28.5
623.429	32
624.624	27.5
625.819	26.5
627.013	27.5
628.207	27.5
629.402	28
630.596	27.5
631.79	26.5
632.983	27
634.177	26
635.37	28.5
636.564	28
637.755	29.5
638.948	31
640.141	27
641.334	28.5
642.525	30
643.717	27
644.909	23.5
646.099	25
647.291	29
648.483	30
649.674	26.5
650.864	28
652.055	32.5
653.244	27
654.435	25
655.625	27.5
656.814	26.5
658.004	28
659.193	28
660.382	26
661.571	29
662.759	30
663.948	25
665.135	29
666.324	30
667.511	26.5
668.7	28.5
669.886	28.5
671.074	30.5
672.262	26
673.448	29
674.634	31
675.821	30.5
677.007	31
678.194	29.5
679.379	34.5
680.565	33.5
681.75	29
682.936	31.5
684.121	32.5
685.305	39.5
686.491	31.5
687.675	30
688.86	35
690.043	31.5
691.227	35.5
692.411	31.5
693.594	35
694.777	33.5
695.961	33
697.144	34
698.326	33
699.509	33.5
700.691	34
701.873	35
703.056	35
704.237	44.5
705.419	44.5
706.599	45.5
707.782	44.5
708.962	42.5
710.143	45
711.323	39.5
712.504	37.5
713.684	38
714.864	32
716.043	31.5
717.223	30
718.403	36
719.582	36
720.761	32
721.94	31
723.118	28
724.296	29
725.474	31.5
726.652	30
727.831	30
729.009	26
730.186	27.5
731.363	30
732.54	27
733.717	28
734.893	28.5
736.07	32
737.246	26.5
738.422	27
739.598	24
740.773	28.5
741.949	28.5
743.124	27
744.299	24
745.474	25.5
746.649	27.5
747.823	30
748.997	26
750.172	29.5
751.346	26.5
752.519	26
753.693	26
754.867	29
756.038	25
757.211	28.5
758.384	27.5
759.557	26
760.73	26
761.902	26
763.074	26.5
764.246	30
765.417	27.5
766.588	27
767.76	25.5
768.931	25
770.102	28.5
771.271	29
772.442	27
773.613	28
774.783	27.5
775.952	21.5
777.122	27
778.291	25
779.461	29
780.629	27
781.798	28
782.967	27.5
784.135	35
785.304	29
786.472	31.5
787.639	34.5
788.807	31
789.975	30.5
791.142	24.5
792.309	34
793.477	29
794.642	29
795.81	31
796.975	32.5
798.142	28
799.308	25.5
800.473	24
801.639	30.5
802.804	28
803.97	29
805.134	27
806.299	27.5
807.463	27
808.628	32.5
809.792	26
810.957	27.5
812.12	28
813.284	28.5
814.447	27
815.611	26
816.773	26.5
817.937	28
819.099	29
820.261	27
821.424	23
822.585	29.5
823.748	22.5
824.909	33.5
826.07	25.5
827.232	26
828.393	26.5
829.554	28
830.715	27.5
831.875	30
833.035	25.5
834.196	27
835.356	25
836.515	23
837.676	29.5
838.835	25.5
839.994	23
841.152	32
842.312	30
843.47	22
844.629	28
845.786	24.5
846.946	25.5
848.103	28
849.261	27.5
850.418	26.5
851.575	27.5
852.733	26.5
853.89	25
855.046	23
856.203	27.5
857.359	30
858.515	28.5
859.67	26
860.827	30.5
861.983	29
863.138	31.5
864.293	27.5
865.448	30.5
866.603	29
867.757	29
868.912	30
870.066	29
871.22	26
872.374	25.5
873.527	29
874.681	27.5
875.834	27.5
876.987	26.5
878.14	29.5
879.293	26.5
880.445	29
881.598	32
882.75	27
883.902	23.5
885.054	24
886.206	25.5
887.357	28
888.507	26.5
889.658	27
890.809	26
891.96	25
893.111	30
894.261	27.5
895.411	27
896.561	27
897.71	28.5
898.86	26.5
900.009	27
901.159	25
902.308	24.5
903.455	28
904.604	27
905.753	28.5
906.901	23.5
908.048	27
909.197	30
910.344	26
911.492	24
912.639	24
913.786	27
914.933	28.5
916.079	28
917.226	26
918.373	23
919.518	28
920.664	25
921.81	25
922.955	26
924.101	26
925.245	25
926.391	27
927.536	24.5
928.68	24.5
929.825	28
930.968	25
932.113	24.5
933.256	26.5
934.4	27.5
935.543	23
936.687	26
937.83	24.5
938.973	21.5
940.115	27
941.258	23.5
942.399	26
943.542	26.5
944.684	27
945.826	26.5
946.967	22
948.109	24.5
949.25	25
950.392	25.5
951.532	25
952.672	27.5
953.813	27
954.953	23
956.093	28.5
957.233	25.5
958.373	22.5
959.512	25
960.652	25.5
961.791	24
962.929	30
964.069	23
965.207	25
966.345	25.5
967.484	25.5
968.622	22
969.759	23.5
970.896	25.75
972.035	23
973.172	26
974.309	25
975.445	27.5
976.582	29.5
977.719	27
978.855	28
979.991	24
981.127	25
982.263	27
983.398	26
984.535	27
985.67	23.5
986.804	22.5
987.939	26.5
989.074	25.5
990.208	26
991.342	23
992.476	26
993.61	23
994.744	23.5
995.877	28
997.01	29.5
998.143	23
999.276	25
1000.41	29
1001.54	23
1002.67	26
1003.81	26.5
1004.94	27
1006.07	29
1007.2	27
1008.33	29.5
1009.47	25
1010.6	22
1011.73	29.5
1012.86	26.5
1013.99	24
1015.12	23
1016.25	27.5
1017.38	27.5
1018.51	23
1019.64	23.5
1020.77	27
1021.9	27.5
1023.03	26
1024.15	26
1025.28	28
1026.41	27
1027.54	25
1028.67	21.5
1029.8	25.5
1030.92	21
1032.05	25.5
1033.18	27
1034.31	26.5
1035.43	26.5
1036.56	22
1037.69	28.5
1038.81	22
1039.94	22.5
1041.07	29.5
1042.19	23.5
1043.32	28.5
1044.44	25
1045.57	25
1046.69	25.5
1047.82	27
1048.94	26.5
1050.07	25
1051.19	26.5
1052.32	23.5
1053.44	31.5
1054.57	20
1055.69	27
1056.81	24.5
1057.94	23
1059.06	26
1060.18	25
1061.31	26.5
1062.43	26
1063.55	24.5
1064.67	23
1065.8	24
1066.92	27.5
1068.04	25.5
1069.16	23
1070.28	20.5
1071.4	24
1072.52	22
1073.64	26.5
1074.76	25
1075.89	25.5
1077.01	27
1078.13	28.5
1079.25	23.5
1080.37	26
1081.49	24.5
1082.6	22
1083.72	25.5
1084.84	25
1085.96	26
1087.08	26
1088.2	29
1089.32	29
1090.43	27.5
1091.55	27
1092.67	25.5
1093.79	24.5
1094.91	28
1096.02	25
1097.14	24
1098.26	23.5
1099.37	24
1100.49	27.5
1101.61	28
1102.72	22.5
1103.84	25
1104.95	29.5
1106.07	21.5
1107.18	25
1108.3	24
1109.41	20
1110.53	27
1111.64	22.5
1112.76	25.5
1113.87	24.5
1114.99	27
1116.1	28
1117.21	26.5
1118.33	23
1119.44	27
1120.55	25.5
1121.67	23
1122.78	24.5
1123.89	21.5
1125	24
1126.12	27
1127.23	24
1128.34	26
1129.45	24
1130.56	23.5
1131.68	26.5
1132.79	25.5
1133.9	24.5
1135.01	24
1136.12	24
1137.23	25.5
1138.34	21
1139.45	23.5
1140.56	26.5
1141.67	20.5
1142.78	25
1143.89	25
1145	22.5
1146.11	24.5
1147.22	26
1148.32	24
1149.43	25.5
1150.54	27
1151.65	22.5
1152.76	26
1153.86	26.5
1154.97	22
1156.08	26
1157.19	25
1158.29	24.5
1159.4	30
1160.51	23
1161.61	22.5
1162.72	22.5
1163.83	26
1164.93	26.5
1166.04	27.5
1167.14	26
1168.25	28.5
1169.35	23
1170.46	24.5
1171.56	22.5
1172.67	24.5
1173.77	24
1174.88	27
1175.98	24
1177.08	27
1178.19	24
1179.29	24.5
1180.4	24
1181.5	26.5
1182.6	23
1183.71	26
1184.81	29
1185.91	26.5
1187.01	24
1188.12	23
1189.22	26
1190.32	21
1191.42	22
1192.52	21.5
1193.62	22
1194.72	22.9986
1195.83	18.585
1196.93	26.5119
1198.03	25.9423
1199.13	19.6172
1200.23	24.9848
1201.33	20.6601
1202.43	26.5893
1203.53	21.6383
1204.63	24.0473
1205.73	23.3739
1206.83	26.7767
1207.92	21.9248
1209.02	24.9801
1210.12	24.0621
1211.22	26.5323
1212.32	23.6851
1213.42	22.8698
1214.51	25.1158
1215.61	23.7144
1216.71	28.0659
1217.81	25.7465
1218.9	27.2233
1220	25.4746
1221.1	23.7974
1222.19	24.8412
1223.29	25.6341
1224.39	25.8641
1225.48	23.6951
1226.58	25.6624
1227.68	23.4651
1228.77	25.8168
1229.87	26.4246
1230.96	24.1045
1232.06	23.6824
1233.15	26.6457
1234.25	25.7778
1235.34	23.1758
1236.43	25.1393
1237.53	22.733
1238.62	24.2438
1239.72	25.6655
1240.81	22.3896
1241.9	28.0603
1243	23.3565
1244.09	25.7776
1245.18	25.3255
1246.27	22.6972
1247.37	22.5738
1248.46	25.719
1249.55	25.2291
1250.64	26.7194
1251.74	23.581
1252.83	24.4251
1253.92	25.6407
1255.01	25.2694
1256.1	28.9271
1257.19	24.8885
1258.28	26.3095
1259.38	25.2347
1260.46	25.704
1261.56	27.4341
1262.65	26.9485
1263.74	27.7803
1264.82	26.7606
1265.91	29.8235
1267	26.1259
1268.09	23.8329
1269.18	22.4869
1270.27	24.9218
1271.36	26.201
1272.45	25.4775
1273.54	25.7129
1274.63	26.7069
1275.71	23.9677
1276.8	23.0544
1277.89	26.8018
1278.98	24.4801
1280.06	23.5243
1281.15	23.7505
1282.24	24.4954
1283.32	24.4419
1284.41	22.0334
1285.5	21.8669
1286.58	23.4419
1287.67	24.7548
1288.76	24.5194
1289.84	24.2871
1290.93	25.388
1292.01	25.1597
1293.1	27.33
1294.18	26.6145
1295.27	22.5787
1296.35	21.7458
1297.44	24.4478
1298.52	23.7918
1299.6	24.5277
1300.69	24.4035
1301.77	21.9686
1302.86	22.6024
1303.94	24.7748
1305.02	22.9692
1306.11	23.4293
1306.41	24
1307.5	25.5
1308.59	25
1309.68	24
1310.77	24
1311.85	25.5
1312.94	22.5
1314.03	22
1315.11	25
1316.2	23
1317.29	25
1318.37	23
1319.46	27
1320.55	16
1321.63	25
1322.72	22.5
1323.8	25.5
1324.89	25.5
1325.98	23.5
1327.06	26
1328.15	27
1329.23	24
1330.31	25.5
1331.4	22.5
1332.48	25
1333.57	24.5
1334.65	24.5
1335.74	25
1336.82	22
1337.9	26
1338.99	29.5
1340.07	22
1341.15	23
1342.24	29
1343.32	26.5
1344.4	24
1345.48	26.5
1346.56	23
1347.65	24.5
1348.73	27.5
1349.81	24
1350.89	25
1351.97	23
1353.05	22
1354.13	25
1355.21	23
1356.29	22
1357.37	24
1358.46	20
1359.54	24
1360.62	25
1361.69	26
1362.77	20.5
1363.85	25
1364.93	23.5
1366.01	24
1367.09	26
1368.17	27
1369.25	24
1370.33	26
1371.41	24.5
1372.48	26
1373.56	24
1374.64	21
1375.72	24
1376.79	26.5
1377.87	27.5
1378.95	25.5
1380.02	23.5
1381.1	26.5
1382.18	24.5
1383.25	24.5
1384.33	23
1385.4	29
1386.48	25
1387.56	24
1388.63	28.5
1389.71	27
1390.78	27
1391.86	29
1392.93	29.5
1394.01	26
1395.08	29.5
1396.15	27
1397.23	28.5
1398.3	22
1399.38	33.5
1400.45	30
1401.52	28.5
1402.6	25.5
1403.67	30.5
1404.74	29
1405.81	28.5
1406.89	28
1407.96	27.5
1409.03	25.5
1410.1	31
1411.17	34
1412.25	28.5
1413.32	31
1414.39	37
1415.46	29
1416.53	29
1417.6	28
1418.67	27
1419.74	30.5
1420.81	27.5
1421.88	27.5
1422.95	27.5
1424.02	29
1425.09	29.5
1426.16	29
1427.23	27
1428.3	26
1429.37	27.5
1430.44	26.5
1431.51	24
1432.58	22
1433.64	25.5
1434.71	26
1435.78	27.5
1436.85	26.5
1437.92	21.5
1438.98	26
1440.05	22
1441.12	26.5
1442.18	27
1443.25	28.5
1444.32	25
1445.38	27.5
1446.45	23.5
1447.52	28
1448.58	26.5
1449.65	26.5
1450.71	27
1451.78	26
1452.84	24.5
1453.91	26.5
1454.97	26.5
1456.04	27
1457.1	25.5
1458.17	23.5
1459.23	28
1460.3	24.5
1461.36	28
1462.42	26.5
1463.49	22
1464.55	25
1465.61	24
1466.68	23
1467.74	25.5
1468.8	23.5
1469.86	27
1470.93	27
1471.99	24
1473.05	22.5
1474.11	26.5
1475.17	26.5
1476.24	22.5
1477.3	28
1478.36	25.5
1479.42	23
1480.48	27
1481.54	26
1482.6	27
1483.66	28
1484.72	26
1485.78	27.5
1486.84	20
1487.9	27
1488.96	27.5
1490.02	23
1491.08	26.5
1492.14	22
1493.2	26
1494.26	27.5
1495.31	24
1496.37	27.5
1497.43	24
1498.49	24.5
1499.55	21.5
1500.6	24.5
1501.66	28.5
1502.72	26
1503.78	22.5
1504.83	25.5
1505.89	23
1506.95	27
1508	26
1509.06	25.5
1510.12	26
1511.17	27
1512.23	26.5
1513.28	22
1514.34	26
1515.39	28.5
1516.45	21.5
1517.5	26
1518.56	24
1519.61	25.5
1520.67	26.5
1521.72	26
1522.78	26.5
1523.83	24
1524.88	22.5
1525.94	25.5
1526.99	28
1528.05	25.5
1529.1	27.5
1530.15	25
1531.2	28.5
1532.26	25
1533.31	26.5
1534.36	28
1535.41	24
1536.47	27.5
1537.52	27.5
1538.57	22
1539.62	24.5
1540.67	25.5
1541.72	29
1542.77	23
1543.83	21
1544.88	26.5
1545.93	25.5
1546.98	26.5
1548.03	27.5
1549.08	27
1550.13	25.5
1551.18	29
1552.23	22
1553.28	24.5
1554.32	24
1555.37	24
1556.42	23.5
1557.47	25
1558.52	29.5
1559.57	21
1560.62	27
1561.67	27
1562.71	27
1563.76	23
1564.81	29.5
1565.86	25
1566.9	28
1567.95	24.5
1569	25.5
1570.04	25
1571.09	26.5
1572.14	25
1573.18	27
1574.23	21.5
1575.27	21.5
1576.32	30
1577.37	25
1578.41	26
1579.46	22
1580.5	28.5
1581.55	25
1582.59	25.5
1583.64	27.5
1584.68	23
1585.72	22.5
1586.77	26
1587.81	28.5
1588.86	25.5
1589.9	24.5
1590.94	26
1591.99	31
1593.03	19.5
1594.07	23.5
1595.12	24
1596.16	27.5
1597.2	24.5
1598.24	25
1599.29	26.5
1600.33	22
1601.37	26.5
1602.41	28.5
1603.45	25.5
1604.49	28
1605.53	27.5
1606.58	29.5
1607.62	23
1608.66	29
1609.7	27
1610.74	28.5
1611.78	24
1612.82	29
1613.86	27
1614.9	28.5
1615.94	28.5
1616.98	23
1618.02	27
1619.06	31
1620.09	22
1621.13	25
1622.17	25.5
1623.21	25
1624.25	24
1625.29	23.5
1626.32	21
1627.36	27
1628.4	26.5
1629.44	27.5
1630.47	29
1631.51	26
1632.55	27
1633.58	26.5
1634.62	26
1635.66	24.5
1636.69	24.5
1637.73	28
1638.77	26
1639.8	24
1640.84	27
1641.87	26
1642.91	29
1643.94	29.5
1644.98	25.5
1646.01	26
1647.05	22
1648.08	27
1649.12	24.5
1650.15	24.5
1651.18	27
1652.22	29
1653.25	27
1654.29	27.5
1655.32	24.5
1656.35	26
1657.39	27
1658.42	26
1659.45	28.5
1660.48	25
1661.52	23
1662.55	24
1663.58	25
1664.61	27.5
1665.64	23.5
1666.68	29.5
1667.71	25.5
1668.74	27.5
1669.77	23.5
1670.8	24.5
1671.83	27
1672.86	24
1673.89	25.5
1674.92	26.5
1675.95	28
1676.98	25.5
1678.01	24
1679.04	28
1680.07	23.5
1681.1	27
1682.13	22.5
1683.16	31
1684.19	26
1685.22	24
1686.25	26.5
1687.27	27.5
1688.3	24
1689.33	25
1690.36	25.5
1691.38	27.5
1692.41	24.5
1693.44	28
1694.47	28
1695.49	29
1696.52	24
1697.55	26.5
1698.57	28.5
1699.6	26
1700.63	25
1701.65	23
1702.68	23
1703.7	21
1704.73	29
1705.76	21
1706.78	27.5
1707.81	26.5
1708.83	25
1709.86	26.5
1710.88	28
1711.91	22.5
1712.93	25
1713.95	26.5
1714.98	28
1716	24.5
1717.03	27
1718.05	23.5
1719.07	25.5
1720.1	23
1721.12	29
1722.14	27
1723.16	23
1724.19	27
1725.21	28
1726.23	23.5
1727.25	30
1728.28	27.5
1729.3	26
1730.32	27
1731.34	28
1732.36	27.5
1733.38	26.5
1734.41	25
1735.43	24
1736.45	26.5
1737.47	25.5
1738.49	25
1739.51	26
1740.53	26
1741.55	29
1742.57	20
1743.59	23
1744.61	25
1745.63	28.5
1746.64	25.5
1747.66	21
1748.68	28
1749.7	28.5
1750.72	26
1751.74	22.5
1752.76	26.5
1753.77	26.5
1754.79	26
1755.81	24.5
1756.83	27
1757.84	23.5
1758.86	25.5
1759.88	26.5
1760.9	25.5
1761.91	25
1762.93	27
1763.95	21
1764.96	26
1765.98	23.5
1766.99	23.5
1768.01	28
1769.02	26
1770.04	28
1771.06	24.5
1772.07	25.5
1773.09	22.5
1774.1	26
1775.12	26.5
1776.13	31
1777.14	22
1778.16	25
1779.17	28
1780.19	27
1781.2	25
1782.21	23.5
1783.23	24
1784.24	23
1785.25	25
1786.27	28
1787.28	23
1788.29	27
1789.3	20
1790.32	26
1791.33	27
1792.34	26.5
1793.35	28
1794.36	25
1795.38	25.5
1796.39	22
1797.4	26
1798.41	26
1799.42	24.5
1800.43	25.5
1801.44	25
1802.45	24
1803.46	26.5
1804.47	24
1805.48	24
1806.49	26.5
1807.5	27
1808.51	23
1809.52	26
1810.53	29
1811.54	31
1812.55	25.5
1813.56	27.5
1814.57	26.5
1815.57	24.5
1816.58	26
1817.59	24
1818.6	25
1819.61	25
1820.61	25.5
1821.62	28.5
1822.63	24
1823.64	25.5
1824.64	21.5
1825.65	26
1826.66	25.5
1827.66	19
1828.67	24
1829.68	27
1830.68	23
1831.69	27.5
1832.69	28.5
1833.7	27
1834.7	24.5
1835.71	24
1836.71	24
1837.72	25
1838.72	24.5
1839.73	20
1840.73	25.5
1841.74	28.5
1842.74	27
1843.75	25.5
1844.75	29
1845.75	25
1846.76	25
1847.76	23
1848.76	25.5
1849.77	27.5
1850.77	25
1851.77	22.5
1852.78	27.5
1853.78	25
1854.78	28.5
1855.78	28.5
1856.78	25.5
1857.79	23
1858.79	25
1859.79	21.5
1860.79	27.5
1861.79	24
1862.79	24
1863.79	28
1864.79	23
1865.79	25.5
1866.8	24
1867.8	23.5
1868.8	27.5
1869.8	27.5
1870.8	25.5
1871.8	25.5
1872.8	23.5
1873.79	25
1874.79	25
1875.79	25.5
1876.79	24
1877.79	26
1878.79	25
1879.79	25.5
1880.79	27
1881.78	29
1882.78	27
1883.78	22
1884.78	22.5
1885.77	26.5
1886.77	22
1887.77	23.5
1888.77	23
1889.76	24
1890.76	26.5
1891.76	21.5
1892.75	22
1893.75	24
1894.75	26
1895.74	23.5
1896.74	27.5
1897.73	21.5
1898.73	25
1899.73	28.5
1900.72	24.5
1901.72	27
1902.71	21.5
1903.7	24.5
1904.7	24.5
1905.69	26
1906.69	24
1907.68	25
1908.68	24
1909.67	26
1910.66	25
1911.66	28.5
1912.65	25
1913.64	24
1914.64	26
1915.63	24.5
1916.62	30
1917.62	25.5
1918.61	23.5
1919.6	24.5
1920.59	23
1921.58	26.5
1922.58	23
1923.57	23
1924.56	29
1925.55	26.5
1926.54	26.5
1927.53	29.5
1928.52	28.5
1929.51	22.5
1930.51	23
1931.5	25.5
1932.49	24
1933.48	26
1934.47	22
1935.46	25.5
1936.45	22
1937.44	27
1938.42	24
1939.41	26
1940.4	22
1941.39	27.5
1942.38	28.5
1943.37	22.5
1944.36	25
1945.35	29.5
1946.33	23
1947.32	24
1948.31	25.75
1949.3	26
1950.29	24
1951.27	28.5
1952.26	25.5
1953.25	25.5
1954.23	23.5
1955.22	23.5
1956.21	26
1957.19	26.5
1958.18	29.5
1959.17	23.5
1960.15	22
1961.14	27.5
1962.13	19
1963.11	26.5
1964.1	25.5
1965.08	23
1966.07	26
1967.05	23.5
1968.04	23
1969.02	28
1970.01	24.5
1970.99	28
1971.97	25
1972.96	23
1973.94	22
1974.93	25.5
1975.91	26.5
1976.89	23
1977.88	28
1978.86	27
1979.84	25.5
1980.83	26
1981.81	25.5
1982.79	24
1983.77	25.5
1984.76	29
1985.74	24
1986.72	25.5
1987.7	20
1988.68	26.5
1989.67	24.5
1990.65	28
1991.63	26
1992.61	26.5
1993.59	28
1994.57	23
1995.55	25
1996.53	25
1997.51	24
1998.49	25.5
1999.47	22.5
2000.45	24.5
2001.43	24.5
2002.41	23
2003.39	25.5
2004.37	21
2005.35	24.5
2006.33	27
2007.31	24
2008.29	24.5
2009.26	23
2010.24	28
2011.22	23.5
2012.2	25
2013.18	24.5
2014.15	26
2015.13	25.5
2016.11	21
2017.09	23
2018.06	26
2019.04	23
2020.02	27.5
2021	25.5
2021.97	23
2022.95	27
2023.92	23.5
2024.9	20
2025.88	20
2026.85	20.5
2027.83	25.5
2028.8	23.5
2029.78	27
2030.75	25.5
2031.73	25
2032.7	24
2033.68	25
2034.65	26
2035.63	25.5
2036.6	23
2037.58	27.5
2038.55	25.5
2039.52	20.5
2040.5	20.5
2041.47	19.5
2042.45	20
2043.42	22
2044.39	23
2045.36	22.5
2046.34	23
2047.31	21.5
2048.28	20
2049.26	27
2050.23	23
2051.2	28.5
2052.17	29.5
2053.14	21
2054.12	22
2055.09	22.5
2056.06	26
2057.03	24.5
2058	26
2058.97	23.5
2059.94	26.5
2060.91	22.5
2061.88	26
2062.85	22.5
2063.82	25
2064.79	24
2065.76	23
2066.73	24
2067.7	24.5
2068.67	26
2069.64	20
2070.61	21
2071.58	24
2072.55	28
2073.52	23.5
2074.49	25.5
2075.45	24.5
2076.42	20
2077.39	24
2078.36	26.5
2079.33	24.5
2080.29	23
2081.26	26
2082.23	24
2083.2	22.5
2084.16	25
2085.13	22.5
2086.1	23
2087.06	26.5
2088.03	23
2089	21
2089.96	26
2090.93	20.5
2091.89	25
2092.86	24
2093.83	22.5
2094.79	24.5
2095.76	24
2096.72	23.5
2097.69	21.5
2098.65	22
2099.62	22
2100.58	27.5
2101.55	24
2102.51	21.5
2103.47	26.5
2104.44	22.5
2105.4	22
2106.36	25
2107.33	25
2108.29	26
2109.25	20.5
2110.22	25
2111.18	25.5
2112.14	22.5
2113.11	22.5
2114.07	28.5
2115.03	22
2115.99	20.5
2116.96	25
2117.92	21.5
2118.88	22.5
2119.84	29
2120.8	24.5
2121.76	26
2122.72	25.5
2123.68	24
2124.65	24
2125.61	26
2126.57	27
2127.53	22.5
2128.49	26
2129.45	20
2130.41	22
2131.37	22.5
2132.33	23
2133.29	23.5
2134.25	24.5
2135.21	23
2136.17	28
2137.12	21.5
2138.08	23
2139.04	22.5
2140	23.5
2140.96	26
2141.92	22.5
2142.88	26.4861
2143.83	20.0583
2144.79	24.0067
2145.75	25.4738
2146.71	21.6325
2147.66	23.0976
2148.62	24.8034
2149.58	25.3636
2150.53	24.073
2151.49	20.2545
2152.45	25.1432
2153.4	23.3325
2154.36	20.3529
2155.32	24.1606
2156.27	24.6785
2157.23	24.7901
2158.19	21.3486
2159.14	21.2451
2160.1	22.2088
2161.05	23.2118
2162.01	23.7384
2162.96	26.665
2163.92	25.32
2164.87	21.2744
2165.83	24.1038
2166.78	23.2077
2167.73	24.2916
2168.69	22.2261
2169.64	22.3582
2170.6	26.2638
2171.55	26.1716
2172.5	24.6665
2173.46	23.1059
2174.41	21.5991
2175.36	21.6507
2176.32	23.5399
2177.27	22.9756
2178.22	22.6086
2179.18	22.1566
2180.13	22.4985
2181.08	24.1963
2182.03	24.0797
2182.98	25.3616
2183.94	22.762
2184.89	23.1359
2185.84	23.3956
2186.79	23.6702
2187.74	21.3835
2188.69	24.5461
2189.64	19.9799
2190.6	25.1171
2191.55	23.4187
2192.5	21.4995
2193.45	21.8114
2194.4	24.7918
2195.35	22.2051
2196.3	25.2238
2197.25	23.2811
2198.2	23.3032
2199.15	22.9925
2200.1	23.577
2201.04	24.09
2201.99	23.3199
2202.94	24.5654
2203.89	21.6318
2204.84	24.0977
2205.79	23.5042
2206.74	22.794
2207.69	25.7984
2208.63	24.1105
2209.58	19.2723
2210.53	24.9484
2211.48	21.2791
2212.43	23.2848
2213.37	23.6825
2214.32	19.2082
2215.27	24.2226
2216.21	22.1634
2217.16	20.8066
2218.11	24.5524
2219.05	22.47
2220	23.2133
2220.95	23.4564
2221.89	22.3281
2222.84	21.9417
2223.78	24.889
2224.73	23.0141
2225.68	19.2888
2226.62	23.1583
2227.57	24.0655
2228.51	24.1214
2229.46	23.2146
2230.4	21.6254
2231.35	22.5719
2232.29	24.7725
2233.24	20.2273
2234.18	21.0219
2235.12	24.1725
2236.07	26.0381
2237.01	24.1352
2237.95	26.4768
2238.9	23.2507
2239.84	24.2864
2240.06	25
2241.01	23
2241.96	22.5
2242.91	23
2243.86	23
2244.8	21
2245.75	27
2246.7	21.5
2247.65	22
2248.59	20.5
2249.54	23.5
2250.49	21
2251.43	21.5
2252.38	21
2253.33	25.5
2254.27	23
2255.22	22.5
2256.16	24
2257.11	25
2258.06	25
2259	22.5
2259.95	20.5
2260.89	19
2261.84	24.5
2262.78	25.5
2263.73	21
2264.67	22
2265.62	25
2266.56	24
2267.5	24
2268.45	25
2269.39	23
2270.34	25.5
2271.28	24
2272.22	22.5
2273.17	24.5
2274.11	26
2275.05	23.5
2276	22.5
2276.94	22.5
2277.88	24
2278.82	23
2279.77	21.5
2280.71	24
2281.65	23
2282.59	22.5
2283.53	19
2284.48	21.5
2285.42	23.5
2286.36	24
2287.3	21
2288.24	23
2289.18	15
2290.12	25.5
2291.06	22
2292	22.5
2292.94	20
2293.89	23
2294.83	25
2295.77	23.5
2296.71	23
2297.65	22
2298.58	27
2299.52	23
2300.46	27
2301.4	22
2302.34	26.5
2303.28	22.5
2304.22	26.5
2305.16	26
2306.1	23
2307.03	22
2307.97	21.5
2308.91	23.5
2309.85	21.5
2310.79	24
2311.72	22
2312.66	23
2313.6	22
2314.54	25
2315.47	25
2316.41	24.5
2317.35	20
2318.28	25
2319.22	26
2320.16	24.5
2321.09	24.5
2322.03	23.5
2322.96	24.5
2323.9	19
2324.84	26
2325.77	24
2326.71	28
2327.64	24.5
2328.58	24
2329.51	25
2330.45	23.5
2331.38	20.5
2332.32	27
2333.25	24
2334.18	27
2335.12	23.5
2336.05	21.5
2336.99	21
2337.92	26.5
2338.85	23.5
2339.79	22
2340.72	26
2341.65	26
2342.59	27
2343.52	21.5
2344.45	24
2345.39	24.5
2346.32	25
2347.25	24.5
2348.18	27
2349.11	20.5
2350.05	24.5
2350.98	25
2351.91	25.5
2352.84	25
2353.77	25
2354.7	23
2355.64	24.5
2356.57	23.5
2357.5	25
2358.43	23
2359.36	22
2360.29	24.5
2361.22	24.5
2362.15	25
2363.08	26
2364.01	27
2364.94	25
2365.87	25.5
2366.8	24.5
2367.73	21.5
2368.66	22
2369.58	30
2370.51	23
2371.44	26
2372.37	25
2373.3	24.5
2374.23	25
2375.16	24.5
2376.08	20
2377.01	26.5
2377.94	23
2378.87	22.5
2379.8	23
2380.72	25
2381.65	23
2382.58	23
2383.5	25
2384.43	26
2385.36	25.5
2386.28	19.5
2387.21	25.5
2388.14	23
2389.06	26
2389.99	24.5
2390.91	23.5
2391.84	27
2392.77	21.5
2393.69	22.5
2394.62	24.5
2395.54	24
2396.47	20
2397.39	23
2398.32	23
2399.24	23
2400.16	22
2401.09	23
2402.01	23
2402.94	23.5
2403.86	23
2404.78	23
2405.71	26.5
2406.63	24
2407.56	23.5
2408.48	25
2409.4	26
2410.32	27
2411.25	21.5
2412.17	27
2413.09	26
2414.02	24.5
2414.94	26
2415.86	24
2416.78	28.5
2417.7	25.5
2418.63	23
2419.55	26
2420.47	26
2421.39	26
2422.31	26.5
2423.23	24.5
2424.15	23.5
2425.07	25.5
2425.99	22
2426.92	22.5
2427.84	26
2428.76	27.5
2429.68	26
2430.59	23
2431.51	23.5
2432.43	27
2433.35	24
2434.27	24
2435.19	23.5
2436.11	28.5
2437.03	24.5
2437.95	25
2438.87	24
2439.79	22
2440.71	25.5
2441.62	25.5
2442.54	26.5
2443.46	22.5
2444.38	24.5
2445.3	23.5
2446.21	25.5
2447.13	24.5
2448.05	24.5
2448.97	25.5
2449.88	22.5
2450.8	22.5
2451.72	26
2452.63	25
2453.55	28
2454.47	24
2455.38	22
2456.3	19
2457.21	25
2458.13	23
2459.05	27.5
2459.96	25
2460.88	24
2461.79	24
2462.71	25.5
2463.62	25
2464.54	22.5
2465.45	25.5
2466.37	25
2467.28	24
2468.2	27
2469.11	25
2470.02	24
2470.94	25.5
2471.85	21.5
2472.77	22
2473.68	23.5
2474.59	25.5
2475.51	22
2476.42	26.5
2477.33	22
2478.25	22.5
2479.16	22
2480.07	25.5
2480.98	24
2481.9	24
2482.81	25.5
2483.72	22
2484.63	28
2485.55	27.5
2486.46	25
2487.37	25.5
2488.28	26.5
2489.19	28
2490.1	25
2491.01	25
2491.92	21
2492.83	26.5
2493.74	23.5
2494.66	21.5
2495.57	24
2496.48	24.5
2497.39	22.5
2498.3	26
2499.21	20.5
2500.12	29
2501.03	25.5
2501.93	29
2502.84	29
2503.75	28
2504.66	23.5
2505.57	23
2506.48	24.5
2507.39	23
2508.3	25
2509.21	21
2510.11	23.5
2511.02	24
2511.93	31
2512.84	25
2513.75	22
2514.65	24.5
2515.56	23.5
2516.47	24.5
2517.37	27.5
2518.28	22
2519.19	23
2520.09	27
2521	23
2521.91	27.5
2522.81	29.5
2523.72	26.5
2524.63	24.5
2525.53	22
2526.44	26.5
2527.34	28
2528.25	25
2529.16	27
2530.06	29.5
2530.97	27.5
2531.87	22.5
2532.78	24.5
2533.68	24
2534.58	23
2535.49	28
2536.39	24.5
2537.3	24
2538.2	23
2539.11	28.5
2540.01	24
2540.91	25.5
2541.82	26
2542.72	23
2543.62	23
2544.53	27
2545.43	24
2546.33	22.5
2547.23	27
2548.14	23
2549.04	23.5
2549.94	22
2550.84	26.5
2551.75	25
2552.65	22.5
2553.55	27.5
2554.45	21.5
2555.35	24.5
2556.26	22
2557.16	24.5
2558.06	26
2558.96	24
2559.86	25
2560.76	26
2561.66	26
2562.56	24
2563.46	23.5
2564.36	24.5
2565.26	24
2566.16	22
2567.06	23
2567.96	23
2568.86	27
2569.76	26
2570.66	24
2571.56	24.5
2572.46	24
2573.36	22.5
2574.26	27.5
2575.16	27.5
2576.05	28.5
2576.95	27.5
2577.85	22
2578.75	25.5
2579.65	25
2580.54	28
2581.44	25
2582.34	26.5
2583.24	21.5
2584.13	26.5
2585.03	28
2585.93	18
2586.83	28.5
2587.72	26
2588.62	24.5
2589.52	24
2590.41	24.5
2591.31	24.5
2592.2	26
2593.1	24
2594	21.5
2594.89	24.5
2595.79	26
2596.68	27.5
2597.58	26.5
2598.47	24.5
2599.37	24.5
2600.26	24.5
2601.16	24.5
2602.05	22.5
2602.95	24
2603.84	26.5
2604.74	27.5
2605.63	21
2606.52	23.5
2607.42	25.5
2608.31	25.5
2609.21	28
2610.1	24.5
2610.99	28.5
2611.89	26.5
2612.78	25
2613.67	25
2614.56	27
2615.46	24
2616.35	29.5
2617.24	27
2618.13	24.5
2619.03	24
2619.92	23.5
2620.81	23.5
2621.7	24
2622.59	25.5
2623.49	23
2624.38	22
2625.27	29
2626.16	27
2627.05	23.5
2627.94	24
2628.83	26
2629.72	24.5
2630.61	25
2631.5	26.5
2632.39	23
2633.28	23.5
2634.17	20.5
2635.06	24.5
2635.95	23
2636.84	28.5
2637.73	25
2638.62	23.5
2639.51	20.5
2640.4	27.5
2641.29	26
2642.18	26
2643.07	20.5
2643.96	24.5
2644.84	22.5
2645.73	24
2646.62	24
2647.51	25
2648.4	24
2649.28	25.5
2650.17	22.5
2651.06	23.5
2651.95	24
2652.83	23.5
2653.72	24.5
2654.61	25.5
2655.49	23
2656.38	24.5
2657.27	26
2658.16	26
2659.04	24
2659.93	25
2660.81	27
2661.7	25
2662.59	25.5
2663.47	29
2664.36	26.5
2665.24	25.5
2666.13	25.5
2667.01	23
2667.9	20
2668.78	28
2669.67	27.5
2670.55	25
2671.44	26
2672.32	23
2673.21	24
2674.09	24
2674.97	25.5
2675.86	19.5
2676.74	24.5
2677.62	25
2678.51	24.5
2679.39	26.5
2680.27	23.5
2681.16	28.5
2682.04	25.5
2682.92	24
2683.81	25
2684.69	25
2685.57	25
2686.45	24
2687.34	22.5
2688.22	29.5
2689.1	27
2689.98	26.5
2690.86	21
2691.75	27.5
2692.63	23
2693.51	24
2694.39	26
2695.27	28
2696.15	26.5
2697.03	25
2697.91	23.5
2698.79	22
2699.67	27.5
2700.55	26.5
2701.43	23.5
2702.31	23
2703.19	24
2704.07	25
2704.95	24.5
2705.83	27
2706.71	28
2707.59	27
2708.47	24
2709.35	24
2710.23	27
2711.11	25
2711.99	26.5
2712.86	26
2713.74	21
2714.62	22.5
2715.5	25
2716.38	25.5
2717.26	26.5
2718.13	24
2719.01	28.5
2719.89	24.5
2720.77	23
2721.64	23.5
2722.52	28.5
2723.4	25.5
2724.27	28.5
2725.15	23.5
2726.03	25.5
2726.9	27.5
2727.78	28.5
2728.66	25
2729.53	28.5
2730.41	23.5
2731.28	22.5
2732.16	27
2733.03	28
2733.91	25
2734.79	21
2735.66	28
2736.54	24.5
2737.41	26
2738.29	26
2739.16	26
2740.03	20.5
2740.91	24.5
2741.78	24.5
2742.66	20
2743.53	25
2744.41	27.5
2745.28	22
2746.15	26
2747.03	26.5
2747.9	25.5
2748.77	24.5
2749.65	25
2750.52	24.5
2751.39	25
2752.27	25.5
2753.14	24
2754.01	23
2754.88	23.5
2755.75	26.5
2756.63	27.5
2757.5	26
2758.37	24.5
2759.24	23.5
2760.11	25
2760.99	26.5
2761.86	26.5
2762.73	22
2763.6	24.5
2764.47	26
2765.34	24
2766.21	24.5
2767.08	20
2767.95	28.5
2768.82	26.5
2769.69	26
2770.56	30
2771.43	24
2772.3	27.5
2773.17	25.5
2774.04	27
2774.91	25
2775.78	24
2776.65	26
2777.52	27
2778.39	22.5
2779.26	23
2780.13	23
2780.99	27
2781.86	23
2782.73	29
2783.6	26
2784.47	27.5
2785.34	26
2786.2	25.5
2787.07	24.5
2787.94	24
2788.81	24.5
2789.67	25.5
2790.54	24
2791.41	26.5
2792.27	25.5
2793.14	21.5
2794.01	26
2794.87	24.5
2795.74	22
2796.61	26
2797.47	26
2798.34	28.5
2799.21	26.5
2800.07	25
2800.94	28.5
2801.8	27.5
2802.67	27
2803.53	23
2804.4	22
2805.26	26.5
2806.13	25.5
2806.99	25
2807.86	25.5
2808.72	28
2809.59	31
2810.45	28
2811.32	28
2812.18	26.5
2813.04	26
2813.91	27
2814.77	26
2815.64	28
2816.5	27
2817.36	26.5
2818.22	26
2819.09	31.5
2819.95	28.5
2820.81	24.5
2821.68	27.5
2822.54	24.5
2823.4	28.5
2824.26	28
2825.13	29.5
2825.99	27
2826.85	27
2827.71	26.5
2828.57	28.5
2829.44	26
2830.3	25.5
2831.16	24.5
2832.02	27
2832.88	29.5
2833.74	24.5
2834.6	25
2835.46	27
2836.32	20.5
2837.18	30
2838.04	22
2838.9	24
2839.76	26.5
2840.62	29
2841.48	24.5
2842.34	20
2843.2	26.5
2844.06	24
2844.92	24
2845.78	25.5
2846.64	28
2847.5	26.5
2848.36	26
2849.22	29
2850.08	27
2850.93	26
2851.79	28.5
2852.65	24
2853.51	25.5
2854.37	28.5
2855.22	23.5
2856.08	25
2856.94	26
2857.8	22
2858.65	24.5
2859.51	25
2860.37	25.5
2861.23	23.5
2862.08	29.5
2862.94	25.5
2863.79	30.5
2864.65	27.5
2865.51	29.5
2866.36	23.5
2867.22	26.5
2868.08	30
2868.93	25
2869.79	32
2870.64	28
2871.5	29
2872.35	30
2873.21	29
2874.06	32
2874.92	30
2875.77	30
2876.63	29
2877.48	29.5
2878.34	32.5
2879.19	29.5
2880.05	29.5
2880.9	30.5
2881.76	31.5
2882.61	35.5
2883.46	35
2884.32	30
2885.17	31
2886.02	32
2886.88	35
2887.73	34
2888.58	38
2889.44	38
2890.29	38.5
2891.14	33
2891.99	35
2892.85	38
2893.7	40.5
2894.55	41.5
2895.4	48.5
2896.25	49.5
2897.11	51
2897.96	45
2898.81	49
2899.66	54
2900.51	57
2901.36	61.5
2902.21	60.5
2903.07	64
2903.92	59.5
2904.77	62
2905.62	67
2906.47	64
2907.32	63.5
2908.17	59.5
2909.02	64.5
2909.87	60
2910.72	55.5
2911.57	54
2912.42	53.5
2913.27	48.5
2914.12	43
2914.97	46.5
2915.81	40
2916.66	40
2917.51	38
2918.36	38
2919.21	37
2920.06	32.5
2920.91	32.5
2921.75	37.5
2922.6	33.5
2923.45	33.5
2924.3	32
2925.15	36
2925.99	27
2926.84	31
2927.69	30
2928.54	29
2929.38	31
2930.23	29.5
2931.08	33
2931.92	30.5
2932.77	26.5
2933.62	29
2934.46	25.5
2935.31	30.5
2936.16	27.5
2937	28
2937.85	29.5
2938.69	28
2939.54	29
2940.38	28
2941.23	29.5
2942.08	28
2942.92	27.5
2943.77	28.5
2944.61	25.5
2945.46	29
2946.3	30
2947.15	30
2947.99	27.5
2948.83	31.5
2949.68	28
2950.52	28
2951.37	31.5
2952.21	27
2953.05	32
2953.9	33
2954.74	32
2955.58	33
2956.43	36.5
2957.27	34.5
2958.11	29
2958.96	33.5
2959.8	35
2960.64	38.5
2961.48	38
2962.33	40
2963.17	40
2964.01	42
2964.85	41.5
2965.69	37.5
2966.54	39.5
2967.38	40
2968.22	39.5
2969.06	40.5
2969.9	39
2970.74	37.5
2971.58	37.9903
2972.43	38.8821
2973.27	33.0288
2974.11	36.8995
2974.95	31.1112
2975.79	31.5343
2976.63	32.8802
2977.47	29.186
2978.31	31.9866
2979.15	34.1289
2979.99	27.5869
2980.83	29.2027
2981.67	30.676
2982.51	31.4368
2983.35	28.9295
2984.19	29.2743
2985.03	24.5729
2985.86	30.1196
2986.7	26.4705
2987.54	29.3613
2988.38	24.6324
2989.22	27.5745
2990.06	28.9336
2990.9	23.9619
2991.73	24.4315
2992.57	22.9806
2993.41	24.3796
2994.25	25.932
2995.09	24.9886
2995.92	25.5226
2996.76	26.6838
2997.6	27.3162
2998.44	27.6583
2999.27	25.3689
3000.11	25.0348
3000.95	24.9371
3001.78	26.6391
3002.62	23.6703
3003.46	24.8947
3004.29	21.1056
3005.13	24.4759
3005.96	25.6077
3006.8	25.3248
3007.64	22.9695
3008.47	26.0355
3009.31	25.2601
3010.14	24.5957
3010.98	24.7116
3011.81	22.3558
3012.65	21.6371
3013.48	22.2537
3014.32	20.4917
3015.15	23.3603
3015.99	23.4147
3016.82	23.4527
3017.66	22.7533
3018.49	21.7043
3019.33	20.7665
3020.16	24.5764
3020.99	24.8697
3021.83	25.376
3022.66	23.7409
3023.5	22.697
3024.33	24.9012
3025.16	24
3026	23.81
3026.83	22.4482
3027.66	23.6144
3028.49	23.5191
3029.33	25.5046
3030.16	24.0602
3030.99	22.2654
3031.83	22.6856
3032.66	22.1596
3033.49	25.5787
3034.32	24.3736
3035.15	22.9379
3035.99	22.5214
3036.82	19.1926
3037.65	20.8081
3038.48	24.6807
3039.31	24.7606
3040.14	23.8134
3040.97	22.2891
3041.81	21.9596
3042.64	22.5377
3043.47	23.1316
3044.3	24.603
3045.13	24.8612
3045.96	25.0796
3046.79	24.2871
3047.62	23.0497
3048.45	22.1569
3049.28	22.2618
3050.11	22.469
3050.94	21.5358
3051.77	22.5241
3052.6	23.369
3053.43	21.9157
3054.26	23.1287
3055.08	24.9699
3055.91	24.6989
3056.74	25.3936
3057.26	26
3058.09	24
3058.92	19.5
3059.76	22
3060.59	24
3061.42	22.5
3062.25	22
3063.09	23.5
3063.92	17.5
3064.75	27
3065.58	24.5
3066.42	22.5
3067.25	23.5
3068.08	23
3068.91	24.5
3069.74	25.5
3070.57	24.5
3071.41	26.5
3072.24	22.5
3073.07	25
3073.9	22.5
3074.73	22
3075.56	24
3076.39	22
3077.22	19.5
3078.05	28
3078.88	24.5
3079.71	24
3080.54	28
3081.37	25.5
3082.2	30.5
3083.03	23
3083.86	23.5
3084.69	25.5
3085.52	22
3086.35	23
3087.18	21.5
3088.01	21.5
3088.84	23.5
3089.67	27
3090.5	22
3091.32	26.5
3092.15	22
3092.98	21.5
3093.81	26
3094.64	24.5
3095.47	23.5
3096.29	21.5
3097.12	28
3097.95	27.5
3098.78	23.5
3099.6	24
3100.43	20.5
3101.26	24
3102.09	22.5
3102.91	22
3103.74	24.5
3104.57	24
3105.39	23
3106.22	26.5
3107.05	23.5
3107.87	21.5
3108.7	21.5
3109.52	26
3110.35	22
3111.18	21
3112	22
3112.83	22
3113.65	24
3114.48	24
3115.3	25.5
3116.13	24.5
3116.95	22
3117.78	24
3118.6	23.5
3119.43	22
3120.25	23.5
3121.08	19
3121.9	23
3122.72	23.5
3123.55	22.5
3124.37	29
3125.2	25.5
3126.02	23.5
3126.84	22
3127.67	24
3128.49	30
3129.31	24.5
3130.14	25
3130.96	24.5
3131.78	22.5
3132.61	26
3133.43	25.5
3134.25	29.5
3135.07	21.5
3135.89	24
3136.72	26.5
3137.54	22
3138.36	19
3139.18	28.5
3140	28.5
3140.83	25
3141.65	25.5
3142.47	20.5
3143.29	23
3144.11	25
3144.93	21.5
3145.75	25.5
3146.57	25.5
3147.4	23.5
3148.22	24.5
3149.04	24
3149.86	24
3150.68	24.5
3151.5	26
3152.32	25
3153.14	22
3153.96	20
3154.78	23.5
3155.59	25
3156.42	25
3157.23	23
3158.05	24
3158.87	25.5
3159.69	25.5
3160.51	27.5
3161.33	21
3162.15	24
3162.97	24.5
3163.78	28
3164.6	20.5
3165.42	23.5
3166.24	21.5
3167.06	24
3167.87	23.5
3168.69	23.5
3169.51	27
3170.33	24
3171.14	25
3171.96	27.5
3172.78	20
3173.6	23
3174.41	20
3175.23	22
3176.05	20.5
3176.86	24.5
3177.68	23
3178.5	21
3179.31	22.5
3180.13	23.5
3180.94	23.5
3181.76	24.5
3182.58	25.5
3183.39	24.5
3184.21	26
3185.02	26.5
3185.84	24
3186.65	21.5
3187.47	22.5
3188.28	24.5
3189.1	21.5
3189.91	29
3190.73	27.5
3191.54	22
3192.36	24
3193.17	23
3193.98	23.5
3194.8	27
3195.61	22
3196.43	23
3197.24	23.5
3198.05	26
3198.87	23
3199.68	24.5
3200.49	24
3201.31	27.5
3202.12	25
3202.93	23.5
3203.75	23
3204.56	24
3205.37	25.5
3206.18	24
3207	24
3207.81	27
3208.62	26
3209.43	26
3210.24	25
3211.06	22.5
3211.87	25
3212.68	23.5
3213.49	23.5
3214.3	23
3215.11	24.5
3215.92	24
3216.73	22
3217.55	22.5
3218.36	25
3219.17	23
3219.98	23.5
3220.79	24
3221.6	23.5
3222.41	24.5
3223.22	23.5
3224.03	23
3224.84	24
3225.65	26
3226.46	25
3227.27	23
3228.08	20.5
3228.89	26
3229.7	25
3230.5	27.5
3231.31	25
3232.12	26.5
3232.93	24.5
3233.74	28.5
3234.55	23
3235.36	24
3236.16	20.5
3236.97	25
3237.78	24.5
3238.59	21.5
3239.4	25.5
3240.2	21
3241.01	22.5
3241.82	24.5
3242.63	22.5
3243.43	21
3244.24	21.5
3245.05	24
3245.85	22.5
3246.66	25.5
3247.47	23.5
3248.27	23.5
3249.08	27
3249.89	22.5
3250.69	24.5
3251.5	24
3252.31	25
3253.11	23
3253.92	24
3254.72	25.5
3255.53	24.5
3256.33	24
3257.14	25
3257.94	26.5
3258.75	23
3259.55	27
3260.36	24
3261.16	23
3261.97	26.5
3262.77	22.5
3263.58	19.5
3264.38	24
3265.19	26.5
3265.99	26.5
3266.79	22.5
3267.6	26
3268.4	23.5
3269.21	22.5
3270.01	24
3270.81	25
3271.62	23.5
3272.42	29.5
3273.22	26.5
3274.03	22
3274.83	24.5
3275.63	22.5
3276.43	23.5
3277.24	25
3278.04	29
3278.84	24
3279.64	24
3280.45	23
3281.25	25.5
3282.05	23
3282.85	21.5
3283.65	23
3284.45	18
3285.26	28.5
3286.06	25
3286.86	26.5
3287.66	27.5
3288.46	24
3289.26	21
3290.06	23.5
3290.86	25
3291.66	27
3292.46	19
3293.26	23
3294.06	22.5
3294.86	23
3295.66	23.5
3296.46	22
3297.26	21
3298.06	23.5
3298.86	26
3299.66	26.5
3300.46	24.5
3301.26	23.5
3302.06	22.5
3302.86	23
3303.66	26
3304.46	25
3305.25	23
3306.05	25
3306.85	26.5
3307.65	23
3308.45	25
3309.25	24
3310.04	27.5
3310.84	25.5
3311.64	26.5
3312.44	24.5
3313.23	25.5
3314.03	24.5
3314.83	25
3315.63	23
3316.42	25
3317.22	21.5
3318.02	24.5
3318.81	25
3319.61	26
3320.41	23
3321.2	24
3322	23
3322.8	25.5
3323.59	24.5
3324.39	25.5
3325.18	25
3325.98	26.5
3326.78	25
3327.57	20
3328.37	22.5
3329.16	24
3329.96	23.5
3330.75	27
3331.55	24
3332.34	23.5
3333.14	27
3333.93	25
3334.73	22.5
3335.52	30
3336.31	24
3337.11	26.5
3337.9	26
3338.7	22.5
3339.49	24.5
3340.28	23
3341.08	26.5
3341.87	23
3342.66	23
3343.46	22
3344.25	26
3345.04	26
3345.84	25.5
3346.63	25.5
3347.42	26
3348.22	25.5
3349.01	27.5
3349.8	25.5
3350.59	22
3351.39	22
3352.18	22.5
3352.97	26
3353.76	24.5
3354.55	25.5
3355.35	21.5
3356.14	26
3356.93	22
3357.72	22
3358.51	21
3359.3	25
3360.09	25.5
3360.88	22.5
3361.67	25.5
3362.46	21
3363.26	24
3364.05	23.5
3364.84	20
3365.63	23
3366.42	24.5
3367.21	24.5
3368	22.5
3368.79	28
3369.58	24.5
3370.37	23
3371.15	24.5
3371.94	25
3372.73	25.5
3373.52	24.5
3374.31	23
3375.1	24.5
3375.89	20.5
3376.68	23.5
3377.47	28
3378.26	24.5
3379.04	25
3379.83	26
3380.62	26.5
3381.41	23
3382.2	25
3382.98	25
3383.77	24
3384.56	24.5
3385.35	23.5
3386.13	24
3386.92	23
3387.71	26
3388.5	25
3389.28	28
3390.07	20
3390.86	26.5
3391.64	21
3392.43	25
3393.22	21
3394	21
3394.79	22.5
3395.57	24.5
3396.36	25
3397.15	24.5
3397.93	25
3398.72	23
3399.5	26
3400.29	25
3401.07	25
3401.86	26.5
3402.65	24.5
3403.43	24
3404.21	25.5
3405	30
3405.78	22.5
3406.57	23.5
3407.35	25
3408.14	24.5
3408.92	21.5
3409.71	25
3410.49	22
3411.27	23.5
3412.06	25
3412.84	25.5
3413.62	27
3414.41	24
3415.19	26
3415.97	24
3416.76	25
3417.54	27.5
3418.32	26
3419.11	22.5
3419.89	26.5
3420.67	26
3421.46	25
3422.24	24.5
3423.02	25
3423.8	24.5
3424.58	26.5
3425.37	23.5
3426.15	27
3426.93	25
3427.71	24
3428.49	23
3429.27	25
3430.05	26.5
3430.84	24
3431.62	22
3432.4	23.5
3433.18	23.5
3433.96	22
3434.74	21
3435.52	26
3436.3	25
3437.08	25.5
3437.86	26.5
3438.64	23.5
3439.42	24
3440.2	24
3440.98	25
3441.76	23
3442.54	27
3443.32	22.5
3444.1	27
3444.88	23
3445.66	23
3446.44	23.5
3447.22	27
3448	26
3448.77	22
3449.55	27
3450.33	25
3451.11	25
3451.89	25
3452.67	21.5
3453.45	27
3454.22	24.5
3455	23.5
3455.78	23
3456.56	27
3457.33	24
3458.11	25
3458.89	23.5
3459.67	29
3460.44	22
3461.22	21.5
3462	24
3462.77	22
3463.55	22
3464.33	23
3465.1	20.5
3465.88	26.5
3466.66	24.5
3467.43	20
3468.21	25
3468.98	27
3469.76	26
3470.54	24.5
3471.31	23.5
3472.09	24.5
3472.86	22.5
3473.64	21
3474.41	24.5
3475.19	24.5
3475.96	27
3476.74	24.5
3477.51	23.5
3478.29	23
3479.06	26.5
3479.84	24.5
3480.61	27.5
3481.39	26.5
3482.16	25
3482.93	21
3483.71	25.5
3484.48	23
3485.25	25.5
3486.03	24.5
3486.8	28.5
3487.57	28
3488.35	23
3489.12	26
3489.89	26.5
3490.67	22.5
3491.44	25
3492.21	23.5
3492.99	25
3493.76	20.5
3494.53	22.5
3495.3	25.5
3496.08	27.5
3496.85	23
3497.62	24
3498.39	26.5
3499.16	24.5
3499.93	26
