#Acq. time (s)=	5
#Accumulations=	5
#Range (cm-¹)=	100...3500
#Windows=	4
#Autofocus=	Off
#AutoExposure=	Off
#Spike filter=	Multiple accum.
#Delay time (s)=	0
#Binning=	1
#Readout mode=	Signal
#DeNoise=	Off
#ICS correction=	Off
#Dark correction=	Off
#Inst. Process=	Off
#Instrument=	LabRAM HR Evol
#Detector=	Syncerity OE
#Objective=	x100_VIS
#Grating=	600 (500nm)
#ND Filter=	25%
#Laser=	633nm_Edge
#Hole=	100.021
#Range=	Visible
#Project=	verificaciones
#Sample=	at5
#Site=	plain
#Title=	bolusat5plain
#Remark=	
#Date=	13.01.2026 19:00
#Acquired=	13.01.2026 19:00:07
100.692	27.5
101.975	31
103.258	32
104.542	32
105.824	32
107.107	27.5
108.39	31
109.672	31
110.954	27.5
112.236	32
113.519	33.5
114.8	28.5
116.081	34
117.362	32
118.643	25
119.924	33
121.204	27
122.484	27.5
123.764	30.5
125.044	33
126.323	30.5
127.603	31.5
128.882	31.5
130.161	33.5
131.438	31
132.716	29
133.995	32.5
135.273	34.5
136.55	34
137.828	35
139.106	28.5
140.383	33
141.66	33
142.937	37
144.213	36
145.488	37.5
146.764	33
148.04	41.5
149.316	39
150.592	37.5
151.867	36.5
153.141	39
154.416	43.5
155.69	39.5
156.965	37
158.239	39.5
159.512	35
160.786	39.5
162.059	36
163.333	40
164.605	39.5
165.878	35
167.15	36
168.423	40.5
169.694	36
170.966	32.5
172.238	36.5
173.51	34
174.78	36
176.052	35.5
177.323	35
178.592	40.5
179.863	41
181.134	36.5
182.403	38.5
183.673	43.5
184.943	39.5
186.211	39.5
187.481	44
188.749	40.5
190.018	40
191.287	40
192.554	38.5
193.822	39
195.089	33
196.357	36.5
197.625	34
198.891	39
200.159	35.5
201.425	35
202.692	36
203.957	39
205.224	32.5
206.489	36
207.755	34
209.02	35.5
210.286	32
211.55	38.5
212.815	31.5
214.079	33.5
215.344	33.5
216.607	31
217.872	33
219.135	32
220.399	30
221.662	31
222.924	31
224.187	23
225.449	34
226.713	30
227.974	31
229.235	31
230.498	33
231.759	32
233.019	32
234.281	32
235.542	27.5
236.802	26.5
238.063	33
239.323	31
240.582	31
241.843	31.5
243.102	30.5
244.361	30
245.621	30.5
246.879	28.5
248.138	30.5
249.396	27.5
250.655	29.5
251.913	29
253.17	31.5
254.427	28
255.686	29
256.943	29
258.199	25
259.456	24
260.712	29
261.969	25.5
263.225	29
264.481	25
265.736	27
266.991	32
268.246	32
269.502	24.5
270.757	30.5
272.011	30.5
273.265	27.5
274.519	30.5
275.773	31
277.027	29.5
278.28	25
279.533	33.5
280.786	28.5
282.04	32.5
283.293	30
284.545	31
285.798	27
287.049	29.5
288.301	23
289.553	30.5
290.804	31.5
292.055	29
293.306	30
294.557	28.5
295.807	24.5
297.058	28
298.308	31
299.558	24.5
300.808	30.5
302.057	30
303.305	26
304.554	28.5
305.803	27
307.052	28.5
308.3	28.5
309.549	29
310.797	25
312.045	30.5
313.292	29
314.54	27.5
315.786	33
317.033	27.5
318.28	31.5
319.526	25
320.773	24.5
322.019	28
323.264	30.5
324.51	28
325.755	27
327.001	27
328.246	25.5
329.49	28
330.735	30
331.979	29
333.224	31
334.467	29
335.711	28.5
336.955	25.5
338.199	26
339.441	29
340.684	28
341.927	33
343.168	29.5
344.411	24.5
345.654	29
346.895	26
348.137	27
349.379	31.5
350.619	26.5
351.86	28
353.102	27.5
354.341	31
355.582	29
356.821	29
358.062	29.5
359.302	28
360.541	29
361.781	28.5
363.019	30
364.259	28
365.496	22
366.736	30.5
367.974	30.5
369.212	27.5
370.45	28.5
371.687	26
372.925	27
374.162	29
375.399	32
376.635	29.5
377.873	28
379.109	30.5
380.344	29
381.581	26.5
382.816	27
384.052	30
385.287	24
386.523	29
387.757	27.5
388.991	30
390.227	27.5
391.46	27
392.695	29.5
393.928	27.5
395.162	27.5
396.396	26
397.629	29
398.861	30
400.095	27
401.327	28
402.559	32
403.792	31
405.024	33.5
406.255	28
407.488	27.5
408.719	28.5
409.949	24
411.18	25.5
412.412	26
413.642	23
414.872	28
416.102	28.5
417.333	30
418.562	30.5
419.791	27
421.02	26
422.249	27
423.479	29.5
424.707	26.5
425.935	27.5
427.163	24.5
428.391	28.5
429.619	27.5
430.848	28.5
432.075	27
433.302	27.5
434.529	31.5
435.755	25
436.982	29
438.208	24
439.434	31
440.66	28.5
441.885	29
443.111	26.5
444.338	30
445.563	33
446.788	26.5
448.012	31
449.237	28
450.461	24.5
451.685	31
452.909	31.5
454.133	32.5
455.356	31
456.579	30.5
457.802	32.5
459.025	29.5
460.247	27.5
461.469	28
462.691	31
463.914	32
465.136	31
466.357	33
467.579	31.5
468.8	34
470.021	31.5
471.242	33.5
472.462	30
473.682	36
474.903	32.5
476.123	39
477.343	41.5
478.563	41.5
479.782	45.5
481	45
482.219	46
483.438	50
484.657	55
485.874	54
487.093	57
488.311	54
489.529	56
490.747	55.5
491.963	55
493.181	50.5
494.398	44.5
495.614	46
496.83	46.5
498.047	45.5
499.264	41
500.479	43.5
501.695	42
502.911	34.5
504.125	36.5
505.34	37.5
506.554	38
507.769	40
508.984	36
510.198	38.5
511.412	31
512.627	32.5
513.839	33.5
515.053	31
516.266	30.5
517.479	32
518.691	33
519.905	33.5
521.118	29
522.329	35
523.542	32
524.753	32.5
525.965	29
527.176	30.5
528.388	28
529.598	26
530.809	31
532.019	31
533.23	30
534.44	26.5
535.649	29
536.86	25
538.068	31.5
539.279	33
540.487	29.5
541.697	28
542.905	29
544.113	26
545.322	29
546.53	29.5
547.737	31
548.946	28
550.153	28
551.361	30.5
552.568	32.5
553.774	27
554.982	27
556.188	29.5
557.394	27
558.599	25
559.806	28.5
561.012	28.5
562.217	28.5
563.423	31
564.628	28.5
565.832	30.5
567.036	26
568.241	30
569.446	28.5
570.65	26.5
571.853	29
573.057	26
574.26	26
575.464	27
576.667	31.5
577.87	28
579.072	29.5
580.274	31.5
581.477	27
582.68	29
583.881	24
585.083	28
586.284	28
587.485	30.5
588.686	27.5
589.887	30
591.087	27
592.288	31
593.488	26
594.688	27.5
595.888	26
597.087	27.5
598.287	32
599.486	23
600.685	27.5
601.884	25.5
603.082	27
604.281	26.5
605.479	27
606.677	21.5
607.875	30
609.073	27
610.27	27
611.468	29.5
612.665	28
613.862	24
615.058	28.5
616.255	29.5
617.451	27.5
618.648	27.5
619.842	28
621.038	30
622.234	29.5
623.429	34.5
624.624	28.5
625.819	27
627.013	29
628.207	27
629.402	29
630.596	31
631.79	27.5
632.983	28
634.177	29
635.37	28
636.564	30
637.755	29
638.948	29
640.141	29
641.334	32.5
642.525	29.5
643.717	26
644.909	30.5
646.099	30
647.291	29
648.483	30
649.674	28.5
650.864	26.5
652.055	27.5
653.244	27
654.435	28.5
655.625	26.5
656.814	28
658.004	29.5
659.193	30
660.382	28
661.571	29
662.759	26
663.948	30.5
665.135	29
666.324	29.5
667.511	31.5
668.7	33
669.886	28
671.074	31
672.262	30.5
673.448	31.5
674.634	30
675.821	34.5
677.007	32.5
678.194	32.5
679.379	31
680.565	32.5
681.75	33
682.936	41.5
684.121	34.5
685.305	35
686.491	34
687.675	33.5
688.86	32
690.043	33
691.227	36
692.411	31.5
693.594	34
694.777	33.5
695.961	32.5
697.144	35
698.326	37
699.509	36
700.691	34
701.873	40.5
703.056	39
704.237	38.5
705.419	49
706.599	43
707.782	42
708.962	47
710.143	40
711.323	43.5
712.504	39.5
713.684	41.5
714.864	37.5
716.043	33
717.223	33.5
718.403	35
719.582	31
720.761	29
721.94	29.5
723.118	29
724.296	27
725.474	23.5
726.652	34.5
727.831	30.5
729.009	29.5
730.186	32
731.363	27.5
732.54	26.5
733.717	28
734.893	30
736.07	28.5
737.246	29
738.422	32.5
739.598	30
740.773	29.5
741.949	26.5
743.124	26.5
744.299	30
745.474	29
746.649	24
747.823	28
748.997	26.5
750.172	27.5
751.346	27.5
752.519	27
753.693	30
754.867	27.5
756.038	21.5
757.211	27.5
758.384	27.5
759.557	26.5
760.73	30.5
761.902	29
763.074	25.5
764.246	31.5
765.417	27
766.588	27.5
767.76	30
768.931	25
770.102	30.5
771.271	26
772.442	24
773.613	32
774.783	26
775.952	28
777.122	30
778.291	32
779.461	26.5
780.629	27.5
781.798	34.5
782.967	28.5
784.135	30
785.304	33
786.472	29.5
787.639	33.5
788.807	32.5
789.975	31
791.142	32
792.309	27
793.477	32.5
794.642	32
795.81	27.5
796.975	28.5
798.142	25.5
799.308	29.5
800.473	31
801.639	34.5
802.804	30.5
803.97	32
805.134	27
806.299	26.5
807.463	33.5
808.628	30.5
809.792	23
810.957	24
812.12	31.5
813.284	33.5
814.447	27.5
815.611	30
816.773	29.5
817.937	31
819.099	28.5
820.261	26.5
821.424	26.5
822.585	27
823.748	28
824.909	28
826.07	28.5
827.232	24.5
828.393	27.5
829.554	26
830.715	28
831.875	25
833.035	27.5
834.196	26.5
835.356	27.5
836.515	26.5
837.676	22.5
838.835	31
839.994	29
841.152	27.5
842.312	28
843.47	27
844.629	29
845.786	32
846.946	26.5
848.103	30
849.261	32
850.418	26.5
851.575	29
852.733	29.5
853.89	27
855.046	28.5
856.203	28.5
857.359	31.5
858.515	32
859.67	28.5
860.827	32
861.983	23.5
863.138	32.5
864.293	27
865.448	25
866.603	27.5
867.757	26
868.912	29
870.066	27.5
871.22	27.5
872.374	28
873.527	28
874.681	29
875.834	28
876.987	31
878.14	27
879.293	32
880.445	30.5
881.598	30.5
882.75	27
883.902	25
885.054	27
886.206	23.5
887.357	27.5
888.507	26
889.658	29
890.809	27.5
891.96	29.5
893.111	29.5
894.261	25.5
895.411	30
896.561	25.5
897.71	28
898.86	28.5
900.009	26.5
901.159	24
902.308	26
903.455	26.5
904.604	30
905.753	26
906.901	24.5
908.048	26.5
909.197	26.5
910.344	22
911.492	23
912.639	28.5
913.786	26.5
914.933	25.5
916.079	24
917.226	28
918.373	29
919.518	24
920.664	29
921.81	27.5
922.955	26
924.101	26
925.245	31.5
926.391	27.5
927.536	23
928.68	26
929.825	29.5
930.968	24.5
932.113	26.5
933.256	27.5
934.4	29.5
935.543	29
936.687	25
937.83	27.5
938.973	25
940.115	29.5
941.258	25.5
942.399	24.5
943.542	26
944.684	25.5
945.826	29
946.967	26.5
948.109	28
949.25	24.5
950.392	28.5
951.532	31
952.672	27
953.813	23.5
954.953	28
956.093	24.5
957.233	27
958.373	28
959.512	29.5
960.652	25.5
961.791	25
962.929	24
964.069	26.5
965.207	32
966.345	27
967.484	20.5
968.622	25
969.759	28.5
970.896	28.25
972.035	25
973.172	27
974.309	26.5
975.445	28.5
976.582	27
977.719	22
978.855	26
979.991	24
981.127	28
982.263	30.5
983.398	24
984.535	26
985.67	26
986.804	26
987.939	27
989.074	26
990.208	22
991.342	23
992.476	29
993.61	30.5
994.744	30
995.877	29.5
997.01	22.5
998.143	24
999.276	20
1000.41	28
1001.54	22
1002.67	27
1003.81	24
1004.94	27.5
1006.07	28
1007.2	26
1008.33	26.5
1009.47	23.5
1010.6	29
1011.73	25.5
1012.86	26.5
1013.99	24.5
1015.12	31
1016.25	26
1017.38	27.5
1018.51	27.5
1019.64	25
1020.77	23.5
1021.9	25
1023.03	27
1024.15	28
1025.28	26
1026.41	23
1027.54	27
1028.67	24
1029.8	23.5
1030.92	26.5
1032.05	22.5
1033.18	24
1034.31	25
1035.43	26
1036.56	24.5
1037.69	28
1038.81	24.5
1039.94	21.5
1041.07	25
1042.19	23
1043.32	23
1044.44	26
1045.57	25.5
1046.69	26.5
1047.82	25
1048.94	24.5
1050.07	27
1051.19	23
1052.32	27
1053.44	28.5
1054.57	25.5
1055.69	25
1056.81	24.5
1057.94	24
1059.06	25
1060.18	24.5
1061.31	26.5
1062.43	25.5
1063.55	21.5
1064.67	26.5
1065.8	23.5
1066.92	27
1068.04	25
1069.16	21
1070.28	27.5
1071.4	23.5
1072.52	22
1073.64	29
1074.76	24.5
1075.89	26.5
1077.01	29
1078.13	25
1079.25	25.5
1080.37	25.5
1081.49	22.5
1082.6	23.5
1083.72	23.5
1084.84	24
1085.96	24.5
1087.08	22.5
1088.2	20
1089.32	25
1090.43	27
1091.55	25.5
1092.67	22
1093.79	24.5
1094.91	23
1096.02	27
1097.14	25
1098.26	27
1099.37	21
1100.49	28
1101.61	25
1102.72	25
1103.84	28
1104.95	21
1106.07	25
1107.18	26
1108.3	24
1109.41	22.5
1110.53	27
1111.64	27
1112.76	22
1113.87	27
1114.99	27.5
1116.1	29
1117.21	25.5
1118.33	29
1119.44	22.5
1120.55	26
1121.67	25.5
1122.78	23.5
1123.89	29
1125	23
1126.12	25.5
1127.23	23.5
1128.34	20.5
1129.45	25.5
1130.56	28
1131.68	26.5
1132.79	26.5
1133.9	26
1135.01	22
1136.12	24
1137.23	23
1138.34	27
1139.45	29
1140.56	25.5
1141.67	24.5
1142.78	29.5
1143.89	21.5
1145	26
1146.11	27.5
1147.22	25.5
1148.32	22.5
1149.43	26.5
1150.54	27
1151.65	27.5
1152.76	26
1153.86	24
1154.97	26
1156.08	26
1157.19	24.5
1158.29	24.5
1159.4	26
1160.51	25
1161.61	26.5
1162.72	25.5
1163.83	25
1164.93	27
1166.04	24
1167.14	22
1168.25	27.5
1169.35	23
1170.46	26
1171.56	27.5
1172.67	25.5
1173.77	25
1174.88	23
1175.98	25
1177.08	27
1178.19	24
1179.29	24
1180.4	26.5
1181.5	23.5
1182.6	26.5
1183.71	25.5
1184.81	28
1185.91	26.5
1187.01	25.5
1188.12	27
1189.22	26
1190.32	27
1191.42	20
1192.52	21
1193.62	24.5
1194.72	25.9934
1195.83	26.9291
1196.93	25.976
1198.03	23.1258
1199.13	23.5532
1200.23	24.8891
1201.33	23.8296
1202.43	23.7323
1203.53	22.9566
1204.63	23.6626
1205.73	22.9319
1206.83	27.1545
1207.92	26.0322
1209.02	25.0199
1210.12	26.8489
1211.22	24.629
1212.32	22.4115
1213.42	22.0834
1214.51	23.6796
1215.61	25.6233
1216.71	26.1888
1217.81	24.7555
1218.9	27.6997
1220	24.7149
1221.1	26.691
1222.19	24.6238
1223.29	23.8399
1224.39	23.3778
1225.48	24.6186
1226.58	26.5135
1227.68	24.5256
1228.77	23.6552
1229.87	22.7958
1230.96	22.6718
1232.06	22.5285
1233.15	25.6229
1234.25	23.6982
1235.34	24.8903
1236.43	24.9822
1237.53	23.474
1238.62	24.0956
1239.72	26.1909
1240.81	25.8017
1241.9	26.1265
1243	23.2961
1244.09	23.0461
1245.18	24.1522
1246.27	20.5609
1247.37	25.8816
1248.46	21.5856
1249.55	25.6816
1250.64	24.7653
1251.74	25.4938
1252.83	22.8533
1253.92	25.4754
1255.01	27.0367
1256.1	24.1548
1257.19	26.5708
1258.28	26.9448
1259.38	25.9825
1260.46	25.7715
1261.56	27.6297
1262.65	26.6325
1263.74	27.2943
1264.82	28.9557
1265.91	25.555
1267	26.6259
1268.09	24.5237
1269.18	25.462
1270.27	25.5786
1271.36	25.0254
1272.45	25.1051
1273.54	24.4366
1274.63	26.0526
1275.71	26.4376
1276.8	26.4159
1277.89	25.2994
1278.98	24.6684
1280.06	24.3761
1281.15	24.6141
1282.24	24.3908
1283.32	25.8249
1284.41	25.6353
1285.5	24.1706
1286.58	24.449
1287.67	28.0062
1288.76	24.1203
1289.84	24.9616
1290.93	23.5191
1292.01	23.2588
1293.1	24.0381
1294.18	25.5866
1295.27	26.7916
1296.35	27.9932
1297.44	27.6158
1298.52	24.6412
1299.6	23.3074
1300.69	25.7329
1301.77	24.1095
1302.86	25.3271
1303.94	26.6493
1305.02	25.531
1306.11	25.3549
1306.41	25.5
1307.5	22.5
1308.59	21
1309.68	28
1310.77	25
1311.85	22.5
1312.94	25.5
1314.03	25
1315.11	23
1316.2	22
1317.29	26.5
1318.37	22.5
1319.46	23
1320.55	22.5
1321.63	24
1322.72	23.5
1323.8	24
1324.89	22.5
1325.98	23.5
1327.06	28
1328.15	24.5
1329.23	24.5
1330.31	25
1331.4	25.5
1332.48	25
1333.57	9
1334.65	23.5
1335.74	27
1336.82	26.5
1337.9	24.5
1338.99	26
1340.07	24
1341.15	29
1342.24	28
1343.32	28.5
1344.4	23.5
1345.48	25.5
1346.56	25
1347.65	22
1348.73	23.5
1349.81	24.5
1350.89	27.5
1351.97	27
1353.05	27
1354.13	29.5
1355.21	25
1356.29	24
1357.37	25
1358.46	22.5
1359.54	25.5
1360.62	26
1361.69	25
1362.77	25
1363.85	26
1364.93	22
1366.01	26
1367.09	26
1368.17	24
1369.25	24
1370.33	26
1371.41	25.5
1372.48	26
1373.56	22.5
1374.64	25
1375.72	21
1376.79	27
1377.87	23.5
1378.95	27.5
1380.02	23
1381.1	28.5
1382.18	22
1383.25	24.5
1384.33	23
1385.4	25.5
1386.48	26
1387.56	27.5
1388.63	28
1389.71	28
1390.78	24
1391.86	20.5
1392.93	26
1394.01	23
1395.08	24
1396.15	25.5
1397.23	23.5
1398.3	29.5
1399.38	33
1400.45	30.5
1401.52	29
1402.6	30.5
1403.67	34
1404.74	29.5
1405.81	29.5
1406.89	28.5
1407.96	33.5
1409.03	28.5
1410.1	31.5
1411.17	29.5
1412.25	32.5
1413.32	29
1414.39	35.5
1415.46	31
1416.53	31.5
1417.6	26
1418.67	27
1419.74	27.5
1420.81	25.5
1421.88	27
1422.95	24.5
1424.02	25.5
1425.09	27.5
1426.16	27
1427.23	28
1428.3	27
1429.37	28
1430.44	26
1431.51	27
1432.58	25
1433.64	26
1434.71	25.5
1435.78	24.5
1436.85	25.5
1437.92	25.5
1438.98	25.5
1440.05	26
1441.12	24
1442.18	28
1443.25	24.5
1444.32	25
1445.38	28
1446.45	30
1447.52	28.5
1448.58	26.5
1449.65	26.5
1450.71	22
1451.78	30
1452.84	26
1453.91	26.5
1454.97	25
1456.04	27
1457.1	25
1458.17	22.5
1459.23	23
1460.3	25.5
1461.36	28.5
1462.42	26
1463.49	26.5
1464.55	29.5
1465.61	26
1466.68	25.5
1467.74	26.5
1468.8	23
1469.86	23.5
1470.93	23
1471.99	27
1473.05	22
1474.11	27
1475.17	29.5
1476.24	25.5
1477.3	28
1478.36	26.5
1479.42	26
1480.48	28.5
1481.54	27
1482.6	27
1483.66	29
1484.72	25
1485.78	23.5
1486.84	26
1487.9	28.5
1488.96	23.5
1490.02	26
1491.08	23.5
1492.14	27.5
1493.2	26.5
1494.26	24.5
1495.31	27.5
1496.37	26
1497.43	29
1498.49	26.5
1499.55	23
1500.6	24.5
1501.66	27
1502.72	23.5
1503.78	27.5
1504.83	28
1505.89	24.5
1506.95	23.5
1508	22
1509.06	27
1510.12	27
1511.17	28.5
1512.23	26
1513.28	27
1514.34	26
1515.39	29
1516.45	24
1517.5	26
1518.56	25.5
1519.61	27
1520.67	27.5
1521.72	24
1522.78	27
1523.83	26
1524.88	27
1525.94	23
1526.99	26.5
1528.05	27
1529.1	26.5
1530.15	28.5
1531.2	23.5
1532.26	29.5
1533.31	26
1534.36	27
1535.41	24.5
1536.47	33.5
1537.52	22
1538.57	27.5
1539.62	24
1540.67	27
1541.72	25
1542.77	29
1543.83	27
1544.88	25
1545.93	23
1546.98	26.5
1548.03	28.5
1549.08	20.5
1550.13	28.5
1551.18	20
1552.23	28.5
1553.28	19.5
1554.32	26.5
1555.37	22
1556.42	27
1557.47	27
1558.52	26.5
1559.57	23.5
1560.62	29
1561.67	27.5
1562.71	27.5
1563.76	29
1564.81	24
1565.86	26.5
1566.9	25
1567.95	28.5
1569	25.5
1570.04	25
1571.09	27
1572.14	25
1573.18	28
1574.23	23.5
1575.27	27
1576.32	26
1577.37	27.5
1578.41	23.5
1579.46	25
1580.5	26
1581.55	22.5
1582.59	24.5
1583.64	25
1584.68	25
1585.72	25
1586.77	24
1587.81	21
1588.86	30
1589.9	24
1590.94	30
1591.99	29
1593.03	28
1594.07	22.5
1595.12	23
1596.16	24
1597.2	27
1598.24	28
1599.29	23
1600.33	28
1601.37	25
1602.41	28.5
1603.45	24
1604.49	28
1605.53	27.5
1606.58	26.5
1607.62	28.5
1608.66	23.5
1609.7	26.5
1610.74	30.5
1611.78	28
1612.82	28.5
1613.86	26
1614.9	25
1615.94	27
1616.98	24
1618.02	26
1619.06	23.5
1620.09	21.5
1621.13	27.5
1622.17	25.5
1623.21	23
1624.25	19.5
1625.29	28
1626.32	26.5
1627.36	27
1628.4	22
1629.44	29
1630.47	31
1631.51	26
1632.55	26.5
1633.58	23
1634.62	26
1635.66	28
1636.69	25.5
1637.73	24
1638.77	22.5
1639.8	27
1640.84	25.5
1641.87	30
1642.91	25.5
1643.94	24
1644.98	23
1646.01	24
1647.05	25
1648.08	23
1649.12	29
1650.15	23
1651.18	28.5
1652.22	22.5
1653.25	29
1654.29	24.5
1655.32	26.5
1656.35	24.5
1657.39	29
1658.42	26.5
1659.45	30
1660.48	29
1661.52	23
1662.55	25.5
1663.58	26
1664.61	22
1665.64	25
1666.68	27.5
1667.71	21
1668.74	25
1669.77	25
1670.8	28
1671.83	24
1672.86	27
1673.89	24.5
1674.92	28.5
1675.95	29
1676.98	26.5
1678.01	28.5
1679.04	25
1680.07	24
1681.1	28.5
1682.13	27.5
1683.16	24
1684.19	25.5
1685.22	27
1686.25	24
1687.27	27.5
1688.3	26
1689.33	27
1690.36	26.5
1691.38	25
1692.41	27.5
1693.44	28.5
1694.47	25.5
1695.49	25
1696.52	27.5
1697.55	26
1698.57	23
1699.6	26
1700.63	21.5
1701.65	24.5
1702.68	27.5
1703.7	22
1704.73	25.5
1705.76	26
1706.78	26.5
1707.81	26
1708.83	27
1709.86	22.5
1710.88	25
1711.91	25
1712.93	25
1713.95	26.5
1714.98	28.5
1716	25.5
1717.03	30
1718.05	29
1719.07	24.5
1720.1	23.5
1721.12	26
1722.14	25.5
1723.16	28
1724.19	24.5
1725.21	26
1726.23	25
1727.25	30
1728.28	26
1729.3	24
1730.32	24.5
1731.34	28.5
1732.36	25
1733.38	21.5
1734.41	25
1735.43	28.5
1736.45	25.5
1737.47	27
1738.49	27.5
1739.51	26.5
1740.53	27
1741.55	25
1742.57	23
1743.59	25
1744.61	25
1745.63	24.5
1746.64	24.5
1747.66	24.5
1748.68	27
1749.7	27
1750.72	24.5
1751.74	20
1752.76	28
1753.77	27
1754.79	24
1755.81	26.5
1756.83	26.5
1757.84	28
1758.86	26.5
1759.88	24
1760.9	25
1761.91	30
1762.93	21.5
1763.95	27.5
1764.96	28
1765.98	24.5
1766.99	27
1768.01	24
1769.02	25.5
1770.04	28.5
1771.06	29
1772.07	26
1773.09	28
1774.1	23
1775.12	26.5
1776.13	25.5
1777.14	27
1778.16	27.5
1779.17	25.5
1780.19	25
1781.2	26.5
1782.21	25
1783.23	20.5
1784.24	28
1785.25	28
1786.27	23
1787.28	25
1788.29	22.5
1789.3	27.5
1790.32	24.5
1791.33	25
1792.34	22.5
1793.35	25.5
1794.36	24.5
1795.38	28.5
1796.39	26
1797.4	25
1798.41	24
1799.42	23
1800.43	28
1801.44	27
1802.45	28
1803.46	27.5
1804.47	29
1805.48	25
1806.49	27
1807.5	24
1808.51	26.5
1809.52	22
1810.53	25.5
1811.54	26
1812.55	27
1813.56	26
1814.57	25
1815.57	25
1816.58	27
1817.59	25
1818.6	25.5
1819.61	25
1820.61	27
1821.62	23
1822.63	24.5
1823.64	24
1824.64	26
1825.65	26
1826.66	28.5
1827.66	25
1828.67	24
1829.68	23
1830.68	23
1831.69	23
1832.69	25
1833.7	25
1834.7	27
1835.71	27.5
1836.71	26.5
1837.72	23
1838.72	29
1839.73	23
1840.73	27
1841.74	28
1842.74	31.5
1843.75	27.5
1844.75	24.5
1845.75	24
1846.76	29
1847.76	24.5
1848.76	23
1849.77	26.5
1850.77	28
1851.77	27.5
1852.78	26.5
1853.78	27.5
1854.78	25.5
1855.78	24.5
1856.78	27
1857.79	26.5
1858.79	25
1859.79	24
1860.79	25.5
1861.79	24.5
1862.79	24
1863.79	24
1864.79	23
1865.79	29
1866.8	25
1867.8	24.5
1868.8	23
1869.8	29
1870.8	29
1871.8	25.5
1872.8	24
1873.79	27
1874.79	24
1875.79	22
1876.79	26
1877.79	25.5
1878.79	28.5
1879.79	27.5
1880.79	21.5
1881.78	28
1882.78	24.5
1883.78	24
1884.78	25.5
1885.77	29.5
1886.77	23.5
1887.77	26
1888.77	25.5
1889.76	24
1890.76	24
1891.76	25
1892.75	23.5
1893.75	22
1894.75	25
1895.74	25
1896.74	26
1897.73	25.5
1898.73	25.5
1899.73	24.5
1900.72	26
1901.72	19.5
1902.71	29
1903.7	27.5
1904.7	21.5
1905.69	25
1906.69	26
1907.68	33.5
1908.68	27.5
1909.67	22.5
1910.66	25.5
1911.66	24
1912.65	22
1913.64	27.5
1914.64	25
1915.63	26.5
1916.62	24.5
1917.62	26.5
1918.61	26
1919.6	27.5
1920.59	25.5
1921.58	28
1922.58	22
1923.57	25
1924.56	25
1925.55	25
1926.54	26.5
1927.53	23
1928.52	27
1929.51	24.5
1930.51	23.5
1931.5	23.5
1932.49	27
1933.48	19.5
1934.47	22.5
1935.46	24
1936.45	23
1937.44	25.5
1938.42	28.5
1939.41	25
1940.4	24
1941.39	20
1942.38	23
1943.37	25
1944.36	25
1945.35	27
1946.33	29
1947.32	24.5
1948.31	25
1949.3	23.5
1950.29	22.5
1951.27	23
1952.26	24.5
1953.25	24.5
1954.23	23.5
1955.22	24.5
1956.21	24
1957.19	26.5
1958.18	30
1959.17	22
1960.15	26.5
1961.14	22
1962.13	26
1963.11	25.5
1964.1	21
1965.08	27
1966.07	26
1967.05	27
1968.04	24
1969.02	26.5
1970.01	23.5
1970.99	24.5
1971.97	26.5
1972.96	24
1973.94	24.5
1974.93	24
1975.91	26
1976.89	25.5
1977.88	25
1978.86	24.5
1979.84	23
1980.83	26
1981.81	23
1982.79	30
1983.77	24
1984.76	24
1985.74	26
1986.72	22
1987.7	21
1988.68	26
1989.67	24
1990.65	27.5
1991.63	24
1992.61	21
1993.59	24
1994.57	24.5
1995.55	27
1996.53	28.5
1997.51	25
1998.49	24
1999.47	23.5
2000.45	25
2001.43	23
2002.41	22.5
2003.39	23
2004.37	22
2005.35	25
2006.33	22
2007.31	27
2008.29	28
2009.26	28
2010.24	24.5
2011.22	27
2012.2	21.5
2013.18	22.5
2014.15	23.5
2015.13	25
2016.11	22.5
2017.09	24
2018.06	24
2019.04	26
2020.02	22.5
2021	25.5
2021.97	23
2022.95	21.5
2023.92	23.5
2024.9	24.5
2025.88	26
2026.85	22.5
2027.83	25
2028.8	22.5
2029.78	24
2030.75	23
2031.73	25.5
2032.7	24
2033.68	21.5
2034.65	22
2035.63	25.5
2036.6	24.5
2037.58	24.5
2038.55	22
2039.52	24.5
2040.5	32
2041.47	23.5
2042.45	26.5
2043.42	26
2044.39	23
2045.36	21.5
2046.34	29
2047.31	26.5
2048.28	24
2049.26	23.5
2050.23	28
2051.2	25.5
2052.17	25
2053.14	24.5
2054.12	24
2055.09	25
2056.06	24
2057.03	25
2058	22
2058.97	23
2059.94	24.5
2060.91	26.5
2061.88	23
2062.85	26.5
2063.82	23.5
2064.79	26
2065.76	23
2066.73	23.5
2067.7	25
2068.67	22
2069.64	25
2070.61	24.5
2071.58	24.5
2072.55	25.5
2073.52	23.5
2074.49	25
2075.45	23.5
2076.42	23.5
2077.39	25.5
2078.36	27
2079.33	26.5
2080.29	20.5
2081.26	24.5
2082.23	22.5
2083.2	29
2084.16	19.5
2085.13	24.5
2086.1	24
2087.06	21.5
2088.03	24.5
2089	24.5
2089.96	26
2090.93	25
2091.89	26
2092.86	25.5
2093.83	21.5
2094.79	23
2095.76	24.5
2096.72	21
2097.69	22.5
2098.65	21
2099.62	25
2100.58	25.5
2101.55	23
2102.51	27.5
2103.47	19.5
2104.44	23
2105.4	24
2106.36	23.5
2107.33	27
2108.29	23.5
2109.25	25
2110.22	21.5
2111.18	27
2112.14	26
2113.11	26
2114.07	24
2115.03	21
2115.99	20
2116.96	25.5
2117.92	22
2118.88	25
2119.84	25.5
2120.8	26
2121.76	23
2122.72	22
2123.68	25
2124.65	27
2125.61	19
2126.57	23.5
2127.53	22
2128.49	23
2129.45	23.5
2130.41	27.5
2131.37	22.5
2132.33	26.5
2133.29	22
2134.25	23
2135.21	28
2136.17	22
2137.12	25
2138.08	21
2139.04	22
2140	23.5
2140.96	28.5
2141.92	22.5
2142.88	24.9959
2143.83	20.0132
2144.79	22.0674
2145.75	25.477
2146.71	24.9126
2147.66	21.1207
2148.62	23.9514
2149.58	24.2451
2150.53	26.0867
2151.49	21.1622
2152.45	26.0413
2153.4	20.2362
2154.36	24.3124
2155.32	24.645
2156.27	24.9907
2157.23	24.6555
2158.19	21.2685
2159.14	22.5248
2160.1	21.6993
2161.05	25.8641
2162.01	23.3844
2162.96	23.0059
2163.92	23.1802
2164.87	21.398
2165.83	24.706
2166.78	23.2229
2167.73	22.6721
2168.69	21.7871
2169.64	25.7925
2170.6	23.7716
2171.55	22.0999
2172.5	22.665
2173.46	22.0792
2174.41	22.1955
2175.36	20.4503
2176.32	23.4395
2177.27	25.7051
2178.22	24.3535
2179.18	22.9317
2180.13	24.744
2181.08	24.9163
2182.03	22.516
2182.98	24.4531
2183.94	21.1283
2184.89	24.9862
2185.84	24.7661
2186.79	24.0369
2187.74	25.1274
2188.69	22.3847
2189.64	23.7684
2190.6	22.4081
2191.55	21.6761
2192.5	21.2138
2193.45	22.4306
2194.4	23.4915
2195.35	27.1376
2196.3	22.9036
2197.25	23.3828
2198.2	22.9128
2199.15	23.641
2200.1	24.5665
2201.04	23.0283
2201.99	22.1155
2202.94	22.775
2203.89	21.7894
2204.84	21.5105
2205.79	23.3904
2206.74	23.6379
2207.69	22.7044
2208.63	22.531
2209.58	25.1714
2210.53	21.3341
2211.48	22.2682
2212.43	22.46
2213.37	23.1068
2214.32	22.2631
2215.27	20.4531
2216.21	22.8263
2217.16	24.2259
2218.11	24.9307
2219.05	24.3129
2220	22.4402
2220.95	22.699
2221.89	26.3804
2222.84	23
2223.78	24.7476
2224.73	23.6219
2225.68	22.1337
2226.62	24.2121
2227.57	23.0454
2228.51	23.3489
2229.46	24.2061
2230.4	21.302
2231.35	20.9673
2232.29	22.9723
2233.24	24.7963
2234.18	21.7378
2235.12	23.4933
2236.07	25.2285
2237.01	24.7117
2237.95	24.049
2238.9	23.2711
2239.84	22.5979
2240.06	22.5
2241.01	24
2241.96	25
2242.91	25.5
2243.86	24.5
2244.8	26
2245.75	25
2246.7	25.5
2247.65	23.5
2248.59	20
2249.54	25
2250.49	23.5
2251.43	25
2252.38	24
2253.33	23
2254.27	23
2255.22	22
2256.16	22.5
2257.11	24.5
2258.06	22
2259	22.5
2259.95	24.5
2260.89	26
2261.84	22
2262.78	21.5
2263.73	25
2264.67	23
2265.62	27
2266.56	24
2267.5	22
2268.45	26
2269.39	25.5
2270.34	24
2271.28	24
2272.22	24
2273.17	23
2274.11	22
2275.05	21
2276	23
2276.94	18.5
2277.88	25
2278.82	23.5
2279.77	25.5
2280.71	24
2281.65	19
2282.59	23.5
2283.53	25
2284.48	22
2285.42	17
2286.36	21
2287.3	22
2288.24	23
2289.18	23
2290.12	23.5
2291.06	24.5
2292	24
2292.94	20.5
2293.89	27.5
2294.83	25
2295.77	22
2296.71	25
2297.65	21
2298.58	26
2299.52	23.5
2300.46	19.5
2301.4	24
2302.34	27.5
2303.28	25
2304.22	23
2305.16	25
2306.1	25.5
2307.03	24
2307.97	19.5
2308.91	22.5
2309.85	23.5
2310.79	21.5
2311.72	21.5
2312.66	26.5
2313.6	22.5
2314.54	26
2315.47	27
2316.41	26
2317.35	24.5
2318.28	25.5
2319.22	27
2320.16	24
2321.09	24
2322.03	22.5
2322.96	28.5
2323.9	25
2324.84	26.5
2325.77	21
2326.71	25
2327.64	23.5
2328.58	26
2329.51	23
2330.45	26
2331.38	22.5
2332.32	22
2333.25	25.5
2334.18	25.5
2335.12	27
2336.05	24
2336.99	27
2337.92	23.5
2338.85	25.5
2339.79	22.5
2340.72	22
2341.65	24
2342.59	27
2343.52	24
2344.45	28
2345.39	23.5
2346.32	24.5
2347.25	25.5
2348.18	27.5
2349.11	21
2350.05	24.5
2350.98	23.5
2351.91	25.5
2352.84	24
2353.77	21
2354.7	25.5
2355.64	24
2356.57	23
2357.5	22
2358.43	27
2359.36	22.5
2360.29	22
2361.22	20.5
2362.15	25
2363.08	23.5
2364.01	25.5
2364.94	22.5
2365.87	26
2366.8	23
2367.73	23
2368.66	26.5
2369.58	25
2370.51	25.5
2371.44	25.5
2372.37	23.5
2373.3	25.5
2374.23	22.5
2375.16	25.5
2376.08	24.5
2377.01	20
2377.94	26
2378.87	23.5
2379.8	25
2380.72	25
2381.65	23
2382.58	23.5
2383.5	22.5
2384.43	25.5
2385.36	24.5
2386.28	27.5
2387.21	23.5
2388.14	25.5
2389.06	26
2389.99	23
2390.91	23
2391.84	26
2392.77	22
2393.69	22
2394.62	20.5
2395.54	25.5
2396.47	25
2397.39	25
2398.32	24.5
2399.24	25.5
2400.16	23
2401.09	21.5
2402.01	26
2402.94	29
2403.86	24.5
2404.78	26.5
2405.71	23
2406.63	23
2407.56	24
2408.48	24
2409.4	25
2410.32	25.5
2411.25	23
2412.17	27.5
2413.09	22.5
2414.02	22.5
2414.94	30.5
2415.86	24
2416.78	21.5
2417.7	26
2418.63	24
2419.55	26.5
2420.47	23
2421.39	24
2422.31	26
2423.23	24
2424.15	23.5
2425.07	26
2425.99	23.5
2426.92	25
2427.84	24.5
2428.76	24
2429.68	22
2430.59	26.5
2431.51	22
2432.43	20
2433.35	27
2434.27	27.5
2435.19	23
2436.11	28.5
2437.03	28.5
2437.95	26
2438.87	27
2439.79	27
2440.71	25
2441.62	24.5
2442.54	24.5
2443.46	23
2444.38	23.5
2445.3	23
2446.21	22
2447.13	22
2448.05	24.5
2448.97	26.5
2449.88	23.5
2450.8	24.5
2451.72	27.5
2452.63	25
2453.55	25
2454.47	26
2455.38	25.5
2456.3	25.5
2457.21	26
2458.13	25
2459.05	25
2459.96	24.5
2460.88	27
2461.79	24.5
2462.71	27.5
2463.62	27
2464.54	23
2465.45	23.5
2466.37	24.5
2467.28	26
2468.2	26.5
2469.11	26
2470.02	26.5
2470.94	23
2471.85	24.5
2472.77	25
2473.68	23
2474.59	22
2475.51	23.5
2476.42	23
2477.33	24.5
2478.25	27.5
2479.16	23.5
2480.07	20
2480.98	26.5
2481.9	26
2482.81	23
2483.72	23.5
2484.63	26
2485.55	26
2486.46	24.5
2487.37	23.5
2488.28	26
2489.19	29
2490.1	23
2491.01	26.5
2491.92	28
2492.83	25
2493.74	20
2494.66	23.5
2495.57	24
2496.48	23.5
2497.39	27.5
2498.3	25.5
2499.21	26
2500.12	22
2501.03	20.5
2501.93	26
2502.84	24.5
2503.75	24
2504.66	24.5
2505.57	29.5
2506.48	25.5
2507.39	25.5
2508.3	29
2509.21	25
2510.11	29
2511.02	22
2511.93	25
2512.84	24.5
2513.75	28.5
2514.65	21.5
2515.56	27.5
2516.47	24.5
2517.37	23.5
2518.28	22
2519.19	26.5
2520.09	26.5
2521	26
2521.91	23
2522.81	25
2523.72	26
2524.63	24
2525.53	26.5
2526.44	23
2527.34	29
2528.25	28
2529.16	25
2530.06	24
2530.97	22
2531.87	26
2532.78	28.5
2533.68	24.5
2534.58	27
2535.49	24.5
2536.39	26.5
2537.3	23.5
2538.2	24
2539.11	23.5
2540.01	23
2540.91	23.5
2541.82	25
2542.72	26.5
2543.62	26
2544.53	21.5
2545.43	28
2546.33	23.5
2547.23	24.5
2548.14	26
2549.04	23
2549.94	23
2550.84	22
2551.75	18
2552.65	22.5
2553.55	26.5
2554.45	27
2555.35	23
2556.26	22
2557.16	25
2558.06	22.5
2558.96	26
2559.86	25.5
2560.76	24
2561.66	22
2562.56	27.5
2563.46	24
2564.36	27.5
2565.26	28
2566.16	28
2567.06	25.5
2567.96	27
2568.86	25.5
2569.76	25
2570.66	26
2571.56	28
2572.46	24.5
2573.36	24.5
2574.26	27
2575.16	25
2576.05	25
2576.95	23
2577.85	22.5
2578.75	24
2579.65	24.5
2580.54	24
2581.44	27
2582.34	25.5
2583.24	22
2584.13	26
2585.03	23
2585.93	23.5
2586.83	28
2587.72	23.5
2588.62	25
2589.52	22.5
2590.41	25.5
2591.31	24
2592.2	24
2593.1	25.5
2594	25
2594.89	20
2595.79	25.5
2596.68	26
2597.58	27
2598.47	27
2599.37	22.5
2600.26	26
2601.16	26.5
2602.05	23
2602.95	25.5
2603.84	26.5
2604.74	23.5
2605.63	26
2606.52	27.5
2607.42	26
2608.31	26
2609.21	24.5
2610.1	23
2610.99	25.5
2611.89	26
2612.78	24.5
2613.67	25
2614.56	25.5
2615.46	23
2616.35	24
2617.24	23
2618.13	23
2619.03	26.5
2619.92	22
2620.81	22
2621.7	25.5
2622.59	25.5
2623.49	28
2624.38	27
2625.27	24.5
2626.16	26
2627.05	23.5
2627.94	25
2628.83	24
2629.72	24
2630.61	22
2631.5	29.5
2632.39	25
2633.28	26
2634.17	25.5
2635.06	25
2635.95	23
2636.84	24.5
2637.73	24.5
2638.62	22
2639.51	26.5
2640.4	24
2641.29	23.5
2642.18	25.5
2643.07	23.5
2643.96	27
2644.84	26.5
2645.73	24.5
2646.62	27
2647.51	25
2648.4	24.5
2649.28	25
2650.17	22.5
2651.06	23.5
2651.95	26
2652.83	24
2653.72	26
2654.61	25
2655.49	25
2656.38	24
2657.27	24
2658.16	27.5
2659.04	26.5
2659.93	26.5
2660.81	26
2661.7	26
2662.59	23.5
2663.47	22.5
2664.36	23
2665.24	28
2666.13	25.5
2667.01	27
2667.9	23
2668.78	25
2669.67	20.5
2670.55	21.5
2671.44	23.5
2672.32	22
2673.21	27.5
2674.09	24.5
2674.97	25
2675.86	26.5
2676.74	21
2677.62	22
2678.51	23.5
2679.39	23.5
2680.27	24.5
2681.16	30
2682.04	31
2682.92	26
2683.81	24
2684.69	19
2685.57	27
2686.45	28
2687.34	22
2688.22	23
2689.1	26
2689.98	24.5
2690.86	26.5
2691.75	23.5
2692.63	22
2693.51	23.5
2694.39	24.5
2695.27	27.5
2696.15	24
2697.03	26.5
2697.91	29.5
2698.79	28
2699.67	24
2700.55	23.5
2701.43	28
2702.31	20.5
2703.19	24
2704.07	22.5
2704.95	29.5
2705.83	26
2706.71	26
2707.59	22.5
2708.47	25
2709.35	25.5
2710.23	22.5
2711.11	26
2711.99	29.5
2712.86	24.5
2713.74	23.5
2714.62	23
2715.5	24
2716.38	20
2717.26	25.5
2718.13	25.5
2719.01	29.5
2719.89	23
2720.77	23
2721.64	22
2722.52	24.5
2723.4	27
2724.27	23
2725.15	26.5
2726.03	22.5
2726.9	27
2727.78	23
2728.66	27.5
2729.53	27.5
2730.41	26
2731.28	23
2732.16	27
2733.03	26
2733.91	22
2734.79	25.5
2735.66	27.5
2736.54	25.5
2737.41	26
2738.29	21
2739.16	25
2740.03	26
2740.91	30.5
2741.78	26.5
2742.66	22
2743.53	26.5
2744.41	23.5
2745.28	26
2746.15	27.5
2747.03	24
2747.9	21
2748.77	27
2749.65	28
2750.52	25
2751.39	20
2752.27	23
2753.14	26.5
2754.01	24
2754.88	22
2755.75	30
2756.63	26.5
2757.5	26
2758.37	26.5
2759.24	22.5
2760.11	23
2760.99	27
2761.86	21.5
2762.73	22
2763.6	21
2764.47	25
2765.34	24
2766.21	25
2767.08	22
2767.95	28.5
2768.82	29
2769.69	25.5
2770.56	22
2771.43	25.5
2772.3	28
2773.17	25.5
2774.04	24
2774.91	29.5
2775.78	26
2776.65	23.5
2777.52	26.5
2778.39	23.5
2779.26	24
2780.13	25
2780.99	24.5
2781.86	26
2782.73	25.5
2783.6	30.5
2784.47	26.5
2785.34	25
2786.2	24.5
2787.07	26.5
2787.94	25
2788.81	29
2789.67	28.5
2790.54	25.5
2791.41	26
2792.27	25.5
2793.14	29.5
2794.01	25.5
2794.87	26.5
2795.74	26
2796.61	27.5
2797.47	27.5
2798.34	26
2799.21	21.5
2800.07	24
2800.94	25.75
2801.8	25.5
2802.67	28.5
2803.53	25.5
2804.4	26
2805.26	25
2806.13	27.5
2806.99	26.5
2807.86	26
2808.72	27
2809.59	28.5
2810.45	29
2811.32	24.5
2812.18	27.5
2813.04	26
2813.91	27
2814.77	29
2815.64	25
2816.5	30
2817.36	26
2818.22	30
2819.09	28
2819.95	24
2820.81	27
2821.68	23
2822.54	30
2823.4	24
2824.26	24.5
2825.13	29.5
2825.99	27
2826.85	28
2827.71	27
2828.57	27.5
2829.44	26.5
2830.3	24
2831.16	25.5
2832.02	29
2832.88	24
2833.74	27
2834.6	26
2835.46	27.5
2836.32	29
2837.18	25.5
2838.04	28
2838.9	25
2839.76	25.5
2840.62	29.5
2841.48	27.5
2842.34	24
2843.2	27.5
2844.06	26
2844.92	25
2845.78	26
2846.64	27
2847.5	25.5
2848.36	30.5
2849.22	26.5
2850.08	29.5
2850.93	26.5
2851.79	29
2852.65	26
2853.51	25.5
2854.37	26.5
2855.22	29
2856.08	22
2856.94	30
2857.8	25
2858.65	27
2859.51	26
2860.37	29
2861.23	25
2862.08	27.5
2862.94	25.5
2863.79	25.5
2864.65	24
2865.51	27
2866.36	27
2867.22	27.5
2868.08	29
2868.93	25.5
2869.79	31.5
2870.64	27
2871.5	30.5
2872.35	25
2873.21	26
2874.06	31
2874.92	29.5
2875.77	29
2876.63	31.5
2877.48	31.5
2878.34	31.5
2879.19	28.5
2880.05	32.5
2880.9	31
2881.76	31
2882.61	32.5
2883.46	35.5
2884.32	30
2885.17	32
2886.02	34.5
2886.88	34.5
2887.73	35
2888.58	33
2889.44	36
2890.29	40.5
2891.14	36
2891.99	38
2892.85	43
2893.7	43.5
2894.55	46
2895.4	47
2896.25	49
2897.11	52.5
2897.96	48.5
2898.81	55.5
2899.66	52
2900.51	55.5
2901.36	57
2902.21	59
2903.07	61
2903.92	61
2904.77	62
2905.62	56
2906.47	68
2907.32	59.5
2908.17	65
2909.02	55
2909.87	53
2910.72	53.5
2911.57	55.5
2912.42	53
2913.27	50.5
2914.12	46
2914.97	44.5
2915.81	39.5
2916.66	40
2917.51	39.5
2918.36	37
2919.21	34
2920.06	34.5
2920.91	36.5
2921.75	35.5
2922.6	35
2923.45	30
2924.3	32
2925.15	32.5
2925.99	33.5
2926.84	30
2927.69	32.5
2928.54	29
2929.38	31.5
2930.23	27
2931.08	30
2931.92	27
2932.77	27
2933.62	26
2934.46	25
2935.31	27
2936.16	28.5
2937	29.5
2937.85	26
2938.69	30.5
2939.54	31
2940.38	31.5
2941.23	24
2942.08	32
2942.92	28.5
2943.77	30.5
2944.61	28.5
2945.46	30
2946.3	29
2947.15	31.5
2947.99	30.5
2948.83	31.5
2949.68	28.5
2950.52	29.5
2951.37	32.5
2952.21	32.5
2953.05	26
2953.9	29
2954.74	34
2955.58	35
2956.43	36.5
2957.27	38.5
2958.11	33
2958.96	34.5
2959.8	36.5
2960.64	36
2961.48	37.5
2962.33	39
2963.17	37
2964.01	42
2964.85	38
2965.69	42
2966.54	39
2967.38	40
2968.22	42.5
2969.06	43
2969.9	40
2970.74	36
2971.58	39.4976
2972.43	34.4037
2973.27	36.0276
2974.11	36.9717
2974.95	30.5813
2975.79	33.9415
2976.63	31.6514
2977.47	33.1457
2978.31	31.5965
2979.15	26.2552
2979.99	34.0737
2980.83	26.9954
2981.67	29.1027
2982.51	25.3481
2983.35	25.3016
2984.19	28.3783
2985.03	28.4704
2985.86	26.6255
2986.7	25.5309
2987.54	25.6614
2988.38	27.963
2989.22	29.8493
2990.06	23.5946
2990.9	22.3584
2991.73	24.7157
2992.57	23.7421
2993.41	28.3568
2994.25	21.0983
2995.09	26.0024
2995.92	24.9748
2996.76	27.8926
2997.6	23.4276
2998.44	26.0801
2999.27	24.4409
3000.11	24.786
3000.95	22.8158
3001.78	26.1494
3002.62	24.4437
3003.46	23.9196
3004.29	24.8573
3005.13	26.4583
3005.96	23.1725
3006.8	27.549
3007.64	24.5018
3008.47	25.6254
3009.31	20.6355
3010.14	24.567
3010.98	25.4248
3011.81	24.7494
3012.65	25.3192
3013.48	24.0425
3014.32	25.5889
3015.15	25.5588
3015.99	24.3372
3016.82	24.4479
3017.66	22.6296
3018.49	23.8747
3019.33	24.701
3020.16	24.8215
3020.99	23.0387
3021.83	24.3695
3022.66	25.4473
3023.5	24.483
3024.33	24.2426
3025.16	24.2565
3026	23.066
3026.83	24.0932
3027.66	24.0749
3028.49	24.0311
3029.33	24.3813
3030.16	24.2485
3030.99	23.8456
3031.83	24.4305
3032.66	24.5133
3033.49	21.4497
3034.32	23.7981
3035.15	25.7763
3035.99	25.7524
3036.82	23.051
3037.65	21.3372
3038.48	22.9923
3039.31	24.6086
3040.14	25.469
3040.97	24.4877
3041.81	21.8247
3042.64	24.4432
3043.47	23.3878
3044.3	21.4546
3045.13	23.8485
3045.96	23.882
3046.79	24.8985
3047.62	25.9556
3048.45	25.5979
3049.28	23.9672
3050.11	22.9803
3050.94	23.9266
3051.77	25.2882
3052.6	26.3205
3053.43	24.1129
3054.26	23.994
3055.08	24.4233
3055.91	22.7264
3056.74	22.4634
3057.26	24
3058.09	21
3058.92	21.5
3059.76	24
3060.59	21
3061.42	24
3062.25	24
3063.09	27
3063.92	25.5
3064.75	23.5
3065.58	20
3066.42	22.5
3067.25	20.5
3068.08	21
3068.91	21
3069.74	27
3070.57	21.5
3071.41	23
3072.24	23
3073.07	27.5
3073.9	23.5
3074.73	25
3075.56	23.5
3076.39	23
3077.22	19
3078.05	24
3078.88	21
3079.71	24.5
3080.54	22.5
3081.37	24.5
3082.2	25
3083.03	24
3083.86	27
3084.69	28.5
3085.52	26
3086.35	25.5
3087.18	23.5
3088.01	22
3088.84	21.5
3089.67	22
3090.5	23
3091.32	22
3092.15	24
3092.98	24
3093.81	25
3094.64	21
3095.47	27.5
3096.29	23.5
3097.12	26
3097.95	27.5
3098.78	19.5
3099.6	21
3100.43	23.5
3101.26	26
3102.09	26
3102.91	24
3103.74	24
3104.57	20.5
3105.39	25.5
3106.22	25
3107.05	25
3107.87	26
3108.7	28.5
3109.52	20
3110.35	24
3111.18	22
3112	22.5
3112.83	21
3113.65	26.5
3114.48	26
3115.3	22.5
3116.13	26
3116.95	20
3117.78	23
3118.6	25
3119.43	25
3120.25	23
3121.08	22
3121.9	26
3122.72	26.5
3123.55	22.5
3124.37	23.5
3125.2	25
3126.02	23
3126.84	26.5
3127.67	23
3128.49	32
3129.31	22.5
3130.14	26
3130.96	25
3131.78	23
3132.61	22
3133.43	25
3134.25	26
3135.07	23
3135.89	24.5
3136.72	27.5
3137.54	24.5
3138.36	24.5
3139.18	26
3140	26.5
3140.83	23
3141.65	25
3142.47	24
3143.29	24.5
3144.11	17
3144.93	23.5
3145.75	25
3146.57	25.5
3147.4	24
3148.22	28
3149.04	23.5
3149.86	25.5
3150.68	20
3151.5	25.5
3152.32	26
3153.14	26.5
3153.96	26
3154.78	26.5
3155.59	24.5
3156.42	24
3157.23	24.5
3158.05	28
3158.87	24.5
3159.69	27
3160.51	18.5
3161.33	29
3162.15	21
3162.97	21
3163.78	23
3164.6	21.5
3165.42	23.5
3166.24	27
3167.06	23.5
3167.87	26.5
3168.69	26.5
3169.51	25
3170.33	26
3171.14	24
3171.96	23
3172.78	23
3173.6	21.5
3174.41	25
3175.23	26
3176.05	22
3176.86	25
3177.68	28
3178.5	21.5
3179.31	25.5
3180.13	27
3180.94	24.5
3181.76	27.5
3182.58	23
3183.39	25.5
3184.21	26
3185.02	23.5
3185.84	23.5
3186.65	21.5
3187.47	21.5
3188.28	26
3189.1	24
3189.91	22.5
3190.73	26.5
3191.54	26
3192.36	22.5
3193.17	26.5
3193.98	23.5
3194.8	23
3195.61	24
3196.43	27.5
3197.24	25.5
3198.05	25.5
3198.87	23.5
3199.68	24.5
3200.49	27
3201.31	25
3202.12	22
3202.93	27
3203.75	26
3204.56	27.5
3205.37	23.5
3206.18	25
3207	22.5
3207.81	24
3208.62	27.5
3209.43	23.5
3210.24	24
3211.06	27
3211.87	24.5
3212.68	22
3213.49	24
3214.3	25.5
3215.11	22
3215.92	21.5
3216.73	22
3217.55	25
3218.36	28
3219.17	25
3219.98	23
3220.79	22
3221.6	28
3222.41	23
3223.22	26
3224.03	23.5
3224.84	24.5
3225.65	24
3226.46	24
3227.27	26.5
3228.08	23
3228.89	25.5
3229.7	28
3230.5	26.5
3231.31	24
3232.12	26
3232.93	23.5
3233.74	27.5
3234.55	22
3235.36	28.5
3236.16	26
3236.97	25
3237.78	23.5
3238.59	24.5
3239.4	27
3240.2	25
3241.01	23
3241.82	23.5
3242.63	26
3243.43	26
3244.24	26.5
3245.05	26
3245.85	27
3246.66	27
3247.47	24
3248.27	21
3249.08	28
3249.89	26
3250.69	25.5
3251.5	24.5
3252.31	21.5
3253.11	27.5
3253.92	26.5
3254.72	27
3255.53	26
3256.33	25
3257.14	20.5
3257.94	28
3258.75	24.5
3259.55	24
3260.36	26
3261.16	28.5
3261.97	24.5
3262.77	28
3263.58	26
3264.38	21.5
3265.19	22.5
3265.99	21
3266.79	24.5
3267.6	26
3268.4	23.5
3269.21	26
3270.01	30.5
3270.81	21.5
3271.62	26
3272.42	26
3273.22	23.5
3274.03	25.5
3274.83	27
3275.63	26.5
3276.43	24
3277.24	22.5
3278.04	24
3278.84	26
3279.64	27.5
3280.45	23
3281.25	28
3282.05	24.5
3282.85	20
3283.65	21.5
3284.45	24
3285.26	22.5
3286.06	25
3286.86	24.5
3287.66	25
3288.46	25.5
3289.26	18
3290.06	26.5
3290.86	26.5
3291.66	23.5
3292.46	19
3293.26	24
3294.06	27
3294.86	26
3295.66	26
3296.46	28
3297.26	25
3298.06	24.5
3298.86	27.5
3299.66	20.5
3300.46	24.5
3301.26	22.5
3302.06	22
3302.86	27.5
3303.66	26
3304.46	27
3305.25	22.5
3306.05	25
3306.85	24
3307.65	28.5
3308.45	22
3309.25	22
3310.04	23.5
3310.84	25.5
3311.64	25
3312.44	28.5
3313.23	27.5
3314.03	29.5
3314.83	23
3315.63	27.5
3316.42	21.5
3317.22	25
3318.02	25
3318.81	26
3319.61	24
3320.41	26
3321.2	24
3322	23
3322.8	21.5
3323.59	23
3324.39	27.5
3325.18	27
3325.98	26
3326.78	24
3327.57	28
3328.37	24.5
3329.16	24
3329.96	26.5
3330.75	24
3331.55	22.5
3332.34	26
3333.14	25.5
3333.93	25
3334.73	26
3335.52	26
3336.31	25
3337.11	24
3337.9	23.5
3338.7	25
3339.49	24
3340.28	26
3341.08	22
3341.87	24
3342.66	25.5
3343.46	25
3344.25	20
3345.04	24.5
3345.84	26
3346.63	25
3347.42	27
3348.22	26
3349.01	24
3349.8	24
3350.59	26.5
3351.39	27.5
3352.18	23.5
3352.97	20
3353.76	25.5
3354.55	27.5
3355.35	22
3356.14	24
3356.93	24
3357.72	21
3358.51	27
3359.3	21
3360.09	25.5
3360.88	29
3361.67	20
3362.46	22
3363.26	21.5
3364.05	27
3364.84	24.5
3365.63	24
3366.42	26
3367.21	20
3368	27.5
3368.79	24.5
3369.58	22
3370.37	26.5
3371.15	24
3371.94	24.5
3372.73	25.5
3373.52	27
3374.31	24
3375.1	26
3375.89	28.5
3376.68	22
3377.47	22.5
3378.26	26.5
3379.04	28
3379.83	27
3380.62	22
3381.41	27
3382.2	20
3382.98	24.5
3383.77	23
3384.56	22
3385.35	24.5
3386.13	25.5
3386.92	24.5
3387.71	20
3388.5	23.5
3389.28	29
3390.07	28
3390.86	24.5
3391.64	26.5
3392.43	20
3393.22	22.5
3394	28.5
3394.79	26.5
3395.57	23.5
3396.36	23
3397.15	26
3397.93	25
3398.72	21.5
3399.5	22.5
3400.29	25
3401.07	22.5
3401.86	26
3402.65	22
3403.43	25.5
3404.21	22.5
3405	21
3405.78	24
3406.57	21.5
3407.35	26.5
3408.14	24
3408.92	26
3409.71	28
3410.49	26
3411.27	28.5
3412.06	19.5
3412.84	22
3413.62	22.5
3414.41	24
3415.19	22
3415.97	22.5
3416.76	25.5
3417.54	27.5
3418.32	21.5
3419.11	24
3419.89	29
3420.67	25.5
3421.46	20.5
3422.24	24.5
3423.02	28
3423.8	24
3424.58	21.5
3425.37	24
3426.15	22
3426.93	24.5
3427.71	22.5
3428.49	25.5
3429.27	25.5
3430.05	25.5
3430.84	27
3431.62	29
3432.4	26.5
3433.18	24.5
3433.96	26.5
3434.74	25.5
3435.52	25
3436.3	25
3437.08	23.5
3437.86	22
3438.64	26
3439.42	29
3440.2	22
3440.98	25
3441.76	23.5
3442.54	26
3443.32	21
3444.1	27.5
3444.88	20.5
3445.66	22.5
3446.44	30
3447.22	27.5
3448	25
3448.77	25
3449.55	22
3450.33	22.5
3451.11	25
3451.89	27.5
3452.67	27
3453.45	26
3454.22	24.5
3455	26
3455.78	29
3456.56	22
3457.33	26
3458.11	21
3458.89	24
3459.67	23.5
3460.44	26.5
3461.22	26
3462	25
3462.77	24
3463.55	24.5
3464.33	28
3465.1	27
3465.88	23
3466.66	23
3467.43	25
3468.21	19
3468.98	24.5
3469.76	21
3470.54	25.5
3471.31	22.5
3472.09	18
3472.86	24
3473.64	21.5
3474.41	24.5
3475.19	25.5
3475.96	26
3476.74	24.5
3477.51	25.5
3478.29	21
3479.06	28.5
3479.84	25.5
3480.61	27.5
3481.39	27.5
3482.16	20.5
3482.93	27
3483.71	26
3484.48	26.5
3485.25	24.5
3486.03	24
3486.8	20.5
3487.57	27
3488.35	25.5
3489.12	26
3489.89	26
3490.67	22.5
3491.44	25
3492.21	25
3492.99	21.5
3493.76	20
3494.53	24
3495.3	26.5
3496.08	24.5
3496.85	23.5
3497.62	24
3498.39	22.5
3499.16	27.5
3499.93	23
