#Acq. time (s)=	5
#Accumulations=	5
#Range (cm-¹)=	100...3500
#Windows=	4
#Autofocus=	Off
#AutoExposure=	Off
#Spike filter=	Multiple accum.
#Delay time (s)=	0
#Binning=	1
#Readout mode=	Signal
#DeNoise=	Off
#ICS correction=	Off
#Dark correction=	Off
#Inst. Process=	Off
#Instrument=	LabRAM HR Evol
#Detector=	Syncerity OE
#Objective=	x100_VIS
#Grating=	600 (500nm)
#ND Filter=	25%
#Laser=	633nm_Edge
#Hole=	100.021
#Range=	Visible
#Project=	verificaciones
#Sample=	at5
#Site=	plain
#Title=	bolusat5plain
#Remark=	
#Date=	13.01.2026 16:59
#Acquired=	13.01.2026 16:59:03
100.692	23
101.975	28
103.258	28
104.542	24
105.824	25
107.107	25.5
108.39	22
109.672	26
110.954	24
112.236	26
113.519	26.5
114.8	26
116.081	21.5
117.362	28.5
118.643	21
119.924	24
121.204	30
122.484	25
123.764	27.5
125.044	25.5
126.323	25
127.603	28
128.882	23.5
130.161	23.5
131.438	21.5
132.716	23.5
133.995	25
135.273	22
136.55	26
137.828	23.5
139.106	26.5
140.383	27
141.66	26.5
142.937	24.5
144.213	28.5
145.488	27
146.764	26
148.04	25
149.316	24.5
150.592	32.5
151.867	23
153.141	30.5
154.416	23
155.69	25.5
156.965	24.5
158.239	21.5
159.512	26
160.786	26
162.059	21
163.333	30
164.605	24.5
165.878	28
167.15	23.5
168.423	28
169.694	27.5
170.966	22
172.238	26.5
173.51	26.5
174.78	25
176.052	26
177.323	24
178.592	24
179.863	26.5
181.134	26
182.403	24.5
183.673	27
184.943	28.5
186.211	28.5
187.481	29
188.749	26
190.018	26.5
191.287	24
192.554	27
193.822	25
195.089	22.5
196.357	26
197.625	27
198.891	25
200.159	23
201.425	28.5
202.692	24
203.957	24
205.224	24
206.489	27
207.755	29
209.02	26.5
210.286	23.5
211.55	24
212.815	28.5
214.079	26
215.344	27
216.607	24
217.872	28.5
219.135	28.5
220.399	22.5
221.662	28
222.924	29
224.187	24
225.449	24
226.713	24.5
227.974	27.5
229.235	26
230.498	29
231.759	29
233.019	24.5
234.281	22
235.542	27.5
236.802	29.5
238.063	21.5
239.323	23
240.582	29
241.843	26
243.102	26.5
244.361	24
245.621	25.5
246.879	27.5
248.138	20
249.396	27
250.655	28
251.913	29
253.17	26
254.427	27.5
255.686	25.5
256.943	20
258.199	20.5
259.456	24
260.712	26
261.969	23
263.225	29.5
264.481	22.5
265.736	26.5
266.991	28
268.246	22
269.502	27
270.757	25.5
272.011	24
273.265	26
274.519	25.5
275.773	29.5
277.027	24.5
278.28	18
279.533	27
280.786	27
282.04	24
283.293	24
284.545	28
285.798	25.5
287.049	28
288.301	26
289.553	26.5
290.804	24
292.055	22.5
293.306	20
294.557	28
295.807	28
297.058	26
298.308	24.5
299.558	23
300.808	30.5
302.057	27
303.305	28.5
304.554	25
305.803	26
307.052	25.5
308.3	21
309.549	27
310.797	24.5
312.045	26
313.292	27.5
314.54	25
315.786	27
317.033	25.5
318.28	29
319.526	21
320.773	28
322.019	25
323.264	25
324.51	27
325.755	28
327.001	25.5
328.246	27
329.49	25
330.735	28.5
331.979	24
333.224	28
334.467	23.5
335.711	24
336.955	27
338.199	24.5
339.441	25
340.684	22.5
341.927	27
343.168	26.5
344.411	24.5
345.654	25
346.895	27
348.137	23
349.379	25.5
350.619	28
351.86	28
353.102	24
354.341	28.5
355.582	22
356.821	27
358.062	27.5
359.302	27
360.541	26
361.781	25.5
363.019	21.5
364.259	29.5
365.496	25
366.736	27
367.974	27
369.212	28.5
370.45	22
371.687	25.5
372.925	21.5
374.162	25.5
375.399	25.5
376.635	27.5
377.873	25
379.109	29.5
380.344	27.5
381.581	23
382.816	27.5
384.052	28.5
385.287	24.5
386.523	24
387.757	25
388.991	24.5
390.227	28
391.46	24.5
392.695	25.5
393.928	27.5
395.162	27
396.396	28
397.629	23
398.861	26.5
400.095	26
401.327	31.5
402.559	28
403.792	25
405.024	27
406.255	25
407.488	26.5
408.719	29.5
409.949	28
411.18	24
412.412	23
413.642	25
414.872	28
416.102	27.5
417.333	23.5
418.562	26.5
419.791	26
421.02	28
422.249	30
423.479	27
424.707	24
425.935	24
427.163	26
428.391	24
429.619	24
430.848	25.5
432.075	25
433.302	25.5
434.529	23
435.755	26.5
436.982	26.5
438.208	24
439.434	28.5
440.66	27.5
441.885	26.5
443.111	29
444.338	27.5
445.563	19
446.788	27
448.012	29
449.237	28.5
450.461	23
451.685	29.5
452.909	25.5
454.133	26
455.356	22.5
456.579	25
457.802	21
459.025	27
460.247	25
461.469	26.5
462.691	26.5
463.914	26
465.136	27.5
466.357	24
467.579	27.5
468.8	26.5
470.021	31
471.242	26
472.462	25
473.682	25
474.903	25.5
476.123	28
477.343	28.5
478.563	26.5
479.782	29.5
481	27
482.219	26
483.438	26.5
484.657	25.5
485.874	29
487.093	29
488.311	30
489.529	30
490.747	34.5
491.963	25
493.181	26.5
494.398	26
495.614	29
496.83	26.5
498.047	28.5
499.264	24
500.479	26
501.695	27.5
502.911	27.5
504.125	28.5
505.34	24
506.554	26
507.769	23.5
508.984	26
510.198	25
511.412	28.5
512.627	21
513.839	29.5
515.053	26
516.266	30
517.479	24
518.691	27
519.905	25
521.118	26
522.329	25.5
523.542	26.5
524.753	25
525.965	30
527.176	27
528.388	24.5
529.598	22.5
530.809	29.5
532.019	29
533.23	28.5
534.44	28
535.649	30
536.86	29.5
538.068	26.5
539.279	28.5
540.487	27.5
541.697	26.5
542.905	24.5
544.113	24
545.322	25.5
546.53	22.5
547.737	28.5
548.946	28
550.153	25
551.361	24
552.568	25
553.774	24
554.982	25
556.188	28
557.394	24
558.599	27
559.806	26.5
561.012	24.5
562.217	21
563.423	28
564.628	25
565.832	27.5
567.036	27.5
568.241	30
569.446	24.5
570.65	23.5
571.853	24.5
573.057	23.5
574.26	27
575.464	26
576.667	27
577.87	26
579.072	28.5
580.274	28
581.477	23.5
582.68	26
583.881	24
585.083	26.5
586.284	24
587.485	25
588.686	28
589.887	24.5
591.087	25.5
592.288	27
593.488	28.5
594.688	30
595.888	25.5
597.087	27
598.287	27
599.486	25
600.685	28.5
601.884	29
603.082	24.5
604.281	30
605.479	24.5
606.677	23.5
607.875	27.5
609.073	28.5
610.27	27
611.468	25
612.665	24.5
613.862	29.5
615.058	26.5
616.255	27.5
617.451	30
618.648	24.5
619.842	27.5
621.038	23.5
622.234	26.5
623.429	24
624.624	26.5
625.819	24
627.013	25
628.207	27
629.402	24
630.596	27
631.79	26
632.983	25
634.177	28
635.37	29.5
636.564	24
637.755	24
638.948	27.5
640.141	27.5
641.334	27.5
642.525	25
643.717	26
644.909	23
646.099	27.5
647.291	26
648.483	27
649.674	29
650.864	27.5
652.055	29
653.244	23
654.435	26.5
655.625	24.5
656.814	28
658.004	27.5
659.193	24
660.382	25.5
661.571	26.5
662.759	27
663.948	25
665.135	26
666.324	25.5
667.511	26
668.7	26
669.886	25.5
671.074	27
672.262	29
673.448	22.5
674.634	28.5
675.821	25.5
677.007	25.5
678.194	27.5
679.379	28.5
680.565	27
681.75	28
682.936	30
684.121	26
685.305	23
686.491	27.5
687.675	22
688.86	26
690.043	27
691.227	26
692.411	29.5
693.594	24.5
694.777	26.5
695.961	28.5
697.144	27
698.326	27
699.509	25.5
700.691	27
701.873	26.5
703.056	30.5
704.237	28
705.419	29
706.599	30.5
707.782	27.5
708.962	30
710.143	28
711.323	28.5
712.504	24.5
713.684	28
714.864	27.5
716.043	27
717.223	24
718.403	27.5
719.582	28.5
720.761	27
721.94	27.5
723.118	18.5
724.296	28.5
725.474	25
726.652	27
727.831	26
729.009	29.5
730.186	30.5
731.363	30
732.54	22
733.717	23
734.893	23.5
736.07	24.5
737.246	28
738.422	30.5
739.598	23
740.773	25.5
741.949	24.5
743.124	25.5
744.299	26
745.474	28
746.649	26
747.823	28
748.997	26.5
750.172	27
751.346	27.5
752.519	25
753.693	30
754.867	28
756.038	27
757.211	23
758.384	26
759.557	24
760.73	25.5
761.902	28
763.074	28
764.246	24.5
765.417	29.5
766.588	26
767.76	25
768.931	25.5
770.102	31.5
771.271	24.5
772.442	29
773.613	27.5
774.783	28.5
775.952	27
777.122	28.5
778.291	26
779.461	26
780.629	29
781.798	24
782.967	23
784.135	30
785.304	26
786.472	24.5
787.639	28.5
788.807	25.5
789.975	26.5
791.142	26
792.309	25
793.477	25
794.642	27.5
795.81	27
796.975	24
798.142	25
799.308	29.5
800.473	26.5
801.639	28.5
802.804	28
803.97	22.5
805.134	26
806.299	23.5
807.463	26.5
808.628	27
809.792	23
810.957	25.5
812.12	23.5
813.284	25
814.447	27
815.611	30.5
816.773	28.5
817.937	25
819.099	27
820.261	26
821.424	27
822.585	24
823.748	26.5
824.909	28
826.07	27.5
827.232	27
828.393	28
829.554	25.5
830.715	27.5
831.875	27.5
833.035	22.5
834.196	23.5
835.356	24
836.515	28
837.676	27.5
838.835	26
839.994	27.5
841.152	29
842.312	28
843.47	25.5
844.629	25
845.786	22
846.946	28.5
848.103	27.5
849.261	26
850.418	27.5
851.575	24.5
852.733	25
853.89	28
855.046	20.5
856.203	25
857.359	27.5
858.515	29
859.67	28
860.827	25.5
861.983	25
863.138	28.5
864.293	26
865.448	26.5
866.603	27
867.757	27
868.912	29.5
870.066	25
871.22	24.5
872.374	27
873.527	21.5
874.681	27
875.834	26
876.987	30
878.14	25.5
879.293	27
880.445	23
881.598	28.5
882.75	27.5
883.902	27
885.054	27
886.206	26.5
887.357	24
888.507	25
889.658	22.5
890.809	26
891.96	21
893.111	25.5
894.261	27
895.411	30
896.561	27.5
897.71	24.5
898.86	23.5
900.009	24
901.159	25.5
902.308	28.5
903.455	26
904.604	27
905.753	26.5
906.901	26.5
908.048	25
909.197	23
910.344	28.5
911.492	25.5
912.639	27.5
913.786	22
914.933	26.5
916.079	23
917.226	26.5
918.373	29
919.518	29
920.664	26
921.81	25
922.955	22.5
924.101	27
925.245	27.5
926.391	24
927.536	25
928.68	29
929.825	27
930.968	22
932.113	27
933.256	27.5
934.4	26
935.543	22.5
936.687	27.5
937.83	23.5
938.973	24
940.115	25.5
941.258	25
942.399	29
943.542	23.5
944.684	24
945.826	26
946.967	25.5
948.109	28
949.25	26.5
950.392	28
951.532	25.5
952.672	23
953.813	23
954.953	24
956.093	27
957.233	27
958.373	26
959.512	23.5
960.652	19
961.791	24
962.929	23.5
964.069	24.5
965.207	25.5
966.345	24.5
967.484	23
968.622	22.5
969.759	23.5
970.896	25.5
972.035	25
973.172	24.5
974.309	23.5
975.445	25
976.582	25.5
977.719	27
978.855	23
979.991	22
981.127	29
982.263	25
983.398	22
984.535	22.5
985.67	25.5
986.804	23.5
987.939	24
989.074	22.5
990.208	27
991.342	23.5
992.476	22.5
993.61	26.5
994.744	26.5
995.877	24
997.01	24
998.143	22
999.276	23
1000.41	25
1001.54	26
1002.67	28.5
1003.81	27.5
1004.94	20
1006.07	25.5
1007.2	23
1008.33	26.5
1009.47	26
1010.6	23
1011.73	28.5
1012.86	26
1013.99	27
1015.12	29
1016.25	22
1017.38	26
1018.51	27
1019.64	22
1020.77	25.5
1021.9	24
1023.03	25
1024.15	26
1025.28	25.5
1026.41	24
1027.54	23.5
1028.67	25.5
1029.8	27
1030.92	22.5
1032.05	25
1033.18	25
1034.31	24
1035.43	26
1036.56	21
1037.69	22
1038.81	27.5
1039.94	27
1041.07	26
1042.19	24.5
1043.32	23.5
1044.44	24.5
1045.57	25.5
1046.69	23.5
1047.82	17.5
1048.94	26
1050.07	24
1051.19	24
1052.32	27
1053.44	24
1054.57	23
1055.69	24
1056.81	22.5
1057.94	26.5
1059.06	21.5
1060.18	21.5
1061.31	26.5
1062.43	26.5
1063.55	17
1064.67	24.5
1065.8	22
1066.92	25.5
1068.04	22.5
1069.16	24
1070.28	25.5
1071.4	25.5
1072.52	27
1073.64	27
1074.76	23.5
1075.89	26
1077.01	23.5
1078.13	22.5
1079.25	23.5
1080.37	24
1081.49	25.5
1082.6	25.5
1083.72	27
1084.84	23
1085.96	22.5
1087.08	24
1088.2	20.5
1089.32	21
1090.43	25.5
1091.55	20
1092.67	27
1093.79	23
1094.91	25
1096.02	24.5
1097.14	25.5
1098.26	22
1099.37	21
1100.49	26.5
1101.61	24.5
1102.72	23
1103.84	25
1104.95	24.5
1106.07	24
1107.18	28
1108.3	24
1109.41	24
1110.53	25
1111.64	23
1112.76	25
1113.87	26
1114.99	24
1116.1	22.5
1117.21	25
1118.33	23.5
1119.44	22
1120.55	24
1121.67	22
1122.78	25
1123.89	21
1125	26
1126.12	24
1127.23	23
1128.34	23.5
1129.45	26
1130.56	21
1131.68	22
1132.79	22
1133.9	24.5
1135.01	25
1136.12	24
1137.23	26
1138.34	24.5
1139.45	24
1140.56	20.5
1141.67	21
1142.78	24.5
1143.89	20.5
1145	23.5
1146.11	27
1147.22	23.5
1148.32	22
1149.43	23.5
1150.54	24
1151.65	22
1152.76	27
1153.86	20
1154.97	25.5
1156.08	23
1157.19	24
1158.29	23
1159.4	26.5
1160.51	22
1161.61	26
1162.72	23
1163.83	25
1164.93	26.5
1166.04	23.5
1167.14	29.5
1168.25	26
1169.35	29
1170.46	26.5
1171.56	24.5
1172.67	21.5
1173.77	25
1174.88	21.5
1175.98	22.5
1177.08	24.5
1178.19	27
1179.29	24
1180.4	26.5
1181.5	23.5
1182.6	23
1183.71	22
1184.81	22
1185.91	21
1187.01	21
1188.12	26
1189.22	27
1190.32	21.5
1191.42	24
1192.52	25.5
1193.62	21
1194.72	20.9998
1195.83	23.4482
1196.93	21.0905
1198.03	27.0545
1199.13	23.0618
1200.23	21.0939
1201.33	25.0048
1202.43	23.3507
1203.53	20.6969
1204.63	24.6176
1205.73	25.8049
1206.83	22.1922
1207.92	24.5716
1209.02	22.3119
1210.12	25.6201
1211.22	25.4249
1212.32	24.0995
1213.42	23.6489
1214.51	20.2809
1215.61	23.5866
1216.71	23.3972
1217.81	25.9752
1218.9	22.3447
1220	22.8328
1221.1	23.964
1222.19	24.1543
1223.29	23.2627
1224.39	23.5656
1225.48	22.4578
1226.58	25.1003
1227.68	21.6132
1228.77	25.348
1229.87	24.0534
1230.96	26.7417
1232.06	23.3152
1233.15	22.3764
1234.25	24.0015
1235.34	22.9867
1236.43	19.1939
1237.53	23
1238.62	23.3166
1239.72	22.7052
1240.81	22.7958
1241.9	19.3926
1243	25.1427
1244.09	23.3392
1245.18	22.1509
1246.27	22.9864
1247.37	22.0078
1248.46	21.417
1249.55	24.9271
1250.64	23.0383
1251.74	22.4917
1252.83	22.7868
1253.92	23.7937
1255.01	21.6322
1256.1	21.2713
1257.19	23.8164
1258.28	21.9377
1259.38	21.7871
1260.46	23.845
1261.56	21.6927
1262.65	23.5039
1263.74	24
1264.82	21.3574
1265.91	21.9517
1267	21.8365
1268.09	22.5207
1269.18	23.8991
1270.27	24.528
1271.36	24.6311
1272.45	24.7613
1273.54	21.449
1274.63	21.5685
1275.71	23.3455
1276.8	22.4209
1277.89	23.0289
1278.98	23.8962
1280.06	22.385
1281.15	20.8145
1282.24	23.5679
1283.32	25.5095
1284.41	24.8896
1285.5	21.8341
1286.58	21.0283
1287.67	25.4212
1288.76	22.681
1289.84	19.666
1290.93	23.9057
1292.01	20.445
1293.1	22.8635
1294.18	23.0895
1295.27	22.2084
1296.35	24.425
1297.44	23.2892
1298.52	20.8646
1299.6	22.2284
1300.69	26.0044
1301.77	25.9127
1302.86	23.5098
1303.94	23.0728
1305.02	21.5528
1306.11	26.0027
1306.41	28
1307.5	25
1308.59	22.5
1309.68	25
1310.77	25
1311.85	21.5
1312.94	23.5
1314.03	19
1315.11	20
1316.2	25
1317.29	24
1318.37	24
1319.46	26
1320.55	27
1321.63	18.5
1322.72	24.5
1323.8	23.5
1324.89	18
1325.98	24
1327.06	25
1328.15	22
1329.23	22.5
1330.31	23.5
1331.4	23.5
1332.48	22.5
1333.57	21
1334.65	24
1335.74	23.5
1336.82	24.5
1337.9	24
1338.99	23.5
1340.07	22.5
1341.15	22
1342.24	30
1343.32	27
1344.4	24
1345.48	26.5
1346.56	22.5
1347.65	21
1348.73	19.5
1349.81	20
1350.89	25
1351.97	23.5
1353.05	21.5
1354.13	22
1355.21	20
1356.29	26.5
1357.37	22.5
1358.46	24
1359.54	22.5
1360.62	20.5
1361.69	27.5
1362.77	24.5
1363.85	24
1364.93	20.5
1366.01	25
1367.09	21.5
1368.17	25
1369.25	23.5
1370.33	24.5
1371.41	21
1372.48	21.5
1373.56	24
1374.64	25
1375.72	23.5
1376.79	27
1377.87	25.5
1378.95	23
1380.02	24
1381.1	22.5
1382.18	26.5
1383.25	22.5
1384.33	21
1385.4	26.5
1386.48	22
1387.56	23.5
1388.63	28.5
1389.71	20.5
1390.78	23.5
1391.86	26
1392.93	23
1394.01	27.5
1395.08	24
1396.15	24.5
1397.23	22.5
1398.3	21
1399.38	23.5
1400.45	27.5
1401.52	28
1402.6	25.5
1403.67	26
1404.74	27.5
1405.81	24
1406.89	21.5
1407.96	25
1409.03	24
1410.1	26
1411.17	24
1412.25	25
1413.32	21.5
1414.39	31
1415.46	22.5
1416.53	21
1417.6	21
1418.67	24
1419.74	23.5
1420.81	22
1421.88	25
1422.95	23.5
1424.02	23
1425.09	24
1426.16	25.5
1427.23	26.5
1428.3	22
1429.37	25.5
1430.44	20
1431.51	20
1432.58	23
1433.64	23
1434.71	24.5
1435.78	27
1436.85	24.5
1437.92	23.5
1438.98	31.5
1440.05	20.5
1441.12	26
1442.18	25
1443.25	27
1444.32	25.5
1445.38	28.5
1446.45	22
1447.52	25
1448.58	24
1449.65	20
1450.71	25.5
1451.78	25.5
1452.84	29
1453.91	25
1454.97	23.5
1456.04	26
1457.1	22
1458.17	26
1459.23	23.5
1460.3	24.5
1461.36	23
1462.42	25
1463.49	28.5
1464.55	22.5
1465.61	25.5
1466.68	22
1467.74	27.5
1468.8	24.5
1469.86	23
1470.93	24
1471.99	23.5
1473.05	24
1474.11	24
1475.17	20
1476.24	25
1477.3	18.5
1478.36	23
1479.42	22.5
1480.48	25
1481.54	24
1482.6	24.5
1483.66	23
1484.72	25.5
1485.78	24.5
1486.84	24.5
1487.9	23.5
1488.96	26.5
1490.02	26
1491.08	21
1492.14	24
1493.2	26
1494.26	23
1495.31	27
1496.37	23
1497.43	24
1498.49	25
1499.55	25
1500.6	21.5
1501.66	29
1502.72	28.5
1503.78	26.5
1504.83	24
1505.89	26
1506.95	23
1508	24.5
1509.06	27.5
1510.12	27.5
1511.17	21
1512.23	23.5
1513.28	25.5
1514.34	26.5
1515.39	26
1516.45	25
1517.5	23.5
1518.56	23
1519.61	27.5
1520.67	23
1521.72	24.5
1522.78	24
1523.83	25.5
1524.88	24.5
1525.94	23.5
1526.99	27.5
1528.05	20
1529.1	24.5
1530.15	24.5
1531.2	27
1532.26	27
1533.31	23.5
1534.36	25
1535.41	25
1536.47	23
1537.52	28
1538.57	26
1539.62	25
1540.67	19.5
1541.72	23.5
1542.77	27
1543.83	25
1544.88	25
1545.93	24
1546.98	25
1548.03	22
1549.08	24
1550.13	26.5
1551.18	22
1552.23	27.5
1553.28	27.5
1554.32	23.5
1555.37	23.5
1556.42	24
1557.47	24
1558.52	24
1559.57	22
1560.62	25
1561.67	27
1562.71	25.5
1563.76	24
1564.81	24
1565.86	26
1566.9	23.5
1567.95	24.5
1569	25
1570.04	21.5
1571.09	26
1572.14	26.5
1573.18	27
1574.23	21.5
1575.27	23
1576.32	26.5
1577.37	24.5
1578.41	19
1579.46	24.5
1580.5	22.5
1581.55	19.5
1582.59	21
1583.64	23.5
1584.68	22.5
1585.72	27
1586.77	26
1587.81	23.5
1588.86	21.5
1589.9	27
1590.94	31.5
1591.99	23
1593.03	26
1594.07	22
1595.12	24.5
1596.16	24.5
1597.2	19
1598.24	25.5
1599.29	23.5
1600.33	24.5
1601.37	21
1602.41	26
1603.45	24
1604.49	22
1605.53	27
1606.58	24.5
1607.62	26
1608.66	24.5
1609.7	22
1610.74	22
1611.78	22
1612.82	25.5
1613.86	26.5
1614.9	22.5
1615.94	26
1616.98	22
1618.02	25.5
1619.06	20
1620.09	23.5
1621.13	24.5
1622.17	23
1623.21	27
1624.25	26
1625.29	25
1626.32	26.5
1627.36	27
1628.4	25.5
1629.44	23.5
1630.47	24
1631.51	25
1632.55	21.5
1633.58	27
1634.62	22.5
1635.66	25
1636.69	22.5
1637.73	22
1638.77	26.5
1639.8	24
1640.84	21.5
1641.87	26
1642.91	22
1643.94	27
1644.98	26
1646.01	24.5
1647.05	24
1648.08	23
1649.12	27
1650.15	24
1651.18	24.5
1652.22	24
1653.25	20
1654.29	26
1655.32	23.5
1656.35	23.5
1657.39	28.5
1658.42	22
1659.45	28
1660.48	22
1661.52	23
1662.55	24
1663.58	29
1664.61	23.5
1665.64	23.5
1666.68	26
1667.71	22
1668.74	24
1669.77	22
1670.8	26
1671.83	28.5
1672.86	20
1673.89	27.5
1674.92	28
1675.95	25
1676.98	23
1678.01	24
1679.04	26.5
1680.07	27.5
1681.1	22
1682.13	25
1683.16	26
1684.19	25
1685.22	23.5
1686.25	26
1687.27	25.5
1688.3	22.5
1689.33	24
1690.36	23.5
1691.38	23.5
1692.41	19
1693.44	26.5
1694.47	21.5
1695.49	24
1696.52	25
1697.55	19
1698.57	25
1699.6	23
1700.63	24
1701.65	24
1702.68	24
1703.7	27
1704.73	25
1705.76	24
1706.78	25
1707.81	28
1708.83	28
1709.86	20.5
1710.88	24.5
1711.91	22
1712.93	23
1713.95	27.5
1714.98	26
1716	22.5
1717.03	23.5
1718.05	25.5
1719.07	23
1720.1	25.5
1721.12	25.5
1722.14	21
1723.16	24.5
1724.19	25
1725.21	24.5
1726.23	26.5
1727.25	27.5
1728.28	21
1729.3	26
1730.32	24.5
1731.34	23
1732.36	26.5
1733.38	25.5
1734.41	20.5
1735.43	27
1736.45	22
1737.47	24.5
1738.49	25
1739.51	25
1740.53	24.5
1741.55	23
1742.57	25
1743.59	25.5
1744.61	24.5
1745.63	26.5
1746.64	25
1747.66	24
1748.68	26.5
1749.7	24.5
1750.72	24
1751.74	23
1752.76	24
1753.77	22.5
1754.79	24
1755.81	22.5
1756.83	25
1757.84	22
1758.86	25.5
1759.88	23
1760.9	29
1761.91	23
1762.93	24.5
1763.95	23.5
1764.96	30.5
1765.98	26
1766.99	22
1768.01	27
1769.02	23
1770.04	24
1771.06	23.5
1772.07	23
1773.09	24
1774.1	20
1775.12	28.5
1776.13	27
1777.14	24
1778.16	23.5
1779.17	21.5
1780.19	25
1781.2	25
1782.21	26.5
1783.23	23
1784.24	24
1785.25	23
1786.27	25.5
1787.28	25
1788.29	31.5
1789.3	24
1790.32	25.5
1791.33	23
1792.34	23.5
1793.35	26
1794.36	22.5
1795.38	29
1796.39	27
1797.4	19.5
1798.41	25
1799.42	22
1800.43	26
1801.44	22
1802.45	25.5
1803.46	23
1804.47	23.5
1805.48	20
1806.49	25
1807.5	23
1808.51	20.5
1809.52	21.5
1810.53	26
1811.54	23
1812.55	27.5
1813.56	28.5
1814.57	23.5
1815.57	26.5
1816.58	25.5
1817.59	23
1818.6	24.5
1819.61	22
1820.61	24.5
1821.62	25
1822.63	23
1823.64	26.5
1824.64	22
1825.65	22
1826.66	26
1827.66	24.5
1828.67	24
1829.68	23
1830.68	24
1831.69	23
1832.69	26
1833.7	26
1834.7	22
1835.71	22.5
1836.71	22.5
1837.72	24
1838.72	24
1839.73	21
1840.73	22.5
1841.74	26
1842.74	21
1843.75	20.5
1844.75	28
1845.75	21.5
1846.76	28
1847.76	26
1848.76	26.5
1849.77	23
1850.77	24
1851.77	22
1852.78	23.5
1853.78	23.5
1854.78	30.5
1855.78	28
1856.78	28
1857.79	24.5
1858.79	24.5
1859.79	23
1860.79	26.5
1861.79	28
1862.79	26
1863.79	25
1864.79	23.5
1865.79	26
1866.8	24.5
1867.8	24.5
1868.8	24.5
1869.8	22
1870.8	28
1871.8	25.5
1872.8	23
1873.79	19
1874.79	21.5
1875.79	25.5
1876.79	23.5
1877.79	24.5
1878.79	22.5
1879.79	25.5
1880.79	25
1881.78	23
1882.78	25.5
1883.78	24.5
1884.78	24.5
1885.77	24
1886.77	24.5
1887.77	26
1888.77	25
1889.76	25
1890.76	27.5
1891.76	24.5
1892.75	23.5
1893.75	24
1894.75	23
1895.74	22.5
1896.74	23
1897.73	24
1898.73	25
1899.73	22
1900.72	26
1901.72	24
1902.71	22.5
1903.7	26
1904.7	22.5
1905.69	24
1906.69	26
1907.68	26.5
1908.68	25.5
1909.67	22.5
1910.66	26
1911.66	21
1912.65	26.5
1913.64	22.5
1914.64	19
1915.63	26.5
1916.62	22.5
1917.62	19.5
1918.61	26
1919.6	26
1920.59	25
1921.58	23.5
1922.58	21
1923.57	21
1924.56	25.5
1925.55	23
1926.54	25
1927.53	27
1928.52	26.5
1929.51	27
1930.51	23
1931.5	24
1932.49	26.5
1933.48	20.5
1934.47	24
1935.46	20
1936.45	24.5
1937.44	22.5
1938.42	24
1939.41	22.5
1940.4	25.5
1941.39	28
1942.38	21.5
1943.37	20
1944.36	23
1945.35	22.5
1946.33	23.5
1947.32	26
1948.31	26
1949.3	25
1950.29	23
1951.27	26
1952.26	25
1953.25	20.5
1954.23	24.5
1955.22	22.5
1956.21	22.5
1957.19	19
1958.18	24
1959.17	23
1960.15	24
1961.14	25.5
1962.13	24.5
1963.11	24.5
1964.1	24
1965.08	24.5
1966.07	24
1967.05	23.5
1968.04	21
1969.02	26
1970.01	23
1970.99	23.5
1971.97	20
1972.96	23
1973.94	25
1974.93	22
1975.91	25
1976.89	25.5
1977.88	20.5
1978.86	26
1979.84	25
1980.83	22
1981.81	25.5
1982.79	25.5
1983.77	24.5
1984.76	25
1985.74	25
1986.72	27
1987.7	23
1988.68	23.5
1989.67	22.5
1990.65	26
1991.63	24.5
1992.61	23
1993.59	20
1994.57	23
1995.55	26.5
1996.53	23.5
1997.51	24.5
1998.49	25
1999.47	24
2000.45	23.5
2001.43	28.5
2002.41	21.5
2003.39	20.5
2004.37	27
2005.35	23.5
2006.33	26
2007.31	20.5
2008.29	25
2009.26	23
2010.24	23
2011.22	22
2012.2	22
2013.18	22
2014.15	23
2015.13	25.5
2016.11	21
2017.09	24
2018.06	26
2019.04	22
2020.02	23
2021	23.5
2021.97	22
2022.95	26
2023.92	22
2024.9	24
2025.88	25
2026.85	24.5
2027.83	27
2028.8	26.5
2029.78	25.5
2030.75	24
2031.73	23
2032.7	22.5
2033.68	21.5
2034.65	21.5
2035.63	25
2036.6	24
2037.58	24.5
2038.55	24
2039.52	25.5
2040.5	23
2041.47	20
2042.45	24
2043.42	26
2044.39	23.5
2045.36	22
2046.34	24.5
2047.31	21
2048.28	25
2049.26	24
2050.23	24
2051.2	26.5
2052.17	26.5
2053.14	24.5
2054.12	24.5
2055.09	19
2056.06	26.5
2057.03	25
2058	23
2058.97	21
2059.94	22
2060.91	21.5
2061.88	22.5
2062.85	24
2063.82	21
2064.79	21.5
2065.76	25
2066.73	25
2067.7	27.5
2068.67	23.5
2069.64	25
2070.61	22
2071.58	20.5
2072.55	29.5
2073.52	24.5
2074.49	23.5
2075.45	21
2076.42	23
2077.39	23
2078.36	24
2079.33	29
2080.29	25.5
2081.26	22.5
2082.23	21
2083.2	20
2084.16	24.5
2085.13	23
2086.1	24.5
2087.06	24.5
2088.03	22.5
2089	22
2089.96	23.5
2090.93	22
2091.89	22
2092.86	27.5
2093.83	24.5
2094.79	25
2095.76	23
2096.72	23
2097.69	20
2098.65	26.5
2099.62	27
2100.58	22.5
2101.55	23
2102.51	20.5
2103.47	25
2104.44	20.5
2105.4	21.5
2106.36	23.5
2107.33	20
2108.29	24.5
2109.25	22
2110.22	22.5
2111.18	22.5
2112.14	26
2113.11	26
2114.07	22
2115.03	22.5
2115.99	24.5
2116.96	26
2117.92	19.5
2118.88	22
2119.84	20.5
2120.8	26
2121.76	20.5
2122.72	22.5
2123.68	22.5
2124.65	22
2125.61	26
2126.57	24
2127.53	25.5
2128.49	25
2129.45	23.5
2130.41	18.5
2131.37	27.5
2132.33	26
2133.29	25.5
2134.25	20.5
2135.21	25.5
2136.17	25
2137.12	23.5
2138.08	24.5
2139.04	20
2140	23
2140.96	26.5
2141.92	19.5
2142.88	23.4899
2143.83	25.4363
2144.79	22.062
2145.75	19.6702
2146.71	23.8645
2147.66	22.5081
2148.62	26.7775
2149.58	21.9273
2150.53	24.7937
2151.49	22.876
2152.45	22.2272
2153.4	22.8153
2154.36	24.3101
2155.32	23.6606
2156.27	20.2511
2157.23	24.4298
2158.19	22.7244
2159.14	23.2533
2160.1	25.1429
2161.05	21.5902
2162.01	24.2526
2162.96	23.5984
2163.92	22.973
2164.87	24.2598
2165.83	21.338
2166.78	21.2817
2167.73	23.23
2168.69	21.4853
2169.64	22.5859
2170.6	24.965
2171.55	22.332
2172.5	23.6024
2173.46	22.5657
2174.41	18.5801
2175.36	21.0811
2176.32	23.6743
2177.27	21.5444
2178.22	22.4184
2179.18	23.4722
2180.13	22.069
2181.08	23.4099
2182.03	24.4361
2182.98	22.7783
2183.94	21.148
2184.89	21.3227
2185.84	21.0261
2186.79	22.5485
2187.74	21.6962
2188.69	22.4035
2189.64	22.5087
2190.6	25.1888
2191.55	20.9852
2192.5	19.7641
2193.45	21.5184
2194.4	22.572
2195.35	23.8687
2196.3	20.7756
2197.25	22.2196
2198.2	21.2863
2199.15	22.1441
2200.1	21.1048
2201.04	23.3464
2201.99	22.0174
2202.94	20.6756
2203.89	19.7225
2204.84	21.5682
2205.79	22.0944
2206.74	22.551
2207.69	19.0345
2208.63	21.9043
2209.58	23.6076
2210.53	22.3422
2211.48	22.7124
2212.43	21.8968
2213.37	23.403
2214.32	20.7815
2215.27	21.5325
2216.21	25.2672
2217.16	22.2967
2218.11	22.4563
2219.05	24.0931
2220	22.1883
2220.95	24.5347
2221.89	21.7235
2222.84	24.5534
2223.78	23.5176
2224.73	24.4558
2225.68	23.1922
2226.62	21.6401
2227.57	20.9073
2228.51	23.3473
2229.46	22.2058
2230.4	25.4627
2231.35	22.1183
2232.29	22.6851
2233.24	22.4028
2234.18	21.8794
2235.12	22.8094
2236.07	21.94
2237.01	20.7967
2237.95	23.1472
2238.9	23.9417
2239.84	21.7088
2240.06	21
2241.01	23
2241.96	22
2242.91	24.5
2243.86	25
2244.8	17.5
2245.75	26.5
2246.7	22
2247.65	25
2248.59	21
2249.54	21
2250.49	20
2251.43	22.5
2252.38	24
2253.33	26
2254.27	26
2255.22	23.5
2256.16	22
2257.11	24
2258.06	25.5
2259	21.5
2259.95	20.5
2260.89	24.5
2261.84	25
2262.78	17
2263.73	24
2264.67	21
2265.62	22.5
2266.56	25.5
2267.5	24.5
2268.45	25
2269.39	24
2270.34	22
2271.28	26.5
2272.22	26.5
2273.17	23.5
2274.11	22.5
2275.05	22.5
2276	20
2276.94	20
2277.88	24.5
2278.82	23
2279.77	18.5
2280.71	23
2281.65	24.5
2282.59	23
2283.53	27
2284.48	20.5
2285.42	24
2286.36	24.5
2287.3	23
2288.24	24
2289.18	24.5
2290.12	26
2291.06	22.5
2292	19
2292.94	23
2293.89	20.5
2294.83	21
2295.77	21
2296.71	22
2297.65	25.5
2298.58	22
2299.52	22.5
2300.46	24
2301.4	24
2302.34	20
2303.28	24.5
2304.22	23
2305.16	21
2306.1	19
2307.03	26
2307.97	26.5
2308.91	24
2309.85	27
2310.79	20
2311.72	24
2312.66	26.5
2313.6	22
2314.54	20
2315.47	22
2316.41	23.5
2317.35	24
2318.28	21.5
2319.22	23
2320.16	21.5
2321.09	27
2322.03	24
2322.96	21
2323.9	25
2324.84	21
2325.77	23
2326.71	22
2327.64	21.5
2328.58	21.5
2329.51	21.5
2330.45	25
2331.38	21
2332.32	24
2333.25	24
2334.18	27
2335.12	21.5
2336.05	24
2336.99	25
2337.92	21.5
2338.85	22
2339.79	25.5
2340.72	25
2341.65	22
2342.59	20.5
2343.52	24.5
2344.45	21.5
2345.39	25
2346.32	20
2347.25	25.5
2348.18	23
2349.11	25
2350.05	26
2350.98	23
2351.91	22
2352.84	22.5
2353.77	27
2354.7	22.5
2355.64	20.5
2356.57	23
2357.5	21
2358.43	28
2359.36	24.5
2360.29	24
2361.22	21.5
2362.15	22
2363.08	20.5
2364.01	23
2364.94	29.5
2365.87	25
2366.8	24.5
2367.73	26
2368.66	25
2369.58	21
2370.51	22
2371.44	26
2372.37	26.5
2373.3	19.5
2374.23	23
2375.16	22.5
2376.08	26.5
2377.01	27.5
2377.94	22.5
2378.87	21
2379.8	22
2380.72	23
2381.65	20.5
2382.58	23.5
2383.5	25
2384.43	26
2385.36	25.5
2386.28	25
2387.21	24.5
2388.14	23
2389.06	19
2389.99	20.5
2390.91	24
2391.84	26
2392.77	24.5
2393.69	26
2394.62	21.5
2395.54	24
2396.47	24
2397.39	22.5
2398.32	23
2399.24	28.5
2400.16	24
2401.09	23.5
2402.01	25
2402.94	23.5
2403.86	23
2404.78	25.5
2405.71	22.5
2406.63	25
2407.56	24
2408.48	23
2409.4	26.5
2410.32	25.5
2411.25	22.5
2412.17	25.5
2413.09	25.5
2414.02	23
2414.94	27
2415.86	21.5
2416.78	24.5
2417.7	27
2418.63	28.5
2419.55	21
2420.47	22.5
2421.39	23.5
2422.31	22.5
2423.23	25.5
2424.15	24.5
2425.07	24
2425.99	20.5
2426.92	22
2427.84	25
2428.76	20
2429.68	24
2430.59	25
2431.51	24.5
2432.43	25
2433.35	22
2434.27	20
2435.19	20
2436.11	21.5
2437.03	23
2437.95	25.5
2438.87	23.5
2439.79	20
2440.71	28.5
2441.62	21
2442.54	19.5
2443.46	22.5
2444.38	21
2445.3	25
2446.21	20
2447.13	22.5
2448.05	21
2448.97	23
2449.88	22
2450.8	24
2451.72	23
2452.63	26.5
2453.55	26
2454.47	23.5
2455.38	25
2456.3	22
2457.21	22
2458.13	25.5
2459.05	24.5
2459.96	28.5
2460.88	22.5
2461.79	24
2462.71	25
2463.62	19
2464.54	20.5
2465.45	23.5
2466.37	25
2467.28	22
2468.2	25
2469.11	26.5
2470.02	22
2470.94	26.5
2471.85	24.5
2472.77	24.5
2473.68	25.5
2474.59	22
2475.51	26
2476.42	26
2477.33	26.5
2478.25	24
2479.16	26
2480.07	24.5
2480.98	21
2481.9	21
2482.81	21.5
2483.72	21
2484.63	21
2485.55	27
2486.46	22.5
2487.37	25.5
2488.28	29.5
2489.19	20.5
2490.1	24
2491.01	23.5
2491.92	23
2492.83	23
2493.74	23
2494.66	22
2495.57	27
2496.48	22
2497.39	22
2498.3	24.5
2499.21	22.5
2500.12	24.5
2501.03	23
2501.93	25
2502.84	27.5
2503.75	23.5
2504.66	22
2505.57	22.5
2506.48	21.5
2507.39	25
2508.3	23.5
2509.21	24
2510.11	27
2511.02	25
2511.93	24
2512.84	24.5
2513.75	23.5
2514.65	28
2515.56	23
2516.47	25
2517.37	20.5
2518.28	24
2519.19	23
2520.09	27
2521	26
2521.91	22.5
2522.81	27.5
2523.72	21
2524.63	23.5
2525.53	22
2526.44	23.5
2527.34	23.5
2528.25	24
2529.16	23.5
2530.06	23
2530.97	23.5
2531.87	26.5
2532.78	23.5
2533.68	24.5
2534.58	28.5
2535.49	24
2536.39	21
2537.3	22
2538.2	25.5
2539.11	27.5
2540.01	22
2540.91	21.5
2541.82	22
2542.72	17.5
2543.62	26.5
2544.53	22.5
2545.43	24
2546.33	26
2547.23	23.5
2548.14	23.5
2549.04	22.5
2549.94	23.5
2550.84	25
2551.75	26
2552.65	22
2553.55	27
2554.45	26
2555.35	25
2556.26	22.5
2557.16	20.5
2558.06	24.5
2558.96	25.5
2559.86	28
2560.76	23
2561.66	27
2562.56	26
2563.46	23.5
2564.36	22
2565.26	23
2566.16	23
2567.06	24
2567.96	25
2568.86	28.5
2569.76	29
2570.66	21
2571.56	23.5
2572.46	24
2573.36	25
2574.26	28
2575.16	24
2576.05	25
2576.95	25.5
2577.85	22.5
2578.75	24
2579.65	23
2580.54	24.5
2581.44	26.5
2582.34	22
2583.24	24
2584.13	24.5
2585.03	24
2585.93	22
2586.83	25.5
2587.72	25
2588.62	23
2589.52	24.5
2590.41	24
2591.31	24.5
2592.2	25
2593.1	27.5
2594	25
2594.89	23.5
2595.79	27
2596.68	23
2597.58	25.5
2598.47	26
2599.37	23
2600.26	19
2601.16	24.5
2602.05	26.5
2602.95	22
2603.84	25
2604.74	28.5
2605.63	27
2606.52	22.5
2607.42	27
2608.31	24
2609.21	21.5
2610.1	22
2610.99	26
2611.89	26
2612.78	23.5
2613.67	26.5
2614.56	22.5
2615.46	24
2616.35	23
2617.24	22.5
2618.13	20
2619.03	20.5
2619.92	24
2620.81	26
2621.7	23
2622.59	22
2623.49	26.5
2624.38	20
2625.27	20
2626.16	21
2627.05	26.5
2627.94	25.5
2628.83	24.5
2629.72	22.5
2630.61	28
2631.5	26
2632.39	24
2633.28	24
2634.17	28
2635.06	22.5
2635.95	25
2636.84	24
2637.73	27
2638.62	20.5
2639.51	27
2640.4	23.5
2641.29	23
2642.18	24
2643.07	22.5
2643.96	26
2644.84	26
2645.73	26
2646.62	27.5
2647.51	26
2648.4	21
2649.28	21
2650.17	25
2651.06	25.5
2651.95	22
2652.83	23
2653.72	25.5
2654.61	22.5
2655.49	26
2656.38	23
2657.27	25
2658.16	26
2659.04	21.5
2659.93	24
2660.81	24
2661.7	24
2662.59	24
2663.47	21
2664.36	23
2665.24	20.5
2666.13	24
2667.01	24.5
2667.9	24
2668.78	27
2669.67	25
2670.55	21.5
2671.44	25.5
2672.32	25
2673.21	23
2674.09	22.5
2674.97	23
2675.86	24
2676.74	24.5
2677.62	25
2678.51	24
2679.39	24.5
2680.27	22.5
2681.16	22
2682.04	20.5
2682.92	29.5
2683.81	22
2684.69	23
2685.57	25
2686.45	21
2687.34	23.5
2688.22	19
2689.1	23
2689.98	22
2690.86	26.5
2691.75	23
2692.63	25
2693.51	21.5
2694.39	21.5
2695.27	24
2696.15	17
2697.03	25
2697.91	23.5
2698.79	20.5
2699.67	22.5
2700.55	22
2701.43	23
2702.31	23
2703.19	27.5
2704.07	26
2704.95	22
2705.83	28
2706.71	23.5
2707.59	22.5
2708.47	22.5
2709.35	22.5
2710.23	22.5
2711.11	25.5
2711.99	24
2712.86	21.5
2713.74	26
2714.62	25
2715.5	23
2716.38	25
2717.26	23
2718.13	25.5
2719.01	28.5
2719.89	27
2720.77	21.5
2721.64	21
2722.52	23.5
2723.4	22.5
2724.27	22.5
2725.15	23
2726.03	24.5
2726.9	23.5
2727.78	24
2728.66	28
2729.53	28
2730.41	24.5
2731.28	24.5
2732.16	25
2733.03	23
2733.91	26
2734.79	25
2735.66	22
2736.54	23
2737.41	21.5
2738.29	24.5
2739.16	24
2740.03	23
2740.91	23.5
2741.78	23.5
2742.66	22.5
2743.53	22
2744.41	22
2745.28	25
2746.15	22.5
2747.03	26
2747.9	26
2748.77	25.5
2749.65	27
2750.52	20.5
2751.39	23
2752.27	23
2753.14	27.5
2754.01	22.5
2754.88	22.5
2755.75	22.5
2756.63	23.5
2757.5	24.5
2758.37	25.5
2759.24	23
2760.11	25.5
2760.99	26.5
2761.86	25
2762.73	25
2763.6	28
2764.47	24
2765.34	24
2766.21	26
2767.08	25.5
2767.95	19.5
2768.82	25.5
2769.69	25
2770.56	23
2771.43	24.5
2772.3	22
2773.17	21
2774.04	22.5
2774.91	25.5
2775.78	26.5
2776.65	22.5
2777.52	25.5
2778.39	27.5
2779.26	24
2780.13	27.5
2780.99	23.5
2781.86	28
2782.73	23
2783.6	21.5
2784.47	24
2785.34	24.5
2786.2	24
2787.07	25
2787.94	25.5
2788.81	23
2789.67	25
2790.54	21
2791.41	22.5
2792.27	22
2793.14	26
2794.01	28
2794.87	24
2795.74	21.5
2796.61	24.5
2797.47	24
2798.34	25.5
2799.21	24.5
2800.07	21.5
2800.94	23.5
2801.8	25
2802.67	25
2803.53	21
2804.4	25
2805.26	26
2806.13	23
2806.99	23.5
2807.86	24
2808.72	25
2809.59	27.5
2810.45	26
2811.32	22.5
2812.18	24.5
2813.04	27
2813.91	23.5
2814.77	19
2815.64	25.5
2816.5	25
2817.36	23
2818.22	28.5
2819.09	26
2819.95	25
2820.81	25
2821.68	25
2822.54	24
2823.4	23.5
2824.26	25
2825.13	24
2825.99	19.5
2826.85	24
2827.71	20.5
2828.57	23
2829.44	25
2830.3	25
2831.16	25
2832.02	26
2832.88	25
2833.74	22
2834.6	25.5
2835.46	22.5
2836.32	18
2837.18	26
2838.04	21.5
2838.9	20.5
2839.76	20.5
2840.62	24.5
2841.48	24
2842.34	24
2843.2	23
2844.06	24
2844.92	22
2845.78	23
2846.64	24
2847.5	22
2848.36	23
2849.22	25
2850.08	23
2850.93	22
2851.79	22.5
2852.65	22.5
2853.51	25
2854.37	25
2855.22	22.5
2856.08	22
2856.94	23
2857.8	24
2858.65	24
2859.51	22
2860.37	21
2861.23	21
2862.08	21
2862.94	24.5
2863.79	22
2864.65	22.5
2865.51	24
2866.36	23.5
2867.22	20.5
2868.08	23.5
2868.93	20
2869.79	25.5
2870.64	22
2871.5	25.5
2872.35	26.5
2873.21	25
2874.06	24.5
2874.92	24.5
2875.77	22
2876.63	22
2877.48	20.5
2878.34	23
2879.19	22.5
2880.05	23
2880.9	24
2881.76	24.5
2882.61	21
2883.46	23
2884.32	20.5
2885.17	21
2886.02	24
2886.88	24.5
2887.73	20
2888.58	21.5
2889.44	21.5
2890.29	25.5
2891.14	23
2891.99	25.5
2892.85	23
2893.7	23
2894.55	19
2895.4	22
2896.25	25.5
2897.11	23
2897.96	26.5
2898.81	25.5
2899.66	26
2900.51	27
2901.36	27
2902.21	22.5
2903.07	25
2903.92	25
2904.77	28.5
2905.62	24
2906.47	27
2907.32	26
2908.17	28
2909.02	26.5
2909.87	26.5
2910.72	22
2911.57	25
2912.42	25
2913.27	19
2914.12	22
2914.97	24
2915.81	23
2916.66	22
2917.51	24
2918.36	24.5
2919.21	24.5
2920.06	26
2920.91	25
2921.75	23.5
2922.6	19.5
2923.45	23
2924.3	20
2925.15	20
2925.99	24.5
2926.84	27
2927.69	21
2928.54	21
2929.38	24
2930.23	22
2931.08	25
2931.92	20.5
2932.77	26
2933.62	27
2934.46	22
2935.31	21.5
2936.16	26.5
2937	23
2937.85	25
2938.69	25
2939.54	19.5
2940.38	22
2941.23	23.5
2942.08	22
2942.92	28.5
2943.77	22.5
2944.61	22.5
2945.46	23.5
2946.3	23.5
2947.15	19.5
2947.99	23.5
2948.83	27.5
2949.68	22.5
2950.52	25
2951.37	25.5
2952.21	19
2953.05	21
2953.9	26
2954.74	20.5
2955.58	21
2956.43	24
2957.27	20
2958.11	20
2958.96	21
2959.8	25
2960.64	23
2961.48	26
2962.33	22
2963.17	22
2964.01	24
2964.85	27.5
2965.69	21
2966.54	22
2967.38	24
2968.22	24.5
2969.06	21.5
2969.9	24.5
2970.74	25
2971.58	21.5
2972.43	23.9434
2973.27	23.5381
2974.11	21.6982
2974.95	24.3529
2975.79	22.4898
2976.63	24.2319
2977.47	23.042
2978.31	24.5872
2979.15	21.1469
2979.99	21.4738
2980.83	27.7602
2981.67	22.8786
2982.51	23.095
2983.35	25.0403
2984.19	22.0135
2985.03	24.3035
2985.86	22.5038
2986.7	21.9062
2987.54	22.9693
2988.38	24.5954
2989.22	19.5861
2990.06	21.2128
2990.9	20.4352
2991.73	24.0092
2992.57	24.1632
2993.41	21.0119
2994.25	24.8419
2995.09	20.7532
2995.92	23.568
2996.76	20.4577
2997.6	19.4484
2998.44	19.9353
2999.27	21.6068
3000.11	22.1224
3000.95	21.6553
3001.78	23.0681
3002.62	22.3199
3003.46	24.7731
3004.29	23.0303
3005.13	22.4383
3005.96	22.7222
3006.8	22.1969
3007.64	22.4697
3008.47	22.4621
3009.31	22.8008
3010.14	21.3588
3010.98	22.7137
3011.81	22.6453
3012.65	19.9223
3013.48	23.4691
3014.32	24.4319
3015.15	21.8242
3015.99	22.5058
3016.82	23.8653
3017.66	20.4284
3018.49	19.1275
3019.33	21.6689
3020.16	22.1072
3020.99	20.6364
3021.83	19.6766
3022.66	22.349
3023.5	23.8481
3024.33	20.9048
3025.16	20.7873
3026	21.814
3026.83	21.8645
3027.66	23.0815
3028.49	21.5502
3029.33	21.7599
3030.16	23.4733
3030.99	21.8875
3031.83	20.5739
3032.66	20.835
3033.49	21.5837
3034.32	20.6688
3035.15	21.1338
3035.99	20.278
3036.82	21.8681
3037.65	22.4246
3038.48	24.03
3039.31	23.3766
3040.14	22.6095
3040.97	21.3947
3041.81	21.1365
3042.64	21.6604
3043.47	23.2438
3044.3	23.8409
3045.13	22.7431
3045.96	23.1592
3046.79	23.7309
3047.62	24.7246
3048.45	21.944
3049.28	19.0669
3050.11	21.6556
3050.94	23.1235
3051.77	22.6711
3052.6	21.4417
3053.43	23.3329
3054.26	24.8531
3055.08	22.197
3055.91	21.0326
3056.74	23.3214
3057.26	23
3058.09	23
3058.92	22
3059.76	22
3060.59	22
3061.42	23
3062.25	22
3063.09	26.5
3063.92	22
3064.75	19.5
3065.58	23.5
3066.42	21
3067.25	21.5
3068.08	22.5
3068.91	24.5
3069.74	24
3070.57	23
3071.41	22.5
3072.24	21
3073.07	22.5
3073.9	20
3074.73	21.5
3075.56	24
3076.39	22
3077.22	23
3078.05	18
3078.88	21
3079.71	21
3080.54	20.5
3081.37	20
3082.2	23
3083.03	23
3083.86	20
3084.69	23.5
3085.52	24
3086.35	20.5
3087.18	23
3088.01	23.5
3088.84	23
3089.67	24.5
3090.5	23
3091.32	19.5
3092.15	24
3092.98	23.5
3093.81	25
3094.64	22
3095.47	23.5
3096.29	23
3097.12	23.5
3097.95	23
3098.78	21.5
3099.6	20.5
3100.43	19
3101.26	23.5
3102.09	20.5
3102.91	20.5
3103.74	23.5
3104.57	22
3105.39	22
3106.22	22.5
3107.05	20
3107.87	21
3108.7	26
3109.52	24
3110.35	19
3111.18	24
3112	23
3112.83	18
3113.65	21.5
3114.48	22.5
3115.3	25.5
3116.13	25.5
3116.95	25.5
3117.78	20.5
3118.6	23.5
3119.43	27.5
3120.25	22.5
3121.08	22.5
3121.9	21
3122.72	21
3123.55	22
3124.37	23.5
3125.2	25
3126.02	22.5
3126.84	23
3127.67	28
3128.49	25.5
3129.31	23.5
3130.14	24
3130.96	23
3131.78	20.5
3132.61	21.5
3133.43	20
3134.25	24
3135.07	23
3135.89	21
3136.72	25
3137.54	21
3138.36	25.5
3139.18	25
3140	22
3140.83	20
3141.65	20.5
3142.47	24
3143.29	24.5
3144.11	20.5
3144.93	21.5
3145.75	25.5
3146.57	19.5
3147.4	22
3148.22	23
3149.04	21
3149.86	20
3150.68	26
3151.5	21
3152.32	21
3153.14	23
3153.96	26
3154.78	20
3155.59	21
3156.42	23.5
3157.23	23
3158.05	24.5
3158.87	22
3159.69	23
3160.51	28
3161.33	24
3162.15	20.5
3162.97	23
3163.78	22
3164.6	23
3165.42	20
3166.24	22
3167.06	19
3167.87	24.5
3168.69	23
3169.51	19.5
3170.33	23.5
3171.14	26
3171.96	19.5
3172.78	23
3173.6	21.5
3174.41	23.5
3175.23	23.5
3176.05	23
3176.86	27.5
3177.68	26
3178.5	23
3179.31	25
3180.13	27.5
3180.94	25.5
3181.76	23.5
3182.58	20
3183.39	24
3184.21	24.5
3185.02	23
3185.84	20
3186.65	23
3187.47	25
3188.28	23
3189.1	22
3189.91	23
3190.73	22
3191.54	25
3192.36	24
3193.17	26
3193.98	23.5
3194.8	21.5
3195.61	25
3196.43	23.5
3197.24	24.5
3198.05	23
3198.87	21
3199.68	27
3200.49	23.5
3201.31	24
3202.12	20.5
3202.93	24
3203.75	22
3204.56	23
3205.37	22
3206.18	21.5
3207	22
3207.81	25
3208.62	27
3209.43	23
3210.24	21
3211.06	21
3211.87	23.5
3212.68	19.5
3213.49	17.5
3214.3	21.5
3215.11	20.5
3215.92	22
3216.73	25
3217.55	24.5
3218.36	22.5
3219.17	19
3219.98	22.5
3220.79	20
3221.6	25
3222.41	24.5
3223.22	25.5
3224.03	19
3224.84	22
3225.65	23.5
3226.46	26.5
3227.27	25
3228.08	23
3228.89	22
3229.7	25.5
3230.5	26
3231.31	27.5
3232.12	24.5
3232.93	24
3233.74	26.5
3234.55	23
3235.36	18.5
3236.16	23
3236.97	22.5
3237.78	24.5
3238.59	23
3239.4	24
3240.2	22.5
3241.01	29
3241.82	25
3242.63	24
3243.43	25
3244.24	23.5
3245.05	20
3245.85	23
3246.66	25
3247.47	25
3248.27	21
3249.08	23
3249.89	27.5
3250.69	24.5
3251.5	22
3252.31	26
3253.11	24.5
3253.92	24.5
3254.72	20.5
3255.53	22
3256.33	24
3257.14	22
3257.94	26.5
3258.75	21.5
3259.55	25.5
3260.36	26
3261.16	22
3261.97	25.5
3262.77	24
3263.58	21
3264.38	26.5
3265.19	24
3265.99	21.5
3266.79	24.5
3267.6	26
3268.4	26
3269.21	28
3270.01	24
3270.81	23.5
3271.62	21.5
3272.42	28
3273.22	22.5
3274.03	20.5
3274.83	24
3275.63	24.5
3276.43	22.5
3277.24	21
3278.04	23
3278.84	26
3279.64	23.5
3280.45	19
3281.25	23
3282.05	22
3282.85	23.5
3283.65	22
3284.45	24
3285.26	24.5
3286.06	25.5
3286.86	26
3287.66	24
3288.46	20.5
3289.26	21.5
3290.06	22
3290.86	23
3291.66	19.5
3292.46	24
3293.26	26.5
3294.06	26
3294.86	23
3295.66	23
3296.46	24
3297.26	21
3298.06	22.5
3298.86	25
3299.66	22.5
3300.46	23
3301.26	26.5
3302.06	22
3302.86	19.5
3303.66	21.5
3304.46	24.5
3305.25	21
3306.05	22.5
3306.85	27
3307.65	26
3308.45	26
3309.25	22
3310.04	27.5
3310.84	22
3311.64	26.5
3312.44	23.5
3313.23	22
3314.03	25
3314.83	23.5
3315.63	24
3316.42	23
3317.22	26.5
3318.02	20
3318.81	26
3319.61	27
3320.41	22.5
3321.2	24.5
3322	23
3322.8	24.5
3323.59	24.5
3324.39	25.5
3325.18	23
3325.98	24
3326.78	23
3327.57	24
3328.37	23.5
3329.16	23.5
3329.96	28
3330.75	23
3331.55	19
3332.34	25
3333.14	25
3333.93	26
3334.73	25.5
3335.52	24
3336.31	18.5
3337.11	23
3337.9	25
3338.7	27
3339.49	21.5
3340.28	21
3341.08	24
3341.87	21.5
3342.66	20.5
3343.46	30
3344.25	23.5
3345.04	24
3345.84	23
3346.63	26.5
3347.42	24.5
3348.22	24
3349.01	26
3349.8	21.5
3350.59	21
3351.39	25
3352.18	21
3352.97	25
3353.76	27
3354.55	27
3355.35	23
3356.14	23
3356.93	21
3357.72	24
3358.51	21
3359.3	20
3360.09	22
3360.88	25
3361.67	25.5
3362.46	24.5
3363.26	25.5
3364.05	26
3364.84	25.5
3365.63	23
3366.42	26
3367.21	25
3368	27.5
3368.79	25.5
3369.58	23
3370.37	25
3371.15	23
3371.94	23.5
3372.73	21
3373.52	23
3374.31	25.5
3375.1	21.5
3375.89	24.5
3376.68	22.5
3377.47	25
3378.26	24
3379.04	21.5
3379.83	27.5
3380.62	23.5
3381.41	23.5
3382.2	24.5
3382.98	24
3383.77	22
3384.56	27
3385.35	24.5
3386.13	28
3386.92	24
3387.71	24.5
3388.5	22.5
3389.28	26
3390.07	21
3390.86	21.5
3391.64	25.5
3392.43	22
3393.22	22.5
3394	21.5
3394.79	23
3395.57	23
3396.36	24
3397.15	25.5
3397.93	24.5
3398.72	23
3399.5	24
3400.29	28.5
3401.07	24
3401.86	27
3402.65	25
3403.43	26
3404.21	26
3405	23
3405.78	25.5
3406.57	29.5
3407.35	26.5
3408.14	22
3408.92	24.5
3409.71	23
3410.49	24
3411.27	27
3412.06	24.5
3412.84	26.5
3413.62	22.5
3414.41	25
3415.19	22
3415.97	22.5
3416.76	28
3417.54	25
3418.32	25
3419.11	24
3419.89	24
3420.67	21.5
3421.46	26.5
3422.24	20.5
3423.02	23
3423.8	23
3424.58	25
3425.37	23.5
3426.15	25.5
3426.93	25.5
3427.71	23
3428.49	21
3429.27	24.5
3430.05	25.5
3430.84	23
3431.62	26.5
3432.4	24.5
3433.18	22
3433.96	25.5
3434.74	23
3435.52	25.5
3436.3	21
3437.08	24
3437.86	22
3438.64	22.5
3439.42	26.5
3440.2	26.5
3440.98	22
3441.76	23
3442.54	20.5
3443.32	22
3444.1	28
3444.88	21
3445.66	23
3446.44	19.5
3447.22	24.5
3448	22.5
3448.77	20.5
3449.55	24
3450.33	28.5
3451.11	25.5
3451.89	20
3452.67	20
3453.45	19
3454.22	23
3455	24.5
3455.78	24.5
3456.56	23.5
3457.33	22.5
3458.11	21.5
3458.89	23
3459.67	23
3460.44	24.5
3461.22	24.5
3462	22
3462.77	23.5
3463.55	24.5
3464.33	24
3465.1	24.5
3465.88	24.5
3466.66	21.5
3467.43	28.5
3468.21	20
3468.98	25.5
3469.76	25
3470.54	23.5
3471.31	26
3472.09	23.5
3472.86	24
3473.64	24.5
3474.41	22
3475.19	24
3475.96	22
3476.74	22.5
3477.51	24
3478.29	22
3479.06	28
3479.84	23.5
3480.61	25.5
3481.39	22.5
3482.16	27
3482.93	21.5
3483.71	22.5
3484.48	25
3485.25	22
3486.03	25
3486.8	26.5
3487.57	24.5
3488.35	23.5
3489.12	23.5
3489.89	22
3490.67	23
3491.44	28.5
3492.21	23
3492.99	28
3493.76	20.5
3494.53	25
3495.3	21
3496.08	19
3496.85	25.5
3497.62	22
3498.39	18
3499.16	21.5
3499.93	22
