#Acq. time (s)=	5
#Accumulations=	5
#Range (cm-¹)=	100...3500
#Windows=	4
#Autofocus=	Off
#AutoExposure=	Off
#Spike filter=	Multiple accum.
#Delay time (s)=	0
#Binning=	1
#Readout mode=	Signal
#DeNoise=	Off
#ICS correction=	Off
#Dark correction=	Off
#Inst. Process=	Off
#Instrument=	LabRAM HR Evol
#Detector=	Syncerity OE
#Objective=	x100_VIS
#Grating=	600 (500nm)
#ND Filter=	25%
#Laser=	633nm_Edge
#Hole=	100.021
#Range=	Visible
#Project=	verificaciones
#Sample=	at5
#Site=	lined
#Title=	bolusat5lined
#Remark=	
#Date=	13.01.2026 16:15
#Acquired=	13.01.2026 16:15:06
100.692	27
101.975	31
103.258	34
104.542	33
105.824	31
107.107	28.5
108.39	30.5
109.672	28.5
110.954	30.5
112.236	27.5
113.519	31.5
114.8	30
116.081	32
117.362	30
118.643	30.5
119.924	32
121.204	30.5
122.484	31.5
123.764	33
125.044	29
126.323	33
127.603	31.5
128.882	35
130.161	30
131.438	33.5
132.716	33.5
133.995	33
135.273	32
136.55	32.5
137.828	36
139.106	31
140.383	37
141.66	33
142.937	39
144.213	33.5
145.488	35
146.764	39
148.04	35.5
149.316	37
150.592	39.5
151.867	39.5
153.141	42
154.416	37
155.69	39.5
156.965	44.5
158.239	35.5
159.512	44
160.786	37.5
162.059	38
163.333	39
164.605	37.5
165.878	34
167.15	38.5
168.423	37
169.694	35
170.966	37.5
172.238	38
173.51	38
174.78	44.5
176.052	41.5
177.323	41.5
178.592	38.5
179.863	39.5
181.134	39.5
182.403	41
183.673	38
184.943	41.5
186.211	46
187.481	40
188.749	35.5
190.018	40
191.287	40
192.554	40
193.822	43.5
195.089	39
196.357	38
197.625	36
198.891	33.5
200.159	36
201.425	38.5
202.692	38
203.957	34
205.224	35
206.489	38.5
207.755	39.5
209.02	34.5
210.286	36.5
211.55	38
212.815	35.5
214.079	30
215.344	33.5
216.607	34
217.872	32
219.135	35
220.399	31
221.662	33
222.924	33
224.187	33.5
225.449	35
226.713	27
227.974	33.5
229.235	33
230.498	28
231.759	30.5
233.019	33
234.281	23.5
235.542	28.5
236.802	35.5
238.063	30
239.323	28
240.582	30.5
241.843	33
243.102	33.5
244.361	31.5
245.621	26
246.879	30
248.138	28.5
249.396	29.5
250.655	31.5
251.913	28
253.17	33.5
254.427	27.5
255.686	29.5
256.943	33.5
258.199	24.5
259.456	31
260.712	32.5
261.969	28.5
263.225	31
264.481	29
265.736	32.5
266.991	29.5
268.246	30
269.502	27.5
270.757	32
272.011	32.5
273.265	28.5
274.519	28.5
275.773	29
277.027	25
278.28	30
279.533	25.5
280.786	25.5
282.04	29.5
283.293	29
284.545	24
285.798	31.5
287.049	29.5
288.301	27
289.553	27
290.804	29
292.055	30.5
293.306	28
294.557	29.5
295.807	26.5
297.058	25
298.308	30
299.558	27
300.808	27.5
302.057	30.5
303.305	31.5
304.554	26.5
305.803	26.5
307.052	28.5
308.3	31.5
309.549	30
310.797	28
312.045	27
313.292	26
314.54	29.5
315.786	28.5
317.033	27.5
318.28	23.5
319.526	31
320.773	28.5
322.019	25
323.264	24
324.51	27
325.755	31
327.001	31
328.246	25.5
329.49	28.5
330.735	25.5
331.979	27
333.224	30
334.467	25.5
335.711	28.5
336.955	26
338.199	31
339.441	29
340.684	28
341.927	29
343.168	30.5
344.411	29.5
345.654	24.5
346.895	34
348.137	29
349.379	28
350.619	26
351.86	30
353.102	30
354.341	34
355.582	28.5
356.821	30.5
358.062	27.5
359.302	27.5
360.541	28
361.781	30
363.019	25
364.259	28
365.496	27.5
366.736	32
367.974	28.5
369.212	25
370.45	29
371.687	30.5
372.925	28.5
374.162	27.5
375.399	28.5
376.635	29.5
377.873	27.5
379.109	28.5
380.344	28.5
381.581	23
382.816	31
384.052	26.5
385.287	28
386.523	29.5
387.757	28.5
388.991	27
390.227	28
391.46	29
392.695	27
393.928	29
395.162	29.5
396.396	29.5
397.629	30
398.861	29.5
400.095	27.5
401.327	29
402.559	31
403.792	30.5
405.024	30.5
406.255	31.5
407.488	25
408.719	30.5
409.949	27.5
411.18	27
412.412	27.5
413.642	23.5
414.872	26.5
416.102	29
417.333	29
418.562	26.5
419.791	26.5
421.02	31
422.249	28.5
423.479	30.5
424.707	29.5
425.935	27.5
427.163	30
428.391	31
429.619	27
430.848	23
432.075	26.5
433.302	27
434.529	25.5
435.755	29
436.982	31
438.208	26
439.434	29
440.66	29
441.885	28
443.111	27.5
444.338	30.5
445.563	29
446.788	30
448.012	31
449.237	32
450.461	30.5
451.685	26
452.909	28.5
454.133	26.5
455.356	28.5
456.579	30.5
457.802	29
459.025	32
460.247	30.5
461.469	29.5
462.691	26
463.914	32
465.136	26
466.357	32.5
467.579	37
468.8	36
470.021	34
471.242	38
472.462	33.5
473.682	39
474.903	38
476.123	42
477.343	40
478.563	43.5
479.782	49.5
481	49
482.219	56
483.438	56
484.657	55
485.874	58.5
487.093	58
488.311	53
489.529	59.5
490.747	54.5
491.963	51.5
493.181	53
494.398	53
495.614	54
496.83	51
498.047	44
499.264	45
500.479	43
501.695	44.5
502.911	41
504.125	40
505.34	45
506.554	40
507.769	36
508.984	37
510.198	37.5
511.412	33
512.627	36
513.839	37
515.053	29
516.266	33
517.479	32
518.691	33
519.905	33
521.118	32.5
522.329	30
523.542	31.5
524.753	31
525.965	33
527.176	28.5
528.388	32
529.598	31
530.809	29
532.019	31
533.23	30
534.44	30
535.649	32
536.86	28
538.068	30.5
539.279	28
540.487	31.5
541.697	30.5
542.905	31.5
544.113	28.5
545.322	29.5
546.53	30
547.737	29
548.946	28.5
550.153	31
551.361	30.5
552.568	29
553.774	33
554.982	32
556.188	28.5
557.394	29
558.599	30
559.806	33
561.012	28
562.217	28
563.423	31
564.628	30
565.832	30
567.036	28.5
568.241	30.5
569.446	29.5
570.65	29
571.853	26.5
573.057	29
574.26	26
575.464	28
576.667	31
577.87	28
579.072	28.5
580.274	28
581.477	28
582.68	24.5
583.881	29
585.083	32.5
586.284	28
587.485	32
588.686	26
589.887	28.5
591.087	28.5
592.288	27.5
593.488	25.5
594.688	29
595.888	30
597.087	26
598.287	29
599.486	27
600.685	27.5
601.884	30.5
603.082	29.5
604.281	28
605.479	26.5
606.677	27.5
607.875	28
609.073	26.5
610.27	29.5
611.468	29
612.665	31.5
613.862	28
615.058	30.5
616.255	29
617.451	25
618.648	23
619.842	28.5
621.038	25
622.234	26.5
623.429	26
624.624	31
625.819	26.5
627.013	27
628.207	27
629.402	32
630.596	32.5
631.79	27.5
632.983	29.5
634.177	30
635.37	30
636.564	28
637.755	30
638.948	31
640.141	30.5
641.334	29
642.525	32.5
643.717	28
644.909	29.5
646.099	30
647.291	29.5
648.483	23
649.674	30
650.864	29
652.055	31.5
653.244	31.5
654.435	29.5
655.625	25
656.814	33
658.004	26
659.193	30
660.382	29.5
661.571	29.5
662.759	31.5
663.948	29
665.135	33.5
666.324	30.5
667.511	31
668.7	30
669.886	22
671.074	33
672.262	28
673.448	28.5
674.634	31
675.821	29
677.007	31.5
678.194	33
679.379	29.5
680.565	37.5
681.75	38.5
682.936	35
684.121	34
685.305	34.5
686.491	36
687.675	36
688.86	39
690.043	30
691.227	36
692.411	31
693.594	35.5
694.777	35
695.961	36
697.144	36.5
698.326	37
699.509	38
700.691	38.5
701.873	37
703.056	40.5
704.237	44
705.419	46.5
706.599	49.5
707.782	48
708.962	51
710.143	49.5
711.323	46
712.504	39.5
713.684	42
714.864	39
716.043	37
717.223	32
718.403	27.5
719.582	34
720.761	35
721.94	32
723.118	31
724.296	29.5
725.474	29
726.652	27.5
727.831	30.5
729.009	29.5
730.186	25
731.363	30
732.54	27.5
733.717	29.5
734.893	30
736.07	26
737.246	31.5
738.422	29
739.598	30.5
740.773	31
741.949	28
743.124	29.5
744.299	30
745.474	30.5
746.649	29.5
747.823	33
748.997	33
750.172	32
751.346	29
752.519	26
753.693	23.5
754.867	25
756.038	30.5
757.211	30
758.384	28
759.557	26.5
760.73	27.5
761.902	28.5
763.074	29.5
764.246	27.5
765.417	26
766.588	30
767.76	30.5
768.931	30
770.102	22.5
771.271	31.5
772.442	29.5
773.613	31
774.783	29.5
775.952	25.5
777.122	32
778.291	31
779.461	29.5
780.629	29
781.798	32
782.967	29.5
784.135	30
785.304	29
786.472	31.5
787.639	29
788.807	27.5
789.975	31.5
791.142	30
792.309	26
793.477	30.5
794.642	26.5
795.81	32
796.975	30
798.142	29
799.308	28
800.473	29.5
801.639	26.5
802.804	30
803.97	31
805.134	29
806.299	31
807.463	30
808.628	26.5
809.792	27.5
810.957	28
812.12	31.5
813.284	30.5
814.447	28.5
815.611	32.5
816.773	28.5
817.937	28
819.099	28
820.261	25.5
821.424	33
822.585	29
823.748	27
824.909	28
826.07	26
827.232	25
828.393	27
829.554	30.5
830.715	31
831.875	26
833.035	28.5
834.196	26.5
835.356	25
836.515	30
837.676	27.5
838.835	29
839.994	28.5
841.152	29
842.312	30.5
843.47	28.5
844.629	32
845.786	29
846.946	28
848.103	25
849.261	29
850.418	29
851.575	30
852.733	26.5
853.89	29
855.046	30.5
856.203	28
857.359	31.5
858.515	30
859.67	28
860.827	27.5
861.983	30
863.138	32.5
864.293	28.5
865.448	31
866.603	28
867.757	28
868.912	30
870.066	26.5
871.22	28.5
872.374	34.5
873.527	28
874.681	30.5
875.834	29.5
876.987	29
878.14	28
879.293	29.5
880.445	26.5
881.598	32
882.75	28.5
883.902	25.5
885.054	23.5
886.206	33
887.357	28.5
888.507	26
889.658	27.5
890.809	26
891.96	27.5
893.111	27
894.261	29
895.411	26.5
896.561	28.5
897.71	27
898.86	22.5
900.009	30
901.159	29
902.308	26
903.455	25
904.604	29.5
905.753	27
906.901	29
908.048	27.5
909.197	27.5
910.344	23.5
911.492	26
912.639	26
913.786	26
914.933	26.5
916.079	29
917.226	26
918.373	24
919.518	28
920.664	21.5
921.81	30.5
922.955	26
924.101	25
925.245	26
926.391	24
927.536	26
928.68	23
929.825	29
930.968	26.5
932.113	28.5
933.256	22
934.4	24.5
935.543	27
936.687	28
937.83	30
938.973	24
940.115	29.5
941.258	28
942.399	32.5
943.542	26.5
944.684	24.5
945.826	27.5
946.967	28
948.109	26
949.25	23
950.392	23.5
951.532	26.5
952.672	30
953.813	26
954.953	26.5
956.093	27.5
957.233	27
958.373	26
959.512	25
960.652	29
961.791	29
962.929	24.5
964.069	27.5
965.207	28
966.345	26
967.484	28
968.622	25
969.759	29
970.896	29.25
972.035	28
973.172	26
974.309	21.5
975.445	23
976.582	27
977.719	27.5
978.855	28
979.991	29
981.127	24
982.263	32
983.398	27
984.535	25
985.67	25
986.804	24.5
987.939	24.5
989.074	25
990.208	28.5
991.342	26
992.476	28.5
993.61	29.5
994.744	33.5
995.877	29
997.01	24.5
998.143	23.5
999.276	28
1000.41	28
1001.54	24
1002.67	24
1003.81	24
1004.94	26.5
1006.07	29.5
1007.2	29.5
1008.33	28.5
1009.47	26.5
1010.6	25.5
1011.73	28
1012.86	28
1013.99	27.5
1015.12	30
1016.25	27
1017.38	28.5
1018.51	27
1019.64	27.5
1020.77	24
1021.9	29
1023.03	21
1024.15	30.5
1025.28	24.5
1026.41	23
1027.54	27.5
1028.67	26.5
1029.8	23
1030.92	29
1032.05	21
1033.18	24.5
1034.31	28
1035.43	25
1036.56	26.5
1037.69	25
1038.81	26
1039.94	28
1041.07	29.5
1042.19	29.5
1043.32	23.5
1044.44	24.5
1045.57	28.5
1046.69	27.5
1047.82	27
1048.94	22.5
1050.07	26
1051.19	24
1052.32	25
1053.44	29
1054.57	26
1055.69	27.5
1056.81	24
1057.94	27
1059.06	30
1060.18	28.5
1061.31	29
1062.43	22
1063.55	25
1064.67	25.5
1065.8	27
1066.92	25.5
1068.04	29.5
1069.16	30.5
1070.28	24.5
1071.4	28.5
1072.52	27.5
1073.64	27.5
1074.76	26.5
1075.89	27.5
1077.01	27
1078.13	26.5
1079.25	22
1080.37	26
1081.49	26.5
1082.6	25
1083.72	23.5
1084.84	27
1085.96	24
1087.08	23.5
1088.2	29
1089.32	23
1090.43	21.5
1091.55	29.5
1092.67	26
1093.79	25.5
1094.91	25
1096.02	22.5
1097.14	24
1098.26	28
1099.37	23
1100.49	27
1101.61	27.5
1102.72	27
1103.84	27.5
1104.95	27.5
1106.07	23.5
1107.18	28.5
1108.3	25.5
1109.41	26.5
1110.53	27
1111.64	27
1112.76	26.5
1113.87	25
1114.99	28
1116.1	27
1117.21	23.5
1118.33	23.5
1119.44	26.5
1120.55	24.5
1121.67	27
1122.78	28.5
1123.89	27
1125	24.5
1126.12	23.5
1127.23	23.5
1128.34	24.5
1129.45	23.5
1130.56	22.5
1131.68	25.5
1132.79	22
1133.9	24.5
1135.01	25.5
1136.12	26.5
1137.23	26.5
1138.34	23
1139.45	26
1140.56	26
1141.67	23
1142.78	24.5
1143.89	27
1145	29.5
1146.11	27
1147.22	27.5
1148.32	27.5
1149.43	27
1150.54	25
1151.65	24
1152.76	25
1153.86	21
1154.97	28
1156.08	21.5
1157.19	21.5
1158.29	26.5
1159.4	29
1160.51	25
1161.61	21
1162.72	23.5
1163.83	24.5
1164.93	29
1166.04	26
1167.14	26
1168.25	31
1169.35	26
1170.46	26
1171.56	23.5
1172.67	27
1173.77	22
1174.88	26
1175.98	24
1177.08	23.5
1178.19	21.5
1179.29	25.5
1180.4	27
1181.5	25.5
1182.6	28
1183.71	22
1184.81	27.5
1185.91	23.5
1187.01	23
1188.12	24
1189.22	22.5
1190.32	28
1191.42	27
1192.52	25
1193.62	27
1194.72	22.5011
1195.83	22.9547
1196.93	24.0803
1198.03	23.6462
1199.13	23.1044
1200.23	20.8471
1201.33	23.1824
1202.43	28.4437
1203.53	23.029
1204.63	23.2002
1205.73	27.7453
1206.83	24.813
1207.92	25.0285
1209.02	22.54
1210.12	22.323
1211.22	24.2795
1212.32	23.3204
1213.42	25.7849
1214.51	25.4957
1215.61	21.6278
1216.71	20.9859
1217.81	27.2833
1218.9	26.8072
1220	26.5185
1221.1	27.2153
1222.19	25.4582
1223.29	22.9155
1224.39	27.5316
1225.48	25.9979
1226.58	25.6111
1227.68	24.683
1228.77	24.0715
1229.87	25.5364
1230.96	22.9298
1232.06	23.2084
1233.15	24.6155
1234.25	22.4684
1235.34	25.3687
1236.43	27.993
1237.53	26.3391
1238.62	26.556
1239.72	24.5002
1240.81	22.9468
1241.9	24.6335
1243	24.0763
1244.09	23.0013
1245.18	25.618
1246.27	22.566
1247.37	21.7024
1248.46	25.0236
1249.55	25.7358
1250.64	23.8036
1251.74	24.4571
1252.83	27.2285
1253.92	28.999
1255.01	26.1595
1256.1	22.4443
1257.19	27.8458
1258.28	24.5864
1259.38	25.4799
1260.46	25.1526
1261.56	23.9493
1262.65	25.4403
1263.74	25.6852
1264.82	26.8885
1265.91	24.1741
1267	28.0551
1268.09	24.1997
1269.18	24.6319
1270.27	26.0807
1271.36	24.8943
1272.45	24.3916
1273.54	26.6177
1274.63	25.4831
1275.71	23.5899
1276.8	24.1038
1277.89	23.7143
1278.98	26.4854
1280.06	24.6581
1281.15	23.695
1282.24	24.6832
1283.32	22.1559
1284.41	27.1047
1285.5	25.4859
1286.58	23.8714
1287.67	24.4935
1288.76	22.5104
1289.84	25.6323
1290.93	25.344
1292.01	24.4757
1293.1	23.2924
1294.18	24.7291
1295.27	25.7309
1296.35	25.5766
1297.44	27.4868
1298.52	23.907
1299.6	22.8819
1300.69	22.0832
1301.77	25.2218
1302.86	26.701
1303.94	27.6371
1305.02	26.5455
1306.11	28.1489
1306.41	29
1307.5	26.5
1308.59	28
1309.68	25
1310.77	25
1311.85	27
1312.94	26.5
1314.03	22.5
1315.11	21
1316.2	24.5
1317.29	25.5
1318.37	22
1319.46	23
1320.55	26
1321.63	23
1322.72	25.5
1323.8	21.5
1324.89	26.5
1325.98	26.5
1327.06	24
1328.15	28.5
1329.23	25.5
1330.31	28.5
1331.4	25.5
1332.48	24
1333.57	27
1334.65	23.5
1335.74	25
1336.82	28
1337.9	23.5
1338.99	23.5
1340.07	25
1341.15	27
1342.24	25
1343.32	22.5
1344.4	27
1345.48	26
1346.56	24.5
1347.65	25
1348.73	24
1349.81	23.5
1350.89	28
1351.97	24.5
1353.05	28.5
1354.13	29
1355.21	22.5
1356.29	22.5
1357.37	23.5
1358.46	25.5
1359.54	22.5
1360.62	26
1361.69	23.5
1362.77	27.5
1363.85	28.5
1364.93	25
1366.01	24
1367.09	24.5
1368.17	24
1369.25	21.5
1370.33	23
1371.41	22.5
1372.48	26
1373.56	27
1374.64	28.5
1375.72	21
1376.79	22.5
1377.87	23.5
1378.95	25.5
1380.02	27.5
1381.1	26.5
1382.18	25
1383.25	28
1384.33	24
1385.4	23.5
1386.48	26
1387.56	27
1388.63	26.5
1389.71	25
1390.78	23
1391.86	28
1392.93	28
1394.01	28.5
1395.08	28.5
1396.15	29.5
1397.23	26
1398.3	28.5
1399.38	31
1400.45	31.5
1401.52	24
1402.6	30.5
1403.67	27.5
1404.74	32
1405.81	31
1406.89	27.5
1407.96	27.5
1409.03	32
1410.1	31.5
1411.17	26.5
1412.25	31.5
1413.32	29
1414.39	31.5
1415.46	34
1416.53	30.5
1417.6	22
1418.67	29.5
1419.74	30
1420.81	27
1421.88	24.5
1422.95	28
1424.02	30
1425.09	28.5
1426.16	28
1427.23	25
1428.3	27
1429.37	28
1430.44	27.5
1431.51	26
1432.58	27
1433.64	26
1434.71	24.5
1435.78	30
1436.85	24
1437.92	24
1438.98	27.5
1440.05	28
1441.12	30.5
1442.18	28
1443.25	25
1444.32	27
1445.38	25.5
1446.45	27
1447.52	28
1448.58	28.5
1449.65	21.5
1450.71	25
1451.78	28
1452.84	26.5
1453.91	25
1454.97	25.5
1456.04	23
1457.1	24
1458.17	26
1459.23	25
1460.3	24.5
1461.36	26.5
1462.42	25
1463.49	27
1464.55	25
1465.61	23.5
1466.68	25
1467.74	29.5
1468.8	23
1469.86	25
1470.93	24.5
1471.99	25
1473.05	26.5
1474.11	27
1475.17	28.5
1476.24	27.5
1477.3	27
1478.36	25
1479.42	26.5
1480.48	29
1481.54	27
1482.6	24
1483.66	25.5
1484.72	28
1485.78	26
1486.84	25.5
1487.9	27
1488.96	29
1490.02	25.5
1491.08	28.5
1492.14	28
1493.2	28.5
1494.26	27.5
1495.31	23.5
1496.37	25
1497.43	25.5
1498.49	27
1499.55	27.5
1500.6	22
1501.66	29
1502.72	25.5
1503.78	26.5
1504.83	26.5
1505.89	27
1506.95	23
1508	25.5
1509.06	23
1510.12	25
1511.17	27
1512.23	28.5
1513.28	27.5
1514.34	26.5
1515.39	26.5
1516.45	26
1517.5	30.5
1518.56	25
1519.61	25
1520.67	24.5
1521.72	27
1522.78	26
1523.83	27
1524.88	28
1525.94	24
1526.99	25
1528.05	29
1529.1	24.5
1530.15	27
1531.2	28.5
1532.26	29.5
1533.31	26
1534.36	30
1535.41	24
1536.47	28
1537.52	27
1538.57	28
1539.62	23
1540.67	21.5
1541.72	24
1542.77	25
1543.83	25
1544.88	25.5
1545.93	26.5
1546.98	26
1548.03	26
1549.08	25.5
1550.13	22
1551.18	26.5
1552.23	25.5
1553.28	26
1554.32	23
1555.37	24
1556.42	26
1557.47	26
1558.52	29
1559.57	28.5
1560.62	23
1561.67	27
1562.71	26
1563.76	27
1564.81	25.5
1565.86	28
1566.9	27.5
1567.95	27
1569	27.5
1570.04	25
1571.09	28
1572.14	21.5
1573.18	26.5
1574.23	26
1575.27	24.5
1576.32	22.5
1577.37	28.5
1578.41	26
1579.46	24.5
1580.5	26
1581.55	26.5
1582.59	22
1583.64	27.5
1584.68	23
1585.72	27
1586.77	25
1587.81	28
1588.86	29
1589.9	25.5
1590.94	28
1591.99	23.5
1593.03	25
1594.07	24.5
1595.12	28
1596.16	26
1597.2	26
1598.24	29
1599.29	25
1600.33	24
1601.37	25
1602.41	29
1603.45	23.5
1604.49	27.5
1605.53	22
1606.58	28.5
1607.62	24.5
1608.66	27.5
1609.7	25
1610.74	24
1611.78	26
1612.82	25.5
1613.86	25
1614.9	23.5
1615.94	22.5
1616.98	25.5
1618.02	29
1619.06	28
1620.09	27
1621.13	23
1622.17	22.5
1623.21	23.5
1624.25	29
1625.29	27
1626.32	23
1627.36	23.5
1628.4	30
1629.44	23
1630.47	28.5
1631.51	24.5
1632.55	24.5
1633.58	23
1634.62	26
1635.66	27
1636.69	27
1637.73	24.5
1638.77	27
1639.8	26.5
1640.84	24.5
1641.87	29
1642.91	27
1643.94	23
1644.98	27.5
1646.01	26
1647.05	26
1648.08	25.5
1649.12	21.5
1650.15	27
1651.18	19
1652.22	29
1653.25	26.5
1654.29	28
1655.32	22.5
1656.35	25
1657.39	25
1658.42	27.5
1659.45	25.5
1660.48	25
1661.52	25.5
1662.55	24
1663.58	28
1664.61	24.5
1665.64	23
1666.68	27.5
1667.71	24
1668.74	25.5
1669.77	31
1670.8	26
1671.83	28
1672.86	26
1673.89	26.5
1674.92	25.5
1675.95	27
1676.98	24.5
1678.01	25.5
1679.04	22.5
1680.07	25
1681.1	23
1682.13	28.5
1683.16	27
1684.19	28.5
1685.22	26.5
1686.25	22
1687.27	29
1688.3	24.5
1689.33	27
1690.36	28.5
1691.38	24.5
1692.41	25.5
1693.44	24
1694.47	25.5
1695.49	28
1696.52	25
1697.55	28
1698.57	25.5
1699.6	25
1700.63	26.5
1701.65	26
1702.68	28.5
1703.7	22.5
1704.73	21
1705.76	27
1706.78	26.5
1707.81	25
1708.83	27.5
1709.86	24.5
1710.88	28
1711.91	27
1712.93	24
1713.95	26
1714.98	24.5
1716	28
1717.03	27
1718.05	27.5
1719.07	26.5
1720.1	26
1721.12	22
1722.14	28.5
1723.16	24.5
1724.19	27
1725.21	24.5
1726.23	22.5
1727.25	27
1728.28	25
1729.3	25
1730.32	28.5
1731.34	28.5
1732.36	26
1733.38	27.5
1734.41	23
1735.43	25.5
1736.45	26.5
1737.47	25.5
1738.49	26
1739.51	24.5
1740.53	28
1741.55	21
1742.57	26.5
1743.59	23.5
1744.61	28.5
1745.63	26
1746.64	24
1747.66	27
1748.68	28
1749.7	22.5
1750.72	22
1751.74	24.5
1752.76	25
1753.77	25
1754.79	24
1755.81	27
1756.83	24.5
1757.84	26
1758.86	24.5
1759.88	24
1760.9	29.5
1761.91	24
1762.93	26
1763.95	23.5
1764.96	22
1765.98	29
1766.99	25.5
1768.01	25.5
1769.02	24
1770.04	26.5
1771.06	26.5
1772.07	22.5
1773.09	26.5
1774.1	26
1775.12	25.5
1776.13	27
1777.14	18.5
1778.16	24
1779.17	25
1780.19	26
1781.2	24
1782.21	19.5
1783.23	26.5
1784.24	30.5
1785.25	27
1786.27	24
1787.28	27
1788.29	26.5
1789.3	26.5
1790.32	26.5
1791.33	27.5
1792.34	27
1793.35	24.5
1794.36	21
1795.38	25.5
1796.39	23
1797.4	24
1798.41	28.5
1799.42	25.5
1800.43	25.5
1801.44	27
1802.45	25
1803.46	27
1804.47	25
1805.48	21
1806.49	23.5
1807.5	26
1808.51	22.5
1809.52	24
1810.53	26.5
1811.54	24
1812.55	26.5
1813.56	27
1814.57	24
1815.57	28
1816.58	28.5
1817.59	21
1818.6	23
1819.61	26.5
1820.61	24
1821.62	28
1822.63	23.5
1823.64	22
1824.64	25.5
1825.65	25.5
1826.66	27
1827.66	24
1828.67	24.5
1829.68	24
1830.68	28.5
1831.69	28.5
1832.69	27.5
1833.7	25
1834.7	27
1835.71	23
1836.71	29
1837.72	25
1838.72	29.5
1839.73	26
1840.73	27
1841.74	28
1842.74	26.5
1843.75	25
1844.75	25.5
1845.75	26
1846.76	29
1847.76	25
1848.76	24.5
1849.77	22.5
1850.77	23
1851.77	25
1852.78	27
1853.78	26.5
1854.78	32
1855.78	24.5
1856.78	25
1857.79	25
1858.79	24
1859.79	25.5
1860.79	25.5
1861.79	24
1862.79	24
1863.79	24.5
1864.79	24
1865.79	25
1866.8	22.5
1867.8	23
1868.8	23.5
1869.8	26.5
1870.8	23
1871.8	26
1872.8	23
1873.79	26
1874.79	27
1875.79	24.5
1876.79	27
1877.79	23.5
1878.79	21
1879.79	24.5
1880.79	20.5
1881.78	28
1882.78	26.5
1883.78	23
1884.78	25
1885.77	28
1886.77	25.5
1887.77	30
1888.77	22.5
1889.76	27
1890.76	26.5
1891.76	25.5
1892.75	23
1893.75	25
1894.75	23
1895.74	28.5
1896.74	24
1897.73	26
1898.73	23
1899.73	27
1900.72	24
1901.72	24
1902.71	23
1903.7	26
1904.7	24.5
1905.69	25.5
1906.69	24.5
1907.68	25
1908.68	28.5
1909.67	27
1910.66	24
1911.66	23.5
1912.65	18.5
1913.64	23.5
1914.64	25.5
1915.63	24
1916.62	26
1917.62	22
1918.61	28
1919.6	24
1920.59	26
1921.58	24.5
1922.58	23
1923.57	25
1924.56	29
1925.55	25.5
1926.54	24.5
1927.53	22.5
1928.52	22
1929.51	25.5
1930.51	25.5
1931.5	25.5
1932.49	25
1933.48	19
1934.47	25
1935.46	21.5
1936.45	24
1937.44	24.5
1938.42	23
1939.41	22.5
1940.4	24
1941.39	27
1942.38	25
1943.37	26.5
1944.36	25
1945.35	26
1946.33	25
1947.32	21.5
1948.31	21.25
1949.3	21
1950.29	23
1951.27	25.5
1952.26	25
1953.25	26
1954.23	25
1955.22	26.5
1956.21	24.5
1957.19	27
1958.18	26
1959.17	26
1960.15	25.5
1961.14	25
1962.13	24
1963.11	22.5
1964.1	24
1965.08	22.5
1966.07	23.5
1967.05	24.5
1968.04	23.5
1969.02	28.5
1970.01	21
1970.99	25
1971.97	25
1972.96	24
1973.94	23.5
1974.93	24.5
1975.91	25.5
1976.89	25
1977.88	22.5
1978.86	24.5
1979.84	28
1980.83	23.5
1981.81	25.5
1982.79	20
1983.77	17
1984.76	27
1985.74	27
1986.72	20.5
1987.7	25.5
1988.68	23
1989.67	23
1990.65	24
1991.63	25.5
1992.61	25
1993.59	26
1994.57	25
1995.55	26
1996.53	24
1997.51	24.5
1998.49	24.5
1999.47	27
2000.45	25.5
2001.43	24.5
2002.41	25
2003.39	25
2004.37	25
2005.35	26.5
2006.33	25
2007.31	26
2008.29	26
2009.26	22.5
2010.24	27
2011.22	24.5
2012.2	22.5
2013.18	23.5
2014.15	25
2015.13	21.5
2016.11	22
2017.09	22
2018.06	28.5
2019.04	26
2020.02	26
2021	25.5
2021.97	26
2022.95	20.5
2023.92	27
2024.9	21
2025.88	27
2026.85	26.5
2027.83	21.5
2028.8	22
2029.78	27
2030.75	27.5
2031.73	21.5
2032.7	24
2033.68	24
2034.65	21
2035.63	21.5
2036.6	26
2037.58	23.5
2038.55	23.5
2039.52	28.5
2040.5	23.5
2041.47	23.5
2042.45	20.5
2043.42	26
2044.39	26
2045.36	25.5
2046.34	22.5
2047.31	20.5
2048.28	21
2049.26	23
2050.23	25.5
2051.2	23.5
2052.17	21.5
2053.14	23
2054.12	21.5
2055.09	22.5
2056.06	25
2057.03	24
2058	24
2058.97	26.5
2059.94	23.5
2060.91	23
2061.88	19.5
2062.85	26.5
2063.82	23
2064.79	25.5
2065.76	21.5
2066.73	21
2067.7	27
2068.67	22
2069.64	24.5
2070.61	28
2071.58	22.5
2072.55	26
2073.52	25
2074.49	23.5
2075.45	22.5
2076.42	21.5
2077.39	22
2078.36	24
2079.33	24
2080.29	23
2081.26	23.5
2082.23	22.5
2083.2	24.5
2084.16	20
2085.13	20.5
2086.1	24.5
2087.06	24
2088.03	23
2089	24
2089.96	24
2090.93	25
2091.89	23
2092.86	23.5
2093.83	24.5
2094.79	26.5
2095.76	24
2096.72	26
2097.69	26.5
2098.65	23
2099.62	24.5
2100.58	26
2101.55	25
2102.51	22.5
2103.47	25
2104.44	25
2105.4	22
2106.36	21
2107.33	22
2108.29	22
2109.25	25
2110.22	20.5
2111.18	26.5
2112.14	22.5
2113.11	26.5
2114.07	27.5
2115.03	20
2115.99	22.5
2116.96	24
2117.92	20.5
2118.88	24
2119.84	28.5
2120.8	26
2121.76	24
2122.72	22
2123.68	24.5
2124.65	26
2125.61	23
2126.57	28
2127.53	21.5
2128.49	22.5
2129.45	21
2130.41	26
2131.37	24
2132.33	23
2133.29	23
2134.25	24
2135.21	24.5
2136.17	19.5
2137.12	22
2138.08	24.5
2139.04	22.5
2140	22
2140.96	24
2141.92	20.5
2142.88	22.0007
2143.83	24.457
2144.79	23.572
2145.75	23.1532
2146.71	23.4826
2147.66	22.4803
2148.62	22.5081
2149.58	22.0728
2150.53	22.5616
2151.49	24.9856
2152.45	24.0927
2153.4	25.1068
2154.36	21.3391
2155.32	26.0365
2156.27	23.1236
2157.23	22.013
2158.19	25.2267
2159.14	21.2374
2160.1	21.0308
2161.05	24.1622
2162.01	24.2944
2162.96	20.7494
2163.92	22.3334
2164.87	22.5074
2165.83	22.8811
2166.78	23.9455
2167.73	22.5054
2168.69	24.2916
2169.64	19.7084
2170.6	26.2638
2171.55	24.584
2172.5	23.5889
2173.46	22.5252
2174.41	24.1102
2175.36	22.4112
2176.32	22.7292
2177.27	26.0954
2178.22	22.7643
2179.18	20.7527
2180.13	23.0998
2181.08	22.017
2182.03	21.129
2182.98	23.8495
2183.94	22.439
2184.89	24.7691
2185.84	23.1938
2186.79	19.8111
2187.74	20.8452
2188.69	23.1997
2189.64	20.6809
2190.6	22.4877
2191.55	22.9852
2192.5	23.5212
2193.45	25.2219
2194.4	23.4743
2195.35	24.1956
2196.3	24.271
2197.25	22.2242
2198.2	22.9681
2199.15	22.9737
2200.1	23.6609
2201.04	23.7017
2201.99	22.5985
2202.94	23.1917
2203.89	22.0963
2204.84	20.16
2205.79	24.2805
2206.74	22.9319
2207.69	21.394
2208.63	24.0521
2209.58	22.047
2210.53	22.0154
2211.48	23.4163
2212.43	23.4064
2213.37	21.2577
2214.32	25.5149
2215.27	23.7215
2216.21	22.0646
2217.16	25.2555
2218.11	24.8859
2219.05	24.3288
2220	25.3678
2220.95	22.6142
2221.89	25.9466
2222.84	24.0558
2223.78	20.7667
2224.73	20.5607
2225.68	22.1474
2226.62	23.7114
2227.57	23.7308
2228.51	21.2127
2229.46	25.4334
2230.4	23.506
2231.35	21.342
2232.29	23.2182
2233.24	22.5143
2234.18	21.1909
2235.12	21.7483
2236.07	28.1119
2237.01	24.8763
2237.95	23.8418
2238.9	22.8484
2239.84	24.784
2240.06	25.5
2241.01	20.5
2241.96	25.5
2242.91	22
2243.86	24
2244.8	24
2245.75	25.5
2246.7	28
2247.65	24.5
2248.59	21
2249.54	23
2250.49	21.5
2251.43	23.5
2252.38	22
2253.33	22
2254.27	24
2255.22	21
2256.16	22.5
2257.11	23.5
2258.06	24
2259	21.5
2259.95	21.5
2260.89	27.5
2261.84	21
2262.78	25.5
2263.73	24.5
2264.67	23
2265.62	27.5
2266.56	23
2267.5	25.5
2268.45	24
2269.39	21
2270.34	22
2271.28	27.5
2272.22	25.5
2273.17	22.5
2274.11	20
2275.05	23.5
2276	22.5
2276.94	26
2277.88	25
2278.82	21
2279.77	22.5
2280.71	24
2281.65	23.5
2282.59	23
2283.53	25
2284.48	23
2285.42	21
2286.36	23.5
2287.3	25
2288.24	19.5
2289.18	25
2290.12	26
2291.06	21.5
2292	26
2292.94	22.5
2293.89	21.5
2294.83	24.5
2295.77	23
2296.71	23.5
2297.65	24
2298.58	27
2299.52	26.5
2300.46	24.5
2301.4	25.5
2302.34	26.5
2303.28	23
2304.22	20
2305.16	25.5
2306.1	25
2307.03	19.5
2307.97	27
2308.91	22
2309.85	23.5
2310.79	25.5
2311.72	22.5
2312.66	22.5
2313.6	21
2314.54	23
2315.47	23.5
2316.41	20
2317.35	25.5
2318.28	19
2319.22	25
2320.16	25
2321.09	22.5
2322.03	25
2322.96	24.5
2323.9	23.5
2324.84	24
2325.77	23
2326.71	21
2327.64	27
2328.58	21
2329.51	24
2330.45	23
2331.38	19.5
2332.32	23.5
2333.25	27
2334.18	24
2335.12	23.5
2336.05	24
2336.99	22
2337.92	24.5
2338.85	22.5
2339.79	25
2340.72	25.5
2341.65	24
2342.59	24
2343.52	24
2344.45	27
2345.39	23.5
2346.32	25.5
2347.25	24
2348.18	21.5
2349.11	24.5
2350.05	23.5
2350.98	21
2351.91	20.5
2352.84	24.5
2353.77	28
2354.7	26.5
2355.64	25
2356.57	22.5
2357.5	23.5
2358.43	25
2359.36	23
2360.29	22
2361.22	23.5
2362.15	24
2363.08	28.5
2364.01	28
2364.94	26
2365.87	25
2366.8	26.5
2367.73	25.5
2368.66	26
2369.58	21.5
2370.51	24
2371.44	23
2372.37	23.5
2373.3	20
2374.23	23.5
2375.16	22
2376.08	26
2377.01	23
2377.94	18.5
2378.87	23.5
2379.8	24
2380.72	25
2381.65	20
2382.58	23
2383.5	23.5
2384.43	24
2385.36	22.5
2386.28	21
2387.21	24
2388.14	23.5
2389.06	24
2389.99	25.5
2390.91	23
2391.84	24
2392.77	24
2393.69	24
2394.62	23
2395.54	26.5
2396.47	25
2397.39	25
2398.32	26.5
2399.24	27
2400.16	25
2401.09	25
2402.01	27
2402.94	22
2403.86	23
2404.78	26.5
2405.71	28.5
2406.63	22.5
2407.56	22
2408.48	26.5
2409.4	24
2410.32	21
2411.25	24
2412.17	25
2413.09	24.5
2414.02	27
2414.94	25.5
2415.86	26
2416.78	29
2417.7	26.5
2418.63	24.5
2419.55	22
2420.47	24
2421.39	25
2422.31	29
2423.23	26.5
2424.15	23
2425.07	24
2425.99	24
2426.92	20.5
2427.84	21
2428.76	24.5
2429.68	24.5
2430.59	22
2431.51	25.5
2432.43	24.5
2433.35	28.5
2434.27	16
2435.19	26
2436.11	22.5
2437.03	27.5
2437.95	26.5
2438.87	24
2439.79	22.5
2440.71	26
2441.62	26
2442.54	19.5
2443.46	27.5
2444.38	24.5
2445.3	23
2446.21	20
2447.13	26
2448.05	21.5
2448.97	24
2449.88	23.5
2450.8	26.5
2451.72	24.5
2452.63	23.5
2453.55	27.5
2454.47	27.5
2455.38	25.5
2456.3	21.5
2457.21	24
2458.13	23.5
2459.05	22
2459.96	27.5
2460.88	24
2461.79	23.5
2462.71	27.5
2463.62	27.5
2464.54	22
2465.45	23.5
2466.37	21.5
2467.28	26.5
2468.2	26
2469.11	25.5
2470.02	23.5
2470.94	24
2471.85	26.5
2472.77	25
2473.68	23
2474.59	24.5
2475.51	20
2476.42	25.5
2477.33	23.5
2478.25	23.5
2479.16	27.5
2480.07	22.5
2480.98	22.5
2481.9	21
2482.81	25
2483.72	20.5
2484.63	27
2485.55	24
2486.46	25
2487.37	26
2488.28	23
2489.19	23.5
2490.1	25
2491.01	23
2491.92	22.5
2492.83	23.5
2493.74	22.5
2494.66	23
2495.57	21.5
2496.48	21.5
2497.39	21
2498.3	26.5
2499.21	25
2500.12	25.5
2501.03	28
2501.93	22.5
2502.84	23.5
2503.75	28.5
2504.66	21.5
2505.57	22
2506.48	27
2507.39	26
2508.3	25
2509.21	26.5
2510.11	24
2511.02	26
2511.93	23
2512.84	26
2513.75	24
2514.65	22
2515.56	27
2516.47	25.5
2517.37	24
2518.28	27
2519.19	25
2520.09	23
2521	22
2521.91	27.5
2522.81	23
2523.72	25
2524.63	26
2525.53	25.5
2526.44	24
2527.34	23
2528.25	23
2529.16	24
2530.06	26.5
2530.97	25.5
2531.87	24
2532.78	28
2533.68	26.5
2534.58	19.5
2535.49	21
2536.39	22
2537.3	24.5
2538.2	24.5
2539.11	29
2540.01	21
2540.91	25.5
2541.82	25
2542.72	25
2543.62	24.5
2544.53	23
2545.43	21.5
2546.33	19.5
2547.23	25
2548.14	26
2549.04	27
2549.94	25
2550.84	23
2551.75	25
2552.65	26
2553.55	26.5
2554.45	24.5
2555.35	25.5
2556.26	24.5
2557.16	26.5
2558.06	26
2558.96	23.5
2559.86	28
2560.76	21.5
2561.66	21
2562.56	26
2563.46	24
2564.36	24.5
2565.26	20
2566.16	21
2567.06	28
2567.96	23.5
2568.86	26
2569.76	26
2570.66	26
2571.56	23.5
2572.46	23.5
2573.36	26
2574.26	25
2575.16	21
2576.05	22.5
2576.95	21.5
2577.85	25.5
2578.75	25.5
2579.65	24.5
2580.54	21.5
2581.44	26
2582.34	24
2583.24	20
2584.13	26
2585.03	25
2585.93	23.5
2586.83	25.5
2587.72	27.5
2588.62	24.5
2589.52	24
2590.41	24
2591.31	25.5
2592.2	23.5
2593.1	26.5
2594	24.5
2594.89	23.5
2595.79	23.5
2596.68	23
2597.58	22
2598.47	24
2599.37	26
2600.26	25
2601.16	24
2602.05	23
2602.95	22.5
2603.84	25
2604.74	24.5
2605.63	24
2606.52	25
2607.42	26
2608.31	23.5
2609.21	26
2610.1	24.5
2610.99	20.5
2611.89	23.5
2612.78	23
2613.67	20
2614.56	24.5
2615.46	26
2616.35	22.5
2617.24	23.5
2618.13	25.5
2619.03	26
2619.92	23.5
2620.81	22.5
2621.7	23
2622.59	27
2623.49	26.5
2624.38	25.5
2625.27	28
2626.16	24
2627.05	25.5
2627.94	26
2628.83	18.5
2629.72	20
2630.61	27
2631.5	26
2632.39	19
2633.28	23.5
2634.17	25
2635.06	27
2635.95	23.5
2636.84	29.5
2637.73	23.5
2638.62	19
2639.51	28.5
2640.4	27.5
2641.29	26.5
2642.18	27
2643.07	23
2643.96	26
2644.84	29.5
2645.73	21
2646.62	23.5
2647.51	23
2648.4	25
2649.28	27
2650.17	27
2651.06	23.5
2651.95	26.5
2652.83	23
2653.72	28
2654.61	23.5
2655.49	24.5
2656.38	24
2657.27	26.5
2658.16	26
2659.04	24.5
2659.93	24
2660.81	26
2661.7	22
2662.59	23.5
2663.47	24
2664.36	24
2665.24	27
2666.13	24
2667.01	23
2667.9	23.5
2668.78	21
2669.67	25.5
2670.55	28.5
2671.44	25
2672.32	25
2673.21	26
2674.09	23
2674.97	22.5
2675.86	26
2676.74	24
2677.62	26
2678.51	24
2679.39	28
2680.27	26.5
2681.16	26.5
2682.04	27
2682.92	27
2683.81	26
2684.69	29
2685.57	24.5
2686.45	21
2687.34	25.5
2688.22	26
2689.1	24
2689.98	23.5
2690.86	27.5
2691.75	24.5
2692.63	24.5
2693.51	22
2694.39	19.5
2695.27	26
2696.15	24.5
2697.03	26.5
2697.91	22.5
2698.79	23
2699.67	21
2700.55	26.5
2701.43	24
2702.31	23
2703.19	27
2704.07	24.5
2704.95	28
2705.83	24
2706.71	23.5
2707.59	23
2708.47	26
2709.35	25
2710.23	25
2711.11	25
2711.99	26.5
2712.86	25.5
2713.74	24
2714.62	27.5
2715.5	28.5
2716.38	24.5
2717.26	26
2718.13	21.5
2719.01	29.5
2719.89	28
2720.77	24
2721.64	22
2722.52	21.5
2723.4	24
2724.27	22.5
2725.15	27
2726.03	21
2726.9	20.5
2727.78	26.5
2728.66	24
2729.53	23
2730.41	25
2731.28	26.5
2732.16	21.5
2733.03	28.5
2733.91	24
2734.79	23
2735.66	28.5
2736.54	24.5
2737.41	25
2738.29	27
2739.16	23.5
2740.03	20
2740.91	24.5
2741.78	22
2742.66	24.5
2743.53	25
2744.41	23
2745.28	24
2746.15	26
2747.03	26.5
2747.9	25.5
2748.77	26.5
2749.65	22
2750.52	22
2751.39	23
2752.27	22
2753.14	20
2754.01	27
2754.88	26.5
2755.75	24
2756.63	28
2757.5	22.5
2758.37	27.5
2759.24	22.5
2760.11	25
2760.99	23.5
2761.86	27.5
2762.73	20.5
2763.6	24
2764.47	24.5
2765.34	24.5
2766.21	25
2767.08	27.5
2767.95	23.5
2768.82	26
2769.69	24
2770.56	17.5
2771.43	23
2772.3	22.5
2773.17	25.5
2774.04	25
2774.91	23.5
2775.78	23.5
2776.65	27.5
2777.52	23
2778.39	24.5
2779.26	24
2780.13	21.5
2780.99	24
2781.86	27.5
2782.73	24.5
2783.6	27
2784.47	26
2785.34	24
2786.2	28.5
2787.07	24
2787.94	27
2788.81	23
2789.67	26
2790.54	24
2791.41	26
2792.27	26.5
2793.14	28.5
2794.01	22
2794.87	25.5
2795.74	26.5
2796.61	26
2797.47	27
2798.34	24.5
2799.21	28
2800.07	25.5
2800.94	26
2801.8	26
2802.67	24.5
2803.53	28.5
2804.4	25
2805.26	27
2806.13	24
2806.99	23.5
2807.86	31.5
2808.72	28
2809.59	31
2810.45	25
2811.32	28.5
2812.18	24.5
2813.04	26
2813.91	21.5
2814.77	25.5
2815.64	26
2816.5	23
2817.36	24.5
2818.22	28
2819.09	26
2819.95	21
2820.81	23
2821.68	24.5
2822.54	26
2823.4	25.5
2824.26	28
2825.13	27.5
2825.99	26.5
2826.85	26.5
2827.71	27.5
2828.57	28.5
2829.44	26.5
2830.3	25.5
2831.16	23.5
2832.02	26
2832.88	21
2833.74	23.5
2834.6	26.5
2835.46	29.5
2836.32	27
2837.18	25
2838.04	19
2838.9	25.5
2839.76	25.5
2840.62	23.5
2841.48	26.5
2842.34	27
2843.2	27.5
2844.06	24
2844.92	26
2845.78	25
2846.64	25.5
2847.5	24.5
2848.36	25
2849.22	24
2850.08	26
2850.93	27
2851.79	25.5
2852.65	28.5
2853.51	23.5
2854.37	25
2855.22	26
2856.08	28
2856.94	22.5
2857.8	26
2858.65	27
2859.51	24.5
2860.37	25.5
2861.23	28
2862.08	23
2862.94	25.5
2863.79	27.5
2864.65	24
2865.51	27
2866.36	23
2867.22	27
2868.08	26.5
2868.93	30.5
2869.79	25.5
2870.64	30.5
2871.5	27.5
2872.35	26
2873.21	27
2874.06	26
2874.92	28.5
2875.77	29.5
2876.63	28.5
2877.48	28.5
2878.34	33.5
2879.19	33
2880.05	30
2880.9	28.5
2881.76	32
2882.61	29.5
2883.46	33
2884.32	33.5
2885.17	33.5
2886.02	31.5
2886.88	35.5
2887.73	36
2888.58	36
2889.44	33.5
2890.29	39
2891.14	33.5
2891.99	38
2892.85	43
2893.7	42.5
2894.55	46
2895.4	46.5
2896.25	44.5
2897.11	51
2897.96	51
2898.81	55
2899.66	59
2900.51	55
2901.36	60
2902.21	63
2903.07	67
2903.92	65
2904.77	66.5
2905.62	70.5
2906.47	63.5
2907.32	65
2908.17	63
2909.02	63
2909.87	58
2910.72	63.5
2911.57	52.5
2912.42	57.5
2913.27	50
2914.12	46
2914.97	45
2915.81	47.5
2916.66	39
2917.51	40
2918.36	37.5
2919.21	38.5
2920.06	36
2920.91	37.5
2921.75	35.5
2922.6	31.5
2923.45	30
2924.3	33
2925.15	29
2925.99	29
2926.84	29.5
2927.69	31
2928.54	33
2929.38	27.5
2930.23	31
2931.08	30.5
2931.92	26
2932.77	26.5
2933.62	27
2934.46	31.5
2935.31	28
2936.16	26
2937	29
2937.85	28
2938.69	26.5
2939.54	28
2940.38	28
2941.23	27
2942.08	30
2942.92	29
2943.77	28
2944.61	28.5
2945.46	27
2946.3	31
2947.15	30
2947.99	31
2948.83	32.5
2949.68	30.5
2950.52	32
2951.37	34
2952.21	32.5
2953.05	32
2953.9	34
2954.74	31.5
2955.58	31.5
2956.43	32.5
2957.27	35
2958.11	34
2958.96	35.5
2959.8	41
2960.64	39.5
2961.48	44
2962.33	44
2963.17	40
2964.01	41
2964.85	41
2965.69	46.5
2966.54	40
2967.38	40
2968.22	41.5
2969.06	41
2969.9	38.5
2970.74	37
2971.58	39.4927
2972.43	36.387
2973.27	37.3924
2974.11	36.0084
2974.95	32.8549
2975.79	36.6936
2976.63	31.2301
2977.47	31.958
2978.31	32.0092
2979.15	29.4217
2979.99	28.1927
2980.83	31.5163
2981.67	29.9486
2982.51	26.2897
2983.35	21.6034
2984.19	25.0995
2985.03	29.1483
2985.86	26.5714
2986.7	25.1555
2987.54	26.664
2988.38	24.7878
2989.22	25.2561
2990.06	27.4497
2990.9	23.5378
2991.73	28.8118
2992.57	25.2822
2993.41	21.6167
2994.25	23.6605
2995.09	21.1181
2995.92	28.4725
2996.76	21.7354
2997.6	23.2449
2998.44	27.5986
2999.27	26.0914
3000.11	24.2899
3000.95	23.7454
3001.78	21.6221
3002.62	23.4879
3003.46	24.0449
3004.29	22.2556
3005.13	23.0722
3005.96	26.1009
3006.8	23.7089
3007.64	24.782
3008.47	24.859
3009.31	25.6828
3010.14	22.1272
3010.98	22.7804
3011.81	25.6484
3012.65	24.6928
3013.48	23.5813
3014.32	25.1736
3015.15	24.6975
3015.99	24.0581
3016.82	23.2531
3017.66	21.23
3018.49	23.3081
3019.33	24.9684
3020.16	23.4608
3020.99	23.4968
3021.83	22.1798
3022.66	23.2446
3023.5	22.8204
3024.33	22.1069
3025.16	21.3807
3026	24.1964
3026.83	24.6138
3027.66	23.0683
3028.49	22.1748
3029.33	23.5381
3030.16	24.0369
3030.99	21.9633
3031.83	21.5147
3032.66	22.0689
3033.49	24.1374
3034.32	24.7099
3035.15	22.9475
3035.99	23.1909
3036.82	23.8742
3037.65	22.9246
3038.48	21.4041
3039.31	20.335
3040.14	24.0457
3040.97	25.1744
3041.81	25.3395
3042.64	25.2284
3043.47	23.4474
3044.3	23.2389
3045.13	22.5589
3045.96	22.748
3046.79	21.836
3047.62	21.9083
3048.45	21.9341
3049.28	22.8765
3050.11	23.0469
3050.94	22.9988
3051.77	20.9668
3052.6	21.9076
3053.43	24.0037
3054.26	22.8701
3055.08	22.3723
3055.91	23.6111
3056.74	22.7931
3057.26	20
3058.09	21.5
3058.92	20
3059.76	22
3060.59	23.5
3061.42	21.5
3062.25	23.5
3063.09	18.5
3063.92	23
3064.75	25.5
3065.58	24.5
3066.42	28.5
3067.25	25
3068.08	22.5
3068.91	28.5
3069.74	22
3070.57	25
3071.41	24.5
3072.24	23
3073.07	23.5
3073.9	21.5
3074.73	26.5
3075.56	18
3076.39	23
3077.22	23.5
3078.05	22
3078.88	24
3079.71	25.5
3080.54	26.5
3081.37	22
3082.2	25
3083.03	23
3083.86	20.5
3084.69	22.5
3085.52	26
3086.35	23
3087.18	23
3088.01	23
3088.84	22
3089.67	23
3090.5	24
3091.32	20
3092.15	24.5
3092.98	22.5
3093.81	22
3094.64	21.5
3095.47	23
3096.29	24.5
3097.12	27.5
3097.95	24
3098.78	23.5
3099.6	22.5
3100.43	24
3101.26	19.5
3102.09	24
3102.91	24
3103.74	22.5
3104.57	19.5
3105.39	23.5
3106.22	25
3107.05	23
3107.87	23
3108.7	25
3109.52	25
3110.35	24.5
3111.18	23
3112	24
3112.83	28.5
3113.65	27.5
3114.48	24.5
3115.3	23.5
3116.13	22
3116.95	21
3117.78	24.5
3118.6	25.5
3119.43	26.5
3120.25	23
3121.08	19
3121.9	20
3122.72	26.5
3123.55	21
3124.37	25.5
3125.2	27
3126.02	23
3126.84	23.5
3127.67	25.5
3128.49	23.5
3129.31	23.5
3130.14	26.5
3130.96	26
3131.78	25
3132.61	27
3133.43	21
3134.25	24
3135.07	24.5
3135.89	21.5
3136.72	23
3137.54	24.5
3138.36	22
3139.18	24
3140	24.5
3140.83	24
3141.65	24.5
3142.47	23.5
3143.29	27.5
3144.11	22.5
3144.93	21.5
3145.75	23
3146.57	19.5
3147.4	21.5
3148.22	23.5
3149.04	27.5
3149.86	28
3150.68	24.5
3151.5	25
3152.32	24.5
3153.14	21
3153.96	25.5
3154.78	25
3155.59	21
3156.42	27
3157.23	24
3158.05	21
3158.87	24
3159.69	22
3160.51	21
3161.33	26
3162.15	23
3162.97	22
3163.78	23.5
3164.6	19.5
3165.42	25
3166.24	23.5
3167.06	24
3167.87	24
3168.69	25.5
3169.51	23
3170.33	21
3171.14	21
3171.96	26
3172.78	23
3173.6	26.5
3174.41	22
3175.23	25
3176.05	26.5
3176.86	24
3177.68	20.5
3178.5	25
3179.31	21
3180.13	26
3180.94	16.5
3181.76	25
3182.58	24.5
3183.39	25
3184.21	25
3185.02	19
3185.84	20
3186.65	24.5
3187.47	22
3188.28	20
3189.1	24.5
3189.91	23.5
3190.73	23
3191.54	25
3192.36	22.5
3193.17	27
3193.98	24
3194.8	23.5
3195.61	26
3196.43	23.5
3197.24	23.5
3198.05	23
3198.87	22
3199.68	27
3200.49	23
3201.31	28
3202.12	24.5
3202.93	26
3203.75	24.5
3204.56	22.5
3205.37	24.5
3206.18	26
3207	25.5
3207.81	22.5
3208.62	22.5
3209.43	23
3210.24	23
3211.06	22
3211.87	20.5
3212.68	21
3213.49	25
3214.3	23.5
3215.11	20
3215.92	26.5
3216.73	22.5
3217.55	26
3218.36	17
3219.17	23
3219.98	25.5
3220.79	23.5
3221.6	19.5
3222.41	29
3223.22	25.5
3224.03	23.5
3224.84	27
3225.65	26
3226.46	22
3227.27	25
3228.08	24.5
3228.89	28
3229.7	22.5
3230.5	26
3231.31	22
3232.12	21.5
3232.93	26.5
3233.74	24.5
3234.55	23.5
3235.36	24
3236.16	24.5
3236.97	25.5
3237.78	22.5
3238.59	25
3239.4	23
3240.2	22
3241.01	23
3241.82	23.5
3242.63	24
3243.43	23.5
3244.24	25
3245.05	24
3245.85	23.5
3246.66	21
3247.47	25
3248.27	23
3249.08	23
3249.89	28.5
3250.69	24.5
3251.5	24
3252.31	27
3253.11	27
3253.92	24.5
3254.72	23.5
3255.53	23
3256.33	24.5
3257.14	25
3257.94	23
3258.75	23.5
3259.55	21.5
3260.36	22.5
3261.16	22.5
3261.97	23.5
3262.77	26.5
3263.58	27
3264.38	24
3265.19	25
3265.99	27.5
3266.79	22
3267.6	25.5
3268.4	23
3269.21	22.5
3270.01	24.5
3270.81	27
3271.62	22
3272.42	23
3273.22	22
3274.03	22.5
3274.83	23
3275.63	25.5
3276.43	26
3277.24	25.5
3278.04	22
3278.84	25
3279.64	22
3280.45	25.5
3281.25	25
3282.05	20
3282.85	23
3283.65	24
3284.45	20
3285.26	23.5
3286.06	23
3286.86	26
3287.66	21.5
3288.46	21
3289.26	24
3290.06	26
3290.86	21
3291.66	24
3292.46	26
3293.26	24
3294.06	23.5
3294.86	22
3295.66	23
3296.46	23
3297.26	22
3298.06	22
3298.86	25
3299.66	22
3300.46	22
3301.26	23
3302.06	22
3302.86	23.5
3303.66	22
3304.46	21
3305.25	26.5
3306.05	21.5
3306.85	22
3307.65	25.5
3308.45	22.5
3309.25	23.5
3310.04	21
3310.84	24
3311.64	24.5
3312.44	24
3313.23	25
3314.03	28
3314.83	28
3315.63	24
3316.42	20
3317.22	24.5
3318.02	24.5
3318.81	26.5
3319.61	20.5
3320.41	22
3321.2	21
3322	28.5
3322.8	23.5
3323.59	23.5
3324.39	23
3325.18	28
3325.98	21
3326.78	25.5
3327.57	19
3328.37	26.5
3329.16	25
3329.96	22
3330.75	26
3331.55	23
3332.34	26
3333.14	21
3333.93	27
3334.73	23
3335.52	25
3336.31	23.5
3337.11	22
3337.9	22.5
3338.7	23
3339.49	23
3340.28	23.5
3341.08	21
3341.87	24
3342.66	24.5
3343.46	22.5
3344.25	20.5
3345.04	24.5
3345.84	23.5
3346.63	26.5
3347.42	24
3348.22	26
3349.01	22.5
3349.8	28
3350.59	21.5
3351.39	23
3352.18	23.5
3352.97	25.5
3353.76	25
3354.55	20
3355.35	23
3356.14	24
3356.93	25
3357.72	26.5
3358.51	20.5
3359.3	23
3360.09	24
3360.88	24
3361.67	19
3362.46	23.5
3363.26	22
3364.05	21.5
3364.84	24
3365.63	23.5
3366.42	21.5
3367.21	22.5
3368	25.5
3368.79	22
3369.58	25
3370.37	22
3371.15	26
3371.94	26
3372.73	24
3373.52	27.5
3374.31	24.5
3375.1	23.5
3375.89	23.5
3376.68	24
3377.47	24.5
3378.26	21.5
3379.04	24
3379.83	25
3380.62	28.5
3381.41	25.5
3382.2	22.5
3382.98	25.5
3383.77	23.5
3384.56	24.5
3385.35	28.5
3386.13	24
3386.92	23.5
3387.71	25
3388.5	22
3389.28	25
3390.07	23.5
3390.86	22
3391.64	26.5
3392.43	23
3393.22	26
3394	24.5
3394.79	22.5
3395.57	19
3396.36	25
3397.15	26
3397.93	26.5
3398.72	25
3399.5	22
3400.29	29
3401.07	24
3401.86	26
3402.65	26
3403.43	24.5
3404.21	25.5
3405	27
3405.78	25.5
3406.57	24
3407.35	23
3408.14	24
3408.92	25.5
3409.71	25
3410.49	22.5
3411.27	28.5
3412.06	24
3412.84	24.5
3413.62	26.5
3414.41	29
3415.19	22
3415.97	26
3416.76	24.5
3417.54	23
3418.32	22.5
3419.11	26
3419.89	21
3420.67	26.5
3421.46	27.5
3422.24	24
3423.02	26.5
3423.8	25.5
3424.58	21.5
3425.37	19
3426.15	23.5
3426.93	22
3427.71	28.5
3428.49	25.5
3429.27	24.5
3430.05	23
3430.84	27
3431.62	26
3432.4	24.5
3433.18	25
3433.96	25
3434.74	25
3435.52	29
3436.3	23.5
3437.08	29
3437.86	25.5
3438.64	24
3439.42	22.5
3440.2	22
3440.98	24
3441.76	27
3442.54	22
3443.32	28.5
3444.1	24
3444.88	25
3445.66	24
3446.44	28.5
3447.22	24.5
3448	26.5
3448.77	23.5
3449.55	27.5
3450.33	20.5
3451.11	25
3451.89	22
3452.67	25.5
3453.45	26
3454.22	24
3455	23.5
3455.78	23
3456.56	18.5
3457.33	23
3458.11	23.5
3458.89	24.5
3459.67	26.5
3460.44	25
3461.22	23.5
3462	21
3462.77	26.5
3463.55	24
3464.33	23
3465.1	25
3465.88	26.5
3466.66	25.5
3467.43	26
3468.21	23.5
3468.98	21
3469.76	19.5
3470.54	21.5
3471.31	22.5
3472.09	21.5
3472.86	24
3473.64	20.5
3474.41	24
3475.19	26
3475.96	25
3476.74	23
3477.51	23
3478.29	25
3479.06	25.5
3479.84	20
3480.61	21.5
3481.39	29.5
3482.16	26.5
3482.93	26
3483.71	22.5
3484.48	23.5
3485.25	22.5
3486.03	19.5
3486.8	29
3487.57	23.5
3488.35	23
3489.12	27
3489.89	23.5
3490.67	24.5
3491.44	20.5
3492.21	23
3492.99	22.5
3493.76	24.5
3494.53	22
3495.3	25
3496.08	24
3496.85	21.5
3497.62	23
3498.39	25.5
3499.16	27.5
3499.93	25
