#Acq. time (s)=	5
#Accumulations=	5
#Range (cm-¹)=	100...3500
#Windows=	4
#Autofocus=	Off
#AutoExposure=	Off
#Spike filter=	Multiple accum.
#Delay time (s)=	0
#Binning=	1
#Readout mode=	Signal
#DeNoise=	Off
#ICS correction=	Off
#Dark correction=	Off
#Inst. Process=	Off
#Instrument=	LabRAM HR Evol
#Detector=	Syncerity OE
#Objective=	x100_VIS
#Grating=	600 (500nm)
#ND Filter=	25%
#Laser=	633nm_Edge
#Hole=	100.021
#Range=	Visible
#Project=	verificaciones
#Sample=	at5
#Site=	plain
#Title=	bolusat5plain
#Remark=	
#Date=	13.01.2026 19:20
#Acquired=	13.01.2026 19:20:10
100.692	25
101.975	31
103.258	33
104.542	32
105.824	33
107.107	30
108.39	31.5
109.672	30.5
110.954	28.5
112.236	29.5
113.519	29.5
114.8	29
116.081	32
117.362	27
118.643	34
119.924	30
121.204	26
122.484	26.5
123.764	32.5
125.044	29
126.323	32
127.603	35
128.882	32.5
130.161	33
131.438	33.5
132.716	34
133.995	31
135.273	30
136.55	35.5
137.828	34
139.106	34
140.383	36
141.66	34
142.937	36.5
144.213	34
145.488	35
146.764	30
148.04	37.5
149.316	37
150.592	35.5
151.867	35.5
153.141	38.5
154.416	35
155.69	35
156.965	37
158.239	41.5
159.512	38.5
160.786	40
162.059	37.5
163.333	38
164.605	36
165.878	35
167.15	36
168.423	31
169.694	34.5
170.966	33
172.238	32
173.51	35
174.78	40.5
176.052	37
177.323	40.5
178.592	46
179.863	33.5
181.134	36.5
182.403	38.5
183.673	37
184.943	39.5
186.211	41
187.481	37
188.749	36
190.018	35.5
191.287	41.5
192.554	34.5
193.822	34.5
195.089	37
196.357	32
197.625	36
198.891	39
200.159	34
201.425	33
202.692	33.5
203.957	34.5
205.224	32.5
206.489	34.5
207.755	35
209.02	31
210.286	32
211.55	36
212.815	33
214.079	36.5
215.344	34.5
216.607	33
217.872	30
219.135	36
220.399	34
221.662	30
222.924	30
224.187	31
225.449	31.5
226.713	30.5
227.974	26
229.235	32
230.498	30.5
231.759	35.5
233.019	31
234.281	29
235.542	28
236.802	29
238.063	31
239.323	25.5
240.582	32.5
241.843	28
243.102	26.5
244.361	32
245.621	28
246.879	30.5
248.138	29
249.396	29
250.655	27.5
251.913	28.5
253.17	29
254.427	29
255.686	30.5
256.943	30.5
258.199	29.5
259.456	27
260.712	26
261.969	31
263.225	30
264.481	27
265.736	33.5
266.991	36.5
268.246	27
269.502	31
270.757	36.5
272.011	28.5
273.265	27.5
274.519	31
275.773	24
277.027	25.5
278.28	31
279.533	26
280.786	29.5
282.04	25.5
283.293	24
284.545	29
285.798	30
287.049	24
288.301	30.5
289.553	27
290.804	24.5
292.055	29
293.306	26
294.557	25
295.807	25
297.058	28
298.308	27.5
299.558	29
300.808	30
302.057	26.5
303.305	23
304.554	20.5
305.803	25
307.052	27.5
308.3	27
309.549	27
310.797	24.5
312.045	29
313.292	26
314.54	32
315.786	27
317.033	31
318.28	28.5
319.526	28
320.773	26.5
322.019	30.5
323.264	26.5
324.51	32.5
325.755	27.5
327.001	28.5
328.246	31
329.49	27
330.735	27.5
331.979	30.5
333.224	26.5
334.467	25.5
335.711	28.5
336.955	28
338.199	31.5
339.441	29
340.684	30
341.927	29.5
343.168	29.5
344.411	26.5
345.654	25.5
346.895	26
348.137	26
349.379	28
350.619	28
351.86	25.5
353.102	30
354.341	29
355.582	30
356.821	26
358.062	27.5
359.302	27.5
360.541	26
361.781	27
363.019	27
364.259	28
365.496	30
366.736	27
367.974	31.5
369.212	30
370.45	27.5
371.687	30.5
372.925	27
374.162	27
375.399	28
376.635	32
377.873	28
379.109	27
380.344	29
381.581	29.5
382.816	26
384.052	23
385.287	28
386.523	27
387.757	24.5
388.991	28
390.227	31.5
391.46	27.5
392.695	23.5
393.928	27
395.162	29.5
396.396	26
397.629	30
398.861	32.5
400.095	27
401.327	24
402.559	27.5
403.792	25.5
405.024	24.5
406.255	26
407.488	29.5
408.719	29.5
409.949	22.5
411.18	20.5
412.412	30.5
413.642	24.5
414.872	28
416.102	28.5
417.333	26
418.562	28.5
419.791	27.5
421.02	23
422.249	29
423.479	30
424.707	24.5
425.935	26
427.163	27
428.391	28
429.619	29
430.848	29
432.075	26
433.302	27.5
434.529	30
435.755	29
436.982	25
438.208	25
439.434	28
440.66	26.5
441.885	31
443.111	27.5
444.338	31.5
445.563	26
446.788	32
448.012	29.5
449.237	29.5
450.461	30
451.685	29.5
452.909	31.5
454.133	24.5
455.356	31
456.579	34
457.802	29
459.025	29
460.247	31
461.469	27
462.691	27
463.914	25
465.136	26
466.357	32.5
467.579	35
468.8	31
470.021	30.5
471.242	27
472.462	36
473.682	30
474.903	35
476.123	38
477.343	39.5
478.563	39.5
479.782	45.5
481	49
482.219	48
483.438	48
484.657	50
485.874	53
487.093	50
488.311	50.5
489.529	55
490.747	56
491.963	52.5
493.181	53
494.398	50
495.614	45.5
496.83	45.5
498.047	43.5
499.264	41
500.479	41.5
501.695	38
502.911	39
504.125	34
505.34	34
506.554	34.5
507.769	30.5
508.984	32.5
510.198	38
511.412	34.5
512.627	32.5
513.839	32
515.053	31
516.266	27.5
517.479	31.5
518.691	34.5
519.905	33
521.118	26.5
522.329	30.5
523.542	29
524.753	32.5
525.965	30.5
527.176	32
528.388	32.5
529.598	33.5
530.809	30
532.019	28.5
533.23	25.5
534.44	27
535.649	28
536.86	32.5
538.068	32.5
539.279	33
540.487	30
541.697	27.5
542.905	28
544.113	25
545.322	28.5
546.53	25.5
547.737	28
548.946	28
550.153	27
551.361	24
552.568	28.5
553.774	23.5
554.982	27.5
556.188	25.5
557.394	28
558.599	27
559.806	29
561.012	27
562.217	29
563.423	23
564.628	27.5
565.832	27
567.036	24.5
568.241	25.5
569.446	27
570.65	29
571.853	25
573.057	28
574.26	29.5
575.464	27
576.667	25
577.87	25.5
579.072	27.5
580.274	25.5
581.477	27
582.68	25.5
583.881	28.5
585.083	32
586.284	33.5
587.485	27
588.686	26
589.887	28
591.087	25.5
592.288	26.5
593.488	27.5
594.688	27.5
595.888	28
597.087	28
598.287	30.5
599.486	27
600.685	30
601.884	28
603.082	28
604.281	25.5
605.479	28.5
606.677	28.5
607.875	30
609.073	28
610.27	24
611.468	22
612.665	33
613.862	30
615.058	27.5
616.255	28
617.451	29
618.648	29
619.842	31.5
621.038	26.5
622.234	28.5
623.429	24
624.624	27
625.819	30.5
627.013	26.5
628.207	27.5
629.402	28
630.596	28
631.79	27
632.983	24
634.177	25
635.37	28
636.564	26
637.755	26.5
638.948	31.5
640.141	28
641.334	28.5
642.525	26
643.717	29
644.909	29
646.099	28.5
647.291	27.5
648.483	27.5
649.674	26
650.864	30
652.055	26
653.244	29
654.435	25.5
655.625	25
656.814	29
658.004	28
659.193	30
660.382	30.5
661.571	25
662.759	30.5
663.948	27.5
665.135	29.5
666.324	29
667.511	32
668.7	31.5
669.886	29.5
671.074	28.5
672.262	29.5
673.448	28.5
674.634	25.5
675.821	30
677.007	33
678.194	32
679.379	29
680.565	31.5
681.75	30.5
682.936	31
684.121	34
685.305	29.5
686.491	32
687.675	36.5
688.86	34.5
690.043	31
691.227	31.5
692.411	31
693.594	35.5
694.777	34
695.961	29
697.144	40
698.326	37
699.509	35
700.691	35.5
701.873	37
703.056	34
704.237	41.5
705.419	41
706.599	46.5
707.782	48
708.962	47
710.143	43.5
711.323	43.5
712.504	41.5
713.684	33
714.864	37.5
716.043	30
717.223	29
718.403	30.5
719.582	26.5
720.761	28.5
721.94	30.5
723.118	31
724.296	28.5
725.474	26
726.652	29
727.831	29
729.009	24
730.186	27
731.363	28
732.54	28
733.717	31
734.893	27
736.07	29
737.246	29.5
738.422	28
739.598	30.5
740.773	30
741.949	31
743.124	24
744.299	27
745.474	28
746.649	27.5
747.823	27
748.997	25
750.172	24.5
751.346	25.5
752.519	31
753.693	27.5
754.867	28.5
756.038	28.5
757.211	29.5
758.384	25
759.557	28.5
760.73	26
761.902	30.5
763.074	24.5
764.246	30
765.417	25
766.588	25
767.76	30.5
768.931	25.5
770.102	29
771.271	26.5
772.442	30.5
773.613	24.5
774.783	27.5
775.952	28.5
777.122	29
778.291	29.5
779.461	26
780.629	25
781.798	29
782.967	28.5
784.135	27.5
785.304	30.5
786.472	28.5
787.639	33
788.807	32
789.975	24.5
791.142	28
792.309	32
793.477	29.5
794.642	29
795.81	30
796.975	33.5
798.142	30
799.308	27.5
800.473	28.5
801.639	30
802.804	30.5
803.97	29
805.134	25
806.299	32
807.463	32
808.628	28
809.792	27
810.957	30.5
812.12	26
813.284	27.5
814.447	30.5
815.611	29
816.773	29.5
817.937	28
819.099	28.5
820.261	27.5
821.424	27
822.585	25.5
823.748	23
824.909	27.5
826.07	28
827.232	24.5
828.393	25
829.554	26
830.715	26
831.875	28
833.035	25
834.196	28
835.356	27.5
836.515	25.5
837.676	25
838.835	25
839.994	26
841.152	29
842.312	27
843.47	24
844.629	27
845.786	27.5
846.946	30
848.103	28.5
849.261	27.5
850.418	28.5
851.575	28
852.733	28
853.89	28
855.046	29
856.203	29.5
857.359	29.5
858.515	27
859.67	32
860.827	27
861.983	27
863.138	31.5
864.293	28.5
865.448	26
866.603	30
867.757	29
868.912	29.5
870.066	30.5
871.22	29
872.374	27
873.527	22
874.681	27.5
875.834	29
876.987	29
878.14	26.5
879.293	30.5
880.445	27
881.598	27.5
882.75	27.5
883.902	25
885.054	27.5
886.206	25.5
887.357	25
888.507	27.5
889.658	25.5
890.809	25.5
891.96	26
893.111	25.5
894.261	25
895.411	26.5
896.561	26.5
897.71	27.5
898.86	23
900.009	24
901.159	27.5
902.308	29
903.455	27.5
904.604	26
905.753	26.5
906.901	27.5
908.048	25.5
909.197	26.5
910.344	24.5
911.492	30
912.639	25
913.786	26.5
914.933	26
916.079	27
917.226	26
918.373	25.5
919.518	21.5
920.664	26.5
921.81	23.5
922.955	28
924.101	30
925.245	27.5
926.391	25.5
927.536	29.5
928.68	24.5
929.825	24.5
930.968	25
932.113	26.5
933.256	24.5
934.4	22.5
935.543	28.5
936.687	24
937.83	31
938.973	29.5
940.115	27.5
941.258	26
942.399	26
943.542	28
944.684	26.5
945.826	30
946.967	27
948.109	24
949.25	23
950.392	27
951.532	21
952.672	28
953.813	23
954.953	24
956.093	25.5
957.233	20.5
958.373	22.5
959.512	26.5
960.652	26
961.791	24
962.929	27
964.069	25
965.207	28
966.345	27
967.484	24.5
968.622	27.5
969.759	28
970.896	27.5
972.035	27
973.172	24
974.309	26
975.445	29
976.582	33
977.719	26.5
978.855	25
979.991	24.5
981.127	28.5
982.263	31.5
983.398	24.5
984.535	25.5
985.67	26.5
986.804	23.5
987.939	25
989.074	23
990.208	23
991.342	25
992.476	30
993.61	28.5
994.744	24
995.877	29
997.01	24
998.143	26.5
999.276	25.5
1000.41	23.5
1001.54	26
1002.67	31
1003.81	24.5
1004.94	28
1006.07	26.5
1007.2	23
1008.33	27.5
1009.47	29.5
1010.6	26
1011.73	26
1012.86	25
1013.99	26
1015.12	29
1016.25	21.5
1017.38	26.5
1018.51	22
1019.64	28
1020.77	21
1021.9	23
1023.03	22
1024.15	28
1025.28	26.5
1026.41	22
1027.54	28
1028.67	23
1029.8	24.5
1030.92	21
1032.05	27
1033.18	25
1034.31	24.5
1035.43	24.5
1036.56	26.5
1037.69	26
1038.81	26.5
1039.94	24.5
1041.07	22
1042.19	30
1043.32	29.5
1044.44	27
1045.57	25
1046.69	23
1047.82	24.5
1048.94	27
1050.07	27.5
1051.19	25
1052.32	25.5
1053.44	23
1054.57	26
1055.69	23
1056.81	23.5
1057.94	26.5
1059.06	24
1060.18	29
1061.31	27.5
1062.43	25.5
1063.55	26
1064.67	22.5
1065.8	23.5
1066.92	23
1068.04	25.5
1069.16	26
1070.28	24.5
1071.4	25
1072.52	29.5
1073.64	24.5
1074.76	31
1075.89	30.5
1077.01	25
1078.13	29.5
1079.25	25.5
1080.37	23.5
1081.49	26.5
1082.6	25
1083.72	26.5
1084.84	21.5
1085.96	29.5
1087.08	28
1088.2	26.5
1089.32	29
1090.43	27
1091.55	28.5
1092.67	28
1093.79	24.5
1094.91	22
1096.02	25.5
1097.14	26
1098.26	28.5
1099.37	25
1100.49	26.5
1101.61	22.5
1102.72	28.5
1103.84	24.5
1104.95	24
1106.07	26
1107.18	26
1108.3	27
1109.41	28
1110.53	26
1111.64	21
1112.76	23
1113.87	28.5
1114.99	24.5
1116.1	25
1117.21	26.5
1118.33	30
1119.44	23
1120.55	25.5
1121.67	25
1122.78	27.5
1123.89	25
1125	26.5
1126.12	23
1127.23	26
1128.34	23.5
1129.45	23.5
1130.56	27.5
1131.68	23
1132.79	20
1133.9	25
1135.01	23
1136.12	21.5
1137.23	28
1138.34	23.5
1139.45	25.5
1140.56	25.5
1141.67	23.5
1142.78	25
1143.89	23
1145	27.5
1146.11	25.5
1147.22	24.5
1148.32	25
1149.43	26.5
1150.54	22
1151.65	24.5
1152.76	22
1153.86	23
1154.97	27
1156.08	22.5
1157.19	27
1158.29	22.5
1159.4	26
1160.51	21.5
1161.61	24
1162.72	29.5
1163.83	26
1164.93	23.5
1166.04	25.5
1167.14	26
1168.25	27
1169.35	27
1170.46	24.5
1171.56	25.5
1172.67	24
1173.77	22
1174.88	26.5
1175.98	26
1177.08	26
1178.19	24.5
1179.29	24.5
1180.4	23.5
1181.5	24
1182.6	28.5
1183.71	27.5
1184.81	24
1185.91	27
1187.01	24.5
1188.12	26
1189.22	24
1190.32	24.5
1191.42	25
1192.52	23
1193.62	25
1194.72	24.5007
1195.83	21.5229
1196.93	26.0405
1198.03	26.8674
1199.13	24.4968
1200.23	23.8472
1201.33	22.2699
1202.43	22.3481
1203.53	24.8979
1204.63	25.3515
1205.73	26.1928
1206.83	26.4961
1207.92	25.057
1209.02	24.5143
1210.12	23.6231
1211.22	25.7257
1212.32	23.5083
1213.42	26.4861
1214.51	24.2142
1215.61	27.2295
1216.71	25.4264
1217.81	25.1869
1218.9	26.2848
1220	23.5371
1221.1	23.1678
1222.19	20.9627
1223.29	20.6202
1224.39	22.2783
1225.48	24.5962
1226.58	21.87
1227.68	25.4617
1228.77	23.2146
1229.87	25.8013
1230.96	21.0919
1232.06	24.32
1233.15	25.6716
1234.25	23.3724
1235.34	22.4239
1236.43	24.0499
1237.53	26.9584
1238.62	24.8292
1239.72	23.1115
1240.81	23.2432
1241.9	24.5402
1243	24.6299
1244.09	24.9397
1245.18	24.8268
1246.27	22.9022
1247.37	23.7782
1248.46	24.5092
1249.55	23.2033
1250.64	22.7653
1251.74	26.4543
1252.83	25.5194
1253.92	26.7409
1255.01	23.3397
1256.1	24.2954
1257.19	29.3659
1258.28	27.4071
1259.38	24.1606
1260.46	25.3683
1261.56	25.0551
1262.65	25.7471
1263.74	25.6983
1264.82	24.118
1265.91	22.4899
1267	25.7795
1268.09	26.1235
1269.18	24.6164
1270.27	25.245
1271.36	21.1119
1272.45	24.0637
1273.54	24.9277
1274.63	26.1534
1275.71	24.3638
1276.8	24.0884
1277.89	23.2571
1278.98	26.134
1280.06	26.2572
1281.15	23.6619
1282.24	25.8756
1283.32	26.3956
1284.41	21.3904
1285.5	23.6687
1286.58	23.1358
1287.67	26.2546
1288.76	26.0199
1289.84	22.332
1290.93	23.2687
1292.01	24.4268
1293.1	25.501
1294.18	24.6901
1295.27	23.1597
1296.35	23.6929
1297.44	23.9587
1298.52	21.5211
1299.6	23.9058
1300.69	21.0253
1301.77	25.059
1302.86	23.9652
1303.94	24.7506
1305.02	25.1
1306.11	25.3622
1306.41	25.5
1307.5	24.5
1308.59	28.5
1309.68	21.5
1310.77	24.5
1311.85	23.5
1312.94	25
1314.03	22
1315.11	26.5
1316.2	22
1317.29	24.5
1318.37	26
1319.46	24.5
1320.55	22.5
1321.63	25
1322.72	22
1323.8	20.5
1324.89	24
1325.98	24.5
1327.06	24.5
1328.15	26.5
1329.23	24.5
1330.31	23.5
1331.4	22
1332.48	28.5
1333.57	25
1334.65	21.5
1335.74	25
1336.82	24
1337.9	29.5
1338.99	30
1340.07	27.5
1341.15	25.5
1342.24	25.5
1343.32	22.5
1344.4	27
1345.48	29
1346.56	24
1347.65	20.5
1348.73	24.5
1349.81	25
1350.89	21
1351.97	26.5
1353.05	24.5
1354.13	20
1355.21	29
1356.29	23
1357.37	24.5
1358.46	23
1359.54	20.5
1360.62	23
1361.69	25.5
1362.77	22.5
1363.85	26
1364.93	22
1366.01	23.5
1367.09	26
1368.17	22.5
1369.25	22.5
1370.33	23
1371.41	24
1372.48	24
1373.56	29
1374.64	22
1375.72	27.5
1376.79	23.5
1377.87	28.5
1378.95	27
1380.02	23.5
1381.1	23.5
1382.18	26
1383.25	25.5
1384.33	26
1385.4	26.5
1386.48	24
1387.56	24
1388.63	28.5
1389.71	29
1390.78	27
1391.86	22
1392.93	24.5
1394.01	23.5
1395.08	26.5
1396.15	28
1397.23	25
1398.3	25
1399.38	28
1400.45	24.5
1401.52	27
1402.6	30
1403.67	26
1404.74	27
1405.81	29
1406.89	31.5
1407.96	25.5
1409.03	26
1410.1	33
1411.17	29
1412.25	28.5
1413.32	30.5
1414.39	32
1415.46	29
1416.53	30.5
1417.6	26
1418.67	27
1419.74	25.5
1420.81	25.5
1421.88	28.5
1422.95	26.5
1424.02	22
1425.09	26
1426.16	28.5
1427.23	30
1428.3	24.5
1429.37	28
1430.44	26
1431.51	24
1432.58	28
1433.64	27
1434.71	28
1435.78	26.5
1436.85	25
1437.92	23.5
1438.98	26.5
1440.05	24.5
1441.12	26.5
1442.18	26
1443.25	23.5
1444.32	24
1445.38	23.5
1446.45	25.5
1447.52	26
1448.58	27
1449.65	22.5
1450.71	22
1451.78	24
1452.84	22.5
1453.91	27
1454.97	25
1456.04	27
1457.1	22.5
1458.17	27
1459.23	29.5
1460.3	25.5
1461.36	21
1462.42	21
1463.49	24.5
1464.55	24.5
1465.61	25.5
1466.68	26
1467.74	27
1468.8	25
1469.86	24.5
1470.93	26
1471.99	23
1473.05	27
1474.11	23
1475.17	25
1476.24	27.5
1477.3	26
1478.36	26
1479.42	23
1480.48	24.5
1481.54	27
1482.6	27
1483.66	27
1484.72	29.5
1485.78	24
1486.84	28.5
1487.9	26.5
1488.96	28
1490.02	28.5
1491.08	25.5
1492.14	27.5
1493.2	26.5
1494.26	25
1495.31	32.5
1496.37	26
1497.43	26.5
1498.49	26.5
1499.55	26.5
1500.6	23
1501.66	27
1502.72	29.5
1503.78	25.5
1504.83	25
1505.89	27.5
1506.95	31
1508	23
1509.06	25
1510.12	25.5
1511.17	30
1512.23	26.5
1513.28	25.5
1514.34	24.5
1515.39	29
1516.45	25
1517.5	24.5
1518.56	21
1519.61	22
1520.67	25.5
1521.72	25.5
1522.78	25.5
1523.83	22
1524.88	27
1525.94	24
1526.99	25
1528.05	26.5
1529.1	23.5
1530.15	25
1531.2	27
1532.26	28
1533.31	28
1534.36	24
1535.41	24
1536.47	25
1537.52	29
1538.57	22
1539.62	24.5
1540.67	29
1541.72	25
1542.77	25.5
1543.83	27
1544.88	25
1545.93	24
1546.98	27
1548.03	25.5
1549.08	25.5
1550.13	27
1551.18	25
1552.23	23
1553.28	23
1554.32	30
1555.37	28
1556.42	27.5
1557.47	29.5
1558.52	24
1559.57	25.5
1560.62	29.5
1561.67	25
1562.71	26
1563.76	27.5
1564.81	27
1565.86	23.5
1566.9	27
1567.95	24.5
1569	25
1570.04	26
1571.09	23.5
1572.14	27
1573.18	27.5
1574.23	27
1575.27	25.5
1576.32	25
1577.37	25.5
1578.41	25.5
1579.46	24
1580.5	24
1581.55	21.5
1582.59	28
1583.64	20
1584.68	27
1585.72	27.5
1586.77	26
1587.81	24
1588.86	27
1589.9	25.5
1590.94	26
1591.99	26.5
1593.03	25
1594.07	24.5
1595.12	24
1596.16	27
1597.2	27
1598.24	25.5
1599.29	27
1600.33	23
1601.37	26
1602.41	26
1603.45	26
1604.49	25.5
1605.53	28
1606.58	25.5
1607.62	22
1608.66	24
1609.7	22
1610.74	25
1611.78	25
1612.82	24
1613.86	25.5
1614.9	24.5
1615.94	23.5
1616.98	29
1618.02	25.5
1619.06	26
1620.09	26.5
1621.13	26.5
1622.17	26
1623.21	28
1624.25	24
1625.29	25
1626.32	28
1627.36	23.5
1628.4	27
1629.44	27
1630.47	26.5
1631.51	22.5
1632.55	27
1633.58	27
1634.62	28
1635.66	24.5
1636.69	24
1637.73	27.5
1638.77	29
1639.8	28.5
1640.84	28
1641.87	25
1642.91	26.5
1643.94	28
1644.98	26.5
1646.01	22
1647.05	28.5
1648.08	26
1649.12	26
1650.15	25
1651.18	25
1652.22	27.5
1653.25	26.5
1654.29	26.5
1655.32	24.5
1656.35	27
1657.39	26.5
1658.42	23
1659.45	24
1660.48	25.5
1661.52	27
1662.55	27
1663.58	26.5
1664.61	24.5
1665.64	27.5
1666.68	24
1667.71	24.5
1668.74	28
1669.77	22
1670.8	23.5
1671.83	27.5
1672.86	25
1673.89	21
1674.92	22
1675.95	26
1676.98	25
1678.01	26.5
1679.04	27.5
1680.07	27
1681.1	27
1682.13	24
1683.16	28
1684.19	27.5
1685.22	27.5
1686.25	27
1687.27	27
1688.3	27.5
1689.33	23.5
1690.36	25
1691.38	25
1692.41	26
1693.44	21
1694.47	25
1695.49	25.5
1696.52	26
1697.55	19.5
1698.57	22.5
1699.6	27.5
1700.63	24
1701.65	24.5
1702.68	24
1703.7	22.5
1704.73	27.5
1705.76	22.5
1706.78	24.5
1707.81	25.5
1708.83	25.5
1709.86	24
1710.88	27.5
1711.91	29
1712.93	27
1713.95	24
1714.98	25
1716	28.5
1717.03	27
1718.05	27
1719.07	22.5
1720.1	25
1721.12	29.5
1722.14	22.5
1723.16	26
1724.19	26
1725.21	25
1726.23	26
1727.25	26
1728.28	27.5
1729.3	25
1730.32	28.5
1731.34	23.5
1732.36	23
1733.38	25
1734.41	24
1735.43	23
1736.45	27.5
1737.47	22
1738.49	27
1739.51	25.5
1740.53	23.5
1741.55	27.5
1742.57	24.5
1743.59	25
1744.61	28
1745.63	25
1746.64	26.5
1747.66	25
1748.68	23
1749.7	24.5
1750.72	26.5
1751.74	25
1752.76	25
1753.77	24.5
1754.79	26
1755.81	20
1756.83	23.5
1757.84	26
1758.86	26
1759.88	25
1760.9	30.5
1761.91	22.5
1762.93	24
1763.95	28.5
1764.96	26.5
1765.98	26
1766.99	25
1768.01	26
1769.02	25
1770.04	24.5
1771.06	25.5
1772.07	25
1773.09	26.5
1774.1	22.5
1775.12	24.5
1776.13	24
1777.14	24.5
1778.16	28
1779.17	21
1780.19	22.5
1781.2	29
1782.21	26
1783.23	27
1784.24	28
1785.25	22
1786.27	28
1787.28	27
1788.29	26.5
1789.3	22.5
1790.32	25.5
1791.33	26.5
1792.34	24
1793.35	28
1794.36	23.5
1795.38	27.5
1796.39	22
1797.4	26
1798.41	25.5
1799.42	24.5
1800.43	21.5
1801.44	25.5
1802.45	28.5
1803.46	25
1804.47	28
1805.48	25
1806.49	25
1807.5	27
1808.51	25
1809.52	23
1810.53	21
1811.54	28
1812.55	28
1813.56	24
1814.57	30.5
1815.57	23.5
1816.58	27
1817.59	22
1818.6	24
1819.61	26
1820.61	21.5
1821.62	22.5
1822.63	21
1823.64	26
1824.64	26.5
1825.65	24
1826.66	29.5
1827.66	23.5
1828.67	29
1829.68	24
1830.68	25.5
1831.69	22.5
1832.69	26.5
1833.7	24
1834.7	23.5
1835.71	27
1836.71	27
1837.72	26.5
1838.72	28.5
1839.73	22.5
1840.73	28
1841.74	26.5
1842.74	23
1843.75	24.5
1844.75	28
1845.75	28
1846.76	23.5
1847.76	25
1848.76	24.5
1849.77	25.5
1850.77	27
1851.77	26
1852.78	24
1853.78	25
1854.78	27
1855.78	25
1856.78	24
1857.79	24
1858.79	25
1859.79	24
1860.79	24
1861.79	23
1862.79	26
1863.79	26
1864.79	28
1865.79	25.5
1866.8	27
1867.8	27.5
1868.8	24.5
1869.8	22
1870.8	29
1871.8	26.5
1872.8	23.5
1873.79	22.5
1874.79	22.5
1875.79	26.5
1876.79	25
1877.79	25.5
1878.79	25.5
1879.79	24.5
1880.79	26.5
1881.78	24.5
1882.78	21
1883.78	23.5
1884.78	27
1885.77	24
1886.77	24.5
1887.77	29.5
1888.77	25
1889.76	26.5
1890.76	28
1891.76	24
1892.75	25
1893.75	22
1894.75	26
1895.74	24
1896.74	26.5
1897.73	27.5
1898.73	26
1899.73	27.5
1900.72	26.5
1901.72	25.5
1902.71	20
1903.7	23.5
1904.7	27.5
1905.69	23
1906.69	27
1907.68	27
1908.68	28
1909.67	26
1910.66	25
1911.66	30.5
1912.65	25.5
1913.64	27.5
1914.64	24
1915.63	25
1916.62	25.5
1917.62	22
1918.61	29
1919.6	25.5
1920.59	27.5
1921.58	26.5
1922.58	24
1923.57	25.5
1924.56	24
1925.55	26
1926.54	25.5
1927.53	21.5
1928.52	26
1929.51	22.5
1930.51	24
1931.5	25.5
1932.49	22.5
1933.48	25
1934.47	19.5
1935.46	24.5
1936.45	25.5
1937.44	27.5
1938.42	27.5
1939.41	28.5
1940.4	29.5
1941.39	24.5
1942.38	24
1943.37	25.5
1944.36	22.5
1945.35	23
1946.33	24.5
1947.32	24.5
1948.31	25
1949.3	25.5
1950.29	23.5
1951.27	28
1952.26	24.5
1953.25	26.5
1954.23	26.5
1955.22	24.5
1956.21	25
1957.19	24
1958.18	28
1959.17	23
1960.15	22
1961.14	22
1962.13	21
1963.11	23
1964.1	25
1965.08	26
1966.07	26
1967.05	24.5
1968.04	22
1969.02	24.5
1970.01	26.5
1970.99	27
1971.97	23.5
1972.96	22
1973.94	27.5
1974.93	22.5
1975.91	24
1976.89	25
1977.88	27
1978.86	26
1979.84	21.5
1980.83	27.5
1981.81	24
1982.79	24.5
1983.77	22.5
1984.76	24.5
1985.74	23.5
1986.72	23
1987.7	27.5
1988.68	23
1989.67	25
1990.65	25
1991.63	28
1992.61	24.5
1993.59	25.5
1994.57	22
1995.55	28
1996.53	25
1997.51	24.5
1998.49	23
1999.47	23.5
2000.45	23
2001.43	25
2002.41	23.5
2003.39	29
2004.37	25
2005.35	22.5
2006.33	26
2007.31	24
2008.29	26.5
2009.26	25
2010.24	23
2011.22	21
2012.2	23.5
2013.18	24.5
2014.15	26.5
2015.13	25
2016.11	25
2017.09	23
2018.06	25
2019.04	22
2020.02	25.5
2021	22
2021.97	24.5
2022.95	24
2023.92	26
2024.9	22.5
2025.88	21
2026.85	24
2027.83	23
2028.8	27.5
2029.78	22.5
2030.75	25.5
2031.73	23.5
2032.7	24
2033.68	23.5
2034.65	23
2035.63	25
2036.6	26.5
2037.58	23.5
2038.55	28.5
2039.52	27.5
2040.5	26
2041.47	25
2042.45	20.5
2043.42	24.5
2044.39	24.5
2045.36	25.5
2046.34	26
2047.31	24
2048.28	23
2049.26	25
2050.23	25
2051.2	24
2052.17	25
2053.14	25
2054.12	27.5
2055.09	27.5
2056.06	25
2057.03	21
2058	22
2058.97	22
2059.94	24.5
2060.91	19
2061.88	25
2062.85	24
2063.82	21.5
2064.79	25
2065.76	25
2066.73	24
2067.7	19.5
2068.67	24
2069.64	24
2070.61	23
2071.58	23
2072.55	22.5
2073.52	22
2074.49	30.5
2075.45	25
2076.42	23
2077.39	22.5
2078.36	26.5
2079.33	25
2080.29	24
2081.26	20
2082.23	24
2083.2	23
2084.16	26.5
2085.13	27.5
2086.1	24.5
2087.06	22.5
2088.03	28
2089	23.5
2089.96	23.5
2090.93	27.5
2091.89	21
2092.86	22
2093.83	22
2094.79	25.5
2095.76	25.5
2096.72	19
2097.69	26.5
2098.65	21.5
2099.62	21.5
2100.58	26.5
2101.55	26.5
2102.51	26
2103.47	25.5
2104.44	26.5
2105.4	19.5
2106.36	24
2107.33	22
2108.29	26.5
2109.25	24
2110.22	24.5
2111.18	25
2112.14	26.5
2113.11	24
2114.07	23
2115.03	21
2115.99	26
2116.96	23.5
2117.92	22
2118.88	24
2119.84	26.5
2120.8	24
2121.76	21.5
2122.72	24.5
2123.68	24.5
2124.65	23.5
2125.61	23
2126.57	23.5
2127.53	22
2128.49	26
2129.45	22
2130.41	24.5
2131.37	25.5
2132.33	25
2133.29	25
2134.25	28
2135.21	25.5
2136.17	23.5
2137.12	20
2138.08	27.5
2139.04	26
2140	25
2140.96	21.5
2141.92	26.5
2142.88	23.9882
2143.83	22.9513
2144.79	23.9094
2145.75	26.4741
2146.71	21.9854
2147.66	25.3724
2148.62	21.0874
2149.58	24.4546
2150.53	24.5311
2151.49	20.7577
2152.45	23.9783
2153.4	23.0233
2154.36	24.5447
2155.32	28.5123
2156.27	22.7511
2157.23	23.5
2158.19	24.2408
2159.14	26.3448
2160.1	19.8592
2161.05	23.5267
2162.01	24.4883
2162.96	24.352
2163.92	25.8886
2164.87	21.8859
2165.83	23.9242
2166.78	23.4951
2167.73	23.4946
2168.69	22.2007
2169.64	22.9238
2170.6	25.0208
2171.55	22.9042
2172.5	22.266
2173.46	27.2522
2174.41	21.5674
2175.36	22.7004
2176.32	20.6933
2177.27	19.6528
2178.22	21.2527
2179.18	23.3384
2180.13	23.942
2181.08	25.3539
2182.03	23.855
2182.98	23.2783
2183.94	21.735
2184.89	24.8365
2185.84	24.9739
2186.79	21.8796
2187.74	25.8192
2188.69	23.5583
2189.64	23.0382
2190.6	24.4942
2191.55	23.5
2192.5	22.496
2193.45	23.683
2194.4	20.7527
2195.35	23.0115
2196.3	24.6404
2197.25	22.2262
2198.2	25.1363
2199.15	22.874
2200.1	24.2011
2201.04	25.0545
2201.99	25.9102
2202.94	24.8162
2203.89	23.9275
2204.84	23.6495
2205.79	22.5825
2206.74	25.1374
2207.69	24.2068
2208.63	24.7848
2209.58	25.0363
2210.53	21.4481
2211.48	21.9163
2212.43	24.6511
2213.37	19.2381
2214.32	22.6491
2215.27	22.3536
2216.21	25.1531
2217.16	24.728
2218.11	24.3155
2219.05	23.876
2220	21.9955
2220.95	23.0848
2221.89	21.3705
2222.84	20.835
2223.78	25.0277
2224.73	23.2491
2225.68	24.4583
2226.62	23.4292
2227.57	23.7964
2228.51	23.7579
2229.46	24.2595
2230.4	22.9217
2231.35	22.9544
2232.29	23.9788
2233.24	25.6143
2234.18	24.3188
2235.12	23.4656
2236.07	24.7167
2237.01	25.0719
2237.95	23.4873
2238.9	21.8338
2239.84	21.8778
2240.06	22
2241.01	25
2241.96	24
2242.91	22
2243.86	25.5
2244.8	21.5
2245.75	23.5
2246.7	21
2247.65	26.5
2248.59	21.5
2249.54	26
2250.49	22
2251.43	24
2252.38	20
2253.33	28
2254.27	24
2255.22	26.5
2256.16	24.5
2257.11	26.5
2258.06	28.5
2259	22
2259.95	22.5
2260.89	22.5
2261.84	23.5
2262.78	25
2263.73	20.5
2264.67	23
2265.62	22
2266.56	25.5
2267.5	23.5
2268.45	28.5
2269.39	22.5
2270.34	20.5
2271.28	27
2272.22	25
2273.17	23
2274.11	25.5
2275.05	22.5
2276	23
2276.94	28.5
2277.88	23
2278.82	22
2279.77	24
2280.71	23
2281.65	23
2282.59	24
2283.53	24
2284.48	22.5
2285.42	22
2286.36	24.5
2287.3	21.5
2288.24	24.5
2289.18	24.5
2290.12	24
2291.06	22
2292	25.5
2292.94	25
2293.89	23
2294.83	25
2295.77	18.5
2296.71	24.5
2297.65	25
2298.58	20
2299.52	25.5
2300.46	23.5
2301.4	24.5
2302.34	22.5
2303.28	21
2304.22	23
2305.16	27
2306.1	20
2307.03	26
2307.97	26
2308.91	25.5
2309.85	22
2310.79	22
2311.72	26
2312.66	23
2313.6	21
2314.54	21
2315.47	24
2316.41	24.5
2317.35	22
2318.28	24
2319.22	23
2320.16	21.5
2321.09	26
2322.03	19.5
2322.96	23.5
2323.9	22
2324.84	20.5
2325.77	23
2326.71	22.5
2327.64	23.5
2328.58	22.5
2329.51	22.5
2330.45	24
2331.38	22
2332.32	24.5
2333.25	28.5
2334.18	30
2335.12	23.5
2336.05	25
2336.99	25
2337.92	24.5
2338.85	25.5
2339.79	25
2340.72	25
2341.65	28
2342.59	27.5
2343.52	26
2344.45	25
2345.39	25
2346.32	26
2347.25	25.5
2348.18	24
2349.11	26.5
2350.05	24.5
2350.98	20.5
2351.91	21.5
2352.84	24
2353.77	23.5
2354.7	24.5
2355.64	27
2356.57	26
2357.5	25
2358.43	22
2359.36	23
2360.29	23
2361.22	22.5
2362.15	21
2363.08	26
2364.01	26
2364.94	27.5
2365.87	23
2366.8	24
2367.73	22
2368.66	23.5
2369.58	22
2370.51	24
2371.44	25.5
2372.37	20
2373.3	22.5
2374.23	28
2375.16	21
2376.08	24
2377.01	25.5
2377.94	25
2378.87	20
2379.8	24.5
2380.72	22
2381.65	23
2382.58	22
2383.5	24.5
2384.43	27
2385.36	25.5
2386.28	25.5
2387.21	25
2388.14	26.5
2389.06	23
2389.99	23.5
2390.91	19
2391.84	26
2392.77	24
2393.69	27
2394.62	25.5
2395.54	25.5
2396.47	25
2397.39	26
2398.32	25.5
2399.24	27
2400.16	22
2401.09	25
2402.01	22
2402.94	24
2403.86	27.5
2404.78	26
2405.71	28
2406.63	26.5
2407.56	20.5
2408.48	24
2409.4	23.5
2410.32	20
2411.25	23.5
2412.17	21.5
2413.09	21
2414.02	24.5
2414.94	22.5
2415.86	26.5
2416.78	23.5
2417.7	24.5
2418.63	22.5
2419.55	28
2420.47	23.5
2421.39	26
2422.31	21.5
2423.23	22
2424.15	25
2425.07	19.5
2425.99	22
2426.92	24.5
2427.84	24.5
2428.76	22.5
2429.68	24
2430.59	22.5
2431.51	24.5
2432.43	25
2433.35	22
2434.27	22
2435.19	24
2436.11	26
2437.03	23
2437.95	29.5
2438.87	25
2439.79	22.5
2440.71	28
2441.62	25.5
2442.54	25.5
2443.46	24.5
2444.38	24
2445.3	24
2446.21	26
2447.13	22.5
2448.05	23.5
2448.97	27
2449.88	21
2450.8	24
2451.72	22
2452.63	29
2453.55	29
2454.47	25
2455.38	25
2456.3	23.5
2457.21	22
2458.13	24.5
2459.05	26
2459.96	24
2460.88	25.5
2461.79	22
2462.71	28
2463.62	27
2464.54	24
2465.45	23.5
2466.37	27.5
2467.28	29
2468.2	25.5
2469.11	28.5
2470.02	25.5
2470.94	23
2471.85	20
2472.77	19.5
2473.68	24.5
2474.59	24
2475.51	23.5
2476.42	29
2477.33	24.5
2478.25	26
2479.16	28.5
2480.07	22
2480.98	21
2481.9	26
2482.81	21.5
2483.72	26
2484.63	27.5
2485.55	26
2486.46	26.5
2487.37	24
2488.28	20
2489.19	25.5
2490.1	27
2491.01	24.5
2491.92	25
2492.83	23.5
2493.74	26
2494.66	24.5
2495.57	25
2496.48	24
2497.39	26.5
2498.3	25.5
2499.21	25
2500.12	24
2501.03	25
2501.93	27
2502.84	22
2503.75	27
2504.66	22
2505.57	28.5
2506.48	26
2507.39	25.5
2508.3	27
2509.21	23
2510.11	27.5
2511.02	24
2511.93	28
2512.84	25.5
2513.75	22.5
2514.65	25
2515.56	24
2516.47	24.5
2517.37	23
2518.28	24
2519.19	23.5
2520.09	24
2521	25.5
2521.91	25.5
2522.81	27.5
2523.72	21.5
2524.63	22
2525.53	25
2526.44	27.5
2527.34	25.5
2528.25	25
2529.16	25
2530.06	25
2530.97	23.5
2531.87	25.5
2532.78	25
2533.68	19
2534.58	24
2535.49	25.5
2536.39	27
2537.3	27
2538.2	26
2539.11	27
2540.01	26
2540.91	25
2541.82	26
2542.72	21
2543.62	27.5
2544.53	22.5
2545.43	22.5
2546.33	24
2547.23	22
2548.14	27.5
2549.04	25
2549.94	23
2550.84	25
2551.75	28
2552.65	25.5
2553.55	23.5
2554.45	21.5
2555.35	26
2556.26	22.5
2557.16	28.5
2558.06	21.5
2558.96	25.5
2559.86	23.5
2560.76	24.5
2561.66	24
2562.56	28
2563.46	21
2564.36	24
2565.26	30
2566.16	26.5
2567.06	23
2567.96	23.5
2568.86	24.5
2569.76	29
2570.66	20.5
2571.56	27
2572.46	25.5
2573.36	24
2574.26	26.5
2575.16	25.5
2576.05	23
2576.95	26.5
2577.85	24
2578.75	22
2579.65	24
2580.54	23
2581.44	26
2582.34	24
2583.24	27
2584.13	25
2585.03	20
2585.93	23
2586.83	27
2587.72	27
2588.62	28
2589.52	19
2590.41	21
2591.31	26
2592.2	26
2593.1	24
2594	24
2594.89	26
2595.79	24.5
2596.68	22
2597.58	23.5
2598.47	22.5
2599.37	27
2600.26	23
2601.16	25
2602.05	20
2602.95	25
2603.84	27.5
2604.74	24
2605.63	23
2606.52	23
2607.42	26
2608.31	25.5
2609.21	24
2610.1	24
2610.99	26
2611.89	22.5
2612.78	23.5
2613.67	25
2614.56	27.5
2615.46	24
2616.35	24.5
2617.24	23.5
2618.13	25
2619.03	25.5
2619.92	24.5
2620.81	25.5
2621.7	23.5
2622.59	24.5
2623.49	22.5
2624.38	23.5
2625.27	24
2626.16	28
2627.05	22
2627.94	25
2628.83	27.5
2629.72	25.5
2630.61	24.5
2631.5	27
2632.39	25.5
2633.28	24
2634.17	26
2635.06	27
2635.95	23.5
2636.84	22
2637.73	25
2638.62	22
2639.51	22
2640.4	24.5
2641.29	20.5
2642.18	23.5
2643.07	21
2643.96	29
2644.84	24.5
2645.73	23
2646.62	19
2647.51	23.5
2648.4	24.5
2649.28	22.5
2650.17	25
2651.06	24
2651.95	23
2652.83	25
2653.72	27.5
2654.61	23
2655.49	24
2656.38	26.5
2657.27	28
2658.16	25
2659.04	28
2659.93	26
2660.81	24.5
2661.7	25.5
2662.59	26.5
2663.47	22
2664.36	26
2665.24	23
2666.13	27
2667.01	23
2667.9	25.5
2668.78	26.5
2669.67	29
2670.55	24
2671.44	23.5
2672.32	23.5
2673.21	26
2674.09	22.5
2674.97	26
2675.86	23.5
2676.74	23
2677.62	25.5
2678.51	24.5
2679.39	24
2680.27	26
2681.16	24.5
2682.04	24
2682.92	26
2683.81	26.5
2684.69	25
2685.57	27.5
2686.45	25
2687.34	27
2688.22	26
2689.1	27
2689.98	23
2690.86	23.5
2691.75	24
2692.63	26
2693.51	25.5
2694.39	28.5
2695.27	23.5
2696.15	23
2697.03	23.5
2697.91	22
2698.79	26
2699.67	23
2700.55	24
2701.43	28
2702.31	28
2703.19	27.5
2704.07	25.5
2704.95	22.5
2705.83	25
2706.71	19.5
2707.59	25
2708.47	24
2709.35	23.5
2710.23	27.5
2711.11	26.5
2711.99	23
2712.86	24
2713.74	25.5
2714.62	25
2715.5	28
2716.38	23
2717.26	26.5
2718.13	25.5
2719.01	23.5
2719.89	23.5
2720.77	19
2721.64	24.5
2722.52	24
2723.4	24
2724.27	27.5
2725.15	25
2726.03	26
2726.9	24
2727.78	24
2728.66	25
2729.53	26
2730.41	27
2731.28	25
2732.16	25.5
2733.03	27.5
2733.91	23
2734.79	30
2735.66	26
2736.54	24.5
2737.41	26
2738.29	24
2739.16	22
2740.03	21.5
2740.91	26.5
2741.78	23
2742.66	26
2743.53	22
2744.41	20.5
2745.28	21.5
2746.15	27.5
2747.03	22.5
2747.9	28
2748.77	27
2749.65	21
2750.52	23
2751.39	25
2752.27	24
2753.14	21
2754.01	26.5
2754.88	28.5
2755.75	27.5
2756.63	25
2757.5	26.5
2758.37	23
2759.24	24
2760.11	26.5
2760.99	27
2761.86	26
2762.73	23
2763.6	24
2764.47	26
2765.34	25
2766.21	26.5
2767.08	26.5
2767.95	26.5
2768.82	23.5
2769.69	28
2770.56	23.5
2771.43	25.5
2772.3	24.5
2773.17	25.5
2774.04	22.5
2774.91	21.5
2775.78	26
2776.65	27
2777.52	26.5
2778.39	27
2779.26	21
2780.13	23
2780.99	24.5
2781.86	25.5
2782.73	23.5
2783.6	28
2784.47	28
2785.34	24
2786.2	24.5
2787.07	29
2787.94	27
2788.81	22.5
2789.67	22.5
2790.54	25
2791.41	30
2792.27	22
2793.14	24.5
2794.01	24.5
2794.87	25
2795.74	27
2796.61	24.5
2797.47	23
2798.34	28
2799.21	26
2800.07	27.5
2800.94	27.5
2801.8	27.5
2802.67	26
2803.53	26.5
2804.4	27
2805.26	26
2806.13	25
2806.99	26
2807.86	27.5
2808.72	26
2809.59	31
2810.45	26
2811.32	24
2812.18	26
2813.04	23
2813.91	28
2814.77	24
2815.64	27.5
2816.5	26
2817.36	27
2818.22	27.5
2819.09	25.5
2819.95	27
2820.81	27
2821.68	27
2822.54	26
2823.4	27.5
2824.26	21.5
2825.13	25
2825.99	25.5
2826.85	23.5
2827.71	25
2828.57	29
2829.44	28
2830.3	27
2831.16	25.5
2832.02	27
2832.88	26.5
2833.74	25
2834.6	24
2835.46	24
2836.32	27
2837.18	21
2838.04	25
2838.9	25.5
2839.76	24.5
2840.62	22
2841.48	28.5
2842.34	24.5
2843.2	27
2844.06	23
2844.92	26
2845.78	27.5
2846.64	25
2847.5	22.5
2848.36	22
2849.22	26
2850.08	25
2850.93	28.5
2851.79	25
2852.65	25
2853.51	28
2854.37	20
2855.22	27.5
2856.08	27
2856.94	25.5
2857.8	28
2858.65	25.5
2859.51	22.5
2860.37	29
2861.23	26
2862.08	28.5
2862.94	29.5
2863.79	29
2864.65	26
2865.51	25
2866.36	28.5
2867.22	27
2868.08	23.5
2868.93	26.5
2869.79	26
2870.64	29
2871.5	22
2872.35	30.5
2873.21	27
2874.06	29
2874.92	24
2875.77	30
2876.63	28
2877.48	28.5
2878.34	28
2879.19	31.5
2880.05	27
2880.9	31
2881.76	33.5
2882.61	33
2883.46	34
2884.32	30.5
2885.17	28.5
2886.02	34.5
2886.88	33
2887.73	38
2888.58	36
2889.44	36
2890.29	33.5
2891.14	38
2891.99	41.5
2892.85	39.5
2893.7	38.5
2894.55	39
2895.4	38
2896.25	43
2897.11	46.5
2897.96	45.5
2898.81	51
2899.66	52
2900.51	55
2901.36	56
2902.21	56.5
2903.07	61
2903.92	63.5
2904.77	56.5
2905.62	65.5
2906.47	60
2907.32	62
2908.17	55
2909.02	61
2909.87	60
2910.72	56.5
2911.57	53.5
2912.42	51
2913.27	47.5
2914.12	47.5
2914.97	41
2915.81	43
2916.66	42
2917.51	42
2918.36	34
2919.21	36.5
2920.06	35.5
2920.91	28.5
2921.75	30
2922.6	36.5
2923.45	32.5
2924.3	31.5
2925.15	32
2925.99	28
2926.84	26.5
2927.69	32.5
2928.54	31
2929.38	32
2930.23	28
2931.08	31
2931.92	29.5
2932.77	31
2933.62	31
2934.46	29.5
2935.31	24
2936.16	26
2937	26.5
2937.85	30
2938.69	31.5
2939.54	24
2940.38	25
2941.23	26
2942.08	26
2942.92	30.5
2943.77	28.5
2944.61	29
2945.46	26
2946.3	23
2947.15	26.5
2947.99	30
2948.83	31.5
2949.68	25
2950.52	29.5
2951.37	29
2952.21	33
2953.05	26.5
2953.9	29
2954.74	30
2955.58	36
2956.43	30
2957.27	38.5
2958.11	35.5
2958.96	36.5
2959.8	36
2960.64	37
2961.48	35
2962.33	39.5
2963.17	40
2964.01	46.5
2964.85	45.5
2965.69	37.5
2966.54	42
2967.38	40.5
2968.22	42.5
2969.06	35
2969.9	38.5
2970.74	41
2971.58	35.9976
2972.43	37.4034
2973.27	32.485
2974.11	34.9914
2974.95	29.2025
2975.79	29.7619
2976.63	30.0854
2977.47	31.7644
2978.31	31.8213
2979.15	26.4912
2979.99	25.3939
2980.83	27.758
2981.67	26.7847
2982.51	29.8442
2983.35	30.4799
2984.19	25.8675
2985.03	29.5316
2985.86	25.8127
2986.7	27.3365
2987.54	26.2013
2988.38	22.8265
2989.22	26.125
2990.06	25.5711
2990.9	24.7012
2991.73	25.4053
2992.57	27.0237
2993.41	24.9918
2994.25	23.7004
2995.09	26.4693
2995.92	27.568
2996.76	27.5108
2997.6	25.3875
2998.44	25.4178
2999.27	25.4369
3000.11	25.9525
3000.95	25.2206
3001.78	24.6613
3002.62	25.9797
3003.46	23.5802
3004.29	24.3495
3005.13	25.9583
3005.96	23.1044
3006.8	23.1177
3007.64	24.1166
3008.47	25.1914
3009.31	26.4458
3010.14	24.0346
3010.98	21.5622
3011.81	20.1578
3012.65	24.0946
3013.48	22.7251
3014.32	23.1653
3015.15	24.7549
3015.99	24.3256
3016.82	23.7469
3017.66	23.8083
3018.49	26.8454
3019.33	23.1097
3020.16	22.4591
3020.99	24.6242
3021.83	23.9735
3022.66	23.5131
3023.5	21.9077
3024.33	21.8754
3025.16	23.2962
3026	22.4197
3026.83	24.2501
3027.66	23.3107
3028.49	22.677
3029.33	21.883
3030.16	25.0408
3030.99	25
3031.83	22.8678
3032.66	22.8826
3033.49	23.7002
3034.32	22.8052
3035.15	24.7755
3035.99	25.2281
3036.82	23.2075
3037.65	21.0916
3038.48	22.7569
3039.31	25.1971
3040.14	24.0167
3040.97	24.311
3041.81	25.1585
3042.64	22.9815
3043.47	23.1831
3044.3	22.6019
3045.13	21.6316
3045.96	20.2621
3046.79	22.3232
3047.62	24.4963
3048.45	25.3751
3049.28	25.7828
3050.11	24.1755
3050.94	24.9994
3051.77	23.1711
3052.6	20.8035
3053.43	22.9025
3054.26	24.5034
3055.08	21.8637
3055.91	24.1168
3056.74	24.0625
3057.26	25
3058.09	19.5
3058.92	25
3059.76	24
3060.59	23
3061.42	23.5
3062.25	26
3063.09	19.5
3063.92	22.5
3064.75	22
3065.58	25.5
3066.42	23.5
3067.25	24
3068.08	24.5
3068.91	22.5
3069.74	25.5
3070.57	23.5
3071.41	23
3072.24	23.5
3073.07	22.5
3073.9	21.5
3074.73	25
3075.56	21.5
3076.39	23.5
3077.22	25
3078.05	24.5
3078.88	25
3079.71	22.5
3080.54	22
3081.37	24
3082.2	27
3083.03	22.5
3083.86	23.5
3084.69	27
3085.52	25
3086.35	25
3087.18	25.5
3088.01	24
3088.84	24.5
3089.67	24
3090.5	23
3091.32	23.5
3092.15	24
3092.98	23.5
3093.81	24.5
3094.64	25.5
3095.47	21.5
3096.29	23.5
3097.12	25.5
3097.95	19.5
3098.78	21
3099.6	23
3100.43	20.5
3101.26	23
3102.09	22
3102.91	24
3103.74	21.5
3104.57	27.5
3105.39	22.5
3106.22	26.5
3107.05	23
3107.87	23.5
3108.7	22
3109.52	22.5
3110.35	23.5
3111.18	25.5
3112	21
3112.83	20
3113.65	24.5
3114.48	25
3115.3	21
3116.13	23
3116.95	24
3117.78	24
3118.6	26
3119.43	24
3120.25	23.5
3121.08	24.5
3121.9	24
3122.72	24
3123.55	21.5
3124.37	25.5
3125.2	22.5
3126.02	24
3126.84	25.5
3127.67	23
3128.49	25.5
3129.31	24.5
3130.14	25.5
3130.96	24
3131.78	25.5
3132.61	23.5
3133.43	19
3134.25	24.5
3135.07	23
3135.89	24
3136.72	22.5
3137.54	21
3138.36	25.5
3139.18	24
3140	27
3140.83	24.5
3141.65	26.5
3142.47	26
3143.29	26
3144.11	22.5
3144.93	25
3145.75	25.5
3146.57	24.5
3147.4	24
3148.22	24.5
3149.04	26.5
3149.86	23
3150.68	24.5
3151.5	24
3152.32	19.5
3153.14	24
3153.96	23.5
3154.78	21
3155.59	24
3156.42	25
3157.23	26.5
3158.05	21
3158.87	21
3159.69	27.5
3160.51	23
3161.33	25
3162.15	23.5
3162.97	24
3163.78	26
3164.6	21
3165.42	23.5
3166.24	23
3167.06	25.5
3167.87	21
3168.69	24
3169.51	29
3170.33	26.5
3171.14	25.5
3171.96	24
3172.78	26.5
3173.6	24
3174.41	21.5
3175.23	25
3176.05	23
3176.86	22
3177.68	23.5
3178.5	26.5
3179.31	23.5
3180.13	25.5
3180.94	21.5
3181.76	22.5
3182.58	21
3183.39	27.5
3184.21	22.5
3185.02	26.5
3185.84	29.5
3186.65	25
3187.47	19
3188.28	28.5
3189.1	23
3189.91	24
3190.73	24.5
3191.54	24
3192.36	22.5
3193.17	23.5
3193.98	26.5
3194.8	11
3195.61	25
3196.43	27
3197.24	20
3198.05	23
3198.87	24.5
3199.68	24.5
3200.49	24
3201.31	24
3202.12	25
3202.93	26.5
3203.75	26
3204.56	23
3205.37	21
3206.18	25
3207	22.5
3207.81	22.5
3208.62	26
3209.43	25
3210.24	21
3211.06	22
3211.87	23.5
3212.68	26
3213.49	24
3214.3	20.5
3215.11	23.5
3215.92	26
3216.73	24.5
3217.55	27
3218.36	24.5
3219.17	29
3219.98	24
3220.79	27
3221.6	23
3222.41	24.5
3223.22	26
3224.03	24
3224.84	24
3225.65	23
3226.46	18
3227.27	25.5
3228.08	24
3228.89	27.5
3229.7	24.5
3230.5	25
3231.31	24
3232.12	26
3232.93	23
3233.74	22.5
3234.55	26
3235.36	24.5
3236.16	24.5
3236.97	21
3237.78	26.5
3238.59	23.5
3239.4	24
3240.2	25
3241.01	22
3241.82	25
3242.63	24
3243.43	20
3244.24	23.5
3245.05	24
3245.85	23
3246.66	20.5
3247.47	27.5
3248.27	24.5
3249.08	25.5
3249.89	21
3250.69	24
3251.5	24.5
3252.31	22.5
3253.11	27
3253.92	28
3254.72	25
3255.53	26
3256.33	25
3257.14	23.5
3257.94	26
3258.75	23.5
3259.55	20.5
3260.36	25.5
3261.16	27.5
3261.97	21
3262.77	24
3263.58	24
3264.38	27
3265.19	20.5
3265.99	24
3266.79	28.5
3267.6	23
3268.4	27.5
3269.21	21.5
3270.01	23
3270.81	25
3271.62	26
3272.42	19
3273.22	22.5
3274.03	23
3274.83	26
3275.63	25.5
3276.43	22.5
3277.24	26.5
3278.04	23
3278.84	27
3279.64	23
3280.45	25
3281.25	25
3282.05	23
3282.85	20
3283.65	26
3284.45	28
3285.26	22.5
3286.06	24
3286.86	25
3287.66	27
3288.46	23
3289.26	26
3290.06	21.5
3290.86	27
3291.66	26.5
3292.46	24
3293.26	23.5
3294.06	25
3294.86	25
3295.66	22.5
3296.46	27
3297.26	24.5
3298.06	24
3298.86	24
3299.66	23
3300.46	26.5
3301.26	19
3302.06	26.5
3302.86	21.5
3303.66	27
3304.46	24
3305.25	26
3306.05	27.5
3306.85	22.5
3307.65	23
3308.45	26.5
3309.25	25.5
3310.04	24
3310.84	26
3311.64	28
3312.44	23.5
3313.23	26
3314.03	21
3314.83	25.5
3315.63	22.5
3316.42	23
3317.22	23.5
3318.02	26
3318.81	24.5
3319.61	25
3320.41	23.5
3321.2	21.5
3322	27
3322.8	26
3323.59	24.5
3324.39	24
3325.18	26
3325.98	23.5
3326.78	23
3327.57	21.5
3328.37	27.5
3329.16	24
3329.96	26
3330.75	28.5
3331.55	27
3332.34	24.5
3333.14	25
3333.93	23
3334.73	24.5
3335.52	25
3336.31	23.5
3337.11	22.5
3337.9	22
3338.7	21.5
3339.49	26
3340.28	22.5
3341.08	25
3341.87	22.5
3342.66	30.5
3343.46	25.5
3344.25	25
3345.04	24.5
3345.84	22
3346.63	26
3347.42	25
3348.22	23
3349.01	21.5
3349.8	23
3350.59	28
3351.39	26
3352.18	22
3352.97	26
3353.76	24
3354.55	28.5
3355.35	25
3356.14	29.5
3356.93	23.5
3357.72	23.5
3358.51	26.5
3359.3	26
3360.09	22
3360.88	26.5
3361.67	24
3362.46	24.5
3363.26	24.5
3364.05	23
3364.84	26.5
3365.63	24
3366.42	23
3367.21	28
3368	20.5
3368.79	21
3369.58	25.5
3370.37	24
3371.15	21.5
3371.94	23.5
3372.73	21
3373.52	21
3374.31	25.5
3375.1	25
3375.89	27
3376.68	23
3377.47	23
3378.26	24.5
3379.04	24.5
3379.83	26.5
3380.62	26.5
3381.41	21
3382.2	22.5
3382.98	24
3383.77	24
3384.56	23.5
3385.35	26
3386.13	25
3386.92	24
3387.71	27.5
3388.5	27.5
3389.28	25
3390.07	27.5
3390.86	28
3391.64	24
3392.43	24.5
3393.22	21
3394	25.5
3394.79	25
3395.57	25
3396.36	27.5
3397.15	23
3397.93	25.5
3398.72	27.5
3399.5	24
3400.29	26.5
3401.07	20.5
3401.86	27
3402.65	25.5
3403.43	25.5
3404.21	23
3405	24.5
3405.78	26.5
3406.57	26
3407.35	24.5
3408.14	24
3408.92	25
3409.71	27
3410.49	24
3411.27	24
3412.06	20
3412.84	27
3413.62	21
3414.41	24.5
3415.19	22.5
3415.97	18
3416.76	30
3417.54	22
3418.32	25
3419.11	23
3419.89	21.5
3420.67	23
3421.46	23
3422.24	22.5
3423.02	24
3423.8	19.5
3424.58	24.5
3425.37	28
3426.15	23
3426.93	24
3427.71	22
3428.49	26
3429.27	25
3430.05	23
3430.84	26.5
3431.62	19
3432.4	24.5
3433.18	25
3433.96	22.5
3434.74	26.5
3435.52	28
3436.3	24
3437.08	25
3437.86	27
3438.64	27
3439.42	23.5
3440.2	24.5
3440.98	24.5
3441.76	24
3442.54	25
3443.32	23.5
3444.1	24.5
3444.88	29
3445.66	29
3446.44	26
3447.22	24.5
3448	24.5
3448.77	23
3449.55	26
3450.33	23.5
3451.11	23.5
3451.89	24
3452.67	26.5
3453.45	24
3454.22	23
3455	23
3455.78	22
3456.56	26.5
3457.33	21.5
3458.11	23
3458.89	20
3459.67	23
3460.44	29
3461.22	25
3462	24.5
3462.77	24
3463.55	25.5
3464.33	23.5
3465.1	19
3465.88	27
3466.66	26.5
3467.43	23.5
3468.21	25.5
3468.98	23
3469.76	24
3470.54	25
3471.31	23
3472.09	25
3472.86	26
3473.64	27.5
3474.41	24.5
3475.19	26
3475.96	26
3476.74	24
3477.51	24.5
3478.29	25.5
3479.06	25.5
3479.84	24.5
3480.61	22.5
3481.39	22
3482.16	24
3482.93	22.5
3483.71	28
3484.48	25.5
3485.25	24.5
3486.03	22
3486.8	26.5
3487.57	23.5
3488.35	21.5
3489.12	25
3489.89	24
3490.67	24
3491.44	25.5
3492.21	27
3492.99	24.5
3493.76	22
3494.53	25.5
3495.3	23.5
3496.08	28
3496.85	24.5
3497.62	25
3498.39	24.5
3499.16	25
3499.93	24
