#Acq. time (s)=	5
#Accumulations=	5
#Range (cm-¹)=	100...3500
#Windows=	4
#Autofocus=	Off
#AutoExposure=	Off
#Spike filter=	Multiple accum.
#Delay time (s)=	0
#Binning=	1
#Readout mode=	Signal
#DeNoise=	Off
#ICS correction=	Off
#Dark correction=	Off
#Inst. Process=	Off
#Instrument=	LabRAM HR Evol
#Detector=	Syncerity OE
#Objective=	x100_VIS
#Grating=	600 (500nm)
#ND Filter=	25%
#Laser=	633nm_Edge
#Hole=	100.021
#Range=	Visible
#Project=	verificaciones
#Sample=	at5
#Site=	lined
#Title=	bolusat5lined
#Remark=	
#Date=	13.01.2026 16:11
#Acquired=	13.01.2026 16:11:01
100.692	32
101.975	29
103.258	31
104.542	32
105.824	30
107.107	28
108.39	29.5
109.672	29
110.954	34
112.236	33.5
113.519	30
114.8	34
116.081	33
117.362	31
118.643	31.5
119.924	30
121.204	30
122.484	34.5
123.764	30
125.044	36.5
126.323	32
127.603	33
128.882	33
130.161	32
131.438	28.5
132.716	38
133.995	31.5
135.273	33
136.55	31.5
137.828	35.5
139.106	35
140.383	37
141.66	34
142.937	37
144.213	39
145.488	40.5
146.764	38
148.04	36.5
149.316	38
150.592	43.5
151.867	41.5
153.141	38
154.416	35
155.69	40
156.965	43
158.239	37.5
159.512	40
160.786	39
162.059	41
163.333	43.5
164.605	39
165.878	41.5
167.15	35
168.423	39
169.694	39.5
170.966	37
172.238	37.5
173.51	36
174.78	35
176.052	43.5
177.323	42.5
178.592	36.5
179.863	37
181.134	42
182.403	40
183.673	42
184.943	42
186.211	43.5
187.481	42.5
188.749	39
190.018	42.5
191.287	40
192.554	41.5
193.822	42.5
195.089	37
196.357	39
197.625	42.5
198.891	42
200.159	36
201.425	35
202.692	40.5
203.957	40.5
205.224	35.5
206.489	31.5
207.755	34.5
209.02	32
210.286	32
211.55	35
212.815	35
214.079	34.5
215.344	33.5
216.607	28.5
217.872	34
219.135	34
220.399	30
221.662	30
222.924	31
224.187	29
225.449	32
226.713	33
227.974	32.5
229.235	36
230.498	36.5
231.759	36.5
233.019	30.5
234.281	32.5
235.542	30
236.802	29
238.063	29.5
239.323	31.5
240.582	27
241.843	32.5
243.102	31.5
244.361	29
245.621	33
246.879	30
248.138	30
249.396	31
250.655	25.5
251.913	30
253.17	34
254.427	29.5
255.686	30
256.943	32
258.199	26.5
259.456	31.5
260.712	28
261.969	29
263.225	34.5
264.481	29
265.736	32
266.991	33.5
268.246	27
269.502	29.5
270.757	30
272.011	28
273.265	30
274.519	29
275.773	26
277.027	30.5
278.28	28
279.533	31.5
280.786	33
282.04	32.5
283.293	28.5
284.545	28
285.798	26.5
287.049	22
288.301	29.5
289.553	25
290.804	26
292.055	31
293.306	30
294.557	26
295.807	33
297.058	30
298.308	35
299.558	22.5
300.808	30.5
302.057	27
303.305	30.5
304.554	27.5
305.803	31.5
307.052	25
308.3	30.5
309.549	30
310.797	29
312.045	29
313.292	29
314.54	31.5
315.786	30.5
317.033	29
318.28	29.5
319.526	31
320.773	30.5
322.019	29.5
323.264	30.5
324.51	27.5
325.755	29.5
327.001	30
328.246	31.5
329.49	29
330.735	30.5
331.979	30
333.224	26
334.467	31
335.711	26
336.955	33.5
338.199	27.5
339.441	29
340.684	30
341.927	29
343.168	27
344.411	28
345.654	32
346.895	28.5
348.137	30.5
349.379	31
350.619	30
351.86	31
353.102	30.5
354.341	32.5
355.582	29
356.821	32
358.062	30
359.302	30
360.541	26
361.781	31.5
363.019	32.5
364.259	28.5
365.496	30
366.736	31
367.974	26.5
369.212	30
370.45	29
371.687	27
372.925	30.5
374.162	22
375.399	29.5
376.635	25.5
377.873	30
379.109	27.5
380.344	27
381.581	28
382.816	28
384.052	33
385.287	28
386.523	27.5
387.757	27.5
388.991	31.5
390.227	25.5
391.46	27
392.695	30.5
393.928	31.5
395.162	31
396.396	26
397.629	28.5
398.861	27
400.095	30
401.327	27
402.559	24
403.792	30
405.024	31
406.255	30.5
407.488	25
408.719	29
409.949	26.5
411.18	27
412.412	22.5
413.642	27.5
414.872	27
416.102	28
417.333	31
418.562	32.5
419.791	30.5
421.02	26
422.249	31
423.479	29
424.707	30
425.935	29
427.163	28.5
428.391	31.5
429.619	31
430.848	29
432.075	28.5
433.302	29.5
434.529	30.5
435.755	25.5
436.982	27
438.208	25
439.434	26
440.66	29.5
441.885	29.5
443.111	24.5
444.338	25
445.563	29
446.788	32
448.012	28
449.237	27.5
450.461	27
451.685	28.5
452.909	29.5
454.133	26.5
455.356	33.5
456.579	34.5
457.802	32.5
459.025	29.5
460.247	31
461.469	30
462.691	31.5
463.914	31.5
465.136	30
466.357	32
467.579	32.5
468.8	32
470.021	32.5
471.242	33
472.462	39
473.682	39
474.903	40.5
476.123	31.5
477.343	37
478.563	43
479.782	44
481	47
482.219	51.5
483.438	53.5
484.657	55
485.874	59
487.093	60
488.311	59.5
489.529	60
490.747	56
491.963	57
493.181	55.5
494.398	55.5
495.614	50.5
496.83	51
498.047	48
499.264	45.5
500.479	46.5
501.695	43
502.911	43
504.125	40
505.34	37.5
506.554	38.5
507.769	35.5
508.984	37
510.198	36
511.412	34
512.627	33.5
513.839	30
515.053	31.5
516.266	35.5
517.479	30.5
518.691	30
519.905	30
521.118	30
522.329	31
523.542	33.5
524.753	32.5
525.965	35
527.176	32
528.388	29.5
529.598	31
530.809	29
532.019	31
533.23	32
534.44	33
535.649	29
536.86	30
538.068	31
539.279	34
540.487	26
541.697	28.5
542.905	28.5
544.113	29.5
545.322	28.5
546.53	27
547.737	30
548.946	27
550.153	28
551.361	29
552.568	28
553.774	27
554.982	30.5
556.188	25
557.394	28.5
558.599	29.5
559.806	27.5
561.012	32.5
562.217	29
563.423	27
564.628	29
565.832	28.5
567.036	30
568.241	29.5
569.446	30.5
570.65	31.5
571.853	26
573.057	29
574.26	30
575.464	31
576.667	28.5
577.87	27.5
579.072	28.5
580.274	26
581.477	29
582.68	31.5
583.881	32.5
585.083	30.5
586.284	24
587.485	32
588.686	25.5
589.887	30.5
591.087	29
592.288	29.5
593.488	25.5
594.688	23
595.888	28.5
597.087	32.5
598.287	28.5
599.486	29
600.685	29
601.884	31.5
603.082	24.5
604.281	31.5
605.479	24
606.677	28.5
607.875	28
609.073	31.5
610.27	32
611.468	28
612.665	27
613.862	31
615.058	30
616.255	32
617.451	32.5
618.648	28.5
619.842	29.5
621.038	31
622.234	27
623.429	28
624.624	31.5
625.819	29
627.013	31.5
628.207	31
629.402	31.5
630.596	32
631.79	27.5
632.983	30.5
634.177	26.5
635.37	28.5
636.564	31.5
637.755	32
638.948	27.5
640.141	28
641.334	30.5
642.525	28
643.717	31.5
644.909	28.5
646.099	30.5
647.291	28.5
648.483	25
649.674	28
650.864	27.5
652.055	25
653.244	28.5
654.435	30.5
655.625	26
656.814	31.5
658.004	30.5
659.193	27.5
660.382	32
661.571	31.5
662.759	29.5
663.948	24.5
665.135	28.5
666.324	32.5
667.511	28.5
668.7	29
669.886	28.5
671.074	29
672.262	31.5
673.448	30.5
674.634	31
675.821	28
677.007	35.5
678.194	31.5
679.379	33
680.565	32
681.75	36
682.936	34
684.121	36.5
685.305	32.5
686.491	37.5
687.675	32.5
688.86	34
690.043	34.5
691.227	32.5
692.411	31.5
693.594	33.5
694.777	38.5
695.961	32.5
697.144	36
698.326	40
699.509	35
700.691	42
701.873	45
703.056	39
704.237	42
705.419	48.5
706.599	50
707.782	52.5
708.962	46.5
710.143	52.5
711.323	44
712.504	42
713.684	42
714.864	38
716.043	35.5
717.223	35
718.403	34
719.582	36.5
720.761	31
721.94	32
723.118	31
724.296	28.5
725.474	28
726.652	32
727.831	33
729.009	34
730.186	29.5
731.363	32
732.54	28.5
733.717	28.5
734.893	27.5
736.07	27
737.246	28
738.422	28
739.598	27
740.773	30
741.949	29
743.124	27
744.299	29
745.474	26
746.649	27
747.823	26
748.997	27
750.172	27
751.346	30.5
752.519	24.5
753.693	31
754.867	28
756.038	28
757.211	26
758.384	27.5
759.557	27.5
760.73	32.5
761.902	27.5
763.074	27
764.246	30
765.417	30
766.588	29
767.76	27.5
768.931	29.5
770.102	28
771.271	32
772.442	32
773.613	26
774.783	29.5
775.952	29
777.122	31
778.291	25
779.461	31.5
780.629	27
781.798	30
782.967	31
784.135	31
785.304	29
786.472	33
787.639	34.5
788.807	32
789.975	29.5
791.142	34.5
792.309	35
793.477	31
794.642	31
795.81	29
796.975	29.5
798.142	31
799.308	30
800.473	26.5
801.639	30
802.804	27.5
803.97	28
805.134	31.5
806.299	30.5
807.463	27.5
808.628	31.5
809.792	25.5
810.957	26.5
812.12	32
813.284	28.5
814.447	29
815.611	33.5
816.773	27.5
817.937	27.5
819.099	27.5
820.261	26.5
821.424	32
822.585	26.5
823.748	27
824.909	30
826.07	26
827.232	31
828.393	27
829.554	25.5
830.715	28
831.875	29
833.035	28
834.196	27
835.356	28.5
836.515	29.5
837.676	28
838.835	27
839.994	25
841.152	27.5
842.312	28.5
843.47	31.5
844.629	27
845.786	27.5
846.946	26.5
848.103	26
849.261	31
850.418	30
851.575	26
852.733	28
853.89	26
855.046	30
856.203	28
857.359	26
858.515	30
859.67	28.5
860.827	27.5
861.983	29
863.138	34.5
864.293	28
865.448	28.5
866.603	27.5
867.757	30.5
868.912	29.5
870.066	29.5
871.22	29.5
872.374	30
873.527	28.5
874.681	26
875.834	30.5
876.987	26.5
878.14	28
879.293	29.5
880.445	33
881.598	32
882.75	29.5
883.902	32.5
885.054	28
886.206	25.5
887.357	30
888.507	29.5
889.658	24.5
890.809	30.5
891.96	25
893.111	26
894.261	32
895.411	30
896.561	29
897.71	27
898.86	28.5
900.009	26.5
901.159	32
902.308	25
903.455	28.5
904.604	31.5
905.753	26.5
906.901	23.5
908.048	24.5
909.197	27
910.344	26.5
911.492	25.5
912.639	24.5
913.786	28
914.933	28.5
916.079	29.5
917.226	25.5
918.373	32
919.518	30
920.664	23
921.81	27.5
922.955	26
924.101	28
925.245	29
926.391	23.5
927.536	27
928.68	26
929.825	25.5
930.968	27
932.113	31
933.256	26.5
934.4	24
935.543	26
936.687	24.5
937.83	22
938.973	26.5
940.115	27
941.258	26
942.399	25.5
943.542	29
944.684	26.5
945.826	28.5
946.967	26.5
948.109	27.5
949.25	25.5
950.392	24
951.532	27
952.672	32.5
953.813	22
954.953	25
956.093	23
957.233	26
958.373	24
959.512	27
960.652	27
961.791	30
962.929	27
964.069	30
965.207	27
966.345	28.5
967.484	26
968.622	29
969.759	26.5
970.896	28
972.035	29
973.172	26.5
974.309	23
975.445	26
976.582	25
977.719	21
978.855	28.5
979.991	29
981.127	26
982.263	32
983.398	27
984.535	24
985.67	32
986.804	27
987.939	27
989.074	27.5
990.208	28.5
991.342	24
992.476	27.5
993.61	29
994.744	30
995.877	26
997.01	23
998.143	23
999.276	25
1000.41	27.5
1001.54	27.5
1002.67	26
1003.81	27.5
1004.94	29
1006.07	23.5
1007.2	29
1008.33	26.5
1009.47	28
1010.6	25.5
1011.73	26
1012.86	27.5
1013.99	27
1015.12	25
1016.25	24
1017.38	24.5
1018.51	24
1019.64	30
1020.77	30.5
1021.9	26
1023.03	24
1024.15	27.5
1025.28	24.5
1026.41	27.5
1027.54	28.5
1028.67	25
1029.8	25.5
1030.92	27.5
1032.05	27
1033.18	24.5
1034.31	25.5
1035.43	25
1036.56	25.5
1037.69	29
1038.81	26.5
1039.94	27.5
1041.07	25.5
1042.19	26.5
1043.32	28
1044.44	29
1045.57	24
1046.69	25
1047.82	22
1048.94	23.5
1050.07	24.5
1051.19	27
1052.32	24.5
1053.44	26
1054.57	27.5
1055.69	28
1056.81	27
1057.94	25
1059.06	28
1060.18	26
1061.31	24.5
1062.43	26
1063.55	25.5
1064.67	28
1065.8	27.5
1066.92	26.5
1068.04	25
1069.16	22.5
1070.28	30
1071.4	27
1072.52	27
1073.64	26
1074.76	27.5
1075.89	23.5
1077.01	26.5
1078.13	26
1079.25	24.5
1080.37	24
1081.49	21
1082.6	27
1083.72	29
1084.84	26
1085.96	25
1087.08	25.5
1088.2	22
1089.32	29
1090.43	29
1091.55	26.5
1092.67	25
1093.79	25
1094.91	26
1096.02	29
1097.14	28
1098.26	24.5
1099.37	26.5
1100.49	28
1101.61	25.5
1102.72	25
1103.84	26.5
1104.95	27.5
1106.07	28
1107.18	28.5
1108.3	29
1109.41	27
1110.53	26.5
1111.64	25.5
1112.76	25.5
1113.87	20.5
1114.99	25
1116.1	26.5
1117.21	26.5
1118.33	28
1119.44	23.5
1120.55	28
1121.67	27.5
1122.78	31.5
1123.89	27
1125	22
1126.12	23
1127.23	25.5
1128.34	24
1129.45	23
1130.56	23.5
1131.68	24.5
1132.79	29
1133.9	27.5
1135.01	28
1136.12	26
1137.23	28.5
1138.34	26
1139.45	27
1140.56	23
1141.67	26
1142.78	21.5
1143.89	25.5
1145	27
1146.11	27
1147.22	26
1148.32	20
1149.43	25.5
1150.54	23
1151.65	29
1152.76	27
1153.86	23
1154.97	27
1156.08	25
1157.19	26.5
1158.29	25
1159.4	21
1160.51	30.5
1161.61	25.5
1162.72	26
1163.83	25
1164.93	27
1166.04	25.5
1167.14	28.5
1168.25	29.5
1169.35	21.5
1170.46	29
1171.56	28
1172.67	26
1173.77	25.5
1174.88	25
1175.98	25.5
1177.08	24.5
1178.19	25
1179.29	27.5
1180.4	25
1181.5	23.5
1182.6	22.5
1183.71	26
1184.81	26.5
1185.91	26
1187.01	24.5
1188.12	23
1189.22	22.5
1190.32	21
1191.42	27
1192.52	23.5
1193.62	26
1194.72	23.0035
1195.83	23.5283
1196.93	25.0872
1198.03	26.9797
1199.13	23.0608
1200.23	26.4632
1201.33	27.7523
1202.43	24.2379
1203.53	25.8885
1204.63	23.892
1205.73	26.4649
1206.83	24.144
1207.92	24.9751
1209.02	24.6649
1210.12	26.059
1211.22	22.6827
1212.32	26.5913
1213.42	27.2936
1214.51	24.3756
1215.61	24.5963
1216.71	23.0268
1217.81	26.1084
1218.9	27.2833
1220	26.3925
1221.1	25.1074
1222.19	26.0282
1223.29	26.2312
1224.39	24.8981
1225.48	24.1951
1226.58	29.3951
1227.68	25.6062
1228.77	26.0825
1229.87	24.3905
1230.96	25.4327
1232.06	24.2084
1233.15	26.631
1234.25	25.4609
1235.34	25.2586
1236.43	23.975
1237.53	25.6814
1238.62	24.6482
1239.72	22.7804
1240.81	24.3185
1241.9	27.0184
1243	23.1503
1244.09	24.1036
1245.18	27.2703
1246.27	27.1662
1247.37	23.8097
1248.46	22.2861
1249.55	24.7134
1250.64	25.7423
1251.74	28.2015
1252.83	26.5159
1253.92	27.1589
1255.01	27.3971
1256.1	24.3532
1257.19	28.0788
1258.28	25.4071
1259.38	25.4625
1260.46	29.5723
1261.56	26.3747
1262.65	26.0849
1263.74	26.6298
1264.82	26.3738
1265.91	25.5315
1267	25.37
1268.09	27.7211
1269.18	26.3194
1270.27	22.3997
1271.36	24.5585
1272.45	24.7074
1273.54	24.9787
1274.63	22.9874
1275.71	25.7746
1276.8	25.9567
1277.89	26.2853
1278.98	24.9801
1280.06	24.2998
1281.15	24.1354
1282.24	22.3122
1283.32	25.2035
1284.41	25.4399
1285.5	24.1401
1286.58	24.2306
1287.67	21.4872
1288.76	23.5185
1289.84	25.5229
1290.93	26.888
1292.01	24.3557
1293.1	22.5968
1294.18	23.2628
1295.27	27.1425
1296.35	24.7281
1297.44	24.2192
1298.52	23.557
1299.6	23.3504
1300.69	26.0949
1301.77	23.5379
1302.86	25.096
1303.94	22.4867
1305.02	23.538
1306.11	25.9196
1306.41	26.5
1307.5	24.5
1308.59	24
1309.68	22
1310.77	23
1311.85	23
1312.94	28
1314.03	26
1315.11	22
1316.2	27.5
1317.29	21.5
1318.37	21
1319.46	22.5
1320.55	24
1321.63	23
1322.72	26
1323.8	27
1324.89	26
1325.98	27
1327.06	29.5
1328.15	25
1329.23	24
1330.31	21.5
1331.4	21.5
1332.48	27.5
1333.57	28.5
1334.65	21
1335.74	25.5
1336.82	25.5
1337.9	23
1338.99	25.5
1340.07	28
1341.15	26.5
1342.24	27
1343.32	24
1344.4	23.5
1345.48	21
1346.56	27.5
1347.65	22.5
1348.73	20.5
1349.81	30.5
1350.89	24.5
1351.97	24.5
1353.05	26.5
1354.13	26
1355.21	22
1356.29	24.5
1357.37	26
1358.46	27.5
1359.54	24.5
1360.62	24.5
1361.69	25
1362.77	24.5
1363.85	21.5
1364.93	24
1366.01	26
1367.09	23
1368.17	24
1369.25	27
1370.33	19.5
1371.41	28
1372.48	27
1373.56	23.5
1374.64	28
1375.72	25
1376.79	25.5
1377.87	30
1378.95	25.5
1380.02	25
1381.1	27.5
1382.18	25.5
1383.25	26
1384.33	25
1385.4	27
1386.48	23.5
1387.56	26
1388.63	24.5
1389.71	26
1390.78	27
1391.86	28
1392.93	30.5
1394.01	27
1395.08	25
1396.15	30
1397.23	28.5
1398.3	25
1399.38	29.5
1400.45	32
1401.52	31
1402.6	30
1403.67	28
1404.74	29
1405.81	26
1406.89	32.5
1407.96	29
1409.03	31.5
1410.1	32
1411.17	33
1412.25	29
1413.32	33
1414.39	35
1415.46	29.5
1416.53	30.5
1417.6	26
1418.67	27.5
1419.74	27.5
1420.81	27
1421.88	29.5
1422.95	28
1424.02	30
1425.09	31.5
1426.16	30.5
1427.23	29.5
1428.3	30
1429.37	30.5
1430.44	27.5
1431.51	23.5
1432.58	23
1433.64	25
1434.71	23.5
1435.78	28.5
1436.85	26
1437.92	26
1438.98	22.5
1440.05	25
1441.12	27.5
1442.18	25.5
1443.25	29.5
1444.32	26
1445.38	24
1446.45	27.5
1447.52	28
1448.58	26.5
1449.65	27
1450.71	29
1451.78	25.5
1452.84	25
1453.91	29.5
1454.97	23.5
1456.04	26
1457.1	24.5
1458.17	27
1459.23	22.5
1460.3	24
1461.36	25.5
1462.42	26
1463.49	26
1464.55	29.5
1465.61	23
1466.68	30
1467.74	27.5
1468.8	26
1469.86	26
1470.93	24.5
1471.99	26.5
1473.05	22.5
1474.11	28
1475.17	28.5
1476.24	28
1477.3	24.5
1478.36	30.5
1479.42	27.5
1480.48	29
1481.54	24.5
1482.6	27
1483.66	27.5
1484.72	28
1485.78	24
1486.84	26
1487.9	26
1488.96	23.5
1490.02	25.5
1491.08	23.5
1492.14	24.5
1493.2	28
1494.26	24.5
1495.31	27
1496.37	23
1497.43	26.5
1498.49	22
1499.55	27.5
1500.6	25.5
1501.66	26
1502.72	28.5
1503.78	27
1504.83	27
1505.89	25.5
1506.95	24
1508	25
1509.06	27.5
1510.12	29.5
1511.17	25.5
1512.23	23
1513.28	24
1514.34	26.5
1515.39	27.5
1516.45	28
1517.5	25
1518.56	25
1519.61	26.5
1520.67	25
1521.72	26.5
1522.78	25.5
1523.83	24
1524.88	27
1525.94	25
1526.99	31
1528.05	24
1529.1	27
1530.15	27.5
1531.2	28
1532.26	28.5
1533.31	27
1534.36	25.5
1535.41	29.5
1536.47	22.5
1537.52	24
1538.57	27
1539.62	25.5
1540.67	26.5
1541.72	27
1542.77	29
1543.83	28.5
1544.88	24
1545.93	26
1546.98	23
1548.03	29
1549.08	30
1550.13	24
1551.18	27
1552.23	26
1553.28	25
1554.32	25
1555.37	24
1556.42	30.5
1557.47	25.5
1558.52	25
1559.57	20
1560.62	26.5
1561.67	27
1562.71	27.5
1563.76	24
1564.81	27
1565.86	28
1566.9	29
1567.95	30
1569	23.5
1570.04	29
1571.09	26.5
1572.14	31
1573.18	29.5
1574.23	28.5
1575.27	23
1576.32	24.5
1577.37	25
1578.41	28
1579.46	23
1580.5	25
1581.55	26
1582.59	24.5
1583.64	26.5
1584.68	27.5
1585.72	28.5
1586.77	27
1587.81	25.5
1588.86	24
1589.9	27
1590.94	26
1591.99	28.5
1593.03	26
1594.07	22.5
1595.12	28
1596.16	25
1597.2	25.5
1598.24	27.5
1599.29	22
1600.33	26.5
1601.37	23.5
1602.41	22
1603.45	20.5
1604.49	24.5
1605.53	27
1606.58	22.5
1607.62	23.5
1608.66	23
1609.7	24
1610.74	24
1611.78	24
1612.82	21
1613.86	21
1614.9	25
1615.94	22.5
1616.98	28
1618.02	24
1619.06	28.5
1620.09	23.5
1621.13	27
1622.17	26.5
1623.21	26.5
1624.25	24.5
1625.29	24
1626.32	28
1627.36	24
1628.4	27.5
1629.44	22
1630.47	24.5
1631.51	23
1632.55	26.5
1633.58	24
1634.62	27
1635.66	23.5
1636.69	30
1637.73	25.5
1638.77	26
1639.8	26
1640.84	27
1641.87	27.5
1642.91	26
1643.94	25.5
1644.98	30
1646.01	23.5
1647.05	21.5
1648.08	22
1649.12	27
1650.15	25.5
1651.18	26
1652.22	24
1653.25	28.5
1654.29	27
1655.32	26.5
1656.35	24
1657.39	24
1658.42	25.5
1659.45	23
1660.48	22.5
1661.52	26
1662.55	24.5
1663.58	27.5
1664.61	27.5
1665.64	26.5
1666.68	24
1667.71	26.5
1668.74	23
1669.77	30
1670.8	26.5
1671.83	27.5
1672.86	25
1673.89	25.5
1674.92	25
1675.95	28.5
1676.98	26.5
1678.01	26.5
1679.04	28
1680.07	27
1681.1	27.5
1682.13	24
1683.16	27.5
1684.19	23
1685.22	27
1686.25	25
1687.27	29
1688.3	28
1689.33	25.5
1690.36	26
1691.38	25
1692.41	24
1693.44	26.5
1694.47	24
1695.49	26
1696.52	27.5
1697.55	27
1698.57	25.5
1699.6	22.5
1700.63	24.5
1701.65	24.5
1702.68	27
1703.7	30
1704.73	24
1705.76	27
1706.78	25
1707.81	25.5
1708.83	28
1709.86	28
1710.88	24.5
1711.91	27.5
1712.93	22.5
1713.95	25
1714.98	26
1716	24.5
1717.03	25
1718.05	27.5
1719.07	26.5
1720.1	24.5
1721.12	26
1722.14	27
1723.16	26
1724.19	26.5
1725.21	26
1726.23	26
1727.25	29
1728.28	28.5
1729.3	26.5
1730.32	26
1731.34	29
1732.36	27.5
1733.38	22
1734.41	29.5
1735.43	28
1736.45	23.5
1737.47	25.5
1738.49	23
1739.51	24
1740.53	26.5
1741.55	25
1742.57	25
1743.59	21
1744.61	30.5
1745.63	28
1746.64	25.5
1747.66	23.5
1748.68	25.5
1749.7	24
1750.72	25.5
1751.74	25.5
1752.76	23.5
1753.77	23.5
1754.79	27.5
1755.81	29.5
1756.83	26
1757.84	26
1758.86	25
1759.88	30
1760.9	26.5
1761.91	23.5
1762.93	26.5
1763.95	23.5
1764.96	27.5
1765.98	23.5
1766.99	26.5
1768.01	25.5
1769.02	30.5
1770.04	25
1771.06	23.5
1772.07	21
1773.09	27.5
1774.1	26
1775.12	26
1776.13	25.5
1777.14	20.5
1778.16	25
1779.17	23
1780.19	27
1781.2	25
1782.21	26.5
1783.23	21.5
1784.24	25
1785.25	26
1786.27	25
1787.28	28
1788.29	22
1789.3	26
1790.32	30.5
1791.33	28
1792.34	26.5
1793.35	25.5
1794.36	24.5
1795.38	23
1796.39	24.5
1797.4	22.5
1798.41	25
1799.42	26
1800.43	26.5
1801.44	25.5
1802.45	28
1803.46	25.5
1804.47	26.5
1805.48	26.5
1806.49	25.5
1807.5	21
1808.51	23
1809.52	23
1810.53	27
1811.54	27
1812.55	24.5
1813.56	25.5
1814.57	28
1815.57	22.5
1816.58	25.5
1817.59	29.5
1818.6	26.5
1819.61	27
1820.61	27.5
1821.62	29
1822.63	26.5
1823.64	25
1824.64	25.5
1825.65	26
1826.66	22.5
1827.66	26.5
1828.67	26
1829.68	22.5
1830.68	28
1831.69	28
1832.69	26.5
1833.7	26.5
1834.7	22
1835.71	26
1836.71	23
1837.72	29.5
1838.72	27.5
1839.73	27.5
1840.73	28
1841.74	21
1842.74	26.5
1843.75	23
1844.75	24
1845.75	25
1846.76	25
1847.76	27.5
1848.76	26.5
1849.77	24.5
1850.77	24.5
1851.77	25
1852.78	25
1853.78	30
1854.78	31
1855.78	24
1856.78	23
1857.79	22
1858.79	28
1859.79	26
1860.79	22.5
1861.79	23.5
1862.79	27
1863.79	27
1864.79	26
1865.79	25
1866.8	25.5
1867.8	21
1868.8	27
1869.8	26
1870.8	27.5
1871.8	22.5
1872.8	24
1873.79	21
1874.79	21
1875.79	28
1876.79	24
1877.79	22.5
1878.79	24.5
1879.79	23
1880.79	25.5
1881.78	24.5
1882.78	25
1883.78	24
1884.78	24
1885.77	25
1886.77	26.5
1887.77	23
1888.77	21.5
1889.76	30.5
1890.76	23.5
1891.76	29.5
1892.75	23
1893.75	23
1894.75	26.5
1895.74	22
1896.74	26
1897.73	24.5
1898.73	25.5
1899.73	26.5
1900.72	25.5
1901.72	24
1902.71	24.5
1903.7	24
1904.7	22.5
1905.69	25
1906.69	22.5
1907.68	29.5
1908.68	27
1909.67	27
1910.66	26
1911.66	22.5
1912.65	27
1913.64	25
1914.64	23
1915.63	23
1916.62	31.5
1917.62	27
1918.61	25
1919.6	27
1920.59	23
1921.58	26.5
1922.58	22.5
1923.57	22.5
1924.56	22
1925.55	25.5
1926.54	22
1927.53	23
1928.52	23.5
1929.51	26.5
1930.51	26
1931.5	24
1932.49	24
1933.48	25.5
1934.47	26
1935.46	26
1936.45	24.5
1937.44	25.5
1938.42	26
1939.41	19
1940.4	28
1941.39	24
1942.38	24
1943.37	27
1944.36	24
1945.35	25.5
1946.33	21.5
1947.32	20
1948.31	21.5
1949.3	22.5
1950.29	25.5
1951.27	22.5
1952.26	24.5
1953.25	23
1954.23	23.5
1955.22	25
1956.21	27
1957.19	24.5
1958.18	22.5
1959.17	21
1960.15	28.5
1961.14	24.5
1962.13	26
1963.11	24
1964.1	22.5
1965.08	27
1966.07	24
1967.05	26
1968.04	22
1969.02	25.5
1970.01	23
1970.99	23.5
1971.97	26.5
1972.96	27.5
1973.94	25.5
1974.93	24.5
1975.91	21
1976.89	25
1977.88	21.5
1978.86	23
1979.84	25
1980.83	25.5
1981.81	26
1982.79	23
1983.77	25.5
1984.76	24
1985.74	27.5
1986.72	23
1987.7	23.5
1988.68	23.5
1989.67	24
1990.65	24.5
1991.63	24
1992.61	23.5
1993.59	25.5
1994.57	27
1995.55	19
1996.53	23.5
1997.51	27
1998.49	24.5
1999.47	23.5
2000.45	25
2001.43	26
2002.41	21.5
2003.39	19.5
2004.37	22.5
2005.35	23.5
2006.33	21.5
2007.31	25
2008.29	27.5
2009.26	26
2010.24	24
2011.22	22.5
2012.2	25.5
2013.18	24.5
2014.15	23.5
2015.13	21.5
2016.11	22
2017.09	25
2018.06	21.5
2019.04	26.5
2020.02	23
2021	24
2021.97	25
2022.95	23.5
2023.92	24.5
2024.9	23
2025.88	25
2026.85	26
2027.83	23.5
2028.8	22
2029.78	24
2030.75	23
2031.73	24.5
2032.7	24.5
2033.68	25
2034.65	23
2035.63	25
2036.6	22.5
2037.58	24.5
2038.55	25.5
2039.52	23.5
2040.5	22
2041.47	23
2042.45	23.5
2043.42	20.5
2044.39	23
2045.36	24
2046.34	26
2047.31	25.5
2048.28	22
2049.26	23.5
2050.23	24.5
2051.2	28
2052.17	23
2053.14	23
2054.12	26.5
2055.09	22
2056.06	27.5
2057.03	24.5
2058	27
2058.97	25.5
2059.94	21.5
2060.91	22.5
2061.88	22
2062.85	23
2063.82	22
2064.79	31
2065.76	24
2066.73	23.5
2067.7	21
2068.67	22.5
2069.64	24
2070.61	23.5
2071.58	21.5
2072.55	23
2073.52	25
2074.49	28
2075.45	19
2076.42	24
2077.39	23
2078.36	26
2079.33	23
2080.29	26
2081.26	22.5
2082.23	23
2083.2	24.5
2084.16	21
2085.13	23.5
2086.1	23
2087.06	23.5
2088.03	25.5
2089	24
2089.96	21.5
2090.93	26
2091.89	26.5
2092.86	26
2093.83	27
2094.79	26
2095.76	23.5
2096.72	26.5
2097.69	20
2098.65	23.5
2099.62	22.5
2100.58	24
2101.55	26
2102.51	25
2103.47	24
2104.44	22.5
2105.4	20.5
2106.36	24.5
2107.33	22.5
2108.29	23.5
2109.25	21.5
2110.22	25.5
2111.18	25
2112.14	25
2113.11	22.5
2114.07	20
2115.03	20
2115.99	26.5
2116.96	27.5
2117.92	21
2118.88	21
2119.84	22.5
2120.8	27
2121.76	20
2122.72	24.5
2123.68	23
2124.65	24
2125.61	25.5
2126.57	23
2127.53	24
2128.49	22.5
2129.45	24.5
2130.41	23
2131.37	22.5
2132.33	24
2133.29	26.5
2134.25	26
2135.21	24
2136.17	25.5
2137.12	23
2138.08	23
2139.04	23.5
2140	25
2140.96	23.5
2141.92	21.5
2142.88	22.4979
2143.83	22.9893
2144.79	22.5728
2145.75	24.0049
2146.71	25.2583
2147.66	23.755
2148.62	21.055
2149.58	24.6995
2150.53	22.2518
2151.49	21.8855
2152.45	21.4191
2153.4	24.281
2154.36	25.4896
2155.32	23.1966
2156.27	23.6255
2157.23	23.0237
2158.19	24.199
2159.14	22.5927
2160.1	22.2147
2161.05	25.9365
2162.01	23.5949
2162.96	26.2983
2163.92	27.4135
2164.87	24.3981
2165.83	24.5092
2166.78	23.6086
2167.73	22.2573
2168.69	22.267
2169.64	24.5876
2170.6	24.5952
2171.55	21.6204
2172.5	21.5612
2173.46	25.2849
2174.41	23.4169
2175.36	22.9832
2176.32	22.3842
2177.27	22.0302
2178.22	24.7981
2179.18	25.1085
2180.13	24.5648
2181.08	21.8932
2182.03	22.2654
2182.98	25.1489
2183.94	23.77
2184.89	22.7967
2185.84	21.6748
2186.79	21.8953
2187.74	20.4273
2188.69	21.3902
2189.64	21.1514
2190.6	24.9217
2191.55	22.2574
2192.5	22.7319
2193.45	22.9177
2194.4	23.3218
2195.35	20.0115
2196.3	23.229
2197.25	23.7297
2198.2	23.0118
2199.15	23.4857
2200.1	21.2587
2201.04	22.8248
2201.99	24.3034
2202.94	21.3027
2203.89	23.2671
2204.84	22.3254
2205.79	22.8431
2206.74	23.5001
2207.69	25.4534
2208.63	25.8805
2209.58	23.3019
2210.53	25.106
2211.48	20.103
2212.43	23.0128
2213.37	24.054
2214.32	22.6296
2215.27	24.8378
2216.21	27.9451
2217.16	20.8054
2218.11	21.0235
2219.05	25.1063
2220	23.8247
2220.95	20.3658
2221.89	22.1405
2222.84	23.9733
2223.78	20.7991
2224.73	22.7673
2225.68	21.6169
2226.62	19.9139
2227.57	22.5191
2228.51	24.2875
2229.46	21.5556
2230.4	21.1529
2231.35	22.244
2232.29	24.6705
2233.24	25.6092
2234.18	23.288
2235.12	25.0848
2236.07	24.4556
2237.01	24
2237.95	23.9393
2238.9	21.7478
2239.84	23.2937
2240.06	24
2241.01	25.5
2241.96	23.5
2242.91	24
2243.86	26
2244.8	23
2245.75	21.5
2246.7	22.5
2247.65	20.5
2248.59	29.5
2249.54	25
2250.49	22
2251.43	21.5
2252.38	22
2253.33	23
2254.27	21
2255.22	22
2256.16	26.5
2257.11	23
2258.06	24.5
2259	22
2259.95	22
2260.89	20
2261.84	21
2262.78	22
2263.73	25
2264.67	20
2265.62	22
2266.56	25
2267.5	22
2268.45	32.5
2269.39	24
2270.34	24.5
2271.28	26
2272.22	27.5
2273.17	27
2274.11	20
2275.05	23.5
2276	25.5
2276.94	23.5
2277.88	22.5
2278.82	23
2279.77	21
2280.71	23.5
2281.65	23
2282.59	24
2283.53	26.5
2284.48	25
2285.42	22.5
2286.36	22.5
2287.3	25
2288.24	23
2289.18	25
2290.12	20
2291.06	24.5
2292	21.5
2292.94	26
2293.89	23
2294.83	23.5
2295.77	26.5
2296.71	24
2297.65	22.5
2298.58	26
2299.52	24.5
2300.46	22
2301.4	23
2302.34	19.5
2303.28	25.5
2304.22	20.5
2305.16	23.5
2306.1	22
2307.03	26.5
2307.97	24
2308.91	20
2309.85	23
2310.79	21
2311.72	23
2312.66	23.5
2313.6	23
2314.54	26
2315.47	26
2316.41	25
2317.35	24.5
2318.28	21.5
2319.22	22.5
2320.16	21
2321.09	25.5
2322.03	27
2322.96	25
2323.9	25
2324.84	23
2325.77	26.5
2326.71	24
2327.64	22.5
2328.58	24
2329.51	23.5
2330.45	22
2331.38	23
2332.32	22.5
2333.25	25.5
2334.18	25
2335.12	21
2336.05	19.5
2336.99	22
2337.92	22.5
2338.85	24
2339.79	24
2340.72	25
2341.65	25
2342.59	20.5
2343.52	26.5
2344.45	27.5
2345.39	23.5
2346.32	22.5
2347.25	25.5
2348.18	22
2349.11	25.5
2350.05	22.5
2350.98	25.5
2351.91	22
2352.84	22
2353.77	21
2354.7	23
2355.64	24.5
2356.57	26
2357.5	26.5
2358.43	22
2359.36	26
2360.29	23.5
2361.22	23
2362.15	25
2363.08	25.5
2364.01	27.5
2364.94	23.5
2365.87	25.5
2366.8	22.5
2367.73	22.5
2368.66	21
2369.58	24
2370.51	20.5
2371.44	23
2372.37	23
2373.3	23
2374.23	23
2375.16	23.5
2376.08	24.5
2377.01	24
2377.94	25
2378.87	24
2379.8	24.5
2380.72	24
2381.65	25.5
2382.58	22.5
2383.5	26
2384.43	21.5
2385.36	22
2386.28	18
2387.21	24.5
2388.14	26
2389.06	26
2389.99	24
2390.91	21.5
2391.84	22.5
2392.77	25
2393.69	25
2394.62	25
2395.54	27
2396.47	26
2397.39	25
2398.32	24
2399.24	25.5
2400.16	22.5
2401.09	28
2402.01	22.5
2402.94	26
2403.86	23.5
2404.78	26.5
2405.71	24
2406.63	25
2407.56	25
2408.48	26
2409.4	25
2410.32	22.5
2411.25	23
2412.17	23.5
2413.09	24.5
2414.02	24.5
2414.94	26
2415.86	21.5
2416.78	26.5
2417.7	23
2418.63	23.5
2419.55	26
2420.47	23
2421.39	25.5
2422.31	25.5
2423.23	22
2424.15	23.5
2425.07	22.5
2425.99	26.5
2426.92	20.5
2427.84	25
2428.76	24
2429.68	21.5
2430.59	23.5
2431.51	22.5
2432.43	22
2433.35	23.5
2434.27	21.5
2435.19	23
2436.11	24
2437.03	27
2437.95	23.5
2438.87	25
2439.79	24.5
2440.71	24
2441.62	28.5
2442.54	25
2443.46	23.5
2444.38	27
2445.3	23
2446.21	24.5
2447.13	24
2448.05	24.5
2448.97	24
2449.88	22
2450.8	24
2451.72	25
2452.63	27.5
2453.55	25
2454.47	23
2455.38	23
2456.3	24
2457.21	25.5
2458.13	25
2459.05	24
2459.96	24.5
2460.88	24.5
2461.79	25
2462.71	24.5
2463.62	25
2464.54	26
2465.45	28
2466.37	25.5
2467.28	24
2468.2	26.5
2469.11	26
2470.02	27
2470.94	27
2471.85	24.5
2472.77	23.5
2473.68	24.5
2474.59	23.5
2475.51	25.5
2476.42	25.5
2477.33	27
2478.25	23
2479.16	22
2480.07	29
2480.98	26.5
2481.9	27
2482.81	28.5
2483.72	23
2484.63	23
2485.55	24.5
2486.46	24.5
2487.37	24
2488.28	24
2489.19	24
2490.1	23
2491.01	28.5
2491.92	26.5
2492.83	26
2493.74	26.5
2494.66	22.5
2495.57	25
2496.48	27.5
2497.39	27.5
2498.3	26
2499.21	25
2500.12	24
2501.03	22
2501.93	21
2502.84	26.5
2503.75	27
2504.66	24
2505.57	27.5
2506.48	24.5
2507.39	25
2508.3	22
2509.21	24.5
2510.11	24.5
2511.02	26
2511.93	23.5
2512.84	24.5
2513.75	23
2514.65	27
2515.56	21
2516.47	24
2517.37	23.5
2518.28	27.5
2519.19	20
2520.09	24
2521	22
2521.91	23
2522.81	23.5
2523.72	24.5
2524.63	24.5
2525.53	26.5
2526.44	26
2527.34	23
2528.25	24
2529.16	24
2530.06	24.5
2530.97	21.5
2531.87	26
2532.78	24
2533.68	24
2534.58	28.5
2535.49	26
2536.39	26.5
2537.3	30
2538.2	25.5
2539.11	22
2540.01	20
2540.91	26
2541.82	25
2542.72	26.5
2543.62	24
2544.53	19
2545.43	26
2546.33	27
2547.23	23
2548.14	27
2549.04	23.5
2549.94	25
2550.84	21
2551.75	24
2552.65	26.5
2553.55	25
2554.45	26.5
2555.35	24.5
2556.26	25.5
2557.16	24
2558.06	26.5
2558.96	25
2559.86	20
2560.76	24.5
2561.66	23.5
2562.56	26.5
2563.46	27.5
2564.36	25
2565.26	28
2566.16	26
2567.06	26
2567.96	23.5
2568.86	24
2569.76	24
2570.66	26.5
2571.56	26.5
2572.46	25
2573.36	25.5
2574.26	28
2575.16	21.5
2576.05	25
2576.95	25
2577.85	23.5
2578.75	26.5
2579.65	22.5
2580.54	25.5
2581.44	23
2582.34	23.5
2583.24	28
2584.13	28
2585.03	24
2585.93	23
2586.83	24.5
2587.72	21.5
2588.62	27.5
2589.52	23
2590.41	22
2591.31	25.5
2592.2	22.5
2593.1	23
2594	26
2594.89	23
2595.79	28
2596.68	24.5
2597.58	27.5
2598.47	24
2599.37	23.5
2600.26	24.5
2601.16	26.5
2602.05	25
2602.95	19.5
2603.84	23
2604.74	24.5
2605.63	29.5
2606.52	25
2607.42	27.5
2608.31	23
2609.21	27
2610.1	23.5
2610.99	27
2611.89	25.5
2612.78	24.5
2613.67	27
2614.56	24
2615.46	25
2616.35	23.5
2617.24	28
2618.13	23.5
2619.03	21.5
2619.92	27
2620.81	23
2621.7	24
2622.59	22.5
2623.49	25
2624.38	27.5
2625.27	22.5
2626.16	21
2627.05	27.5
2627.94	21
2628.83	24.5
2629.72	25
2630.61	26
2631.5	26
2632.39	26
2633.28	23
2634.17	28.5
2635.06	23
2635.95	25.5
2636.84	25
2637.73	24.5
2638.62	24.5
2639.51	23
2640.4	33.5
2641.29	27
2642.18	21
2643.07	18
2643.96	19.5
2644.84	30.5
2645.73	24
2646.62	23.5
2647.51	26
2648.4	25.5
2649.28	26
2650.17	22
2651.06	26
2651.95	26.5
2652.83	28
2653.72	23.5
2654.61	24
2655.49	24.5
2656.38	26
2657.27	22.5
2658.16	24.5
2659.04	22.5
2659.93	23.5
2660.81	23
2661.7	24
2662.59	25
2663.47	24
2664.36	23.5
2665.24	24.5
2666.13	21.5
2667.01	29
2667.9	26.5
2668.78	24.5
2669.67	26
2670.55	27.5
2671.44	20
2672.32	27
2673.21	26.5
2674.09	21
2674.97	25.5
2675.86	25
2676.74	24.5
2677.62	26
2678.51	23
2679.39	25
2680.27	22.5
2681.16	24
2682.04	30
2682.92	26
2683.81	23
2684.69	26
2685.57	25
2686.45	23
2687.34	23.5
2688.22	22
2689.1	25
2689.98	22
2690.86	25.5
2691.75	22
2692.63	25.5
2693.51	26
2694.39	23
2695.27	24.5
2696.15	21
2697.03	26
2697.91	23
2698.79	23.5
2699.67	27
2700.55	25
2701.43	24
2702.31	24.5
2703.19	26.5
2704.07	24
2704.95	28
2705.83	24
2706.71	22
2707.59	26
2708.47	27
2709.35	24.5
2710.23	28.5
2711.11	24
2711.99	26
2712.86	24.5
2713.74	24.5
2714.62	24
2715.5	27
2716.38	23.5
2717.26	23
2718.13	24
2719.01	30
2719.89	26.5
2720.77	21
2721.64	26
2722.52	28
2723.4	24
2724.27	24
2725.15	26.5
2726.03	25
2726.9	22
2727.78	26
2728.66	26.5
2729.53	25
2730.41	22
2731.28	26.5
2732.16	20
2733.03	20.5
2733.91	30.5
2734.79	22.5
2735.66	22
2736.54	27
2737.41	25.5
2738.29	24
2739.16	25.5
2740.03	26.5
2740.91	27.5
2741.78	24
2742.66	22.5
2743.53	26.5
2744.41	26.5
2745.28	25
2746.15	24
2747.03	24
2747.9	25
2748.77	25.5
2749.65	21
2750.52	20.5
2751.39	21.5
2752.27	20.5
2753.14	22.5
2754.01	24
2754.88	27.5
2755.75	24
2756.63	21
2757.5	26.5
2758.37	22
2759.24	19.5
2760.11	21
2760.99	26
2761.86	24.5
2762.73	25
2763.6	27.5
2764.47	25.5
2765.34	25.5
2766.21	28.5
2767.08	21.5
2767.95	22.5
2768.82	27
2769.69	24.5
2770.56	25
2771.43	24
2772.3	26.5
2773.17	24.5
2774.04	22
2774.91	21
2775.78	24.5
2776.65	24.5
2777.52	21.5
2778.39	24
2779.26	26
2780.13	29
2780.99	25.5
2781.86	26.5
2782.73	27
2783.6	25
2784.47	22
2785.34	22.5
2786.2	29
2787.07	27.5
2787.94	27.5
2788.81	27.5
2789.67	24.5
2790.54	24.5
2791.41	27.5
2792.27	23
2793.14	24.5
2794.01	29.5
2794.87	27
2795.74	27.5
2796.61	25
2797.47	30
2798.34	24.5
2799.21	30
2800.07	26.5
2800.94	24.75
2801.8	22.5
2802.67	23
2803.53	25.5
2804.4	25.5
2805.26	25
2806.13	27
2806.99	24.5
2807.86	25.5
2808.72	26
2809.59	27.5
2810.45	23
2811.32	23
2812.18	25.5
2813.04	24
2813.91	26
2814.77	26
2815.64	29
2816.5	27
2817.36	26.5
2818.22	22.5
2819.09	27.5
2819.95	26
2820.81	25
2821.68	25.5
2822.54	27.5
2823.4	25.5
2824.26	22
2825.13	26
2825.99	28.5
2826.85	25
2827.71	26.5
2828.57	25
2829.44	26.5
2830.3	26.5
2831.16	25.5
2832.02	25
2832.88	25
2833.74	27.5
2834.6	28
2835.46	26
2836.32	27
2837.18	25.5
2838.04	27
2838.9	24
2839.76	25.5
2840.62	27.5
2841.48	25.5
2842.34	21.5
2843.2	27
2844.06	25
2844.92	24
2845.78	26.5
2846.64	23
2847.5	26.5
2848.36	28.5
2849.22	25
2850.08	24
2850.93	26
2851.79	28
2852.65	24
2853.51	26
2854.37	27
2855.22	23.5
2856.08	25
2856.94	25.5
2857.8	26
2858.65	30
2859.51	25
2860.37	26
2861.23	24.5
2862.08	26
2862.94	23
2863.79	26
2864.65	27.5
2865.51	29
2866.36	31.5
2867.22	27.5
2868.08	28.5
2868.93	26
2869.79	26
2870.64	28.5
2871.5	24.5
2872.35	26.5
2873.21	25.5
2874.06	28.5
2874.92	24.5
2875.77	30
2876.63	26.5
2877.48	29.5
2878.34	26
2879.19	30
2880.05	29
2880.9	29
2881.76	30.5
2882.61	34
2883.46	28.5
2884.32	35
2885.17	31.5
2886.02	34.5
2886.88	35
2887.73	34
2888.58	33
2889.44	35
2890.29	41.5
2891.14	47
2891.99	38.5
2892.85	42
2893.7	39
2894.55	46.5
2895.4	45
2896.25	49.5
2897.11	41
2897.96	53
2898.81	53
2899.66	57.5
2900.51	59
2901.36	58.5
2902.21	61.5
2903.07	65.5
2903.92	66.5
2904.77	72.5
2905.62	70
2906.47	64
2907.32	69
2908.17	69.5
2909.02	61
2909.87	59
2910.72	61.5
2911.57	61.5
2912.42	57
2913.27	51
2914.12	51
2914.97	48
2915.81	44
2916.66	44
2917.51	40.5
2918.36	35.5
2919.21	38
2920.06	37
2920.91	38
2921.75	34
2922.6	31.5
2923.45	34.5
2924.3	27.5
2925.15	34
2925.99	31.5
2926.84	30.5
2927.69	29
2928.54	29
2929.38	32
2930.23	31
2931.08	24
2931.92	27.5
2932.77	27.5
2933.62	29.5
2934.46	29
2935.31	24
2936.16	25
2937	30.5
2937.85	28
2938.69	25
2939.54	23
2940.38	29.5
2941.23	31
2942.08	27
2942.92	28
2943.77	27.5
2944.61	31.5
2945.46	30
2946.3	23.5
2947.15	30.5
2947.99	31.5
2948.83	29.5
2949.68	32
2950.52	26.5
2951.37	31
2952.21	31.5
2953.05	26
2953.9	34.5
2954.74	33
2955.58	32
2956.43	36
2957.27	32
2958.11	36
2958.96	37.5
2959.8	39
2960.64	42.5
2961.48	41
2962.33	41
2963.17	40.5
2964.01	44
2964.85	45.5
2965.69	41.5
2966.54	47
2967.38	43.5
2968.22	41
2969.06	42
2969.9	40
2970.74	40
2971.58	39.4903
2972.43	34.9352
2973.27	36.4653
2974.11	34.4873
2974.95	34.7973
2975.79	32.0623
2976.63	29.1989
2977.47	35.546
2978.31	32.9864
2979.15	31.4517
2979.99	32.173
2980.83	31.0473
2981.67	28.4153
2982.51	28.4734
2983.35	24.3649
2984.19	27.206
2985.03	28.6486
2985.86	28.8513
2986.7	24.5227
2987.54	26.984
2988.38	24.3397
2989.22	24.1013
2990.06	24.686
2990.9	23.4833
2991.73	23.8557
2992.57	26.5795
2993.41	24.5539
2994.25	24.1428
2995.09	28.1836
2995.92	28.2882
2996.76	24.5694
2997.6	24.5816
2998.44	23.2518
2999.27	22
3000.11	24.5436
3000.95	23.4172
3001.78	23.8516
3002.62	24.5796
3003.46	23.0907
3004.29	26.2553
3005.13	20.0171
3005.96	24.5936
3006.8	22.6134
3007.64	24.5218
3008.47	22.7035
3009.31	24.5773
3010.14	23.3544
3010.98	22.4606
3011.81	23.1554
3012.65	23.3386
3013.48	23.9794
3014.32	20.4361
3015.15	22.9542
3015.99	23.5717
3016.82	23.7633
3017.66	22.9417
3018.49	22.1016
3019.33	25.4155
3020.16	24.3678
3020.99	21.5294
3021.83	23.3351
3022.66	24.3956
3023.5	23.1183
3024.33	21.8245
3025.16	21.3778
3026	21.6821
3026.83	23.6674
3027.66	23.1121
3028.49	23.9066
3029.33	24.0958
3030.16	23.3558
3030.99	21.9678
3031.83	21.7961
3032.66	22.7388
3033.49	23.2976
3034.32	23.6457
3035.15	23.3232
3035.99	23.361
3036.82	22.6493
3037.65	21.4812
3038.48	20.918
3039.31	22.6132
3040.14	23.6947
3040.97	23.9269
3041.81	24.7016
3042.64	24.3668
3043.47	23.6623
3044.3	22.8561
3045.13	23.8211
3045.96	22.8971
3046.79	24.3025
3047.62	22.9022
3048.45	23.1408
3049.28	23.0326
3050.11	23.0121
3050.94	24.8037
3051.77	22.3439
3052.6	20.2476
3053.43	22.1357
3054.26	23.5011
3055.08	22.2286
3055.91	22.854
3056.74	24.0843
3057.26	25
3058.09	24
3058.92	23.5
3059.76	26
3060.59	22
3061.42	25
3062.25	23
3063.09	21.5
3063.92	24.5
3064.75	25.5
3065.58	23.5
3066.42	24
3067.25	22.5
3068.08	23
3068.91	27
3069.74	23
3070.57	22
3071.41	27
3072.24	22
3073.07	22.5
3073.9	20
3074.73	20.5
3075.56	23
3076.39	24.5
3077.22	21
3078.05	24
3078.88	22
3079.71	25.5
3080.54	23
3081.37	22.5
3082.2	22
3083.03	24.5
3083.86	21
3084.69	25
3085.52	23.5
3086.35	22.5
3087.18	18.5
3088.01	21.5
3088.84	18
3089.67	23.5
3090.5	26
3091.32	22.5
3092.15	18.5
3092.98	22
3093.81	27
3094.64	24
3095.47	26.5
3096.29	22
3097.12	27
3097.95	23.5
3098.78	23.5
3099.6	20
3100.43	24.5
3101.26	22
3102.09	23
3102.91	22.5
3103.74	26
3104.57	22.5
3105.39	22
3106.22	26
3107.05	27.5
3107.87	22
3108.7	28
3109.52	22
3110.35	23
3111.18	21.5
3112	23.5
3112.83	24
3113.65	23
3114.48	25
3115.3	23
3116.13	23
3116.95	23
3117.78	25
3118.6	22.5
3119.43	24
3120.25	26.5
3121.08	22
3121.9	25.5
3122.72	21.5
3123.55	26.5
3124.37	22.5
3125.2	26
3126.02	21.5
3126.84	24.5
3127.67	22
3128.49	26.5
3129.31	22
3130.14	22.5
3130.96	25
3131.78	22.5
3132.61	24
3133.43	21
3134.25	24
3135.07	22
3135.89	26
3136.72	23.5
3137.54	24.5
3138.36	21
3139.18	23.5
3140	27.5
3140.83	25
3141.65	23
3142.47	27
3143.29	23.5
3144.11	23.5
3144.93	21
3145.75	21
3146.57	25
3147.4	24.5
3148.22	24.5
3149.04	23.5
3149.86	23.5
3150.68	22.5
3151.5	28.5
3152.32	27
3153.14	26.5
3153.96	23.5
3154.78	17
3155.59	20
3156.42	26
3157.23	27.5
3158.05	24.5
3158.87	23.5
3159.69	24.5
3160.51	27
3161.33	25
3162.15	22
3162.97	21
3163.78	21
3164.6	23
3165.42	24.5
3166.24	23
3167.06	24.5
3167.87	26.5
3168.69	30.5
3169.51	27.5
3170.33	23.5
3171.14	27
3171.96	24
3172.78	24.5
3173.6	24
3174.41	26
3175.23	22.5
3176.05	22
3176.86	21.5
3177.68	21
3178.5	23
3179.31	25
3180.13	26.5
3180.94	21
3181.76	21.5
3182.58	24.5
3183.39	22.5
3184.21	23
3185.02	24
3185.84	26.5
3186.65	20
3187.47	20.5
3188.28	24
3189.1	17
3189.91	24.5
3190.73	25.5
3191.54	24.5
3192.36	24
3193.17	19
3193.98	26.5
3194.8	26
3195.61	22.5
3196.43	22.5
3197.24	22
3198.05	21
3198.87	25.5
3199.68	25.5
3200.49	23.5
3201.31	22
3202.12	26
3202.93	27
3203.75	20.5
3204.56	23
3205.37	28.5
3206.18	23.5
3207	23
3207.81	24
3208.62	23.5
3209.43	24.5
3210.24	24
3211.06	24.5
3211.87	21
3212.68	23
3213.49	21
3214.3	23.5
3215.11	21.5
3215.92	21
3216.73	24
3217.55	25.5
3218.36	21.5
3219.17	22
3219.98	19
3220.79	24
3221.6	23
3222.41	23
3223.22	23.5
3224.03	24.5
3224.84	24.5
3225.65	24.5
3226.46	21.5
3227.27	24.5
3228.08	23
3228.89	27
3229.7	23
3230.5	28.5
3231.31	24
3232.12	27.5
3232.93	22.5
3233.74	28
3234.55	24.5
3235.36	24
3236.16	25
3236.97	25
3237.78	23
3238.59	25
3239.4	22
3240.2	23
3241.01	26
3241.82	24
3242.63	25
3243.43	21.5
3244.24	20.5
3245.05	19.5
3245.85	20.5
3246.66	22
3247.47	21.5
3248.27	21.5
3249.08	23.5
3249.89	26
3250.69	20.5
3251.5	30
3252.31	25
3253.11	23.5
3253.92	24
3254.72	26
3255.53	26.5
3256.33	22.5
3257.14	26.5
3257.94	27
3258.75	23
3259.55	23
3260.36	20
3261.16	23
3261.97	25.5
3262.77	22.5
3263.58	23
3264.38	21
3265.19	25.5
3265.99	23
3266.79	22.5
3267.6	23.5
3268.4	22
3269.21	22
3270.01	24
3270.81	22
3271.62	26
3272.42	23
3273.22	25
3274.03	21.5
3274.83	22
3275.63	23.5
3276.43	26
3277.24	22.5
3278.04	26.5
3278.84	23
3279.64	24.5
3280.45	26
3281.25	25.5
3282.05	22
3282.85	26.5
3283.65	22
3284.45	21
3285.26	26.5
3286.06	21.5
3286.86	25
3287.66	25
3288.46	25.5
3289.26	26.5
3290.06	25
3290.86	23.5
3291.66	24
3292.46	21
3293.26	26.5
3294.06	26.5
3294.86	20
3295.66	21.5
3296.46	22.5
3297.26	23.5
3298.06	23.5
3298.86	26
3299.66	27.5
3300.46	21
3301.26	24
3302.06	21.5
3302.86	23
3303.66	23
3304.46	23.5
3305.25	24.5
3306.05	23.5
3306.85	20
3307.65	26
3308.45	26.5
3309.25	27
3310.04	23.5
3310.84	22.5
3311.64	24.5
3312.44	29
3313.23	23
3314.03	24.5
3314.83	24.5
3315.63	23
3316.42	26
3317.22	23.5
3318.02	24
3318.81	25
3319.61	26
3320.41	26
3321.2	29
3322	24.5
3322.8	24.5
3323.59	25
3324.39	21.5
3325.18	26
3325.98	23
3326.78	22
3327.57	26.5
3328.37	23
3329.16	22
3329.96	22
3330.75	25.5
3331.55	25.5
3332.34	24.5
3333.14	23
3333.93	25
3334.73	25
3335.52	22
3336.31	24
3337.11	24
3337.9	26.5
3338.7	19.5
3339.49	27
3340.28	26
3341.08	22
3341.87	23.5
3342.66	22
3343.46	25.5
3344.25	22.5
3345.04	23.5
3345.84	26.5
3346.63	24.5
3347.42	25.5
3348.22	26.5
3349.01	24
3349.8	27.5
3350.59	22
3351.39	22.5
3352.18	24
3352.97	22
3353.76	25
3354.55	23
3355.35	22.5
3356.14	21.5
3356.93	26.5
3357.72	22
3358.51	20
3359.3	25
3360.09	23.5
3360.88	23.5
3361.67	25.5
3362.46	25.5
3363.26	24
3364.05	23
3364.84	25.5
3365.63	21.5
3366.42	22.5
3367.21	22.5
3368	23
3368.79	24
3369.58	25.5
3370.37	25
3371.15	24
3371.94	24.5
3372.73	20
3373.52	23
3374.31	22
3375.1	27
3375.89	24.5
3376.68	24
3377.47	19
3378.26	21
3379.04	21
3379.83	19
3380.62	22
3381.41	24.5
3382.2	19
3382.98	23
3383.77	22
3384.56	27
3385.35	27
3386.13	25
3386.92	26
3387.71	25
3388.5	28
3389.28	20
3390.07	26.5
3390.86	25
3391.64	24.5
3392.43	24
3393.22	28
3394	22
3394.79	26
3395.57	23
3396.36	22
3397.15	21
3397.93	24
3398.72	26
3399.5	28.5
3400.29	21.5
3401.07	25
3401.86	26
3402.65	28.5
3403.43	25
3404.21	23
3405	25
3405.78	25.5
3406.57	25.5
3407.35	22
3408.14	28
3408.92	24.5
3409.71	25
3410.49	21
3411.27	25
3412.06	25
3412.84	25.5
3413.62	26.5
3414.41	23
3415.19	23
3415.97	24
3416.76	21
3417.54	23.5
3418.32	25
3419.11	20
3419.89	24.5
3420.67	25
3421.46	26
3422.24	23
3423.02	23.5
3423.8	22.5
3424.58	22.5
3425.37	23
3426.15	24.5
3426.93	25.5
3427.71	25
3428.49	25
3429.27	24
3430.05	24
3430.84	20
3431.62	25
3432.4	25.5
3433.18	23.5
3433.96	26
3434.74	23.5
3435.52	25
3436.3	21.5
3437.08	25.5
3437.86	27
3438.64	26
3439.42	21.5
3440.2	25
3440.98	20
3441.76	20
3442.54	25
3443.32	24.5
3444.1	27
3444.88	27.5
3445.66	26
3446.44	29
3447.22	24
3448	22
3448.77	22
3449.55	25
3450.33	25
3451.11	25
3451.89	25
3452.67	22
3453.45	24
3454.22	22.5
3455	24.5
3455.78	24
3456.56	27
3457.33	22.5
3458.11	19.5
3458.89	23
3459.67	23.5
3460.44	27
3461.22	21.5
3462	25
3462.77	23.5
3463.55	23
3464.33	28
3465.1	23.5
3465.88	24
3466.66	21
3467.43	25
3468.21	23.5
3468.98	22
3469.76	25
3470.54	26.5
3471.31	25
3472.09	23.5
3472.86	21
3473.64	23
3474.41	24
3475.19	25
3475.96	26
3476.74	25
3477.51	24
3478.29	23
3479.06	26
3479.84	28
3480.61	20
3481.39	22.5
3482.16	24
3482.93	27.5
3483.71	25
3484.48	23
3485.25	23.5
3486.03	18.5
3486.8	24.5
3487.57	24.5
3488.35	22.5
3489.12	21.5
3489.89	24
3490.67	24
3491.44	28
3492.21	24
3492.99	20
3493.76	25
3494.53	23
3495.3	22.5
3496.08	24
3496.85	21
3497.62	21.5
3498.39	21.5
3499.16	22.5
3499.93	23.5
