#Acq. time (s)=	5
#Accumulations=	5
#Range (cm-¹)=	100...3500
#Windows=	4
#Autofocus=	Off
#AutoExposure=	Off
#Spike filter=	Multiple accum.
#Delay time (s)=	0
#Binning=	1
#Readout mode=	Signal
#DeNoise=	Off
#ICS correction=	Off
#Dark correction=	Off
#Inst. Process=	Off
#Instrument=	LabRAM HR Evol
#Detector=	Syncerity OE
#Objective=	x100_VIS
#Grating=	600 (500nm)
#ND Filter=	25%
#Laser=	633nm_Edge
#Hole=	100.021
#Range=	Visible
#Project=	verificaciones
#Sample=	at5
#Site=	plain
#Title=	bolusat5plain
#Remark=	
#Date=	13.01.2026 17:01
#Acquired=	13.01.2026 17:01:27
100.692	25
101.975	30
103.258	28.5
104.542	27
105.824	28
107.107	25
108.39	23.5
109.672	27
110.954	21
112.236	22
113.519	21
114.8	25
116.081	27
117.362	26
118.643	24
119.924	24
121.204	25
122.484	26
123.764	29
125.044	22
126.323	24
127.603	26.5
128.882	22.5
130.161	29
131.438	27
132.716	28
133.995	24.5
135.273	26.5
136.55	25
137.828	20
139.106	26
140.383	26.5
141.66	23
142.937	25
144.213	26
145.488	28.5
146.764	27
148.04	24
149.316	25
150.592	27
151.867	28
153.141	26.5
154.416	23.5
155.69	24.5
156.965	27
158.239	27.5
159.512	28
160.786	26
162.059	27.5
163.333	27
164.605	26
165.878	24.5
167.15	28
168.423	26
169.694	27
170.966	29
172.238	25.5
173.51	27.5
174.78	29.5
176.052	27
177.323	22
178.592	24
179.863	20.5
181.134	26.5
182.403	26
183.673	27
184.943	22
186.211	31
187.481	27
188.749	28
190.018	24.5
191.287	30
192.554	28.5
193.822	25.5
195.089	27.5
196.357	22
197.625	25
198.891	26.5
200.159	24
201.425	28.5
202.692	25
203.957	27.5
205.224	27
206.489	26
207.755	28
209.02	27
210.286	27
211.55	29
212.815	26
214.079	25.5
215.344	26
216.607	26.5
217.872	28.5
219.135	25
220.399	28
221.662	30
222.924	24
224.187	28.5
225.449	23.5
226.713	27
227.974	29
229.235	24
230.498	25.5
231.759	26
233.019	27.5
234.281	25.5
235.542	24
236.802	24.5
238.063	28.5
239.323	25.5
240.582	27.5
241.843	23.5
243.102	25
244.361	24
245.621	21.5
246.879	31
248.138	27
249.396	27
250.655	29.5
251.913	30
253.17	22.5
254.427	27.5
255.686	25.5
256.943	25
258.199	26.5
259.456	25.5
260.712	25.5
261.969	28.5
263.225	26.5
264.481	28
265.736	26
266.991	28
268.246	26.5
269.502	28.5
270.757	26
272.011	21
273.265	27.5
274.519	27
275.773	22.5
277.027	23
278.28	21.5
279.533	25
280.786	23.5
282.04	23.5
283.293	28.5
284.545	25.5
285.798	26
287.049	26
288.301	27
289.553	27.5
290.804	24.5
292.055	26.5
293.306	22
294.557	20.5
295.807	26
297.058	23
298.308	27
299.558	26
300.808	24
302.057	24
303.305	23.5
304.554	28.5
305.803	24.5
307.052	27
308.3	24
309.549	27
310.797	24
312.045	27
313.292	24
314.54	22.5
315.786	27.5
317.033	26
318.28	23
319.526	28
320.773	25.5
322.019	28
323.264	30.5
324.51	23.5
325.755	22.5
327.001	23
328.246	25
329.49	23.5
330.735	20
331.979	25.5
333.224	25
334.467	24.5
335.711	24.5
336.955	27
338.199	27.5
339.441	26
340.684	28
341.927	25
343.168	27.5
344.411	27.5
345.654	22
346.895	26.5
348.137	24
349.379	26.5
350.619	26
351.86	25
353.102	25.5
354.341	28.5
355.582	23
356.821	26.5
358.062	25
359.302	25
360.541	25.5
361.781	26.5
363.019	28
364.259	26
365.496	26
366.736	25.5
367.974	25
369.212	24
370.45	23.5
371.687	31
372.925	26.5
374.162	25.5
375.399	22
376.635	26
377.873	27
379.109	26.5
380.344	26
381.581	23.5
382.816	27.5
384.052	29
385.287	25
386.523	28.5
387.757	26
388.991	24.5
390.227	26.5
391.46	23.5
392.695	27
393.928	28.5
395.162	26
396.396	27.5
397.629	26.5
398.861	26.5
400.095	22.5
401.327	26.5
402.559	24.5
403.792	24.5
405.024	20
406.255	24.5
407.488	28
408.719	27.5
409.949	29.5
411.18	29
412.412	21
413.642	22
414.872	26
416.102	25.5
417.333	25.5
418.562	28.5
419.791	26.5
421.02	25
422.249	27.5
423.479	24
424.707	26
425.935	25.5
427.163	25
428.391	21.5
429.619	21
430.848	26.5
432.075	22
433.302	27.5
434.529	27.5
435.755	25
436.982	26
438.208	25
439.434	25.5
440.66	28
441.885	22.5
443.111	28
444.338	29
445.563	27
446.788	26
448.012	23.5
449.237	26.5
450.461	28
451.685	25
452.909	22.5
454.133	31
455.356	25.5
456.579	25.5
457.802	28
459.025	20
460.247	26
461.469	26.5
462.691	27
463.914	27
465.136	27
466.357	26
467.579	29
468.8	22.5
470.021	26.5
471.242	28
472.462	27.5
473.682	25.5
474.903	27
476.123	26
477.343	29
478.563	26
479.782	28
481	28.5
482.219	22
483.438	26.5
484.657	29
485.874	28
487.093	27
488.311	28
489.529	27
490.747	27
491.963	30
493.181	28
494.398	29.5
495.614	27
496.83	28
498.047	27.5
499.264	25.5
500.479	27.5
501.695	29
502.911	26.5
504.125	28.5
505.34	31.5
506.554	24
507.769	26.5
508.984	25
510.198	29
511.412	27.5
512.627	29
513.839	24.5
515.053	26
516.266	29
517.479	29
518.691	23.5
519.905	24
521.118	26
522.329	26
523.542	28.5
524.753	22
525.965	26.5
527.176	28.5
528.388	27.5
529.598	28
530.809	24
532.019	27.5
533.23	26.5
534.44	28.5
535.649	26.5
536.86	26.5
538.068	27.5
539.279	27
540.487	26
541.697	23
542.905	26
544.113	27.5
545.322	27
546.53	26
547.737	21
548.946	26
550.153	26
551.361	26.5
552.568	27.5
553.774	26.5
554.982	28
556.188	28
557.394	28.5
558.599	27.5
559.806	26
561.012	29
562.217	22
563.423	26.5
564.628	25.5
565.832	25.5
567.036	24.5
568.241	27
569.446	25.5
570.65	25.5
571.853	27.5
573.057	26.5
574.26	25
575.464	29.5
576.667	29.5
577.87	27
579.072	28.5
580.274	26
581.477	24
582.68	24.5
583.881	27
585.083	26
586.284	24
587.485	25.5
588.686	29.5
589.887	28
591.087	26
592.288	26
593.488	25.5
594.688	19.5
595.888	27
597.087	28
598.287	24
599.486	28.5
600.685	26
601.884	27
603.082	27
604.281	26
605.479	27.5
606.677	26
607.875	21.5
609.073	25
610.27	23
611.468	24.5
612.665	23
613.862	22.5
615.058	24
616.255	28
617.451	29.5
618.648	28.5
619.842	21
621.038	23
622.234	23
623.429	27
624.624	25.5
625.819	25
627.013	24.5
628.207	27
629.402	28.5
630.596	27
631.79	26
632.983	25
634.177	25
635.37	24.5
636.564	26
637.755	23.5
638.948	28.5
640.141	25.5
641.334	28.5
642.525	27
643.717	25
644.909	27.5
646.099	30.5
647.291	24
648.483	25
649.674	30
650.864	26
652.055	27
653.244	25.5
654.435	25.5
655.625	26
656.814	29
658.004	25.5
659.193	28
660.382	27
661.571	27.5
662.759	27.5
663.948	25.5
665.135	22
666.324	26
667.511	29.5
668.7	25.5
669.886	27
671.074	26.5
672.262	27
673.448	24.5
674.634	28
675.821	30
677.007	25.5
678.194	29
679.379	30
680.565	28.5
681.75	25
682.936	25
684.121	24
685.305	30
686.491	28
687.675	27
688.86	29.5
690.043	26.5
691.227	26.5
692.411	28
693.594	25
694.777	26
695.961	27.5
697.144	28
698.326	29
699.509	24.5
700.691	29
701.873	29.5
703.056	29
704.237	29.5
705.419	25
706.599	26.5
707.782	25.5
708.962	28.5
710.143	29
711.323	29.5
712.504	26
713.684	27.5
714.864	26.5
716.043	28
717.223	24
718.403	27
719.582	25.5
720.761	24.5
721.94	27
723.118	29.5
724.296	30
725.474	23
726.652	25
727.831	27
729.009	27.5
730.186	23.5
731.363	24.5
732.54	28
733.717	32.5
734.893	26.5
736.07	28.5
737.246	27.5
738.422	24.5
739.598	25.5
740.773	24
741.949	26
743.124	25.5
744.299	26.5
745.474	29.5
746.649	26.5
747.823	27
748.997	23
750.172	27
751.346	24
752.519	24
753.693	24
754.867	25
756.038	28
757.211	21.5
758.384	26
759.557	26.5
760.73	27
761.902	28
763.074	26
764.246	24.5
765.417	24.5
766.588	24
767.76	28.5
768.931	26.5
770.102	25.5
771.271	20
772.442	28.5
773.613	24
774.783	26.5
775.952	24
777.122	23.5
778.291	25
779.461	25.5
780.629	23.5
781.798	30.5
782.967	25.5
784.135	27.5
785.304	26
786.472	26
787.639	25.5
788.807	25.5
789.975	26.5
791.142	29
792.309	31
793.477	27.5
794.642	25.5
795.81	24.5
796.975	27
798.142	25.5
799.308	28.5
800.473	25
801.639	27.5
802.804	28
803.97	26.5
805.134	21
806.299	25
807.463	26.5
808.628	29
809.792	23.5
810.957	28.5
812.12	23
813.284	30
814.447	23.5
815.611	26.5
816.773	28
817.937	26.5
819.099	28
820.261	16
821.424	27
822.585	23.5
823.748	20.5
824.909	24.5
826.07	25.5
827.232	24
828.393	28
829.554	27
830.715	25
831.875	26
833.035	25.5
834.196	27
835.356	24
836.515	26
837.676	26
838.835	27
839.994	26
841.152	29
842.312	22
843.47	25
844.629	25.5
845.786	26.5
846.946	27
848.103	27
849.261	28
850.418	24
851.575	26
852.733	29
853.89	27
855.046	24.5
856.203	25
857.359	25.5
858.515	26.5
859.67	29
860.827	28
861.983	26.5
863.138	23.5
864.293	25
865.448	28
866.603	26
867.757	26
868.912	27.5
870.066	24.5
871.22	25
872.374	24
873.527	22
874.681	27
875.834	24.5
876.987	28
878.14	26
879.293	27.5
880.445	27
881.598	25.5
882.75	25.5
883.902	25
885.054	23
886.206	26
887.357	26.5
888.507	27
889.658	27
890.809	26
891.96	22.5
893.111	26
894.261	24
895.411	26
896.561	30
897.71	26.5
898.86	27
900.009	25
901.159	24.5
902.308	26
903.455	29.5
904.604	23.5
905.753	25.5
906.901	28
908.048	28.5
909.197	26.5
910.344	25.5
911.492	29
912.639	25
913.786	25.5
914.933	22
916.079	27.5
917.226	25.5
918.373	27.5
919.518	25
920.664	26
921.81	26
922.955	24
924.101	27.5
925.245	30
926.391	26.5
927.536	26.5
928.68	26
929.825	22.5
930.968	23.5
932.113	24.5
933.256	25
934.4	26.5
935.543	26
936.687	23
937.83	29
938.973	24
940.115	26.5
941.258	27
942.399	28
943.542	25.5
944.684	26.5
945.826	25.5
946.967	25.5
948.109	26
949.25	24.5
950.392	22.5
951.532	22.5
952.672	28.5
953.813	22.5
954.953	26.5
956.093	24
957.233	28.5
958.373	23
959.512	25.5
960.652	25.5
961.791	23.5
962.929	21
964.069	26.5
965.207	23.5
966.345	27
967.484	24.5
968.622	26.5
969.759	25
970.896	25.5
972.035	26
973.172	25
974.309	27.5
975.445	26.5
976.582	25.5
977.719	26.5
978.855	26
979.991	25.5
981.127	25
982.263	28.5
983.398	27.5
984.535	23.5
985.67	26.5
986.804	27.5
987.939	27.5
989.074	24
990.208	25
991.342	21
992.476	28
993.61	25
994.744	27
995.877	21.5
997.01	21
998.143	22
999.276	25
1000.41	22
1001.54	25
1002.67	24
1003.81	24
1004.94	23
1006.07	26.5
1007.2	22
1008.33	29
1009.47	22.5
1010.6	24
1011.73	26.5
1012.86	27.5
1013.99	22.5
1015.12	21.5
1016.25	26.5
1017.38	24.5
1018.51	26.5
1019.64	26
1020.77	25
1021.9	28.5
1023.03	25
1024.15	24.5
1025.28	26
1026.41	24.5
1027.54	24.5
1028.67	21
1029.8	23.5
1030.92	24
1032.05	26.5
1033.18	27
1034.31	28.5
1035.43	24
1036.56	25
1037.69	27.5
1038.81	22.5
1039.94	22.5
1041.07	26.5
1042.19	25
1043.32	27
1044.44	24.5
1045.57	26
1046.69	26
1047.82	24
1048.94	23.5
1050.07	26
1051.19	26
1052.32	23
1053.44	26
1054.57	25
1055.69	27
1056.81	26
1057.94	21.5
1059.06	23.5
1060.18	21
1061.31	24
1062.43	22.5
1063.55	26.5
1064.67	23
1065.8	23
1066.92	24
1068.04	23.5
1069.16	26.5
1070.28	25
1071.4	27
1072.52	24.5
1073.64	23
1074.76	22
1075.89	25
1077.01	25.5
1078.13	24
1079.25	26
1080.37	22.5
1081.49	25
1082.6	27
1083.72	23.5
1084.84	26
1085.96	22.5
1087.08	28
1088.2	26.5
1089.32	21
1090.43	26
1091.55	24.5
1092.67	23.5
1093.79	23.5
1094.91	23.5
1096.02	24.5
1097.14	26
1098.26	22.5
1099.37	19
1100.49	24.5
1101.61	25.5
1102.72	24.5
1103.84	23.5
1104.95	21.5
1106.07	22
1107.18	25.5
1108.3	22
1109.41	27
1110.53	28.5
1111.64	24
1112.76	24.5
1113.87	22.5
1114.99	24
1116.1	28
1117.21	23
1118.33	25
1119.44	24
1120.55	24.5
1121.67	23
1122.78	22.5
1123.89	22.5
1125	24.5
1126.12	24
1127.23	23.5
1128.34	26
1129.45	23
1130.56	23
1131.68	23
1132.79	26
1133.9	24
1135.01	23
1136.12	24
1137.23	27
1138.34	23.5
1139.45	21
1140.56	27.5
1141.67	24
1142.78	27.5
1143.89	25
1145	21
1146.11	25
1147.22	24
1148.32	20
1149.43	23
1150.54	23.5
1151.65	18
1152.76	22
1153.86	18.5
1154.97	22
1156.08	28.5
1157.19	28
1158.29	27
1159.4	24
1160.51	25
1161.61	25.5
1162.72	27
1163.83	26.5
1164.93	28.5
1166.04	25
1167.14	26
1168.25	27
1169.35	25
1170.46	21.5
1171.56	25.5
1172.67	26.5
1173.77	23.5
1174.88	25.5
1175.98	22
1177.08	24.5
1178.19	28
1179.29	19.5
1180.4	22
1181.5	19
1182.6	21.5
1183.71	25.5
1184.81	26.5
1185.91	25
1187.01	21.5
1188.12	20.5
1189.22	27
1190.32	23
1191.42	22.5
1192.52	26
1193.62	25
1194.72	23.9854
1195.83	23.9701
1196.93	20.126
1198.03	25.9422
1199.13	24.5138
1200.23	21.5621
1201.33	19.3635
1202.43	22.8973
1203.53	22.4225
1204.63	25.8622
1205.73	24.5665
1206.83	26.739
1207.92	23.6572
1209.02	24.5554
1210.12	22.4327
1211.22	25.839
1212.32	21.0801
1213.42	23.1602
1214.51	23.6431
1215.61	20.5895
1216.71	23.877
1217.81	24.4185
1218.9	22.7953
1220	23.598
1221.1	23.8577
1222.19	24.6802
1223.29	22.4685
1224.39	22.699
1225.48	25.2801
1226.58	28.2492
1227.68	22.1271
1228.77	23.6632
1229.87	22.3523
1230.96	22.3742
1232.06	22.0049
1233.15	23.2797
1234.25	21.9444
1235.34	21.1825
1236.43	21.4595
1237.53	23.2097
1238.62	24.7292
1239.72	22.2154
1240.81	23.209
1241.9	24.5777
1243	23.429
1244.09	22.5593
1245.18	23.4711
1246.27	24.7504
1247.37	22.0854
1248.46	23.2393
1249.55	23.9391
1250.64	23.3036
1251.74	24.9453
1252.83	24.2417
1253.92	24.5282
1255.01	22.7757
1256.1	23.0134
1257.19	22.461
1258.28	22.8264
1259.38	20.1004
1260.46	25.3869
1261.56	24.0464
1262.65	22.3893
1263.74	23.4935
1264.82	22.4328
1265.91	21.6359
1267	24.6692
1268.09	24.7789
1269.18	23.7435
1270.27	23.9039
1271.36	23.7837
1272.45	21.6749
1273.54	22.2961
1274.63	24.6838
1275.71	22.2598
1276.8	20.3943
1277.89	23.3164
1278.98	24.5694
1280.06	21.2711
1281.15	20.6632
1282.24	21.6832
1283.32	22.4879
1284.41	23.3095
1285.5	21.3646
1286.58	21.5932
1287.67	25.0063
1288.76	21.4213
1289.84	22.7331
1290.93	21.8783
1292.01	23.8006
1293.1	24.6349
1294.18	24.0447
1295.27	25.0735
1296.35	22.7899
1297.44	22.7498
1298.52	24.2501
1299.6	26.1175
1300.69	25.1351
1301.77	22.6688
1302.86	22.4218
1303.94	24.2748
1305.02	22.1348
1306.11	23.8708
1306.41	25
1307.5	22
1308.59	25.5
1309.68	26
1310.77	21.5
1311.85	22
1312.94	20.5
1314.03	20.5
1315.11	21
1316.2	27
1317.29	19.5
1318.37	26
1319.46	22
1320.55	24
1321.63	23
1322.72	21.5
1323.8	24
1324.89	21
1325.98	26
1327.06	24
1328.15	21
1329.23	23
1330.31	23
1331.4	23
1332.48	20
1333.57	23
1334.65	25
1335.74	22
1336.82	23.5
1337.9	28
1338.99	22.5
1340.07	24.5
1341.15	23.5
1342.24	26
1343.32	26
1344.4	24.5
1345.48	22.5
1346.56	23
1347.65	21.5
1348.73	24
1349.81	19.5
1350.89	22
1351.97	22.5
1353.05	25
1354.13	24
1355.21	20
1356.29	20.5
1357.37	22.5
1358.46	21
1359.54	26
1360.62	23
1361.69	23.5
1362.77	24
1363.85	26
1364.93	23
1366.01	22
1367.09	27
1368.17	21
1369.25	21.5
1370.33	26.5
1371.41	27.5
1372.48	23.5
1373.56	22.5
1374.64	23
1375.72	24
1376.79	20.5
1377.87	27
1378.95	26
1380.02	23
1381.1	22.5
1382.18	21.5
1383.25	25
1384.33	22
1385.4	22
1386.48	27
1387.56	26.5
1388.63	25
1389.71	25.5
1390.78	24
1391.86	24
1392.93	24.5
1394.01	18
1395.08	22
1396.15	22
1397.23	24.5
1398.3	24
1399.38	22
1400.45	24
1401.52	24
1402.6	25
1403.67	25
1404.74	17.5
1405.81	24
1406.89	25
1407.96	24.5
1409.03	23
1410.1	24
1411.17	25
1412.25	29.5
1413.32	23
1414.39	31.5
1415.46	26.5
1416.53	20.5
1417.6	22
1418.67	21
1419.74	22.5
1420.81	27
1421.88	25
1422.95	24
1424.02	22
1425.09	25.5
1426.16	27
1427.23	23.5
1428.3	29
1429.37	25.5
1430.44	23.5
1431.51	24.5
1432.58	23.5
1433.64	25
1434.71	22.5
1435.78	25.5
1436.85	21.5
1437.92	23.5
1438.98	22
1440.05	27
1441.12	26
1442.18	25
1443.25	22.5
1444.32	25.5
1445.38	25.5
1446.45	27
1447.52	24
1448.58	26
1449.65	24.5
1450.71	24
1451.78	24
1452.84	23.5
1453.91	23.5
1454.97	25.5
1456.04	23
1457.1	25
1458.17	22.5
1459.23	26.5
1460.3	25.5
1461.36	23
1462.42	21.5
1463.49	21.5
1464.55	25
1465.61	24.5
1466.68	24.5
1467.74	28.5
1468.8	22
1469.86	27
1470.93	16
1471.99	24.5
1473.05	27.5
1474.11	24.5
1475.17	22
1476.24	27
1477.3	25.5
1478.36	24
1479.42	24
1480.48	24.5
1481.54	21.5
1482.6	25.5
1483.66	24
1484.72	23
1485.78	25
1486.84	24.5
1487.9	25
1488.96	24
1490.02	19
1491.08	23
1492.14	29.5
1493.2	22
1494.26	23.5
1495.31	21
1496.37	25.5
1497.43	27
1498.49	23
1499.55	23
1500.6	27
1501.66	22
1502.72	24.5
1503.78	19.5
1504.83	25.5
1505.89	24.5
1506.95	24.5
1508	22
1509.06	25.5
1510.12	27.5
1511.17	25.5
1512.23	27.5
1513.28	24
1514.34	23.5
1515.39	24.5
1516.45	24.5
1517.5	25
1518.56	25.5
1519.61	25.5
1520.67	21
1521.72	24
1522.78	21.5
1523.83	23
1524.88	25
1525.94	23
1526.99	24
1528.05	21.5
1529.1	27.5
1530.15	24.5
1531.2	24.5
1532.26	21.5
1533.31	24
1534.36	26.5
1535.41	26.5
1536.47	24.5
1537.52	23
1538.57	23
1539.62	20.5
1540.67	25
1541.72	23
1542.77	24
1543.83	19
1544.88	26
1545.93	26
1546.98	21.5
1548.03	24.5
1549.08	28
1550.13	24
1551.18	24.5
1552.23	21
1553.28	24
1554.32	21.5
1555.37	26.5
1556.42	25.5
1557.47	27
1558.52	28.5
1559.57	22
1560.62	22
1561.67	21
1562.71	23
1563.76	24
1564.81	25.5
1565.86	23.5
1566.9	24
1567.95	24.5
1569	25.5
1570.04	25
1571.09	22
1572.14	22.5
1573.18	23
1574.23	18.5
1575.27	19.5
1576.32	23
1577.37	23
1578.41	26
1579.46	23.5
1580.5	25.5
1581.55	28.5
1582.59	26
1583.64	22
1584.68	27
1585.72	25.5
1586.77	24
1587.81	24
1588.86	26.5
1589.9	27.5
1590.94	25
1591.99	22
1593.03	26
1594.07	23
1595.12	25.5
1596.16	22.5
1597.2	24
1598.24	23.5
1599.29	23
1600.33	22
1601.37	23.5
1602.41	28
1603.45	25
1604.49	20
1605.53	27
1606.58	26
1607.62	23
1608.66	22
1609.7	19.5
1610.74	25
1611.78	25
1612.82	25
1613.86	23
1614.9	26.5
1615.94	27
1616.98	22.5
1618.02	23.5
1619.06	31
1620.09	26
1621.13	28
1622.17	26
1623.21	24
1624.25	21
1625.29	25
1626.32	25.5
1627.36	25
1628.4	26
1629.44	26
1630.47	25.5
1631.51	23
1632.55	23
1633.58	26.5
1634.62	23
1635.66	28.5
1636.69	21.5
1637.73	24.5
1638.77	28
1639.8	24
1640.84	25
1641.87	28
1642.91	27.5
1643.94	22
1644.98	19
1646.01	23
1647.05	25
1648.08	26
1649.12	26
1650.15	19.5
1651.18	26
1652.22	23
1653.25	23.5
1654.29	23
1655.32	25
1656.35	23
1657.39	25
1658.42	24
1659.45	22
1660.48	24
1661.52	23.5
1662.55	26
1663.58	20.5
1664.61	25
1665.64	20
1666.68	27.5
1667.71	24.5
1668.74	25
1669.77	21
1670.8	26
1671.83	24.5
1672.86	23.5
1673.89	27.5
1674.92	21
1675.95	24.5
1676.98	25
1678.01	23.5
1679.04	26.5
1680.07	24
1681.1	25
1682.13	22.5
1683.16	27
1684.19	24
1685.22	26.5
1686.25	28.5
1687.27	22.5
1688.3	24
1689.33	25
1690.36	23
1691.38	27
1692.41	25.5
1693.44	26.5
1694.47	27
1695.49	23
1696.52	23
1697.55	25.5
1698.57	24
1699.6	24
1700.63	23
1701.65	25
1702.68	23
1703.7	23
1704.73	27
1705.76	25
1706.78	24.5
1707.81	24
1708.83	29.5
1709.86	23.5
1710.88	24.5
1711.91	22
1712.93	27
1713.95	22
1714.98	25.5
1716	24.5
1717.03	22
1718.05	29
1719.07	24.5
1720.1	22
1721.12	23.5
1722.14	24.5
1723.16	25.5
1724.19	27
1725.21	23
1726.23	22.5
1727.25	25.5
1728.28	25
1729.3	26
1730.32	25
1731.34	27
1732.36	24
1733.38	23
1734.41	24
1735.43	26
1736.45	29
1737.47	25.5
1738.49	27
1739.51	27
1740.53	28
1741.55	22.5
1742.57	22
1743.59	22
1744.61	23.5
1745.63	28
1746.64	29.5
1747.66	25
1748.68	23
1749.7	24.5
1750.72	24
1751.74	26
1752.76	26
1753.77	23.5
1754.79	24
1755.81	21.5
1756.83	23
1757.84	24.5
1758.86	24
1759.88	19.5
1760.9	24
1761.91	22
1762.93	27
1763.95	25.5
1764.96	23.5
1765.98	23
1766.99	25.5
1768.01	25.5
1769.02	26
1770.04	24.5
1771.06	26
1772.07	25
1773.09	23.5
1774.1	25
1775.12	22.5
1776.13	24
1777.14	24
1778.16	25
1779.17	25.5
1780.19	24
1781.2	20.5
1782.21	26
1783.23	22
1784.24	24
1785.25	20.5
1786.27	26.5
1787.28	24.5
1788.29	27.5
1789.3	26.5
1790.32	24.5
1791.33	25
1792.34	20.5
1793.35	23
1794.36	24.5
1795.38	23
1796.39	23
1797.4	23
1798.41	25.5
1799.42	27.5
1800.43	25.5
1801.44	25
1802.45	22.5
1803.46	23
1804.47	27.5
1805.48	24
1806.49	23
1807.5	28
1808.51	19
1809.52	24
1810.53	25.5
1811.54	19
1812.55	27.5
1813.56	27
1814.57	24.5
1815.57	26.5
1816.58	23.5
1817.59	21.5
1818.6	24
1819.61	24
1820.61	22.5
1821.62	25
1822.63	25.5
1823.64	25
1824.64	20.5
1825.65	27
1826.66	23
1827.66	26.5
1828.67	23
1829.68	23.5
1830.68	22
1831.69	25.5
1832.69	24.5
1833.7	23.5
1834.7	24.5
1835.71	21
1836.71	24.5
1837.72	22.5
1838.72	24.5
1839.73	23
1840.73	21.5
1841.74	21.5
1842.74	28
1843.75	25
1844.75	27.5
1845.75	21.5
1846.76	21.5
1847.76	23
1848.76	24
1849.77	24
1850.77	27.5
1851.77	24
1852.78	26.5
1853.78	25
1854.78	28
1855.78	26
1856.78	28
1857.79	24
1858.79	25.5
1859.79	23.5
1860.79	27.5
1861.79	23.5
1862.79	24.5
1863.79	24.5
1864.79	22
1865.79	21
1866.8	26
1867.8	24
1868.8	24
1869.8	26.5
1870.8	27.5
1871.8	25
1872.8	24.5
1873.79	24.5
1874.79	25
1875.79	25
1876.79	25.5
1877.79	23.5
1878.79	26
1879.79	24
1880.79	23
1881.78	25
1882.78	26
1883.78	22.5
1884.78	24.5
1885.77	24
1886.77	23
1887.77	23.5
1888.77	26
1889.76	22
1890.76	25
1891.76	22.5
1892.75	21
1893.75	25
1894.75	23.5
1895.74	22
1896.74	24
1897.73	24
1898.73	26.5
1899.73	22
1900.72	25.5
1901.72	27.5
1902.71	21.5
1903.7	26.5
1904.7	23.5
1905.69	25
1906.69	21
1907.68	30
1908.68	26
1909.67	25
1910.66	28
1911.66	29
1912.65	22.5
1913.64	23.5
1914.64	24
1915.63	25.5
1916.62	23
1917.62	26.5
1918.61	24
1919.6	27.5
1920.59	26.5
1921.58	24.5
1922.58	25
1923.57	27.5
1924.56	23
1925.55	25.5
1926.54	27
1927.53	22
1928.52	25.5
1929.51	28.5
1930.51	27.5
1931.5	23
1932.49	24
1933.48	22
1934.47	27.5
1935.46	22
1936.45	24
1937.44	24
1938.42	28
1939.41	21
1940.4	23
1941.39	24
1942.38	25.5
1943.37	24
1944.36	24.5
1945.35	24
1946.33	22
1947.32	25
1948.31	26.75
1949.3	24.5
1950.29	22.5
1951.27	25.5
1952.26	25.5
1953.25	22.5
1954.23	23
1955.22	24
1956.21	26.5
1957.19	22
1958.18	26.5
1959.17	24.5
1960.15	26
1961.14	24.5
1962.13	25.5
1963.11	26.5
1964.1	21
1965.08	23
1966.07	24
1967.05	21
1968.04	22.5
1969.02	29
1970.01	28
1970.99	25
1971.97	22
1972.96	26
1973.94	19
1974.93	24
1975.91	22.5
1976.89	23
1977.88	24
1978.86	22.5
1979.84	20
1980.83	26.5
1981.81	20
1982.79	22
1983.77	24
1984.76	24
1985.74	23.5
1986.72	26.5
1987.7	26
1988.68	20
1989.67	23.5
1990.65	24.5
1991.63	25
1992.61	24.5
1993.59	22
1994.57	24
1995.55	24.5
1996.53	25.5
1997.51	22.5
1998.49	22
1999.47	23
2000.45	26
2001.43	24
2002.41	24.5
2003.39	23.5
2004.37	25.5
2005.35	20.5
2006.33	23
2007.31	23
2008.29	22
2009.26	23
2010.24	23
2011.22	23
2012.2	21
2013.18	22.5
2014.15	22
2015.13	23
2016.11	22
2017.09	21
2018.06	25
2019.04	23.5
2020.02	22
2021	24.5
2021.97	23
2022.95	25.5
2023.92	24
2024.9	22
2025.88	19
2026.85	26.5
2027.83	24
2028.8	25
2029.78	22
2030.75	20
2031.73	23.5
2032.7	21
2033.68	23
2034.65	25
2035.63	20.5
2036.6	20
2037.58	25
2038.55	22
2039.52	26
2040.5	24
2041.47	23
2042.45	21
2043.42	21
2044.39	25.5
2045.36	26
2046.34	19.5
2047.31	24.5
2048.28	24
2049.26	25
2050.23	20
2051.2	22.5
2052.17	22
2053.14	21
2054.12	26.5
2055.09	26.5
2056.06	24.5
2057.03	24
2058	23
2058.97	21.5
2059.94	21.5
2060.91	22
2061.88	22
2062.85	22.5
2063.82	20.5
2064.79	20.5
2065.76	24
2066.73	23.5
2067.7	23.5
2068.67	20.5
2069.64	26.5
2070.61	22
2071.58	20.5
2072.55	23
2073.52	20.5
2074.49	27.5
2075.45	22
2076.42	20
2077.39	23
2078.36	21.5
2079.33	23.5
2080.29	21
2081.26	22.5
2082.23	22
2083.2	19.5
2084.16	22
2085.13	20
2086.1	22
2087.06	26
2088.03	24
2089	21.5
2089.96	23
2090.93	21.5
2091.89	25.5
2092.86	25
2093.83	24.5
2094.79	23.5
2095.76	24.5
2096.72	23.5
2097.69	23
2098.65	22
2099.62	20.5
2100.58	25.5
2101.55	24
2102.51	22
2103.47	25.5
2104.44	20.5
2105.4	25
2106.36	22
2107.33	21.5
2108.29	22
2109.25	26
2110.22	25
2111.18	23.5
2112.14	20
2113.11	23.5
2114.07	22.5
2115.03	25.5
2115.99	23
2116.96	25
2117.92	23
2118.88	23
2119.84	24.5
2120.8	22.5
2121.76	25
2122.72	22.5
2123.68	25.5
2124.65	24
2125.61	23
2126.57	20.5
2127.53	25
2128.49	28
2129.45	19
2130.41	22.5
2131.37	19.5
2132.33	26
2133.29	20.5
2134.25	22.5
2135.21	26
2136.17	19.5
2137.12	23.5
2138.08	23
2139.04	26
2140	21
2140.96	21
2141.92	24
2142.88	21.9965
2143.83	21.9497
2144.79	22.0289
2145.75	26.4122
2146.71	17.682
2147.66	23.9664
2148.62	26.699
2149.58	20.982
2150.53	22.5209
2151.49	22.9189
2152.45	22.949
2153.4	22.9055
2154.36	22.4832
2155.32	23.4083
2156.27	23.9049
2157.23	19.796
2158.19	23.5
2159.14	25.0919
2160.1	22.678
2161.05	23.7382
2162.01	21.9516
2162.96	24.9811
2163.92	23.5575
2164.87	21.1603
2165.83	23.5448
2166.78	19.6238
2167.73	20.7028
2168.69	21.9922
2169.64	22.3284
2170.6	22.407
2171.55	22.3396
2172.5	20.15
2173.46	21.1428
2174.41	20.3951
2175.36	20.5625
2176.32	20.2439
2177.27	20.0373
2178.22	20.1909
2179.18	21.1542
2180.13	21.9007
2181.08	22.2761
2182.03	22.3945
2182.98	23.898
2183.94	23.2142
2184.89	21.8005
2185.84	23.7007
2186.79	22.731
2187.74	23.5821
2188.69	22.8708
2189.64	21.6052
2190.6	22.2115
2191.55	21.25
2192.5	21.7429
2193.45	24.1857
2194.4	22.1387
2195.35	22.7949
2196.3	21.1293
2197.25	21.162
2198.2	20.5192
2199.15	22.252
2200.1	20.423
2201.04	21.346
2201.99	23
2202.94	20.2293
2203.89	22.8019
2204.84	22.5708
2205.79	22.5942
2206.74	23.1374
2207.69	23.9606
2208.63	20.8324
2209.58	24.4325
2210.53	20.601
2211.48	21.9527
2212.43	21.1432
2213.37	23.86
2214.32	21.1781
2215.27	22.9697
2216.21	22.5299
2217.16	23.1531
2218.11	21.066
2219.05	21.3897
2220	24.0811
2220.95	22.3156
2221.89	24.1295
2222.84	20.8835
2223.78	19.2776
2224.73	21.947
2225.68	24.2242
2226.62	21.6394
2227.57	22.3548
2228.51	21.4704
2229.46	21.6439
2230.4	21.7746
2231.35	18.4023
2232.29	23.1563
2233.24	23.5143
2234.18	21.1666
2235.12	19.9389
2236.07	20.8596
2237.01	22.9027
2237.95	24.2563
2238.9	21.8251
2239.84	22.8988
2240.06	23.5
2241.01	22.5
2241.96	23
2242.91	28.5
2243.86	20
2244.8	22.5
2245.75	19
2246.7	20
2247.65	24.5
2248.59	26.5
2249.54	21
2250.49	23
2251.43	22
2252.38	20
2253.33	25.5
2254.27	22
2255.22	22.5
2256.16	20.5
2257.11	24
2258.06	22.5
2259	20
2259.95	23.5
2260.89	21.5
2261.84	19.5
2262.78	24
2263.73	23
2264.67	20
2265.62	24.5
2266.56	26.5
2267.5	25.5
2268.45	28
2269.39	24.5
2270.34	23.5
2271.28	19.5
2272.22	22.5
2273.17	19
2274.11	21.5
2275.05	20
2276	23.5
2276.94	23
2277.88	23.5
2278.82	23.5
2279.77	23
2280.71	22
2281.65	22
2282.59	22
2283.53	21.5
2284.48	22.5
2285.42	22
2286.36	28.5
2287.3	24.5
2288.24	23.5
2289.18	21
2290.12	21
2291.06	20
2292	22
2292.94	24
2293.89	24
2294.83	21
2295.77	24
2296.71	22.5
2297.65	23.5
2298.58	20
2299.52	25.5
2300.46	20.5
2301.4	23
2302.34	22.5
2303.28	22
2304.22	26
2305.16	25.5
2306.1	22
2307.03	19.5
2307.97	24.5
2308.91	24
2309.85	21.5
2310.79	21
2311.72	22
2312.66	25
2313.6	20.5
2314.54	23
2315.47	21
2316.41	23
2317.35	20
2318.28	22
2319.22	22.5
2320.16	24
2321.09	24
2322.03	23.5
2322.96	21
2323.9	20
2324.84	23
2325.77	27
2326.71	20
2327.64	24.5
2328.58	24
2329.51	20
2330.45	19
2331.38	23
2332.32	23
2333.25	24.5
2334.18	26
2335.12	21.5
2336.05	22
2336.99	23.5
2337.92	25.5
2338.85	21
2339.79	22.5
2340.72	25
2341.65	24.5
2342.59	20.5
2343.52	22
2344.45	19
2345.39	26.5
2346.32	18
2347.25	24
2348.18	22.5
2349.11	20.5
2350.05	23.5
2350.98	24
2351.91	23
2352.84	21.5
2353.77	21
2354.7	23
2355.64	24
2356.57	26
2357.5	23.5
2358.43	24.5
2359.36	23.5
2360.29	20
2361.22	20.5
2362.15	24.5
2363.08	23
2364.01	19
2364.94	21
2365.87	27
2366.8	24.5
2367.73	23.5
2368.66	23
2369.58	26
2370.51	25
2371.44	20
2372.37	20
2373.3	28
2374.23	26.5
2375.16	25.5
2376.08	25.5
2377.01	21.5
2377.94	23.5
2378.87	25.5
2379.8	24
2380.72	18.5
2381.65	25.5
2382.58	28
2383.5	20
2384.43	23
2385.36	23.5
2386.28	23
2387.21	22.5
2388.14	22
2389.06	25
2389.99	23
2390.91	23
2391.84	22
2392.77	24.5
2393.69	24.5
2394.62	25
2395.54	25
2396.47	24
2397.39	22
2398.32	22.5
2399.24	23.5
2400.16	22
2401.09	24
2402.01	23
2402.94	22.5
2403.86	23
2404.78	25
2405.71	24.5
2406.63	27
2407.56	22.5
2408.48	22
2409.4	19
2410.32	22
2411.25	25
2412.17	24.5
2413.09	19.5
2414.02	24
2414.94	24.5
2415.86	24.5
2416.78	25
2417.7	21
2418.63	22.5
2419.55	24
2420.47	24.5
2421.39	25
2422.31	18
2423.23	23
2424.15	24.5
2425.07	18.5
2425.99	26
2426.92	22
2427.84	23
2428.76	25
2429.68	25
2430.59	24.5
2431.51	22.5
2432.43	22.5
2433.35	22
2434.27	21.5
2435.19	20.5
2436.11	26.5
2437.03	23
2437.95	23.5
2438.87	23.5
2439.79	21
2440.71	26
2441.62	22.5
2442.54	21.5
2443.46	22.5
2444.38	20
2445.3	23
2446.21	21.5
2447.13	23.5
2448.05	22
2448.97	27.5
2449.88	24
2450.8	26
2451.72	21
2452.63	25
2453.55	26
2454.47	24.5
2455.38	21
2456.3	21.5
2457.21	24
2458.13	24
2459.05	23.5
2459.96	24.5
2460.88	22
2461.79	25
2462.71	23
2463.62	24
2464.54	23
2465.45	25
2466.37	23
2467.28	26.5
2468.2	27.5
2469.11	22.5
2470.02	24
2470.94	23.5
2471.85	26
2472.77	26
2473.68	27.5
2474.59	25
2475.51	24
2476.42	26
2477.33	22
2478.25	21
2479.16	23
2480.07	24
2480.98	26.5
2481.9	23
2482.81	26
2483.72	21.5
2484.63	26.5
2485.55	22.5
2486.46	25
2487.37	24.5
2488.28	25
2489.19	22.5
2490.1	22
2491.01	21
2491.92	24.5
2492.83	24
2493.74	23
2494.66	26.5
2495.57	24
2496.48	23.5
2497.39	25.5
2498.3	23
2499.21	21
2500.12	22.5
2501.03	25.5
2501.93	21
2502.84	24
2503.75	25.5
2504.66	20
2505.57	25
2506.48	25.5
2507.39	22
2508.3	23.5
2509.21	24
2510.11	25
2511.02	22.5
2511.93	25
2512.84	20
2513.75	20
2514.65	21.5
2515.56	22.5
2516.47	21.5
2517.37	23
2518.28	25.5
2519.19	24
2520.09	26
2521	25
2521.91	23
2522.81	25.5
2523.72	23.5
2524.63	21.5
2525.53	20.5
2526.44	26.5
2527.34	24.5
2528.25	24
2529.16	24
2530.06	28.5
2530.97	22
2531.87	20.5
2532.78	30
2533.68	20.5
2534.58	22.5
2535.49	24
2536.39	25.5
2537.3	26.5
2538.2	24
2539.11	22.5
2540.01	28
2540.91	23
2541.82	26
2542.72	27
2543.62	22.5
2544.53	25.5
2545.43	25.5
2546.33	23
2547.23	21
2548.14	23
2549.04	22.5
2549.94	25
2550.84	24
2551.75	24.5
2552.65	24
2553.55	26
2554.45	23
2555.35	25.5
2556.26	22
2557.16	25
2558.06	22
2558.96	26
2559.86	22.5
2560.76	25
2561.66	25.5
2562.56	22.5
2563.46	22
2564.36	23
2565.26	25
2566.16	25.5
2567.06	23
2567.96	24
2568.86	26
2569.76	24
2570.66	26.5
2571.56	24
2572.46	24.5
2573.36	23.5
2574.26	26.5
2575.16	23.5
2576.05	28
2576.95	21
2577.85	23
2578.75	24.5
2579.65	25
2580.54	26
2581.44	21.5
2582.34	21
2583.24	24.5
2584.13	28.5
2585.03	25
2585.93	22
2586.83	25.5
2587.72	24
2588.62	20.5
2589.52	22
2590.41	22
2591.31	28.5
2592.2	24
2593.1	25
2594	22.5
2594.89	24.5
2595.79	25
2596.68	22
2597.58	21
2598.47	24
2599.37	27
2600.26	26
2601.16	22
2602.05	26.5
2602.95	25
2603.84	24
2604.74	24.5
2605.63	27
2606.52	20
2607.42	25.5
2608.31	23
2609.21	20.5
2610.1	23.5
2610.99	30.5
2611.89	22.5
2612.78	23.5
2613.67	22
2614.56	25
2615.46	26
2616.35	23
2617.24	26.5
2618.13	23.5
2619.03	25.5
2619.92	24
2620.81	25
2621.7	22
2622.59	29
2623.49	23
2624.38	25.5
2625.27	25.5
2626.16	27
2627.05	25.5
2627.94	26
2628.83	25.5
2629.72	22
2630.61	24.5
2631.5	25
2632.39	26.5
2633.28	24
2634.17	21.5
2635.06	22.5
2635.95	20
2636.84	23
2637.73	23.5
2638.62	24
2639.51	26.5
2640.4	20
2641.29	24.5
2642.18	21.5
2643.07	18
2643.96	21
2644.84	22
2645.73	26.5
2646.62	25
2647.51	22.5
2648.4	23.5
2649.28	25
2650.17	23.5
2651.06	25.5
2651.95	23
2652.83	26.5
2653.72	27
2654.61	24.5
2655.49	22.5
2656.38	22
2657.27	24.5
2658.16	26
2659.04	23.5
2659.93	25.5
2660.81	26
2661.7	25
2662.59	24.5
2663.47	22.5
2664.36	24.5
2665.24	24.5
2666.13	25
2667.01	27.5
2667.9	22
2668.78	23
2669.67	22.5
2670.55	22.5
2671.44	23
2672.32	26
2673.21	24.5
2674.09	23.5
2674.97	23.5
2675.86	24
2676.74	27
2677.62	26.5
2678.51	23
2679.39	24.5
2680.27	23
2681.16	24.5
2682.04	25.5
2682.92	25
2683.81	25.5
2684.69	21.5
2685.57	26
2686.45	22.5
2687.34	26
2688.22	21
2689.1	23
2689.98	23.5
2690.86	24.5
2691.75	27.5
2692.63	24
2693.51	25
2694.39	22
2695.27	22.5
2696.15	23
2697.03	25
2697.91	23
2698.79	21.5
2699.67	26
2700.55	26
2701.43	21
2702.31	20
2703.19	24
2704.07	24.5
2704.95	26
2705.83	20
2706.71	20
2707.59	25
2708.47	23.5
2709.35	24.5
2710.23	21.5
2711.11	23
2711.99	23
2712.86	23.5
2713.74	23
2714.62	27
2715.5	22
2716.38	27
2717.26	27
2718.13	19.5
2719.01	26
2719.89	25
2720.77	23.5
2721.64	25.5
2722.52	25.5
2723.4	23
2724.27	25
2725.15	22.5
2726.03	24
2726.9	27
2727.78	27.5
2728.66	28
2729.53	26
2730.41	21
2731.28	28
2732.16	22.5
2733.03	25
2733.91	25
2734.79	25
2735.66	29
2736.54	22.5
2737.41	19.5
2738.29	22.5
2739.16	23.5
2740.03	25
2740.91	26.5
2741.78	20
2742.66	26
2743.53	20.5
2744.41	25
2745.28	23
2746.15	21.5
2747.03	24
2747.9	25.5
2748.77	24.5
2749.65	28
2750.52	20.5
2751.39	20
2752.27	20
2753.14	25
2754.01	26
2754.88	24
2755.75	23.5
2756.63	26.5
2757.5	26.5
2758.37	23
2759.24	25
2760.11	20.5
2760.99	23
2761.86	22.5
2762.73	29.5
2763.6	20
2764.47	23
2765.34	28
2766.21	26
2767.08	24
2767.95	22.5
2768.82	27.5
2769.69	24.5
2770.56	25.5
2771.43	25
2772.3	21
2773.17	25
2774.04	26.5
2774.91	23.5
2775.78	26.5
2776.65	28
2777.52	25
2778.39	24.5
2779.26	22.5
2780.13	25
2780.99	24.5
2781.86	24
2782.73	25
2783.6	20.5
2784.47	22
2785.34	20
2786.2	21
2787.07	24
2787.94	24
2788.81	26
2789.67	25
2790.54	24.5
2791.41	23
2792.27	20
2793.14	22
2794.01	22
2794.87	23
2795.74	22.5
2796.61	21
2797.47	21.5
2798.34	23
2799.21	22
2800.07	23
2800.94	25
2801.8	25.5
2802.67	20
2803.53	24.5
2804.4	22
2805.26	24.5
2806.13	28
2806.99	21
2807.86	23.5
2808.72	24.5
2809.59	25.5
2810.45	20.5
2811.32	22
2812.18	27
2813.04	20
2813.91	24
2814.77	25
2815.64	21.5
2816.5	23
2817.36	22
2818.22	20
2819.09	25.5
2819.95	26
2820.81	21
2821.68	24.5
2822.54	22.5
2823.4	23.5
2824.26	26.5
2825.13	23.5
2825.99	21
2826.85	24.5
2827.71	22.5
2828.57	21.5
2829.44	26.5
2830.3	19
2831.16	22
2832.02	20.5
2832.88	20
2833.74	23
2834.6	25
2835.46	23
2836.32	27
2837.18	22
2838.04	23.5
2838.9	25.5
2839.76	24.5
2840.62	22.5
2841.48	24
2842.34	22
2843.2	27
2844.06	20
2844.92	20.5
2845.78	23.5
2846.64	24.5
2847.5	18
2848.36	26
2849.22	24
2850.08	22
2850.93	24
2851.79	24.5
2852.65	23.5
2853.51	20.5
2854.37	21.5
2855.22	22.5
2856.08	27.5
2856.94	25.5
2857.8	25.5
2858.65	27.5
2859.51	21
2860.37	21.5
2861.23	24
2862.08	22.5
2862.94	27
2863.79	22.5
2864.65	20
2865.51	23
2866.36	27.5
2867.22	24
2868.08	21.5
2868.93	21.5
2869.79	23.5
2870.64	18
2871.5	24
2872.35	24
2873.21	25
2874.06	24
2874.92	22.5
2875.77	23
2876.63	22
2877.48	26.5
2878.34	19
2879.19	28
2880.05	24
2880.9	24
2881.76	25
2882.61	25
2883.46	24.5
2884.32	25
2885.17	22.5
2886.02	26.5
2886.88	22.5
2887.73	25.5
2888.58	22
2889.44	24
2890.29	23
2891.14	27
2891.99	24
2892.85	22.5
2893.7	23.5
2894.55	28
2895.4	22
2896.25	26.5
2897.11	24.5
2897.96	26.5
2898.81	22
2899.66	26
2900.51	25.5
2901.36	24
2902.21	27
2903.07	22.5
2903.92	24.5
2904.77	22.5
2905.62	24.5
2906.47	23
2907.32	26
2908.17	20
2909.02	22
2909.87	25.5
2910.72	25
2911.57	27.5
2912.42	20.5
2913.27	25
2914.12	26.5
2914.97	27
2915.81	24.5
2916.66	18
2917.51	25.5
2918.36	23
2919.21	18.5
2920.06	24.5
2920.91	24
2921.75	25
2922.6	23.5
2923.45	22
2924.3	23
2925.15	21
2925.99	24.5
2926.84	22
2927.69	23
2928.54	22
2929.38	22.5
2930.23	18.5
2931.08	21
2931.92	22.5
2932.77	22
2933.62	23.5
2934.46	24.5
2935.31	24
2936.16	26
2937	26
2937.85	24
2938.69	21
2939.54	20.5
2940.38	22
2941.23	20
2942.08	26.5
2942.92	24
2943.77	19
2944.61	23
2945.46	22.5
2946.3	25.5
2947.15	23
2947.99	24
2948.83	26
2949.68	19.5
2950.52	23
2951.37	23
2952.21	24.5
2953.05	23.5
2953.9	22.5
2954.74	24
2955.58	21
2956.43	21.5
2957.27	20.5
2958.11	22
2958.96	20
2959.8	23
2960.64	27
2961.48	21
2962.33	22.5
2963.17	25
2964.01	20
2964.85	22.5
2965.69	23
2966.54	22
2967.38	27
2968.22	21.5
2969.06	24.5
2969.9	24
2970.74	24
2971.58	27.4903
2972.43	20.9711
2973.27	21.1071
2974.11	21.544
2974.95	21.1649
2975.79	18.8471
2976.63	23.4812
2977.47	22.7396
2978.31	21.9726
2979.15	19.4046
2979.99	24.2405
2980.83	23.9301
2981.67	18.4568
2982.51	19.7621
2983.35	21.1307
2984.19	23.2743
2985.03	23.1918
2985.86	21.2857
2986.7	25.4424
2987.54	23.1001
2988.38	23.1151
2989.22	21.2618
2990.06	19.911
2990.9	24.4841
2991.73	21.116
2992.57	22.7822
2993.41	20.6395
2994.25	21.2729
2995.09	22.0898
2995.92	23.4498
2996.76	23.0607
2997.6	24.3376
2998.44	21.1202
2999.27	19.8447
3000.11	21.9667
3000.95	23.8855
3001.78	22.3766
3002.62	24.0277
3003.46	21.7569
3004.29	21.7405
3005.13	20.9865
3005.96	22.7439
3006.8	21.4945
3007.64	21.9442
3008.47	21.3695
3009.31	23.2019
3010.14	21.522
3010.98	21.3038
3011.81	19.9126
3012.65	19.5908
3013.48	19.3059
3014.32	23.5764
3015.15	23.0079
3015.99	22.0987
3016.82	19.5115
3017.66	22.2861
3018.49	20.7562
3019.33	20.3252
3020.16	21.4554
3020.99	22.3959
3021.83	23.4228
3022.66	21.6175
3023.5	22.7778
3024.33	21.9645
3025.16	22.0675
3026	21.1979
3026.83	21.3439
3027.66	19.5738
3028.49	21.1149
3029.33	20.7249
3030.16	19.5573
3030.99	19.3793
3031.83	21.8211
3032.66	20.0133
3033.49	21.2954
3034.32	19.5886
3035.15	21.9138
3035.99	23.6286
3036.82	22.6622
3037.65	20.144
3038.48	20.0028
3039.31	21.4277
3040.14	19.9091
3040.97	21.5789
3041.81	21.5546
3042.64	22.6122
3043.47	23.6419
3044.3	21.6824
3045.13	23.1312
3045.96	22.1431
3046.79	20.8241
3047.62	22.185
3048.45	22.39
3049.28	22.9226
3050.11	23.2327
3050.94	22.1147
3051.77	18.0572
3052.6	20.2037
3053.43	23.2191
3054.26	20.9113
3055.08	19.3151
3055.91	22.3759
3056.74	22.9927
3057.26	23
3058.09	24
3058.92	21.5
3059.76	22
3060.59	25
3061.42	21.5
3062.25	22
3063.09	24
3063.92	22
3064.75	25.5
3065.58	22.5
3066.42	24.5
3067.25	23.5
3068.08	23.5
3068.91	20
3069.74	19.5
3070.57	21
3071.41	17
3072.24	22.5
3073.07	20
3073.9	22.5
3074.73	25
3075.56	24
3076.39	24
3077.22	22.5
3078.05	22
3078.88	25.5
3079.71	22.5
3080.54	25.5
3081.37	23
3082.2	18.5
3083.03	24
3083.86	24.5
3084.69	23.5
3085.52	25
3086.35	21.5
3087.18	20.5
3088.01	20.5
3088.84	20
3089.67	22.5
3090.5	25
3091.32	19
3092.15	22
3092.98	22
3093.81	22
3094.64	22.5
3095.47	24
3096.29	21.5
3097.12	24.5
3097.95	19
3098.78	22.5
3099.6	21.5
3100.43	21.5
3101.26	21.5
3102.09	21
3102.91	24.5
3103.74	21.5
3104.57	22
3105.39	24.5
3106.22	21
3107.05	20.5
3107.87	24
3108.7	23
3109.52	19
3110.35	24.5
3111.18	22.5
3112	24.5
3112.83	23
3113.65	25.5
3114.48	21.5
3115.3	19.5
3116.13	21.5
3116.95	24
3117.78	21.5
3118.6	21.5
3119.43	22
3120.25	22.5
3121.08	21
3121.9	21
3122.72	22.5
3123.55	20
3124.37	25
3125.2	23.5
3126.02	20.5
3126.84	25
3127.67	18.5
3128.49	21
3129.31	21.5
3130.14	24
3130.96	21
3131.78	21
3132.61	21
3133.43	24
3134.25	22.5
3135.07	22.5
3135.89	24.5
3136.72	21.5
3137.54	25
3138.36	24
3139.18	22.5
3140	25.5
3140.83	24.5
3141.65	21.5
3142.47	23.5
3143.29	24.5
3144.11	21.5
3144.93	23
3145.75	25.5
3146.57	22
3147.4	22
3148.22	23.5
3149.04	25.5
3149.86	27.5
3150.68	19.5
3151.5	21.5
3152.32	21.5
3153.14	22
3153.96	24
3154.78	26.5
3155.59	20.5
3156.42	23
3157.23	20.5
3158.05	23.5
3158.87	25.5
3159.69	21
3160.51	23
3161.33	23.5
3162.15	17
3162.97	21
3163.78	22
3164.6	22.5
3165.42	23.5
3166.24	24.5
3167.06	20.5
3167.87	24
3168.69	25
3169.51	19.5
3170.33	22.5
3171.14	24.5
3171.96	24
3172.78	22.5
3173.6	21.5
3174.41	23.5
3175.23	27
3176.05	19
3176.86	24
3177.68	24
3178.5	25.5
3179.31	20.5
3180.13	26
3180.94	18.5
3181.76	26
3182.58	20
3183.39	24
3184.21	23
3185.02	25.5
3185.84	26.5
3186.65	26
3187.47	24
3188.28	23
3189.1	21.5
3189.91	24
3190.73	23.5
3191.54	25
3192.36	22
3193.17	25
3193.98	23.5
3194.8	23
3195.61	22.5
3196.43	21
3197.24	25
3198.05	24.5
3198.87	22
3199.68	24
3200.49	26.5
3201.31	23.5
3202.12	25
3202.93	22.5
3203.75	23
3204.56	20
3205.37	24
3206.18	24
3207	23
3207.81	21
3208.62	23.5
3209.43	23
3210.24	20
3211.06	22
3211.87	24.5
3212.68	25
3213.49	23
3214.3	22.5
3215.11	24.5
3215.92	21.5
3216.73	24
3217.55	23.5
3218.36	26.5
3219.17	22
3219.98	23
3220.79	25.5
3221.6	24.5
3222.41	26
3223.22	21
3224.03	24
3224.84	25
3225.65	26
3226.46	21
3227.27	21
3228.08	20.5
3228.89	23
3229.7	25
3230.5	27.5
3231.31	26.5
3232.12	25.5
3232.93	22.5
3233.74	25.5
3234.55	23.5
3235.36	22
3236.16	18.5
3236.97	26.5
3237.78	26
3238.59	26.5
3239.4	23
3240.2	22.5
3241.01	24.5
3241.82	21
3242.63	23
3243.43	21
3244.24	24.5
3245.05	24
3245.85	24.5
3246.66	22.5
3247.47	20.5
3248.27	25
3249.08	22.5
3249.89	24
3250.69	17.5
3251.5	22
3252.31	23
3253.11	28
3253.92	22.5
3254.72	25
3255.53	23.5
3256.33	25
3257.14	28
3257.94	23
3258.75	22
3259.55	21
3260.36	23.5
3261.16	25.5
3261.97	20
3262.77	24
3263.58	23.5
3264.38	25.5
3265.19	25.5
3265.99	20.5
3266.79	22.5
3267.6	24
3268.4	26.5
3269.21	25
3270.01	25
3270.81	23.5
3271.62	20.5
3272.42	22
3273.22	22
3274.03	23
3274.83	27.5
3275.63	23.5
3276.43	24.5
3277.24	22
3278.04	22.5
3278.84	26
3279.64	23
3280.45	22.5
3281.25	22.5
3282.05	23.5
3282.85	20.5
3283.65	23.5
3284.45	21
3285.26	22.5
3286.06	21
3286.86	25
3287.66	26
3288.46	22
3289.26	24.5
3290.06	24
3290.86	24
3291.66	27
3292.46	25
3293.26	20.5
3294.06	22.5
3294.86	21.5
3295.66	21.5
3296.46	27.5
3297.26	24.5
3298.06	21.5
3298.86	24.5
3299.66	23
3300.46	27
3301.26	28.5
3302.06	23
3302.86	23
3303.66	22
3304.46	23.5
3305.25	25.5
3306.05	25
3306.85	22
3307.65	22.5
3308.45	21
3309.25	24
3310.04	23.5
3310.84	25.5
3311.64	27.5
3312.44	26
3313.23	20.5
3314.03	23.5
3314.83	25
3315.63	21
3316.42	24
3317.22	25
3318.02	24.5
3318.81	26
3319.61	24.5
3320.41	22
3321.2	25.5
3322	25
3322.8	22
3323.59	20
3324.39	25.5
3325.18	24
3325.98	25
3326.78	21
3327.57	24
3328.37	24
3329.16	22
3329.96	23.5
3330.75	22.5
3331.55	20
3332.34	22.5
3333.14	22.5
3333.93	23
3334.73	25.5
3335.52	24.5
3336.31	24
3337.11	26
3337.9	25
3338.7	26.5
3339.49	21.5
3340.28	25
3341.08	23
3341.87	27
3342.66	26
3343.46	26
3344.25	24
3345.04	24
3345.84	22
3346.63	25
3347.42	23.5
3348.22	25.5
3349.01	24
3349.8	25
3350.59	28.5
3351.39	23.5
3352.18	27
3352.97	23
3353.76	27
3354.55	23.5
3355.35	26.5
3356.14	22.5
3356.93	22
3357.72	24
3358.51	22
3359.3	25.5
3360.09	27.5
3360.88	23.5
3361.67	20
3362.46	20
3363.26	23
3364.05	25
3364.84	24
3365.63	24
3366.42	23.5
3367.21	22.5
3368	25
3368.79	24
3369.58	20
3370.37	25
3371.15	22
3371.94	23.5
3372.73	23
3373.52	23
3374.31	25.5
3375.1	21.5
3375.89	22
3376.68	22
3377.47	22
3378.26	23.5
3379.04	24.5
3379.83	25
3380.62	22
3381.41	25.5
3382.2	22
3382.98	23.5
3383.77	25
3384.56	25
3385.35	22.5
3386.13	22
3386.92	21.5
3387.71	25
3388.5	27
3389.28	23
3390.07	22.5
3390.86	22
3391.64	22
3392.43	20
3393.22	28
3394	23.5
3394.79	25.5
3395.57	23
3396.36	22
3397.15	25
3397.93	25
3398.72	22
3399.5	26.5
3400.29	24
3401.07	27
3401.86	24.5
3402.65	24
3403.43	27.5
3404.21	22
3405	24.5
3405.78	26
3406.57	23
3407.35	26
3408.14	19
3408.92	23.5
3409.71	28.5
3410.49	23.5
3411.27	24
3412.06	22
3412.84	24
3413.62	26.5
3414.41	21.5
3415.19	22
3415.97	24
3416.76	24.5
3417.54	26
3418.32	25.5
3419.11	21.5
3419.89	26.5
3420.67	20
3421.46	23
3422.24	25.5
3423.02	24
3423.8	28
3424.58	24
3425.37	24
3426.15	26.5
3426.93	28.5
3427.71	23
3428.49	26
3429.27	22
3430.05	25
3430.84	23
3431.62	21.5
3432.4	22
3433.18	26
3433.96	22.5
3434.74	18.5
3435.52	22
3436.3	21
3437.08	26
3437.86	25.5
3438.64	24
3439.42	20.5
3440.2	23.5
3440.98	25.5
3441.76	22
3442.54	27
3443.32	25.5
3444.1	20
3444.88	24
3445.66	27
3446.44	21.5
3447.22	25
3448	28
3448.77	22
3449.55	25.5
3450.33	22.5
3451.11	22
3451.89	23.5
3452.67	24
3453.45	25
3454.22	25
3455	22
3455.78	25.5
3456.56	24
3457.33	20
3458.11	25
3458.89	21
3459.67	26
3460.44	21
3461.22	24.5
3462	21
3462.77	22.5
3463.55	25.5
3464.33	24.5
3465.1	27.5
3465.88	23.5
3466.66	25.5
3467.43	23.5
3468.21	24.5
3468.98	23
3469.76	28.5
3470.54	21.5
3471.31	18
3472.09	23
3472.86	25
3473.64	24
3474.41	24.5
3475.19	22.5
3475.96	26
3476.74	22
3477.51	23.5
3478.29	19
3479.06	23
3479.84	28.5
3480.61	22.5
3481.39	22
3482.16	22.5
3482.93	20
3483.71	29
3484.48	23.5
3485.25	25.5
3486.03	21.5
3486.8	23
3487.57	23
3488.35	22
3489.12	22
3489.89	21
3490.67	20
3491.44	25
3492.21	24.5
3492.99	24
3493.76	23
3494.53	25.5
3495.3	23
3496.08	26
3496.85	22.5
3497.62	24
3498.39	24.5
3499.16	24
3499.93	23.5
