#Acq. time (s)=	5
#Accumulations=	5
#Range (cm-¹)=	100...3500
#Windows=	4
#Autofocus=	Off
#AutoExposure=	Off
#Spike filter=	Multiple accum.
#Delay time (s)=	0
#Binning=	1
#Readout mode=	Signal
#DeNoise=	Off
#ICS correction=	Off
#Dark correction=	Off
#Inst. Process=	Off
#Instrument=	LabRAM HR Evol
#Detector=	Syncerity OE
#Objective=	x100_VIS
#Grating=	600 (500nm)
#ND Filter=	25%
#Laser=	633nm_Edge
#Hole=	100.021
#Range=	Visible
#Project=	verificaciones
#Sample=	at5
#Site=	lined
#Title=	bolusat5lined
#Remark=	
#Date=	13.01.2026 16:05
#Acquired=	13.01.2026 16:05:31
100.692	26
101.975	32
103.258	39
104.542	30.5
105.824	28.5
107.107	32
108.39	28
109.672	29
110.954	31.5
112.236	29.5
113.519	31.5
114.8	27.5
116.081	29.5
117.362	28
118.643	32.5
119.924	32.5
121.204	31
122.484	31
123.764	30.5
125.044	34
126.323	32
127.603	32
128.882	36
130.161	33
131.438	38.5
132.716	36
133.995	37
135.273	38
136.55	39
137.828	34
139.106	35
140.383	36
141.66	35.5
142.937	35
144.213	36.5
145.488	39
146.764	39.5
148.04	37
149.316	39.5
150.592	35.5
151.867	39.5
153.141	38.5
154.416	42
155.69	39
156.965	43
158.239	44
159.512	40
160.786	41.5
162.059	42.5
163.333	40.5
164.605	45.5
165.878	38
167.15	39
168.423	40.5
169.694	33
170.966	40
172.238	39.5
173.51	37
174.78	34
176.052	42
177.323	43
178.592	36
179.863	39
181.134	39
182.403	42
183.673	43
184.943	39
186.211	43.5
187.481	42.5
188.749	42.5
190.018	42.5
191.287	40
192.554	40
193.822	45.5
195.089	41
196.357	40.5
197.625	38.5
198.891	44
200.159	31
201.425	36.5
202.692	39.5
203.957	40.5
205.224	40
206.489	39
207.755	40.5
209.02	33
210.286	35.5
211.55	34
212.815	34.5
214.079	32
215.344	34
216.607	34.5
217.872	33
219.135	36
220.399	34
221.662	38
222.924	32.5
224.187	35
225.449	32.5
226.713	35.5
227.974	39
229.235	31.5
230.498	34.5
231.759	32
233.019	35
234.281	29
235.542	35
236.802	29
238.063	35.5
239.323	34.5
240.582	32.5
241.843	33.5
243.102	33
244.361	31
245.621	31
246.879	30
248.138	30
249.396	29.5
250.655	33.5
251.913	34.5
253.17	32.5
254.427	35
255.686	36
256.943	29
258.199	32
259.456	29
260.712	28.5
261.969	28
263.225	27.5
264.481	30
265.736	31
266.991	33.5
268.246	29
269.502	28
270.757	35
272.011	32
273.265	28
274.519	32.5
275.773	31.5
277.027	30
278.28	33.5
279.533	28.5
280.786	30.5
282.04	32
283.293	32
284.545	34
285.798	29.5
287.049	30
288.301	32.5
289.553	33.5
290.804	31.5
292.055	31
293.306	32
294.557	31.5
295.807	30
297.058	31
298.308	28
299.558	33
300.808	30.5
302.057	31
303.305	28
304.554	31
305.803	30.5
307.052	27
308.3	31.5
309.549	30.5
310.797	32
312.045	32.5
313.292	32
314.54	34
315.786	30.5
317.033	29
318.28	32
319.526	34
320.773	32
322.019	31
323.264	33.5
324.51	30.5
325.755	31
327.001	32
328.246	33
329.49	30
330.735	28.5
331.979	33
333.224	26
334.467	32
335.711	33
336.955	29.5
338.199	30
339.441	29.5
340.684	33
341.927	33
343.168	28.5
344.411	35
345.654	33
346.895	31
348.137	29.5
349.379	30
350.619	35.5
351.86	32
353.102	32.5
354.341	35.5
355.582	31
356.821	32
358.062	35
359.302	34.5
360.541	29
361.781	32
363.019	32
364.259	33.5
365.496	34.5
366.736	36
367.974	31
369.212	31
370.45	28.5
371.687	30
372.925	28
374.162	33
375.399	34.5
376.635	32
377.873	33.5
379.109	34.5
380.344	31.5
381.581	26.5
382.816	31.5
384.052	33
385.287	31
386.523	34.5
387.757	34
388.991	32
390.227	34
391.46	34
392.695	29
393.928	32.5
395.162	27
396.396	32
397.629	30
398.861	30.5
400.095	32.5
401.327	32.5
402.559	32.5
403.792	30.5
405.024	28.5
406.255	31.5
407.488	31
408.719	34.5
409.949	35.5
411.18	33.5
412.412	35
413.642	28.5
414.872	34.5
416.102	32
417.333	30.5
418.562	32
419.791	35.5
421.02	31.5
422.249	32
423.479	32
424.707	35
425.935	29
427.163	31.5
428.391	29.5
429.619	30.5
430.848	33.5
432.075	33.5
433.302	31
434.529	34.5
435.755	34.5
436.982	31.5
438.208	32
439.434	34
440.66	32
441.885	34
443.111	34
444.338	31
445.563	33
446.788	33
448.012	36
449.237	39.5
450.461	28
451.685	34.5
452.909	33
454.133	33
455.356	33
456.579	32
457.802	31
459.025	33
460.247	34
461.469	33
462.691	33
463.914	39
465.136	37
466.357	37
467.579	37.5
468.8	38.5
470.021	39
471.242	34.5
472.462	40
473.682	42.5
474.903	44.5
476.123	46
477.343	38
478.563	45
479.782	48
481	49
482.219	57
483.438	56.5
484.657	59
485.874	55
487.093	58
488.311	57.5
489.529	64
490.747	57.5
491.963	54.5
493.181	57.5
494.398	52
495.614	49
496.83	52
498.047	50
499.264	44.5
500.479	49.5
501.695	44.5
502.911	42
504.125	43.5
505.34	44
506.554	41.5
507.769	42
508.984	37
510.198	38.5
511.412	36.5
512.627	37.5
513.839	37.5
515.053	38
516.266	35
517.479	33.5
518.691	33.5
519.905	33
521.118	39.5
522.329	35
523.542	34
524.753	37
525.965	32
527.176	36.5
528.388	33.5
529.598	34
530.809	36.5
532.019	31.5
533.23	34
534.44	31
535.649	29
536.86	30.5
538.068	34.5
539.279	31.5
540.487	36
541.697	28
542.905	33
544.113	35.5
545.322	34.5
546.53	30
547.737	31.5
548.946	31
550.153	33.5
551.361	32.5
552.568	32
553.774	33.5
554.982	29
556.188	28.5
557.394	31.5
558.599	33
559.806	32.5
561.012	30
562.217	29
563.423	33.5
564.628	33
565.832	29
567.036	31
568.241	29.5
569.446	35.5
570.65	30
571.853	35
573.057	32
574.26	31
575.464	33
576.667	32.5
577.87	31.5
579.072	36
580.274	30.5
581.477	31
582.68	33
583.881	30.5
585.083	31.5
586.284	31.5
587.485	33
588.686	30.5
589.887	33.5
591.087	30.5
592.288	35
593.488	30.5
594.688	33.5
595.888	34.5
597.087	33.5
598.287	29.5
599.486	30.5
600.685	31.5
601.884	31.5
603.082	29.5
604.281	33.5
605.479	33
606.677	34
607.875	32
609.073	32.5
610.27	34
611.468	28.5
612.665	33
613.862	34.5
615.058	31
616.255	35
617.451	30.5
618.648	31.5
619.842	30
621.038	33
622.234	29.5
623.429	32.5
624.624	33
625.819	31.5
627.013	31
628.207	31
629.402	31.5
630.596	33
631.79	31
632.983	28
634.177	32.5
635.37	29
636.564	30.5
637.755	28.5
638.948	34.5
640.141	31
641.334	31
642.525	35.5
643.717	27.5
644.909	38
646.099	31
647.291	29
648.483	31
649.674	29.5
650.864	31.5
652.055	33.5
653.244	30
654.435	30
655.625	35.5
656.814	32.5
658.004	31
659.193	37
660.382	33
661.571	30
662.759	31.5
663.948	31
665.135	32
666.324	36
667.511	35
668.7	36.5
669.886	33
671.074	31
672.262	34.5
673.448	31
674.634	34.5
675.821	35
677.007	35.5
678.194	36
679.379	33
680.565	41
681.75	33
682.936	34.5
684.121	37
685.305	40.5
686.491	39
687.675	37
688.86	35.5
690.043	35
691.227	37
692.411	39
693.594	37
694.777	37.5
695.961	36
697.144	40
698.326	40.5
699.509	39.5
700.691	42
701.873	41.5
703.056	41.5
704.237	44.5
705.419	51.5
706.599	44
707.782	51
708.962	52
710.143	52
711.323	47.5
712.504	45.5
713.684	42.5
714.864	39
716.043	39
717.223	37
718.403	35.5
719.582	36.5
720.761	34.5
721.94	34.5
723.118	32
724.296	32
725.474	28
726.652	32.5
727.831	32
729.009	32
730.186	30
731.363	34
732.54	31.5
733.717	33.5
734.893	30
736.07	32.5
737.246	33.5
738.422	31.5
739.598	29.5
740.773	32
741.949	31
743.124	32
744.299	28
745.474	30
746.649	31
747.823	33.5
748.997	30.5
750.172	35.5
751.346	36
752.519	30
753.693	27.5
754.867	32
756.038	30
757.211	33
758.384	32.5
759.557	32
760.73	25
761.902	33
763.074	35
764.246	29.5
765.417	30.5
766.588	30
767.76	30
768.931	31
770.102	33.5
771.271	27
772.442	34.5
773.613	32
774.783	34
775.952	33
777.122	32.5
778.291	30
779.461	35.5
780.629	31
781.798	38.5
782.967	35.5
784.135	32
785.304	37.5
786.472	34
787.639	34
788.807	31.5
789.975	34.5
791.142	34.5
792.309	33
793.477	34
794.642	30
795.81	35
796.975	32.5
798.142	35
799.308	32.5
800.473	32.5
801.639	34
802.804	35.5
803.97	32
805.134	31.5
806.299	31
807.463	29
808.628	33
809.792	33
810.957	30.5
812.12	32
813.284	32
814.447	34.5
815.611	33
816.773	33
817.937	26.5
819.099	34
820.261	30
821.424	27.5
822.585	31
823.748	26.5
824.909	33
826.07	30
827.232	31
828.393	29
829.554	28
830.715	33
831.875	32
833.035	30
834.196	27.5
835.356	29
836.515	33
837.676	29.5
838.835	28.5
839.994	31
841.152	32.5
842.312	34
843.47	29.5
844.629	34.5
845.786	28
846.946	33.5
848.103	34
849.261	32
850.418	30.5
851.575	30
852.733	34
853.89	33
855.046	30
856.203	36
857.359	31
858.515	33
859.67	31.5
860.827	34
861.983	31
863.138	38
864.293	30
865.448	28.5
866.603	31
867.757	32.5
868.912	26
870.066	33
871.22	29
872.374	29
873.527	29.5
874.681	28
875.834	33.5
876.987	27.5
878.14	30.5
879.293	33
880.445	30.5
881.598	36
882.75	33
883.902	25.5
885.054	32.5
886.206	31.5
887.357	31.5
888.507	29.5
889.658	29
890.809	32.5
891.96	31
893.111	25
894.261	28
895.411	24
896.561	29.5
897.71	29
898.86	27
900.009	28.5
901.159	32
902.308	27
903.455	30.5
904.604	30.5
905.753	34
906.901	28
908.048	30.5
909.197	28
910.344	29
911.492	31
912.639	33
913.786	33
914.933	25.5
916.079	28
917.226	26
918.373	28
919.518	29.5
920.664	33
921.81	29
922.955	28
924.101	34
925.245	31
926.391	28.5
927.536	29
928.68	29
929.825	26.5
930.968	28
932.113	27.5
933.256	26
934.4	26.5
935.543	28
936.687	31.5
937.83	29
938.973	28
940.115	29
941.258	29
942.399	30
943.542	33
944.684	27.5
945.826	31
946.967	31.5
948.109	25.5
949.25	35
950.392	29.5
951.532	28
952.672	28.5
953.813	32.5
954.953	30.5
956.093	27.5
957.233	28
958.373	29.5
959.512	26
960.652	28.5
961.791	28
962.929	28.5
964.069	26.5
965.207	29
966.345	29
967.484	30
968.622	28
969.759	28
970.896	29.5
972.035	28
973.172	30.5
974.309	28.5
975.445	26
976.582	32.5
977.719	28
978.855	30.5
979.991	29
981.127	34
982.263	32
983.398	32.5
984.535	29
985.67	30
986.804	28
987.939	28
989.074	27
990.208	28
991.342	31
992.476	29.5
993.61	30
994.744	31
995.877	27.5
997.01	28
998.143	27
999.276	32
1000.41	28
1001.54	29
1002.67	30.5
1003.81	31
1004.94	30.5
1006.07	27
1007.2	30.5
1008.33	28.5
1009.47	32
1010.6	31.5
1011.73	31.5
1012.86	31.5
1013.99	26
1015.12	30
1016.25	30.5
1017.38	23
1018.51	29.5
1019.64	28
1020.77	24.5
1021.9	32
1023.03	32
1024.15	29
1025.28	28.5
1026.41	27.5
1027.54	28.5
1028.67	26.5
1029.8	30
1030.92	31
1032.05	26
1033.18	27
1034.31	28
1035.43	31
1036.56	34
1037.69	31.5
1038.81	31
1039.94	32
1041.07	30.5
1042.19	32.5
1043.32	31
1044.44	27.5
1045.57	32.5
1046.69	31
1047.82	28
1048.94	27.5
1050.07	27
1051.19	28.5
1052.32	22.5
1053.44	29
1054.57	28.5
1055.69	33
1056.81	30.5
1057.94	31.5
1059.06	28
1060.18	29
1061.31	31
1062.43	30.5
1063.55	25.5
1064.67	33
1065.8	28.5
1066.92	32
1068.04	30
1069.16	31.5
1070.28	27
1071.4	28
1072.52	30
1073.64	29
1074.76	28
1075.89	29
1077.01	26.5
1078.13	28
1079.25	30
1080.37	28
1081.49	25.5
1082.6	28
1083.72	27
1084.84	23.5
1085.96	29.5
1087.08	28
1088.2	30.5
1089.32	29
1090.43	28
1091.55	23.5
1092.67	33.5
1093.79	26
1094.91	26.5
1096.02	30
1097.14	27
1098.26	28.5
1099.37	27
1100.49	27
1101.61	28
1102.72	26
1103.84	26
1104.95	25
1106.07	28
1107.18	28
1108.3	25.5
1109.41	28
1110.53	27
1111.64	29.5
1112.76	32.5
1113.87	24
1114.99	31
1116.1	30
1117.21	24.5
1118.33	26
1119.44	24
1120.55	30
1121.67	27
1122.78	26
1123.89	28
1125	27.5
1126.12	24
1127.23	30.5
1128.34	26.5
1129.45	29
1130.56	26.5
1131.68	26
1132.79	25.5
1133.9	25.5
1135.01	29
1136.12	30
1137.23	26.5
1138.34	25.5
1139.45	27
1140.56	28
1141.67	21.5
1142.78	27
1143.89	27.5
1145	35.5
1146.11	22.5
1147.22	25
1148.32	23.5
1149.43	27.5
1150.54	26.5
1151.65	32.5
1152.76	27.5
1153.86	28
1154.97	30
1156.08	28
1157.19	28.5
1158.29	28
1159.4	26.5
1160.51	24
1161.61	30
1162.72	29.5
1163.83	29
1164.93	28.5
1166.04	27.5
1167.14	29
1168.25	28
1169.35	31
1170.46	27
1171.56	28
1172.67	26.5
1173.77	26
1174.88	29
1175.98	26
1177.08	27.5
1178.19	28.5
1179.29	31
1180.4	26
1181.5	25
1182.6	25
1183.71	29.5
1184.81	28.5
1185.91	30.5
1187.01	27
1188.12	23
1189.22	28.5
1190.32	23.5
1191.42	24.5
1192.52	25.5
1193.62	30
1194.72	28.4837
1195.83	26.9455
1196.93	29.9589
1198.03	27.5443
1199.13	27.443
1200.23	27.9365
1201.33	28.764
1202.43	24.3442
1203.53	29.9781
1204.63	26.3774
1205.73	28.2113
1206.83	28.9403
1207.92	23.9057
1209.02	24.2123
1210.12	23.4896
1211.22	29.4035
1212.32	27.4724
1213.42	25.9435
1214.51	22.8408
1215.61	27.9288
1216.71	26.0199
1217.81	24.2604
1218.9	30.7899
1220	25.1829
1221.1	24.4875
1222.19	30.6383
1223.29	24.934
1224.39	28.1877
1225.48	28.3932
1226.58	29.3816
1227.68	25.9741
1228.77	27.2146
1229.87	26.6825
1230.96	28.3797
1232.06	26.7508
1233.15	26.1487
1234.25	24.3694
1235.34	28.537
1236.43	26.7346
1237.53	25.562
1238.62	27.8292
1239.72	27.2985
1240.81	27.0027
1241.9	28.6432
1243	24.5725
1244.09	27.5567
1245.18	24.7809
1246.27	26.1581
1247.37	30.1185
1248.46	28.3673
1249.55	24.408
1250.64	25.4541
1251.74	27.7015
1252.83	27.9924
1253.92	25.9718
1255.01	27.4181
1256.1	26.1123
1257.19	25.8127
1258.28	27.3457
1259.38	28.055
1260.46	28.5327
1261.56	27.458
1262.65	25.1204
1263.74	24.4182
1264.82	29.4755
1265.91	27.4808
1267	27.8897
1268.09	27.0185
1269.18	26.114
1270.27	27.0823
1271.36	28.5166
1272.45	25.8218
1273.54	23.982
1274.63	25.8057
1275.71	26.5814
1276.8	25.2812
1277.89	25.9007
1278.98	26.9457
1280.06	27.882
1281.15	24.8717
1282.24	27.4281
1283.32	24.7263
1284.41	26.6872
1285.5	25.9171
1286.58	27.1215
1287.67	27.817
1288.76	25.0159
1289.84	27.7828
1290.93	24.1439
1292.01	28.223
1293.1	29.0742
1294.18	27.4668
1295.27	26.3126
1296.35	25.9764
1297.44	23.2714
1298.52	25.65
1299.6	24.1454
1300.69	24.1987
1301.77	26.4282
1302.86	27.0612
1303.94	26.2172
1305.02	25.2946
1306.11	28.2355
1306.41	29.5
1307.5	24
1308.59	24
1309.68	25.5
1310.77	25.5
1311.85	26
1312.94	25
1314.03	27.5
1315.11	29
1316.2	22
1317.29	26
1318.37	27
1319.46	23
1320.55	28
1321.63	29
1322.72	22
1323.8	29
1324.89	25
1325.98	26.5
1327.06	25.5
1328.15	29
1329.23	23
1330.31	25
1331.4	27
1332.48	24.5
1333.57	25
1334.65	27
1335.74	23.5
1336.82	28
1337.9	24
1338.99	27.5
1340.07	22.5
1341.15	24.5
1342.24	29
1343.32	25
1344.4	27
1345.48	27
1346.56	20
1347.65	25
1348.73	22.5
1349.81	24
1350.89	26
1351.97	23
1353.05	24.5
1354.13	23
1355.21	25.5
1356.29	22.5
1357.37	26.5
1358.46	28.5
1359.54	21
1360.62	29
1361.69	25
1362.77	25.5
1363.85	25
1364.93	25.5
1366.01	27
1367.09	27
1368.17	23
1369.25	27
1370.33	27.5
1371.41	26
1372.48	24
1373.56	25.5
1374.64	28.5
1375.72	30.5
1376.79	27
1377.87	25.5
1378.95	28.5
1380.02	25
1381.1	26
1382.18	24.5
1383.25	24.5
1384.33	22.5
1385.4	24
1386.48	27.5
1387.56	24
1388.63	21
1389.71	29
1390.78	25.5
1391.86	25
1392.93	30
1394.01	30
1395.08	29
1396.15	25
1397.23	27.5
1398.3	28
1399.38	30.5
1400.45	26.5
1401.52	30
1402.6	32
1403.67	34
1404.74	29.5
1405.81	26.5
1406.89	29.5
1407.96	30.5
1409.03	29
1410.1	32
1411.17	33.5
1412.25	31
1413.32	30
1414.39	34
1415.46	33.5
1416.53	27
1417.6	27.5
1418.67	34
1419.74	33
1420.81	28.5
1421.88	28.5
1422.95	30.5
1424.02	23
1425.09	29.5
1426.16	26
1427.23	27
1428.3	29
1429.37	26.5
1430.44	23.5
1431.51	29
1432.58	29.5
1433.64	29
1434.71	28
1435.78	29.5
1436.85	27
1437.92	28.5
1438.98	24.5
1440.05	29
1441.12	25
1442.18	28.5
1443.25	28.5
1444.32	29.5
1445.38	27.5
1446.45	25.5
1447.52	27.5
1448.58	29.5
1449.65	30.5
1450.71	27
1451.78	31.5
1452.84	26
1453.91	24.5
1454.97	21.5
1456.04	32
1457.1	27.5
1458.17	27.5
1459.23	23.5
1460.3	26
1461.36	25.5
1462.42	25.5
1463.49	29
1464.55	32.5
1465.61	24.5
1466.68	29
1467.74	27
1468.8	27
1469.86	26.5
1470.93	26
1471.99	28.5
1473.05	30.5
1474.11	28
1475.17	27.5
1476.24	29
1477.3	25.5
1478.36	27
1479.42	29
1480.48	29
1481.54	29
1482.6	25
1483.66	23
1484.72	26.5
1485.78	26.5
1486.84	25.5
1487.9	28
1488.96	28.5
1490.02	27.5
1491.08	27
1492.14	26
1493.2	27.5
1494.26	28
1495.31	27.5
1496.37	29
1497.43	25.5
1498.49	32
1499.55	28
1500.6	26
1501.66	26
1502.72	30
1503.78	26
1504.83	28
1505.89	28
1506.95	29
1508	24.5
1509.06	27
1510.12	28
1511.17	24
1512.23	29.5
1513.28	25
1514.34	26.5
1515.39	28
1516.45	26
1517.5	27.5
1518.56	26
1519.61	24
1520.67	25.5
1521.72	26
1522.78	23.5
1523.83	25.5
1524.88	29
1525.94	27
1526.99	25.5
1528.05	29.5
1529.1	24
1530.15	22.5
1531.2	31
1532.26	26
1533.31	28
1534.36	29
1535.41	27.5
1536.47	24.5
1537.52	26
1538.57	24
1539.62	27
1540.67	25.5
1541.72	29
1542.77	24.5
1543.83	29
1544.88	25.5
1545.93	28
1546.98	25
1548.03	25.5
1549.08	24
1550.13	26.5
1551.18	26
1552.23	28.5
1553.28	25
1554.32	23.5
1555.37	23
1556.42	27
1557.47	29
1558.52	31
1559.57	29
1560.62	26.5
1561.67	30
1562.71	27
1563.76	28.5
1564.81	27
1565.86	27
1566.9	25
1567.95	27
1569	29
1570.04	20
1571.09	25.5
1572.14	26.5
1573.18	25
1574.23	24
1575.27	27
1576.32	26
1577.37	26.5
1578.41	24.5
1579.46	28
1580.5	28.5
1581.55	25.5
1582.59	27.5
1583.64	25
1584.68	22
1585.72	28.5
1586.77	26.5
1587.81	23.5
1588.86	26
1589.9	25
1590.94	26
1591.99	25.5
1593.03	28.5
1594.07	27
1595.12	23
1596.16	26
1597.2	28.5
1598.24	26.5
1599.29	27.5
1600.33	28
1601.37	26.5
1602.41	26.5
1603.45	25
1604.49	26.5
1605.53	28
1606.58	23.5
1607.62	28
1608.66	29.5
1609.7	26
1610.74	25
1611.78	32
1612.82	31
1613.86	25.5
1614.9	24
1615.94	26
1616.98	26.5
1618.02	30.5
1619.06	22
1620.09	21.5
1621.13	28.5
1622.17	29.5
1623.21	28
1624.25	28
1625.29	30.5
1626.32	27
1627.36	24.5
1628.4	24.5
1629.44	25
1630.47	29
1631.51	28
1632.55	31
1633.58	27.5
1634.62	26.5
1635.66	28.5
1636.69	31
1637.73	26.5
1638.77	31
1639.8	31.5
1640.84	28.5
1641.87	24
1642.91	26.5
1643.94	31
1644.98	27
1646.01	24
1647.05	26
1648.08	30.5
1649.12	25
1650.15	26
1651.18	29
1652.22	26
1653.25	27
1654.29	28
1655.32	28
1656.35	25
1657.39	25
1658.42	20
1659.45	26
1660.48	25
1661.52	24
1662.55	26
1663.58	24.5
1664.61	24.5
1665.64	23.5
1666.68	30.5
1667.71	27
1668.74	24.5
1669.77	26
1670.8	24.5
1671.83	29
1672.86	28
1673.89	23
1674.92	25.5
1675.95	26.5
1676.98	25
1678.01	24
1679.04	27
1680.07	27
1681.1	27.5
1682.13	29.5
1683.16	26
1684.19	27
1685.22	25
1686.25	28
1687.27	28
1688.3	25
1689.33	24
1690.36	26
1691.38	28
1692.41	25.5
1693.44	29.5
1694.47	29
1695.49	22.5
1696.52	25
1697.55	25
1698.57	23.5
1699.6	25.5
1700.63	26.5
1701.65	26
1702.68	25
1703.7	29
1704.73	23.5
1705.76	27
1706.78	26
1707.81	22
1708.83	24.5
1709.86	28
1710.88	24
1711.91	27.5
1712.93	26.5
1713.95	27
1714.98	26.5
1716	25.5
1717.03	27.5
1718.05	29
1719.07	24
1720.1	28.5
1721.12	25
1722.14	30
1723.16	27.5
1724.19	26.5
1725.21	27
1726.23	26.5
1727.25	29
1728.28	28
1729.3	23
1730.32	24
1731.34	26
1732.36	25.5
1733.38	24.5
1734.41	24
1735.43	25
1736.45	19.5
1737.47	25
1738.49	22.5
1739.51	27
1740.53	23.5
1741.55	24.5
1742.57	27
1743.59	29.5
1744.61	29
1745.63	27
1746.64	26
1747.66	26.5
1748.68	25
1749.7	27.5
1750.72	27.5
1751.74	24.5
1752.76	27
1753.77	28.5
1754.79	31
1755.81	26
1756.83	27
1757.84	23.5
1758.86	28.5
1759.88	27
1760.9	25.5
1761.91	31
1762.93	24.5
1763.95	26.5
1764.96	27.5
1765.98	27.5
1766.99	24.5
1768.01	28.5
1769.02	30.5
1770.04	24
1771.06	25
1772.07	22
1773.09	27.5
1774.1	25
1775.12	26
1776.13	27
1777.14	24
1778.16	23
1779.17	24
1780.19	26.5
1781.2	24
1782.21	25
1783.23	29.5
1784.24	28.5
1785.25	27
1786.27	26.5
1787.28	24.5
1788.29	23
1789.3	24.5
1790.32	26.5
1791.33	25.5
1792.34	26.5
1793.35	24
1794.36	26.5
1795.38	24
1796.39	27.5
1797.4	24
1798.41	23.5
1799.42	31.5
1800.43	26.5
1801.44	29.5
1802.45	27.5
1803.46	26
1804.47	29
1805.48	23.5
1806.49	28
1807.5	25
1808.51	25
1809.52	22.5
1810.53	28
1811.54	24
1812.55	28
1813.56	22
1814.57	25
1815.57	27.5
1816.58	29
1817.59	27.5
1818.6	27
1819.61	28
1820.61	24.5
1821.62	28
1822.63	25
1823.64	24
1824.64	24.5
1825.65	24
1826.66	29
1827.66	25.5
1828.67	25
1829.68	28
1830.68	24.5
1831.69	27
1832.69	27.5
1833.7	27.5
1834.7	29
1835.71	28
1836.71	26
1837.72	28.5
1838.72	25.5
1839.73	25.5
1840.73	27.5
1841.74	25
1842.74	23.5
1843.75	23
1844.75	25
1845.75	25.5
1846.76	24
1847.76	24
1848.76	23
1849.77	25
1850.77	26.5
1851.77	24
1852.78	23
1853.78	27
1854.78	31
1855.78	26.5
1856.78	26
1857.79	24.5
1858.79	28.5
1859.79	27
1860.79	23
1861.79	24
1862.79	27
1863.79	27
1864.79	28.5
1865.79	25
1866.8	27
1867.8	27
1868.8	26.5
1869.8	29
1870.8	23
1871.8	25
1872.8	26.5
1873.79	25
1874.79	23.5
1875.79	25
1876.79	22
1877.79	26
1878.79	26
1879.79	26.5
1880.79	22
1881.78	26.5
1882.78	28.5
1883.78	22.5
1884.78	26.5
1885.77	27
1886.77	23.5
1887.77	29.5
1888.77	27
1889.76	24
1890.76	28
1891.76	23.5
1892.75	27.5
1893.75	21.5
1894.75	27
1895.74	22.5
1896.74	25.5
1897.73	19
1898.73	29.5
1899.73	25.5
1900.72	28.5
1901.72	27.5
1902.71	29
1903.7	28
1904.7	24.5
1905.69	25.5
1906.69	26
1907.68	28
1908.68	26.5
1909.67	23
1910.66	24
1911.66	27
1912.65	26.5
1913.64	26.5
1914.64	29
1915.63	24
1916.62	22.5
1917.62	25
1918.61	24
1919.6	24.5
1920.59	25.5
1921.58	20
1922.58	27
1923.57	25
1924.56	28
1925.55	25
1926.54	28.5
1927.53	21
1928.52	26.5
1929.51	26
1930.51	28
1931.5	28
1932.49	29
1933.48	28
1934.47	25
1935.46	26
1936.45	22.5
1937.44	26
1938.42	29
1939.41	27.5
1940.4	23.5
1941.39	26.5
1942.38	24
1943.37	23
1944.36	28
1945.35	26.5
1946.33	27
1947.32	27
1948.31	26.75
1949.3	25.5
1950.29	24
1951.27	24
1952.26	26.5
1953.25	31
1954.23	22
1955.22	23
1956.21	26.5
1957.19	23.5
1958.18	29
1959.17	23.5
1960.15	25
1961.14	25
1962.13	24
1963.11	26
1964.1	27.5
1965.08	23.5
1966.07	22.5
1967.05	24
1968.04	25
1969.02	29.5
1970.01	23.5
1970.99	19
1971.97	26.5
1972.96	26.5
1973.94	26
1974.93	24
1975.91	28
1976.89	28
1977.88	23.5
1978.86	26.5
1979.84	22.5
1980.83	22
1981.81	22.5
1982.79	24
1983.77	23.5
1984.76	23
1985.74	25.5
1986.72	24
1987.7	19.5
1988.68	22
1989.67	24
1990.65	25
1991.63	26.5
1992.61	24.5
1993.59	23.5
1994.57	27
1995.55	24.5
1996.53	30
1997.51	21.5
1998.49	29.5
1999.47	22
2000.45	26
2001.43	21.5
2002.41	28.5
2003.39	22.5
2004.37	23.5
2005.35	22.5
2006.33	24.5
2007.31	24.5
2008.29	21.5
2009.26	27
2010.24	28.5
2011.22	22.5
2012.2	22
2013.18	21
2014.15	24.5
2015.13	23
2016.11	25.5
2017.09	23
2018.06	22
2019.04	25
2020.02	26.5
2021	24.5
2021.97	26
2022.95	23
2023.92	27
2024.9	22
2025.88	21
2026.85	26.5
2027.83	25
2028.8	25.5
2029.78	26
2030.75	22.5
2031.73	23.5
2032.7	25
2033.68	24.5
2034.65	27
2035.63	18
2036.6	27
2037.58	24
2038.55	29.5
2039.52	22
2040.5	24.5
2041.47	23.5
2042.45	27.5
2043.42	26
2044.39	23.5
2045.36	28
2046.34	25
2047.31	20
2048.28	26
2049.26	23.5
2050.23	26.5
2051.2	25
2052.17	25
2053.14	25.5
2054.12	23.5
2055.09	24
2056.06	22.5
2057.03	24.5
2058	25
2058.97	23.5
2059.94	22
2060.91	27
2061.88	26
2062.85	21.5
2063.82	25
2064.79	24
2065.76	21
2066.73	23
2067.7	22
2068.67	25.5
2069.64	27
2070.61	28
2071.58	25.5
2072.55	25.5
2073.52	29.5
2074.49	27.5
2075.45	21.5
2076.42	24
2077.39	22
2078.36	21
2079.33	22
2080.29	28
2081.26	25.5
2082.23	26
2083.2	24.5
2084.16	20
2085.13	23
2086.1	25
2087.06	25
2088.03	25
2089	23.5
2089.96	21
2090.93	22
2091.89	27
2092.86	25.5
2093.83	26
2094.79	23.5
2095.76	28
2096.72	20
2097.69	22
2098.65	27
2099.62	22.5
2100.58	26
2101.55	22.5
2102.51	23
2103.47	26
2104.44	24
2105.4	20.5
2106.36	25.5
2107.33	22
2108.29	25
2109.25	26
2110.22	24.5
2111.18	23.5
2112.14	26
2113.11	26
2114.07	25
2115.03	24
2115.99	23
2116.96	23
2117.92	24
2118.88	25
2119.84	28.5
2120.8	23
2121.76	23
2122.72	25
2123.68	25.5
2124.65	24
2125.61	28.5
2126.57	21
2127.53	26
2128.49	24.5
2129.45	25
2130.41	20.5
2131.37	20
2132.33	23
2133.29	23.5
2134.25	24.5
2135.21	27
2136.17	23.5
2137.12	19.5
2138.08	28
2139.04	26
2140	27
2140.96	21.5
2141.92	24.5
2142.88	23.9854
2143.83	22.9832
2144.79	23.5222
2145.75	24.511
2146.71	22.971
2147.66	21.53
2148.62	25.5145
2149.58	24.3906
2150.53	22.4784
2151.49	23.0605
2152.45	22.3711
2153.4	23.8153
2154.36	23.0331
2155.32	23.0795
2156.27	25.2758
2157.23	23.1108
2158.19	20.4081
2159.14	23.9663
2160.1	26.2306
2161.05	24.009
2162.01	23.3518
2162.96	23.5855
2163.92	23.0901
2164.87	24.7935
2165.83	23.9279
2166.78	26.51
2167.73	25.9619
2168.69	20.4947
2169.64	23.2776
2170.6	26.4752
2171.55	24.2086
2172.5	21.7723
2173.46	26.3294
2174.41	25.0121
2175.36	25.5031
2176.32	23.4143
2177.27	23.2424
2178.22	23.7066
2179.18	22.8536
2180.13	22.7158
2181.08	22.3474
2182.03	22.6436
2182.98	24.7637
2183.94	23.6967
2184.89	20.9856
2185.84	25.4668
2186.79	22.6094
2187.74	24.1668
2188.69	24.0977
2189.64	21.2008
2190.6	24.7982
2191.55	25.1466
2192.5	20.2888
2193.45	23.2755
2194.4	23.4436
2195.35	27.186
2196.3	23.8714
2197.25	24.3374
2198.2	22.971
2199.15	20.3302
2200.1	19.5944
2201.04	20.1447
2201.99	22.9665
2202.94	22
2203.89	22.9763
2204.84	20.6901
2205.79	23.8233
2206.74	22.7931
2207.69	24.8205
2208.63	23.6145
2209.58	20.725
2210.53	22.3706
2211.48	22.6201
2212.43	22.7328
2213.37	22.1285
2214.32	23.4607
2215.27	21.5817
2216.21	23.8958
2217.16	24.4173
2218.11	21.7952
2219.05	21.7332
2220	23.027
2220.95	21.208
2221.89	22.9135
2222.84	23.6214
2223.78	23.8398
2224.73	22.7073
2225.68	24.6657
2226.62	25.7893
2227.57	24.8175
2228.51	24.2125
2229.46	22.5408
2230.4	21.7961
2231.35	22.6906
2232.29	27.7236
2233.24	27.876
2234.18	23.2718
2235.12	22.775
2236.07	24.4351
2237.01	24.966
2237.95	23.4631
2238.9	21.8775
2239.84	20.3568
2240.06	20
2241.01	26.5
2241.96	27
2242.91	23.5
2243.86	25
2244.8	22
2245.75	24.5
2246.7	23.5
2247.65	23.5
2248.59	24.5
2249.54	22
2250.49	24.5
2251.43	22
2252.38	22
2253.33	24.5
2254.27	23.5
2255.22	22.5
2256.16	23
2257.11	24
2258.06	22
2259	21.5
2259.95	21.5
2260.89	25
2261.84	22.5
2262.78	18
2263.73	23
2264.67	23
2265.62	26.5
2266.56	26.5
2267.5	21.5
2268.45	24
2269.39	19
2270.34	22
2271.28	25.5
2272.22	23.5
2273.17	26
2274.11	26
2275.05	20
2276	23.5
2276.94	25
2277.88	20
2278.82	23
2279.77	29
2280.71	25
2281.65	26.5
2282.59	26.5
2283.53	20
2284.48	27
2285.42	24.5
2286.36	21
2287.3	24
2288.24	25.5
2289.18	20
2290.12	23
2291.06	25
2292	26.5
2292.94	22.5
2293.89	24
2294.83	26
2295.77	26
2296.71	27
2297.65	22
2298.58	28
2299.52	24
2300.46	22
2301.4	20
2302.34	23
2303.28	24
2304.22	24
2305.16	21.5
2306.1	27.5
2307.03	21
2307.97	24
2308.91	23
2309.85	24
2310.79	26
2311.72	25.5
2312.66	23.5
2313.6	21.5
2314.54	25.5
2315.47	26.5
2316.41	23
2317.35	24.5
2318.28	24
2319.22	27
2320.16	25
2321.09	28
2322.03	22.5
2322.96	26
2323.9	22.5
2324.84	23.5
2325.77	23
2326.71	24.5
2327.64	28
2328.58	22
2329.51	25
2330.45	29
2331.38	24.5
2332.32	22.5
2333.25	25.5
2334.18	28
2335.12	24.5
2336.05	23.5
2336.99	23.5
2337.92	23.5
2338.85	23.5
2339.79	19.5
2340.72	25
2341.65	22.5
2342.59	23.5
2343.52	29
2344.45	22
2345.39	25.5
2346.32	23.5
2347.25	25.5
2348.18	26.5
2349.11	26.5
2350.05	23.5
2350.98	26.5
2351.91	26.5
2352.84	22.5
2353.77	24.5
2354.7	24
2355.64	22
2356.57	22
2357.5	21
2358.43	28
2359.36	25.5
2360.29	24.5
2361.22	26.5
2362.15	22.5
2363.08	22.5
2364.01	26
2364.94	24
2365.87	25
2366.8	23
2367.73	25
2368.66	26
2369.58	24
2370.51	24
2371.44	25.5
2372.37	26.5
2373.3	22
2374.23	22
2375.16	27
2376.08	24
2377.01	22
2377.94	26
2378.87	24.5
2379.8	24.5
2380.72	26
2381.65	21.5
2382.58	26
2383.5	23.5
2384.43	26.5
2385.36	26.5
2386.28	23.5
2387.21	23
2388.14	23.5
2389.06	24.5
2389.99	25
2390.91	23.5
2391.84	25
2392.77	29
2393.69	23.5
2394.62	23
2395.54	23.5
2396.47	20.5
2397.39	24.5
2398.32	20.5
2399.24	26
2400.16	24
2401.09	24.5
2402.01	24
2402.94	19
2403.86	25
2404.78	24.5
2405.71	24.5
2406.63	27.5
2407.56	25.5
2408.48	22.5
2409.4	23.5
2410.32	23.5
2411.25	24.5
2412.17	26
2413.09	24.5
2414.02	26.5
2414.94	24
2415.86	24.5
2416.78	26.5
2417.7	25
2418.63	21
2419.55	24
2420.47	25.5
2421.39	25
2422.31	24
2423.23	29.5
2424.15	23.5
2425.07	26
2425.99	24.5
2426.92	23
2427.84	28.5
2428.76	23.5
2429.68	21.5
2430.59	24
2431.51	28
2432.43	24.5
2433.35	23
2434.27	23.5
2435.19	24
2436.11	31
2437.03	26.5
2437.95	24
2438.87	25
2439.79	26.5
2440.71	27.5
2441.62	24.5
2442.54	29
2443.46	27.5
2444.38	23.5
2445.3	25
2446.21	23.5
2447.13	22
2448.05	23
2448.97	22
2449.88	24.5
2450.8	24
2451.72	27
2452.63	21.5
2453.55	21
2454.47	25
2455.38	23.5
2456.3	22.5
2457.21	27
2458.13	22.5
2459.05	22
2459.96	26
2460.88	26
2461.79	27
2462.71	24
2463.62	24
2464.54	25
2465.45	22
2466.37	24.5
2467.28	24.5
2468.2	26
2469.11	26
2470.02	25
2470.94	27.5
2471.85	26.5
2472.77	24
2473.68	24
2474.59	22.5
2475.51	26
2476.42	25
2477.33	26
2478.25	24.5
2479.16	26.5
2480.07	24
2480.98	21
2481.9	28
2482.81	26
2483.72	22.5
2484.63	26
2485.55	27
2486.46	22
2487.37	27.5
2488.28	24
2489.19	24
2490.1	28.5
2491.01	24.5
2491.92	26.5
2492.83	22.5
2493.74	23
2494.66	22
2495.57	26.5
2496.48	28
2497.39	22.5
2498.3	22.5
2499.21	25
2500.12	23
2501.03	20
2501.93	25.5
2502.84	23
2503.75	27
2504.66	25
2505.57	24
2506.48	25.5
2507.39	29
2508.3	28
2509.21	22
2510.11	26
2511.02	26
2511.93	28.5
2512.84	27
2513.75	23
2514.65	21
2515.56	22
2516.47	26
2517.37	24
2518.28	24
2519.19	21.5
2520.09	27.5
2521	25
2521.91	25.5
2522.81	24
2523.72	25
2524.63	22.5
2525.53	28
2526.44	25
2527.34	27
2528.25	25
2529.16	26.5
2530.06	22
2530.97	25.5
2531.87	26
2532.78	25.5
2533.68	24
2534.58	25.5
2535.49	22
2536.39	28
2537.3	26
2538.2	22.5
2539.11	25.5
2540.01	25.5
2540.91	22
2541.82	21
2542.72	24
2543.62	25.5
2544.53	24.5
2545.43	28
2546.33	22.5
2547.23	25
2548.14	26
2549.04	24.5
2549.94	25.5
2550.84	25
2551.75	26.5
2552.65	25.5
2553.55	24
2554.45	24.5
2555.35	23.5
2556.26	26
2557.16	25.5
2558.06	25.5
2558.96	28
2559.86	25
2560.76	27
2561.66	25
2562.56	23.5
2563.46	25.5
2564.36	22
2565.26	27
2566.16	22
2567.06	25.5
2567.96	19
2568.86	27
2569.76	25.5
2570.66	27.5
2571.56	29.5
2572.46	28
2573.36	26
2574.26	23
2575.16	20
2576.05	25.5
2576.95	26
2577.85	27
2578.75	28
2579.65	25
2580.54	26.5
2581.44	24.5
2582.34	22.5
2583.24	25
2584.13	26.5
2585.03	24
2585.93	29
2586.83	27
2587.72	23
2588.62	22.5
2589.52	25
2590.41	24.5
2591.31	23.5
2592.2	24
2593.1	24.5
2594	24
2594.89	25
2595.79	23.5
2596.68	27
2597.58	27
2598.47	26
2599.37	21.5
2600.26	28
2601.16	24.5
2602.05	24
2602.95	25
2603.84	26.5
2604.74	23
2605.63	28
2606.52	21
2607.42	29.5
2608.31	19
2609.21	21
2610.1	25
2610.99	23.5
2611.89	27.5
2612.78	25
2613.67	23.5
2614.56	26
2615.46	26
2616.35	25.5
2617.24	24
2618.13	24.5
2619.03	27.5
2619.92	24
2620.81	22.5
2621.7	25.5
2622.59	23.5
2623.49	26
2624.38	26
2625.27	26
2626.16	24
2627.05	27
2627.94	25
2628.83	27
2629.72	24.5
2630.61	25.5
2631.5	31
2632.39	22
2633.28	21.5
2634.17	26
2635.06	25
2635.95	25
2636.84	27
2637.73	28
2638.62	22
2639.51	24
2640.4	27
2641.29	22.5
2642.18	24
2643.07	25.5
2643.96	25
2644.84	22
2645.73	23
2646.62	26
2647.51	26
2648.4	26.5
2649.28	28
2650.17	22.5
2651.06	25.5
2651.95	24
2652.83	26
2653.72	25
2654.61	21.5
2655.49	25
2656.38	22
2657.27	30
2658.16	24.5
2659.04	25.5
2659.93	25
2660.81	27
2661.7	23.5
2662.59	25.5
2663.47	23.5
2664.36	27
2665.24	25
2666.13	27
2667.01	23.5
2667.9	24.5
2668.78	26.5
2669.67	22.5
2670.55	28.5
2671.44	25
2672.32	24.5
2673.21	25
2674.09	24
2674.97	25
2675.86	26
2676.74	26
2677.62	24.5
2678.51	24
2679.39	23.5
2680.27	26.5
2681.16	28
2682.04	26.5
2682.92	26
2683.81	27
2684.69	21
2685.57	23.5
2686.45	19
2687.34	25
2688.22	22
2689.1	27.5
2689.98	24
2690.86	24
2691.75	26
2692.63	21.5
2693.51	25
2694.39	25.5
2695.27	26.5
2696.15	24.5
2697.03	25.5
2697.91	22.5
2698.79	24.5
2699.67	27
2700.55	24.5
2701.43	28
2702.31	23.5
2703.19	30
2704.07	24.5
2704.95	21
2705.83	23.5
2706.71	25
2707.59	20
2708.47	26
2709.35	25
2710.23	26.5
2711.11	24
2711.99	25
2712.86	22.5
2713.74	26.5
2714.62	23
2715.5	25.5
2716.38	23.5
2717.26	23.5
2718.13	20
2719.01	27
2719.89	25
2720.77	24.5
2721.64	21.5
2722.52	25.5
2723.4	29
2724.27	23.5
2725.15	21.5
2726.03	24.5
2726.9	24
2727.78	27.5
2728.66	23.5
2729.53	21.5
2730.41	24
2731.28	28
2732.16	27.5
2733.03	25.5
2733.91	22.5
2734.79	27.5
2735.66	28
2736.54	24
2737.41	25
2738.29	26
2739.16	26
2740.03	24.5
2740.91	26.5
2741.78	26.5
2742.66	21.5
2743.53	22.5
2744.41	27
2745.28	25.5
2746.15	23.5
2747.03	27
2747.9	23.5
2748.77	23
2749.65	25.5
2750.52	25.5
2751.39	24.5
2752.27	23.5
2753.14	25
2754.01	28
2754.88	24
2755.75	24.5
2756.63	27
2757.5	21
2758.37	26.5
2759.24	26.5
2760.11	29.5
2760.99	25
2761.86	20
2762.73	22.5
2763.6	24.5
2764.47	25
2765.34	27
2766.21	26
2767.08	28
2767.95	28
2768.82	28
2769.69	27
2770.56	25
2771.43	20.5
2772.3	21.5
2773.17	22.5
2774.04	25.5
2774.91	25
2775.78	24
2776.65	26
2777.52	29.5
2778.39	23.5
2779.26	27
2780.13	23
2780.99	30
2781.86	25
2782.73	28.5
2783.6	28.5
2784.47	23
2785.34	24.5
2786.2	23
2787.07	22
2787.94	23
2788.81	23.5
2789.67	26
2790.54	23.5
2791.41	26.5
2792.27	21
2793.14	24
2794.01	23.5
2794.87	28
2795.74	29
2796.61	23.5
2797.47	24.5
2798.34	26
2799.21	26.5
2800.07	25.5
2800.94	27
2801.8	26
2802.67	25.5
2803.53	24.5
2804.4	27.5
2805.26	26
2806.13	28.5
2806.99	20
2807.86	25
2808.72	25.5
2809.59	26
2810.45	25
2811.32	25
2812.18	26.5
2813.04	26.5
2813.91	26.5
2814.77	24.5
2815.64	25
2816.5	27
2817.36	26.5
2818.22	22.5
2819.09	30.5
2819.95	26
2820.81	24
2821.68	25.5
2822.54	26
2823.4	30
2824.26	29
2825.13	31.5
2825.99	23.5
2826.85	25
2827.71	31
2828.57	25
2829.44	27
2830.3	27
2831.16	22.5
2832.02	25
2832.88	26.5
2833.74	26
2834.6	25
2835.46	30
2836.32	23.5
2837.18	23
2838.04	25.5
2838.9	28.5
2839.76	26.5
2840.62	28
2841.48	26
2842.34	24
2843.2	25
2844.06	25
2844.92	23
2845.78	26
2846.64	25
2847.5	25
2848.36	24
2849.22	27
2850.08	26.5
2850.93	29
2851.79	27
2852.65	29.5
2853.51	26.5
2854.37	27.5
2855.22	22
2856.08	25
2856.94	28
2857.8	26
2858.65	26.5
2859.51	26
2860.37	24.5
2861.23	25.5
2862.08	29.5
2862.94	25.5
2863.79	30
2864.65	25.5
2865.51	24.5
2866.36	27
2867.22	25
2868.08	26
2868.93	25
2869.79	28.5
2870.64	28
2871.5	25.5
2872.35	30
2873.21	27.5
2874.06	26.5
2874.92	30.5
2875.77	29
2876.63	30
2877.48	32.5
2878.34	29.5
2879.19	28.5
2880.05	33.5
2880.9	34
2881.76	30
2882.61	25
2883.46	33.5
2884.32	31.5
2885.17	37
2886.02	34
2886.88	37
2887.73	35
2888.58	37
2889.44	37
2890.29	42.5
2891.14	35
2891.99	40
2892.85	42.5
2893.7	38.5
2894.55	41
2895.4	44
2896.25	47
2897.11	53
2897.96	51
2898.81	47.5
2899.66	50.5
2900.51	56.5
2901.36	57
2902.21	63.5
2903.07	62.5
2903.92	63
2904.77	66
2905.62	66
2906.47	64.5
2907.32	69.5
2908.17	61
2909.02	62
2909.87	60.5
2910.72	58
2911.57	52.5
2912.42	54
2913.27	47.5
2914.12	46
2914.97	46.5
2915.81	45.5
2916.66	40.5
2917.51	37.5
2918.36	39
2919.21	38.5
2920.06	30.5
2920.91	35
2921.75	37.5
2922.6	33.5
2923.45	31
2924.3	34
2925.15	31
2925.99	29.5
2926.84	31
2927.69	32
2928.54	32.5
2929.38	32
2930.23	28.5
2931.08	25.5
2931.92	26
2932.77	24
2933.62	27
2934.46	32
2935.31	28.5
2936.16	22
2937	26.5
2937.85	25.5
2938.69	27
2939.54	26
2940.38	27
2941.23	26.5
2942.08	31.5
2942.92	29.5
2943.77	29
2944.61	31.5
2945.46	29
2946.3	27
2947.15	29
2947.99	33
2948.83	29.5
2949.68	26.5
2950.52	22
2951.37	34.5
2952.21	31
2953.05	26
2953.9	31
2954.74	32.5
2955.58	35.5
2956.43	30.5
2957.27	34.5
2958.11	37
2958.96	36
2959.8	34
2960.64	39.5
2961.48	42
2962.33	43.5
2963.17	42.5
2964.01	38
2964.85	45
2965.69	41.5
2966.54	42
2967.38	42
2968.22	39
2969.06	43
2969.9	38
2970.74	37
2971.58	34.9976
2972.43	39.8862
2973.27	37.5007
2974.11	34.6034
2974.95	31.5634
2975.79	30.8627
2976.63	27.2901
2977.47	33.659
2978.31	32.0827
2979.15	29.3336
2979.99	28.8193
2980.83	29.5116
2981.67	24.2874
2982.51	28.1814
2983.35	26.7917
2984.19	23.9428
2985.03	27.6117
2985.86	26.4865
2986.7	25.583
2987.54	28.8107
2988.38	26.3874
2989.22	24.815
2990.06	25.4271
2990.9	21.0918
2991.73	25.5512
2992.57	22.3974
2993.41	25.0347
2994.25	24.9438
2995.09	26.013
2995.92	26.6342
2996.76	23.1037
2997.6	24.5665
2998.44	25.7379
2999.27	25.0243
3000.11	24.0877
3000.95	26.2812
3001.78	23.7063
3002.62	25.0684
3003.46	23.0607
3004.29	23.1053
3005.13	24.6584
3005.96	23.5106
3006.8	23.6709
3007.64	25.1858
3008.47	26.9105
3009.31	25.4403
3010.14	20.9788
3010.98	22.404
3011.81	24.4611
3012.65	24.4357
3013.48	22.7027
3014.32	21.907
3015.15	23.5879
3015.99	22.0583
3016.82	21.9655
3017.66	21.9903
3018.49	23.3477
3019.33	21.7985
3020.16	21.284
3020.99	23.9363
3021.83	24.7509
3022.66	22.524
3023.5	23.5642
3024.33	24.6327
3025.16	23.8252
3026	23.5764
3026.83	22.9053
3027.66	21.8675
3028.49	22.579
3029.33	23.1156
3030.16	21.7146
3030.99	23.7594
3031.83	23.4908
3032.66	22.6933
3033.49	22.8888
3034.32	23.3023
3035.15	23.962
3035.99	23.092
3036.82	22.8827
3037.65	22.7282
3038.48	21.7571
3039.31	21.8029
3040.14	22.5853
3040.97	24.6787
3041.81	23.0566
3042.64	23.5447
3043.47	24.144
3044.3	22.1682
3045.13	22.1119
3045.96	23.3831
3046.79	24.558
3047.62	22.4479
3048.45	23.0109
3049.28	21.7574
3050.11	21.8198
3050.94	21.9499
3051.77	21.5947
3052.6	23.1334
3053.43	24.3794
3054.26	22.5971
3055.08	23.1777
3055.91	26.0184
3056.74	26.4571
3057.26	24
3058.09	23.5
3058.92	23.5
3059.76	24
3060.59	23
3061.42	21
3062.25	26.5
3063.09	26.5
3063.92	24
3064.75	23.5
3065.58	21.5
3066.42	22
3067.25	22.5
3068.08	24
3068.91	25.5
3069.74	24.5
3070.57	23
3071.41	22.5
3072.24	21.5
3073.07	24.5
3073.9	23
3074.73	21.5
3075.56	25.5
3076.39	20.5
3077.22	24.5
3078.05	17
3078.88	28
3079.71	23
3080.54	24
3081.37	24
3082.2	27
3083.03	23
3083.86	23
3084.69	25
3085.52	24.5
3086.35	24
3087.18	24
3088.01	23.5
3088.84	21.5
3089.67	22.5
3090.5	24
3091.32	21.5
3092.15	19
3092.98	16
3093.81	20.5
3094.64	24
3095.47	23
3096.29	28
3097.12	22
3097.95	19.5
3098.78	29.5
3099.6	23.5
3100.43	24.5
3101.26	26.5
3102.09	24
3102.91	24.5
3103.74	24.5
3104.57	21
3105.39	26
3106.22	24
3107.05	23.5
3107.87	24
3108.7	23
3109.52	25
3110.35	22
3111.18	26.5
3112	24.5
3112.83	20.5
3113.65	25
3114.48	22.5
3115.3	24
3116.13	20
3116.95	24
3117.78	25.5
3118.6	25
3119.43	25
3120.25	26.5
3121.08	25.5
3121.9	23.5
3122.72	17.5
3123.55	26
3124.37	23.5
3125.2	23.5
3126.02	25
3126.84	25
3127.67	22
3128.49	27
3129.31	19
3130.14	26.5
3130.96	24.5
3131.78	23.5
3132.61	26
3133.43	23
3134.25	26
3135.07	23.5
3135.89	22
3136.72	24
3137.54	23.5
3138.36	21
3139.18	21
3140	27
3140.83	23
3141.65	20.5
3142.47	21.5
3143.29	23
3144.11	24.5
3144.93	23
3145.75	20.5
3146.57	23.5
3147.4	19
3148.22	23.5
3149.04	22.5
3149.86	25.5
3150.68	25
3151.5	24.5
3152.32	21.5
3153.14	24
3153.96	22.5
3154.78	25
3155.59	22
3156.42	27.5
3157.23	24
3158.05	22
3158.87	22
3159.69	22.5
3160.51	27
3161.33	25
3162.15	24
3162.97	21.5
3163.78	25.5
3164.6	19
3165.42	23.5
3166.24	23.5
3167.06	20
3167.87	25
3168.69	22
3169.51	24.5
3170.33	20.5
3171.14	22
3171.96	23.5
3172.78	24.5
3173.6	18
3174.41	22.5
3175.23	25
3176.05	25
3176.86	22
3177.68	24
3178.5	23.5
3179.31	26
3180.13	29
3180.94	21.5
3181.76	23.5
3182.58	22.5
3183.39	22.5
3184.21	28
3185.02	22
3185.84	25
3186.65	24
3187.47	21
3188.28	24.5
3189.1	22.5
3189.91	20
3190.73	22
3191.54	23.5
3192.36	23.5
3193.17	24.5
3193.98	23.5
3194.8	21
3195.61	26
3196.43	22
3197.24	21.5
3198.05	23.5
3198.87	25.5
3199.68	21
3200.49	23
3201.31	23.5
3202.12	19.5
3202.93	28
3203.75	23.5
3204.56	23
3205.37	22
3206.18	23
3207	25
3207.81	23
3208.62	25
3209.43	23.5
3210.24	24.5
3211.06	22
3211.87	21
3212.68	21
3213.49	25.5
3214.3	23.5
3215.11	27.5
3215.92	25.5
3216.73	26
3217.55	25
3218.36	19.5
3219.17	22
3219.98	23
3220.79	28
3221.6	22
3222.41	19
3223.22	25
3224.03	25
3224.84	26.5
3225.65	20
3226.46	24
3227.27	24.5
3228.08	21
3228.89	26.5
3229.7	29.5
3230.5	27.5
3231.31	20.5
3232.12	22.5
3232.93	24
3233.74	25
3234.55	24.5
3235.36	24
3236.16	24
3236.97	24.5
3237.78	22.5
3238.59	18
3239.4	26.5
3240.2	24.5
3241.01	24.5
3241.82	25
3242.63	24
3243.43	23.5
3244.24	23
3245.05	23.5
3245.85	24.5
3246.66	24
3247.47	24
3248.27	24.5
3249.08	24
3249.89	27
3250.69	23.5
3251.5	23.5
3252.31	23.5
3253.11	25
3253.92	23
3254.72	24.5
3255.53	22
3256.33	22.5
3257.14	23
3257.94	26.5
3258.75	23.5
3259.55	24
3260.36	22
3261.16	26.5
3261.97	23.5
3262.77	26
3263.58	22
3264.38	24
3265.19	25
3265.99	24
3266.79	25
3267.6	28
3268.4	25
3269.21	26.5
3270.01	25.5
3270.81	22
3271.62	21
3272.42	23
3273.22	23
3274.03	24
3274.83	18.5
3275.63	24.5
3276.43	25
3277.24	26
3278.04	24
3278.84	25.5
3279.64	25
3280.45	23.5
3281.25	23
3282.05	23
3282.85	24
3283.65	24
3284.45	25
3285.26	25.5
3286.06	23
3286.86	22
3287.66	23
3288.46	26
3289.26	25
3290.06	25
3290.86	29
3291.66	26.5
3292.46	18
3293.26	24
3294.06	20.5
3294.86	25
3295.66	24
3296.46	26.5
3297.26	24.5
3298.06	27.5
3298.86	24.5
3299.66	22
3300.46	24.5
3301.26	23
3302.06	24
3302.86	25
3303.66	27
3304.46	18
3305.25	22
3306.05	21
3306.85	22.5
3307.65	25
3308.45	26.5
3309.25	25
3310.04	23
3310.84	24
3311.64	25.5
3312.44	25
3313.23	23.5
3314.03	23.5
3314.83	26
3315.63	26.5
3316.42	25
3317.22	23.5
3318.02	22
3318.81	23
3319.61	22.5
3320.41	26
3321.2	24
3322	26.5
3322.8	25
3323.59	25
3324.39	24
3325.18	18
3325.98	23.5
3326.78	23
3327.57	21.5
3328.37	23
3329.16	21
3329.96	22.5
3330.75	26
3331.55	25
3332.34	25
3333.14	24
3333.93	22
3334.73	24
3335.52	26.5
3336.31	23.5
3337.11	23.5
3337.9	26
3338.7	24
3339.49	26.5
3340.28	21.5
3341.08	26.5
3341.87	23
3342.66	24.5
3343.46	24
3344.25	23
3345.04	25
3345.84	28
3346.63	28.5
3347.42	28.5
3348.22	22.5
3349.01	24.5
3349.8	26
3350.59	22.5
3351.39	21.5
3352.18	25
3352.97	26
3353.76	22.5
3354.55	24.5
3355.35	26.5
3356.14	25
3356.93	24.5
3357.72	21.5
3358.51	27.5
3359.3	23.5
3360.09	19
3360.88	24.5
3361.67	25
3362.46	21
3363.26	27
3364.05	20
3364.84	19
3365.63	27
3366.42	24.5
3367.21	24
3368	25
3368.79	25
3369.58	23
3370.37	21
3371.15	21.5
3371.94	26
3372.73	24.5
3373.52	22
3374.31	26.5
3375.1	20.5
3375.89	28.5
3376.68	23.5
3377.47	26.5
3378.26	27.5
3379.04	25
3379.83	26
3380.62	25
3381.41	25.5
3382.2	23
3382.98	25
3383.77	23
3384.56	20
3385.35	21.5
3386.13	24
3386.92	24.5
3387.71	19.5
3388.5	27
3389.28	26
3390.07	24.5
3390.86	25.5
3391.64	21
3392.43	23.5
3393.22	26
3394	25
3394.79	28
3395.57	21.5
3396.36	22
3397.15	24.5
3397.93	24.5
3398.72	26.5
3399.5	24.5
3400.29	24
3401.07	22.5
3401.86	24.5
3402.65	26
3403.43	24.5
3404.21	25
3405	28
3405.78	26
3406.57	23
3407.35	21
3408.14	21
3408.92	26
3409.71	22
3410.49	25
3411.27	25.5
3412.06	26
3412.84	25
3413.62	26
3414.41	24.5
3415.19	22
3415.97	27
3416.76	26.5
3417.54	23.5
3418.32	23.5
3419.11	26
3419.89	24.5
3420.67	23.5
3421.46	20
3422.24	25.5
3423.02	20.5
3423.8	25
3424.58	25
3425.37	26
3426.15	27.5
3426.93	25
3427.71	23.5
3428.49	26.5
3429.27	26
3430.05	26.5
3430.84	23
3431.62	25.5
3432.4	23.5
3433.18	27
3433.96	23
3434.74	19
3435.52	23
3436.3	27
3437.08	25
3437.86	23.5
3438.64	24
3439.42	23.5
3440.2	21
3440.98	25.5
3441.76	23
3442.54	26.5
3443.32	22
3444.1	23
3444.88	24
3445.66	23.5
3446.44	22.5
3447.22	25
3448	22
3448.77	25
3449.55	25.5
3450.33	21
3451.11	25
3451.89	25.5
3452.67	25.5
3453.45	25.5
3454.22	24.5
3455	24.5
3455.78	25.5
3456.56	24
3457.33	23
3458.11	23
3458.89	24
3459.67	20
3460.44	24.5
3461.22	20
3462	23
3462.77	19.5
3463.55	24.5
3464.33	22.5
3465.1	26
3465.88	25
3466.66	24
3467.43	23
3468.21	21
3468.98	20
3469.76	22
3470.54	23
3471.31	23
3472.09	24
3472.86	19.5
3473.64	24.5
3474.41	21
3475.19	23.5
3475.96	25.5
3476.74	23
3477.51	25.5
3478.29	25
3479.06	24
3479.84	24.5
3480.61	23.5
3481.39	27
3482.16	21
3482.93	24.5
3483.71	23
3484.48	24
3485.25	25
3486.03	20
3486.8	25
3487.57	19
3488.35	24
3489.12	27
3489.89	26
3490.67	22.5
3491.44	23
3492.21	21.5
3492.99	26.5
3493.76	26
3494.53	24
3495.3	21
3496.08	22
3496.85	21
3497.62	24
3498.39	20
3499.16	24.5
3499.93	27
