#Acq. time (s)=	5
#Accumulations=	5
#Range (cm-¹)=	100...3500
#Windows=	4
#Autofocus=	Off
#AutoExposure=	Off
#Spike filter=	Multiple accum.
#Delay time (s)=	0
#Binning=	1
#Readout mode=	Signal
#DeNoise=	Off
#ICS correction=	Off
#Dark correction=	Off
#Inst. Process=	Off
#Instrument=	LabRAM HR Evol
#Detector=	Syncerity OE
#Objective=	x100_VIS
#Grating=	600 (500nm)
#ND Filter=	25%
#Laser=	633nm_Edge
#Hole=	100.021
#Range=	Visible
#Project=	verificaciones
#Sample=	at5
#Site=	lined
#Title=	bolusat5lined
#Remark=	
#Date=	13.01.2026 16:29
#Acquired=	13.01.2026 16:29:21
100.692	27
101.975	32
103.258	32
104.542	28
105.824	30.5
107.107	28
108.39	30.5
109.672	30.5
110.954	31
112.236	29
113.519	30.5
114.8	33
116.081	34.5
117.362	33
118.643	34
119.924	30.5
121.204	31
122.484	28
123.764	34
125.044	29.5
126.323	28.5
127.603	30.5
128.882	34
130.161	32
131.438	28
132.716	33
133.995	34
135.273	29.5
136.55	33.5
137.828	34
139.106	33
140.383	33
141.66	36
142.937	39
144.213	35
145.488	36
146.764	36.5
148.04	42
149.316	36.5
150.592	41.5
151.867	41
153.141	37
154.416	40.5
155.69	42
156.965	41.5
158.239	40
159.512	42
160.786	41
162.059	38
163.333	37.5
164.605	36
165.878	37
167.15	37
168.423	42
169.694	37.5
170.966	37
172.238	41.5
173.51	39
174.78	38
176.052	40
177.323	39
178.592	39.5
179.863	39
181.134	43
182.403	40.5
183.673	45
184.943	36.5
186.211	41.5
187.481	37.5
188.749	38
190.018	44.5
191.287	41
192.554	38
193.822	35.5
195.089	40.5
196.357	35.5
197.625	35
198.891	38
200.159	40
201.425	32.5
202.692	40.5
203.957	36.5
205.224	37
206.489	38
207.755	32.5
209.02	36
210.286	31
211.55	33.5
212.815	35
214.079	33
215.344	34
216.607	33
217.872	34
219.135	31
220.399	28.5
221.662	34
222.924	30
224.187	35.5
225.449	33
226.713	29.5
227.974	32.5
229.235	25
230.498	27.5
231.759	31.5
233.019	32
234.281	34.5
235.542	26.5
236.802	33
238.063	28.5
239.323	34
240.582	27
241.843	28
243.102	31
244.361	32
245.621	28
246.879	28.5
248.138	30.5
249.396	29.5
250.655	29
251.913	29
253.17	28
254.427	27.5
255.686	28
256.943	35.5
258.199	30.5
259.456	28
260.712	32
261.969	32.5
263.225	27.5
264.481	31
265.736	28.5
266.991	29
268.246	25
269.502	26.5
270.757	29.5
272.011	31.5
273.265	29.5
274.519	25
275.773	29
277.027	28
278.28	28
279.533	29
280.786	30
282.04	26
283.293	30
284.545	30
285.798	28.5
287.049	30
288.301	32
289.553	29
290.804	25.5
292.055	30
293.306	31.5
294.557	26.5
295.807	29.5
297.058	25
298.308	28
299.558	25
300.808	27
302.057	29
303.305	27.5
304.554	29.5
305.803	27
307.052	30
308.3	27.5
309.549	29
310.797	28.5
312.045	26
313.292	29.5
314.54	27
315.786	31
317.033	29
318.28	31
319.526	29.5
320.773	27
322.019	28.5
323.264	27.5
324.51	31
325.755	29
327.001	28.5
328.246	27
329.49	29
330.735	30.5
331.979	27
333.224	28
334.467	32.5
335.711	25.5
336.955	27.5
338.199	27.5
339.441	31.5
340.684	25
341.927	29
343.168	24
344.411	27.5
345.654	24
346.895	26.5
348.137	30.5
349.379	21.5
350.619	28.5
351.86	26
353.102	29
354.341	27.5
355.582	29
356.821	26
358.062	25.5
359.302	26.5
360.541	29
361.781	23.5
363.019	29.5
364.259	29.5
365.496	30
366.736	24
367.974	32.5
369.212	29
370.45	29.5
371.687	29
372.925	30
374.162	24
375.399	29
376.635	25.5
377.873	24
379.109	26.5
380.344	26.5
381.581	23
382.816	28.5
384.052	28
385.287	30
386.523	29
387.757	27
388.991	29
390.227	26.5
391.46	28.5
392.695	29.5
393.928	27
395.162	27
396.396	26
397.629	26
398.861	26.5
400.095	28
401.327	32
402.559	25
403.792	29
405.024	27
406.255	24
407.488	28
408.719	25.5
409.949	25
411.18	28
412.412	28
413.642	30
414.872	29.5
416.102	28
417.333	24
418.562	29
419.791	27.5
421.02	27
422.249	31.5
423.479	30
424.707	27.5
425.935	30
427.163	26
428.391	25.5
429.619	25
430.848	32
432.075	25.5
433.302	27.5
434.529	31.5
435.755	28
436.982	29
438.208	27.5
439.434	33.5
440.66	27.5
441.885	28.5
443.111	27.5
444.338	27.5
445.563	29.5
446.788	31.5
448.012	26
449.237	30.5
450.461	26
451.685	35
452.909	33
454.133	28
455.356	27
456.579	32
457.802	30
459.025	30.5
460.247	29.5
461.469	29
462.691	32
463.914	29
465.136	29.5
466.357	35.5
467.579	30.5
468.8	34
470.021	32
471.242	33.5
472.462	35.5
473.682	34.5
474.903	37
476.123	39
477.343	39
478.563	39.5
479.782	45.5
481	45.5
482.219	49.5
483.438	53
484.657	54
485.874	56
487.093	53.5
488.311	56
489.529	62
490.747	59
491.963	59
493.181	51.5
494.398	53.5
495.614	48
496.83	42.5
498.047	44.5
499.264	49.5
500.479	44.5
501.695	37
502.911	39
504.125	39
505.34	38.5
506.554	38.5
507.769	38.5
508.984	35.5
510.198	35
511.412	36
512.627	36
513.839	31
515.053	37
516.266	34
517.479	31
518.691	31
519.905	33
521.118	34
522.329	31
523.542	33.5
524.753	35
525.965	30
527.176	27.5
528.388	33.5
529.598	28.5
530.809	26.5
532.019	36.5
533.23	29.5
534.44	28
535.649	32
536.86	23.5
538.068	26
539.279	29.5
540.487	24.5
541.697	29
542.905	31
544.113	29
545.322	30
546.53	29.5
547.737	29.5
548.946	28.5
550.153	26
551.361	27.5
552.568	25
553.774	28.5
554.982	30
556.188	23.5
557.394	29.5
558.599	28
559.806	24
561.012	26.5
562.217	24
563.423	24
564.628	26.5
565.832	26
567.036	27
568.241	22
569.446	24
570.65	31.5
571.853	25
573.057	23.5
574.26	29
575.464	32.5
576.667	25.5
577.87	25
579.072	29.5
580.274	25
581.477	27
582.68	26
583.881	28
585.083	28.5
586.284	27.5
587.485	26
588.686	27.5
589.887	28.5
591.087	28
592.288	28.5
593.488	28
594.688	24.5
595.888	32.5
597.087	22
598.287	29
599.486	27.5
600.685	26
601.884	26.5
603.082	28.5
604.281	26.5
605.479	30.5
606.677	32
607.875	27
609.073	26.5
610.27	27
611.468	25
612.665	28
613.862	27
615.058	28
616.255	28
617.451	29.5
618.648	32
619.842	30
621.038	28
622.234	27
623.429	31
624.624	26
625.819	28
627.013	28
628.207	27
629.402	28.5
630.596	25.5
631.79	27
632.983	25.5
634.177	25
635.37	27.5
636.564	31
637.755	31.5
638.948	27
640.141	29.5
641.334	32
642.525	32
643.717	27
644.909	28.5
646.099	27.5
647.291	28.5
648.483	27.5
649.674	28
650.864	28
652.055	28.5
653.244	28.5
654.435	30.5
655.625	32
656.814	27.5
658.004	32
659.193	27.5
660.382	31.5
661.571	29.5
662.759	29
663.948	28
665.135	28
666.324	30
667.511	28.5
668.7	31
669.886	29
671.074	32.5
672.262	29
673.448	26.5
674.634	31
675.821	33
677.007	28
678.194	32
679.379	33.5
680.565	33
681.75	33.5
682.936	35.5
684.121	36
685.305	34
686.491	32.5
687.675	34.5
688.86	34.5
690.043	33
691.227	30
692.411	30
693.594	33
694.777	37
695.961	37.5
697.144	34
698.326	38
699.509	37
700.691	37.5
701.873	38
703.056	38
704.237	41.5
705.419	49
706.599	46
707.782	50
708.962	51.5
710.143	43.5
711.323	46.5
712.504	43
713.684	42.5
714.864	37.5
716.043	37.5
717.223	35
718.403	34
719.582	32.5
720.761	27.5
721.94	31.5
723.118	29
724.296	28.5
725.474	31
726.652	25
727.831	29.5
729.009	28
730.186	30.5
731.363	29
732.54	31
733.717	29.5
734.893	27
736.07	29
737.246	21
738.422	29
739.598	30
740.773	29.5
741.949	28
743.124	27
744.299	27
745.474	29.5
746.649	26
747.823	29.5
748.997	30
750.172	27.5
751.346	27
752.519	29
753.693	29
754.867	22
756.038	26
757.211	24.5
758.384	26
759.557	26.5
760.73	28
761.902	29
763.074	29
764.246	31
765.417	29.5
766.588	28.5
767.76	28
768.931	28.5
770.102	27.5
771.271	27.5
772.442	31
773.613	28.5
774.783	29
775.952	29.5
777.122	25.5
778.291	30
779.461	24.5
780.629	30.5
781.798	28
782.967	32.5
784.135	30
785.304	34
786.472	31
787.639	33
788.807	32.5
789.975	31
791.142	33
792.309	31
793.477	31
794.642	30
795.81	27.5
796.975	29.5
798.142	28
799.308	28.5
800.473	30
801.639	31
802.804	24
803.97	25.5
805.134	33
806.299	29.5
807.463	28
808.628	23.5
809.792	26
810.957	29.5
812.12	28
813.284	27
814.447	29.5
815.611	23
816.773	31.5
817.937	27.5
819.099	28.5
820.261	20.5
821.424	33
822.585	28.5
823.748	27.5
824.909	28
826.07	28
827.232	29
828.393	29
829.554	26
830.715	26.5
831.875	23.5
833.035	24
834.196	25.5
835.356	30
836.515	25
837.676	28
838.835	28.5
839.994	29
841.152	24.5
842.312	31.5
843.47	26
844.629	28.5
845.786	27.5
846.946	28.5
848.103	28.5
849.261	26
850.418	28
851.575	30.5
852.733	29.5
853.89	30
855.046	29.5
856.203	28
857.359	27
858.515	30.5
859.67	25
860.827	28.5
861.983	30
863.138	34
864.293	27.5
865.448	29.5
866.603	28.5
867.757	29.5
868.912	33.5
870.066	23
871.22	23.5
872.374	25.5
873.527	31
874.681	27.5
875.834	28.5
876.987	28.5
878.14	27.5
879.293	27.5
880.445	25
881.598	29
882.75	26.5
883.902	29
885.054	25.5
886.206	25.5
887.357	25.5
888.507	30
889.658	27
890.809	26.5
891.96	27
893.111	26
894.261	27
895.411	23
896.561	28.5
897.71	27
898.86	25.5
900.009	25
901.159	27
902.308	27
903.455	22.5
904.604	26.5
905.753	27.5
906.901	30
908.048	28.5
909.197	27
910.344	26
911.492	28
912.639	26
913.786	30
914.933	26
916.079	26.5
917.226	26
918.373	24
919.518	23
920.664	25.5
921.81	23
922.955	27
924.101	27
925.245	28
926.391	23
927.536	27
928.68	27.5
929.825	28
930.968	24.5
932.113	27
933.256	28.5
934.4	24
935.543	27.5
936.687	24
937.83	28.5
938.973	28
940.115	23.5
941.258	25.5
942.399	25
943.542	27
944.684	26
945.826	25.5
946.967	25.5
948.109	26
949.25	28
950.392	28
951.532	29
952.672	25.5
953.813	26
954.953	26.5
956.093	28
957.233	24.5
958.373	29
959.512	23
960.652	27.5
961.791	27
962.929	28
964.069	28
965.207	26.5
966.345	23
967.484	23.5
968.622	28
969.759	25.5
970.896	26.25
972.035	27
973.172	26.5
974.309	23.5
975.445	27.5
976.582	27.5
977.719	26
978.855	26
979.991	26
981.127	28.5
982.263	24.5
983.398	24
984.535	23
985.67	27
986.804	27
987.939	26
989.074	24
990.208	27.5
991.342	30
992.476	24.5
993.61	22
994.744	27.5
995.877	26.5
997.01	25
998.143	24
999.276	26
1000.41	25
1001.54	27
1002.67	23
1003.81	30
1004.94	28
1006.07	23
1007.2	28.5
1008.33	27.5
1009.47	23.5
1010.6	26.5
1011.73	29
1012.86	29.5
1013.99	24.5
1015.12	28
1016.25	23.5
1017.38	26.5
1018.51	24
1019.64	24
1020.77	23.5
1021.9	25.5
1023.03	27.5
1024.15	24
1025.28	25
1026.41	23
1027.54	26
1028.67	23.5
1029.8	25
1030.92	27.5
1032.05	28.5
1033.18	26.5
1034.31	28
1035.43	26
1036.56	25.5
1037.69	24.5
1038.81	29.5
1039.94	26.5
1041.07	25
1042.19	26.5
1043.32	25
1044.44	26
1045.57	27.5
1046.69	25
1047.82	22
1048.94	25.5
1050.07	22.5
1051.19	25
1052.32	25.5
1053.44	22.5
1054.57	24.5
1055.69	27
1056.81	26.5
1057.94	29
1059.06	27.5
1060.18	27
1061.31	25
1062.43	26
1063.55	25.5
1064.67	27
1065.8	29
1066.92	27.5
1068.04	23
1069.16	22
1070.28	24.5
1071.4	25
1072.52	29
1073.64	27
1074.76	27
1075.89	24
1077.01	25
1078.13	21
1079.25	26.5
1080.37	22
1081.49	27
1082.6	27.5
1083.72	22
1084.84	23
1085.96	28.5
1087.08	26.5
1088.2	25.5
1089.32	26
1090.43	24
1091.55	26.5
1092.67	26
1093.79	27
1094.91	23
1096.02	21.5
1097.14	27.5
1098.26	26.5
1099.37	27
1100.49	31.5
1101.61	25
1102.72	25.5
1103.84	24.5
1104.95	24.5
1106.07	25
1107.18	27.5
1108.3	26.5
1109.41	25
1110.53	27
1111.64	21
1112.76	23
1113.87	22.5
1114.99	26
1116.1	27
1117.21	24.5
1118.33	25.5
1119.44	22
1120.55	27.5
1121.67	27
1122.78	24
1123.89	24
1125	23.5
1126.12	21
1127.23	25.5
1128.34	27.5
1129.45	25.5
1130.56	22
1131.68	25
1132.79	25
1133.9	22
1135.01	26.5
1136.12	24.5
1137.23	26.5
1138.34	25.5
1139.45	26
1140.56	26
1141.67	26.5
1142.78	25.5
1143.89	29
1145	24
1146.11	22
1147.22	24
1148.32	24
1149.43	26
1150.54	25
1151.65	27
1152.76	23
1153.86	24
1154.97	24.5
1156.08	25.5
1157.19	22.5
1158.29	28
1159.4	28
1160.51	24.5
1161.61	24
1162.72	27
1163.83	29.5
1164.93	27
1166.04	21
1167.14	24
1168.25	25
1169.35	26
1170.46	23
1171.56	25
1172.67	27
1173.77	23.5
1174.88	23.5
1175.98	26
1177.08	22.5
1178.19	21
1179.29	26
1180.4	23
1181.5	24
1182.6	23.5
1183.71	21.5
1184.81	21
1185.91	26
1187.01	23
1188.12	21
1189.22	26
1190.32	28
1191.42	25.5
1192.52	24.5
1193.62	22
1194.72	23.0103
1195.83	20.9992
1196.93	23.0314
1198.03	22.0341
1199.13	26.772
1200.23	22.6335
1201.33	23.5772
1202.43	23.0823
1203.53	24.1824
1204.63	24.793
1205.73	26.2367
1206.83	24.8416
1207.92	27.5051
1209.02	23.9444
1210.12	20.5528
1211.22	23.914
1212.32	25.5525
1213.42	24.4548
1214.51	20.5412
1215.61	23.1993
1216.71	24.377
1217.81	24.6183
1218.9	26.8088
1220	24.4959
1221.1	22.9053
1222.19	22.5282
1223.29	25.7251
1224.39	24.3325
1225.48	21.0983
1226.58	27.7112
1227.68	23.4965
1228.77	25.868
1229.87	24.5437
1230.96	23.3495
1232.06	23.7147
1233.15	21.6989
1234.25	24.7763
1235.34	21.8308
1236.43	21.3059
1237.53	23.8783
1238.62	26.1194
1239.72	24.4099
1240.81	25.508
1241.9	24.6737
1243	22.2221
1244.09	25.3814
1245.18	23.4083
1246.27	24.9259
1247.37	25.3345
1248.46	21.1922
1249.55	25.6749
1250.64	23.5459
1251.74	24.9827
1252.83	28.4646
1253.92	26.0429
1255.01	27.0616
1256.1	25.9029
1257.19	27.1123
1258.28	28.4264
1259.38	22.2417
1260.46	25.3429
1261.56	24.3732
1262.65	26.333
1263.74	24.3686
1264.82	24.1279
1265.91	25.0922
1267	26.492
1268.09	25.4379
1269.18	24.5404
1270.27	24.3532
1271.36	22.5992
1272.45	23.9846
1273.54	25.376
1274.63	21.1629
1275.71	24.9613
1276.8	21.8542
1277.89	22.6013
1278.98	24.3023
1280.06	23.4381
1281.15	22.2163
1282.24	21.9323
1283.32	21.1167
1284.41	23.5434
1285.5	25.2535
1286.58	22.8573
1287.67	25.575
1288.76	26.3497
1289.84	25.8228
1290.93	24.5399
1292.01	24.7831
1293.1	24.9619
1294.18	23.0697
1295.27	22.449
1296.35	22.4764
1297.44	21.5519
1298.52	21.6766
1299.6	23.8546
1300.69	26.0712
1301.77	26.5595
1302.86	26.0612
1303.94	23.9309
1305.02	22.9854
1306.11	22.2756
1306.41	22
1307.5	23
1308.59	27
1309.68	28
1310.77	21.5
1311.85	25
1312.94	26.5
1314.03	25
1315.11	22.5
1316.2	28
1317.29	22
1318.37	26.5
1319.46	25
1320.55	22
1321.63	24.5
1322.72	22
1323.8	25
1324.89	27
1325.98	27
1327.06	25
1328.15	21
1329.23	26
1330.31	22
1331.4	23.5
1332.48	26
1333.57	18.5
1334.65	24
1335.74	27
1336.82	22
1337.9	23.5
1338.99	31
1340.07	25
1341.15	22.5
1342.24	26
1343.32	26
1344.4	26
1345.48	23.5
1346.56	24
1347.65	24
1348.73	22.5
1349.81	25.5
1350.89	23
1351.97	26
1353.05	27
1354.13	25.5
1355.21	28
1356.29	23
1357.37	25.5
1358.46	26.5
1359.54	24
1360.62	22
1361.69	24
1362.77	24.5
1363.85	23
1364.93	24
1366.01	23
1367.09	23.5
1368.17	24.5
1369.25	26
1370.33	26.5
1371.41	23
1372.48	23.5
1373.56	22
1374.64	26.5
1375.72	21.5
1376.79	21.5
1377.87	21.5
1378.95	27.5
1380.02	23
1381.1	27.5
1382.18	22
1383.25	23.5
1384.33	23
1385.4	25
1386.48	25.5
1387.56	25.5
1388.63	24.5
1389.71	27.5
1390.78	26.5
1391.86	26
1392.93	25
1394.01	23.5
1395.08	27
1396.15	31.5
1397.23	26
1398.3	25.5
1399.38	28.5
1400.45	28.5
1401.52	27.5
1402.6	29
1403.67	31.5
1404.74	29.5
1405.81	31.5
1406.89	26
1407.96	32
1409.03	32
1410.1	31
1411.17	30
1412.25	30
1413.32	29.5
1414.39	35.5
1415.46	32.5
1416.53	31
1417.6	28
1418.67	27
1419.74	26.5
1420.81	27.5
1421.88	29.5
1422.95	30
1424.02	25
1425.09	28
1426.16	30.5
1427.23	26.5
1428.3	30
1429.37	27
1430.44	26.5
1431.51	31.5
1432.58	25
1433.64	28
1434.71	20
1435.78	26.5
1436.85	29
1437.92	25.5
1438.98	24.5
1440.05	27.5
1441.12	23
1442.18	26
1443.25	24.5
1444.32	29
1445.38	22.5
1446.45	26
1447.52	25.5
1448.58	26.5
1449.65	25.5
1450.71	24
1451.78	24
1452.84	25.5
1453.91	26
1454.97	27
1456.04	26
1457.1	26.5
1458.17	23
1459.23	18
1460.3	25
1461.36	26
1462.42	25
1463.49	24
1464.55	25
1465.61	25
1466.68	25.5
1467.74	31
1468.8	26.5
1469.86	22
1470.93	27.5
1471.99	23.5
1473.05	25
1474.11	23.5
1475.17	24.5
1476.24	28
1477.3	25
1478.36	27
1479.42	23
1480.48	27
1481.54	27
1482.6	27
1483.66	24
1484.72	26.5
1485.78	27.5
1486.84	25
1487.9	26
1488.96	25
1490.02	26.5
1491.08	25
1492.14	24
1493.2	23.5
1494.26	29
1495.31	28
1496.37	18.5
1497.43	25
1498.49	22
1499.55	26
1500.6	28
1501.66	27
1502.72	26
1503.78	24
1504.83	23.5
1505.89	25
1506.95	25
1508	24.5
1509.06	29
1510.12	23
1511.17	28.5
1512.23	28.5
1513.28	22.5
1514.34	23
1515.39	24.5
1516.45	23
1517.5	24.5
1518.56	23.5
1519.61	25.5
1520.67	23
1521.72	24
1522.78	24
1523.83	27.5
1524.88	21
1525.94	26.5
1526.99	23
1528.05	25
1529.1	24.5
1530.15	25
1531.2	23
1532.26	28
1533.31	23.5
1534.36	23
1535.41	26.5
1536.47	30
1537.52	26
1538.57	25
1539.62	25.5
1540.67	26.5
1541.72	24
1542.77	23.5
1543.83	26.5
1544.88	25.5
1545.93	24.5
1546.98	22.5
1548.03	25
1549.08	24.5
1550.13	28
1551.18	28
1552.23	29
1553.28	23
1554.32	27.5
1555.37	24
1556.42	26.5
1557.47	27
1558.52	27.5
1559.57	30.5
1560.62	26
1561.67	24.5
1562.71	26
1563.76	25
1564.81	24
1565.86	27
1566.9	28.5
1567.95	27.5
1569	24.5
1570.04	24
1571.09	25
1572.14	27
1573.18	23
1574.23	23
1575.27	26
1576.32	22
1577.37	29.5
1578.41	27.5
1579.46	22.5
1580.5	26.5
1581.55	26.5
1582.59	24
1583.64	27
1584.68	27.5
1585.72	24
1586.77	24
1587.81	25
1588.86	22
1589.9	23.5
1590.94	26
1591.99	24.5
1593.03	25
1594.07	22.5
1595.12	26
1596.16	27
1597.2	27.5
1598.24	23
1599.29	24.5
1600.33	27
1601.37	22.5
1602.41	25
1603.45	28.5
1604.49	25.5
1605.53	26
1606.58	27
1607.62	26
1608.66	24
1609.7	26.5
1610.74	22.5
1611.78	26
1612.82	26
1613.86	23
1614.9	23.5
1615.94	25.5
1616.98	26
1618.02	27.5
1619.06	26.5
1620.09	26
1621.13	22
1622.17	28
1623.21	25
1624.25	24
1625.29	25
1626.32	26.5
1627.36	24.5
1628.4	24
1629.44	26
1630.47	25
1631.51	20
1632.55	25
1633.58	24.5
1634.62	25.5
1635.66	26.5
1636.69	28
1637.73	27.5
1638.77	26.5
1639.8	23.5
1640.84	26.5
1641.87	30
1642.91	29.5
1643.94	26.5
1644.98	27
1646.01	22.5
1647.05	25.5
1648.08	23
1649.12	22.5
1650.15	28.5
1651.18	27
1652.22	27
1653.25	19.5
1654.29	23.5
1655.32	23
1656.35	24.5
1657.39	26
1658.42	27.5
1659.45	27
1660.48	22.5
1661.52	26
1662.55	25
1663.58	24.5
1664.61	20.5
1665.64	28
1666.68	27.5
1667.71	27
1668.74	28
1669.77	25
1670.8	24
1671.83	23.5
1672.86	25.5
1673.89	23.5
1674.92	24.5
1675.95	28
1676.98	23
1678.01	26
1679.04	25.5
1680.07	25.5
1681.1	24.5
1682.13	26
1683.16	20.5
1684.19	24
1685.22	26
1686.25	28
1687.27	25
1688.3	24.5
1689.33	24.5
1690.36	28.5
1691.38	24
1692.41	28
1693.44	22.5
1694.47	23.5
1695.49	25.5
1696.52	19
1697.55	21
1698.57	25
1699.6	27
1700.63	28
1701.65	23.5
1702.68	22.5
1703.7	29
1704.73	21.5
1705.76	24.5
1706.78	23
1707.81	26
1708.83	22.5
1709.86	27
1710.88	19.5
1711.91	25.5
1712.93	26.5
1713.95	28
1714.98	29
1716	29
1717.03	25
1718.05	24.5
1719.07	28
1720.1	24.5
1721.12	25
1722.14	24.5
1723.16	21
1724.19	27.5
1725.21	26.5
1726.23	25.5
1727.25	26
1728.28	25.5
1729.3	22
1730.32	24.5
1731.34	28
1732.36	22
1733.38	25
1734.41	24
1735.43	23
1736.45	20.5
1737.47	25
1738.49	26.5
1739.51	23.5
1740.53	20
1741.55	25.5
1742.57	28
1743.59	22.5
1744.61	25
1745.63	26
1746.64	26
1747.66	29
1748.68	27
1749.7	26.5
1750.72	27.5
1751.74	26
1752.76	23.5
1753.77	28.5
1754.79	26
1755.81	24
1756.83	25
1757.84	27.5
1758.86	24.5
1759.88	26.5
1760.9	23.5
1761.91	24.5
1762.93	22
1763.95	26.5
1764.96	17.5
1765.98	21.5
1766.99	25
1768.01	23
1769.02	25.5
1770.04	29
1771.06	22
1772.07	24
1773.09	26
1774.1	24.5
1775.12	28.5
1776.13	28.5
1777.14	28
1778.16	25
1779.17	23.5
1780.19	25.5
1781.2	25.5
1782.21	26.5
1783.23	24
1784.24	27.5
1785.25	26
1786.27	24.5
1787.28	22
1788.29	25.5
1789.3	25.5
1790.32	25.5
1791.33	21.5
1792.34	23
1793.35	25
1794.36	22.5
1795.38	24
1796.39	24.5
1797.4	25
1798.41	28
1799.42	28
1800.43	27
1801.44	20.5
1802.45	21
1803.46	26
1804.47	24.5
1805.48	26
1806.49	25
1807.5	23
1808.51	24
1809.52	25
1810.53	24.5
1811.54	24
1812.55	28
1813.56	28
1814.57	24.5
1815.57	25
1816.58	25.5
1817.59	27.5
1818.6	24
1819.61	27
1820.61	23.5
1821.62	25.5
1822.63	23.5
1823.64	23.5
1824.64	26
1825.65	21
1826.66	27
1827.66	26.5
1828.67	26
1829.68	21
1830.68	25
1831.69	29.5
1832.69	26.5
1833.7	26
1834.7	28.5
1835.71	27.5
1836.71	24
1837.72	23.5
1838.72	23
1839.73	26.5
1840.73	28.5
1841.74	25
1842.74	27
1843.75	23.5
1844.75	23
1845.75	24
1846.76	23
1847.76	21.5
1848.76	27
1849.77	24
1850.77	28
1851.77	26
1852.78	26.5
1853.78	29.5
1854.78	25.5
1855.78	25
1856.78	24
1857.79	26
1858.79	27
1859.79	22.5
1860.79	22
1861.79	28
1862.79	26.5
1863.79	24
1864.79	24
1865.79	22
1866.8	24
1867.8	26
1868.8	25
1869.8	24.5
1870.8	24.5
1871.8	23.5
1872.8	25
1873.79	26.5
1874.79	26.5
1875.79	25
1876.79	25
1877.79	25
1878.79	22.5
1879.79	24
1880.79	27.5
1881.78	23
1882.78	26
1883.78	23.5
1884.78	23.5
1885.77	21
1886.77	24
1887.77	22.5
1888.77	24.5
1889.76	25
1890.76	27
1891.76	25.5
1892.75	25.5
1893.75	21.5
1894.75	21
1895.74	22
1896.74	24
1897.73	21.5
1898.73	25.5
1899.73	28
1900.72	26.5
1901.72	24.5
1902.71	27
1903.7	20.5
1904.7	27
1905.69	26.5
1906.69	26
1907.68	24
1908.68	28.5
1909.67	25
1910.66	26.5
1911.66	25.5
1912.65	22.5
1913.64	21
1914.64	26.5
1915.63	22.5
1916.62	29
1917.62	28
1918.61	23.5
1919.6	25
1920.59	20
1921.58	26
1922.58	25
1923.57	25
1924.56	24
1925.55	31
1926.54	24.5
1927.53	25
1928.52	23
1929.51	23.5
1930.51	20
1931.5	26.5
1932.49	23
1933.48	22.5
1934.47	24.5
1935.46	26
1936.45	19.5
1937.44	26
1938.42	26.5
1939.41	24
1940.4	23
1941.39	22
1942.38	23
1943.37	24
1944.36	24
1945.35	27
1946.33	22
1947.32	22.5
1948.31	24.75
1949.3	20
1950.29	27
1951.27	19
1952.26	26.5
1953.25	24
1954.23	25.5
1955.22	24
1956.21	26
1957.19	26.5
1958.18	25
1959.17	26
1960.15	26.5
1961.14	20
1962.13	20
1963.11	24.5
1964.1	24
1965.08	23.5
1966.07	25
1967.05	24
1968.04	23
1969.02	26.5
1970.01	22.5
1970.99	22
1971.97	26
1972.96	27
1973.94	21.5
1974.93	24.5
1975.91	21.5
1976.89	25.5
1977.88	23
1978.86	27
1979.84	22.5
1980.83	27.5
1981.81	23
1982.79	21.5
1983.77	24
1984.76	28
1985.74	25
1986.72	25
1987.7	23
1988.68	21
1989.67	26
1990.65	25.5
1991.63	24
1992.61	21
1993.59	22.5
1994.57	25.5
1995.55	22
1996.53	24.5
1997.51	25
1998.49	24
1999.47	25
2000.45	25
2001.43	21
2002.41	22.5
2003.39	27
2004.37	26
2005.35	24.5
2006.33	25.5
2007.31	27.5
2008.29	24.5
2009.26	22
2010.24	22.5
2011.22	23
2012.2	26
2013.18	25.5
2014.15	23
2015.13	24.5
2016.11	26.5
2017.09	23.5
2018.06	26
2019.04	21.5
2020.02	24.5
2021	22.5
2021.97	24
2022.95	20
2023.92	27.5
2024.9	22
2025.88	28
2026.85	27
2027.83	25.5
2028.8	23.5
2029.78	24
2030.75	23
2031.73	22
2032.7	28
2033.68	24.5
2034.65	21
2035.63	27.5
2036.6	25
2037.58	21
2038.55	29.5
2039.52	26.5
2040.5	24
2041.47	26.5
2042.45	23.5
2043.42	25
2044.39	21.5
2045.36	22
2046.34	23.5
2047.31	23
2048.28	22.5
2049.26	25.5
2050.23	27
2051.2	23.5
2052.17	23
2053.14	23
2054.12	23.5
2055.09	24.5
2056.06	26
2057.03	23
2058	25.5
2058.97	23.5
2059.94	24.5
2060.91	24
2061.88	21
2062.85	26
2063.82	22
2064.79	25
2065.76	25
2066.73	22
2067.7	27.5
2068.67	24
2069.64	24.5
2070.61	24
2071.58	22
2072.55	25.5
2073.52	24
2074.49	25.5
2075.45	21.5
2076.42	21.5
2077.39	21.5
2078.36	26
2079.33	26
2080.29	24
2081.26	22
2082.23	22.5
2083.2	24
2084.16	23.5
2085.13	23
2086.1	22.5
2087.06	25
2088.03	22
2089	24
2089.96	21.5
2090.93	23
2091.89	29
2092.86	27.5
2093.83	22.5
2094.79	23
2095.76	25
2096.72	25.5
2097.69	23.5
2098.65	21
2099.62	24.5
2100.58	23.5
2101.55	25
2102.51	20
2103.47	24
2104.44	25.5
2105.4	24
2106.36	24
2107.33	24
2108.29	27
2109.25	23
2110.22	24
2111.18	27
2112.14	22
2113.11	23
2114.07	23.5
2115.03	22
2115.99	24
2116.96	24.5
2117.92	21
2118.88	23.5
2119.84	24
2120.8	28
2121.76	21.5
2122.72	24
2123.68	23
2124.65	22.5
2125.61	23.5
2126.57	20
2127.53	26
2128.49	23
2129.45	22.5
2130.41	28
2131.37	23.5
2132.33	26
2133.29	26
2134.25	22
2135.21	26.5
2136.17	25
2137.12	18.5
2138.08	22
2139.04	22.5
2140	20
2140.96	18
2141.92	23
2142.88	22.4986
2143.83	25.9329
2144.79	20.6363
2145.75	23.4983
2146.71	22.1399
2147.66	24.4338
2148.62	23.1279
2149.58	25.0084
2150.53	20.7708
2151.49	22.9572
2152.45	25.8824
2153.4	26.0362
2154.36	23.5253
2155.32	26.1949
2156.27	21.7242
2157.23	21.9525
2158.19	23.5713
2159.14	22.2028
2160.1	20.7067
2161.05	23.6758
2162.01	21.9076
2162.96	21.5159
2163.92	26.0474
2164.87	25.2015
2165.83	22.4803
2166.78	23.9404
2167.73	22.3261
2168.69	24.4251
2169.64	21.6751
2170.6	23.2988
2171.55	26.4236
2172.5	22.7325
2173.46	24.8021
2174.41	21.5848
2175.36	24.3182
2176.32	22.8407
2177.27	21.1785
2178.22	24.8797
2179.18	20.8814
2180.13	22.3365
2181.08	26.6302
2182.03	24.6624
2182.98	22.0469
2183.94	21.7473
2184.89	23.0774
2185.84	21.9096
2186.79	22.8538
2187.74	21.4726
2188.69	25.582
2189.64	20.1715
2190.6	22.9748
2191.55	21.2796
2192.5	24.4634
2193.45	21.4964
2194.4	22.5745
2195.35	23.5982
2196.3	24.5597
2197.25	24.1103
2198.2	23.3472
2199.15	19.2382
2200.1	24.5092
2201.04	23.4998
2201.99	25.5824
2202.94	21.5017
2203.89	23.1813
2204.84	22.2393
2205.79	25.5673
2206.74	23.1391
2207.69	22.9803
2208.63	21.0862
2209.58	24.3388
2210.53	21.207
2211.48	23.1566
2212.43	23.6624
2213.37	20.4603
2214.32	23.5157
2215.27	20.7808
2216.21	23.7623
2217.16	23.9638
2218.11	23.4072
2219.05	19.8147
2220	21.5979
2220.95	23.5905
2221.89	25.3345
2222.84	21.2694
2223.78	22.9882
2224.73	21.086
2225.68	25.0289
2226.62	22.9834
2227.57	24.006
2228.51	24.6207
2229.46	22.8151
2230.4	23.4686
2231.35	21.7965
2232.29	22.1916
2233.24	20.9779
2234.18	21.7452
2235.12	23.8441
2236.07	25.1848
2237.01	22.4829
2237.95	23.684
2238.9	22.5103
2239.84	24.2815
2240.06	25
2241.01	21
2241.96	23
2242.91	25
2243.86	20.5
2244.8	24
2245.75	22
2246.7	23
2247.65	22
2248.59	25.5
2249.54	22.5
2250.49	23.5
2251.43	25
2252.38	24.5
2253.33	23.5
2254.27	25
2255.22	21
2256.16	19.5
2257.11	25.5
2258.06	21.5
2259	25.5
2259.95	21.5
2260.89	27
2261.84	24
2262.78	23
2263.73	25.5
2264.67	26
2265.62	25
2266.56	24
2267.5	27
2268.45	30
2269.39	18.5
2270.34	24.5
2271.28	20
2272.22	25.5
2273.17	21
2274.11	23
2275.05	22
2276	23.5
2276.94	22.5
2277.88	21.5
2278.82	23
2279.77	18.5
2280.71	26
2281.65	22
2282.59	26
2283.53	22.5
2284.48	23
2285.42	24.5
2286.36	22
2287.3	23.5
2288.24	21.5
2289.18	19
2290.12	23.5
2291.06	25.5
2292	24
2292.94	19.5
2293.89	23.5
2294.83	21.5
2295.77	21.5
2296.71	24.5
2297.65	22.5
2298.58	22.5
2299.52	24
2300.46	20
2301.4	22
2302.34	21
2303.28	23
2304.22	21.5
2305.16	23
2306.1	22.5
2307.03	22.5
2307.97	21
2308.91	27
2309.85	21
2310.79	23.5
2311.72	22.5
2312.66	25
2313.6	22
2314.54	23.5
2315.47	23.5
2316.41	21
2317.35	21
2318.28	21
2319.22	26
2320.16	25
2321.09	24
2322.03	24.5
2322.96	24
2323.9	25
2324.84	23.5
2325.77	22.5
2326.71	26.5
2327.64	25.5
2328.58	24.5
2329.51	25.5
2330.45	23.5
2331.38	24
2332.32	22
2333.25	25.5
2334.18	24.5
2335.12	25
2336.05	23
2336.99	24.5
2337.92	20.5
2338.85	25
2339.79	23
2340.72	23
2341.65	24
2342.59	26
2343.52	23.5
2344.45	22
2345.39	24
2346.32	20.5
2347.25	23.5
2348.18	17.5
2349.11	23.5
2350.05	24.5
2350.98	24.5
2351.91	24.5
2352.84	21.5
2353.77	21
2354.7	26
2355.64	27
2356.57	21.5
2357.5	23
2358.43	27.5
2359.36	21.5
2360.29	25
2361.22	23.5
2362.15	23
2363.08	21
2364.01	21
2364.94	23.5
2365.87	21.5
2366.8	23.5
2367.73	21.5
2368.66	26.5
2369.58	23.5
2370.51	25
2371.44	24
2372.37	24
2373.3	22
2374.23	28
2375.16	24
2376.08	22
2377.01	26
2377.94	22
2378.87	22.5
2379.8	26
2380.72	23
2381.65	28.5
2382.58	25.5
2383.5	25.5
2384.43	19
2385.36	23
2386.28	22
2387.21	23
2388.14	18
2389.06	25
2389.99	23.5
2390.91	20.5
2391.84	26
2392.77	28
2393.69	24
2394.62	23
2395.54	26
2396.47	27
2397.39	21
2398.32	22
2399.24	24.5
2400.16	22.5
2401.09	26
2402.01	25.5
2402.94	22
2403.86	21.5
2404.78	25
2405.71	24
2406.63	23.5
2407.56	25
2408.48	27.5
2409.4	24
2410.32	24.5
2411.25	22
2412.17	25.5
2413.09	22
2414.02	23.5
2414.94	22.5
2415.86	25.5
2416.78	25
2417.7	22
2418.63	27.5
2419.55	26
2420.47	25
2421.39	26
2422.31	25
2423.23	26
2424.15	22
2425.07	25.5
2425.99	23
2426.92	23.5
2427.84	20
2428.76	22
2429.68	22.5
2430.59	24.5
2431.51	26
2432.43	24.5
2433.35	26
2434.27	24
2435.19	25
2436.11	24
2437.03	28
2437.95	23
2438.87	24.5
2439.79	25
2440.71	28
2441.62	25.5
2442.54	23
2443.46	24
2444.38	25
2445.3	22
2446.21	26.5
2447.13	24.5
2448.05	26
2448.97	25.5
2449.88	22
2450.8	23
2451.72	25.5
2452.63	26.5
2453.55	22
2454.47	27
2455.38	26.5
2456.3	28
2457.21	22
2458.13	24.5
2459.05	23.5
2459.96	26
2460.88	25
2461.79	23.5
2462.71	29
2463.62	22.5
2464.54	21.5
2465.45	23
2466.37	23
2467.28	25.5
2468.2	25.5
2469.11	26.5
2470.02	24
2470.94	22
2471.85	29.5
2472.77	26.5
2473.68	19
2474.59	26
2475.51	25
2476.42	24.5
2477.33	24.5
2478.25	27.5
2479.16	27
2480.07	23.5
2480.98	25.5
2481.9	21
2482.81	21
2483.72	23.5
2484.63	24.5
2485.55	25
2486.46	23.5
2487.37	24.5
2488.28	22
2489.19	22.5
2490.1	25
2491.01	26
2491.92	24.5
2492.83	24.5
2493.74	26.5
2494.66	24.5
2495.57	25
2496.48	24
2497.39	22.5
2498.3	23
2499.21	26
2500.12	24.5
2501.03	25
2501.93	22.5
2502.84	22
2503.75	22
2504.66	24
2505.57	26
2506.48	19.5
2507.39	24
2508.3	24.5
2509.21	27.5
2510.11	22.5
2511.02	25.5
2511.93	25
2512.84	24.5
2513.75	23.5
2514.65	23.5
2515.56	23.5
2516.47	27.5
2517.37	24.5
2518.28	21
2519.19	27.5
2520.09	21.5
2521	23
2521.91	24.5
2522.81	26.5
2523.72	27.5
2524.63	26
2525.53	28
2526.44	27.5
2527.34	26.5
2528.25	26.5
2529.16	26
2530.06	26
2530.97	27.5
2531.87	25.5
2532.78	24.5
2533.68	24
2534.58	23.5
2535.49	25.5
2536.39	26
2537.3	24.5
2538.2	23.5
2539.11	27
2540.01	26
2540.91	23.5
2541.82	24.5
2542.72	23
2543.62	20.5
2544.53	21
2545.43	25
2546.33	24
2547.23	23.5
2548.14	22.5
2549.04	23
2549.94	27
2550.84	22
2551.75	25
2552.65	24
2553.55	21
2554.45	23
2555.35	19
2556.26	28.5
2557.16	23
2558.06	25.5
2558.96	21.5
2559.86	21.5
2560.76	27.5
2561.66	24.5
2562.56	27.5
2563.46	24.5
2564.36	26.5
2565.26	26
2566.16	25
2567.06	25
2567.96	23
2568.86	28
2569.76	24.5
2570.66	26.5
2571.56	26
2572.46	26
2573.36	21
2574.26	22.5
2575.16	27
2576.05	24.5
2576.95	28
2577.85	22.5
2578.75	23
2579.65	27
2580.54	28.5
2581.44	23.5
2582.34	24.5
2583.24	22.5
2584.13	27
2585.03	21.5
2585.93	25.5
2586.83	25.5
2587.72	26
2588.62	22
2589.52	20
2590.41	25
2591.31	21
2592.2	26.5
2593.1	21.5
2594	25.5
2594.89	25.5
2595.79	22
2596.68	25
2597.58	24.5
2598.47	25
2599.37	18.5
2600.26	26
2601.16	27
2602.05	25.5
2602.95	23
2603.84	24
2604.74	27.5
2605.63	22.5
2606.52	20
2607.42	24
2608.31	22.5
2609.21	21.5
2610.1	20.5
2610.99	24
2611.89	28
2612.78	24.5
2613.67	24.5
2614.56	21
2615.46	21.5
2616.35	25
2617.24	24
2618.13	25
2619.03	24
2619.92	28.5
2620.81	24.5
2621.7	26.5
2622.59	22
2623.49	24
2624.38	21
2625.27	25
2626.16	24
2627.05	24
2627.94	27.5
2628.83	25
2629.72	26
2630.61	23.5
2631.5	26
2632.39	25
2633.28	25
2634.17	22
2635.06	22
2635.95	24.5
2636.84	25.5
2637.73	25
2638.62	22.5
2639.51	24
2640.4	26
2641.29	21.5
2642.18	25
2643.07	24.5
2643.96	25
2644.84	23.5
2645.73	23
2646.62	23
2647.51	25.5
2648.4	28
2649.28	19
2650.17	24.5
2651.06	24.5
2651.95	24
2652.83	18.5
2653.72	24
2654.61	26
2655.49	25
2656.38	24
2657.27	23.5
2658.16	23.5
2659.04	19.5
2659.93	22
2660.81	24.5
2661.7	28.5
2662.59	22.5
2663.47	28.5
2664.36	26.5
2665.24	21.5
2666.13	23
2667.01	27.5
2667.9	26
2668.78	25
2669.67	24
2670.55	24
2671.44	24
2672.32	25.5
2673.21	23
2674.09	26.5
2674.97	23
2675.86	25.5
2676.74	24
2677.62	23.5
2678.51	24
2679.39	20
2680.27	22
2681.16	25.5
2682.04	25
2682.92	27
2683.81	20.5
2684.69	23
2685.57	17.5
2686.45	25
2687.34	19
2688.22	22
2689.1	23
2689.98	26
2690.86	25
2691.75	22
2692.63	23
2693.51	23.5
2694.39	24
2695.27	22
2696.15	25
2697.03	27
2697.91	25.5
2698.79	25
2699.67	23
2700.55	26
2701.43	23
2702.31	21
2703.19	24.5
2704.07	22.5
2704.95	23.5
2705.83	23
2706.71	28
2707.59	22
2708.47	21.5
2709.35	27.5
2710.23	24
2711.11	21
2711.99	26.5
2712.86	25.5
2713.74	24
2714.62	25
2715.5	26
2716.38	23.5
2717.26	22.5
2718.13	25
2719.01	26.5
2719.89	22
2720.77	26
2721.64	25.5
2722.52	22
2723.4	26.5
2724.27	23
2725.15	21
2726.03	21
2726.9	26
2727.78	25.5
2728.66	22.5
2729.53	25.5
2730.41	25
2731.28	24
2732.16	25
2733.03	23
2733.91	19.5
2734.79	27.5
2735.66	26
2736.54	23
2737.41	24.5
2738.29	24.5
2739.16	25
2740.03	25.5
2740.91	25
2741.78	23.5
2742.66	23.5
2743.53	24.5
2744.41	28
2745.28	23.5
2746.15	24
2747.03	22
2747.9	24
2748.77	23
2749.65	23
2750.52	26.5
2751.39	25.5
2752.27	23
2753.14	24
2754.01	25.5
2754.88	21
2755.75	26
2756.63	24
2757.5	23
2758.37	23
2759.24	22.5
2760.11	28
2760.99	24
2761.86	20
2762.73	21.5
2763.6	27
2764.47	25
2765.34	28.5
2766.21	21.5
2767.08	26
2767.95	24
2768.82	26
2769.69	24.5
2770.56	22
2771.43	21.5
2772.3	25
2773.17	26.5
2774.04	23.5
2774.91	24.5
2775.78	22
2776.65	25
2777.52	25
2778.39	25
2779.26	24.5
2780.13	25
2780.99	24.5
2781.86	22.5
2782.73	23.5
2783.6	25
2784.47	23.5
2785.34	26
2786.2	25.5
2787.07	28
2787.94	27.5
2788.81	27.5
2789.67	23
2790.54	25
2791.41	23
2792.27	26
2793.14	21
2794.01	25
2794.87	27.5
2795.74	23.5
2796.61	24
2797.47	28
2798.34	24
2799.21	25.5
2800.07	27
2800.94	27
2801.8	26
2802.67	26
2803.53	28
2804.4	26
2805.26	26.5
2806.13	28
2806.99	26.5
2807.86	22.5
2808.72	27.5
2809.59	31
2810.45	23
2811.32	23
2812.18	26
2813.04	26
2813.91	28
2814.77	25.5
2815.64	20
2816.5	24
2817.36	26.5
2818.22	27
2819.09	28
2819.95	26
2820.81	29
2821.68	28.5
2822.54	29
2823.4	22.5
2824.26	25.5
2825.13	25
2825.99	22
2826.85	22
2827.71	22
2828.57	26.5
2829.44	26.5
2830.3	26
2831.16	24.5
2832.02	25
2832.88	23
2833.74	29.5
2834.6	30
2835.46	24
2836.32	27
2837.18	23
2838.04	25
2838.9	21
2839.76	23.5
2840.62	23
2841.48	25
2842.34	25.5
2843.2	30
2844.06	26.5
2844.92	22
2845.78	24
2846.64	22
2847.5	25
2848.36	27.5
2849.22	29
2850.08	22.5
2850.93	26
2851.79	29.5
2852.65	23
2853.51	26.5
2854.37	23.5
2855.22	21
2856.08	24.5
2856.94	26
2857.8	26.5
2858.65	27
2859.51	22
2860.37	23
2861.23	25.5
2862.08	25.5
2862.94	24.5
2863.79	23
2864.65	24
2865.51	25.5
2866.36	25.5
2867.22	23.5
2868.08	26.5
2868.93	28
2869.79	27.5
2870.64	30
2871.5	29
2872.35	22.5
2873.21	30.5
2874.06	32
2874.92	31
2875.77	28
2876.63	30.5
2877.48	33
2878.34	30
2879.19	26.5
2880.05	27
2880.9	27.5
2881.76	34
2882.61	30
2883.46	35.5
2884.32	33.5
2885.17	29
2886.02	35.5
2886.88	35
2887.73	29.5
2888.58	36
2889.44	34
2890.29	38
2891.14	34
2891.99	41
2892.85	37
2893.7	40
2894.55	43
2895.4	48
2896.25	46.5
2897.11	55.5
2897.96	52
2898.81	50.5
2899.66	50.5
2900.51	58
2901.36	58
2902.21	60
2903.07	64
2903.92	63
2904.77	66.5
2905.62	66.5
2906.47	67.5
2907.32	66.5
2908.17	67.5
2909.02	63
2909.87	59
2910.72	61.5
2911.57	57.5
2912.42	53
2913.27	47
2914.12	42
2914.97	43
2915.81	40
2916.66	44
2917.51	39.5
2918.36	35
2919.21	32.5
2920.06	40.5
2920.91	35.5
2921.75	35.5
2922.6	29.5
2923.45	30.5
2924.3	33
2925.15	32
2925.99	30
2926.84	30
2927.69	29
2928.54	33
2929.38	29
2930.23	31
2931.08	25
2931.92	25
2932.77	27.5
2933.62	27
2934.46	28.5
2935.31	26
2936.16	29.5
2937	28.5
2937.85	28
2938.69	23.5
2939.54	28.5
2940.38	25
2941.23	27.5
2942.08	25
2942.92	26
2943.77	31
2944.61	23.5
2945.46	31
2946.3	27.5
2947.15	31
2947.99	30
2948.83	25.5
2949.68	30
2950.52	30.5
2951.37	34.5
2952.21	35
2953.05	26
2953.9	31
2954.74	34
2955.58	35
2956.43	30.5
2957.27	33.5
2958.11	34
2958.96	36.5
2959.8	37
2960.64	39.5
2961.48	41.5
2962.33	40
2963.17	41
2964.01	42.5
2964.85	44
2965.69	42.5
2966.54	43.5
2967.38	43.5
2968.22	39.5
2969.06	41.5
2969.9	35
2970.74	39
2971.58	39.4903
2972.43	33.4503
2973.27	35.0007
2974.11	35.5
2974.95	32.0933
2975.79	37.8106
2976.63	28.1265
2977.47	30.1264
2978.31	32.0917
2979.15	30.8756
2979.99	34.5799
2980.83	30.0679
2981.67	24.6114
2982.51	25.9502
2983.35	27.3894
2984.19	26.6394
2985.03	26.4689
2985.86	25.5888
2986.7	25.3927
2987.54	27.4548
2988.38	27.3569
2989.22	24.7275
2990.06	23.6158
2990.9	26.1146
2991.73	23.2109
2992.57	27.4837
2993.41	24.8221
2994.25	23.3269
2995.09	26.8609
2995.92	26.1408
2996.76	24.827
2997.6	24.5009
2998.44	26.0421
2999.27	24.1586
3000.11	24.9525
3000.95	23.3543
3001.78	23.0394
3002.62	24.6878
3003.46	25.5964
3004.29	23.4063
3005.13	22.4272
3005.96	20.5546
3006.8	24.8798
3007.64	24.9831
3008.47	23
3009.31	24.4945
3010.14	24.9353
3010.98	25.4547
3011.81	21.9541
3012.65	21.3303
3013.48	24.051
3014.32	23.7583
3015.15	22.9306
3015.99	20.3527
3016.82	20.395
3017.66	21.7473
3018.49	24.2394
3019.33	24.8058
3020.16	21.8424
3020.99	22.803
3021.83	24.5561
3022.66	23.005
3023.5	22.8225
3024.33	23.7655
3025.16	23.4244
3026	24.806
3026.83	23.7076
3027.66	23.762
3028.49	23.2871
3029.33	24.4104
3030.16	23.5034
3030.99	21.4641
3031.83	23.8589
3032.66	23.3583
3033.49	23.2758
3034.32	22.0902
3035.15	21.2667
3035.99	23.0152
3036.82	20.3487
3037.65	21.0027
3038.48	24.1092
3039.31	24.9507
3040.14	22.9605
3040.97	20.0869
3041.81	22.5141
3042.64	21.8301
3043.47	22.0801
3044.3	22.8949
3045.13	22.7227
3045.96	21.1301
3046.79	21.1675
3047.62	23.6223
3048.45	24.9583
3049.28	24.7709
3050.11	24.7355
3050.94	23.3698
3051.77	24.0823
3052.6	24.4926
3053.43	25.5074
3054.26	23.5351
3055.08	22.4573
3055.91	22.9272
3056.74	21.0975
3057.26	18
3058.09	21.5
3058.92	22.5
3059.76	24
3060.59	26
3061.42	22
3062.25	22
3063.09	25
3063.92	22
3064.75	24.5
3065.58	24
3066.42	23.5
3067.25	22
3068.08	22.5
3068.91	23.5
3069.74	25
3070.57	26
3071.41	22
3072.24	25
3073.07	23.5
3073.9	19
3074.73	23.5
3075.56	23
3076.39	22.5
3077.22	25.5
3078.05	26
3078.88	21.5
3079.71	28
3080.54	25.5
3081.37	22.5
3082.2	26.5
3083.03	21.5
3083.86	20.5
3084.69	23
3085.52	22.5
3086.35	24
3087.18	22.5
3088.01	22.5
3088.84	24.5
3089.67	23
3090.5	24
3091.32	26.5
3092.15	28
3092.98	27.5
3093.81	26.5
3094.64	25.5
3095.47	24
3096.29	21
3097.12	24
3097.95	21
3098.78	19.5
3099.6	25
3100.43	24
3101.26	23.5
3102.09	16.5
3102.91	24
3103.74	25
3104.57	22.5
3105.39	24
3106.22	24
3107.05	21.5
3107.87	25
3108.7	24
3109.52	21
3110.35	20
3111.18	28
3112	21.5
3112.83	26.5
3113.65	23
3114.48	25.5
3115.3	23.5
3116.13	21.5
3116.95	23
3117.78	27
3118.6	21
3119.43	24.5
3120.25	22.5
3121.08	22
3121.9	22.5
3122.72	24
3123.55	22
3124.37	20
3125.2	25
3126.02	24
3126.84	26.5
3127.67	19.5
3128.49	23.5
3129.31	23
3130.14	25
3130.96	21
3131.78	25.5
3132.61	22
3133.43	24
3134.25	23.5
3135.07	24.5
3135.89	23.5
3136.72	24
3137.54	23.5
3138.36	23
3139.18	23.5
3140	27
3140.83	23.5
3141.65	25
3142.47	25
3143.29	26
3144.11	24.5
3144.93	23
3145.75	24
3146.57	18.5
3147.4	21
3148.22	28
3149.04	24
3149.86	24.5
3150.68	24.5
3151.5	22
3152.32	21
3153.14	24.5
3153.96	22.5
3154.78	26.5
3155.59	24.5
3156.42	24
3157.23	21
3158.05	23
3158.87	24.5
3159.69	25
3160.51	23.5
3161.33	27
3162.15	20.5
3162.97	25
3163.78	23.5
3164.6	23.5
3165.42	22
3166.24	23.5
3167.06	23
3167.87	22.5
3168.69	26.5
3169.51	25
3170.33	28.5
3171.14	23.5
3171.96	20
3172.78	22
3173.6	20.5
3174.41	26
3175.23	24
3176.05	24.5
3176.86	23
3177.68	25.5
3178.5	22
3179.31	27
3180.13	25
3180.94	23.5
3181.76	20.5
3182.58	23
3183.39	27
3184.21	24
3185.02	24.5
3185.84	26.5
3186.65	21.5
3187.47	22.5
3188.28	23.5
3189.1	21.5
3189.91	21
3190.73	26
3191.54	23
3192.36	23
3193.17	21.5
3193.98	23.5
3194.8	19
3195.61	22.5
3196.43	30
3197.24	24
3198.05	24
3198.87	22.5
3199.68	23
3200.49	22.5
3201.31	24.5
3202.12	24.5
3202.93	22
3203.75	23.5
3204.56	23.5
3205.37	22
3206.18	24
3207	23.5
3207.81	24
3208.62	21
3209.43	25.5
3210.24	22
3211.06	21
3211.87	21.5
3212.68	23
3213.49	24
3214.3	26
3215.11	26
3215.92	24.5
3216.73	20
3217.55	25
3218.36	25
3219.17	25.5
3219.98	22
3220.79	21
3221.6	20
3222.41	19.5
3223.22	18
3224.03	24
3224.84	23
3225.65	25.5
3226.46	20.5
3227.27	20
3228.08	23
3228.89	23.5
3229.7	23
3230.5	27.5
3231.31	21.5
3232.12	25.5
3232.93	22
3233.74	25
3234.55	20.5
3235.36	23.5
3236.16	26
3236.97	23.5
3237.78	23.5
3238.59	21.5
3239.4	21
3240.2	23
3241.01	23
3241.82	26.5
3242.63	23.5
3243.43	22
3244.24	21
3245.05	24
3245.85	24.5
3246.66	22
3247.47	24.5
3248.27	26
3249.08	23.5
3249.89	24
3250.69	23
3251.5	24.5
3252.31	25
3253.11	22.5
3253.92	29
3254.72	19
3255.53	26
3256.33	20.5
3257.14	23
3257.94	25.5
3258.75	22.5
3259.55	25.5
3260.36	24.5
3261.16	23.5
3261.97	24.5
3262.77	25
3263.58	20
3264.38	28.5
3265.19	26
3265.99	25
3266.79	24
3267.6	24.5
3268.4	22
3269.21	24
3270.01	20.5
3270.81	24
3271.62	22.5
3272.42	26
3273.22	23
3274.03	23.5
3274.83	23
3275.63	22
3276.43	23
3277.24	25
3278.04	20
3278.84	23.5
3279.64	23
3280.45	20.5
3281.25	21
3282.05	22
3282.85	21
3283.65	27
3284.45	23
3285.26	21
3286.06	23
3286.86	26
3287.66	22
3288.46	22.5
3289.26	25
3290.06	26
3290.86	23
3291.66	24.5
3292.46	24.5
3293.26	23.5
3294.06	26
3294.86	19.5
3295.66	21.5
3296.46	26
3297.26	23
3298.06	22.5
3298.86	25
3299.66	22
3300.46	26
3301.26	24.5
3302.06	24.5
3302.86	25
3303.66	25.5
3304.46	23.5
3305.25	21
3306.05	22.5
3306.85	25
3307.65	24
3308.45	21.5
3309.25	24
3310.04	28.5
3310.84	19.5
3311.64	25
3312.44	21
3313.23	25
3314.03	25
3314.83	25
3315.63	23.5
3316.42	21
3317.22	28
3318.02	27
3318.81	24.5
3319.61	25.5
3320.41	21
3321.2	23.5
3322	24.5
3322.8	24
3323.59	22.5
3324.39	21.5
3325.18	20.5
3325.98	24.5
3326.78	25
3327.57	23
3328.37	22
3329.16	23
3329.96	19
3330.75	23
3331.55	22.5
3332.34	23.5
3333.14	25.5
3333.93	20
3334.73	21.5
3335.52	22
3336.31	27
3337.11	20.5
3337.9	24.5
3338.7	23
3339.49	21
3340.28	24
3341.08	28.5
3341.87	21
3342.66	27
3343.46	19
3344.25	22
3345.04	21
3345.84	25.5
3346.63	22
3347.42	26
3348.22	23.5
3349.01	26
3349.8	24
3350.59	25.5
3351.39	25
3352.18	22.5
3352.97	24
3353.76	27
3354.55	27.5
3355.35	24
3356.14	24
3356.93	25.5
3357.72	23
3358.51	21.5
3359.3	23
3360.09	27
3360.88	24.5
3361.67	25
3362.46	23.5
3363.26	22
3364.05	22
3364.84	23
3365.63	24
3366.42	21
3367.21	25.5
3368	21.5
3368.79	22.5
3369.58	24
3370.37	23
3371.15	22
3371.94	27.5
3372.73	22.5
3373.52	27.5
3374.31	22
3375.1	23
3375.89	23
3376.68	25
3377.47	25.5
3378.26	25.5
3379.04	26
3379.83	25.5
3380.62	22
3381.41	25
3382.2	22
3382.98	22
3383.77	24
3384.56	25
3385.35	26.5
3386.13	23
3386.92	21
3387.71	26
3388.5	24
3389.28	25
3390.07	23
3390.86	25.5
3391.64	22
3392.43	23.5
3393.22	20
3394	23
3394.79	24
3395.57	21
3396.36	25.5
3397.15	22
3397.93	23
3398.72	22
3399.5	27.5
3400.29	23
3401.07	23.5
3401.86	22
3402.65	23.5
3403.43	23.5
3404.21	22
3405	24
3405.78	20
3406.57	24
3407.35	26
3408.14	15
3408.92	21
3409.71	25
3410.49	23
3411.27	23
3412.06	23.5
3412.84	25.5
3413.62	22
3414.41	25.5
3415.19	25.5
3415.97	22.5
3416.76	23
3417.54	25.5
3418.32	23.5
3419.11	20
3419.89	21
3420.67	25.5
3421.46	25.5
3422.24	21
3423.02	24
3423.8	28
3424.58	22.5
3425.37	23
3426.15	24
3426.93	24
3427.71	24.5
3428.49	25.5
3429.27	27
3430.05	27.5
3430.84	25
3431.62	24
3432.4	21
3433.18	23
3433.96	23
3434.74	25.5
3435.52	24
3436.3	25
3437.08	25.5
3437.86	22
3438.64	23
3439.42	24.5
3440.2	25
3440.98	27
3441.76	26.5
3442.54	24.5
3443.32	23.5
3444.1	21
3444.88	26
3445.66	23.5
3446.44	25
3447.22	25.5
3448	24.5
3448.77	23.5
3449.55	23
3450.33	23.5
3451.11	23
3451.89	27.5
3452.67	24
3453.45	26
3454.22	23
3455	23
3455.78	25
3456.56	24
3457.33	26
3458.11	26
3458.89	24
3459.67	26
3460.44	24
3461.22	24
3462	21
3462.77	27
3463.55	24
3464.33	29
3465.1	26
3465.88	25
3466.66	22.5
3467.43	23
3468.21	26
3468.98	21
3469.76	22
3470.54	22
3471.31	24.5
3472.09	23.5
3472.86	26
3473.64	25
3474.41	27
3475.19	24
3475.96	20.5
3476.74	24.5
3477.51	28
3478.29	26.5
3479.06	25.5
3479.84	20.5
3480.61	23.5
3481.39	24.5
3482.16	21
3482.93	24
3483.71	22.5
3484.48	22.5
3485.25	21.5
3486.03	25
3486.8	22
3487.57	28
3488.35	21.5
3489.12	25
3489.89	25
3490.67	22
3491.44	27
3492.21	25
3492.99	22
3493.76	25.5
3494.53	26.5
3495.3	18
3496.08	22
3496.85	20
3497.62	17.5
3498.39	22
3499.16	22
3499.93	20.5
