#Acq. time (s)=	5
#Accumulations=	5
#Range (cm-¹)=	100...3500
#Windows=	4
#Autofocus=	Off
#AutoExposure=	Off
#Spike filter=	Multiple accum.
#Delay time (s)=	0
#Binning=	1
#Readout mode=	Signal
#DeNoise=	Off
#ICS correction=	Off
#Dark correction=	Off
#Inst. Process=	Off
#Instrument=	LabRAM HR Evol
#Detector=	Syncerity OE
#Objective=	x100_VIS
#Grating=	600 (500nm)
#ND Filter=	25%
#Laser=	633nm_Edge
#Hole=	100.021
#Range=	Visible
#Project=	verificaciones
#Sample=	a4
#Site=	lined
#Title=	bolusa4lined
#Remark=	
#Date=	09.01.2026 15:29
#Acquired=	09.01.2026 15:29:05
100.695	87
101.978	85.5
103.262	102
104.545	97
105.829	87.5
107.112	89.5
108.394	88.5
109.676	80
110.958	89
112.24	87
113.522	102.5
114.803	91
116.084	95.5
117.365	93
118.646	99
119.927	100
121.207	103
122.487	104.5
123.767	106.5
125.047	105
126.326	109.5
127.606	109.5
128.885	115
130.164	126.5
131.442	122.5
132.721	128.5
133.999	128
135.277	135
136.555	140
137.831	135
139.109	134
140.386	151
141.663	144.5
142.94	148
144.216	160
145.493	157.5
146.769	156.5
148.043	165
149.319	158
150.595	161.5
151.87	171.5
153.145	174.5
154.42	173.5
155.693	187
156.968	184.5
158.242	183
159.516	178
160.79	187
162.062	179
163.336	183
164.609	175
165.882	178
167.153	173
168.426	173.5
169.699	167
170.971	168
172.241	167.5
173.513	169.5
174.785	171
176.055	161
177.326	167
178.597	170
179.866	173
181.137	172.5
182.407	174
183.676	179
184.946	188
186.216	184
187.484	181
188.753	181
190.022	183.5
191.29	186.5
192.558	176
193.825	180.5
195.094	180.5
196.36	179.5
197.628	167
198.896	168
200.162	160
201.429	153.5
202.695	159
203.962	142
205.227	144.5
206.493	135
207.758	143
209.024	133
210.289	134
211.554	126
212.818	125
214.083	126.5
215.347	120
216.612	123
217.875	117
219.138	120.5
220.402	113
221.665	110
222.928	115
224.19	107.5
225.454	99
226.715	107.5
227.977	100
229.24	110
230.501	103.5
231.762	102
233.024	102
234.284	99.5
235.546	98
236.806	94
238.066	93.5
239.327	96.5
240.587	99.5
241.846	91.5
243.105	90.5
244.365	95.5
245.624	86.5
246.882	87
248.142	86
249.4	89
250.658	86
251.916	91.5
253.174	84
254.432	87.5
255.689	85
256.945	85
258.202	86.5
259.46	84.5
260.716	83.5
261.972	88.5
263.228	80
264.483	88.5
265.74	79
266.996	87.5
268.251	79
269.505	83.5
270.76	77.5
272.014	78.5
273.268	76.5
274.522	78
275.778	75
277.031	80.5
278.285	82
279.538	77
280.791	76
282.043	78.5
283.296	80.5
284.548	77.5
285.8	77.5
287.052	77
288.304	80
289.556	77
290.807	78
292.058	76.5
293.309	84.5
294.56	76.5
295.81	75
297.061	70
298.311	82
299.561	81.5
300.81	79.5
302.06	75.5
303.309	79.5
304.558	72.5
305.807	74
307.056	78
308.305	74
309.551	75
310.8	82.5
312.047	75.5
313.295	75
314.543	75
315.79	75.5
317.037	76
318.284	76
319.529	72
320.776	81.5
322.022	75
323.268	76.5
324.514	80.5
325.758	77.5
327.004	77
328.249	78.5
329.494	72
330.739	80
331.982	70
333.227	68.5
334.471	75.5
335.715	76.5
336.958	77
338.201	76
339.445	76
340.687	76.5
341.93	74.5
343.173	72
344.414	79
345.657	77
346.899	75
348.14	78
349.381	78
350.623	75.5
351.863	75.5
353.104	75
354.346	75
355.585	81
356.826	79
358.065	71.5
359.305	80
360.545	73.5
361.784	73
363.023	72
364.261	74.5
365.501	71.5
366.738	80
367.977	74
369.216	71.5
370.453	74
371.691	71.5
372.928	74.5
374.166	63
375.402	72
376.64	71.5
377.876	74
379.111	70
380.348	72.5
381.584	71.5
382.82	76
384.055	68.5
385.291	71
386.526	66.5
387.76	68.5
388.996	69
390.229	70
391.465	70.5
392.698	69.5
393.931	74
395.166	76.5
396.399	76
397.632	67
398.866	67.5
400.098	70.5
401.33	66.5
402.563	70.5
403.795	67.5
405.027	69
406.259	69.5
407.491	73
408.721	77
409.954	71.5
411.184	73
412.415	66.5
413.645	69.5
414.876	71.5
416.106	70
417.335	70
418.565	72.5
419.794	66
421.024	72.5
422.253	69.5
423.482	71
424.71	74
425.938	67.5
427.168	69
428.396	67.5
429.623	69
430.851	64.5
432.078	74.5
433.305	69
434.532	74
435.758	67
436.986	79
438.212	72
439.438	73
440.664	70
441.89	75.5
443.115	77
444.34	78.5
445.566	80
446.79	75.5
448.015	77.5
449.24	76
450.464	82.5
451.688	76.5
452.912	81.5
454.135	78.5
455.359	82
456.582	81
457.805	81.5
459.028	86.5
460.251	83
461.473	91
462.696	90
463.918	98.5
465.14	96.5
466.36	101
467.582	98.5
468.803	111
470.024	113.5
471.245	129.5
472.466	138
473.686	136
474.907	154.5
476.126	169.5
477.346	178
478.565	197.5
479.785	229.5
481.004	243.5
482.224	258
483.441	296
484.66	304
485.879	321
487.097	351
488.314	345
489.532	350
490.75	340.5
491.967	329
493.184	325
494.401	302.5
495.618	273.5
496.835	268
498.05	249
499.267	237.5
500.483	214.5
501.698	206
502.913	197.5
504.129	187
505.343	165
506.559	158
507.774	151
508.987	141
510.202	143.5
511.415	131.5
512.63	132
513.844	119.5
515.056	115
516.27	123.5
517.482	111
518.696	110
519.907	105
521.121	103
522.332	99
523.545	99
524.757	98
525.968	101.5
527.18	85
528.39	90.5
529.602	92
530.812	83
532.023	88
533.233	83.5
534.443	82.5
535.653	81
536.862	85
538.073	84.5
539.281	75.5
540.491	83
541.7	80.5
542.908	85
544.117	79.5
545.325	71.5
546.534	77.5
547.741	78.5
548.949	68.5
550.157	76
551.364	72
552.57	77
553.778	79
554.985	72
556.191	77.5
557.398	69
558.604	73.5
559.809	69.5
561.014	74.5
562.221	74.5
563.426	69
564.63	73
565.835	73
567.041	65.5
568.245	74.5
569.449	68
570.653	68.5
571.856	68.5
573.061	62.5
574.264	69.5
575.467	77
576.67	70.5
577.873	70
579.076	71
580.279	67.5
581.481	73
582.683	71
583.884	59.5
585.086	74
586.287	72
587.488	68
588.689	71
589.891	72.5
591.092	75
592.292	72.5
593.492	67
594.692	67
595.892	67
597.092	67
598.291	59
599.49	71
600.689	60
601.888	67
603.087	69.5
604.285	64.5
605.483	69.5
606.681	71
607.879	66
609.077	68.5
610.274	72
611.472	72
612.668	69
613.865	62.5
615.061	69.5
616.258	70
617.454	73.5
618.65	66
619.846	67
621.042	73
622.238	68
623.432	71
624.627	76
625.822	73
627.017	70.5
628.212	69
629.406	70.5
630.599	70
631.793	73.5
632.987	70
634.181	67.5
635.373	77.5
636.566	68.5
637.76	68.5
638.953	72.5
640.144	76
641.337	71.5
642.529	72
643.721	72
644.912	74.5
646.104	77
647.295	74
648.485	70.5
649.677	71
650.868	72.5
652.057	68.5
653.248	72
654.437	68.5
655.628	77
656.818	70.5
658.006	70.5
659.196	74.5
660.384	76
661.574	72
662.763	78.5
663.951	78
665.14	80.5
666.327	80.5
667.515	75
668.702	81
669.891	83.5
671.077	81.5
672.265	88.5
673.451	88
674.638	88
675.824	98
677.011	101
678.197	91
679.383	104.5
680.568	111.5
681.755	116
682.939	132.5
684.124	122.5
685.309	128.5
686.494	128
687.679	124
688.863	125
690.046	113
691.231	118.5
692.414	119
693.599	125
694.781	123.5
695.964	117
697.148	131
698.33	127
699.512	140
700.694	149.5
701.877	163
703.059	174.5
704.24	187.5
705.423	204
706.604	224
707.784	251
708.965	260
710.147	262
711.327	252
712.507	228
713.687	165
714.867	146.5
716.048	138
717.227	120.5
718.406	105
719.585	95
720.764	90.5
721.942	88
723.122	84.5
724.3	84
725.478	84
726.656	76
727.834	71
729.011	66
730.189	70.5
731.366	68
732.543	76
733.719	74.5
734.896	78
736.072	73.5
737.249	77
738.426	66.5
739.602	67
740.777	66.5
741.953	67.5
743.128	68.5
744.303	68.5
745.477	74.5
746.651	68.5
747.826	63.5
749	71.5
750.174	69
751.348	65.5
752.522	67
753.696	65.5
754.869	64
756.043	68
757.216	70
758.389	66.5
759.561	68.5
760.732	66
761.905	63
763.077	66
764.249	67
765.421	65
766.592	65.5
767.762	64
768.934	65.5
770.105	65.5
771.275	72.5
772.446	64
773.615	70
774.786	69
775.956	67
777.126	72
778.294	76
779.464	79
780.633	82
781.801	88.5
782.97	88.5
784.139	88.5
785.306	98.5
786.475	94
787.643	101.5
788.81	101
789.978	95.5
791.146	98.5
792.312	91.5
793.479	90
794.647	94
795.812	90.5
796.979	90
798.144	81.5
799.311	79.5
800.477	81.5
801.642	80
802.808	81
803.972	71.5
805.138	74.5
806.302	75.5
807.467	71.5
808.631	74.5
809.796	68.5
810.959	71.5
812.124	71
813.287	70
814.451	70
815.614	66
816.777	67
817.94	71
819.102	66
820.265	67
821.427	67
822.59	71
823.751	67
824.912	61.5
826.074	67
827.235	62.5
828.397	62
829.558	65
830.718	65
831.879	64
833.039	66.5
834.199	65
835.359	63.5
836.519	66
837.679	61.5
838.838	69
839.998	68.5
841.156	63.5
842.315	65.5
843.473	63
844.633	70.5
845.791	64.5
846.948	63.5
848.106	67
849.263	68
850.422	73
851.579	68
852.736	70
853.892	71.5
855.049	73
856.205	70.5
857.363	72.5
858.519	76.5
859.674	83
860.83	80
861.986	80
863.141	77
864.296	77
865.451	76
866.605	74.5
867.76	75
868.914	68.5
870.069	75
871.224	77.5
872.378	71.5
873.531	70.5
874.685	67
875.838	68.5
876.991	70.5
878.144	68.5
879.296	71.5
880.448	73.5
881.6	66.5
882.753	67
883.905	66.5
885.057	58.5
886.208	58
887.36	66
888.511	69
889.662	64
890.813	57.5
891.964	63
893.113	63
894.264	63.5
895.414	61
896.564	59.5
897.714	56.5
898.864	62.5
900.012	54
901.161	59
902.31	62.5
903.459	63.5
904.607	58.5
905.756	57.5
906.904	60
908.052	61.5
909.199	61.5
910.347	58.5
911.495	58.5
912.643	60
913.789	61
914.936	57
916.083	55.5
917.229	57
918.375	58
919.522	51.5
920.667	56.5
921.813	57.5
922.959	58
924.104	61.5
925.249	62.5
926.393	61
927.539	53
928.684	57
929.827	60
930.972	56
932.115	63.5
933.26	61.5
934.403	61
935.547	55.5
936.689	54
937.833	64.5
938.975	59
940.119	60
941.26	58
942.404	64
943.545	61.5
944.688	58
945.829	55.5
946.971	56
948.112	59.5
949.253	60
950.394	58.5
951.535	57
952.676	60.5
953.816	55.5
954.956	56.5
956.097	62.5
957.236	55
958.377	63
959.516	59.5
960.655	60
961.793	59
962.933	63
964.071	59
965.21	54
966.349	60
967.487	61
968.624	59
969.762	60.5
970.901	58.75
972.038	56.5
973.175	60
974.311	63.5
975.449	57.5
976.586	59
977.722	57.5
978.858	53
979.994	59
981.131	60
982.267	56
983.402	59
984.537	57.5
985.672	63
986.807	59.5
987.942	57
989.076	55
990.211	60
991.346	64
992.48	59.5
993.614	60
994.748	59.5
995.881	53
997.014	57
998.148	53
999.28	65
1000.41	56
1001.55	58
1002.68	55
1003.81	57.5
1004.94	55
1006.07	58.5
1007.21	60
1008.34	57.5
1009.47	57
1010.6	59
1011.73	54.5
1012.86	52.5
1013.99	63
1015.12	55.5
1016.25	57.5
1017.38	53
1018.51	52.5
1019.64	53
1020.77	50
1021.9	57.5
1023.03	58
1024.16	60.5
1025.29	64
1026.42	57.5
1027.54	59
1028.67	62
1029.8	59
1030.93	53.5
1032.06	62
1033.18	57
1034.31	58.5
1035.44	57
1036.56	55
1037.69	48.5
1038.82	58
1039.94	56.5
1041.07	56.5
1042.2	59
1043.32	56.5
1044.45	59
1045.57	58
1046.7	58
1047.82	55
1048.95	56
1050.07	61.5
1051.2	51
1052.32	62
1053.45	57.5
1054.57	64
1055.69	58
1056.82	53.5
1057.94	55
1059.06	59
1060.19	59.5
1061.31	60.5
1062.43	55.5
1063.55	60
1064.68	58
1065.8	58
1066.92	54.5
1068.04	57.5
1069.16	56
1070.28	56
1071.41	56
1072.53	58.5
1073.65	58.5
1074.77	58.5
1075.89	56.5
1077.01	58.5
1078.13	53.5
1079.25	59
1080.37	60
1081.49	60
1082.61	53.5
1083.73	56.5
1084.85	55
1085.96	57.5
1087.08	53.5
1088.2	57
1089.32	59
1090.44	58
1091.56	53.5
1092.67	54
1093.79	58.5
1094.91	55
1096.03	51.5
1097.14	57.5
1098.26	57
1099.38	57
1100.49	56
1101.61	57.5
1102.73	57
1103.84	49.5
1104.96	55
1106.07	56
1107.19	54.5
1108.3	50.5
1109.42	50
1110.53	56
1111.65	53
1112.76	55.5
1113.88	57.5
1114.99	54.5
1116.1	56.5
1117.22	54
1118.33	55
1119.44	55
1120.56	58.5
1121.67	57
1122.78	57.5
1123.9	55.5
1125.01	49
1126.12	55
1127.23	57
1128.34	55
1129.46	57
1130.57	57
1131.68	56.5
1132.79	52.5
1133.9	52
1135.01	53.5
1136.12	50
1137.23	48
1138.34	58
1139.45	54
1140.56	51
1141.67	55
1142.78	56
1143.89	54.5
1145	50.5
1146.11	54
1147.22	58.5
1148.33	50.5
1149.44	55
1150.54	57.5
1151.65	51
1152.76	53
1153.87	59
1154.97	58.5
1156.08	53
1157.19	52
1158.3	51
1159.4	57.5
1160.51	50.5
1161.62	56
1162.72	56
1163.83	58.5
1164.93	55.5
1166.04	54
1167.15	56.5
1168.25	51
1169.36	56
1170.46	57
1171.57	51
1172.67	56
1173.78	56
1174.88	53.5
1175.98	53.5
1177.09	53.5
1178.19	54
1179.3	51.5
1180.4	55.5
1181.5	55.5
1182.61	51
1183.71	58
1184.81	53
1185.91	53
1187.02	53
1188.12	55.5
1189.22	57
1190.32	51.5
1191.42	51.5
1192.53	54.5
1193.63	58
1194.73	50.5319
1195.83	56.4751
1196.93	53.6051
1198.03	55.1065
1199.13	53.5563
1200.23	48.3589
1201.33	57.9429
1202.43	55.5288
1203.53	53.3397
1204.63	52.2624
1205.73	53.899
1206.83	56.9665
1207.93	53.9207
1209.02	55
1210.12	51.0874
1211.22	55.5485
1212.32	54.235
1213.42	47.8749
1214.52	51.8475
1215.61	53.1095
1216.71	57.2443
1217.81	55.8411
1218.91	54.2543
1220	52.8174
1221.1	53.7832
1222.2	53.3323
1223.29	51.1172
1224.39	54.3938
1225.49	54.3034
1226.58	59.4496
1227.68	55.3972
1228.77	51.1621
1229.87	54.0719
1230.96	51.3848
1232.06	54.9727
1233.15	52.6661
1234.25	50.3323
1235.34	56.5855
1236.44	55.2033
1237.53	52.9509
1238.63	56.065
1239.72	52.0959
1240.81	58.3119
1241.91	56.5594
1243	54.8143
1244.09	52.9893
1245.19	56.6968
1246.28	56.1543
1247.37	56.678
1248.46	58.4586
1249.56	57.5693
1250.65	63.1793
1251.74	63.0143
1252.83	62.5665
1253.92	62.7512
1255.01	65.4678
1256.11	70.1083
1257.2	66.8668
1258.29	70.4445
1259.38	72.4683
1260.47	71.4462
1261.56	71.8477
1262.65	75.2827
1263.74	72.4471
1264.83	73.1476
1265.92	70.5542
1267.01	67.9038
1268.1	62.8452
1269.19	58.5504
1270.27	59.358
1271.36	59.7866
1272.45	59.3568
1273.54	56.3814
1274.63	55.0271
1275.72	57.555
1276.8	54.3213
1277.89	55.4383
1278.98	55.8483
1280.07	55.4757
1281.15	56.7383
1282.24	53.6084
1283.33	54.2182
1284.41	56.3027
1285.5	55.0876
1286.59	53.1294
1287.67	57.0019
1288.76	55.1002
1289.84	56.5992
1290.93	54.6783
1292.01	55.499
1293.1	55.3473
1294.19	55.3481
1295.27	53.8758
1296.35	55.4307
1297.44	55.5
1298.52	58.3195
1299.61	58.9841
1300.69	58.2132
1301.78	54.2901
1302.86	57.291
1303.94	53.1165
1305.03	50.3078
1306.11	54.0301
1306.4	55.5
1307.49	53
1308.57	55.5
1309.66	61
1310.75	56.5
1311.84	54.5
1312.92	55
1314.01	55
1315.1	55
1316.19	57
1317.27	62
1318.36	57.5
1319.45	48.5
1320.53	53.5
1321.62	52.5
1322.7	57.5
1323.79	52.5
1324.88	54
1325.96	56
1327.05	57
1328.13	51.5
1329.21	58.5
1330.3	56.5
1331.38	51.5
1332.47	52
1333.55	49.5
1334.64	56
1335.72	57.5
1336.8	56
1337.89	57
1338.97	58.5
1340.05	56.5
1341.14	58
1342.22	52
1343.3	55
1344.39	53
1345.47	53.5
1346.55	51.5
1347.63	50
1348.71	54.5
1349.79	56.5
1350.88	54.5
1351.96	54.5
1353.04	55
1354.12	57.5
1355.2	49.5
1356.28	54
1357.36	50
1358.44	55.5
1359.52	60
1360.6	53
1361.68	54.5
1362.76	53
1363.84	55
1364.92	54
1366	60.5
1367.08	52
1368.16	53
1369.23	62.5
1370.31	60
1371.39	56
1372.47	54.5
1373.55	63.5
1374.62	60.5
1375.7	62.5
1376.78	58
1377.85	54
1378.93	59.5
1380.01	56.5
1381.09	59
1382.16	63
1383.24	61.5
1384.31	59.5
1385.39	58.5
1386.47	61
1387.54	59
1388.62	63.5
1389.69	61
1390.77	69
1391.84	63
1392.92	68.5
1393.99	65
1395.06	70.5
1396.14	77
1397.21	76.5
1398.29	75
1399.36	88
1400.43	81.5
1401.51	90
1402.58	91
1403.65	91
1404.73	93
1405.8	99
1406.87	98
1407.94	92.5
1409.02	98
1410.09	103.5
1411.16	102.5
1412.23	96
1413.3	104.5
1414.37	105
1415.45	104
1416.52	93
1417.59	93.5
1418.66	85
1419.73	85
1420.8	78.5
1421.87	78.5
1422.94	77
1424.01	74.5
1425.08	68
1426.15	75
1427.22	67
1428.29	63.5
1429.35	67
1430.42	69
1431.49	60.5
1432.56	63
1433.63	57
1434.7	63.5
1435.77	68.5
1436.83	64
1437.9	64
1438.97	63
1440.04	59
1441.1	63
1442.17	65.5
1443.24	58.5
1444.3	61.5
1445.37	59.5
1446.44	60.5
1447.5	65
1448.57	62
1449.63	59
1450.7	60
1451.76	56
1452.83	58
1453.89	64.5
1454.96	61
1456.02	57
1457.09	60
1458.15	57
1459.22	58.5
1460.28	54
1461.34	59.5
1462.41	55.5
1463.47	61
1464.54	53
1465.6	56
1466.66	58
1467.72	58.5
1468.79	58
1469.85	59
1470.91	54.5
1471.97	59
1473.04	58
1474.1	55
1475.16	64
1476.22	59
1477.28	51.5
1478.34	59
1479.4	62
1480.47	62
1481.53	55
1482.59	61.5
1483.65	60
1484.71	62.5
1485.77	62
1486.83	60.5
1487.89	57
1488.95	56
1490.01	59
1491.07	53.5
1492.12	57
1493.18	60
1494.24	50
1495.3	55.5
1496.36	59
1497.42	55
1498.47	61
1499.53	61.5
1500.59	55.5
1501.65	60.5
1502.7	59.5
1503.76	60.5
1504.82	51.5
1505.88	54.5
1506.93	55.5
1507.99	60
1509.05	60
1510.1	55
1511.16	57
1512.21	56.5
1513.27	53
1514.32	57
1515.38	58
1516.43	57
1517.49	56.5
1518.54	53
1519.6	48.5
1520.65	57
1521.71	49
1522.76	55.5
1523.82	53.5
1524.87	58.5
1525.92	57
1526.98	56.5
1528.03	50.5
1529.08	57.5
1530.14	49
1531.19	56.5
1532.24	63.5
1533.3	61
1534.35	59
1535.4	55.5
1536.45	56.5
1537.5	52
1538.56	56
1539.61	54
1540.66	52.5
1541.71	59.5
1542.76	53.5
1543.81	51.5
1544.86	54
1545.91	56
1546.96	57.5
1548.01	54
1549.06	59
1550.11	56.5
1551.16	56.5
1552.21	57.5
1553.26	59
1554.31	57.5
1555.36	56
1556.41	54
1557.46	55
1558.51	56
1559.55	60
1560.6	54
1561.65	57
1562.7	49.5
1563.75	59.5
1564.79	51
1565.84	52
1566.89	52.5
1567.94	56.5
1568.98	53
1570.03	50.5
1571.07	57.5
1572.12	55.5
1573.17	54
1574.21	52
1575.26	57
1576.31	52.5
1577.35	54
1578.4	54
1579.44	53.5
1580.49	56
1581.53	56.5
1582.58	55
1583.62	47.5
1584.67	51
1585.71	57.5
1586.75	53.5
1587.8	54
1588.84	52
1589.89	57
1590.93	54
1591.97	56.5
1593.02	52.5
1594.06	55
1595.1	54
1596.14	54.5
1597.19	49.5
1598.23	56
1599.27	47
1600.31	53
1601.35	49
1602.4	55.5
1603.44	58
1604.48	58.5
1605.52	57
1606.56	57.5
1607.6	51.5
1608.64	54.5
1609.68	50.5
1610.72	55
1611.76	50.5
1612.8	50.5
1613.84	51
1614.88	56.5
1615.92	56
1616.96	52.5
1618	49
1619.04	55.5
1620.08	53
1621.12	47
1622.16	47
1623.19	51
1624.23	52
1625.27	55.5
1626.31	52
1627.35	50.5
1628.38	54.5
1629.42	50
1630.46	56.5
1631.5	51
1632.53	48.5
1633.57	53
1634.61	55
1635.64	53
1636.68	53
1637.71	51
1638.75	50
1639.79	46.5
1640.82	51
1641.86	54
1642.89	52
1643.93	48
1644.96	58
1646	49
1647.03	46.5
1648.07	55.5
1649.1	52.5
1650.14	51.5
1651.17	48
1652.2	49
1653.24	48
1654.27	50.5
1655.3	52.5
1656.34	48
1657.37	50.5
1658.4	50
1659.44	50.5
1660.47	51
1661.5	51.5
1662.53	54
1663.57	51
1664.6	52
1665.63	50.5
1666.66	53
1667.69	48
1668.72	46.5
1669.75	49.5
1670.79	48
1671.82	53.5
1672.85	48
1673.88	41.5
1674.91	47
1675.94	55.5
1676.97	48.5
1678	49.5
1679.03	48.5
1680.06	48
1681.09	47
1682.11	51.5
1683.14	46
1684.17	48
1685.2	49.5
1686.23	51.5
1687.26	51
1688.29	49
1689.32	49.5
1690.34	47
1691.37	49.5
1692.4	49
1693.43	53
1694.45	51.5
1695.48	49
1696.51	52
1697.53	49.5
1698.56	58.5
1699.59	45
1700.61	49
1701.64	48
1702.66	46.5
1703.69	45.5
1704.72	46.5
1705.74	49.5
1706.77	49.5
1707.79	46.5
1708.82	49
1709.84	47.5
1710.87	48
1711.89	49
1712.92	48.5
1713.94	47.5
1714.96	47
1715.99	51.5
1717.01	52.5
1718.04	52
1719.06	49.5
1720.08	50.5
1721.11	48
1722.13	48.5
1723.15	50
1724.17	50
1725.2	48
1726.22	51.5
1727.24	50
1728.26	47
1729.28	48
1730.31	50
1731.33	52.5
1732.35	47.5
1733.37	49
1734.39	49
1735.41	48
1736.43	42.5
1737.45	52.5
1738.47	46.5
1739.49	49.5
1740.51	47.5
1741.53	46
1742.55	46.5
1743.57	47.5
1744.59	50.5
1745.61	46
1746.63	48
1747.65	43
1748.67	45.5
1749.69	46.5
1750.71	53
1751.72	49
1752.74	48
1753.76	48
1754.78	45
1755.8	51
1756.81	48
1757.83	47
1758.85	43
1759.86	46
1760.88	46.5
1761.9	50
1762.91	46
1763.93	48
1764.95	51
1765.96	51.5
1766.98	50
1768	52
1769.01	43.5
1770.03	44
1771.04	47
1772.06	48.5
1773.07	48
1774.09	47.5
1775.1	49.5
1776.12	47.5
1777.13	47
1778.14	50
1779.16	49
1780.17	44
1781.19	50
1782.2	47
1783.21	49
1784.23	48
1785.24	44.5
1786.25	45
1787.27	46.5
1788.28	52
1789.29	46
1790.3	50
1791.32	47.5
1792.33	44.5
1793.34	47.5
1794.35	40
1795.36	47.5
1796.37	52
1797.38	47.5
1798.4	49.5
1799.41	51.5
1800.42	48.5
1801.43	51
1802.44	45
1803.45	50.5
1804.46	44
1805.47	47
1806.48	46
1807.49	47.5
1808.5	42
1809.51	51.5
1810.52	49
1811.53	47
1812.53	43.5
1813.54	43
1814.55	44.5
1815.56	43
1816.57	48
1817.58	45
1818.58	49.5
1819.59	46
1820.6	49
1821.61	43.5
1822.61	46
1823.62	48.5
1824.63	47
1825.64	47
1826.64	45
1827.65	47
1828.66	48.5
1829.66	45
1830.67	45
1831.67	49
1832.68	46.5
1833.68	40.5
1834.69	43
1835.7	48
1836.7	47
1837.71	47.5
1838.71	46.5
1839.71	42
1840.72	47
1841.72	48
1842.73	45
1843.73	47.5
1844.74	42
1845.74	47.5
1846.74	45
1847.75	45.5
1848.75	42
1849.75	48
1850.76	45
1851.76	41.5
1852.76	45.5
1853.76	45.5
1854.77	44.5
1855.77	44
1856.77	42
1857.77	40.5
1858.77	46
1859.78	44
1860.78	48.5
1861.78	49.5
1862.78	46
1863.78	50
1864.78	46
1865.78	46
1866.78	45
1867.78	44.5
1868.78	47
1869.78	45.5
1870.78	47
1871.78	47.5
1872.78	46
1873.78	45.5
1874.78	47.5
1875.78	45.5
1876.78	41.5
1877.78	45.5
1878.78	45
1879.77	45
1880.77	48
1881.77	46
1882.77	48.5
1883.77	40
1884.76	39
1885.76	48.5
1886.76	45
1887.76	46
1888.75	44.5
1889.75	44
1890.75	47.5
1891.74	44.5
1892.74	50
1893.74	46.5
1894.73	48
1895.73	41
1896.72	43.5
1897.72	43.5
1898.72	43
1899.71	44
1900.71	44.5
1901.7	46.5
1902.7	47.5
1903.69	46
1904.69	44.5
1905.68	43.5
1906.67	44.5
1907.67	41
1908.66	45
1909.66	39
1910.65	45.5
1911.64	43
1912.64	41.5
1913.63	42.5
1914.62	43.5
1915.62	41.5
1916.61	47
1917.6	44.5
1918.59	46.5
1919.59	41.5
1920.58	43
1921.57	46.5
1922.56	49
1923.55	45.5
1924.55	45
1925.54	44
1926.53	49.5
1927.52	44.5
1928.51	47
1929.5	45.5
1930.49	48.5
1931.48	45.5
1932.47	43.5
1933.46	41.5
1934.45	46
1935.44	41
1936.43	41.5
1937.42	40.5
1938.41	43
1939.4	44.5
1940.39	43
1941.38	40
1942.37	43.5
1943.36	44
1944.34	43
1945.33	43.5
1946.32	44
1947.31	43.5
1948.3	45
1949.28	44
1950.27	45
1951.26	43.5
1952.25	44.5
1953.23	39.5
1954.22	44.5
1955.21	45.5
1956.2	43
1957.18	38.5
1958.17	43.5
1959.15	47
1960.14	38
1961.13	43.5
1962.11	47.5
1963.1	43
1964.08	43
1965.07	41
1966.05	41
1967.04	37.5
1968.02	46
1969.01	46
1969.99	43.5
1970.98	46
1971.96	47
1972.94	43
1973.93	42
1974.91	45
1975.9	42
1976.88	42
1977.86	47
1978.85	44.5
1979.83	38.5
1980.81	49
1981.8	40.5
1982.78	43
1983.76	44
1984.74	43
1985.72	43
1986.71	44
1987.69	39.5
1988.67	45.5
1989.65	41
1990.63	42
1991.61	40
1992.6	40
1993.58	43.5
1994.56	41.5
1995.54	42.5
1996.52	41.5
1997.5	44
1998.48	47
1999.46	41
2000.44	44
2001.42	44
2002.4	43
2003.38	45
2004.36	43
2005.34	43.5
2006.32	42.5
2007.29	39
2008.27	42
2009.25	44.5
2010.23	46
2011.21	44.5
2012.19	39
2013.16	45
2014.14	43
2015.12	40
2016.1	43.5
2017.07	46.5
2018.05	40
2019.03	44
2020	47
2020.98	40.5
2021.96	44.5
2022.93	47.5
2023.91	44.5
2024.89	42.5
2025.86	41.5
2026.84	39
2027.81	42.5
2028.79	43.5
2029.77	37
2030.74	41
2031.72	41
2032.69	44
2033.67	40
2034.64	37
2035.61	41
2036.59	40
2037.56	40.5
2038.54	39.5
2039.51	39
2040.48	42.5
2041.46	43
2042.43	45
2043.41	45
2044.38	43
2045.35	38
2046.32	38.5
2047.3	44
2048.27	38.5
2049.24	41.5
2050.21	38
2051.19	41
2052.16	41
2053.13	38
2054.1	42.5
2055.07	42.5
2056.04	40
2057.02	42
2057.99	39.5
2058.96	39.5
2059.93	40.5
2060.9	42
2061.87	39.5
2062.84	41
2063.81	40.5
2064.78	47
2065.75	39.5
2066.72	37
2067.69	43.5
2068.66	45
2069.63	42.5
2070.6	41.5
2071.57	42.5
2072.53	42
2073.5	41
2074.47	39
2075.44	39.5
2076.41	41.5
2077.38	37
2078.34	39.5
2079.31	39
2080.28	36
2081.25	42
2082.21	39
2083.18	41.5
2084.15	43
2085.12	39.5
2086.08	37.5
2087.05	39.5
2088.02	44
2088.98	39.5
2089.95	40
2090.91	44.5
2091.88	40.5
2092.85	39
2093.81	43
2094.78	47
2095.74	42.5
2096.71	40.5
2097.67	40
2098.64	41
2099.6	41.5
2100.57	41.5
2101.53	40.5
2102.5	41.5
2103.46	43
2104.42	38
2105.39	38
2106.35	38
2107.31	41.5
2108.28	40.5
2109.24	44.5
2110.2	43.5
2111.17	38
2112.13	43
2113.09	37
2114.06	41.5
2115.02	39
2115.98	44.5
2116.94	41
2117.9	43
2118.86	43
2119.83	50
2120.79	40.5
2121.75	43.5
2122.71	41
2123.67	42.5
2124.63	39
2125.59	38
2126.55	38.5
2127.51	40
2128.48	38
2129.43	40
2130.4	39.5
2131.35	41.5
2132.31	37.5
2133.27	40
2134.23	38.5
2135.19	40
2136.15	42
2137.11	40.5
2138.07	44
2139.03	40.5
2139.99	42
2140.95	41
2141.9	44
2142.86	39.514
2143.82	39.9679
2144.78	39.5077
2145.74	40.1068
2146.69	42.9971
2147.65	40.0578
2148.61	40.8852
2149.56	42.2358
2150.52	39.7956
2151.48	40.5237
2152.44	38.78
2153.39	40.4723
2154.35	37.377
2155.3	40.2465
2156.26	38.9059
2157.22	43.4118
2158.17	37.4377
2159.13	39.4004
2160.08	37.752
2161.04	41.2059
2161.99	39.0081
2162.95	41.4357
2163.9	40.6801
2164.86	38.7375
2165.81	41.9618
2166.77	40.7402
2167.72	40.347
2168.68	39.3432
2169.63	38.2148
2170.58	42.0399
2171.54	34.8325
2172.49	40.5972
2173.44	42.0728
2174.4	39.5121
2175.35	39.231
2176.3	40.1095
2177.26	36.5061
2178.21	39.3284
2179.16	39.3876
2180.11	42.0504
2181.07	43.3465
2182.02	43.07
2182.97	42.4497
2183.92	39.7388
2184.88	36.4754
2185.83	35.7174
2186.78	40.6937
2187.73	37.6615
2188.68	38.6681
2189.63	37.8569
2190.58	38.8474
2191.53	39.5225
2192.48	41.4692
2193.43	38.7094
2194.38	36.8992
2195.33	36.7587
2196.28	38.0136
2197.23	36.0317
2198.18	39.9946
2199.13	38.5859
2200.08	42.9972
2201.03	42.5018
2201.98	38.7351
2202.93	39.8524
2203.88	41.6469
2204.83	38.2249
2205.78	39.4284
2206.72	38.8206
2207.67	39.6399
2208.62	42.0674
2209.57	40.4759
2210.52	40.2827
2211.46	38.9779
2212.41	38.5704
2213.36	38.4466
2214.31	37.4314
2215.25	39.7519
2216.2	43.1139
2217.15	40.5941
2218.09	37.5831
2219.04	37.0366
2219.99	38.1662
2220.93	36.7876
2221.88	35.4026
2222.83	37.2791
2223.77	37.8011
2224.72	35.604
2225.66	41.5049
2226.61	39.2109
2227.55	42.0803
2228.5	35.2909
2229.44	39.555
2230.39	36.181
2231.33	35.6526
2232.28	37.3415
2233.22	39.614
2234.17	36.388
2235.11	37.4036
2236.05	37.971
2237	39.2051
2237.94	41.3578
2238.88	38.8298
2239.83	36.8303
2240.04	36.5
2240.98	39.5
2241.93	40.5
2242.88	39
2243.83	38.5
2244.78	40
2245.72	35
2246.67	40
2247.62	38
2248.56	41
2249.51	36.5
2250.46	38
2251.4	39
2252.35	41
2253.3	39
2254.24	37
2255.19	36
2256.14	39
2257.08	41
2258.03	40
2258.97	36.5
2259.92	39
2260.86	38
2261.81	40.5
2262.75	39
2263.7	41.5
2264.64	39
2265.59	34.5
2266.53	39
2267.48	35.5
2268.42	42
2269.36	42.5
2270.31	34.5
2271.25	38.5
2272.19	38.5
2273.14	38.5
2274.08	43
2275.02	38.5
2275.97	37
2276.91	39
2277.85	39
2278.8	39
2279.74	35.5
2280.68	38
2281.62	35
2282.56	36
2283.51	39
2284.45	41
2285.39	40.5
2286.33	38.5
2287.27	38.5
2288.21	42
2289.15	38
2290.09	39
2291.04	36.5
2291.98	39.5
2292.92	39
2293.86	40
2294.8	35
2295.74	41
2296.68	40.5
2297.62	39
2298.56	35
2299.5	40
2300.44	39.5
2301.37	35
2302.31	40.5
2303.25	40.5
2304.19	38
2305.13	33
2306.07	38.5
2307.01	36.5
2307.94	37
2308.88	39
2309.82	39.5
2310.76	40
2311.7	36
2312.63	40.5
2313.57	35.5
2314.51	38
2315.44	38
2316.38	42.5
2317.32	36
2318.26	39
2319.19	38.5
2320.13	36.5
2321.06	39
2322	41
2322.94	38.5
2323.87	36.5
2324.81	40
2325.74	36
2326.68	41.5
2327.61	40
2328.55	37.5
2329.48	39
2330.42	38
2331.35	41
2332.29	38.5
2333.22	40
2334.16	46
2335.09	41.5
2336.02	40
2336.96	36
2337.89	35.5
2338.83	40.5
2339.76	34.5
2340.69	36.5
2341.63	34
2342.56	34
2343.49	38.5
2344.42	37
2345.36	38
2346.29	43
2347.22	39.5
2348.15	34
2349.09	43.5
2350.02	34
2350.95	33
2351.88	34.5
2352.81	38.5
2353.74	37
2354.68	39
2355.61	38.5
2356.54	36.5
2357.47	33.5
2358.4	34
2359.33	40
2360.26	40.5
2361.19	39
2362.12	43.5
2363.05	40.5
2363.98	39
2364.91	36
2365.84	41
2366.77	41.5
2367.7	37.5
2368.63	40.5
2369.56	38
2370.49	41.5
2371.41	35
2372.34	36.5
2373.27	38
2374.2	38
2375.13	40
2376.06	33
2376.98	32
2377.91	40.5
2378.84	38.5
2379.77	38
2380.69	38
2381.62	32.5
2382.55	38.5
2383.47	35
2384.4	39
2385.33	37
2386.25	37.5
2387.18	35.5
2388.11	36.5
2389.03	37
2389.96	36
2390.89	38
2391.81	36.5
2392.74	35
2393.66	38
2394.59	39.5
2395.51	40
2396.44	37
2397.36	34
2398.29	38
2399.21	35.5
2400.14	37
2401.06	38
2401.99	36
2402.91	38
2403.83	38.5
2404.76	36.5
2405.68	40
2406.6	37
2407.53	43
2408.45	38.5
2409.37	35.5
2410.3	37.5
2411.22	38
2412.14	40
2413.06	38
2413.99	35
2414.91	41.5
2415.83	39
2416.75	41
2417.68	38
2418.6	35
2419.52	36
2420.44	40
2421.36	36.5
2422.28	38
2423.2	34.5
2424.12	35
2425.05	36.5
2425.97	36.5
2426.89	38
2427.81	36
2428.73	36
2429.65	36
2430.57	36.5
2431.49	38
2432.41	38
2433.33	37
2434.25	38.5
2435.17	42
2436.08	39
2437	37.5
2437.92	39
2438.84	39.5
2439.76	41.5
2440.68	40
2441.6	37
2442.51	41.5
2443.43	39
2444.35	37
2445.27	44.5
2446.19	34
2447.1	38
2448.02	32
2448.94	36
2449.85	39.5
2450.77	37
2451.69	36
2452.61	37
2453.52	38
2454.44	38.5
2455.35	36.5
2456.27	39
2457.19	37.5
2458.1	37
2459.02	37.5
2459.94	37
2460.85	38
2461.77	38.5
2462.68	40
2463.6	38
2464.51	36.5
2465.43	38
2466.34	39.5
2467.25	38
2468.17	43
2469.08	38
2470	40.5
2470.91	36.5
2471.83	35.5
2472.74	36.5
2473.65	37
2474.57	42
2475.48	36.5
2476.39	39
2477.31	37
2478.22	41
2479.13	39
2480.04	35
2480.96	39
2481.87	41
2482.78	39
2483.69	39
2484.6	41
2485.52	36.5
2486.43	34.5
2487.34	41
2488.25	37.5
2489.16	39
2490.07	41.5
2490.99	37.5
2491.9	42
2492.81	37.5
2493.72	44
2494.63	40.5
2495.54	45
2496.45	39.5
2497.36	42
2498.27	43.5
2499.18	39
2500.09	45.5
2501	36
2501.91	43
2502.82	42
2503.73	41
2504.63	43.5
2505.54	43
2506.45	37
2507.36	36
2508.27	37
2509.18	40.5
2510.09	39
2510.99	38.5
2511.9	39
2512.81	39.5
2513.72	40
2514.62	44
2515.53	38
2516.44	38
2517.35	39.5
2518.25	40
2519.16	37
2520.07	39.5
2520.97	35.5
2521.88	36.5
2522.79	36.5
2523.69	38.5
2524.6	38
2525.51	46
2526.41	40
2527.32	42.5
2528.22	30
2529.13	38
2530.03	37
2530.94	36
2531.84	37.5
2532.75	38
2533.65	36
2534.56	34
2535.46	38.5
2536.37	40.5
2537.27	40
2538.17	36.5
2539.08	39
2539.98	36
2540.89	34.5
2541.79	38.5
2542.69	39
2543.6	40.5
2544.5	35.5
2545.4	38.5
2546.31	40
2547.21	36.5
2548.11	31
2549.01	39.5
2549.92	39.5
2550.82	35.5
2551.72	39.5
2552.62	34
2553.52	39
2554.42	37.5
2555.33	39
2556.23	35
2557.13	35.5
2558.03	37
2558.93	34.5
2559.83	34
2560.73	36.5
2561.63	36
2562.53	38
2563.43	38
2564.33	37
2565.24	39
2566.13	35.5
2567.04	38
2567.93	36
2568.83	35.5
2569.73	39.5
2570.63	37
2571.53	38.5
2572.43	38
2573.33	35
2574.23	33
2575.13	37.5
2576.03	36
2576.92	40.5
2577.82	38.5
2578.72	37.5
2579.62	35
2580.52	32
2581.41	41
2582.31	33
2583.21	35
2584.11	35
2585	40.5
2585.9	37
2586.8	38.5
2587.69	34.5
2588.59	33.5
2589.49	31
2590.38	36
2591.28	38
2592.18	36.5
2593.07	39
2593.97	37
2594.86	37
2595.76	34
2596.66	37
2597.55	37
2598.45	34.5
2599.34	40.5
2600.24	41
2601.13	37.5
2602.03	37
2602.92	38
2603.81	39
2604.71	37.5
2605.6	37
2606.5	36
2607.39	32.5
2608.28	40
2609.18	38
2610.07	40.5
2610.97	36.5
2611.86	37.5
2612.75	38.5
2613.64	36.5
2614.54	34
2615.43	33
2616.32	39.5
2617.22	36
2618.11	38
2619	38.5
2619.89	38.5
2620.78	32.5
2621.68	35.5
2622.57	37
2623.46	37.5
2624.35	36.5
2625.24	35.5
2626.13	37
2627.02	29
2627.91	34
2628.81	32.5
2629.7	39
2630.59	30.5
2631.48	39
2632.37	37
2633.26	40
2634.15	38.5
2635.04	36.5
2635.93	35.5
2636.82	35.5
2637.71	33.5
2638.59	34.5
2639.48	36
2640.37	33.5
2641.26	36
2642.15	33
2643.04	39
2643.93	34
2644.82	33
2645.71	32.5
2646.59	34.5
2647.48	33.5
2648.37	38
2649.26	37.5
2650.15	39.5
2651.03	38
2651.92	38.5
2652.81	34.5
2653.69	35.5
2654.58	35
2655.47	36.5
2656.35	35.5
2657.24	36
2658.13	33
2659.01	32
2659.9	38
2660.79	36.5
2661.67	37
2662.56	36
2663.44	34
2664.33	35.5
2665.22	38.5
2666.1	33
2666.99	34.5
2667.87	35.5
2668.76	43.5
2669.64	35
2670.52	32.5
2671.41	37.5
2672.29	39
2673.18	32
2674.06	33
2674.95	34
2675.83	36
2676.71	35.5
2677.6	41.5
2678.48	32.5
2679.36	37
2680.25	32.5
2681.13	43.5
2682.01	34.5
2682.9	42
2683.78	32.5
2684.66	33.5
2685.55	39.5
2686.43	40
2687.31	36.5
2688.19	37.5
2689.07	36
2689.96	37
2690.84	42
2691.72	37.5
2692.6	34
2693.48	34.5
2694.36	40
2695.24	38.5
2696.12	33.5
2697	37.5
2697.89	33
2698.77	34
2699.65	37
2700.53	34
2701.41	35
2702.29	35.5
2703.17	39.5
2704.05	39.5
2704.93	36
2705.81	36
2706.69	33
2707.57	36.5
2708.44	34
2709.32	37.5
2710.2	40.5
2711.08	37
2711.96	34.5
2712.84	38.5
2713.72	37
2714.59	37.5
2715.47	33
2716.35	34
2717.23	39.5
2718.11	35
2718.98	39.5
2719.86	39
2720.74	32
2721.62	37.5
2722.49	33
2723.37	38
2724.25	37
2725.12	34
2726	35.5
2726.88	36.5
2727.75	40.5
2728.63	34.5
2729.51	31
2730.38	34.5
2731.26	38
2732.13	42
2733.01	35.5
2733.88	40
2734.76	33
2735.63	38
2736.51	39
2737.38	38
2738.26	32
2739.13	33
2740.01	33.5
2740.88	36
2741.76	34
2742.63	39
2743.5	37.5
2744.38	39.5
2745.25	38
2746.13	33
2747	34
2747.87	35.5
2748.75	39
2749.62	36.5
2750.49	37.5
2751.36	36.5
2752.24	37
2753.11	35
2753.98	30.5
2754.86	39
2755.73	37
2756.6	37
2757.47	42
2758.34	43.5
2759.22	36
2760.09	36.5
2760.96	37
2761.83	39
2762.7	39.5
2763.57	37
2764.44	41
2765.31	39.5
2766.18	39
2767.06	39.5
2767.93	35.5
2768.8	40.5
2769.67	38.5
2770.54	38
2771.41	43
2772.28	38
2773.15	41.5
2774.02	40
2774.89	39.5
2775.75	41
2776.62	42.5
2777.49	43
2778.36	44
2779.23	40.5
2780.1	45.5
2780.97	44.5
2781.84	47
2782.71	40.5
2783.57	50
2784.44	44.5
2785.31	46
2786.18	48.5
2787.04	52.5
2787.91	48.5
2788.78	48.5
2789.65	58.5
2790.51	51
2791.38	55.5
2792.25	52
2793.12	51
2793.98	55.5
2794.85	51
2795.72	55.5
2796.58	51.5
2797.45	53
2798.31	50.5
2799.18	52
2800.05	57.5
2800.91	57.5
2801.78	52.5
2802.64	57
2803.51	59.5
2804.37	58.5
2805.24	56.5
2806.1	53.5
2806.97	53.5
2807.83	52
2808.7	48
2809.56	61
2810.43	60
2811.29	59.5
2812.15	53
2813.02	53
2813.88	58
2814.75	53
2815.61	50.5
2816.47	55
2817.34	56.5
2818.2	56.5
2819.06	58
2819.92	50.5
2820.79	58
2821.65	53
2822.51	55
2823.37	54
2824.24	56
2825.1	58
2825.96	56
2826.82	51
2827.69	56
2828.55	55
2829.41	53.5
2830.27	54.5
2831.13	53
2831.99	57.5
2832.85	51
2833.71	51
2834.58	53
2835.44	62.5
2836.3	53
2837.16	53
2838.02	58.5
2838.88	54
2839.74	51
2840.6	54
2841.46	57.5
2842.32	53
2843.18	53
2844.04	57.5
2844.9	60
2845.75	55
2846.61	57
2847.47	56.5
2848.33	53.5
2849.19	61
2850.05	52
2850.91	57
2851.77	60
2852.62	58
2853.48	56.5
2854.34	54
2855.2	57.5
2856.06	59.5
2856.91	61
2857.77	58.5
2858.63	57.5
2859.48	65.5
2860.34	63
2861.2	63.5
2862.06	59
2862.91	59.5
2863.77	72
2864.63	66.5
2865.48	67
2866.34	67
2867.19	73.5
2868.05	77.5
2868.91	76
2869.76	69.5
2870.62	80
2871.47	84.5
2872.33	83
2873.18	88
2874.04	86.5
2874.89	88.5
2875.75	92.5
2876.6	96
2877.46	100
2878.31	103
2879.17	99.5
2880.02	106.5
2880.88	108
2881.73	109.5
2882.58	116
2883.44	126
2884.29	129
2885.14	136
2886	142
2886.85	143
2887.7	158
2888.56	155
2889.41	166
2890.26	180
2891.12	191
2891.97	196.5
2892.82	218.5
2893.67	237.5
2894.52	248
2895.38	269
2896.23	284.5
2897.08	297.5
2897.93	335
2898.78	352.5
2899.64	369.5
2900.49	400.5
2901.34	427
2902.19	452.5
2903.04	462.5
2903.89	475
2904.74	510
2905.59	510.5
2906.44	507
2907.29	525
2908.14	503.5
2908.99	492
2909.84	459.5
2910.69	437
2911.54	411.5
2912.39	383
2913.24	363
2914.09	333.5
2914.94	299.5
2915.79	272.5
2916.64	246.5
2917.49	236
2918.34	221
2919.18	200
2920.03	187
2920.88	182
2921.73	165
2922.58	145
2923.42	135.5
2924.27	140
2925.12	133.5
2925.97	120
2926.82	113
2927.66	111.5
2928.51	107.5
2929.36	106.5
2930.2	97
2931.05	98
2931.9	96.5
2932.74	97
2933.59	98.5
2934.44	87.5
2935.28	86
2936.13	79.5
2936.98	82
2937.82	86
2938.67	84
2939.51	87.5
2940.36	84.5
2941.2	83
2942.05	83
2942.9	90
2943.74	76
2944.58	87
2945.43	86
2946.27	87
2947.12	90
2947.96	94
2948.81	91
2949.65	92
2950.5	99
2951.34	96.5
2952.18	104.5
2953.03	117.5
2953.87	120
2954.71	126
2955.56	130.5
2956.4	132
2957.24	151.5
2958.09	161
2958.93	174.5
2959.77	182
2960.62	189
2961.46	210.5
2962.3	222
2963.14	235
2963.98	236.5
2964.83	242.5
2965.67	243
2966.51	233
2967.35	230.5
2968.19	237.5
2969.04	216.5
2969.88	210.5
2970.72	206
2971.56	190.954
2972.4	179.83
2973.24	172.37
2974.08	167.278
2974.92	152.112
2975.76	148.52
2976.6	132.962
2977.44	130.056
2978.28	122.517
2979.12	116.737
2979.96	113.39
2980.8	104.039
2981.64	97.6486
2982.48	91.1439
2983.32	90.8907
2984.16	84.1906
2985	83.7597
2985.84	82.226
2986.68	78.3874
2987.52	72.2406
2988.35	71.6225
2989.19	72.2459
2990.03	67.2839
2990.87	69.2518
2991.71	63.9635
2992.55	60.2825
2993.38	63.2147
2994.22	62.2466
2995.06	61.1481
2995.9	58.5018
2996.73	56.4081
2997.57	53.9298
2998.41	54.4667
2999.25	56.5065
3000.08	50.136
3000.92	51.3953
3001.76	49.8444
3002.59	51.0822
3003.43	48.4073
3004.27	50.9763
3005.1	50.3161
3005.94	47.9146
3006.78	44.4871
3007.61	48.296
3008.45	46.5297
3009.28	45.4277
3010.12	45.0485
3010.95	45.1781
3011.79	44.1165
3012.62	45.3902
3013.46	43.6923
3014.29	42.794
3015.13	40.4361
3015.96	43.7791
3016.8	43.025
3017.63	41.8365
3018.47	43.9558
3019.3	43.0297
3020.14	40.6732
3020.97	42.5466
3021.8	40.7004
3022.64	39.4977
3023.47	40.3134
3024.3	39.0092
3025.14	41.0178
3025.97	40.7127
3026.8	38.7084
3027.64	41.3277
3028.47	39.2149
3029.3	37.8419
3030.14	37.3582
3030.97	40.3096
3031.8	39.9827
3032.63	37.2686
3033.46	36.8724
3034.3	38.2568
3035.13	39.6145
3035.96	39.6587
3036.79	40.0485
3037.62	39.9588
3038.46	39.3296
3039.29	40
3040.12	40.8956
3040.95	39.0002
3041.78	37.0816
3042.61	37.0752
3043.44	36.6555
3044.27	35.2364
3045.1	38.3079
3045.93	38.2984
3046.76	37.3495
3047.59	36.9309
3048.42	36.5959
3049.25	37.236
3050.08	39.1442
3050.91	38.6303
3051.74	36.4608
3052.57	34.6234
3053.4	36.8606
3054.23	34.9417
3055.06	38.0959
3055.89	42.0829
3056.72	40.82
3057.32	36.5
3058.15	38.5
3058.98	38
3059.82	38
3060.65	31
3061.48	39
3062.31	33
3063.15	35.5
3063.98	37
3064.81	43
3065.64	35
3066.48	33
3067.31	34
3068.14	39.5
3068.97	36
3069.8	34.5
3070.63	34
3071.47	39.5
3072.3	36.5
3073.13	35
3073.96	37
3074.79	39.5
3075.62	38.5
3076.45	33.5
3077.28	37
3078.11	36
3078.94	35
3079.77	37
3080.6	37
3081.43	39
3082.26	39
3083.09	39.5
3083.92	38
3084.75	43.5
3085.58	36.5
3086.41	39
3087.24	38
3088.07	37
3088.9	36.5
3089.73	34.5
3090.55	36
3091.38	40.5
3092.21	38
3093.04	36.5
3093.87	39
3094.7	39
3095.52	33
3096.35	38.5
3097.18	36
3098.01	38
3098.84	38.5
3099.66	39
3100.49	38
3101.32	39
3102.14	37.5
3102.97	38
3103.8	39
3104.62	37.5
3105.45	34.5
3106.28	40.5
3107.1	36
3107.93	38
3108.76	37.5
3109.58	37.5
3110.41	38
3111.23	35.5
3112.06	39
3112.89	36.5
3113.71	35.5
3114.54	34.5
3115.36	41.5
3116.19	37
3117.01	40
3117.84	39
3118.66	40
3119.49	38
3120.31	36.5
3121.13	38
3121.96	40.5
3122.78	38
3123.61	40
3124.43	38
3125.25	35
3126.08	38.5
3126.9	36
3127.73	38
3128.55	34
3129.37	37.5
3130.19	41
3131.02	37
3131.84	33.5
3132.66	35
3133.49	37
3134.31	41
3135.13	39
3135.95	34.5
3136.78	35.5
3137.6	38.5
3138.42	34
3139.24	37.5
3140.06	37.5
3140.88	35
3141.71	35.5
3142.53	37
3143.35	36.5
3144.17	36
3144.99	33.5
3145.81	32
3146.63	32
3147.45	34
3148.27	40
3149.09	30
3149.91	30
3150.73	38
3151.56	33
3152.37	32
3153.2	39
3154.01	40
3154.83	32.5
3155.65	33.5
3156.47	31.5
3157.29	32
3158.11	33
3158.93	36.5
3159.75	30.5
3160.57	33
3161.39	32
3162.21	33
3163.02	38
3163.84	29
3164.66	32
3165.48	33
3166.3	37.5
3167.11	33
3167.93	30
3168.75	33
3169.57	31
3170.39	33
3171.2	35
3172.02	35
3172.84	34
3173.65	31.5
3174.47	32
3175.29	36
3176.1	30.5
3176.92	32.5
3177.74	32
3178.55	35.5
3179.37	31.5
3180.19	34
3181	28.5
3181.82	30
3182.63	29
3183.45	34
3184.27	34.5
3185.08	27
3185.9	32.5
3186.71	36.5
3187.53	33.5
3188.34	31
3189.16	32
3189.97	32
3190.79	31
3191.6	31
3192.41	32
3193.23	30
3194.04	35
3194.86	30.5
3195.67	32
3196.48	31
3197.3	37.5
3198.11	31
3198.93	34
3199.74	36.5
3200.55	33
3201.36	27.5
3202.18	35
3202.99	36.5
3203.8	36.5
3204.62	27
3205.43	34
3206.24	36
3207.05	32.5
3207.87	30.5
3208.68	30.5
3209.49	32
3210.3	29.5
3211.11	27
3211.93	32
3212.74	32
3213.55	30.5
3214.36	27
3215.17	30
3215.98	31
3216.79	34
3217.6	25
3218.41	28.5
3219.22	32.5
3220.03	29.5
3220.85	32.5
3221.66	29
3222.47	31.5
3223.28	31
3224.09	29.5
3224.9	31
3225.71	29.5
3226.52	28.5
3227.33	30
3228.13	28.5
3228.94	35.5
3229.75	29.5
3230.56	34.5
3231.37	32.5
3232.18	28
3232.99	31
3233.8	32
3234.61	29
3235.41	34
3236.22	30
3237.03	28
3237.84	33.5
3238.65	32
3239.45	31
3240.26	29
3241.07	31
3241.88	32.5
3242.68	28.5
3243.49	35.5
3244.3	33
3245.1	32
3245.91	28
3246.72	34.5
3247.53	31
3248.33	32.5
3249.14	30.5
3249.95	28.5
3250.75	29.5
3251.56	29
3252.36	33
3253.17	31.5
3253.97	27
3254.78	34
3255.59	32.5
3256.39	29
3257.2	27
3258	31.5
3258.81	29
3259.61	29
3260.42	30.5
3261.22	30
3262.03	32
3262.83	32.5
3263.64	29
3264.44	33.5
3265.24	25.5
3266.05	30
3266.85	28
3267.66	27
3268.46	30
3269.26	31
3270.07	32
3270.87	28
3271.67	26
3272.48	30
3273.28	33.5
3274.08	28.5
3274.89	29.5
3275.69	30.5
3276.49	28
3277.29	32.5
3278.1	32.5
3278.9	30.5
3279.7	31.5
3280.5	26
3281.3	30
3282.11	34.5
3282.91	31
3283.71	32.5
3284.51	34
3285.31	27.5
3286.11	30
3286.91	36
3287.72	28.5
3288.52	28.5
3289.32	32
3290.12	31.5
3290.92	31
3291.72	31
3292.52	31
3293.32	33
3294.12	28.5
3294.92	32.5
3295.72	32
3296.52	34
3297.32	32.5
3298.12	30
3298.92	31
3299.72	31
3300.52	34.5
3301.32	29
3302.12	29
3302.92	31.5
3303.71	32
3304.51	32.5
3305.31	33
3306.11	28.5
3306.91	31
3307.71	29
3308.5	35
3309.3	30.5
3310.1	32.5
3310.9	33.5
3311.7	35
3312.49	36.5
3313.29	30
3314.09	30
3314.89	31.5
3315.68	33
3316.48	32
3317.28	29
3318.07	31
3318.87	34
3319.67	33.5
3320.46	31
3321.26	34.5
3322.06	29
3322.85	33.5
3323.65	32
3324.44	29.5
3325.24	32
3326.04	30
3326.83	30.5
3327.63	32
3328.42	29
3329.22	32
3330.01	30.5
3330.81	29
3331.6	29.5
3332.4	28
3333.19	28
3333.99	29
3334.78	29
3335.58	26
3336.37	29
3337.17	28
3337.96	33
3338.75	23
3339.55	27
3340.34	31.5
3341.13	32.5
3341.93	29
3342.72	30
3343.51	30
3344.31	32.5
3345.1	32.5
3345.89	30
3346.69	29.5
3347.48	25.5
3348.27	30
3349.06	33
3349.86	29
3350.65	29
3351.44	31.5
3352.23	30
3353.03	32
3353.82	35.5
3354.61	27.5
3355.4	32
3356.19	31.5
3356.98	27.5
3357.78	30
3358.57	30.5
3359.36	33
3360.15	32
3360.94	27
3361.73	31
3362.52	28.5
3363.31	30
3364.1	32
3364.89	30.5
3365.68	34
3366.47	31.5
3367.26	29
3368.05	29
3368.84	28
3369.63	31
3370.42	27
3371.21	27
3372	32
3372.79	28
3373.58	29.5
3374.37	26
3375.16	30
3375.95	29
3376.73	23
3377.52	31.5
3378.31	33.5
3379.1	35
3379.89	30.5
3380.68	28
3381.46	31
3382.25	29.5
3383.04	30
3383.83	29
3384.62	29
3385.4	28
3386.19	29
3386.98	30.5
3387.76	28
3388.55	25.5
3389.34	29.5
3390.13	28.5
3390.91	31
3391.7	34
3392.49	32
3393.27	33.5
3394.06	33
3394.84	33
3395.63	28.5
3396.42	26.5
3397.2	30.5
3397.99	29.5
3398.77	29
3399.56	30
3400.34	31
3401.13	25.5
3401.92	28
3402.7	30.5
3403.49	31
3404.27	36
3405.06	31
3405.84	30
3406.62	35.5
3407.41	27
3408.19	30
3408.98	33.5
3409.76	31
3410.55	28.5
3411.33	29.5
3412.11	28
3412.9	28.5
3413.68	28
3414.46	29.5
3415.25	30
3416.03	32.5
3416.81	28
3417.6	29.5
3418.38	30
3419.16	30
3419.95	28.5
3420.73	27
3421.51	33
3422.29	30
3423.08	27.5
3423.86	30
3424.64	32.5
3425.42	31
3426.2	31.5
3426.98	28.5
3427.77	27.5
3428.55	29
3429.33	32.5
3430.11	32.5
3430.89	29
3431.67	31
3432.45	32.5
3433.24	29
3434.02	27
3434.8	31.5
3435.58	31.5
3436.36	30
3437.14	33.5
3437.92	33
3438.7	29.5
3439.48	26
3440.26	28.5
3441.04	31
3441.82	30.5
3442.6	29
3443.38	27
3444.16	29
3444.94	35
3445.71	30
3446.49	29.5
3447.27	33
3448.05	28
3448.83	30
3449.61	32.5
3450.39	30
3451.17	31
3451.94	31
3452.72	33.5
3453.5	31.5
3454.28	24
3455.06	29
3455.83	30
3456.61	30
3457.39	29
3458.17	29.5
3458.94	25
3459.72	31
3460.5	31
3461.28	32.5
3462.05	31.5
3462.83	31
3463.61	30.5
3464.38	29
3465.16	32
3465.93	28
3466.71	31
3467.49	28
3468.26	28.5
3469.04	29
3469.82	32
3470.59	31.5
3471.37	27
3472.14	31.5
3472.92	24
3473.69	27.5
3474.47	29
3475.24	26.5
3476.02	31
3476.79	32
3477.57	32
3478.34	28.5
3479.12	32
3479.89	29
3480.67	31
3481.44	21
3482.21	27
3482.99	32
3483.76	28
3484.54	26
3485.31	30
3486.08	30.5
3486.86	31.5
3487.63	28.5
3488.4	28
3489.18	29
3489.95	32
3490.72	27
3491.5	32.5
3492.27	31
3493.04	28
3493.81	33
3494.59	27.5
3495.36	28
3496.13	30
3496.9	27.5
3497.67	28
3498.45	31.5
3499.22	31.5
3499.99	30
