#Acq. time (s)=	5
#Accumulations=	5
#Range (cm-¹)=	100...3500
#Windows=	4
#Autofocus=	Off
#AutoExposure=	Off
#Spike filter=	Multiple accum.
#Delay time (s)=	0
#Binning=	1
#Readout mode=	Signal
#DeNoise=	Off
#ICS correction=	Off
#Dark correction=	Off
#Inst. Process=	Off
#Instrument=	LabRAM HR Evol
#Detector=	Syncerity OE
#Objective=	x100_VIS
#Grating=	600 (500nm)
#ND Filter=	25%
#Laser=	633nm_Edge
#Hole=	100.021
#Range=	Visible
#Project=	verificaciones
#Sample=	a4
#Site=	plain
#Title=	bolusa4plain
#Remark=	com
#Date=	16.01.2026 12:26
#Acquired=	16.01.2026 12:26:25
100.687	30.5
101.971	36
103.254	37
104.537	32.5
105.82	32
107.103	35
108.387	30
109.669	34.5
110.951	33.5
112.233	35.5
113.514	32
114.796	34.5
116.077	32.5
117.358	37
118.639	36.5
119.919	33
121.2	34.5
122.48	38
123.76	33
125.039	30.5
126.319	39.5
127.598	35
128.877	35
130.156	38.5
131.435	41.5
132.713	37
133.992	34
135.268	42
136.546	39
137.824	45
139.101	39.5
140.378	42
141.655	40
142.932	42.5
144.209	44.5
145.485	42.5
146.76	46.5
148.036	44.5
149.312	39
150.587	48
151.862	51.5
153.138	52.5
154.411	49.5
155.686	46
156.96	48
158.235	49
159.509	50.5
160.781	48
162.055	46
163.328	47
164.602	45.5
165.873	44.5
167.146	46
168.419	44
169.691	46
170.962	50
172.234	46.5
173.506	44.5
174.777	47
176.047	43
177.318	49
178.589	42
179.859	45
181.129	47
182.4	47
183.668	50
184.938	44
186.207	52.5
187.476	46
188.746	50
190.013	48
191.282	47
192.551	53
193.818	44
195.086	51
196.353	49
197.621	50
198.887	43.5
200.154	49
201.422	41.5
202.687	43.5
203.954	43.5
205.219	40.5
206.486	46.5
207.751	41
209.017	41.5
210.281	37
211.547	43.5
212.811	33.5
214.076	37.5
215.339	36.5
216.603	37.5
217.867	33
219.13	38
220.395	38
221.657	38
222.921	40
224.183	36
225.445	34
226.708	33
227.97	33
229.232	34.5
230.493	34
231.754	34
233.016	37.5
234.277	30.5
235.537	33.5
236.799	30.5
238.059	34.5
239.318	28
240.579	29
241.839	35
243.098	33
244.358	33.5
245.617	31
246.875	31.5
248.133	32.5
249.393	32.5
250.651	31
251.908	34
253.166	29
254.424	30
255.681	32
256.938	33
258.195	27
259.451	30
260.709	34
261.965	30.5
263.221	33
264.476	34.5
265.732	31.5
266.988	31
268.243	30.5
269.498	30
270.753	32
272.007	32.5
273.261	33
274.515	30
275.769	30.5
277.022	27
278.277	27
279.53	30
280.783	33.5
282.036	27.5
283.289	30
284.541	31.5
285.793	27
287.045	30.5
288.297	27
289.548	26
290.8	30
292.051	30
293.302	29.5
294.552	29.5
295.803	32
297.053	33.5
298.303	30
299.553	31
300.803	32.5
302.053	30.5
303.302	30
304.551	26
305.8	28
307.047	31
308.296	30.5
309.544	30
310.792	30.5
312.04	25
313.288	31
314.535	29.5
315.783	33
317.03	30
318.275	28
319.522	28
320.768	31
322.015	28.5
323.261	32
324.505	32
325.751	30
326.997	27
328.242	30
329.487	29
330.73	29.5
331.975	27.5
333.22	29
334.464	27
335.707	28.5
336.95	32
338.194	28
339.438	31
340.68	33
341.923	27.5
343.166	29.5
344.407	29
345.649	29
346.892	30
348.132	31
349.374	27
350.616	31
351.856	29.5
353.097	29
354.337	34.5
355.578	31
356.818	29
358.058	29
359.298	28.5
360.536	34
361.776	32
363.016	29
364.254	29.5
365.493	29.5
366.731	34.5
367.97	31.5
369.207	29
370.446	27
371.683	27.5
372.921	32
374.157	29.5
375.395	32
376.631	27
377.868	26.5
379.104	25.5
380.341	29.5
381.576	27
382.813	31.5
384.048	32.5
385.284	29
386.518	30
387.753	32
388.988	25
390.222	31
391.457	29.5
392.691	30.5
393.924	27.5
395.159	31
396.392	28.5
397.624	28
398.858	27
400.091	24
401.323	29
402.556	29.5
403.788	27
405.019	30
406.252	30.5
407.483	28
408.714	28.5
409.945	30.5
411.177	29.5
412.407	28.5
413.637	30.5
414.867	28.5
416.099	30.5
417.328	30.5
418.558	31.5
419.787	31
421.016	26
422.246	31
423.475	26.5
424.703	29
425.931	28
427.159	25
428.388	26.5
429.616	29.5
430.843	27
432.071	29.5
433.298	33
434.524	31
435.751	30
436.977	28.5
438.204	30.5
439.431	28.5
440.657	31.5
441.883	33
443.108	31
444.333	27
445.558	30.5
446.783	28.5
448.008	33
449.232	33.5
450.457	31
451.681	29
452.905	31.5
454.128	33
455.352	30
456.575	33
457.798	34
459.021	33
460.244	31
461.466	32
462.689	29.5
463.909	33
465.131	36.5
466.353	35.5
467.575	36.5
468.796	36.5
470.017	36
471.238	36.5
472.459	37
473.679	38.5
474.898	43.5
476.118	47
477.338	52
478.558	53
479.778	60.5
480.997	60
482.215	66
483.434	62.5
484.653	68
485.871	72
487.09	69.5
488.307	72
489.525	76.5
490.743	73
491.96	73.5
493.176	62
494.394	69
495.611	60
496.826	55
498.043	56.5
499.259	56.5
500.474	59.5
501.69	52.5
502.906	45
504.121	46.5
505.336	40
506.551	44
507.765	42.5
508.98	38.5
510.195	39
511.408	42
512.622	41.5
513.835	38
515.049	35
516.263	35.5
517.475	38
518.689	40.5
519.9	35.5
521.113	34
522.325	34.5
523.537	37
524.748	35
525.961	32.5
527.171	29
528.383	29.5
529.594	32.5
530.805	36
532.015	35.5
533.226	33
534.435	29
535.646	30
536.855	28.5
538.066	32
539.274	29
540.483	27
541.693	29
542.901	29.5
544.11	29
545.318	31.5
546.526	28
547.734	30.5
548.942	28
550.149	30.5
551.357	27
552.563	25
553.77	30.5
554.978	26.5
556.184	29
557.389	28.5
558.596	29
559.802	28
561.007	34.5
562.212	31
563.419	25
564.623	30
565.828	30
567.032	30
568.238	28
569.442	29.5
570.646	30.5
571.849	25
573.054	30.5
574.257	24.5
575.46	29
576.663	33
577.866	27
579.068	30
580.272	28
581.474	27
582.676	30
583.877	31
585.079	30
586.28	28
587.481	27
588.682	27.5
589.883	27.5
591.083	31
592.285	28.5
593.485	28
594.685	33
595.885	30
597.084	33.5
598.284	27.5
599.483	31
600.682	29.5
601.881	26
603.08	34
604.278	31
605.476	29.5
606.674	27
607.872	28
609.07	26
610.266	27.5
611.463	29
612.661	27
613.857	26.5
615.054	25
616.251	28.5
617.447	29.5
618.643	30.5
619.839	26.5
621.035	28
622.229	30
623.425	30.5
624.62	28
625.815	31.5
627.01	30.5
628.205	30
629.398	27
630.592	28.5
631.786	30
632.98	26.5
634.172	26.5
635.366	30.5
636.559	26.5
637.753	26
638.944	26
640.137	30
641.33	28.5
642.522	29
643.713	28.5
644.905	32
646.097	33
647.287	28
648.478	27.5
649.67	32.5
650.859	33
652.05	35
653.241	32.5
654.43	27.5
655.621	32.5
656.811	30.5
657.999	28
659.189	30
660.378	29.5
661.567	28.5
662.755	33
663.944	30.5
665.133	32
666.32	32
667.508	30
668.695	32
669.884	25
671.07	29.5
672.258	34
673.444	32.5
674.631	32
675.817	30
677.004	34.5
678.19	30.5
679.376	34
680.561	33
681.746	34
682.932	38
684.117	40
685.302	34
686.487	40.5
687.672	39.5
688.856	36.5
690.039	36.5
691.224	38
692.407	37.5
693.59	34
694.774	38.5
695.957	38.5
697.14	42
698.323	37
699.505	39
700.687	47
701.87	45
703.052	50
704.233	48.5
705.414	56.5
706.597	56
707.778	60.5
708.958	61.5
710.139	61
711.32	57.5
712.5	51.5
713.68	51
714.86	44.5
716.039	38.5
717.22	40.5
718.399	34
719.578	35
720.757	32.5
721.935	29
723.114	34
724.292	29
725.471	27
726.649	29.5
727.827	32.5
729.004	32
730.182	31.5
731.359	27.5
732.536	29
733.712	28
734.889	29
736.065	29.5
737.242	27
738.418	26.5
739.593	26
740.769	28
741.945	26
743.12	26
744.295	28
745.47	28
746.644	33
747.819	34
748.993	27
750.168	29
751.342	29
752.515	25.5
753.689	30.5
754.862	30.5
756.036	27
757.209	23.5
758.382	24.5
759.553	29.5
760.725	28
761.898	25
763.07	26.5
764.242	32.5
765.414	27
766.584	33.5
767.755	29.5
768.927	31.5
770.098	28
771.269	28.5
772.438	31
773.608	28
774.779	29
775.949	30.5
777.117	33
778.287	34.5
779.457	32.5
780.626	29
781.794	33
782.963	27.5
784.132	31.5
785.299	32
786.468	35
787.636	34.5
788.803	33.5
789.971	30.5
791.139	26
792.305	29
793.472	29.5
794.638	33
795.805	31
796.972	31
798.138	30.5
799.304	32
800.469	31.5
801.635	31
802.801	29
803.966	32.5
805.131	32
806.295	34
807.461	29
808.624	26
809.789	33
810.952	24.5
812.117	31
813.28	26.5
814.444	29
815.607	32.5
816.769	27.5
817.933	29
819.095	27.5
820.258	24
821.42	30
822.583	28
823.744	25.5
824.905	26.5
826.068	30.5
827.228	28
828.389	29
829.551	29.5
830.711	28
831.871	27.5
833.032	27.5
834.192	29
835.352	31
836.513	29
837.672	32
838.831	27.5
839.99	26
841.15	27
842.308	28.5
843.466	31
844.624	29.5
845.784	26.5
846.941	30.5
848.099	29
849.256	31
850.414	29
851.572	29.5
852.729	31.5
853.886	28
855.042	28
856.198	30
857.355	27
858.512	28
859.668	29
860.823	33
861.979	27.5
863.134	34.5
864.289	31.5
865.444	30.5
866.599	25.5
867.753	31.5
868.908	30.5
870.062	26
871.216	27
872.37	29.5
873.523	29
874.677	26
875.83	31
876.983	30
878.136	27
879.289	29.5
880.441	29
881.594	27.5
882.746	27.5
883.898	23
885.05	31
886.201	30
887.353	30
888.504	23
889.655	26.5
890.806	26.5
891.956	29
893.107	26.5
894.257	28
895.407	26
896.557	28
897.707	26.5
898.856	28.5
900.005	27
901.154	25
902.304	28
903.453	32
904.6	29
905.749	21
906.897	23.5
908.046	25
909.192	25.5
910.34	24.5
911.488	27.5
912.634	29
913.782	27.5
914.929	27.5
916.076	30.5
917.222	29
918.368	25.5
919.515	26
920.66	24
921.806	24
922.951	30
924.097	22.5
925.242	28.5
926.387	28
927.532	26.5
928.676	28
929.821	26.5
930.965	20
932.109	27
933.253	24
934.396	29
935.54	24
936.683	21
937.826	30
938.969	26.5
940.112	27.5
941.254	25.5
942.397	26
943.538	24
944.681	28.5
945.822	23.5
946.964	26
948.105	25
949.246	27
950.388	28
951.528	26.5
952.669	25
953.809	22.5
954.949	28.5
956.09	30
957.229	26.5
958.369	27
959.509	26
960.648	25.5
961.786	26
962.926	29.5
964.065	24.5
965.203	26
966.342	25.5
967.48	29.5
968.618	25
969.755	25.5
970.894	25.75
972.031	26
973.168	25
974.305	26
975.441	26
976.579	22
977.715	24
978.851	30
979.987	28.5
981.123	24.5
982.26	26
983.395	28
984.531	23.5
985.666	28
986.8	26
987.935	25.5
989.07	28.5
990.204	29
991.338	26.5
992.472	27
993.607	25
994.741	28.5
995.874	24.5
997.008	26.5
998.141	26.5
999.274	26.5
1000.41	27.5
1001.54	24
1002.67	30
1003.8	25
1004.94	23
1006.07	28
1007.2	25
1008.33	26.5
1009.46	25
1010.59	28.5
1011.72	26.5
1012.85	24
1013.99	25
1015.12	26
1016.25	27
1017.38	27
1018.51	30.5
1019.63	24.5
1020.76	23
1021.89	28
1023.02	26.5
1024.15	26
1025.28	28.5
1026.41	29.5
1027.54	29.5
1028.67	27
1029.79	26.5
1030.92	27
1032.05	23
1033.18	27
1034.3	28.5
1035.43	26.5
1036.56	22
1037.68	26
1038.81	24.5
1039.94	22
1041.06	27.5
1042.19	27
1043.31	26
1044.44	22.5
1045.57	26
1046.69	25
1047.82	24.5
1048.94	25
1050.07	25
1051.19	21.5
1052.31	25.5
1053.44	26.5
1054.56	23
1055.69	26
1056.81	26
1057.93	23
1059.06	24.5
1060.18	27
1061.3	25.5
1062.42	24.5
1063.55	28
1064.67	25
1065.79	24
1066.91	23
1068.03	25.5
1069.16	24
1070.28	25
1071.4	30
1072.52	27
1073.64	27.5
1074.76	26.5
1075.88	26
1077	21.5
1078.12	28
1079.24	28.5
1080.36	27.5
1081.48	28
1082.6	23
1083.72	30.5
1084.84	26
1085.96	27
1087.08	29
1088.2	28
1089.31	24.5
1090.43	24
1091.55	24
1092.67	24
1093.78	19.5
1094.9	28
1096.02	24.5
1097.14	25.5
1098.25	22
1099.37	26.5
1100.49	25
1101.6	27
1102.72	29.5
1103.83	23.5
1104.95	28
1106.07	22
1107.18	28.5
1108.3	26
1109.41	24.5
1110.52	28.5
1111.64	29.5
1112.75	23
1113.87	25
1114.98	26.5
1116.1	24
1117.21	24
1118.32	25.5
1119.44	23.5
1120.55	23
1121.66	27
1122.78	27.5
1123.89	24.5
1125	27.5
1126.11	25.5
1127.23	25.5
1128.34	23
1129.45	26
1130.56	24
1131.67	25
1132.78	24
1133.89	27.5
1135	27.5
1136.12	28.5
1137.23	24.5
1138.34	25
1139.45	27.5
1140.56	25.5
1141.67	27
1142.78	27
1143.89	24
1144.99	27
1146.1	21
1147.21	26
1148.32	23.5
1149.43	22.5
1150.54	23.5
1151.65	30.5
1152.75	22
1153.86	23.5
1154.97	23.5
1156.08	28
1157.18	27.5
1158.29	27
1159.4	24
1160.5	25.5
1161.61	26.5
1162.72	24
1163.82	28.5
1164.93	23
1166.03	24
1167.14	28.5
1168.24	28.5
1169.35	26
1170.45	26.5
1171.56	27
1172.66	30
1173.77	20
1174.87	25.5
1175.98	22
1177.08	24.5
1178.19	23
1179.29	24
1180.39	26
1181.5	26.5
1182.6	24
1183.7	25.5
1184.8	25
1185.91	29
1187.01	20
1188.11	30.5
1189.21	27
1190.32	24.5
1191.42	23.5
1192.52	23.5
1193.62	24
1194.72	25.4849
1195.82	22.971
1196.92	25.9734
1198.02	27.8909
1199.12	24.5247
1200.22	24.8106
1201.32	27.2531
1202.42	25.4663
1203.52	28.5548
1204.62	20.8926
1205.72	22.1367
1206.82	22.9527
1207.92	25.2596
1209.02	26.0184
1210.12	26.1283
1211.22	25.9935
1212.31	28.6812
1213.41	22.3815
1214.51	24.5107
1215.61	24.2112
1216.71	24.6994
1217.8	23.5335
1218.9	23.5871
1220	22.9565
1221.09	22.8838
1222.19	21.1819
1223.29	22.118
1224.38	19.8113
1225.48	24.0957
1226.58	27.0687
1227.67	26.9264
1228.77	23.218
1229.86	22.3339
1230.96	23.179
1232.05	22.0559
1233.15	22.012
1234.24	22.3403
1235.34	24.459
1236.43	26.4828
1237.52	24.2887
1238.62	23.2049
1239.71	27.394
1240.81	25.9097
1241.9	26.4442
1242.99	23.8641
1244.09	23.0083
1245.18	23.4968
1246.27	24.5777
1247.36	23.0402
1248.46	25.3781
1249.55	27.8007
1250.64	26.0583
1251.73	28.1313
1252.82	26.7892
1253.92	26.4266
1255.01	25.2772
1256.1	25.9378
1257.19	28.1314
1258.28	26.7218
1259.37	27.9551
1260.46	28.6189
1261.55	27.5371
1262.64	25.3048
1263.73	25.6655
1264.82	24.8417
1265.91	25.8545
1267	27.8624
1268.09	25.4475
1269.18	25.3799
1270.27	26.2329
1271.36	22.8859
1272.45	25.4371
1273.53	25.9683
1274.62	24.0967
1275.71	23.2106
1276.8	25.968
1277.89	23.0055
1278.97	22.6837
1280.06	24.5522
1281.15	23.7023
1282.23	21.0651
1283.32	22.6885
1284.41	24.2914
1285.49	23.716
1286.58	24.0582
1287.67	24.2551
1288.75	25.828
1289.84	26.914
1290.92	22.6134
1292.01	23.1418
1293.09	24.9385
1294.18	23.8697
1295.26	25.358
1296.35	23.6012
1297.43	23.861
1298.52	27.146
1299.6	23.6483
1300.69	21.1433
1301.77	21.5689
1302.85	25.1999
1303.94	24.9362
1305.02	24.896
1306.1	23.927
1306.42	23.5
1307.51	20
1308.59	24
1309.68	23
1310.77	24.5
1311.86	26.5
1312.95	26.5
1314.03	25
1315.12	25.5
1316.21	24
1317.29	26.5
1318.38	22
1319.47	24
1320.55	28
1321.64	23.5
1322.72	25.5
1323.81	29
1324.89	21
1325.98	22.5
1327.07	25
1328.15	23.5
1329.24	24
1330.32	24
1331.4	24.5
1332.49	26
1333.57	21.5
1334.66	22
1335.74	26.5
1336.82	24
1337.91	24
1338.99	27
1340.07	27
1341.16	24.5
1342.24	28.5
1343.32	26
1344.4	21
1345.49	25
1346.57	27
1347.65	26
1348.73	24.5
1349.81	23.5
1350.9	28
1351.98	22.5
1353.06	24.5
1354.14	25
1355.22	22.5
1356.3	25
1357.38	26.5
1358.46	23.5
1359.54	23.5
1360.62	25
1361.7	24
1362.78	27.5
1363.86	24
1364.94	22
1366.02	26.5
1367.1	23
1368.17	23.5
1369.25	22.5
1370.33	23.5
1371.41	24
1372.49	26
1373.57	24
1374.64	27
1375.72	21.5
1376.8	29
1377.87	27.5
1378.95	27.5
1380.03	21
1381.1	26.5
1382.18	28
1383.26	24
1384.33	27
1385.41	24
1386.49	26
1387.56	23.5
1388.64	30
1389.71	28.5
1390.79	25
1391.86	24.5
1392.94	27
1394.01	23
1395.08	27
1396.16	29
1397.23	26.5
1398.31	29.5
1399.38	33
1400.45	28.5
1401.53	29
1402.6	33
1403.67	31.5
1404.75	30
1405.82	32
1406.89	30
1407.96	33
1409.04	33
1410.11	37.5
1411.18	33.5
1412.25	31.5
1413.32	36.5
1414.39	30.5
1415.47	34
1416.54	31.5
1417.61	26
1418.68	31.5
1419.75	33
1420.82	32.5
1421.89	28
1422.96	27.5
1424.03	30
1425.1	27
1426.17	26.5
1427.24	28.5
1428.31	28
1429.38	26
1430.44	20.5
1431.51	28.5
1432.58	28.5
1433.65	27
1434.72	27.5
1435.79	27
1436.85	24
1437.92	24
1438.99	28
1440.05	28.5
1441.12	25.5
1442.19	23.5
1443.26	26.5
1444.32	26.5
1445.39	26
1446.46	30.5
1447.52	24
1448.59	24.5
1449.65	25.5
1450.72	25.5
1451.78	26
1452.85	25
1453.91	26
1454.98	27
1456.04	24.5
1457.11	27
1458.17	25
1459.24	24.5
1460.3	22
1461.36	25
1462.43	26
1463.49	26.5
1464.56	25.5
1465.62	26
1466.68	27
1467.74	27.5
1468.81	25.5
1469.87	22
1470.93	27
1471.99	26
1473.06	25.5
1474.12	26
1475.18	22
1476.24	22
1477.3	26
1478.36	23.5
1479.42	28.5
1480.49	26.5
1481.55	28
1482.61	26.5
1483.67	26.5
1484.73	25
1485.79	28
1486.85	25
1487.91	26.5
1488.97	22.5
1490.03	28
1491.09	26
1492.14	23
1493.2	26.5
1494.26	27
1495.32	21
1496.38	24.5
1497.44	27
1498.49	24
1499.55	23
1500.61	27.5
1501.67	21.5
1502.72	26.5
1503.78	29.5
1504.84	26.5
1505.89	30
1506.95	25
1508.01	26.5
1509.07	25
1510.12	28
1511.18	24.5
1512.23	30
1513.29	26.5
1514.34	25.5
1515.4	26.5
1516.45	23.5
1517.51	28
1518.56	19.5
1519.62	28
1520.67	24
1521.73	22.5
1522.78	25
1523.84	24.5
1524.89	26
1525.94	28
1527	24
1528.05	24.5
1529.1	27
1530.16	26
1531.21	22
1532.26	30
1533.32	25
1534.37	23
1535.42	25
1536.47	27
1537.52	23
1538.57	26.5
1539.63	23
1540.68	22.5
1541.73	26
1542.78	25
1543.83	22.5
1544.88	26
1545.93	24
1546.98	25.5
1548.03	25
1549.08	25.5
1550.13	26.5
1551.18	26.5
1552.23	26
1553.28	26
1554.33	29.5
1555.38	26
1556.43	24.5
1557.48	25
1558.53	23.5
1559.57	29.5
1560.62	28
1561.67	25
1562.72	21
1563.77	23.5
1564.81	25
1565.86	24
1566.91	26
1567.96	28
1569	26.5
1570.05	24
1571.09	23.5
1572.14	27.5
1573.19	27
1574.23	27
1575.28	23.5
1576.33	23.5
1577.37	23.5
1578.42	24
1579.46	25.5
1580.51	29.5
1581.55	20.5
1582.6	25
1583.64	22
1584.69	22.5
1585.73	23
1586.77	26.5
1587.82	25
1588.86	24
1589.91	28
1590.95	24
1591.99	26
1593.04	26.5
1594.08	22.5
1595.12	27
1596.16	28.5
1597.21	28.5
1598.25	24
1599.29	26.5
1600.33	21.5
1601.37	24
1602.42	29.5
1603.46	25.5
1604.5	24
1605.54	29.5
1606.58	26
1607.62	23
1608.66	26.5
1609.7	26
1610.74	27
1611.78	30
1612.82	22.5
1613.86	25
1614.9	26
1615.94	26
1616.98	20.5
1618.02	25.5
1619.06	26
1620.1	25.5
1621.14	23
1622.18	27
1623.21	26
1624.25	24
1625.29	25
1626.33	24.5
1627.37	25.5
1628.4	28
1629.44	27.5
1630.48	24
1631.52	27
1632.55	26.5
1633.59	26
1634.63	28
1635.66	22
1636.7	28
1637.73	26.5
1638.77	24.5
1639.81	26
1640.84	25
1641.88	28.5
1642.91	24
1643.95	28
1644.98	23
1646.02	27.5
1647.05	26
1648.09	19.5
1649.12	26
1650.16	26.5
1651.19	26
1652.22	26
1653.26	25
1654.29	25
1655.32	25.5
1656.36	30
1657.39	25
1658.42	21.5
1659.46	24
1660.49	28
1661.52	25.5
1662.55	24.5
1663.59	27
1664.62	27
1665.65	26.5
1666.68	22.5
1667.71	22.5
1668.74	25
1669.77	24.5
1670.81	25
1671.84	24.5
1672.87	22.5
1673.9	27.5
1674.93	28.5
1675.96	29
1676.99	27.5
1678.02	25.5
1679.05	27
1680.08	22.5
1681.11	27
1682.13	25.5
1683.16	23.5
1684.19	28
1685.22	26
1686.25	27
1687.28	24.5
1688.31	29.5
1689.33	28
1690.36	25
1691.39	26.5
1692.42	27.5
1693.45	24.5
1694.47	28.5
1695.5	26.5
1696.53	24
1697.55	21.5
1698.58	24.5
1699.61	23
1700.63	24
1701.66	27.5
1702.68	27
1703.71	27.5
1704.74	21.5
1705.76	25.5
1706.79	25
1707.81	26
1708.84	24.5
1709.86	22.5
1710.89	26
1711.91	25
1712.94	27.5
1713.96	24
1714.98	25
1716.01	25
1717.03	22.5
1718.05	27
1719.08	24.5
1720.1	22.5
1721.12	22.5
1722.15	26
1723.17	24
1724.19	27
1725.22	26
1726.24	26
1727.26	25
1728.28	26
1729.3	23
1730.32	23
1731.35	23
1732.37	27
1733.39	26
1734.41	23
1735.43	23
1736.45	20.5
1737.47	27
1738.49	27.5
1739.51	24.5
1740.53	26.5
1741.55	25.5
1742.57	21
1743.59	26
1744.61	28
1745.63	26
1746.65	25
1747.67	28
1748.69	28
1749.71	25.5
1750.72	22
1751.74	23.5
1752.76	30
1753.78	27
1754.8	27
1755.81	27
1756.83	23
1757.85	25
1758.87	23.5
1759.88	23
1760.9	23.5
1761.92	22.5
1762.93	26.5
1763.95	27.5
1764.97	21
1765.98	26.5
1767	23.5
1768.01	24
1769.03	23
1770.05	22.5
1771.06	27
1772.08	24
1773.09	20
1774.11	28
1775.12	26.5
1776.13	25
1777.15	19
1778.16	26
1779.18	22.5
1780.19	26.5
1781.2	26
1782.22	25.5
1783.23	25
1784.24	25
1785.26	22
1786.27	27
1787.28	25.5
1788.3	20.5
1789.31	26.5
1790.32	22
1791.33	21.5
1792.35	24.5
1793.36	26
1794.37	24
1795.38	22.5
1796.39	28.5
1797.4	27
1798.41	25
1799.43	24.5
1800.44	20
1801.45	24.5
1802.46	24
1803.47	26.5
1804.48	21
1805.49	25
1806.5	27.5
1807.51	28
1808.52	24.5
1809.53	25.5
1810.53	26.5
1811.54	24
1812.55	21
1813.56	30
1814.57	27.5
1815.58	30
1816.59	25
1817.6	21
1818.6	23.5
1819.61	23.5
1820.62	26
1821.63	24.5
1822.63	20
1823.64	20.5
1824.65	26.5
1825.65	26
1826.66	26.5
1827.67	23.5
1828.67	19
1829.68	23
1830.69	26
1831.69	28
1832.7	21.5
1833.7	22.5
1834.71	26
1835.71	19
1836.72	23
1837.72	23.5
1838.73	26.5
1839.73	30.5
1840.74	27
1841.74	21.5
1842.75	22.5
1843.75	18
1844.75	27.5
1845.76	29
1846.76	24
1847.76	24
1848.77	24
1849.77	26
1850.77	22.5
1851.78	24
1852.78	26.5
1853.78	22.5
1854.78	25
1855.79	27
1856.79	27
1857.79	23
1858.79	26.5
1859.79	25
1860.8	26
1861.8	28
1862.8	24
1863.8	22
1864.8	27.5
1865.8	27.5
1866.8	26
1867.8	24.5
1868.8	25.5
1869.8	27
1870.8	24.5
1871.8	23
1872.8	24
1873.8	24
1874.8	27
1875.8	25.5
1876.8	26.5
1877.8	22
1878.79	26
1879.79	29
1880.79	24.5
1881.79	24.5
1882.79	24.5
1883.79	22.5
1884.78	22.5
1885.78	27
1886.78	26.5
1887.77	25
1888.77	21
1889.77	23.5
1890.77	23
1891.76	27
1892.76	26
1893.76	24
1894.75	23.5
1895.75	23
1896.74	23.5
1897.74	24.5
1898.73	22.5
1899.73	24.5
1900.72	27
1901.72	25
1902.72	23
1903.71	27
1904.7	27
1905.7	21
1906.69	25
1907.69	23
1908.68	27
1909.67	26
1910.67	23
1911.66	23
1912.66	22
1913.65	25
1914.64	20
1915.63	26
1916.63	22
1917.62	22.5
1918.61	26.5
1919.6	22
1920.6	24.5
1921.59	26.5
1922.58	25
1923.57	21.5
1924.56	26
1925.56	26
1926.55	27
1927.54	22
1928.53	20.5
1929.52	24.5
1930.51	26.5
1931.5	23.5
1932.49	25.5
1933.48	28.5
1934.47	27
1935.46	22
1936.45	27
1937.44	27.5
1938.43	24.5
1939.42	26.5
1940.41	25
1941.4	26.5
1942.39	24
1943.37	25.5
1944.36	23.5
1945.35	24
1946.34	24
1947.33	22
1948.32	23.75
1949.3	25
1950.29	23
1951.28	22
1952.27	27.5
1953.25	26
1954.24	23
1955.23	26
1956.21	26.5
1957.2	22
1958.19	27.5
1959.17	24
1960.16	25.5
1961.14	17.5
1962.13	24
1963.12	22.5
1964.1	22.5
1965.09	26.5
1966.07	26.5
1967.06	22.5
1968.04	24
1969.03	24.5
1970.01	23
1970.99	24.5
1971.98	27
1972.96	23.5
1973.95	24
1974.93	23.5
1975.92	24.5
1976.9	26.5
1977.88	24.5
1978.87	26.5
1979.85	20
1980.83	23.5
1981.81	25.5
1982.8	24
1983.78	24
1984.76	24
1985.74	28.5
1986.73	24.5
1987.71	24
1988.69	24
1989.67	24
1990.65	24.5
1991.63	23.5
1992.61	25
1993.59	23.5
1994.58	27.5
1995.56	26
1996.54	23
1997.52	21.5
1998.5	24
1999.48	20
2000.46	23
2001.44	24.5
2002.42	22
2003.4	20.5
2004.38	27.5
2005.35	21
2006.33	24
2007.31	26
2008.29	25.5
2009.27	20
2010.25	28
2011.23	21.5
2012.2	24.5
2013.18	24.5
2014.16	24
2015.14	23
2016.11	28
2017.09	20.5
2018.07	25
2019.05	22
2020.02	22.5
2021	24.5
2021.98	24.5
2022.95	26
2023.93	26
2024.91	24.5
2025.88	25
2026.86	21
2027.83	23
2028.81	24
2029.78	25
2030.76	26
2031.73	28
2032.71	25
2033.68	22.5
2034.66	26
2035.63	24
2036.61	23
2037.58	27
2038.56	23
2039.53	25
2040.5	24.5
2041.48	26
2042.45	22.5
2043.42	26.5
2044.4	21.5
2045.37	29.5
2046.34	23
2047.32	22
2048.29	22
2049.26	22.5
2050.23	22
2051.2	24
2052.18	24.5
2053.15	24
2054.12	23
2055.09	23
2056.06	26.5
2057.03	24
2058	24
2058.98	22.5
2059.95	25.5
2060.92	28
2061.89	22.5
2062.86	22.5
2063.83	24.5
2064.8	27
2065.77	21.5
2066.74	24.5
2067.71	20.5
2068.68	25
2069.65	20
2070.61	27
2071.58	24.5
2072.55	24
2073.52	24.5
2074.49	22
2075.46	20.5
2076.43	24
2077.4	23
2078.36	20.5
2079.33	19
2080.3	28.5
2081.27	23
2082.23	23.5
2083.2	22.5
2084.17	20
2085.13	23.5
2086.1	24
2087.07	24.5
2088.03	26
2089	23
2089.97	23.5
2090.93	23
2091.9	24.5
2092.86	22.5
2093.83	26
2094.8	19
2095.76	23.5
2096.73	24
2097.69	23
2098.66	24
2099.62	25
2100.58	21
2101.55	25
2102.51	24
2103.48	24
2104.44	26.5
2105.41	23
2106.37	24
2107.33	20
2108.3	24
2109.26	25
2110.22	24.5
2111.19	21
2112.15	26
2113.11	22
2114.07	26
2115.04	25
2116	20
2116.96	23.5
2117.92	21
2118.88	21
2119.85	26.5
2120.81	24
2121.77	24
2122.73	28.5
2123.69	28.5
2124.65	22
2125.61	23
2126.57	24.5
2127.53	23.5
2128.49	23.5
2129.45	22.5
2130.41	23.5
2131.37	27.5
2132.33	25.5
2133.29	23.5
2134.25	20
2135.21	27.5
2136.17	23
2137.13	22.5
2138.09	24
2139.05	22
2140.01	23
2140.96	24
2141.92	25.5
2142.88	24.4714
2143.84	23.8928
2144.8	23.4653
2145.75	23.0323
2146.71	20.0606
2147.67	24.8665
2148.63	18.237
2149.58	23.1557
2150.54	23.5479
2151.5	22.18
2152.45	21.905
2153.41	22.6182
2154.37	22.3983
2155.32	24.9484
2156.28	23.2523
2157.23	20.9658
2158.19	21.271
2159.15	21.6336
2160.1	20.7804
2161.06	24.8881
2162.01	23.4407
2162.97	19.6612
2163.92	23.1091
2164.88	20.0087
2165.83	21.846
2166.78	22.1147
2167.74	21.6939
2168.69	22.6564
2169.65	23
2170.6	26.3052
2171.56	22.9239
2172.51	22.903
2173.46	25.332
2174.42	25.7356
2175.37	21.9692
2176.32	22.3271
2177.28	24.0625
2178.23	21.3012
2179.18	21.2069
2180.13	24.233
2181.08	21.2094
2182.04	23.0042
2182.99	23.2116
2183.94	23.013
2184.89	24.5638
2185.84	21.1032
2186.8	23.8818
2187.75	22.4612
2188.7	22.4277
2189.65	21.5684
2190.6	22.5183
2191.55	23.7198
2192.5	19.767
2193.45	21.6845
2194.4	22.1581
2195.35	22.8859
2196.3	24.9984
2197.25	23.0116
2198.2	19.9451
2199.15	21.9726
2200.1	22.4356
2201.05	25.2965
2202	22.7915
2202.95	22.6293
2203.9	23.0366
2204.85	23.2144
2205.79	25.1812
2206.74	22.4451
2207.69	22.6734
2208.64	24.1382
2209.59	22.158
2210.53	22.0125
2211.48	23.9075
2212.43	25.7604
2213.38	22.189
2214.32	21.4557
2215.27	22.3996
2216.22	23.7577
2217.17	24.9019
2218.11	19.5318
2219.06	20.75
2220.01	25.3369
2220.95	23.7312
2221.9	22.5628
2222.84	24.0456
2223.79	21.4475
2224.73	22.8118
2225.68	24.1384
2226.63	24.9268
2227.57	19.853
2228.52	23.4052
2229.46	22.8301
2230.41	22.188
2231.35	24.0536
2232.3	21.646
2233.24	25.1526
2234.18	23.5377
2235.13	24.8779
2236.07	24.2755
2237.02	20.8281
2237.96	21.1466
2238.9	23.7642
2239.85	22.9785
2240.08	22.5
2241.03	21
2241.97	24
2242.92	25
2243.87	26
2244.82	23
2245.76	23.5
2246.71	22.5
2247.66	20.5
2248.61	25
2249.55	23
2250.5	20.5
2251.45	24.5
2252.39	23.5
2253.34	25.5
2254.29	23
2255.23	23.5
2256.18	25
2257.12	23
2258.07	21
2259.01	21
2259.96	25
2260.9	20
2261.85	20.5
2262.79	21.5
2263.74	25.5
2264.68	23.5
2265.63	22
2266.57	24
2267.52	21
2268.46	27
2269.41	23.5
2270.35	20.5
2271.29	22
2272.24	24
2273.18	22
2274.12	22
2275.07	22.5
2276.01	20
2276.95	21
2277.89	22.5
2278.84	23.5
2279.78	21
2280.72	20
2281.66	23.5
2282.6	24
2283.55	24
2284.49	24
2285.43	24.5
2286.37	25
2287.31	24
2288.25	25
2289.2	21
2290.14	23
2291.08	25
2292.02	24.5
2292.96	22.5
2293.9	21.5
2294.84	24.5
2295.78	22.5
2296.72	23
2297.66	26.5
2298.6	23.5
2299.54	26
2300.48	23
2301.42	25.5
2302.35	25.5
2303.29	21.5
2304.23	20.5
2305.17	26
2306.11	22.5
2307.05	23.5
2307.99	23
2308.92	24
2309.86	21
2310.8	24
2311.74	24.5
2312.67	25
2313.61	24
2314.55	23.5
2315.49	22
2316.42	22.5
2317.36	22.5
2318.3	22
2319.23	26
2320.17	25.5
2321.1	23
2322.04	20
2322.98	23
2323.91	24
2324.85	23
2325.78	25
2326.72	24
2327.66	25.5
2328.59	23.5
2329.52	21.5
2330.46	25
2331.39	18
2332.33	22.5
2333.26	22.5
2334.2	26.5
2335.13	25
2336.07	22
2337	25.5
2337.93	23
2338.87	26
2339.8	24.5
2340.73	22
2341.67	26.5
2342.6	21.5
2343.53	24.5
2344.46	25
2345.4	21.5
2346.33	23
2347.26	25.5
2348.19	26
2349.13	23.5
2350.06	22
2350.99	25.5
2351.92	24
2352.85	24.5
2353.79	24.5
2354.72	24
2355.65	21
2356.58	23.5
2357.51	19
2358.44	29
2359.37	25
2360.3	25
2361.23	27
2362.16	27
2363.09	22
2364.02	25
2364.95	21
2365.88	24
2366.81	23
2367.74	24
2368.67	22.5
2369.6	23.5
2370.53	22
2371.45	21.5
2372.38	24.5
2373.31	17
2374.24	22
2375.17	26
2376.1	24
2377.02	18.5
2377.95	25
2378.88	25
2379.81	24
2380.73	23.5
2381.66	26
2382.59	20
2383.52	26
2384.44	24.5
2385.37	21.5
2386.3	20
2387.22	24
2388.15	25
2389.07	24
2390	22.5
2390.93	20
2391.85	22
2392.78	23.5
2393.7	25.5
2394.63	21
2395.55	24.5
2396.48	19
2397.4	26.5
2398.33	19.5
2399.25	22
2400.18	26
2401.1	25
2402.03	22.5
2402.95	20.5
2403.87	24
2404.8	24
2405.72	27
2406.64	23
2407.57	22
2408.49	23.5
2409.41	26
2410.34	23.5
2411.26	24
2412.18	27.5
2413.1	22
2414.03	27
2414.95	23
2415.87	24.5
2416.79	23
2417.72	24
2418.64	23.5
2419.56	25
2420.48	27.5
2421.4	24.5
2422.32	24.5
2423.24	22.5
2424.16	23.5
2425.09	20.5
2426.01	22.5
2426.93	25
2427.85	22
2428.77	25
2429.69	24
2430.61	26
2431.53	20
2432.45	20
2433.37	23.5
2434.29	20.5
2435.21	23.5
2436.12	24
2437.04	25
2437.96	26
2438.88	24.5
2439.8	21.5
2440.72	25.5
2441.64	26
2442.55	20
2443.47	20
2444.39	22.5
2445.31	24
2446.23	23.5
2447.14	26.5
2448.06	23.5
2448.98	21
2449.9	26.5
2450.81	23
2451.73	26
2452.65	20
2453.56	23.5
2454.48	23
2455.39	26
2456.31	22
2457.23	26.5
2458.14	24.5
2459.06	22
2459.97	25
2460.89	21.5
2461.8	22
2462.72	28.5
2463.64	26
2464.55	24.5
2465.47	24
2466.38	24.5
2467.29	23
2468.21	26.5
2469.12	27.5
2470.04	26
2470.95	29
2471.86	22
2472.78	25.5
2473.69	24.5
2474.61	24
2475.52	25
2476.43	27.5
2477.35	20
2478.26	26.5
2479.17	23.5
2480.08	25
2481	23
2481.91	23
2482.82	25.5
2483.73	19.5
2484.64	26.5
2485.56	27
2486.47	26
2487.38	23
2488.29	24
2489.2	21
2490.11	23.5
2491.03	24
2491.94	25.5
2492.85	23.5
2493.76	21.5
2494.67	23.5
2495.58	20
2496.49	22
2497.4	24
2498.31	25
2499.22	23
2500.13	24
2501.04	23
2501.95	25
2502.86	25
2503.77	28.5
2504.67	28
2505.58	26
2506.49	22
2507.4	21
2508.31	27.5
2509.22	22
2510.13	28
2511.03	26
2511.94	24.5
2512.85	22
2513.76	25.5
2514.66	23
2515.57	23.5
2516.48	21.5
2517.39	24
2518.29	26
2519.2	24.5
2520.11	26
2521.01	23.5
2521.92	21.5
2522.83	22
2523.73	22
2524.64	27.5
2525.54	22
2526.45	28.5
2527.36	21.5
2528.26	24
2529.17	24
2530.07	23.5
2530.98	21
2531.88	24
2532.79	24.5
2533.69	25
2534.6	24.5
2535.5	27.5
2536.41	26
2537.31	23
2538.21	24.5
2539.12	27
2540.02	24.5
2540.93	21.5
2541.83	24
2542.73	26
2543.64	24.5
2544.54	26.5
2545.44	23.5
2546.34	22.5
2547.25	24.5
2548.15	23
2549.05	26.5
2549.96	21
2550.86	24.5
2551.76	20
2552.66	21
2553.56	21
2554.46	27
2555.37	22.5
2556.27	27
2557.17	27.5
2558.07	25
2558.97	25
2559.87	22.5
2560.77	24.5
2561.67	26
2562.57	29
2563.47	25
2564.37	26
2565.27	25.5
2566.17	26
2567.07	26.5
2567.97	27.5
2568.87	24.5
2569.77	24
2570.67	23.5
2571.57	27
2572.47	22.5
2573.37	21.5
2574.27	24.5
2575.17	24
2576.06	25
2576.96	25.5
2577.86	23.5
2578.76	25.5
2579.66	21.5
2580.56	26
2581.45	26
2582.35	23
2583.25	22
2584.15	23
2585.04	26.5
2585.94	25.5
2586.84	24
2587.73	27
2588.63	22
2589.53	24
2590.42	23
2591.32	22.5
2592.22	21
2593.11	22.5
2594.01	23
2594.9	23
2595.8	28.5
2596.69	24
2597.59	26
2598.48	22
2599.38	21.5
2600.28	21
2601.17	28
2602.06	22.5
2602.96	26.5
2603.85	21
2604.75	24
2605.64	22
2606.54	23.5
2607.43	26
2608.32	24
2609.22	22
2610.11	26.5
2611	25.5
2611.9	27
2612.79	23.5
2613.68	22.5
2614.58	27
2615.47	27.5
2616.36	24.5
2617.25	25
2618.15	26.5
2619.04	26
2619.93	24
2620.82	26.5
2621.71	24
2622.61	23.5
2623.5	23
2624.39	25.5
2625.28	26
2626.17	22
2627.06	20
2627.95	23.5
2628.84	24.5
2629.74	24
2630.63	24.5
2631.52	26.5
2632.41	25
2633.3	22.5
2634.19	26
2635.08	26.5
2635.97	21.5
2636.85	23
2637.74	24.5
2638.63	24
2639.52	27
2640.41	22
2641.3	27.5
2642.19	21.5
2643.08	23
2643.97	23.5
2644.86	23.5
2645.74	25
2646.63	25.5
2647.52	22.5
2648.41	24
2649.3	23
2650.18	22.5
2651.07	20.5
2651.96	22
2652.85	23
2653.73	25
2654.62	23
2655.51	26
2656.39	26
2657.28	24
2658.17	25
2659.05	23
2659.94	19.5
2660.83	22.5
2661.71	24
2662.6	24
2663.48	22.5
2664.37	25
2665.25	28
2666.14	26
2667.02	25
2667.91	28.5
2668.79	25.5
2669.68	23.5
2670.56	22.5
2671.45	26
2672.33	24
2673.22	24.5
2674.1	25.5
2674.98	26
2675.87	23.5
2676.75	28
2677.64	26
2678.52	21
2679.4	26
2680.29	24.5
2681.17	24.5
2682.05	23.5
2682.94	26
2683.82	25
2684.7	24
2685.58	20
2686.47	24.5
2687.35	24.5
2688.23	23.5
2689.11	22
2689.99	25
2690.88	22
2691.76	25.5
2692.64	25
2693.52	19
2694.4	22.5
2695.28	18
2696.16	25
2697.04	25
2697.92	23
2698.8	27
2699.69	19
2700.57	23
2701.45	25.5
2702.33	24.5
2703.21	25.5
2704.09	25
2704.97	20.5
2705.84	23.5
2706.72	22
2707.6	25.5
2708.48	23.5
2709.36	24
2710.24	17
2711.12	23
2712	27
2712.88	21.5
2713.75	27
2714.63	20
2715.51	23.5
2716.39	21.5
2717.27	23
2718.14	22
2719.02	24.5
2719.9	24.5
2720.78	21.5
2721.65	21.5
2722.53	22.5
2723.41	24.5
2724.28	22
2725.16	25.5
2726.04	27
2726.92	23.5
2727.79	28
2728.67	22
2729.54	24.5
2730.42	24.5
2731.3	26.5
2732.17	24
2733.05	24.5
2733.92	25.5
2734.8	27
2735.67	25
2736.55	24
2737.42	26
2738.3	23.5
2739.17	25
2740.05	24
2740.92	26
2741.79	25
2742.67	26.5
2743.54	20.5
2744.42	23.5
2745.29	21.5
2746.16	25
2747.04	25
2747.91	22.5
2748.78	23.5
2749.66	25.5
2750.53	20.5
2751.4	22
2752.28	23
2753.15	22.5
2754.02	21.5
2754.89	23.5
2755.77	28
2756.64	22
2757.51	23.5
2758.38	22.5
2759.25	24.5
2760.13	26
2761	23.5
2761.87	24
2762.74	25
2763.61	26
2764.48	21.5
2765.35	28
2766.22	24
2767.09	27.5
2767.96	23
2768.83	19
2769.71	21
2770.57	25.5
2771.44	23.5
2772.32	26.5
2773.18	25
2774.05	22
2774.92	27
2775.79	25.5
2776.66	29.5
2777.53	24.5
2778.4	25
2779.27	29
2780.14	25.5
2781.01	27
2781.87	27.5
2782.74	22.5
2783.61	25
2784.48	25
2785.35	26.5
2786.21	21.5
2787.08	27
2787.95	23
2788.82	24.5
2789.69	30
2790.55	26.5
2791.42	23
2792.29	24.5
2793.15	22
2794.02	24.5
2794.89	25.5
2795.75	25.5
2796.62	21
2797.49	26
2798.35	23.5
2799.22	24
2800.08	26
2800.95	28.5
2801.81	30.5
2802.68	23.5
2803.55	24.5
2804.41	26
2805.28	27.5
2806.14	27
2807	25
2807.87	27
2808.73	21.5
2809.6	28
2810.46	22
2811.33	27
2812.19	23
2813.06	28.5
2813.92	27.5
2814.78	25.5
2815.65	31
2816.51	29
2817.37	25.5
2818.24	23
2819.1	27.5
2819.96	27.5
2820.83	27
2821.69	24
2822.55	27.5
2823.41	23.5
2824.28	28
2825.14	20.5
2826	27
2826.86	29
2827.72	26
2828.58	25.5
2829.45	29
2830.31	27
2831.17	26.5
2832.03	25
2832.89	22
2833.75	27
2834.61	23
2835.47	28
2836.33	25
2837.2	22.5
2838.05	29.5
2838.92	27.5
2839.78	22.5
2840.64	23
2841.49	30
2842.35	27
2843.21	28.5
2844.07	28.5
2844.93	24
2845.79	25.5
2846.65	28
2847.51	28
2848.37	31.5
2849.23	24
2850.09	29
2850.94	28
2851.8	29
2852.66	26
2853.52	23
2854.38	26.5
2855.23	24
2856.09	23
2856.95	23
2857.81	29.5
2858.67	26
2859.52	27.5
2860.38	27.5
2861.24	24.5
2862.09	31
2862.95	29
2863.81	31
2864.66	22
2865.52	30
2866.38	25
2867.23	25
2868.09	27.5
2868.94	29.5
2869.8	26.5
2870.65	29.5
2871.51	27
2872.37	29
2873.22	30
2874.08	32
2874.93	28
2875.79	32
2876.64	34
2877.49	31
2878.35	32.5
2879.2	29
2880.06	28
2880.91	37.5
2881.77	31.5
2882.62	31
2883.47	34
2884.33	36
2885.18	37.5
2886.03	39
2886.89	39
2887.74	40
2888.59	47.5
2889.45	44.5
2890.3	45
2891.15	44.5
2892	45
2892.86	48.5
2893.71	49
2894.56	49
2895.41	50.5
2896.27	51
2897.12	57.5
2897.97	59
2898.82	60.5
2899.67	66
2900.52	70
2901.37	77.5
2902.23	71.5
2903.08	78
2903.93	83
2904.78	84.5
2905.63	87
2906.48	82.5
2907.33	82.5
2908.18	81
2909.03	78
2909.88	75
2910.73	70.5
2911.58	63
2912.43	60.5
2913.28	63.5
2914.13	61
2914.98	52.5
2915.83	46.5
2916.67	46.5
2917.52	46.5
2918.37	46
2919.22	37
2920.07	41
2920.92	39.5
2921.77	37
2922.61	38.5
2923.46	35
2924.31	36
2925.16	33
2926	34
2926.85	28.5
2927.7	37
2928.55	31.5
2929.39	33.5
2930.24	30
2931.09	34
2931.94	29.5
2932.78	31
2933.63	30
2934.47	29
2935.32	31
2936.17	25
2937.01	28
2937.86	30
2938.7	26
2939.55	32
2940.4	29
2941.24	30
2942.09	29
2942.93	23
2943.78	26
2944.62	29.5
2945.47	28
2946.31	29
2947.16	29
2948	30
2948.84	31.5
2949.69	30.5
2950.53	35
2951.38	32
2952.22	30
2953.06	36
2953.91	34.5
2954.75	35.5
2955.59	37.5
2956.44	36
2957.28	37
2958.12	39
2958.97	41
2959.81	43.5
2960.65	47.5
2961.5	42.5
2962.34	45
2963.18	50
2964.02	50.5
2964.86	50
2965.71	49
2966.55	47
2967.39	50
2968.23	52
2969.07	46.5
2969.91	51.5
2970.75	39
2971.6	43.4854
2972.44	44.4417
2973.28	37.1514
2974.12	41.8968
2974.96	36.967
2975.8	37.4199
2976.64	31.0626
2977.48	32.0926
2978.32	34.5854
2979.16	34.3716
2980	32.0413
2980.84	30.955
2981.68	32.1615
2982.52	31.6296
2983.36	32.7723
2984.2	25.8645
2985.04	25.1279
2985.88	30.9103
2986.71	28.2816
2987.55	28.7259
2988.39	26.2261
2989.23	27.0196
2990.07	28.5631
2990.91	25.6594
2991.75	23.2378
2992.58	27.1853
2993.42	25.1747
2994.26	24.0602
2995.1	28.3565
2995.93	25.7272
2996.77	25.7998
2997.61	24.7311
2998.45	28.2403
2999.28	25.5127
3000.12	24.3344
3000.96	22.51
3001.79	24.7055
3002.63	25.0104
3003.47	22.2698
3004.3	25.4327
3005.14	26.332
3005.98	25.8517
3006.81	24.2711
3007.65	23.9782
3008.48	24.6714
3009.32	24.326
3010.15	21.6286
3010.99	24.938
3011.82	25.2332
3012.66	25.3383
3013.5	22.91
3014.33	22.75
3015.17	25.0543
3016	25.1118
3016.83	23.4319
3017.67	24.4555
3018.5	23.991
3019.34	24.1419
3020.17	23.6542
3021.01	22.3302
3021.84	24.5723
3022.67	24.6887
3023.51	21.8204
3024.34	24.1505
3025.17	22.4486
3026.01	23.8284
3026.84	24.6456
3027.67	24.8277
3028.51	25.5587
3029.34	24.4258
3030.17	22.554
3031	24.6083
3031.84	25.3211
3032.67	24.0947
3033.5	23.314
3034.33	20.3252
3035.17	22.528
3036	24.2662
3036.83	22.6475
3037.66	24.0023
3038.49	24.5992
3039.32	24.2077
3040.15	24.1962
3040.99	24.0431
3041.82	21.7397
3042.65	22.6144
3043.48	24.7564
3044.31	22.6701
3045.14	21.4804
3045.97	23.1009
3046.8	24.4393
3047.63	23.9455
3048.46	23.9673
3049.29	24.1052
3050.12	23.4282
3050.95	25.437
3051.78	25.6174
3052.61	24.9466
3053.44	24.7231
3054.27	24.8099
3055.1	24.5106
3055.92	22.798
3056.75	23.8207
3057.27	26
3058.11	23
3058.94	22.5
3059.77	23
3060.61	25.5
3061.44	22.5
3062.27	22
3063.11	20
3063.94	25.5
3064.77	22
3065.6	20
3066.43	23
3067.27	22.5
3068.1	22
3068.93	18
3069.76	20.5
3070.59	24
3071.42	22.5
3072.26	26
3073.09	21
3073.92	25.5
3074.75	23
3075.58	24
3076.41	23.5
3077.24	24
3078.07	25.5
3078.9	22.5
3079.73	22.5
3080.56	24
3081.39	26
3082.22	27.5
3083.05	24
3083.88	19.5
3084.71	26
3085.54	24
3086.37	21
3087.2	29
3088.03	24
3088.86	23
3089.69	25.5
3090.51	26.5
3091.34	24
3092.17	26
3093	22.5
3093.83	26
3094.66	26.5
3095.48	23
3096.31	22.5
3097.14	25.5
3097.97	27
3098.79	23.5
3099.62	21.5
3100.45	22.5
3101.28	21.5
3102.1	25
3102.93	23
3103.76	24.5
3104.58	23
3105.41	22
3106.24	23
3107.06	25
3107.89	24
3108.72	22.5
3109.54	24.5
3110.37	25
3111.19	23
3112.02	25
3112.84	22.5
3113.67	23.5
3114.49	23
3115.32	26
3116.15	22.5
3116.97	20.5
3117.8	23.5
3118.62	19.5
3119.44	24.5
3120.27	26.5
3121.09	22.5
3121.92	22
3122.74	23.5
3123.57	22.5
3124.39	27
3125.21	23.5
3126.04	24.5
3126.86	24.5
3127.68	22.5
3128.51	26
3129.33	23
3130.15	25
3130.98	22
3131.8	23.5
3132.62	19.5
3133.44	22
3134.27	27.5
3135.09	23
3135.91	21
3136.73	23
3137.56	26
3138.38	23.5
3139.2	27.5
3140.02	25
3140.84	26
3141.67	22
3142.49	27
3143.31	19
3144.13	22.5
3144.95	23
3145.77	22
3146.59	21.5
3147.41	21
3148.23	24.5
3149.05	26.5
3149.87	25
3150.69	23
3151.51	24.5
3152.33	21
3153.15	24.5
3153.97	27.5
3154.79	23.5
3155.61	24.5
3156.43	24.5
3157.25	20.5
3158.07	25
3158.89	25.5
3159.71	23
3160.53	21.5
3161.35	23
3162.17	18
3162.98	24.5
3163.8	21
3164.62	24
3165.44	23.5
3166.26	28.5
3167.07	22
3167.89	24.5
3168.71	25
3169.53	22
3170.35	24.5
3171.16	25
3171.98	20.5
3172.8	18
3173.61	23.5
3174.43	26.5
3175.25	22
3176.06	22
3176.88	23
3177.7	29.5
3178.51	21
3179.33	21.5
3180.15	21
3180.96	22.5
3181.78	21.5
3182.59	24
3183.41	25
3184.22	21
3185.04	22.5
3185.85	19
3186.67	25
3187.49	26.5
3188.3	21.5
3189.12	22
3189.93	24.5
3190.74	25
3191.56	25
3192.37	19
3193.19	25
3194	23.5
3194.82	26.5
3195.63	23
3196.44	26
3197.26	22
3198.07	27
3198.88	21.5
3199.7	26
3200.51	19.5
3201.32	25.5
3202.14	24.5
3202.95	22
3203.76	23
3204.58	23
3205.39	23
3206.2	21
3207.01	20
3207.83	23
3208.64	26.5
3209.45	24.5
3210.26	22.5
3211.07	21
3211.88	24.5
3212.7	22
3213.51	21
3214.32	28.5
3215.13	22
3215.94	23
3216.75	26
3217.56	21
3218.37	23
3219.18	25.5
3220	21.5
3220.8	23.5
3221.62	23.5
3222.43	26
3223.24	24
3224.05	20
3224.86	20
3225.67	22.5
3226.47	22
3227.28	22
3228.09	24
3228.9	25
3229.71	24.5
3230.52	22
3231.33	22.5
3232.14	24
3232.95	25
3233.76	23
3234.56	25.5
3235.37	23
3236.18	27
3236.99	20
3237.8	23
3238.61	23.5
3239.41	23
3240.22	25.5
3241.03	24.5
3241.84	21
3242.64	21
3243.45	24
3244.26	25.5
3245.07	23.5
3245.87	23.5
3246.68	21
3247.49	24
3248.29	23
3249.1	26.5
3249.9	23.5
3250.71	23
3251.52	27.5
3252.32	21.5
3253.13	22.5
3253.93	26
3254.74	25.5
3255.55	21.5
3256.35	21
3257.16	23
3257.96	28
3258.77	19.5
3259.57	24
3260.38	21.5
3261.18	25.5
3261.99	25
3262.79	25
3263.6	23
3264.4	23
3265.2	21.5
3266.01	25.5
3266.81	23
3267.62	25
3268.42	22
3269.22	19.5
3270.03	20.5
3270.83	24.5
3271.63	24
3272.44	22.5
3273.24	24
3274.04	25.5
3274.85	28
3275.65	23.5
3276.45	27.5
3277.25	23
3278.06	22.5
3278.86	26.5
3279.66	21
3280.46	24
3281.26	25.5
3282.07	26
3282.87	23.5
3283.67	23
3284.47	24
3285.27	23.5
3286.07	25
3286.87	27
3287.68	21.5
3288.48	25.5
3289.28	23
3290.08	20.5
3290.88	22
3291.68	24.5
3292.48	24
3293.28	24.5
3294.08	26.5
3294.88	26.5
3295.68	21.5
3296.48	26
3297.28	25.5
3298.08	23.5
3298.88	28.5
3299.68	22.5
3300.48	26
3301.28	24.5
3302.08	25.5
3302.88	24
3303.67	21.5
3304.47	24.5
3305.27	21.5
3306.07	24.5
3306.87	26
3307.67	20
3308.46	25
3309.26	30
3310.06	23.5
3310.86	28
3311.66	24
3312.45	27
3313.25	22
3314.05	20
3314.85	25.5
3315.64	24
3316.44	22
3317.24	22
3318.03	23
3318.83	23.5
3319.63	24.5
3320.42	26
3321.22	20
3322.02	26
3322.81	23
3323.61	21
3324.4	24
3325.2	23.5
3326	21
3326.79	24.5
3327.59	23.5
3328.38	22.5
3329.18	19
3329.97	22
3330.77	24
3331.56	20.5
3332.36	24.5
3333.15	23.5
3333.95	25
3334.74	20.5
3335.54	21
3336.33	23.5
3337.13	24
3337.92	28
3338.71	25.5
3339.51	23.5
3340.3	24
3341.1	25
3341.89	23.5
3342.68	24.5
3343.48	23.5
3344.27	28.5
3345.06	27
3345.85	24
3346.65	20.5
3347.44	23.5
3348.23	27.5
3349.03	22.5
3349.82	25
3350.61	26
3351.4	24.5
3352.19	25
3352.99	28
3353.78	23.5
3354.57	22
3355.36	26
3356.15	25.5
3356.94	25.5
3357.74	24
3358.53	25
3359.32	21
3360.11	20
3360.9	18
3361.69	22
3362.48	25.5
3363.27	24
3364.06	27.5
3364.85	25.5
3365.64	23.5
3366.43	23.5
3367.22	26
3368.01	25.5
3368.8	20.5
3369.59	22
3370.38	23.5
3371.17	23
3371.96	24
3372.75	24
3373.54	23
3374.33	26
3375.12	21.5
3375.91	23
3376.69	27.5
3377.48	22
3378.27	28.5
3379.06	26
3379.85	25.5
3380.64	24.5
3381.42	25
3382.21	26.5
3383	29.5
3383.79	24.5
3384.58	27
3385.36	24.5
3386.15	23.5
3386.94	27
3387.73	24
3388.51	25
3389.3	23
3390.09	25
3390.87	20.5
3391.66	25
3392.45	26
3393.23	22
3394.02	27
3394.81	24.5
3395.59	24
3396.38	28.5
3397.16	24
3397.95	23.5
3398.74	26.5
3399.52	25
3400.31	23.5
3401.09	22.5
3401.88	24.5
3402.66	24.5
3403.45	21
3404.23	18
3405.02	23
3405.8	25.5
3406.59	23
3407.37	25
3408.15	23.5
3408.94	27
3409.72	27.5
3410.51	25.5
3411.29	28.5
3412.07	22.5
3412.86	25
3413.64	24
3414.42	29.5
3415.21	24.5
3415.99	22
3416.78	27.5
3417.56	24
3418.34	22.5
3419.12	25
3419.91	28
3420.69	27
3421.47	23
3422.25	26.5
3423.04	22
3423.82	25.5
3424.6	26.5
3425.38	25
3426.16	20.5
3426.95	22
3427.73	23.5
3428.51	21
3429.29	22
3430.07	25
3430.85	23.5
3431.63	25
3432.42	25
3433.2	24
3433.98	23
3434.76	27
3435.54	25.5
3436.32	20
3437.1	24
3437.88	23
3438.66	22
3439.44	24.5
3440.22	23.5
3441	21.5
3441.78	21
3442.56	25.5
3443.34	24
3444.12	26
3444.9	26.5
3445.68	19
3446.45	23.5
3447.23	23
3448.01	27
3448.79	21
3449.57	26
3450.35	22
3451.13	21.5
3451.91	21
3452.68	24
3453.46	27
3454.24	24
3455.02	21.5
3455.79	25
3456.57	19
3457.35	25.5
3458.13	21.5
3458.91	23
3459.68	25
3460.46	22.5
3461.24	24.5
3462.01	23.5
3462.79	23.5
3463.57	21.5
3464.34	25
3465.12	27
3465.9	24
3466.67	23
3467.45	25.5
3468.22	26.5
3469	23.5
3469.78	24
3470.55	23.5
3471.33	25
3472.1	23.5
3472.88	23
3473.65	25
3474.43	20
3475.2	27
3475.98	23
3476.75	23.5
3477.53	22
3478.3	24
3479.08	24.5
3479.85	25
3480.63	24.5
3481.4	25.5
3482.18	22
3482.95	24.5
3483.72	22
3484.5	24
3485.27	23.5
3486.04	23.5
3486.82	29.5
3487.59	28
3488.36	21.5
3489.14	23.5
3489.91	24
3490.68	23
3491.46	21.5
3492.23	24.5
3493	22
3493.77	25
3494.55	22
3495.32	28
3496.09	25
3496.86	26.5
3497.64	25.5
3498.41	25.5
3499.18	25.5
3499.95	24
