#Acq. time (s)=	5
#Accumulations=	5
#Range (cm-¹)=	100...3500
#Windows=	4
#Autofocus=	Off
#AutoExposure=	Off
#Spike filter=	Multiple accum.
#Delay time (s)=	0
#Binning=	1
#Readout mode=	Signal
#DeNoise=	Off
#ICS correction=	Off
#Dark correction=	Off
#Inst. Process=	Off
#Instrument=	LabRAM HR Evol
#Detector=	Syncerity OE
#Objective=	x100_VIS
#Grating=	600 (500nm)
#ND Filter=	25%
#Laser=	633nm_Edge
#Hole=	100.021
#Range=	Visible
#Project=	verificaciones
#Sample=	a4
#Site=	plain
#Title=	bolusa4plain
#Remark=	
#Date=	09.01.2026 14:26
#Acquired=	09.01.2026 14:26:20
100.695	30
101.978	33
103.262	34
104.545	29
105.829	29
107.112	35
108.394	33
109.676	35
110.958	30.5
112.24	35
113.522	32
114.803	30.5
116.084	32.5
117.365	31
118.646	31
119.927	31.5
121.207	33
122.487	31.5
123.767	39.5
125.047	35
126.326	30
127.606	36
128.885	35.5
130.164	35.5
131.442	34
132.721	36
133.999	39.5
135.277	39.5
136.555	35.5
137.831	42.5
139.109	36
140.386	37
141.663	40.5
142.94	37.5
144.216	37
145.493	39.5
146.769	41
148.043	38.5
149.319	42.5
150.595	43.5
151.87	39
153.145	42.5
154.42	45
155.693	41
156.968	45.5
158.242	45
159.516	40
160.79	41
162.062	41.5
163.336	47
164.609	43
165.882	40
167.153	38.5
168.426	44.5
169.699	43.5
170.971	39
172.241	42.5
173.513	43
174.785	46
176.055	41
177.326	42
178.597	44.5
179.866	41
181.137	40.5
182.407	39
183.676	43
184.946	48.5
186.216	47
187.484	44
188.753	45.5
190.022	42.5
191.29	44
192.558	45.5
193.825	41.5
195.094	41
196.36	40.5
197.628	39.5
198.896	44
200.162	38
201.429	38
202.695	40.5
203.962	41.5
205.227	39.5
206.493	37.5
207.758	43
209.024	42.5
210.289	34
211.554	36.5
212.818	37.5
214.083	36
215.347	37
216.612	36
217.875	36
219.138	39.5
220.402	41.5
221.665	35
222.928	40
224.19	33
225.454	38
226.715	31.5
227.977	30
229.24	35
230.501	33.5
231.762	34
233.024	33.5
234.284	35
235.546	35
236.806	32.5
238.066	30.5
239.327	35
240.587	32
241.846	32
243.105	28
244.365	33
245.624	34.5
246.882	31.5
248.142	31.5
249.4	30
250.658	33.5
251.916	36
253.174	30
254.432	35.5
255.689	29.5
256.945	28.5
258.202	31
259.46	32
260.716	30.5
261.972	33
263.228	32.5
264.483	29.5
265.74	31.5
266.996	35.5
268.251	28.5
269.505	31
270.76	32
272.014	32.5
273.268	28
274.522	31
275.778	31.5
277.031	30
278.285	29.5
279.538	30
280.791	33.5
282.043	29
283.296	27
284.548	32.5
285.8	30
287.052	32
288.304	31
289.556	29.5
290.807	31
292.058	30.5
293.309	30.5
294.56	32
295.81	29.5
297.061	29
298.311	28
299.561	29.5
300.81	30.5
302.06	29
303.309	30.5
304.558	30.5
305.807	26
307.056	32
308.305	28
309.551	34.5
310.8	27.5
312.047	29
313.295	26.5
314.543	29
315.79	28.5
317.037	32.5
318.284	30
319.529	27.5
320.776	27.5
322.022	27
323.268	32
324.514	33.5
325.758	34.5
327.004	24
328.249	31.5
329.494	33.5
330.739	30.5
331.982	27.5
333.227	30
334.471	31.5
335.715	33
336.958	32.5
338.201	32.5
339.445	31.5
340.687	28
341.93	31
343.173	30
344.414	29
345.657	29
346.899	31
348.14	30
349.381	28
350.623	29.5
351.863	29
353.104	33.5
354.346	32
355.585	30
356.826	29.5
358.065	33
359.305	29
360.545	27
361.784	32
363.023	29
364.261	29
365.501	28.5
366.738	29.5
367.977	31
369.216	27
370.453	30
371.691	35
372.928	30.5
374.166	33
375.402	26
376.64	27
377.876	27.5
379.111	31.5
380.348	34.5
381.584	31.5
382.82	32.5
384.055	33
385.291	26.5
386.526	31.5
387.76	29
388.996	29.5
390.229	27
391.465	29
392.698	26.5
393.931	28.5
395.166	32.5
396.399	29
397.632	31.5
398.866	31
400.098	30
401.33	32
402.563	28
403.795	29.5
405.027	29
406.259	28.5
407.491	30
408.721	29.5
409.954	33
411.184	34
412.415	32.5
413.645	29
414.876	28.5
416.106	31
417.335	33.5
418.565	26
419.794	31.5
421.024	29
422.253	28.5
423.482	28.5
424.71	29
425.938	29
427.168	30.5
428.396	28.5
429.623	32.5
430.851	34
432.078	27
433.305	25
434.532	30
435.758	33
436.986	31
438.212	29.5
439.438	27
440.664	28.5
441.89	28
443.115	31
444.34	33
445.566	32
446.79	26.5
448.015	31.5
449.24	31
450.464	32.5
451.688	35
452.912	34
454.135	29
455.359	28.5
456.582	31.5
457.805	30
459.028	34
460.251	31
461.473	28.5
462.696	29
463.918	32.5
465.14	28.5
466.36	35
467.582	32.5
468.803	34
470.024	37
471.245	38
472.466	33
473.686	36.5
474.907	35.5
476.126	41.5
477.346	45
478.565	47.5
479.785	50.5
481.004	49
482.224	55.5
483.441	55.5
484.66	53
485.879	57.5
487.097	52
488.314	65
489.532	65
490.75	66.5
491.967	59.5
493.184	57.5
494.401	58
495.618	58.5
496.835	49
498.05	54
499.267	51
500.483	45.5
501.698	44
502.913	46
504.129	44
505.343	46.5
506.559	42
507.774	42.5
508.987	39
510.202	39.5
511.415	35
512.63	38
513.844	39
515.056	38
516.27	39
517.482	37.5
518.696	38
519.907	38
521.121	38
522.332	33.5
523.545	35
524.757	30
525.968	32.5
527.18	32
528.39	30
529.602	29.5
530.812	33.5
532.023	37.5
533.233	31.5
534.443	32.5
535.653	32
536.862	30
538.073	27
539.281	29.5
540.491	30.5
541.7	32
542.908	32.5
544.117	31.5
545.325	31.5
546.534	30
547.741	28.5
548.949	29
550.157	32.5
551.364	31
552.57	32.5
553.778	31
554.985	36
556.191	31
557.398	31.5
558.604	29.5
559.809	32
561.014	31.5
562.221	28.5
563.426	28
564.63	33.5
565.835	32.5
567.041	34
568.245	27
569.449	29
570.653	32
571.856	30
573.061	27
574.264	30.5
575.467	33
576.67	29.5
577.873	28
579.076	32.5
580.279	26.5
581.481	33
582.683	33.5
583.884	30
585.086	28.5
586.287	29
587.488	31.5
588.689	29.5
589.891	33.5
591.092	30.5
592.292	23
593.492	28
594.692	29
595.892	34
597.092	30
598.291	28
599.49	28
600.689	30.5
601.888	31
603.087	28
604.285	29.5
605.483	33
606.681	29
607.879	34
609.077	25.5
610.274	32.5
611.472	30.5
612.668	30
613.865	33
615.061	35
616.258	31
617.454	31
618.65	26
619.846	30
621.042	26.5
622.238	33
623.432	31
624.627	32
625.822	28.5
627.017	27.5
628.212	34
629.406	30
630.599	31
631.793	32.5
632.987	30.5
634.181	28.5
635.373	29.5
636.566	27
637.76	34
638.953	31
640.144	28
641.337	28
642.529	34
643.721	29.5
644.912	34.5
646.104	31
647.295	31
648.485	28
649.677	31.5
650.868	30
652.057	29
653.248	29.5
654.437	29
655.628	31
656.818	33.5
658.006	32
659.196	37
660.384	35
661.574	32
662.763	29
663.951	31.5
665.14	28
666.327	27
667.515	31.5
668.702	35.5
669.891	31
671.077	35.5
672.265	35.5
673.451	32
674.638	31.5
675.824	32
677.011	34
678.197	32
679.383	38
680.568	37.5
681.755	32
682.939	34
684.124	37.5
685.309	37
686.494	34.5
687.679	37
688.863	35.5
690.046	36
691.231	36
692.414	35
693.599	37
694.781	41
695.964	34.5
697.148	39
698.33	37
699.512	39
700.694	40
701.877	36.5
703.059	43
704.24	45.5
705.423	49
706.604	50.5
707.784	52
708.965	59.5
710.147	51.5
711.327	50.5
712.507	46.5
713.687	48
714.867	40.5
716.048	42
717.227	30
718.406	33.5
719.585	33.5
720.764	34.5
721.942	33.5
723.122	32.5
724.3	32
725.478	29
726.656	34.5
727.834	32
729.011	34.5
730.189	33
731.366	29.5
732.543	31.5
733.719	25
734.896	31
736.072	33
737.249	28.5
738.426	34
739.602	32
740.777	28
741.953	31
743.128	27
744.303	30
745.477	30.5
746.651	28.5
747.826	33
749	26
750.174	30.5
751.348	29
752.522	32.5
753.696	35
754.869	31.5
756.043	25.5
757.216	29.5
758.389	28
759.561	27.5
760.732	30
761.905	27
763.077	29
764.249	31
765.421	36.5
766.592	31.5
767.762	29.5
768.934	31.5
770.105	28
771.275	31
772.446	29
773.615	30.5
774.786	34
775.956	29
777.126	30
778.294	29.5
779.464	32.5
780.633	27.5
781.801	31
782.97	31.5
784.139	29.5
785.306	34.5
786.475	31.5
787.643	35
788.81	34.5
789.978	32
791.146	38.5
792.312	33.5
793.479	35.5
794.647	35.5
795.812	30
796.979	30.5
798.144	33.5
799.311	32
800.477	33.5
801.642	33.5
802.808	32
803.972	32
805.138	27.5
806.302	32.5
807.467	35
808.631	33
809.796	33.5
810.959	29
812.124	29
813.287	34
814.451	33
815.614	30.5
816.777	31
817.94	25
819.102	30.5
820.265	32
821.427	30
822.59	31
823.751	30
824.912	30.5
826.074	26.5
827.235	29.5
828.397	28.5
829.558	30
830.718	30
831.879	24.5
833.039	31.5
834.199	31
835.359	26
836.519	27
837.679	31.5
838.838	28
839.998	32.5
841.156	28.5
842.315	27.5
843.473	29.5
844.633	27.5
845.791	30.5
846.948	32
848.106	30.5
849.263	32.5
850.422	31.5
851.579	31.5
852.736	32
853.892	30
855.049	32.5
856.205	29
857.363	29.5
858.519	33.5
859.674	32
860.83	30
861.986	30.5
863.141	35.5
864.296	31.5
865.451	30
866.605	30
867.76	30.5
868.914	29.5
870.069	29.5
871.224	30
872.378	34
873.531	34.5
874.685	27.5
875.838	28
876.991	29
878.144	33
879.296	28.5
880.448	30
881.6	30
882.753	28
883.905	28.5
885.057	29
886.208	29.5
887.36	29.5
888.511	29
889.662	31.5
890.813	29.5
891.964	24.5
893.113	27.5
894.264	27
895.414	31
896.564	30
897.714	28
898.864	31.5
900.012	28.5
901.161	33
902.31	27.5
903.459	29
904.607	24.5
905.756	30.5
906.904	21
908.052	24
909.199	29.5
910.347	28.5
911.495	29
912.643	26.5
913.789	33
914.936	28
916.083	25.5
917.229	27
918.375	28.5
919.522	28.5
920.667	28
921.813	29
922.959	27
924.104	30.5
925.249	24
926.393	29
927.539	28.5
928.684	30
929.827	31
930.972	30
932.115	29
933.26	26.5
934.403	27.5
935.547	31.5
936.689	29
937.833	30.5
938.975	31
940.119	27
941.26	28
942.404	25.5
943.545	26
944.688	25
945.829	29.5
946.971	26
948.112	27.5
949.253	25.5
950.394	29
951.535	27.5
952.676	34
953.816	31
954.956	29.5
956.097	29
957.236	26.5
958.377	33.5
959.516	27
960.655	29
961.793	25
962.933	29.5
964.071	29
965.21	22
966.349	29.5
967.487	29.5
968.624	27
969.762	30.5
970.901	29.5
972.038	28
973.175	29
974.311	28.5
975.449	26
976.586	25.5
977.722	27
978.858	26.5
979.994	22.5
981.131	29
982.267	31.5
983.402	28
984.537	27.5
985.672	31
986.807	28.5
987.942	27
989.076	24.5
990.211	30
991.346	27
992.48	29
993.614	27.5
994.748	26.5
995.881	24.5
997.014	26.5
998.148	29
999.28	30
1000.41	27
1001.55	27.5
1002.68	29
1003.81	30
1004.94	25
1006.07	24
1007.21	25
1008.34	31
1009.47	28
1010.6	28
1011.73	26.5
1012.86	24.5
1013.99	27.5
1015.12	25
1016.25	31.5
1017.38	27.5
1018.51	25
1019.64	27
1020.77	28
1021.9	28
1023.03	28
1024.16	30
1025.29	25
1026.42	29.5
1027.54	27.5
1028.67	32
1029.8	27.5
1030.93	29
1032.06	27.5
1033.18	25.5
1034.31	25
1035.44	28.5
1036.56	29.5
1037.69	27.5
1038.82	27.5
1039.94	27.5
1041.07	27
1042.2	25
1043.32	23
1044.45	27
1045.57	26.5
1046.7	28
1047.82	30
1048.95	27
1050.07	27
1051.2	25
1052.32	28.5
1053.45	28
1054.57	26
1055.69	25.5
1056.82	27
1057.94	29
1059.06	30.5
1060.19	29
1061.31	27.5
1062.43	28.5
1063.55	27.5
1064.68	27
1065.8	28
1066.92	29.5
1068.04	27
1069.16	26
1070.28	31
1071.41	31
1072.53	27.5
1073.65	31.5
1074.77	28
1075.89	29
1077.01	28
1078.13	26.5
1079.25	29
1080.37	30.5
1081.49	30
1082.61	29.5
1083.73	25
1084.85	24.5
1085.96	27
1087.08	27
1088.2	30
1089.32	28
1090.44	30.5
1091.56	27.5
1092.67	30
1093.79	24
1094.91	28
1096.03	28.5
1097.14	25.5
1098.26	27
1099.38	26
1100.49	26
1101.61	22.5
1102.73	28
1103.84	27.5
1104.96	27.5
1106.07	20
1107.19	24
1108.3	25.5
1109.42	26.5
1110.53	27.5
1111.65	27
1112.76	24.5
1113.88	25
1114.99	26
1116.1	29.5
1117.22	26
1118.33	25
1119.44	26.5
1120.56	23.5
1121.67	24
1122.78	27
1123.9	25
1125.01	25
1126.12	26.5
1127.23	27
1128.34	24.5
1129.46	30
1130.57	25.5
1131.68	27
1132.79	26
1133.9	26.5
1135.01	25.5
1136.12	27
1137.23	25
1138.34	25.5
1139.45	26.5
1140.56	24.5
1141.67	25
1142.78	23.5
1143.89	26
1145	30.5
1146.11	27.5
1147.22	25
1148.33	27.5
1149.44	22.5
1150.54	31.5
1151.65	27
1152.76	28
1153.87	28
1154.97	26.5
1156.08	26
1157.19	31.5
1158.3	29
1159.4	25.5
1160.51	24.5
1161.62	23.5
1162.72	25
1163.83	28
1164.93	28.5
1166.04	24
1167.15	24.5
1168.25	29
1169.36	29.5
1170.46	27.5
1171.57	30
1172.67	24.5
1173.78	24.5
1174.88	26
1175.98	28
1177.09	23
1178.19	27.5
1179.3	27.5
1180.4	27
1181.5	26
1182.61	26.5
1183.71	26
1184.81	24
1185.91	27
1187.02	25
1188.12	23
1189.22	23.5
1190.32	26
1191.42	23
1192.53	26
1193.63	26
1194.73	29.4789
1195.83	27.9068
1196.93	25.1228
1198.03	27.9949
1199.13	28.3736
1200.23	25.0699
1201.33	26.0755
1202.43	26.92
1203.53	26.3779
1204.63	24.8587
1205.73	23.2268
1206.83	24.9281
1207.93	28.1231
1209.02	24.7936
1210.12	23.1936
1211.22	25.7503
1212.32	27.7114
1213.42	25.6475
1214.52	23.9492
1215.61	29.4322
1216.71	25.5885
1217.81	29.0116
1218.91	27.6483
1220	23.9793
1221.1	27.1952
1222.2	25.3208
1223.29	23.7565
1224.39	26.5413
1225.49	29.5363
1226.58	23.6625
1227.68	27.6694
1228.77	26.7407
1229.87	23.7275
1230.96	25.0954
1232.06	25.91
1233.15	24.7182
1234.25	26.1363
1235.34	27.3906
1236.44	23.8083
1237.53	26.0167
1238.63	25.399
1239.72	24.2213
1240.81	25.1505
1241.91	25.4817
1243	26.3744
1244.09	26.37
1245.19	24.9419
1246.28	24.5804
1247.37	24.7646
1248.46	27.0971
1249.56	29.7318
1250.65	25.5318
1251.74	26.7258
1252.83	26.454
1253.92	28.9402
1255.01	25.8227
1256.11	26.3021
1257.2	29.614
1258.29	29.3778
1259.38	27.1707
1260.47	29.7309
1261.56	27.929
1262.65	28
1263.74	28
1264.83	25.8936
1265.92	26.3839
1267.01	27.2103
1268.1	27.7505
1269.19	27.1947
1270.27	27.6019
1271.36	24.9156
1272.45	25.3058
1273.54	28.2271
1274.63	25.6327
1275.72	27.1338
1276.8	24.4719
1277.89	28.4926
1278.98	23.0625
1280.07	24.1898
1281.15	22.8031
1282.24	22.7627
1283.33	23.4721
1284.41	24.3981
1285.5	27.844
1286.59	25.4925
1287.67	24.9344
1288.76	23.7698
1289.84	24.853
1290.93	25.8184
1292.01	25.6068
1293.1	27.2906
1294.19	24.5439
1295.27	24.956
1296.35	25.0228
1297.44	26.3988
1298.52	24.8581
1299.61	27.0651
1300.69	24.1976
1301.78	23.6562
1302.86	23.6042
1303.94	25.8004
1305.03	26.1357
1306.11	26.0073
1306.4	26
1307.49	25
1308.57	24.5
1309.66	24
1310.75	22.5
1311.84	24
1312.92	26.5
1314.01	24
1315.1	26
1316.19	23
1317.27	26
1318.36	24
1319.45	24
1320.53	24
1321.62	25.5
1322.7	27
1323.79	28
1324.88	23
1325.96	26.5
1327.05	26
1328.13	23
1329.21	26.5
1330.3	22
1331.38	28
1332.47	23
1333.55	24
1334.64	25.5
1335.72	23.5
1336.8	28
1337.89	23.5
1338.97	29.5
1340.05	26.5
1341.14	22.5
1342.22	29
1343.3	24.5
1344.39	25
1345.47	26
1346.55	24.5
1347.63	25
1348.71	26
1349.79	26.5
1350.88	27
1351.96	23.5
1353.04	22
1354.12	25
1355.2	24
1356.28	26.5
1357.36	25.5
1358.44	25
1359.52	26.5
1360.6	28.5
1361.68	20.5
1362.76	26
1363.84	23
1364.92	22.5
1366	26.5
1367.08	28
1368.16	26
1369.23	26.5
1370.31	26.5
1371.39	25.5
1372.47	19
1373.55	27
1374.62	22
1375.7	24.5
1376.78	31
1377.85	24
1378.93	24.5
1380.01	24.5
1381.09	24
1382.16	22
1383.24	27
1384.31	26.5
1385.39	26.5
1386.47	27
1387.54	26.5
1388.62	28.5
1389.69	27.5
1390.77	26
1391.84	31
1392.92	29
1393.99	29
1395.06	30.5
1396.14	29
1397.21	28
1398.29	31
1399.36	31
1400.43	30.5
1401.51	31.5
1402.58	37
1403.65	30.5
1404.73	31
1405.8	30
1406.87	28
1407.94	29
1409.02	28.5
1410.09	33.5
1411.16	31
1412.23	31
1413.3	33
1414.37	35.5
1415.45	34
1416.52	28
1417.59	26
1418.66	33
1419.73	30.5
1420.8	25.5
1421.87	30
1422.94	30.5
1424.01	30
1425.08	23.5
1426.15	32
1427.22	25
1428.29	28.5
1429.35	30
1430.42	25
1431.49	27.5
1432.56	24
1433.63	26
1434.7	23.5
1435.77	27.5
1436.83	29.5
1437.9	28
1438.97	26
1440.04	24.5
1441.1	25.5
1442.17	29
1443.24	26.5
1444.3	31.5
1445.37	29.5
1446.44	27.5
1447.5	23
1448.57	27
1449.63	28
1450.7	26.5
1451.76	27
1452.83	27
1453.89	32
1454.96	28
1456.02	30
1457.09	29.5
1458.15	27.5
1459.22	24.5
1460.28	28.5
1461.34	25.5
1462.41	26.5
1463.47	28
1464.54	28
1465.6	25
1466.66	26
1467.72	28.5
1468.79	30
1469.85	25
1470.91	27
1471.97	26
1473.04	26
1474.1	28.5
1475.16	27
1476.22	28
1477.28	22
1478.34	27
1479.4	28
1480.47	28
1481.53	28
1482.59	22
1483.65	26.5
1484.71	28
1485.77	29.5
1486.83	23.5
1487.89	29.5
1488.95	29
1490.01	27
1491.07	27.5
1492.12	23.5
1493.18	27
1494.24	28.5
1495.3	24.5
1496.36	28.5
1497.42	30.5
1498.47	28
1499.53	29.5
1500.59	28
1501.65	26.5
1502.7	26
1503.76	28
1504.82	28.5
1505.88	25.5
1506.93	28.5
1507.99	27.5
1509.05	28
1510.1	27.5
1511.16	26
1512.21	27
1513.27	28.5
1514.32	29
1515.38	25
1516.43	25
1517.49	27
1518.54	24.5
1519.6	27.5
1520.65	24.5
1521.71	27.5
1522.76	27.5
1523.82	27.5
1524.87	31.5
1525.92	25.5
1526.98	27.5
1528.03	24.5
1529.08	22
1530.14	25.5
1531.19	27
1532.24	28.5
1533.3	24.5
1534.35	27
1535.4	28
1536.45	26
1537.5	23.5
1538.56	27.5
1539.61	20
1540.66	25.5
1541.71	26.5
1542.76	29
1543.81	21.5
1544.86	26.5
1545.91	25
1546.96	23
1548.01	28.5
1549.06	25.5
1550.11	26
1551.16	29
1552.21	26
1553.26	25
1554.31	26
1555.36	27
1556.41	29.5
1557.46	26.5
1558.51	25
1559.55	25
1560.6	27.5
1561.65	26.5
1562.7	28
1563.75	24.5
1564.79	25.5
1565.84	28
1566.89	25.5
1567.94	29
1568.98	25.5
1570.03	29.5
1571.07	26.5
1572.12	25.5
1573.17	27
1574.21	26
1575.26	23
1576.31	27
1577.35	28
1578.4	29.5
1579.44	26.5
1580.49	25
1581.53	26
1582.58	24
1583.62	30
1584.67	25
1585.71	28
1586.75	23.5
1587.8	24
1588.84	25
1589.89	28
1590.93	26
1591.97	25
1593.02	23.5
1594.06	28.5
1595.1	23
1596.14	23
1597.19	25.5
1598.23	25.5
1599.27	26
1600.31	28.5
1601.35	29
1602.4	29
1603.44	23.5
1604.48	23.5
1605.52	25.5
1606.56	26
1607.6	22
1608.64	24
1609.68	22.5
1610.72	25
1611.76	27
1612.8	28
1613.84	26
1614.88	27
1615.92	26
1616.96	21.5
1618	26
1619.04	31
1620.08	26
1621.12	26
1622.16	24
1623.19	25.5
1624.23	24
1625.27	25.5
1626.31	25
1627.35	24.5
1628.38	23.5
1629.42	25
1630.46	29
1631.5	25
1632.53	25.5
1633.57	23.5
1634.61	28.5
1635.64	28
1636.68	25.5
1637.71	28
1638.75	24
1639.79	25.5
1640.82	24.5
1641.86	26.5
1642.89	26
1643.93	24.5
1644.96	29
1646	24
1647.03	27.5
1648.07	26.5
1649.1	25
1650.14	29.5
1651.17	25.5
1652.2	23
1653.24	29
1654.27	28.5
1655.3	24
1656.34	27
1657.37	25
1658.4	27
1659.44	25
1660.47	22.5
1661.5	24.5
1662.53	27.5
1663.57	24.5
1664.6	26
1665.63	26
1666.66	26
1667.69	26
1668.72	22
1669.75	22
1670.79	24
1671.82	25
1672.85	30
1673.88	23.5
1674.91	23
1675.94	27
1676.97	27.5
1678	25
1679.03	24
1680.06	29
1681.09	23.5
1682.11	28.5
1683.14	24.5
1684.17	28.5
1685.2	26.5
1686.23	26
1687.26	28.5
1688.29	27
1689.32	22.5
1690.34	27
1691.37	26
1692.4	26.5
1693.43	26.5
1694.45	27.5
1695.48	21.5
1696.51	26.5
1697.53	26.5
1698.56	26
1699.59	26
1700.61	26
1701.64	27
1702.66	26.5
1703.69	22.5
1704.72	24
1705.74	25.5
1706.77	26.5
1707.79	26.5
1708.82	25
1709.84	25.5
1710.87	26
1711.89	26.5
1712.92	26.5
1713.94	25.5
1714.96	25
1715.99	29.5
1717.01	22
1718.04	28.5
1719.06	23.5
1720.08	30.5
1721.11	27
1722.13	22.5
1723.15	29
1724.17	24.5
1725.2	26
1726.22	29
1727.24	24
1728.26	26
1729.28	26.5
1730.31	27
1731.33	24
1732.35	28
1733.37	24
1734.39	26
1735.41	29
1736.43	29.5
1737.45	26
1738.47	26
1739.49	25
1740.51	24
1741.53	23.5
1742.55	25
1743.57	25
1744.59	24
1745.61	25.5
1746.63	24.5
1747.65	26
1748.67	23
1749.69	26
1750.71	22.5
1751.72	24
1752.74	30.5
1753.76	23
1754.78	27
1755.8	27.5
1756.81	28.5
1757.83	27
1758.85	27
1759.86	26.5
1760.88	28
1761.9	26
1762.91	26
1763.93	26.5
1764.95	26
1765.96	24.5
1766.98	26
1768	28
1769.01	25.5
1770.03	26.5
1771.04	30
1772.06	28.5
1773.07	26
1774.09	23
1775.1	22
1776.12	26.5
1777.13	28.5
1778.14	25.5
1779.16	27
1780.17	27
1781.19	28
1782.2	30
1783.21	24
1784.23	28.5
1785.24	25
1786.25	26.5
1787.27	25.5
1788.28	26
1789.29	26
1790.3	23
1791.32	26
1792.33	23.5
1793.34	28
1794.35	21
1795.36	21.5
1796.37	27
1797.38	23.5
1798.4	25
1799.41	24
1800.42	25
1801.43	24
1802.44	22
1803.45	23.5
1804.46	26.5
1805.47	25
1806.48	24
1807.49	24
1808.5	20.5
1809.51	26
1810.52	25
1811.53	26.5
1812.53	24.5
1813.54	24.5
1814.55	20
1815.56	23.5
1816.57	26
1817.58	25.5
1818.58	24
1819.59	26
1820.6	24
1821.61	24
1822.61	22.5
1823.62	27.5
1824.63	24
1825.64	25.5
1826.64	23.5
1827.65	25
1828.66	25
1829.66	26
1830.67	25.5
1831.67	24.5
1832.68	27
1833.68	25
1834.69	27
1835.7	25
1836.7	29.5
1837.71	24.5
1838.71	30.5
1839.71	27
1840.72	23
1841.72	23.5
1842.73	27
1843.73	23.5
1844.74	26
1845.74	28
1846.74	21.5
1847.75	28
1848.75	25
1849.75	25.5
1850.76	22.5
1851.76	28.5
1852.76	25
1853.76	25.5
1854.77	28
1855.77	28.5
1856.77	26
1857.77	25
1858.77	25.5
1859.78	23.5
1860.78	23
1861.78	25
1862.78	27.5
1863.78	23.5
1864.78	27
1865.78	23
1866.78	30
1867.78	26.5
1868.78	25.5
1869.78	25
1870.78	24
1871.78	27
1872.78	26.5
1873.78	27
1874.78	24
1875.78	25.5
1876.78	26
1877.78	25
1878.78	24.5
1879.77	24.5
1880.77	26
1881.77	25
1882.77	24
1883.77	26.5
1884.76	24
1885.76	23
1886.76	24
1887.76	25.5
1888.75	24
1889.75	24.5
1890.75	25
1891.74	25
1892.74	27
1893.74	26.5
1894.73	24
1895.73	24.5
1896.72	25
1897.72	25.5
1898.72	28
1899.71	25.5
1900.71	24.5
1901.7	26.5
1902.7	24
1903.69	26
1904.69	25.5
1905.68	25
1906.67	24
1907.67	26.5
1908.66	27.5
1909.66	25.5
1910.65	24
1911.64	26.5
1912.64	24
1913.63	27.5
1914.62	23
1915.62	26.5
1916.61	24.5
1917.6	25
1918.59	23
1919.59	28.5
1920.58	26.5
1921.57	25
1922.56	26
1923.55	23.5
1924.55	24
1925.54	26.5
1926.53	25
1927.52	24.5
1928.51	26.5
1929.5	28
1930.49	22.5
1931.48	26
1932.47	24
1933.46	27
1934.45	23.5
1935.44	24.5
1936.43	27
1937.42	23
1938.41	27
1939.4	25
1940.39	24
1941.38	22.5
1942.37	24
1943.36	25.5
1944.34	24.5
1945.33	20.5
1946.32	24.5
1947.31	25
1948.3	23.5
1949.28	22
1950.27	25
1951.26	25.5
1952.25	27.5
1953.23	24.5
1954.22	24
1955.21	27.5
1956.2	25.5
1957.18	25
1958.17	26.5
1959.15	26
1960.14	25
1961.13	26
1962.11	16
1963.1	22.5
1964.08	25
1965.07	24
1966.05	24
1967.04	22
1968.02	25
1969.01	26.5
1969.99	22
1970.98	26
1971.96	22
1972.94	25
1973.93	23.5
1974.91	26
1975.9	22.5
1976.88	24.5
1977.86	22.5
1978.85	26
1979.83	27
1980.81	24
1981.8	24
1982.78	27.5
1983.76	26
1984.74	25
1985.72	23.5
1986.71	23.5
1987.69	23
1988.67	28
1989.65	26
1990.63	23.5
1991.61	25
1992.6	24
1993.58	26
1994.56	27
1995.54	25.5
1996.52	23.5
1997.5	22
1998.48	24.5
1999.46	25.5
2000.44	22.5
2001.42	24.5
2002.4	25
2003.38	22
2004.36	27
2005.34	25.5
2006.32	28
2007.29	24
2008.27	25.5
2009.25	25.5
2010.23	22
2011.21	24
2012.19	21.5
2013.16	25
2014.14	22.5
2015.12	26.5
2016.1	25.5
2017.07	23
2018.05	23.5
2019.03	23
2020	26
2020.98	23
2021.96	25
2022.93	21
2023.91	22.5
2024.89	26
2025.86	23
2026.84	22.5
2027.81	25
2028.79	24
2029.77	24.5
2030.74	24.5
2031.72	27
2032.69	23.5
2033.67	22
2034.64	23.5
2035.61	24
2036.59	24
2037.56	25
2038.54	24.5
2039.51	23.5
2040.48	23
2041.46	22.5
2042.43	26.5
2043.41	24.5
2044.38	27
2045.35	22
2046.32	24.5
2047.3	21
2048.27	24.5
2049.24	23
2050.21	21
2051.19	23
2052.16	25.5
2053.13	26
2054.1	23
2055.07	25
2056.04	26.5
2057.02	24
2057.99	27
2058.96	25
2059.93	24
2060.9	25.5
2061.87	21.5
2062.84	25.5
2063.81	27
2064.78	22.5
2065.75	24
2066.72	27
2067.69	26.5
2068.66	24.5
2069.63	29
2070.6	23
2071.57	23.5
2072.53	27
2073.5	26.5
2074.47	22
2075.44	23
2076.41	22.5
2077.38	30
2078.34	21.5
2079.31	25.5
2080.28	23.5
2081.25	25.5
2082.21	25
2083.18	26
2084.15	22.5
2085.12	23
2086.08	25.5
2087.05	22
2088.02	24
2088.98	20.5
2089.95	26.5
2090.91	24.5
2091.88	24
2092.85	27
2093.81	21
2094.78	20
2095.74	19.5
2096.71	23
2097.67	18
2098.64	27
2099.6	25
2100.57	26
2101.53	24
2102.5	23
2103.46	23
2104.42	21
2105.39	24.5
2106.35	21
2107.31	24
2108.28	24
2109.24	24
2110.2	25.5
2111.17	26.5
2112.13	23.5
2113.09	28
2114.06	21.5
2115.02	24.5
2115.98	23
2116.94	27
2117.9	24
2118.86	20
2119.83	23
2120.79	27
2121.75	21
2122.71	25
2123.67	22
2124.63	24
2125.59	22
2126.55	22
2127.51	25
2128.48	24
2129.43	18
2130.4	23.5
2131.35	23
2132.31	25
2133.27	24.5
2134.23	29
2135.19	25
2136.15	24
2137.11	24
2138.07	22
2139.03	21.5
2139.99	25
2140.95	23
2141.9	24
2142.86	22.5125
2143.82	20.0209
2144.78	23.0373
2145.74	23.459
2146.69	21.6562
2147.65	20.6869
2148.61	23.1062
2149.56	23.1867
2150.52	25.3045
2151.48	21.1358
2152.44	23.6703
2153.39	24.5139
2154.35	21.4266
2155.3	21.3401
2156.26	21.9812
2157.22	21.1984
2158.17	25.0567
2159.13	23.1381
2160.08	24.6332
2161.04	22.8419
2161.99	22.2233
2162.95	20.6481
2163.9	20.2645
2164.86	24.7597
2165.81	21.7701
2166.77	21.1978
2167.72	22.7004
2168.68	22.1219
2169.63	26.6304
2170.58	26.3678
2171.54	23.2204
2172.49	24.6269
2173.44	24.6205
2174.4	22.291
2175.35	18.7567
2176.3	23.7279
2177.26	24.4867
2178.21	23.9608
2179.16	22.3738
2180.11	22.9394
2181.07	21.9023
2182.02	23.6242
2182.97	21.4502
2183.92	23.7023
2184.88	21.7473
2185.83	22.2624
2186.78	20.467
2187.73	22.8085
2188.68	19.4074
2189.63	22.4738
2190.58	21.8158
2191.53	22.4101
2192.48	22.6155
2193.43	24.7871
2194.38	22.2467
2195.33	21.4571
2196.28	24.335
2197.23	23.0766
2198.18	20.887
2199.13	21.7742
2200.08	25.2354
2201.03	20.534
2201.98	23.2675
2202.93	22.733
2203.88	22.3938
2204.83	24.2747
2205.78	24.5516
2206.72	22.5262
2207.67	24.305
2208.62	23.2144
2209.57	20.8957
2210.52	21.4587
2211.46	22.8442
2212.41	22.3323
2213.36	21.9097
2214.31	22.0123
2215.25	22.4242
2216.2	23.5187
2217.15	22.3917
2218.09	20.5608
2219.04	22.4112
2219.99	25.0288
2220.93	24.1389
2221.88	23.0289
2222.83	25.1146
2223.77	25.3513
2224.72	22.9771
2225.66	22.8649
2226.61	19.3292
2227.55	21.539
2228.5	22.9233
2229.44	22.4779
2230.39	22.476
2231.33	21.9396
2232.28	23.5527
2233.22	22.8777
2234.17	24.9646
2235.11	21.6841
2236.05	26.3712
2237	22.3764
2237.94	20.6503
2238.88	21.7198
2239.83	23.177
2240.04	23.5
2240.98	26.5
2241.93	24.5
2242.88	25
2243.83	25
2244.78	19.5
2245.72	22
2246.67	28
2247.62	24.5
2248.56	27
2249.51	25
2250.46	25
2251.4	22
2252.35	21.5
2253.3	26.5
2254.24	22
2255.19	21
2256.14	22
2257.08	23.5
2258.03	25.5
2258.97	21
2259.92	21.5
2260.86	25.5
2261.81	25
2262.75	20
2263.7	24
2264.64	22.5
2265.59	21.5
2266.53	24
2267.48	28
2268.42	29
2269.36	25
2270.31	22
2271.25	29
2272.19	26
2273.14	24.5
2274.08	21.5
2275.02	23.5
2275.97	23
2276.91	24.5
2277.85	18
2278.8	23
2279.74	24.5
2280.68	25.5
2281.62	22
2282.56	28
2283.51	20.5
2284.45	21.5
2285.39	21
2286.33	24.5
2287.27	23
2288.21	22
2289.15	24.5
2290.09	24
2291.04	25.5
2291.98	22
2292.92	24
2293.86	22.5
2294.8	24.5
2295.74	24.5
2296.68	26.5
2297.62	24.5
2298.56	21.5
2299.5	27
2300.44	25
2301.37	21.5
2302.31	23.5
2303.25	24
2304.19	21
2305.13	27
2306.07	23.5
2307.01	23
2307.94	28
2308.88	21.5
2309.82	24
2310.76	22.5
2311.7	22.5
2312.63	22.5
2313.57	24
2314.51	23.5
2315.44	26
2316.38	26
2317.32	23.5
2318.26	20.5
2319.19	21
2320.13	24
2321.06	24.5
2322	21
2322.94	21.5
2323.87	26
2324.81	25.5
2325.74	29
2326.68	21.5
2327.61	22.5
2328.55	23
2329.48	21
2330.42	27
2331.35	24
2332.29	23.5
2333.22	20
2334.16	24.5
2335.09	24
2336.02	23
2336.96	23
2337.89	23
2338.83	25
2339.76	25
2340.69	24.5
2341.63	21.5
2342.56	23.5
2343.49	23.5
2344.42	26.5
2345.36	22
2346.29	22.5
2347.22	22
2348.15	23
2349.09	23.5
2350.02	19.5
2350.95	22
2351.88	24
2352.81	24
2353.74	21
2354.68	23.5
2355.61	21.5
2356.54	26
2357.47	21.5
2358.4	22
2359.33	21.5
2360.26	27.5
2361.19	25.5
2362.12	29
2363.05	23
2363.98	24
2364.91	24.5
2365.84	21
2366.77	24
2367.7	23.5
2368.63	26
2369.56	24.5
2370.49	24
2371.41	22.5
2372.34	29.5
2373.27	23.5
2374.2	26.5
2375.13	25
2376.06	22
2376.98	24.5
2377.91	23
2378.84	24.5
2379.77	27
2380.69	24
2381.62	26
2382.55	24
2383.47	24
2384.4	25
2385.33	23
2386.25	27.5
2387.18	25
2388.11	23
2389.03	25
2389.96	24
2390.89	24
2391.81	21
2392.74	27
2393.66	24
2394.59	22
2395.51	23
2396.44	24
2397.36	25.5
2398.29	19
2399.21	23
2400.14	24
2401.06	24
2401.99	18
2402.91	26
2403.83	25
2404.76	22.5
2405.68	25
2406.6	24
2407.53	23.5
2408.45	25
2409.37	21
2410.3	25.5
2411.22	24.5
2412.14	28
2413.06	22.5
2413.99	22
2414.91	20.5
2415.83	23.5
2416.75	27.5
2417.68	24.5
2418.6	23
2419.52	22
2420.44	25
2421.36	26
2422.28	19.5
2423.2	26.5
2424.12	25.5
2425.05	19.5
2425.97	27
2426.89	22.5
2427.81	21
2428.73	23
2429.65	26
2430.57	26.5
2431.49	23
2432.41	21.5
2433.33	22
2434.25	22.5
2435.17	22
2436.08	20.5
2437	29
2437.92	27
2438.84	27
2439.76	24
2440.68	26
2441.6	26.5
2442.51	27
2443.43	21
2444.35	27
2445.27	20.5
2446.19	29
2447.1	22
2448.02	26
2448.94	22.5
2449.85	22.5
2450.77	22.5
2451.69	27.5
2452.61	20.5
2453.52	25
2454.44	22.5
2455.35	23
2456.27	22.5
2457.19	24
2458.1	26
2459.02	25
2459.94	20.5
2460.85	26
2461.77	21
2462.68	27.5
2463.6	21
2464.51	23
2465.43	21.5
2466.34	22.5
2467.25	27
2468.17	24.5
2469.08	23.5
2470	27
2470.91	25.5
2471.83	26
2472.74	22.5
2473.65	25.5
2474.57	23
2475.48	23
2476.39	26
2477.31	25
2478.22	23.5
2479.13	28
2480.04	25.5
2480.96	23.5
2481.87	22
2482.78	24.5
2483.69	23.5
2484.6	25
2485.52	22.5
2486.43	23.5
2487.34	23
2488.25	26.5
2489.16	24
2490.07	22
2490.99	21.5
2491.9	25.5
2492.81	25
2493.72	21
2494.63	28
2495.54	26.5
2496.45	28.5
2497.36	28
2498.27	21.5
2499.18	28
2500.09	25
2501	26.5
2501.91	29
2502.82	22
2503.73	27
2504.63	22
2505.54	23
2506.45	19.5
2507.36	29
2508.27	24.5
2509.18	27
2510.09	22.5
2510.99	26
2511.9	27
2512.81	24
2513.72	25
2514.62	27.5
2515.53	22.5
2516.44	24.5
2517.35	23
2518.25	21
2519.16	25
2520.07	26.5
2520.97	25
2521.88	23.5
2522.79	20.5
2523.69	28.5
2524.6	21
2525.51	22
2526.41	25
2527.32	25
2528.22	27
2529.13	25
2530.03	23.5
2530.94	24.5
2531.84	26
2532.75	23
2533.65	24
2534.56	22.5
2535.46	21
2536.37	24.5
2537.27	23
2538.17	27
2539.08	22.5
2539.98	25
2540.89	24
2541.79	27.5
2542.69	28.5
2543.6	25.5
2544.5	25
2545.4	24
2546.31	25
2547.21	22
2548.11	28
2549.01	23.5
2549.92	21.5
2550.82	24
2551.72	27
2552.62	21.5
2553.52	23
2554.42	26
2555.33	25.5
2556.23	24.5
2557.13	24
2558.03	26.5
2558.93	22.5
2559.83	24
2560.73	25
2561.63	25
2562.53	22.5
2563.43	27
2564.33	27
2565.24	24
2566.13	23.5
2567.04	25
2567.93	22.5
2568.83	26.5
2569.73	23
2570.63	22
2571.53	25
2572.43	24
2573.33	26.5
2574.23	21
2575.13	24
2576.03	22.5
2576.92	21
2577.82	25.5
2578.72	23.5
2579.62	25
2580.52	22
2581.41	24
2582.31	24
2583.21	27.5
2584.11	23
2585	27
2585.9	26
2586.8	21
2587.69	23.5
2588.59	23
2589.49	24
2590.38	25.5
2591.28	21.5
2592.18	24.5
2593.07	27
2593.97	24.5
2594.86	24
2595.76	24
2596.66	24.5
2597.55	26
2598.45	23.5
2599.34	26
2600.24	26
2601.13	21.5
2602.03	25
2602.92	25
2603.81	25
2604.71	23
2605.6	30
2606.5	25.5
2607.39	21
2608.28	25
2609.18	25
2610.07	24.5
2610.97	21
2611.86	26.5
2612.75	23.5
2613.64	22.5
2614.54	28
2615.43	27.5
2616.32	24.5
2617.22	27
2618.11	20.5
2619	20.5
2619.89	28
2620.78	24
2621.68	24.5
2622.57	24
2623.46	28
2624.35	24
2625.24	25
2626.13	25.5
2627.02	27
2627.91	22
2628.81	25
2629.7	21.5
2630.59	24.5
2631.48	25
2632.37	27
2633.26	24.5
2634.15	23
2635.04	25.5
2635.93	26
2636.82	20.5
2637.71	22.5
2638.59	22
2639.48	26
2640.37	26
2641.26	23
2642.15	21.5
2643.04	23
2643.93	27
2644.82	25.5
2645.71	25.5
2646.59	24
2647.48	24
2648.37	25.5
2649.26	27.5
2650.15	25.5
2651.03	25.5
2651.92	26.5
2652.81	21
2653.69	23
2654.58	23
2655.47	22
2656.35	26
2657.24	24.5
2658.13	23
2659.01	22.5
2659.9	27.5
2660.79	27.5
2661.67	27.5
2662.56	22
2663.44	19
2664.33	23.5
2665.22	26.5
2666.1	23
2666.99	17
2667.87	23.5
2668.76	21.5
2669.64	22.5
2670.52	26.5
2671.41	25.5
2672.29	25
2673.18	24
2674.06	26
2674.95	25
2675.83	19.5
2676.71	24
2677.6	23.5
2678.48	24
2679.36	25
2680.25	21
2681.13	25
2682.01	25
2682.9	25
2683.78	25
2684.66	25
2685.55	29
2686.43	23
2687.31	26
2688.19	21
2689.07	24
2689.96	24.5
2690.84	23.5
2691.72	21
2692.6	22
2693.48	24
2694.36	19.5
2695.24	21
2696.12	25
2697	23
2697.89	25
2698.77	24.5
2699.65	24.5
2700.53	27.5
2701.41	23.5
2702.29	22
2703.17	27
2704.05	24
2704.93	21
2705.81	23
2706.69	25
2707.57	23
2708.44	24
2709.32	20
2710.2	26
2711.08	24.5
2711.96	25
2712.84	24
2713.72	25
2714.59	26
2715.47	24.5
2716.35	22.5
2717.23	26.5
2718.11	25
2718.98	25.5
2719.86	22.5
2720.74	20
2721.62	23.5
2722.49	24
2723.37	21.5
2724.25	25.5
2725.12	28.5
2726	27
2726.88	21.5
2727.75	24
2728.63	23
2729.51	26
2730.38	23
2731.26	25
2732.13	26
2733.01	26.5
2733.88	21
2734.76	26
2735.63	22
2736.51	21.5
2737.38	25
2738.26	25
2739.13	22
2740.01	25.5
2740.88	28
2741.76	26
2742.63	24
2743.5	25.5
2744.38	28
2745.25	23
2746.13	24.5
2747	24.5
2747.87	23.5
2748.75	22.5
2749.62	26.5
2750.49	24.5
2751.36	27.5
2752.24	24.5
2753.11	26
2753.98	22
2754.86	22.5
2755.73	24.5
2756.6	24.5
2757.47	24
2758.34	25
2759.22	23
2760.09	24
2760.96	21
2761.83	27.5
2762.7	21.5
2763.57	26.5
2764.44	27.5
2765.31	25
2766.18	24
2767.06	18.5
2767.93	24
2768.8	25
2769.67	24
2770.54	22.5
2771.41	27.5
2772.28	22.5
2773.15	22.5
2774.02	25
2774.89	31
2775.75	23
2776.62	25
2777.49	22.5
2778.36	27
2779.23	23.5
2780.1	25.5
2780.97	30
2781.84	23
2782.71	23
2783.57	27
2784.44	23.5
2785.31	26
2786.18	20
2787.04	27
2787.91	27
2788.78	25.5
2789.65	25
2790.51	24.5
2791.38	26
2792.25	26
2793.12	27.5
2793.98	29
2794.85	22
2795.72	26.5
2796.58	26
2797.45	25.5
2798.31	27
2799.18	26
2800.05	27
2800.91	28.5
2801.78	27
2802.64	24
2803.51	27.5
2804.37	22
2805.24	25.5
2806.1	23
2806.97	24.5
2807.83	29
2808.7	27
2809.56	31
2810.43	26.5
2811.29	28.5
2812.15	23.5
2813.02	25
2813.88	23.5
2814.75	23
2815.61	24.5
2816.47	25.5
2817.34	27.5
2818.2	24.5
2819.06	30.5
2819.92	24
2820.79	26.5
2821.65	24
2822.51	28.5
2823.37	26.5
2824.24	23
2825.1	32
2825.96	22.5
2826.82	24.5
2827.69	27
2828.55	25.5
2829.41	24
2830.27	25
2831.13	24
2831.99	22.5
2832.85	29
2833.71	27.5
2834.58	26
2835.44	29
2836.3	24.5
2837.16	27
2838.02	26.5
2838.88	24
2839.74	25
2840.6	23
2841.46	24
2842.32	26
2843.18	27
2844.04	23
2844.9	25.5
2845.75	27.5
2846.61	26.5
2847.47	27
2848.33	22
2849.19	26.5
2850.05	28.5
2850.91	28.5
2851.77	26
2852.62	27
2853.48	28.5
2854.34	27
2855.2	24.5
2856.06	27
2856.91	28
2857.77	26.5
2858.63	25.5
2859.48	26.5
2860.34	26
2861.2	28
2862.06	25.5
2862.91	27.5
2863.77	28.5
2864.63	25.5
2865.48	27
2866.34	27
2867.19	30
2868.05	30
2868.91	25
2869.76	29
2870.62	29
2871.47	32
2872.33	27
2873.18	28
2874.04	26
2874.89	27
2875.75	32.5
2876.6	31.5
2877.46	27.5
2878.31	31.5
2879.17	34
2880.02	29
2880.88	27
2881.73	32
2882.58	30.5
2883.44	30
2884.29	32
2885.14	36
2886	36.5
2886.85	37.5
2887.7	36
2888.56	36
2889.41	35.5
2890.26	40.5
2891.12	40.5
2891.97	37
2892.82	45.5
2893.67	42
2894.52	43.5
2895.38	43
2896.23	51.5
2897.08	52.5
2897.93	54
2898.78	50
2899.64	55
2900.49	62
2901.34	68
2902.19	56.5
2903.04	59
2903.89	68.5
2904.74	67
2905.59	68
2906.44	65
2907.29	73
2908.14	71.5
2908.99	72
2909.84	71
2910.69	60
2911.54	59.5
2912.39	57
2913.24	51
2914.09	52
2914.94	51.5
2915.79	46.5
2916.64	43.5
2917.49	47.5
2918.34	40
2919.18	40
2920.03	40
2920.88	35.5
2921.73	34
2922.58	39
2923.42	32
2924.27	30.5
2925.12	30.5
2925.97	34.5
2926.82	31
2927.66	31.5
2928.51	27.5
2929.36	30.5
2930.2	28
2931.05	30
2931.9	26.5
2932.74	32
2933.59	28
2934.44	30.5
2935.28	27
2936.13	26.5
2936.98	28
2937.82	32
2938.67	29.5
2939.51	29.5
2940.36	28
2941.2	25
2942.05	24
2942.9	31
2943.74	28
2944.58	30.5
2945.43	26
2946.27	27
2947.12	26.5
2947.96	30.5
2948.81	30.5
2949.65	28.5
2950.5	29
2951.34	31
2952.18	33
2953.03	32.5
2953.87	30.5
2954.71	35
2955.56	30.5
2956.4	32
2957.24	36.5
2958.09	34
2958.93	41
2959.77	35
2960.62	39
2961.46	37.5
2962.3	43
2963.14	45.5
2963.98	40.5
2964.83	45.5
2965.67	45.5
2966.51	42
2967.35	44
2968.19	40.5
2969.04	45.5
2969.88	39.5
2970.72	40
2971.56	40.9927
2972.4	39.434
2973.24	35.0851
2974.08	37.002
2974.92	32.2143
2975.76	30.0948
2976.6	33.8548
2977.44	30.4359
2978.28	27.6238
2979.12	29.2374
2979.96	26.2375
2980.8	29.3149
2981.64	26.2751
2982.48	26.8969
2983.32	29.4728
2984.16	28.9061
2985	25.5232
2985.84	28.5876
2986.68	25.3486
2987.52	27.793
2988.35	26.1716
2989.19	27.9617
2990.03	25.4225
2990.87	23.3526
2991.71	25.965
2992.55	25.7941
2993.38	24.7432
2994.22	24.199
2995.06	24.7204
2995.9	24.4933
2996.73	25.0653
2997.57	24.764
2998.41	25.2477
2999.25	26.6579
3000.08	23.5224
3000.92	26.3494
3001.76	22.1772
3002.59	20.2743
3003.43	23.7129
3004.27	25.7743
3005.1	22.0993
3005.94	22.6417
3006.78	26.1669
3007.61	23.2605
3008.45	23.2351
3009.28	25.0221
3010.12	23.2587
3010.95	21.5807
3011.79	23.7876
3012.62	20.1346
3013.46	21.5635
3014.29	22.4191
3015.13	23.7549
3015.96	22.8076
3016.8	25.0644
3017.63	27.3214
3018.47	21.6901
3019.3	21.3523
3020.14	24.2282
3020.97	21.9907
3021.8	22.4947
3022.64	22.3163
3023.47	21.8766
3024.3	22.9835
3025.14	25.4218
3025.97	22.169
3026.8	21.0573
3027.64	23.5007
3028.47	24.3255
3029.3	22.8682
3030.14	21.141
3030.97	22.863
3031.8	23.781
3032.63	22.5704
3033.46	21.779
3034.3	20.739
3035.13	24.1741
3035.96	23.1262
3036.79	23.2376
3037.62	23.6294
3038.46	22.8203
3039.29	21.39
3040.12	23.1567
3040.95	22.5577
3041.78	21.8204
3042.61	22.2837
3043.44	21.6146
3044.27	23.1157
3045.1	22.698
3045.93	21.9329
3046.76	21.2627
3047.59	23.8948
3048.42	24.9872
3049.25	22
3050.08	22.309
3050.91	22.5518
3051.74	20.5809
3052.57	23.3665
3053.4	24.335
3054.23	24.7448
3055.06	22.7508
3055.89	23.4315
3056.72	21.8388
3057.32	24
3058.15	24
3058.98	23.5
3059.82	23.5
3060.65	22
3061.48	22
3062.31	23.5
3063.15	24
3063.98	23
3064.81	23.5
3065.64	25.5
3066.48	22.5
3067.31	28
3068.14	28
3068.97	24.5
3069.8	22.5
3070.63	21.5
3071.47	23.5
3072.3	22
3073.13	21
3073.96	21.5
3074.79	23
3075.62	23.5
3076.45	26.5
3077.28	20
3078.11	22
3078.94	27
3079.77	21.5
3080.6	24.5
3081.43	23
3082.26	25
3083.09	23
3083.92	21
3084.75	25.5
3085.58	21.5
3086.41	22
3087.24	26
3088.07	23
3088.9	24
3089.73	26
3090.55	21.5
3091.38	21
3092.21	21
3093.04	23.5
3093.87	22
3094.7	20
3095.52	24.5
3096.35	23
3097.18	25
3098.01	24.5
3098.84	22.5
3099.66	28
3100.49	20
3101.32	27
3102.14	22.5
3102.97	21
3103.8	25.5
3104.62	23.5
3105.45	20
3106.28	20.5
3107.1	26
3107.93	25
3108.76	26
3109.58	25
3110.41	23
3111.23	23.5
3112.06	22.5
3112.89	21
3113.71	19.5
3114.54	23.5
3115.36	25.5
3116.19	21
3117.01	22
3117.84	25
3118.66	24
3119.49	19
3120.31	23
3121.13	23
3121.96	24.5
3122.78	21.5
3123.61	19
3124.43	24.5
3125.25	21
3126.08	22.5
3126.9	25
3127.73	22
3128.55	28.5
3129.37	21.5
3130.19	26.5
3131.02	22
3131.84	23
3132.66	27
3133.49	22.5
3134.31	22
3135.13	22.5
3135.95	23.5
3136.78	25.5
3137.6	23.5
3138.42	21
3139.24	26
3140.06	21
3140.88	24
3141.71	27
3142.53	22.5
3143.35	23
3144.17	21.5
3144.99	20.5
3145.81	20.5
3146.63	24.5
3147.45	20.5
3148.27	25.5
3149.09	22
3149.91	22
3150.73	23
3151.56	25.5
3152.37	22
3153.2	22.5
3154.01	22.5
3154.83	21
3155.65	22.5
3156.47	24.5
3157.29	21
3158.11	22
3158.93	24
3159.75	19.5
3160.57	28
3161.39	23.5
3162.21	23.5
3163.02	20.5
3163.84	22
3164.66	23
3165.48	24
3166.3	22
3167.11	26
3167.93	21.5
3168.75	25
3169.57	23.5
3170.39	24
3171.2	22.5
3172.02	24.5
3172.84	22
3173.65	22
3174.47	23
3175.29	26
3176.1	20.5
3176.92	20.5
3177.74	24.5
3178.55	22
3179.37	24
3180.19	24
3181	24
3181.82	23
3182.63	22.5
3183.45	25.5
3184.27	23
3185.08	25
3185.9	23.5
3186.71	23
3187.53	25
3188.34	24
3189.16	24.5
3189.97	21.5
3190.79	21.5
3191.6	24
3192.41	24
3193.23	25.5
3194.04	21.5
3194.86	23
3195.67	24
3196.48	22
3197.3	25.5
3198.11	22
3198.93	26.5
3199.74	21.5
3200.55	25
3201.36	20.5
3202.18	22
3202.99	26
3203.8	22
3204.62	22.5
3205.43	22
3206.24	21.5
3207.05	29
3207.87	26.5
3208.68	24
3209.49	23.5
3210.3	24
3211.11	26.5
3211.93	24
3212.74	22
3213.55	25
3214.36	21
3215.17	25
3215.98	24
3216.79	24
3217.6	24
3218.41	23.5
3219.22	23
3220.03	26
3220.85	23
3221.66	23.5
3222.47	25
3223.28	22
3224.09	23.5
3224.9	20
3225.71	30
3226.52	23
3227.33	23
3228.13	24.5
3228.94	21
3229.75	25
3230.56	23
3231.37	22
3232.18	26.5
3232.99	22.5
3233.8	22.5
3234.61	24
3235.41	23
3236.22	23
3237.03	22.5
3237.84	22.5
3238.65	26
3239.45	22.5
3240.26	25
3241.07	21
3241.88	21
3242.68	25
3243.49	25
3244.3	23
3245.1	22.5
3245.91	23
3246.72	26.5
3247.53	24
3248.33	24
3249.14	23
3249.95	23.5
3250.75	21.5
3251.56	24
3252.36	21.5
3253.17	31.5
3253.97	25.5
3254.78	26
3255.59	24
3256.39	24
3257.2	23
3258	27.5
3258.81	20.5
3259.61	25
3260.42	23.5
3261.22	25
3262.03	21
3262.83	23
3263.64	25
3264.44	22.5
3265.24	25
3266.05	22.5
3266.85	20.5
3267.66	26
3268.46	23.5
3269.26	25.5
3270.07	20.5
3270.87	23
3271.67	24.5
3272.48	20.5
3273.28	22
3274.08	22.5
3274.89	24
3275.69	23.5
3276.49	21
3277.29	23
3278.1	25
3278.9	26.5
3279.7	23
3280.5	24
3281.3	23
3282.11	23
3282.91	25
3283.71	24.5
3284.51	25.5
3285.31	22.5
3286.11	22.5
3286.91	23
3287.72	23.5
3288.52	23
3289.32	21
3290.12	22.5
3290.92	27
3291.72	22
3292.52	24.5
3293.32	23.5
3294.12	22.5
3294.92	27.5
3295.72	25
3296.52	23
3297.32	28.5
3298.12	22.5
3298.92	22.5
3299.72	25
3300.52	22.5
3301.32	18
3302.12	22
3302.92	24
3303.71	22.5
3304.51	20
3305.31	25.5
3306.11	21.5
3306.91	25
3307.71	24.5
3308.5	21.5
3309.3	23.5
3310.1	25.5
3310.9	24
3311.7	24.5
3312.49	24
3313.29	20
3314.09	21
3314.89	21
3315.68	22
3316.48	20
3317.28	25
3318.07	23.5
3318.87	25
3319.67	23.5
3320.46	26.5
3321.26	23
3322.06	21
3322.85	20
3323.65	21.5
3324.44	23.5
3325.24	23
3326.04	24
3326.83	27
3327.63	22
3328.42	25.5
3329.22	23
3330.01	23
3330.81	23.5
3331.6	25
3332.4	22
3333.19	22
3333.99	24
3334.78	22
3335.58	25
3336.37	21
3337.17	26
3337.96	27.5
3338.75	23
3339.55	23.5
3340.34	17.5
3341.13	26.5
3341.93	26.5
3342.72	24.5
3343.51	25.5
3344.31	25
3345.1	18.5
3345.89	25
3346.69	24
3347.48	23.5
3348.27	25
3349.06	27
3349.86	26
3350.65	25.5
3351.44	25.5
3352.23	23
3353.03	22.5
3353.82	23
3354.61	23
3355.4	22
3356.19	20.5
3356.98	21
3357.78	25
3358.57	24
3359.36	24
3360.15	23.5
3360.94	26
3361.73	25
3362.52	23.5
3363.31	23.5
3364.1	25
3364.89	22
3365.68	25
3366.47	23.5
3367.26	22.5
3368.05	28.5
3368.84	22.5
3369.63	26
3370.42	26
3371.21	22.5
3372	23.5
3372.79	23
3373.58	27
3374.37	22.5
3375.16	22
3375.95	23.5
3376.73	24.5
3377.52	27
3378.31	25
3379.1	24
3379.89	26
3380.68	23
3381.46	21
3382.25	27.5
3383.04	22
3383.83	26.5
3384.62	24
3385.4	25.5
3386.19	23
3386.98	27
3387.76	25.5
3388.55	23
3389.34	27
3390.13	23.5
3390.91	24.5
3391.7	26
3392.49	18
3393.27	24.5
3394.06	22
3394.84	27.5
3395.63	21
3396.42	19
3397.2	23.5
3397.99	27
3398.77	22.5
3399.56	19.5
3400.34	24.5
3401.13	24
3401.92	26
3402.7	27
3403.49	23.5
3404.27	18
3405.06	22.5
3405.84	26.5
3406.62	23
3407.41	23
3408.19	25
3408.98	24.5
3409.76	24
3410.55	24
3411.33	23
3412.11	25
3412.9	26
3413.68	26
3414.46	21.5
3415.25	21
3416.03	24.5
3416.81	17
3417.6	23.5
3418.38	25
3419.16	24
3419.95	24.5
3420.73	23.5
3421.51	24
3422.29	25
3423.08	22
3423.86	24
3424.64	21.5
3425.42	24
3426.2	27
3426.98	23.5
3427.77	20.5
3428.55	24.5
3429.33	26
3430.11	24.5
3430.89	20
3431.67	26.5
3432.45	20
3433.24	23
3434.02	21
3434.8	23
3435.58	20
3436.36	25
3437.14	26
3437.92	28.5
3438.7	22
3439.48	25
3440.26	21.5
3441.04	24
3441.82	24.5
3442.6	22
3443.38	24
3444.16	21.5
3444.94	20
3445.71	24
3446.49	21.5
3447.27	23
3448.05	27
3448.83	21
3449.61	20.5
3450.39	26.5
3451.17	24
3451.94	22.5
3452.72	22.5
3453.5	23
3454.28	23.5
3455.06	21.5
3455.83	27.5
3456.61	22.5
3457.39	23
3458.17	22
3458.94	25
3459.72	21
3460.5	24.5
3461.28	23
3462.05	25.5
3462.83	22
3463.61	22
3464.38	27
3465.16	25
3465.93	18
3466.71	25
3467.49	25.5
3468.26	23
3469.04	23
3469.82	22
3470.59	23.5
3471.37	25
3472.14	23.5
3472.92	22
3473.69	27.5
3474.47	23
3475.24	19
3476.02	24.5
3476.79	21.5
3477.57	28
3478.34	22
3479.12	27.5
3479.89	24
3480.67	20.5
3481.44	26
3482.21	25.5
3482.99	27
3483.76	22
3484.54	21.5
3485.31	20
3486.08	29
3486.86	23.5
3487.63	26.5
3488.4	19.5
3489.18	26.5
3489.95	22.5
3490.72	25.5
3491.5	21.5
3492.27	26
3493.04	24.5
3493.81	26
3494.59	22
3495.36	23.5
3496.13	17
3496.9	22
3497.67	21
3498.45	23
3499.22	23.5
3499.99	25
