#Acq. time (s)=	5
#Accumulations=	5
#Range (cm-ｹ)=	100...3500
#Windows=	4
#Autofocus=	Off
#AutoExposure=	Off
#Spike filter=	Multiple accum.
#Delay time (s)=	0
#Binning=	1
#Readout mode=	Signal
#DeNoise=	Off
#ICS correction=	Off
#Dark correction=	Off
#Inst. Process=	Off
#Instrument=	LabRAM HR Evol
#Detector=	Syncerity OE
#Objective=	x100_VIS
#Grating=	600 (500nm)
#ND Filter=	25%
#Laser=	633nm_Edge
#Hole=	100.021
#Range=	Visible
#Project=	verificaciones
#Sample=	a4
#Site=	plain
#Title=	bolusa4plain
#Remark=	
#Date=	09.01.2026 14:54
#Acquired=	09.01.2026 14:54:23
100.695	27.5
101.978	29
103.262	27
104.545	27
105.829	27.5
107.112	29
108.394	25.5
109.676	28.5
110.958	27.5
112.24	28.5
113.522	28.5
114.803	26.5
116.084	26
117.365	28
118.646	31
119.927	30.5
121.207	23
122.487	33
123.767	32.5
125.047	28
126.326	26
127.606	34
128.885	28
130.164	29.5
131.442	29
132.721	34.5
133.999	30
135.277	28.5
136.555	30.5
137.831	30
139.109	31.5
140.386	28
141.663	29
142.94	34.5
144.216	28
145.493	36
146.769	34.5
148.043	35
149.319	32
150.595	31.5
151.87	36
153.145	32.5
154.42	37
155.693	31
156.968	35.5
158.242	32
159.516	34.5
160.79	33
162.062	29
163.336	35
164.609	32.5
165.882	37
167.153	33.5
168.426	33
169.699	33
170.971	35
172.241	34.5
173.513	37
174.785	31
176.055	31.5
177.326	33.5
178.597	32.5
179.866	33
181.137	32.5
182.407	34
183.676	33.5
184.946	30
186.216	33.5
187.484	28.5
188.753	34.5
190.022	34
191.29	35.5
192.558	35.5
193.825	37
195.094	36.5
196.36	31
197.628	32.5
198.896	31.5
200.162	36
201.429	32.5
202.695	30
203.962	34
205.227	31
206.493	32
207.758	35
209.024	29.5
210.289	34.5
211.554	29.5
212.818	31.5
214.083	28
215.347	27.5
216.612	29
217.875	27
219.138	28
220.402	28
221.665	27
222.928	29.5
224.19	32
225.454	32
226.715	29.5
227.977	33
229.24	26
230.501	32.5
231.762	30
233.024	31
234.284	25.5
235.546	25
236.806	26.5
238.066	28.5
239.327	30
240.587	30
241.846	30
243.105	29
244.365	25
245.624	30
246.882	26
248.142	28
249.4	27
250.658	28.5
251.916	27
253.174	29
254.432	26.5
255.689	30
256.945	24
258.202	27.5
259.46	28
260.716	27
261.972	28
263.228	29.5
264.483	28.5
265.74	29.5
266.996	28.5
268.251	30
269.505	24
270.76	29.5
272.014	29.5
273.268	24.5
274.522	28.5
275.778	28.5
277.031	32.5
278.285	30
279.538	25
280.791	29
282.043	24.5
283.296	27
284.548	27
285.8	24
287.052	27.5
288.304	29.5
289.556	30
290.807	25.5
292.058	30
293.309	28.5
294.56	28
295.81	26
297.061	32
298.311	25.5
299.561	25.5
300.81	24.5
302.06	20.5
303.309	28.5
304.558	27.5
305.807	24
307.056	29.5
308.305	27.5
309.551	26.5
310.8	27.5
312.047	32.5
313.295	28.5
314.543	26.5
315.79	21
317.037	28.5
318.284	24.5
319.529	27.5
320.776	31.5
322.022	27
323.268	26
324.514	29.5
325.758	26.5
327.004	30.5
328.249	30.5
329.494	26
330.739	29.5
331.982	29
333.227	28.5
334.471	25.5
335.715	28.5
336.958	28
338.201	28
339.445	26
340.687	30.5
341.93	26
343.173	29
344.414	26.5
345.657	25
346.899	30.5
348.14	25
349.381	28
350.623	30.5
351.863	30
353.104	28
354.346	31
355.585	29
356.826	25
358.065	24
359.305	24
360.545	27.5
361.784	26.5
363.023	29
364.261	28.5
365.501	26
366.738	27.5
367.977	25
369.216	27
370.453	29.5
371.691	31.5
372.928	28
374.166	20
375.402	24
376.64	27.5
377.876	28
379.111	22.5
380.348	25.5
381.584	26
382.82	23
384.055	23.5
385.291	30.5
386.526	26.5
387.76	26
388.996	28.5
390.229	24
391.465	27
392.698	27
393.931	32
395.166	27.5
396.399	30
397.632	28.5
398.866	24
400.098	29
401.33	27.5
402.563	25.5
403.795	25
405.027	28.5
406.259	26
407.491	29
408.721	25
409.954	27
411.184	25
412.415	26.5
413.645	28.5
414.876	33
416.106	23
417.335	25.5
418.565	23
419.794	26.5
421.024	25
422.253	28.5
423.482	27
424.71	28.5
425.938	26.5
427.168	26
428.396	27.5
429.623	28.5
430.851	22.5
432.078	32.5
433.305	28
434.532	27.5
435.758	27
436.986	27.5
438.212	27.5
439.438	31.5
440.664	27.5
441.89	28
443.115	25.5
444.34	29
445.566	29.5
446.79	28
448.015	31
449.24	27
450.464	28
451.688	27
452.912	27
454.135	24.5
455.359	29
456.582	30
457.805	30.5
459.028	30
460.251	27.5
461.473	29
462.696	31.5
463.918	27.5
465.14	30
466.36	25
467.582	27
468.803	29.5
470.024	30
471.245	29
472.466	33
473.686	33
474.907	34.5
476.126	32.5
477.346	34
478.565	33
479.785	38
481.004	38
482.224	40
483.441	47
484.66	45
485.879	44.5
487.097	44.5
488.314	44
489.532	43.5
490.75	46
491.967	44.5
493.184	45
494.401	40.5
495.618	42
496.835	43.5
498.05	41.5
499.267	36
500.483	38
501.698	37.5
502.913	37
504.129	37.5
505.343	32
506.559	30
507.774	34
508.987	32
510.202	35
511.415	34
512.63	32
513.844	30
515.056	31
516.27	31.5
517.482	32
518.696	31
519.907	29.5
521.121	29
522.332	31
523.545	27
524.757	32
525.968	25
527.18	31.5
528.39	29
529.602	28.5
530.812	25.5
532.023	29
533.233	25
534.443	26.5
535.653	26.5
536.862	27
538.073	25
539.281	26
540.491	29.5
541.7	30
542.908	26.5
544.117	25.5
545.325	26
546.534	25
547.741	26
548.949	26.5
550.157	26.5
551.364	28
552.57	28
553.778	20.5
554.985	27.5
556.191	27.5
557.398	26.5
558.604	30.5
559.809	27.5
561.014	25.5
562.221	29.5
563.426	27
564.63	28
565.835	27
567.041	28
568.245	25
569.449	24
570.653	31
571.856	27
573.061	28.5
574.264	24
575.467	27
576.67	25
577.873	29.5
579.076	26
580.279	24
581.481	24.5
582.683	24.5
583.884	28.5
585.086	23.5
586.287	28
587.488	27
588.689	29
589.891	28
591.092	25
592.292	31
593.492	25.5
594.692	29
595.892	29.5
597.092	26.5
598.291	30
599.49	27.5
600.689	28
601.888	29.5
603.087	27.5
604.285	24
605.483	28.5
606.681	29.5
607.879	23
609.077	27.5
610.274	27
611.472	26.5
612.668	25.5
613.865	27.5
615.061	28.5
616.258	27.5
617.454	26
618.65	27.5
619.846	26.5
621.042	23
622.238	28.5
623.432	29
624.627	27
625.822	30.5
627.017	26
628.212	28.5
629.406	28
630.599	26
631.793	24.5
632.987	27.5
634.181	27
635.373	24.5
636.566	29
637.76	26.5
638.953	27
640.144	24
641.337	29.5
642.529	27
643.721	28.5
644.912	28
646.104	25
647.295	25
648.485	27
649.677	25.5
650.868	26.5
652.057	33
653.248	25.5
654.437	31
655.628	30.5
656.818	29
658.006	28
659.196	30
660.384	27.5
661.574	27.5
662.763	26.5
663.951	29.5
665.14	32.5
666.327	29.5
667.515	26
668.702	29.5
669.891	27
671.077	26.5
672.265	31
673.451	28
674.638	26
675.824	27.5
677.011	31.5
678.197	29
679.383	27.5
680.568	28.5
681.755	31
682.939	30.5
684.124	31.5
685.309	33
686.494	31
687.679	35
688.863	32.5
690.046	31.5
691.231	25.5
692.414	27
693.599	32.5
694.781	29
695.964	29
697.148	35.5
698.33	29
699.512	31.5
700.694	36.5
701.877	32
703.059	34.5
704.24	38
705.423	37
706.604	35
707.784	39.5
708.965	40.5
710.147	42
711.327	39.5
712.507	33
713.687	32
714.867	34.5
716.048	36
717.227	35.5
718.406	28.5
719.585	29
720.764	29.5
721.942	27
723.122	29.5
724.3	28
725.478	30
726.656	26
727.834	25.5
729.011	20
730.189	25.5
731.366	28.5
732.543	27
733.719	27
734.896	27
736.072	29
737.249	25
738.426	23.5
739.602	28
740.777	23.5
741.953	27
743.128	25
744.303	27
745.477	28
746.651	28.5
747.826	30
749	24
750.174	28
751.348	26
752.522	24
753.696	25
754.869	27
756.043	28
757.216	27
758.389	30
759.561	29
760.732	28.5
761.905	25
763.077	27.5
764.249	26
765.421	25
766.592	26
767.762	26
768.934	27.5
770.105	25.5
771.275	22.5
772.446	28.5
773.615	26
774.786	26
775.956	26.5
777.126	29
778.294	25
779.464	27.5
780.633	26.5
781.801	27
782.97	27
784.139	25
785.306	30.5
786.475	29
787.643	27
788.81	28.5
789.978	29.5
791.146	31.5
792.312	31.5
793.479	32
794.647	32
795.812	29.5
796.979	29
798.144	28.5
799.311	27
800.477	29.5
801.642	32
802.808	32.5
803.972	24.5
805.138	27.5
806.302	25
807.467	26.5
808.631	25.5
809.796	27
810.959	27.5
812.124	23.5
813.287	28
814.451	26
815.614	28
816.777	25
817.94	28
819.102	26
820.265	28.5
821.427	26.5
822.59	28
823.751	26.5
824.912	27.5
826.074	26.5
827.235	26
828.397	27
829.558	26
830.718	24.5
831.879	25.5
833.039	29
834.199	30
835.359	25.5
836.519	25.5
837.679	23.5
838.838	24
839.998	31
841.156	26
842.315	29.5
843.473	26
844.633	31
845.791	28
846.948	25
848.106	22
849.263	25
850.422	23.5
851.579	28
852.736	28
853.892	26.5
855.049	25
856.205	26.5
857.363	32
858.519	28
859.674	28
860.83	28
861.986	24
863.141	32
864.296	30
865.451	28
866.605	26.5
867.76	27.5
868.914	29
870.069	26.5
871.224	25
872.378	30.5
873.531	27
874.685	27
875.838	28
876.991	28
878.144	26.5
879.296	26.5
880.448	25.5
881.6	28
882.753	28
883.905	30
885.057	23
886.208	29
887.36	24
888.511	29
889.662	26
890.813	32
891.964	25
893.113	25.5
894.264	27.5
895.414	25.5
896.564	24.5
897.714	26
898.864	27.5
900.012	29
901.161	29.5
902.31	27.5
903.459	24
904.607	28
905.756	24.5
906.904	28.5
908.052	24.5
909.199	27
910.347	25.5
911.495	25
912.643	25
913.789	27.5
914.936	28
916.083	27
917.229	27.5
918.375	25.5
919.522	25.5
920.667	23.5
921.813	27.5
922.959	24.5
924.104	29
925.249	29
926.393	28.5
927.539	30.5
928.684	24.5
929.827	27
930.972	27.5
932.115	28
933.26	29
934.403	26.5
935.547	26.5
936.689	26
937.833	25.5
938.975	30
940.119	24
941.26	25
942.404	21
943.545	26.5
944.688	27.5
945.829	27
946.971	25
948.112	25
949.253	24
950.394	29.5
951.535	27.5
952.676	26
953.816	25.5
954.956	24.5
956.097	25.5
957.236	27.5
958.377	27
959.516	23
960.655	26
961.793	24
962.933	28
964.071	25
965.21	27
966.349	28
967.487	26.5
968.624	25
969.762	26
970.901	26
972.038	25.5
973.175	26
974.311	26
975.449	28
976.586	28
977.722	25
978.858	28
979.994	28
981.131	25
982.267	28
983.402	26.5
984.537	27
985.672	24.5
986.807	25
987.942	29.5
989.076	23.5
990.211	30
991.346	23
992.48	30
993.614	26.5
994.748	29.5
995.881	27.5
997.014	26.5
998.148	23.5
999.28	23.5
1000.41	25
1001.55	24.5
1002.68	27.5
1003.81	27
1004.94	22
1006.07	29.5
1007.21	25.5
1008.34	26
1009.47	24
1010.6	22
1011.73	24
1012.86	29
1013.99	27
1015.12	20.5
1016.25	25.5
1017.38	28
1018.51	23
1019.64	23
1020.77	26
1021.9	24
1023.03	25.5
1024.16	26
1025.29	25.5
1026.42	30
1027.54	27.5
1028.67	25
1029.8	26.5
1030.93	27
1032.06	24
1033.18	23
1034.31	26.5
1035.44	29
1036.56	24
1037.69	27
1038.82	25
1039.94	24.5
1041.07	25
1042.2	22
1043.32	24
1044.45	22.5
1045.57	26
1046.7	28.5
1047.82	24.5
1048.95	26.5
1050.07	27
1051.2	22
1052.32	23.5
1053.45	23
1054.57	21.5
1055.69	26.5
1056.82	25.5
1057.94	27.5
1059.06	24.5
1060.19	24.5
1061.31	27
1062.43	22.5
1063.55	24
1064.68	26.5
1065.8	26.5
1066.92	26.5
1068.04	23.5
1069.16	26.5
1070.28	23.5
1071.41	22
1072.53	25.5
1073.65	27.5
1074.77	28.5
1075.89	20.5
1077.01	25
1078.13	24.5
1079.25	28
1080.37	27
1081.49	24
1082.61	26
1083.73	25
1084.85	25
1085.96	25
1087.08	25
1088.2	24.5
1089.32	24.5
1090.44	26
1091.56	25.5
1092.67	26
1093.79	27
1094.91	24.5
1096.03	27
1097.14	26.5
1098.26	24
1099.38	24.5
1100.49	24
1101.61	22.5
1102.73	25.5
1103.84	23.5
1104.96	25
1106.07	22
1107.19	27.5
1108.3	24.5
1109.42	24
1110.53	24
1111.65	24.5
1112.76	27
1113.88	22
1114.99	25
1116.1	27
1117.22	23.5
1118.33	27
1119.44	24
1120.56	24.5
1121.67	26
1122.78	24
1123.9	21.5
1125.01	25
1126.12	22.5
1127.23	25
1128.34	23
1129.46	24
1130.57	28
1131.68	25
1132.79	22
1133.9	25
1135.01	23.5
1136.12	23.5
1137.23	26.5
1138.34	24.5
1139.45	23
1140.56	22.5
1141.67	24.5
1142.78	26
1143.89	23.5
1145	22
1146.11	24.5
1147.22	26
1148.33	24.5
1149.44	26.5
1150.54	26.5
1151.65	25.5
1152.76	23
1153.87	23
1154.97	25.5
1156.08	25
1157.19	26
1158.3	26
1159.4	24
1160.51	27
1161.62	24
1162.72	21.5
1163.83	25
1164.93	29.5
1166.04	25.5
1167.15	25.5
1168.25	27
1169.36	27.5
1170.46	26
1171.57	27
1172.67	25
1173.78	24.5
1174.88	29
1175.98	25.5
1177.09	22.5
1178.19	25
1179.3	24
1180.4	24.5
1181.5	23.5
1182.61	25.5
1183.71	22.5
1184.81	24.5
1185.91	21
1187.02	25
1188.12	23.5
1189.22	24.5
1190.32	23.5
1191.42	22
1192.53	25.5
1193.63	24
1194.73	27.4892
1195.83	23.5113
1196.93	22.5457
1198.03	23.1308
1199.13	23.9987
1200.23	21.9945
1201.33	25.2348
1202.43	24.6723
1203.53	24.2174
1204.63	26.206
1205.73	23.8471
1206.83	23.8722
1207.93	23.182
1209.02	27.184
1210.12	23.5886
1211.22	28.1449
1212.32	20.7021
1213.42	21.8047
1214.52	24.232
1215.61	23.3786
1216.71	28.15
1217.81	21.3902
1218.91	27.0392
1220	24.0692
1221.1	26.2315
1222.2	24.7443
1223.29	23.3178
1224.39	25.158
1225.49	25.2368
1226.58	26.2515
1227.68	24.9317
1228.77	25.3201
1229.87	24.5204
1230.96	24.6389
1232.06	22.0273
1233.15	25.6446
1234.25	25.1354
1235.34	24.318
1236.44	24.268
1237.53	22.1666
1238.63	25.6372
1239.72	21.638
1240.81	22.4187
1241.91	23.4739
1243	21.3445
1244.09	25.1715
1245.19	23.0485
1246.28	24.9302
1247.37	24.7621
1248.46	22.8644
1249.56	23.3997
1250.65	22.2959
1251.74	23.226
1252.83	21.7382
1253.92	26.0233
1255.01	23.9523
1256.11	23.2361
1257.2	25.927
1258.29	24.8114
1259.38	27.2746
1260.47	25.313
1261.56	25.7387
1262.65	27.3926
1263.74	26.1126
1264.83	26.7813
1265.92	27.1972
1267.01	25.9403
1268.1	24.5423
1269.19	25.8687
1270.27	26.0934
1271.36	23.1557
1272.45	23.8495
1273.54	26.7171
1274.63	23.8006
1275.72	23.7689
1276.8	22.6962
1277.89	23.8352
1278.98	26.0594
1280.07	25.6113
1281.15	20.9678
1282.24	24.6694
1283.33	26.5624
1284.41	23.7976
1285.5	20.259
1286.59	22.6693
1287.67	21.1121
1288.76	25.858
1289.84	26.0174
1290.93	25.0272
1292.01	23.2829
1293.1	23
1294.19	22.3548
1295.27	21.5495
1296.35	24.8158
1297.44	22.0374
1298.52	21.896
1299.61	26.4549
1300.69	25.2427
1301.78	23.6253
1302.86	25.3941
1303.94	25.2008
1305.03	26.4281
1306.11	26.254
1306.4	26
1307.49	28
1308.57	26
1309.66	23
1310.75	22
1311.84	25.5
1312.92	28
1314.01	23.5
1315.1	20
1316.19	21
1317.27	26.5
1318.36	26.5
1319.45	23.5
1320.53	20
1321.62	26
1322.7	24
1323.79	25.5
1324.88	22
1325.96	25
1327.05	21
1328.13	23.5
1329.21	25
1330.3	26.5
1331.38	24.5
1332.47	25
1333.55	23.5
1334.64	21.5
1335.72	25.5
1336.8	26.5
1337.89	27.5
1338.97	25.5
1340.05	24
1341.14	24
1342.22	27.5
1343.3	22
1344.39	22
1345.47	20.5
1346.55	22
1347.63	19
1348.71	22
1349.79	27.5
1350.88	26
1351.96	22.5
1353.04	24
1354.12	25.5
1355.2	26
1356.28	22.5
1357.36	27.5
1358.44	22
1359.52	25
1360.6	21
1361.68	19.5
1362.76	24.5
1363.84	23.5
1364.92	22
1366	22
1367.08	27
1368.16	22.5
1369.23	25
1370.31	21.5
1371.39	25
1372.47	23
1373.55	25
1374.62	23
1375.7	23
1376.78	22.5
1377.85	21.5
1378.93	26
1380.01	25
1381.09	25
1382.16	23.5
1383.24	22
1384.31	21
1385.39	22
1386.47	23
1387.54	25
1388.62	23.5
1389.69	24
1390.77	26.5
1391.84	25.5
1392.92	24.5
1393.99	22
1395.06	25.5
1396.14	23.5
1397.21	26
1398.29	31.5
1399.36	25
1400.43	25.5
1401.51	26.5
1402.58	28
1403.65	27
1404.73	25
1405.8	28
1406.87	27
1407.94	24.5
1409.02	27
1410.09	26.5
1411.16	26.5
1412.23	25
1413.3	28.5
1414.37	29
1415.45	24.5
1416.52	29
1417.59	28
1418.66	26
1419.73	22
1420.8	24
1421.87	27
1422.94	26
1424.01	27
1425.08	24
1426.15	32
1427.22	26
1428.29	25
1429.35	27
1430.42	24.5
1431.49	25.5
1432.56	26.5
1433.63	25
1434.7	25
1435.77	22
1436.83	27.5
1437.9	28
1438.97	23.5
1440.04	21.5
1441.1	23
1442.17	24
1443.24	22
1444.3	31.5
1445.37	22
1446.44	24
1447.5	26
1448.57	25.5
1449.63	23.5
1450.7	24
1451.76	28
1452.83	22.5
1453.89	23
1454.96	27
1456.02	30
1457.09	25
1458.15	26.5
1459.22	25.5
1460.28	25.5
1461.34	25
1462.41	25
1463.47	26.5
1464.54	28.5
1465.6	26
1466.66	22.5
1467.72	28.5
1468.79	26
1469.85	23
1470.91	20
1471.97	24
1473.04	26
1474.1	23
1475.16	24.5
1476.22	25.5
1477.28	26
1478.34	25
1479.4	27
1480.47	27
1481.53	30
1482.59	24
1483.65	26.5
1484.71	28.5
1485.77	27.5
1486.83	24.5
1487.89	27.5
1488.95	25
1490.01	26.5
1491.07	26
1492.12	24
1493.18	24
1494.24	25
1495.3	26.5
1496.36	22.5
1497.42	23
1498.47	24
1499.53	22.5
1500.59	23.5
1501.65	24.5
1502.7	28
1503.76	24.5
1504.82	22.5
1505.88	22
1506.93	27.5
1507.99	28.5
1509.05	24.5
1510.1	26.5
1511.16	26.5
1512.21	27.5
1513.27	28
1514.32	22.5
1515.38	25
1516.43	21
1517.49	24.5
1518.54	25.5
1519.6	25
1520.65	28
1521.71	21.5
1522.76	27
1523.82	23
1524.87	25
1525.92	27.5
1526.98	25
1528.03	26
1529.08	24
1530.14	27
1531.19	26.5
1532.24	24.5
1533.3	27.5
1534.35	21
1535.4	23.5
1536.45	24
1537.5	30.5
1538.56	25
1539.61	25.5
1540.66	24
1541.71	26
1542.76	26
1543.81	26
1544.86	27
1545.91	26.5
1546.96	22
1548.01	25.5
1549.06	27
1550.11	24.5
1551.16	26
1552.21	23
1553.26	24
1554.31	27.5
1555.36	25
1556.41	22.5
1557.46	27
1558.51	23.5
1559.55	24.5
1560.6	25
1561.65	24
1562.7	26
1563.75	21.5
1564.79	24
1565.84	26.5
1566.89	27
1567.94	26
1568.98	27
1570.03	26
1571.07	28.5
1572.12	25
1573.17	25.5
1574.21	19
1575.26	26
1576.31	26.5
1577.35	22
1578.4	22.5
1579.44	23.5
1580.49	25
1581.53	26
1582.58	27.5
1583.62	25.5
1584.67	25.5
1585.71	25
1586.75	25.5
1587.8	24.5
1588.84	25
1589.89	22.5
1590.93	23
1591.97	25.5
1593.02	26.5
1594.06	26.5
1595.1	27
1596.14	26
1597.19	24.5
1598.23	26.5
1599.27	27
1600.31	23
1601.35	25
1602.4	26.5
1603.44	29
1604.48	25.5
1605.52	23.5
1606.56	21
1607.6	25.5
1608.64	26.5
1609.68	28
1610.72	26
1611.76	28
1612.8	23.5
1613.84	23.5
1614.88	27.5
1615.92	26.5
1616.96	24.5
1618	28
1619.04	24.5
1620.08	27
1621.12	23
1622.16	24
1623.19	26
1624.23	27
1625.27	22
1626.31	28
1627.35	23.5
1628.38	24.5
1629.42	23
1630.46	24
1631.5	28.5
1632.53	27.5
1633.57	24.5
1634.61	27
1635.64	23.5
1636.68	26.5
1637.71	24.5
1638.75	26.5
1639.79	22
1640.82	24
1641.86	25.5
1642.89	23
1643.93	23.5
1644.96	23.5
1646	27
1647.03	25
1648.07	25.5
1649.1	25
1650.14	24
1651.17	26
1652.2	27
1653.24	25.5
1654.27	25.5
1655.3	25.5
1656.34	25
1657.37	23.5
1658.4	25
1659.44	20
1660.47	25
1661.5	22.5
1662.53	23.5
1663.57	27
1664.6	23
1665.63	26.5
1666.66	24.5
1667.69	26.5
1668.72	18
1669.75	24
1670.79	21
1671.82	25
1672.85	25
1673.88	26
1674.91	21
1675.94	28.5
1676.97	24
1678	26
1679.03	28.5
1680.06	25
1681.09	28.5
1682.11	24
1683.14	25.5
1684.17	26
1685.2	27
1686.23	27.5
1687.26	27.5
1688.29	25
1689.32	21
1690.34	27.5
1691.37	25.5
1692.4	25.5
1693.43	28.5
1694.45	24
1695.48	25.5
1696.51	23.5
1697.53	26.5
1698.56	26.5
1699.59	24.5
1700.61	25.5
1701.64	23.5
1702.66	26
1703.69	25.5
1704.72	26
1705.74	24.5
1706.77	26
1707.79	23.5
1708.82	25
1709.84	29
1710.87	26.5
1711.89	24
1712.92	23
1713.94	21
1714.96	26.5
1715.99	27
1717.01	24
1718.04	23
1719.06	25
1720.08	26
1721.11	25
1722.13	25
1723.15	24.5
1724.17	26
1725.2	27
1726.22	26.5
1727.24	22.5
1728.26	23
1729.28	24.5
1730.31	24
1731.33	26
1732.35	26
1733.37	25
1734.39	27
1735.41	23.5
1736.43	22
1737.45	23
1738.47	27
1739.49	29
1740.51	24.5
1741.53	24.5
1742.55	29
1743.57	28.5
1744.59	24.5
1745.61	26
1746.63	26
1747.65	25.5
1748.67	26
1749.69	28.5
1750.71	28
1751.72	22.5
1752.74	26
1753.76	28
1754.78	24
1755.8	26
1756.81	23
1757.83	22
1758.85	20
1759.86	25
1760.88	27
1761.9	26
1762.91	26.5
1763.93	23.5
1764.95	24.5
1765.96	22.5
1766.98	25.5
1768	26.5
1769.01	23.5
1770.03	28
1771.04	22
1772.06	26
1773.07	23.5
1774.09	27
1775.1	27
1776.12	25
1777.13	25.5
1778.14	24
1779.16	25.5
1780.17	24
1781.19	24
1782.2	26
1783.21	23
1784.23	27.5
1785.24	25.5
1786.25	25.5
1787.27	22
1788.28	21.5
1789.29	30.5
1790.3	26.5
1791.32	27.5
1792.33	22.5
1793.34	28.5
1794.35	24
1795.36	21.5
1796.37	24
1797.38	27
1798.4	24
1799.41	22
1800.42	21
1801.43	24.5
1802.44	20
1803.45	27.5
1804.46	26.5
1805.47	21.5
1806.48	24
1807.49	22
1808.5	25.5
1809.51	23
1810.52	26.5
1811.53	25.5
1812.53	25
1813.54	29.5
1814.55	27.5
1815.56	26
1816.57	24
1817.58	23
1818.58	24.5
1819.59	24
1820.6	24
1821.61	24
1822.61	28.5
1823.62	25
1824.63	25
1825.64	21
1826.64	19.5
1827.65	24.5
1828.66	28.5
1829.66	22.5
1830.67	25.5
1831.67	23.5
1832.68	25
1833.68	24
1834.69	25.5
1835.7	23.5
1836.7	26.5
1837.71	23
1838.71	26
1839.71	22
1840.72	27.5
1841.72	27
1842.73	27.5
1843.73	26.5
1844.74	22.5
1845.74	23
1846.74	28
1847.75	23
1848.75	25
1849.75	24
1850.76	26
1851.76	24
1852.76	23
1853.76	27
1854.77	28
1855.77	27.5
1856.77	23
1857.77	24
1858.77	23
1859.78	25.5
1860.78	24
1861.78	23
1862.78	23
1863.78	23.5
1864.78	23.5
1865.78	25
1866.78	25
1867.78	24
1868.78	24
1869.78	25
1870.78	22.5
1871.78	24
1872.78	21.5
1873.78	22.5
1874.78	26.5
1875.78	25
1876.78	24.5
1877.78	25
1878.78	29
1879.77	26
1880.77	24
1881.77	25
1882.77	23
1883.77	24.5
1884.76	25
1885.76	20
1886.76	26
1887.76	24
1888.75	20
1889.75	21
1890.75	25
1891.74	23
1892.74	24
1893.74	25.5
1894.73	25
1895.73	26.5
1896.72	28
1897.72	26
1898.72	22.5
1899.71	21.5
1900.71	25.5
1901.7	22
1902.7	24.5
1903.69	26
1904.69	20
1905.68	22.5
1906.67	25.5
1907.67	24.5
1908.66	28
1909.66	26.5
1910.65	27
1911.64	28.5
1912.64	22
1913.63	24.5
1914.62	21
1915.62	20
1916.61	22.5
1917.6	23.5
1918.59	26
1919.59	25.5
1920.58	26
1921.57	24.5
1922.56	26.5
1923.55	23.5
1924.55	27.5
1925.54	23.5
1926.53	26.5
1927.52	20.5
1928.51	26
1929.5	21
1930.49	23
1931.48	26
1932.47	24
1933.46	21
1934.45	22
1935.44	19
1936.43	21.5
1937.42	25.5
1938.41	27
1939.4	21
1940.39	24
1941.38	24
1942.37	27
1943.36	24.5
1944.34	19.5
1945.33	19
1946.32	25
1947.31	21
1948.3	23.75
1949.28	22.5
1950.27	29
1951.26	23.5
1952.25	22
1953.23	25
1954.22	25.5
1955.21	22.5
1956.2	21
1957.18	27
1958.17	27.5
1959.15	24
1960.14	25
1961.13	21.5
1962.11	25.5
1963.1	23
1964.08	22.5
1965.07	26.5
1966.05	27
1967.04	25
1968.02	23
1969.01	23.5
1969.99	27
1970.98	24
1971.96	25
1972.94	24
1973.93	28.5
1974.91	24
1975.9	21.5
1976.88	25.5
1977.86	24
1978.85	21.5
1979.83	23.5
1980.81	25.5
1981.8	22.5
1982.78	23
1983.76	26.5
1984.74	21
1985.72	27
1986.71	25.5
1987.69	21
1988.67	24
1989.65	26
1990.63	24
1991.61	21.5
1992.6	27
1993.58	23
1994.56	26
1995.54	25
1996.52	25.5
1997.5	18
1998.48	23.5
1999.46	25.5
2000.44	23
2001.42	22.5
2002.4	24
2003.38	21
2004.36	21.5
2005.34	19.5
2006.32	24
2007.29	22.5
2008.27	27
2009.25	23.5
2010.23	25.5
2011.21	23
2012.19	21
2013.16	24.5
2014.14	24
2015.12	21.5
2016.1	24.5
2017.07	24.5
2018.05	24.5
2019.03	27
2020	25
2020.98	27
2021.96	25
2022.93	24
2023.91	21.5
2024.89	21
2025.86	25.5
2026.84	24
2027.81	21
2028.79	19
2029.77	22
2030.74	21
2031.72	24.5
2032.69	24
2033.67	26
2034.64	20
2035.61	23
2036.59	24
2037.56	25
2038.54	25
2039.51	23
2040.48	24.5
2041.46	21.5
2042.43	27.5
2043.41	25.5
2044.38	23.5
2045.35	24
2046.32	21
2047.3	21.5
2048.27	19
2049.24	22.5
2050.21	23.5
2051.19	21
2052.16	19
2053.13	19.5
2054.1	25.5
2055.07	19
2056.04	25
2057.02	26
2057.99	21
2058.96	23.5
2059.93	21
2060.9	21
2061.87	23.5
2062.84	20
2063.81	24
2064.78	26
2065.75	23.5
2066.72	22
2067.69	24
2068.66	24
2069.63	23
2070.6	21
2071.57	22.5
2072.53	21.5
2073.5	24
2074.47	22.5
2075.44	24.5
2076.41	22
2077.38	28
2078.34	17.5
2079.31	24
2080.28	23.5
2081.25	20.5
2082.21	20
2083.18	22.5
2084.15	24
2085.12	24
2086.08	24.5
2087.05	26.5
2088.02	19
2088.98	25
2089.95	20
2090.91	24
2091.88	22
2092.85	23.5
2093.81	21.5
2094.78	22.5
2095.74	21
2096.71	22
2097.67	21.5
2098.64	23.5
2099.6	27
2100.57	22.5
2101.53	25.5
2102.5	23
2103.46	23
2104.42	24
2105.39	20.5
2106.35	25.5
2107.31	22.5
2108.28	23
2109.24	23.5
2110.2	24.5
2111.17	23.5
2112.13	24.5
2113.09	21
2114.06	26
2115.02	20.5
2115.98	24
2116.94	25
2117.9	20.5
2118.86	24.5
2119.83	26
2120.79	19
2121.75	21
2122.71	25
2123.67	21.5
2124.63	21
2125.59	22
2126.55	22
2127.51	22.5
2128.48	20.5
2129.43	20.5
2130.4	23.5
2131.35	26
2132.31	29.5
2133.27	26
2134.23	25
2135.19	21
2136.15	20.5
2137.11	20
2138.07	22
2139.03	23
2139.99	21.5
2140.95	20
2141.9	19
2142.86	21.9966
2143.82	18.5596
2144.78	24.9828
2145.74	21.1359
2146.69	20.1876
2147.65	21.546
2148.61	22.4771
2149.56	24.8569
2150.52	22.665
2151.48	21.2636
2152.44	26.0284
2153.39	22.4438
2154.35	18.3312
2155.3	22.4995
2156.26	20.7931
2157.22	22.2565
2158.17	20.8574
2159.13	22.5804
2160.08	22
2161.04	21.5947
2161.99	21.199
2162.95	24.6457
2163.9	23.8789
2164.86	22.8997
2165.81	21.3409
2166.77	20.597
2167.72	22.8761
2168.68	23.3995
2169.63	21.5038
2170.58	26.6269
2171.54	24.7707
2172.49	20.9327
2173.44	24.1728
2174.4	24.5939
2175.35	21.9462
2176.3	24.6701
2177.26	19.4131
2178.21	19.5421
2179.16	22.776
2180.11	19.945
2181.07	22.4481
2182.02	20.9451
2182.97	22.1
2183.92	22.1028
2184.88	21.6466
2185.83	24.7203
2186.78	21.3388
2187.73	21.1679
2188.68	24.8274
2189.63	23.7205
2190.58	21.405
2191.53	20.3624
2192.48	23.7349
2193.43	23.9344
2194.38	22.897
2195.33	20.9946
2196.28	23.1946
2197.23	20.0079
2198.18	20.8001
2199.13	24.2019
2200.08	20.741
2201.03	23.878
2201.98	22.5242
2202.93	21.8729
2203.88	21.6736
2204.83	22.8645
2205.78	21.7288
2206.72	22.6192
2207.67	22.8163
2208.62	21.0799
2209.57	21.8066
2210.52	22.5905
2211.46	19.9987
2212.41	21.7099
2213.36	18.984
2214.31	19.4468
2215.25	24.1686
2216.2	22.0382
2217.15	23.6553
2218.09	22.1481
2219.04	24.3875
2219.99	22.4675
2220.93	21.0776
2221.88	21.6386
2222.83	21.1408
2223.77	22.753
2224.72	24.7358
2225.66	25.1238
2226.61	23.9212
2227.55	24.0413
2228.5	23.1389
2229.44	21.5313
2230.39	21.449
2231.33	20.9788
2232.28	21.6748
2233.22	24.3474
2234.17	21.4511
2235.11	22.4657
2236.05	24.3039
2237	21.8071
2237.94	18.659
2238.88	21.1921
2239.83	20.0642
2240.04	19.5
2240.98	25
2241.93	23
2242.88	22
2243.83	21
2244.78	24.5
2245.72	22.5
2246.67	21
2247.62	20.5
2248.56	22
2249.51	19
2250.46	24
2251.4	25
2252.35	22
2253.3	23.5
2254.24	21.5
2255.19	20.5
2256.14	21
2257.08	21.5
2258.03	25
2258.97	22.5
2259.92	19
2260.86	22.5
2261.81	21
2262.75	24.5
2263.7	22
2264.64	20
2265.59	22.5
2266.53	23
2267.48	20.5
2268.42	25
2269.36	22
2270.31	23.5
2271.25	26.5
2272.19	22.5
2273.14	23
2274.08	20
2275.02	24.5
2275.97	23.5
2276.91	23.5
2277.85	24
2278.8	21.5
2279.74	26
2280.68	23
2281.62	25.5
2282.56	23
2283.51	22.5
2284.45	17
2285.39	21.5
2286.33	23.5
2287.27	24
2288.21	25
2289.15	22.5
2290.09	25
2291.04	22
2291.98	19.5
2292.92	26
2293.86	24.5
2294.8	26
2295.74	18
2296.68	21
2297.62	24.5
2298.56	23.5
2299.5	19.5
2300.44	24.5
2301.37	22.5
2302.31	21.5
2303.25	21.5
2304.19	27.5
2305.13	23
2306.07	21
2307.01	21
2307.94	24
2308.88	22.5
2309.82	20
2310.76	22
2311.7	22
2312.63	22
2313.57	21
2314.51	24
2315.44	28
2316.38	22
2317.32	25
2318.26	25
2319.19	24.5
2320.13	24.5
2321.06	24.5
2322	20.5
2322.94	23.5
2323.87	27
2324.81	21
2325.74	27
2326.68	21
2327.61	25
2328.55	26
2329.48	19
2330.42	24.5
2331.35	23
2332.29	25
2333.22	25.5
2334.16	23.5
2335.09	21.5
2336.02	18
2336.96	26
2337.89	22
2338.83	21.5
2339.76	25.5
2340.69	22.5
2341.63	23.5
2342.56	21
2343.49	24
2344.42	21.5
2345.36	25.5
2346.29	27.5
2347.22	22.5
2348.15	27
2349.09	22
2350.02	23.5
2350.95	23
2351.88	23.5
2352.81	27
2353.74	24.5
2354.68	23.5
2355.61	21.5
2356.54	22
2357.47	22.5
2358.4	23
2359.33	23
2360.26	20
2361.19	21.5
2362.12	22.5
2363.05	23.5
2363.98	23
2364.91	23
2365.84	22.5
2366.77	22.5
2367.7	24.5
2368.63	26.5
2369.56	23.5
2370.49	25.5
2371.41	23
2372.34	22.5
2373.27	24
2374.2	26.5
2375.13	25
2376.06	24
2376.98	27.5
2377.91	26
2378.84	22.5
2379.77	25.5
2380.69	25
2381.62	22
2382.55	25
2383.47	25
2384.4	23
2385.33	22
2386.25	21.5
2387.18	19
2388.11	22
2389.03	25
2389.96	26
2390.89	22.5
2391.81	23.5
2392.74	20.5
2393.66	25
2394.59	20
2395.51	22
2396.44	23
2397.36	23
2398.29	23.5
2399.21	25.5
2400.14	24
2401.06	23.5
2401.99	27
2402.91	21.5
2403.83	27.5
2404.76	23
2405.68	22.5
2406.6	24
2407.53	25
2408.45	22
2409.37	23.5
2410.3	21.5
2411.22	24
2412.14	21.5
2413.06	20.5
2413.99	22.5
2414.91	20.5
2415.83	25
2416.75	21.5
2417.68	25
2418.6	19.5
2419.52	23.5
2420.44	21.5
2421.36	24
2422.28	26
2423.2	24
2424.12	21
2425.05	23
2425.97	27
2426.89	24
2427.81	28
2428.73	26
2429.65	26.5
2430.57	20
2431.49	22.5
2432.41	18.5
2433.33	24
2434.25	21.5
2435.17	24
2436.08	23.5
2437	24
2437.92	26.5
2438.84	24.5
2439.76	22.5
2440.68	27.5
2441.6	27
2442.51	21.5
2443.43	22
2444.35	21
2445.27	26
2446.19	25.5
2447.1	21
2448.02	23
2448.94	22
2449.85	25.5
2450.77	19
2451.69	26
2452.61	24
2453.52	26
2454.44	21.5
2455.35	27
2456.27	23.5
2457.19	21
2458.1	22.5
2459.02	24
2459.94	27
2460.85	21.5
2461.77	24.5
2462.68	24.5
2463.6	23
2464.51	25
2465.43	22
2466.34	24.5
2467.25	22
2468.17	24
2469.08	23.5
2470	25
2470.91	23
2471.83	22
2472.74	22
2473.65	23
2474.57	22
2475.48	27
2476.39	27
2477.31	24.5
2478.22	22
2479.13	23.5
2480.04	22
2480.96	24
2481.87	23.5
2482.78	24
2483.69	22
2484.6	25
2485.52	23.5
2486.43	27
2487.34	24
2488.25	24
2489.16	22.5
2490.07	26
2490.99	20
2491.9	23
2492.81	26
2493.72	23.5
2494.63	23
2495.54	23
2496.45	24.5
2497.36	24.5
2498.27	24
2499.18	23
2500.09	23.5
2501	21.5
2501.91	25.5
2502.82	23
2503.73	26
2504.63	24
2505.54	24.5
2506.45	25.5
2507.36	24
2508.27	21
2509.18	24
2510.09	26
2510.99	20.5
2511.9	27.5
2512.81	27.5
2513.72	19
2514.62	23.5
2515.53	21
2516.44	22
2517.35	19
2518.25	22
2519.16	26
2520.07	24.5
2520.97	24.5
2521.88	24
2522.79	24.5
2523.69	24
2524.6	24.5
2525.51	22.5
2526.41	23
2527.32	26.5
2528.22	26
2529.13	19.5
2530.03	26.5
2530.94	26.5
2531.84	23
2532.75	26
2533.65	23
2534.56	26.5
2535.46	26
2536.37	25.5
2537.27	21.5
2538.17	23.5
2539.08	24
2539.98	23
2540.89	21
2541.79	23
2542.69	24.5
2543.6	22
2544.5	25
2545.4	20.5
2546.31	26
2547.21	25
2548.11	22.5
2549.01	21
2549.92	24
2550.82	26
2551.72	24
2552.62	23.5
2553.52	29
2554.42	26.5
2555.33	26
2556.23	24
2557.13	24
2558.03	25
2558.93	24.5
2559.83	23.5
2560.73	25.5
2561.63	25
2562.53	27
2563.43	26
2564.33	25
2565.24	25.5
2566.13	23
2567.04	23
2567.93	25.5
2568.83	22.5
2569.73	22
2570.63	27
2571.53	25.5
2572.43	23
2573.33	24
2574.23	21.5
2575.13	21.5
2576.03	25
2576.92	27
2577.82	26
2578.72	23.5
2579.62	21.5
2580.52	24
2581.41	23
2582.31	22.5
2583.21	19
2584.11	26.5
2585	21.5
2585.9	23.5
2586.8	23
2587.69	21.5
2588.59	25
2589.49	24.5
2590.38	28.5
2591.28	25
2592.18	27
2593.07	27
2593.97	22
2594.86	23
2595.76	27.5
2596.66	23.5
2597.55	25
2598.45	25
2599.34	24.5
2600.24	24.5
2601.13	25.5
2602.03	25
2602.92	21.5
2603.81	26
2604.71	25
2605.6	27
2606.5	26
2607.39	25
2608.28	21
2609.18	25
2610.07	23
2610.97	23.5
2611.86	23
2612.75	25.5
2613.64	20
2614.54	27.5
2615.43	24.5
2616.32	23.5
2617.22	23.5
2618.11	26.5
2619	24
2619.89	21.5
2620.78	26
2621.68	28
2622.57	24.5
2623.46	27.5
2624.35	27
2625.24	24
2626.13	26.5
2627.02	25
2627.91	19.5
2628.81	25
2629.7	26
2630.59	23.5
2631.48	26.5
2632.37	20.5
2633.26	27
2634.15	24.5
2635.04	25
2635.93	29
2636.82	22
2637.71	24.5
2638.59	23
2639.48	23
2640.37	22
2641.26	28
2642.15	24
2643.04	24
2643.93	24.5
2644.82	25.5
2645.71	26
2646.59	26.5
2647.48	22
2648.37	24.5
2649.26	23
2650.15	22.5
2651.03	25
2651.92	24.5
2652.81	27.5
2653.69	24.5
2654.58	23
2655.47	25
2656.35	26.5
2657.24	22.5
2658.13	28
2659.01	26.5
2659.9	24.5
2660.79	22
2661.67	23
2662.56	21
2663.44	19.5
2664.33	26
2665.22	22.5
2666.1	26
2666.99	22.5
2667.87	23.5
2668.76	24
2669.64	24
2670.52	23
2671.41	23
2672.29	22
2673.18	26
2674.06	22
2674.95	22.5
2675.83	26.5
2676.71	18.5
2677.6	27
2678.48	25
2679.36	27
2680.25	27
2681.13	20.5
2682.01	24
2682.9	24
2683.78	20
2684.66	25
2685.55	22.5
2686.43	25
2687.31	19
2688.19	24.5
2689.07	20.5
2689.96	25
2690.84	23
2691.72	25
2692.6	22.5
2693.48	26
2694.36	24.5
2695.24	24
2696.12	22
2697	21.5
2697.89	25
2698.77	25
2699.65	20.5
2700.53	23.5
2701.41	20.5
2702.29	23.5
2703.17	24.5
2704.05	22.5
2704.93	26
2705.81	26.5
2706.69	25.5
2707.57	26
2708.44	23.5
2709.32	21
2710.2	21
2711.08	21
2711.96	22
2712.84	23.5
2713.72	21
2714.59	19.5
2715.47	24.5
2716.35	24.5
2717.23	26
2718.11	22
2718.98	21
2719.86	23
2720.74	23
2721.62	20
2722.49	25
2723.37	24
2724.25	26
2725.12	25
2726	22
2726.88	21
2727.75	27.5
2728.63	25.5
2729.51	22.5
2730.38	19
2731.26	22.5
2732.13	22.5
2733.01	23.5
2733.88	26
2734.76	29.5
2735.63	25
2736.51	21
2737.38	20.5
2738.26	22
2739.13	24.5
2740.01	29.5
2740.88	28
2741.76	25.5
2742.63	23
2743.5	24.5
2744.38	25
2745.25	21
2746.13	27
2747	24
2747.87	24
2748.75	23.5
2749.62	20.5
2750.49	28
2751.36	21.5
2752.24	24.5
2753.11	28
2753.98	22
2754.86	21
2755.73	22.5
2756.6	23
2757.47	22.5
2758.34	23.5
2759.22	22
2760.09	23.5
2760.96	23
2761.83	21
2762.7	26.5
2763.57	24
2764.44	24.5
2765.31	25.5
2766.18	23
2767.06	25
2767.93	24
2768.8	19
2769.67	25.5
2770.54	23.5
2771.41	23
2772.28	23.5
2773.15	27
2774.02	22
2774.89	29.5
2775.75	21.5
2776.62	24.5
2777.49	25
2778.36	25
2779.23	24.5
2780.1	23
2780.97	24.5
2781.84	23
2782.71	26
2783.57	21
2784.44	22
2785.31	23
2786.18	21
2787.04	24.5
2787.91	27
2788.78	26
2789.65	23
2790.51	21
2791.38	24.5
2792.25	23
2793.12	22.5
2793.98	25
2794.85	26
2795.72	22
2796.58	21.5
2797.45	24.5
2798.31	24.5
2799.18	24.5
2800.05	27
2800.91	25.5
2801.78	22.5
2802.64	25
2803.51	26
2804.37	24.5
2805.24	22.5
2806.1	23
2806.97	27
2807.83	25
2808.7	22.5
2809.56	30
2810.43	19
2811.29	23.5
2812.15	21.5
2813.02	20
2813.88	21.5
2814.75	22
2815.61	27
2816.47	25.5
2817.34	25.5
2818.2	26
2819.06	26
2819.92	24
2820.79	21.5
2821.65	26.5
2822.51	23.5
2823.37	28
2824.24	20
2825.1	22
2825.96	26
2826.82	27.5
2827.69	22.5
2828.55	19
2829.41	27
2830.27	23
2831.13	24
2831.99	27
2832.85	26
2833.71	25.5
2834.58	26
2835.44	17.5
2836.3	22
2837.16	24.5
2838.02	25
2838.88	23.5
2839.74	23
2840.6	26
2841.46	26.5
2842.32	22.5
2843.18	24
2844.04	21.5
2844.9	23
2845.75	26.5
2846.61	26.5
2847.47	25
2848.33	22.5
2849.19	25
2850.05	25
2850.91	24
2851.77	27
2852.62	25.5
2853.48	25
2854.34	24
2855.2	22
2856.06	25.5
2856.91	26.5
2857.77	21.5
2858.63	26
2859.48	22.5
2860.34	23
2861.2	22.5
2862.06	28.5
2862.91	24.5
2863.77	27.5
2864.63	23.5
2865.48	28
2866.34	26.5
2867.19	27
2868.05	26.5
2868.91	29.5
2869.76	30.5
2870.62	28
2871.47	31.5
2872.33	28.5
2873.18	25.5
2874.04	26.5
2874.89	28.5
2875.75	24
2876.6	27.5
2877.46	28.5
2878.31	28
2879.17	26.5
2880.02	26.5
2880.88	30
2881.73	28.5
2882.58	26
2883.44	27.5
2884.29	28.5
2885.14	25.5
2886	28
2886.85	33.5
2887.7	35.5
2888.56	29
2889.41	33
2890.26	27
2891.12	35.5
2891.97	33
2892.82	33
2893.67	32.5
2894.52	30
2895.38	34.5
2896.23	41
2897.08	37.5
2897.93	40
2898.78	45
2899.64	42.5
2900.49	46
2901.34	47
2902.19	41.5
2903.04	53
2903.89	52
2904.74	50.5
2905.59	57
2906.44	54
2907.29	52
2908.14	58.5
2908.99	49.5
2909.84	52
2910.69	47.5
2911.54	49.5
2912.39	43
2913.24	50.5
2914.09	42
2914.94	39.5
2915.79	39.5
2916.64	38
2917.49	36
2918.34	34
2919.18	32.5
2920.03	34.5
2920.88	30.5
2921.73	30.5
2922.58	28
2923.42	29
2924.27	29.5
2925.12	30.5
2925.97	28.5
2926.82	25
2927.66	28
2928.51	23.5
2929.36	30
2930.2	25.5
2931.05	30.5
2931.9	27.5
2932.74	23.5
2933.59	27
2934.44	26.5
2935.28	25.5
2936.13	26.5
2936.98	28
2937.82	22.5
2938.67	24.5
2939.51	25
2940.36	26
2941.2	25
2942.05	26
2942.9	28.5
2943.74	24.5
2944.58	26
2945.43	24.5
2946.27	19
2947.12	27
2947.96	25
2948.81	25.5
2949.65	27
2950.5	30.5
2951.34	30
2952.18	28.5
2953.03	30
2953.87	30
2954.71	27
2955.56	30
2956.4	30.5
2957.24	30
2958.09	34.5
2958.93	38.5
2959.77	34.5
2960.62	34.5
2961.46	32
2962.3	36
2963.14	36.5
2963.98	36
2964.83	36
2965.67	37
2966.51	37.5
2967.35	39.5
2968.19	32
2969.04	36
2969.88	36
2970.72	34
2971.56	31.4951
2972.4	36.3946
2973.24	34.446
2974.08	28.6391
2974.92	30.5167
2975.76	28.2623
2976.6	20.5998
2977.44	31.8029
2978.28	29.435
2979.12	28.8817
2979.96	27.7115
2980.8	28.2688
2981.64	27.9717
2982.48	28.0848
2983.32	27.0777
2984.16	24.8118
2985	26.0772
2985.84	23.9279
2986.68	25.2218
2987.52	22.7829
2988.35	23.8936
2989.19	27.057
2990.03	27.6728
2990.87	22.6986
2991.71	26.3925
2992.55	23.6544
2993.38	21.0792
2994.22	24.2995
2995.06	22.9085
2995.9	26.0945
2996.73	24.6963
2997.57	23.1536
2998.41	25.1604
2999.25	23.557
3000.08	25.9364
3000.92	23.1115
3001.76	21.3429
3002.59	24.1257
3003.43	19.9345
3004.27	23.1416
3005.1	24.2569
3005.94	23.2335
3006.78	24.3158
3007.61	25.0841
3008.45	22.7803
3009.28	19.7629
3010.12	22.7317
3010.95	22.1936
3011.79	22.6646
3012.62	21.9666
3013.46	24.4137
3014.29	20.9337
3015.13	23.9339
3015.96	22.9241
3016.8	22.565
3017.63	21.339
3018.47	21.0266
3019.3	21.8389
3020.14	23.784
3020.97	25.267
3021.8	23.9067
3022.64	23.1509
3023.47	22.6811
3024.3	22.4835
3025.14	22.7461
3025.97	22.9641
3026.8	21.7427
3027.64	20.9804
3028.47	22.266
3029.3	24.0253
3030.14	22.8764
3030.97	22.5642
3031.8	22.987
3032.63	22.213
3033.46	21.0724
3034.3	23.3504
3035.13	23.569
3035.96	23.3847
3036.79	24.7564
3037.62	23.0541
3038.46	24.5283
3039.29	22.298
3040.12	22.8533
3040.95	22.4053
3041.78	23.6867
3042.61	22.8124
3043.44	20.6152
3044.27	21.1838
3045.1	22.0763
3045.93	20.2398
3046.76	21.847
3047.59	25.0981
3048.42	22.9326
3049.25	21.1621
3050.08	22.8142
3050.91	24.3726
3051.74	23.5845
3052.57	24.0662
3053.4	24.667
3054.23	22.7779
3055.06	20.1216
3055.89	24.0408
3056.72	21.0733
3057.32	20
3058.15	22
3058.98	26
3059.82	24.5
3060.65	24
3061.48	19
3062.31	26
3063.15	24.5
3063.98	23
3064.81	26
3065.64	24.5
3066.48	22.5
3067.31	21.5
3068.14	19
3068.97	21
3069.8	18.5
3070.63	23
3071.47	21.5
3072.3	22
3073.13	21
3073.96	25.5
3074.79	22.5
3075.62	23
3076.45	22
3077.28	22.5
3078.11	26.5
3078.94	18.5
3079.77	25.5
3080.6	24.5
3081.43	24.5
3082.26	25.5
3083.09	23
3083.92	21
3084.75	23
3085.58	24
3086.41	18.5
3087.24	24.5
3088.07	20.5
3088.9	23
3089.73	22
3090.55	23.5
3091.38	26.5
3092.21	23
3093.04	24.5
3093.87	21
3094.7	22
3095.52	21.5
3096.35	24
3097.18	22
3098.01	21.5
3098.84	24.5
3099.66	24
3100.49	25
3101.32	26
3102.14	23
3102.97	23.5
3103.8	19
3104.62	24
3105.45	24.5
3106.28	20
3107.1	21.5
3107.93	25.5
3108.76	20
3109.58	27.5
3110.41	21
3111.23	19.5
3112.06	22
3112.89	23
3113.71	21.5
3114.54	23
3115.36	20
3116.19	25.5
3117.01	23
3117.84	20
3118.66	19
3119.49	22
3120.31	25.5
3121.13	21.5
3121.96	21.5
3122.78	24.5
3123.61	26.5
3124.43	25
3125.25	24.5
3126.08	21.5
3126.9	23
3127.73	21.5
3128.55	26
3129.37	23.5
3130.19	24
3131.02	24
3131.84	24
3132.66	25
3133.49	21
3134.31	23
3135.13	23
3135.95	22
3136.78	18
3137.6	22.5
3138.42	25
3139.24	22.5
3140.06	28.5
3140.88	26
3141.71	22
3142.53	23.5
3143.35	24
3144.17	27.5
3144.99	22
3145.81	22.5
3146.63	21.5
3147.45	25.5
3148.27	21.5
3149.09	26
3149.91	24.5
3150.73	21.5
3151.56	24.5
3152.37	20.5
3153.2	23.5
3154.01	20
3154.83	22.5
3155.65	23
3156.47	23
3157.29	21.5
3158.11	24.5
3158.93	23
3159.75	23.5
3160.57	21.5
3161.39	24.5
3162.21	21
3163.02	22
3163.84	23.5
3164.66	24
3165.48	26.5
3166.3	22
3167.11	23.5
3167.93	21
3168.75	20.5
3169.57	22
3170.39	23.5
3171.2	26
3172.02	27.5
3172.84	26.5
3173.65	19
3174.47	21
3175.29	22.5
3176.1	20
3176.92	22
3177.74	23.5
3178.55	23
3179.37	22
3180.19	24.5
3181	20
3181.82	24.5
3182.63	22
3183.45	24
3184.27	24.5
3185.08	27
3185.9	22.5
3186.71	20
3187.53	19
3188.34	25
3189.16	21.5
3189.97	23
3190.79	24.5
3191.6	22.5
3192.41	24.5
3193.23	23.5
3194.04	21
3194.86	21.5
3195.67	27
3196.48	24
3197.3	25.5
3198.11	23.5
3198.93	22
3199.74	24.5
3200.55	23.5
3201.36	25.5
3202.18	23
3202.99	25.5
3203.8	24
3204.62	25
3205.43	26.5
3206.24	23
3207.05	23
3207.87	24
3208.68	19
3209.49	25
3210.3	20.5
3211.11	22
3211.93	26
3212.74	24
3213.55	25.5
3214.36	23.5
3215.17	23.5
3215.98	26.5
3216.79	22.5
3217.6	23.5
3218.41	23.5
3219.22	22
3220.03	26
3220.85	22
3221.66	23
3222.47	18.5
3223.28	22
3224.09	21.5
3224.9	27
3225.71	25.5
3226.52	23
3227.33	24.5
3228.13	25
3228.94	25
3229.75	25.5
3230.56	27.5
3231.37	22.5
3232.18	22.5
3232.99	26
3233.8	26
3234.61	21.5
3235.41	27.5
3236.22	24.5
3237.03	22
3237.84	24
3238.65	21
3239.45	19
3240.26	21.5
3241.07	21
3241.88	22
3242.68	18
3243.49	22.5
3244.3	22.5
3245.1	23.5
3245.91	24
3246.72	23
3247.53	21.5
3248.33	19.5
3249.14	23.5
3249.95	22
3250.75	20.5
3251.56	23
3252.36	25.5
3253.17	25
3253.97	23
3254.78	25
3255.59	22
3256.39	22
3257.2	24
3258	25.5
3258.81	24
3259.61	22.5
3260.42	23.5
3261.22	24.5
3262.03	21.5
3262.83	25
3263.64	23
3264.44	22.5
3265.24	26
3266.05	22
3266.85	25
3267.66	17.5
3268.46	25
3269.26	24.5
3270.07	24
3270.87	24
3271.67	21
3272.48	21
3273.28	25
3274.08	23.5
3274.89	20.5
3275.69	24.5
3276.49	19
3277.29	26
3278.1	20
3278.9	25
3279.7	20
3280.5	24
3281.3	24
3282.11	20
3282.91	25.5
3283.71	22.5
3284.51	22
3285.31	23
3286.11	25.5
3286.91	25.5
3287.72	24
3288.52	22.5
3289.32	21.5
3290.12	24
3290.92	22
3291.72	24.5
3292.52	20
3293.32	22
3294.12	24
3294.92	25
3295.72	21
3296.52	19
3297.32	25.5
3298.12	26
3298.92	23.5
3299.72	25
3300.52	24
3301.32	25.5
3302.12	24.5
3302.92	25
3303.71	23.5
3304.51	22.5
3305.31	23.5
3306.11	24
3306.91	25
3307.71	23
3308.5	18
3309.3	25
3310.1	25.5
3310.9	25.5
3311.7	29.5
3312.49	26
3313.29	25.5
3314.09	21
3314.89	23.5
3315.68	26
3316.48	22.5
3317.28	24
3318.07	24.5
3318.87	25
3319.67	21
3320.46	25
3321.26	22
3322.06	20.5
3322.85	22
3323.65	23.5
3324.44	22.5
3325.24	22.5
3326.04	25
3326.83	23.5
3327.63	24
3328.42	22
3329.22	23
3330.01	19.5
3330.81	23
3331.6	21
3332.4	21
3333.19	22
3333.99	22
3334.78	25.5
3335.58	23.5
3336.37	23
3337.17	25.5
3337.96	27
3338.75	28.5
3339.55	26
3340.34	24.5
3341.13	23.5
3341.93	28
3342.72	25
3343.51	26
3344.31	20
3345.1	21
3345.89	22
3346.69	25.5
3347.48	26.5
3348.27	25
3349.06	22.5
3349.86	24
3350.65	27
3351.44	22.5
3352.23	24
3353.03	26.5
3353.82	24
3354.61	20
3355.4	21
3356.19	20
3356.98	26.5
3357.78	21.5
3358.57	23.5
3359.36	24
3360.15	23.5
3360.94	23
3361.73	26.5
3362.52	21.5
3363.31	23.5
3364.1	23
3364.89	21
3365.68	24
3366.47	25
3367.26	28
3368.05	22.5
3368.84	25.5
3369.63	23
3370.42	23.5
3371.21	20
3372	22.5
3372.79	24.5
3373.58	24
3374.37	25
3375.16	21.5
3375.95	26
3376.73	23.5
3377.52	21
3378.31	25.5
3379.1	25
3379.89	27.5
3380.68	28.5
3381.46	26
3382.25	24
3383.04	24.5
3383.83	24.5
3384.62	27
3385.4	22
3386.19	24.5
3386.98	25
3387.76	25
3388.55	23.5
3389.34	22.5
3390.13	20.5
3390.91	21
3391.7	25
3392.49	24.5
3393.27	22
3394.06	22
3394.84	25
3395.63	25
3396.42	26.5
3397.2	24.5
3397.99	22
3398.77	26
3399.56	23
3400.34	21.5
3401.13	25
3401.92	28.5
3402.7	23
3403.49	26
3404.27	28
3405.06	22.5
3405.84	22
3406.62	23
3407.41	25
3408.19	24.5
3408.98	26
3409.76	21.5
3410.55	30
3411.33	20.5
3412.11	23.5
3412.9	29
3413.68	24.5
3414.46	19.5
3415.25	24
3416.03	22.5
3416.81	20.5
3417.6	23
3418.38	24
3419.16	21.5
3419.95	26.5
3420.73	26
3421.51	26.5
3422.29	24.5
3423.08	23.5
3423.86	25
3424.64	26
3425.42	25
3426.2	24
3426.98	19.5
3427.77	24
3428.55	22.5
3429.33	22
3430.11	26
3430.89	26
3431.67	26.5
3432.45	25.5
3433.24	26
3434.02	18.5
3434.8	23.5
3435.58	23
3436.36	24
3437.14	18.5
3437.92	22
3438.7	20
3439.48	22
3440.26	20
3441.04	25
3441.82	23.5
3442.6	25.5
3443.38	18.5
3444.16	24.5
3444.94	25
3445.71	20
3446.49	22
3447.27	27
3448.05	22
3448.83	24
3449.61	22
3450.39	27
3451.17	25
3451.94	21.5
3452.72	23.5
3453.5	23
3454.28	26
3455.06	20
3455.83	21
3456.61	26
3457.39	24
3458.17	27
3458.94	22.5
3459.72	25
3460.5	21.5
3461.28	22
3462.05	24
3462.83	24.5
3463.61	24.5
3464.38	23
3465.16	19.5
3465.93	22.5
3466.71	22.5
3467.49	21.5
3468.26	24.5
3469.04	22.5
3469.82	23.5
3470.59	25
3471.37	24
3472.14	21
3472.92	24
3473.69	25.5
3474.47	26.5
3475.24	25.5
3476.02	23.5
3476.79	23
3477.57	25
3478.34	21.5
3479.12	29
3479.89	23
3480.67	21.5
3481.44	23
3482.21	25.5
3482.99	23
3483.76	27
3484.54	21
3485.31	20
3486.08	21
3486.86	22
3487.63	25.5
3488.4	19
3489.18	25
3489.95	23
3490.72	24
3491.5	25
3492.27	25.5
3493.04	27
3493.81	21
3494.59	21
3495.36	24
3496.13	23
3496.9	23
3497.67	21
3498.45	25
3499.22	23.5
3499.99	22.5
