#Acq. time (s)=	5
#Accumulations=	5
#Range (cm-¹)=	100...3500
#Windows=	4
#Autofocus=	Off
#AutoExposure=	Off
#Spike filter=	Multiple accum.
#Delay time (s)=	0
#Binning=	1
#Readout mode=	Signal
#DeNoise=	Off
#ICS correction=	Off
#Dark correction=	Off
#Inst. Process=	Off
#Instrument=	LabRAM HR Evol
#Detector=	Syncerity OE
#Objective=	x100_VIS
#Grating=	600 (500nm)
#ND Filter=	25%
#Laser=	633nm_Edge
#Hole=	100.021
#Range=	Visible
#Project=	verificaciones
#Sample=	a4
#Site=	plain
#Title=	bolusa4plain
#Remark=	com
#Date=	16.01.2026 12:36
#Acquired=	16.01.2026 12:36:52
100.687	30
101.971	32
103.254	36
104.537	35
105.82	33
107.103	33.5
108.387	28.5
109.669	33
110.951	33
112.233	31
113.514	36
114.796	33
116.077	37
117.358	35.5
118.639	32
119.919	35
121.2	34
122.48	39
123.76	38.5
125.039	36
126.319	34
127.598	33.5
128.877	35
130.156	42.5
131.435	39
132.713	40.5
133.992	41.5
135.268	43.5
136.546	39
137.824	41.5
139.101	41
140.378	43
141.655	39
142.932	41.5
144.209	41.5
145.485	41.5
146.76	44.5
148.036	40.5
149.312	42.5
150.587	45.5
151.862	50
153.138	46
154.411	48
155.686	47
156.96	47
158.235	48
159.509	44
160.781	49
162.055	49
163.328	47
164.602	43.5
165.873	46.5
167.146	43
168.419	49
169.691	47
170.962	42
172.234	47
173.506	45
174.777	46.5
176.047	45.5
177.318	47.5
178.589	47
179.859	44.5
181.129	45.5
182.4	49.5
183.668	47.5
184.938	52
186.207	51
187.476	49
188.746	48.5
190.013	49
191.282	44.5
192.551	47.5
193.818	49
195.086	49
196.353	44
197.621	49
198.887	47.5
200.154	46
201.422	48.5
202.687	39
203.954	45
205.219	39
206.486	41.5
207.751	46
209.017	41
210.281	40.5
211.547	33.5
212.811	41
214.076	39
215.339	38
216.603	34
217.867	40
219.13	40
220.395	34.5
221.657	38.5
222.921	42.5
224.183	36.5
225.445	34.5
226.708	36.5
227.97	32.5
229.232	31.5
230.493	34
231.754	34.5
233.016	37
234.277	32
235.537	30
236.799	31.5
238.059	29.5
239.318	33
240.579	36
241.839	32
243.098	32
244.358	31
245.617	34
246.875	32
248.133	36.5
249.393	37
250.651	36.5
251.908	27
253.166	29
254.424	28
255.681	34
256.938	30
258.195	31
259.451	33
260.709	29
261.965	30
263.221	26
264.476	32.5
265.732	32.5
266.988	27
268.243	30.5
269.498	25.5
270.753	32.5
272.007	31
273.261	31
274.515	29
275.769	30.5
277.022	29
278.277	25.5
279.53	30.5
280.783	26.5
282.036	29.5
283.289	30
284.541	26.5
285.793	27.5
287.045	27
288.297	33
289.548	33
290.8	29
292.051	28.5
293.302	27
294.552	28.5
295.803	28.5
297.053	26
298.303	28
299.553	31
300.803	28
302.053	28
303.302	28
304.551	27.5
305.8	28
307.047	29
308.296	32.5
309.544	33
310.792	28
312.04	28.5
313.288	30
314.535	31
315.783	29.5
317.03	33
318.275	31
319.522	29
320.768	29
322.015	28.5
323.261	27
324.505	25.5
325.751	31
326.997	32.5
328.242	28.5
329.487	29
330.73	30
331.975	28
333.22	31
334.464	30
335.707	30.5
336.95	28
338.194	27
339.438	28.5
340.68	28.5
341.923	26.5
343.166	28
344.407	27
345.649	25.5
346.892	31.5
348.132	30
349.374	28
350.616	30
351.856	29
353.097	24
354.337	28.5
355.578	30
356.818	35
358.058	30
359.298	29.5
360.536	30
361.776	31
363.016	26.5
364.254	27.5
365.493	30
366.731	29
367.97	30
369.207	25
370.446	28
371.683	29
372.921	30
374.157	28
375.395	27
376.631	32
377.868	31.5
379.104	32
380.341	28.5
381.576	29.5
382.813	26
384.048	28
385.284	30.5
386.518	30.5
387.753	29
388.988	28
390.222	31
391.457	29
392.691	29.5
393.924	26.5
395.159	27
396.392	31
397.624	30
398.858	25
400.091	28
401.323	28
402.556	27.5
403.788	26
405.019	29.5
406.252	30
407.483	31
408.714	28.5
409.945	26
411.177	26
412.407	28
413.637	27.5
414.867	30.5
416.099	29.5
417.328	29.5
418.558	23.5
419.787	28.5
421.016	28
422.246	27.5
423.475	26.5
424.703	29.5
425.931	29
427.159	29.5
428.388	29.5
429.616	26.5
430.843	28
432.071	28.5
433.298	26
434.524	29
435.751	24.5
436.977	29.5
438.204	30.5
439.431	28
440.657	29
441.883	27.5
443.108	30
444.333	31
445.558	31
446.783	32.5
448.008	33
449.232	30
450.457	29
451.681	28.5
452.905	25.5
454.128	27
455.352	30.5
456.575	29
457.798	28.5
459.021	34
460.244	32.5
461.466	32
462.689	32
463.909	29
465.131	34.5
466.353	33.5
467.575	32.5
468.796	36.5
470.017	36.5
471.238	42
472.459	36.5
473.679	42
474.898	42.5
476.118	43
477.338	45
478.558	44
479.778	54
480.997	61.5
482.215	65
483.434	69.5
484.653	70
485.871	79.5
487.09	78
488.307	76
489.525	78.5
490.743	78
491.96	72.5
493.176	66
494.394	66
495.611	62.5
496.826	57
498.043	58
499.259	56
500.474	54.5
501.69	52
502.906	46
504.121	46
505.336	45.5
506.551	45
507.765	44.5
508.98	44
510.195	37
511.408	35.5
512.622	39
513.835	37.5
515.049	38
516.263	33
517.475	34
518.689	34
519.9	37
521.113	33
522.325	35
523.537	34.5
524.748	37.5
525.961	31
527.171	32
528.383	27
529.594	32
530.805	31.5
532.015	29.5
533.226	29
534.435	29.5
535.646	31.5
536.855	30
538.066	30
539.274	27.5
540.483	31
541.693	29
542.901	29.5
544.11	27
545.318	31
546.526	28
547.734	29
548.942	29.5
550.149	30.5
551.357	26.5
552.563	29
553.77	29.5
554.978	30
556.184	26
557.389	30
558.596	30
559.802	31
561.007	28
562.212	28.5
563.419	29.5
564.623	22.5
565.828	29.5
567.032	28
568.238	27
569.442	28.5
570.646	30.5
571.849	29
573.054	28
574.257	31
575.46	28
576.663	26.5
577.866	28
579.068	29
580.272	27.5
581.474	26.5
582.676	31
583.877	28
585.079	26.5
586.28	30
587.481	28.5
588.682	27.5
589.883	31.5
591.083	26.5
592.285	29
593.485	28.5
594.685	25.5
595.885	30.5
597.084	25.5
598.284	26.5
599.483	25.5
600.682	25
601.881	29.5
603.08	31
604.278	30.5
605.476	26
606.674	26
607.872	27
609.07	30
610.266	28
611.463	29
612.661	27
613.857	27.5
615.054	28.5
616.251	30
617.447	29.5
618.643	29
619.839	29
621.035	28
622.229	30
623.425	29.5
624.62	28
625.815	26.5
627.01	25.5
628.205	27.5
629.398	32
630.592	34
631.786	33
632.98	28
634.172	28
635.366	26
636.559	27
637.753	25
638.944	25
640.137	26.5
641.33	31
642.522	27.5
643.713	28
644.905	32
646.097	27
647.287	31.5
648.478	31.5
649.67	30
650.859	27.5
652.05	33
653.241	28
654.43	24
655.621	29
656.811	29.5
657.999	29.5
659.189	26
660.378	27
661.567	30.5
662.755	28
663.944	29.5
665.133	32.5
666.32	31.5
667.508	30.5
668.695	27
669.884	29
671.07	30
672.258	30.5
673.444	32
674.631	33.5
675.817	30
677.004	33
678.19	35
679.376	39.5
680.561	35.5
681.746	33.5
682.932	35.5
684.117	38.5
685.302	37.5
686.487	38.5
687.672	39
688.856	41.5
690.039	40
691.224	34.5
692.407	34
693.59	37.5
694.774	41
695.957	44.5
697.14	39.5
698.323	38.5
699.505	41
700.687	39
701.87	46.5
703.052	52
704.233	51
705.414	48.5
706.597	63
707.778	66
708.958	65
710.139	61.5
711.32	59
712.5	50.5
713.68	46
714.86	41.5
716.039	40.5
717.22	36
718.399	35
719.578	34.5
720.757	31.5
721.935	31.5
723.114	27
724.292	28.5
725.471	29.5
726.649	30
727.827	27
729.004	30.5
730.182	29
731.359	30
732.536	27.5
733.712	32
734.889	29
736.065	29
737.242	30.5
738.418	22.5
739.593	29
740.769	29
741.945	31
743.12	30
744.295	24
745.47	25.5
746.644	27.5
747.819	34
748.993	27.5
750.168	27
751.342	28.5
752.515	26.5
753.689	22
754.862	28.5
756.036	28.5
757.209	30
758.382	28
759.553	26
760.725	29
761.898	25
763.07	28
764.242	29
765.414	26
766.584	31.5
767.755	32
768.927	23.5
770.098	29
771.269	27.5
772.438	32
773.608	24
774.779	28
775.949	32.5
777.117	31
778.287	30
779.457	29.5
780.626	35
781.794	31.5
782.963	28
784.132	29
785.299	34.5
786.468	33.5
787.636	35
788.803	38
789.971	33.5
791.139	33
792.305	33
793.472	29
794.638	31
795.805	33
796.972	31
798.138	33
799.304	30.5
800.469	32
801.635	28
802.801	27
803.966	28
805.131	29.5
806.295	28
807.461	28.5
808.624	27
809.789	29
810.952	31
812.117	28.5
813.28	30.5
814.444	28
815.607	28.5
816.769	25.5
817.933	23
819.095	28
820.258	25.5
821.42	27.5
822.583	30
823.744	31
824.905	29
826.068	27
827.228	27
828.389	27.5
829.551	26
830.711	30.5
831.871	31.5
833.032	29
834.192	27.5
835.352	25.5
836.513	29.5
837.672	23.5
838.831	29
839.99	27.5
841.15	29
842.308	31
843.466	29
844.624	25
845.784	30.5
846.941	31
848.099	31.5
849.256	27
850.414	27.5
851.572	28
852.729	27
853.886	25.5
855.042	28.5
856.198	28.5
857.355	26
858.512	28.5
859.668	28
860.823	30.5
861.979	28
863.134	29
864.289	33
865.444	35
866.599	27.5
867.753	28
868.908	28
870.062	33
871.216	28
872.37	26.5
873.523	30.5
874.677	27
875.83	30
876.983	29
878.136	33
879.289	25.5
880.441	30
881.594	30
882.746	27
883.898	26
885.05	26
886.201	25.5
887.353	27
888.504	29
889.655	29.5
890.806	24
891.956	29
893.107	25
894.257	26.5
895.407	23
896.557	25.5
897.707	29.5
898.856	27
900.005	27
901.154	28
902.304	26.5
903.453	22
904.6	28
905.749	25.5
906.897	24.5
908.046	27
909.192	29
910.34	24.5
911.488	27
912.634	25.5
913.782	28
914.929	28.5
916.076	24
917.222	26
918.368	25
919.515	28
920.66	35
921.806	23.5
922.951	27
924.097	24.5
925.242	26.5
926.387	22
927.532	27
928.676	23.5
929.821	24
930.965	25.5
932.109	26
933.253	28.5
934.396	28
935.54	25.5
936.683	25
937.826	25.5
938.969	29
940.112	24
941.254	29.5
942.397	19
943.538	27
944.681	25.5
945.822	27
946.964	26.5
948.105	25.5
949.246	27
950.388	28
951.528	23
952.669	22
953.809	29
954.949	25.5
956.09	28.5
957.229	26
958.369	29
959.509	29
960.648	25.5
961.786	27.5
962.926	22.5
964.065	27
965.203	26
966.342	27.5
967.48	27
968.618	24.5
969.755	23
970.894	24.75
972.031	25.5
973.168	27
974.305	25.5
975.441	25
976.579	26.5
977.715	24
978.851	27
979.987	28.5
981.123	24.5
982.26	29.5
983.395	24
984.531	29
985.666	26.5
986.8	24
987.935	25.5
989.07	23
990.204	28.5
991.338	23.5
992.472	28
993.607	27.5
994.741	27
995.874	23
997.008	25
998.141	25.5
999.274	22.5
1000.41	24
1001.54	25.5
1002.67	24.5
1003.8	24.5
1004.94	23.5
1006.07	26.5
1007.2	25.5
1008.33	26
1009.46	26.5
1010.59	22
1011.72	26.5
1012.85	27.5
1013.99	30
1015.12	27
1016.25	22
1017.38	24
1018.51	24.5
1019.63	21
1020.76	25.5
1021.89	25
1023.02	25.5
1024.15	27.5
1025.28	27.5
1026.41	29
1027.54	24.5
1028.67	27.5
1029.79	25.5
1030.92	25
1032.05	22.5
1033.18	22.5
1034.3	25.5
1035.43	25.5
1036.56	22
1037.68	25
1038.81	23.5
1039.94	26.5
1041.06	27
1042.19	24
1043.31	26
1044.44	26
1045.57	26.5
1046.69	26
1047.82	24
1048.94	23
1050.07	25
1051.19	25.5
1052.31	22
1053.44	27.5
1054.56	25.5
1055.69	23.5
1056.81	26.5
1057.93	24
1059.06	23.5
1060.18	22
1061.3	24
1062.42	24
1063.55	21.5
1064.67	25
1065.79	24.5
1066.91	25
1068.03	26.5
1069.16	22.5
1070.28	27
1071.4	25
1072.52	23
1073.64	26
1074.76	24
1075.88	26
1077	24
1078.12	23
1079.24	27
1080.36	26
1081.48	22
1082.6	26
1083.72	24
1084.84	26
1085.96	23.5
1087.08	27.5
1088.2	27.5
1089.31	27.5
1090.43	26.5
1091.55	25.5
1092.67	26
1093.78	25
1094.9	20
1096.02	23
1097.14	25
1098.25	26.5
1099.37	25.5
1100.49	26
1101.6	27
1102.72	27
1103.83	25
1104.95	24
1106.07	25
1107.18	24
1108.3	25
1109.41	27.5
1110.52	24.5
1111.64	25
1112.75	26
1113.87	23.5
1114.98	26.5
1116.1	23
1117.21	26.5
1118.32	26
1119.44	25
1120.55	30.5
1121.66	23.5
1122.78	23
1123.89	26
1125	26.5
1126.11	30.5
1127.23	25.5
1128.34	25
1129.45	26
1130.56	19
1131.67	24.5
1132.78	27.5
1133.89	25
1135	24
1136.12	24.5
1137.23	25
1138.34	24
1139.45	24
1140.56	28
1141.67	23
1142.78	23.5
1143.89	22
1144.99	30
1146.1	23
1147.21	28.5
1148.32	22.5
1149.43	21
1150.54	26.5
1151.65	22
1152.75	25.5
1153.86	28
1154.97	23.5
1156.08	26.5
1157.18	27
1158.29	28
1159.4	26.5
1160.5	19.5
1161.61	25.5
1162.72	21.5
1163.82	24
1164.93	26.5
1166.03	23
1167.14	23
1168.24	29.5
1169.35	25.5
1170.45	24.5
1171.56	26.5
1172.66	27.5
1173.77	25
1174.87	25.5
1175.98	26
1177.08	26.5
1178.19	24
1179.29	22
1180.39	26
1181.5	24.5
1182.6	25
1183.7	25
1184.8	25
1185.91	26
1187.01	26
1188.11	23
1189.21	23
1190.32	26
1191.42	24
1192.52	20
1193.62	25
1194.72	22.4889
1195.82	24.4943
1196.92	23.1098
1198.02	23.0333
1199.12	23.1311
1200.22	23.6432
1201.32	22.2821
1202.42	23.9748
1203.52	23.4107
1204.62	24.9164
1205.72	24.2775
1206.82	20.4295
1207.92	22.5787
1209.02	23.6409
1210.12	22.756
1211.22	23.9147
1212.31	23.7775
1213.41	21.3087
1214.51	24.6515
1215.61	24.7597
1216.71	25.7793
1217.8	21.2533
1218.9	25.0202
1220	22.0646
1221.09	25.1028
1222.19	22.2293
1223.29	23.2785
1224.38	26.0684
1225.48	21.7017
1226.58	25.0415
1227.67	23.1762
1228.77	23.8914
1229.86	26.7904
1230.96	24.3288
1232.05	25.9587
1233.15	24.9635
1234.24	25.3995
1235.34	24.5437
1236.43	24.2446
1237.52	23.6411
1238.62	23.5281
1239.71	25.8027
1240.81	25.8155
1241.9	22
1242.99	25.1319
1244.09	24.958
1245.18	28.4132
1246.27	23.9036
1247.36	23.5929
1248.46	26.1766
1249.55	24.0599
1250.64	22.7694
1251.73	25.9223
1252.82	25.2722
1253.92	23.1305
1255.01	26.9145
1256.1	26.5
1257.19	26.2008
1258.28	24.3054
1259.37	26.2882
1260.46	26.3568
1261.55	26.1717
1262.64	26.3697
1263.73	27.4438
1264.82	25.3139
1265.91	24.1018
1267	24.8125
1268.09	25.3472
1269.18	28.2936
1270.27	25.6534
1271.36	24.8728
1272.45	24.3426
1273.53	24.6043
1274.62	24.7684
1275.71	27.9748
1276.8	23.7918
1277.89	24.8463
1278.97	24.3665
1280.06	21.2473
1281.15	25.3031
1282.23	25.0859
1283.32	22.868
1284.41	24.4904
1285.49	22.5589
1286.58	23.4971
1287.67	24.2449
1288.75	24.0995
1289.84	24.758
1290.92	24.8418
1292.01	23.0037
1293.09	21.8034
1294.18	25.9094
1295.26	26.716
1296.35	24.3978
1297.43	23.1564
1298.52	24.946
1299.6	23.7044
1300.69	24.4716
1301.77	24.5636
1302.85	25.2507
1303.94	25.7666
1305.02	25.6332
1306.1	26.5463
1306.42	27
1307.51	25.5
1308.59	24.5
1309.68	25.5
1310.77	26
1311.86	23.5
1312.95	27
1314.03	23
1315.12	22.5
1316.21	19
1317.29	25
1318.38	22
1319.47	26.5
1320.55	27
1321.64	22
1322.72	25
1323.81	22
1324.89	24.5
1325.98	23
1327.07	23
1328.15	25
1329.24	26
1330.32	23
1331.4	23.5
1332.49	19
1333.57	25
1334.66	20
1335.74	22
1336.82	24.5
1337.91	23
1338.99	29.5
1340.07	24.5
1341.16	26
1342.24	27.5
1343.32	24
1344.4	22
1345.49	23.5
1346.57	27.5
1347.65	24
1348.73	23.5
1349.81	19
1350.9	24.5
1351.98	23
1353.06	23.5
1354.14	28.5
1355.22	24
1356.3	26
1357.38	24.5
1358.46	26.5
1359.54	24
1360.62	25
1361.7	26.5
1362.78	25
1363.86	22
1364.94	21.5
1366.02	20.5
1367.1	27
1368.17	26
1369.25	21
1370.33	23
1371.41	24.5
1372.49	26
1373.57	22
1374.64	24
1375.72	23.5
1376.8	22
1377.87	27
1378.95	20.5
1380.03	24
1381.1	27.5
1382.18	26
1383.26	27
1384.33	26
1385.41	29
1386.49	27.5
1387.56	28
1388.64	25.5
1389.71	25
1390.79	27
1391.86	26
1392.94	29.5
1394.01	27.5
1395.08	31
1396.16	27.5
1397.23	29
1398.31	31
1399.38	31.5
1400.45	32.5
1401.53	30
1402.6	34
1403.67	30
1404.75	32.5
1405.82	32.5
1406.89	31
1407.96	32.5
1409.04	32
1410.11	29.5
1411.18	35
1412.25	34
1413.32	34
1414.39	36.5
1415.47	33.5
1416.54	30.5
1417.61	31.5
1418.68	32
1419.75	29
1420.82	29
1421.89	25.5
1422.96	29
1424.03	31
1425.1	29
1426.17	28
1427.24	27.5
1428.31	27
1429.38	25
1430.44	27.5
1431.51	30.5
1432.58	25
1433.65	21.5
1434.72	21
1435.79	25
1436.85	30.5
1437.92	22
1438.99	26.5
1440.05	27
1441.12	27
1442.19	24.5
1443.26	29
1444.32	25.5
1445.39	28.5
1446.46	27
1447.52	31
1448.59	28
1449.65	27
1450.72	28
1451.78	30
1452.85	27
1453.91	24
1454.98	22
1456.04	28
1457.11	26
1458.17	28
1459.24	21
1460.3	24
1461.36	24.5
1462.43	28
1463.49	24.5
1464.56	28
1465.62	27.5
1466.68	25
1467.74	31
1468.81	24
1469.87	25.5
1470.93	30
1471.99	25.5
1473.06	27
1474.12	27.5
1475.18	26.5
1476.24	25.5
1477.3	27.5
1478.36	26
1479.42	24.5
1480.49	25
1481.55	24
1482.61	23
1483.67	28
1484.73	24
1485.79	29.5
1486.85	27.5
1487.91	25.5
1488.97	21.5
1490.03	27.5
1491.09	24.5
1492.14	28
1493.2	27.5
1494.26	26
1495.32	27.5
1496.38	29
1497.44	26.5
1498.49	27.5
1499.55	27
1500.61	25
1501.67	25
1502.72	25.5
1503.78	25.5
1504.84	26
1505.89	24.5
1506.95	21
1508.01	21.5
1509.07	27
1510.12	29.5
1511.18	25
1512.23	26.5
1513.29	25
1514.34	24
1515.4	25.5
1516.45	23.5
1517.51	25.5
1518.56	23.5
1519.62	22
1520.67	22.5
1521.73	24.5
1522.78	29.5
1523.84	24
1524.89	24
1525.94	22.5
1527	26
1528.05	25
1529.1	24
1530.16	26.5
1531.21	26
1532.26	29
1533.32	29
1534.37	24.5
1535.42	27
1536.47	27.5
1537.52	26
1538.57	23.5
1539.63	22
1540.68	28.5
1541.73	25.5
1542.78	27.5
1543.83	23.5
1544.88	24
1545.93	22
1546.98	21
1548.03	26.5
1549.08	24.5
1550.13	23
1551.18	23
1552.23	19.5
1553.28	26.5
1554.33	27
1555.38	22
1556.43	26
1557.48	25
1558.53	24
1559.57	27.5
1560.62	24
1561.67	23.5
1562.72	25
1563.77	25.5
1564.81	24.5
1565.86	24
1566.91	24.5
1567.96	25
1569	28
1570.05	25.5
1571.09	26.5
1572.14	25
1573.19	24
1574.23	24
1575.28	23.5
1576.33	27
1577.37	25
1578.42	21.5
1579.46	28.5
1580.51	26
1581.55	24
1582.6	23.5
1583.64	29
1584.69	22
1585.73	24
1586.77	22.5
1587.82	22
1588.86	22.5
1589.91	26
1590.95	23
1591.99	27
1593.04	24.5
1594.08	26.5
1595.12	24
1596.16	24.5
1597.21	25
1598.25	25.5
1599.29	23
1600.33	26.5
1601.37	25
1602.42	25
1603.46	25.5
1604.5	22
1605.54	26
1606.58	24.5
1607.62	24.5
1608.66	30
1609.7	24
1610.74	24
1611.78	23
1612.82	25.5
1613.86	22
1614.9	23.5
1615.94	26.5
1616.98	25.5
1618.02	29
1619.06	26.5
1620.1	24
1621.14	25
1622.18	23
1623.21	25
1624.25	24
1625.29	22
1626.33	26
1627.37	28
1628.4	25
1629.44	25
1630.48	26
1631.52	24.5
1632.55	26.5
1633.59	23
1634.63	24
1635.66	22.5
1636.7	27.5
1637.73	26
1638.77	28
1639.81	23
1640.84	27
1641.88	25
1642.91	21.5
1643.95	23.5
1644.98	26.5
1646.02	27.5
1647.05	27.5
1648.09	27
1649.12	26
1650.16	29
1651.19	25.5
1652.22	26.5
1653.26	24.5
1654.29	22
1655.32	23
1656.36	26.5
1657.39	26.5
1658.42	28.5
1659.46	28.5
1660.49	18.5
1661.52	25.5
1662.55	22
1663.59	21.5
1664.62	21.5
1665.65	28
1666.68	27
1667.71	26.5
1668.74	29.5
1669.77	27
1670.81	25
1671.84	25.5
1672.87	27
1673.9	21.5
1674.93	26.5
1675.96	25
1676.99	25
1678.02	27
1679.05	26
1680.08	22
1681.11	23.5
1682.13	27
1683.16	23.5
1684.19	23
1685.22	24
1686.25	24
1687.28	28
1688.31	27
1689.33	24
1690.36	25.5
1691.39	26
1692.42	29
1693.45	26
1694.47	22.5
1695.5	23.5
1696.53	25
1697.55	25
1698.58	28
1699.61	22
1700.63	24
1701.66	23
1702.68	23
1703.71	28
1704.74	25
1705.76	19
1706.79	24
1707.81	26.5
1708.84	22
1709.86	29
1710.89	29.5
1711.91	26
1712.94	25
1713.96	27.5
1714.98	23
1716.01	26.5
1717.03	25
1718.05	26.5
1719.08	29
1720.1	26
1721.12	25.5
1722.15	24.5
1723.17	24.5
1724.19	28.5
1725.22	28.5
1726.24	20
1727.26	27.5
1728.28	24.5
1729.3	28
1730.32	28
1731.35	23
1732.37	25
1733.39	25
1734.41	23.5
1735.43	23.5
1736.45	22
1737.47	20.5
1738.49	24.5
1739.51	23.5
1740.53	25
1741.55	20.5
1742.57	20
1743.59	25.5
1744.61	25
1745.63	22.5
1746.65	23
1747.67	25
1748.69	24.5
1749.71	25.5
1750.72	22
1751.74	25.5
1752.76	25
1753.78	25
1754.8	25
1755.81	20
1756.83	25
1757.85	23
1758.87	23.5
1759.88	27.5
1760.9	21
1761.92	21.5
1762.93	24
1763.95	25.5
1764.97	23.5
1765.98	26.5
1767	23.5
1768.01	26
1769.03	26
1770.05	25
1771.06	27.5
1772.08	23
1773.09	24
1774.11	25
1775.12	28
1776.13	26
1777.15	22
1778.16	24.5
1779.18	25.5
1780.19	24
1781.2	26
1782.22	26
1783.23	25
1784.24	24
1785.26	22
1786.27	24
1787.28	24.5
1788.3	25
1789.31	28.5
1790.32	26.5
1791.33	27
1792.35	21.5
1793.36	26.5
1794.37	27
1795.38	29.5
1796.39	26.5
1797.4	27.5
1798.41	25
1799.43	27
1800.44	27
1801.45	23
1802.46	19.5
1803.47	24
1804.48	26.5
1805.49	25
1806.5	20
1807.51	25
1808.52	23
1809.53	26.5
1810.53	27
1811.54	22
1812.55	27
1813.56	29.5
1814.57	25
1815.58	30
1816.59	24
1817.6	26.5
1818.6	25
1819.61	21
1820.62	24.5
1821.63	24
1822.63	26
1823.64	27.5
1824.65	22.5
1825.65	26.5
1826.66	22.5
1827.67	23
1828.67	27
1829.68	24.5
1830.69	26
1831.69	25
1832.7	21
1833.7	22.5
1834.71	29.5
1835.71	21
1836.72	26
1837.72	26.5
1838.73	22
1839.73	23
1840.74	28.5
1841.74	24.5
1842.75	26
1843.75	26
1844.75	19.5
1845.76	24
1846.76	21.5
1847.76	27.5
1848.77	22
1849.77	25
1850.77	23.5
1851.78	22
1852.78	20.5
1853.78	23.5
1854.78	27.5
1855.79	25.5
1856.79	27
1857.79	28
1858.79	22.5
1859.79	27
1860.8	22.5
1861.8	26
1862.8	23
1863.8	27
1864.8	24.5
1865.8	22
1866.8	25.5
1867.8	26
1868.8	25
1869.8	25.5
1870.8	26
1871.8	25.5
1872.8	23
1873.8	24
1874.8	22
1875.8	27.5
1876.8	29
1877.8	22.5
1878.79	26
1879.79	21.5
1880.79	26
1881.79	26.5
1882.79	26
1883.79	24.5
1884.78	28
1885.78	26.5
1886.78	27
1887.77	20.5
1888.77	24.5
1889.77	18.5
1890.77	20.5
1891.76	23
1892.76	27
1893.76	22.5
1894.75	22.5
1895.75	22
1896.74	22.5
1897.74	26.5
1898.73	22.5
1899.73	25
1900.72	25
1901.72	20
1902.72	26.5
1903.71	24
1904.7	20
1905.7	23.5
1906.69	24.5
1907.69	26
1908.68	25
1909.67	23
1910.67	26.5
1911.66	24
1912.66	27
1913.65	22
1914.64	21
1915.63	25
1916.63	25
1917.62	24
1918.61	26
1919.6	26
1920.6	24
1921.59	24
1922.58	23.5
1923.57	21
1924.56	21.5
1925.56	24
1926.55	22.5
1927.54	26
1928.53	27
1929.52	26
1930.51	24
1931.5	22.5
1932.49	25.5
1933.48	23.5
1934.47	21.5
1935.46	24
1936.45	23.5
1937.44	23.5
1938.43	23.5
1939.42	23.5
1940.41	22.5
1941.4	23
1942.39	23.5
1943.37	24.5
1944.36	25
1945.35	24
1946.34	24.5
1947.33	24
1948.32	26
1949.3	28
1950.29	25
1951.28	26.5
1952.27	22.5
1953.25	24
1954.24	22
1955.23	27
1956.21	24
1957.2	22.5
1958.19	31.5
1959.17	26
1960.16	25.5
1961.14	26
1962.13	25.5
1963.12	25
1964.1	21.5
1965.09	22
1966.07	21.5
1967.06	23.5
1968.04	23
1969.03	29.5
1970.01	24
1970.99	24
1971.98	25
1972.96	19
1973.95	21
1974.93	25.5
1975.92	25.5
1976.9	26.5
1977.88	23.5
1978.87	23.5
1979.85	26.5
1980.83	26
1981.81	22
1982.8	20.5
1983.78	20
1984.76	25
1985.74	27
1986.73	24
1987.71	20.5
1988.69	25
1989.67	18
1990.65	18.5
1991.63	26
1992.61	22.5
1993.59	21.5
1994.58	25
1995.56	23
1996.54	24
1997.52	24
1998.5	25
1999.48	26
2000.46	21.5
2001.44	25
2002.42	23
2003.4	24.5
2004.38	23
2005.35	24
2006.33	22
2007.31	24
2008.29	23.5
2009.27	26
2010.25	22.5
2011.23	24
2012.2	25
2013.18	23.5
2014.16	26
2015.14	23.5
2016.11	22
2017.09	25
2018.07	22
2019.05	26
2020.02	26.5
2021	22
2021.98	27
2022.95	23
2023.93	22
2024.91	23.5
2025.88	23.5
2026.86	19
2027.83	26
2028.81	23.5
2029.78	26.5
2030.76	24.5
2031.73	22.5
2032.71	25
2033.68	21.5
2034.66	25
2035.63	23
2036.61	26
2037.58	22
2038.56	25
2039.53	27
2040.5	25
2041.48	23.5
2042.45	26
2043.42	25
2044.4	25
2045.37	26
2046.34	21.5
2047.32	20
2048.29	22.5
2049.26	23
2050.23	20
2051.2	23
2052.18	22
2053.15	25
2054.12	19.5
2055.09	24
2056.06	19
2057.03	24.5
2058	26
2058.98	25
2059.95	21
2060.92	21.5
2061.89	26.5
2062.86	25.5
2063.83	27.5
2064.8	22.5
2065.77	21.5
2066.74	23.5
2067.71	27
2068.68	23.5
2069.65	26.5
2070.61	23
2071.58	25
2072.55	21.5
2073.52	23.5
2074.49	24
2075.46	23.5
2076.43	24.5
2077.4	29.5
2078.36	26
2079.33	26
2080.3	25
2081.27	22
2082.23	26
2083.2	21.5
2084.17	25.5
2085.13	20
2086.1	24
2087.07	22
2088.03	21
2089	21.5
2089.97	26
2090.93	26
2091.9	23
2092.86	24
2093.83	25
2094.8	26.5
2095.76	23
2096.73	24.5
2097.69	25
2098.66	24
2099.62	23.5
2100.58	23
2101.55	23
2102.51	21.5
2103.48	25.5
2104.44	23.5
2105.41	23.5
2106.37	24.5
2107.33	22
2108.3	22
2109.26	25
2110.22	26
2111.19	22
2112.15	22
2113.11	25.5
2114.07	20.5
2115.04	22.5
2116	21.5
2116.96	28
2117.92	19.5
2118.88	24
2119.85	25.5
2120.81	24
2121.77	26
2122.73	25.5
2123.69	23.5
2124.65	21.5
2125.61	23
2126.57	23
2127.53	28
2128.49	23
2129.45	24.5
2130.41	24.5
2131.37	22.5
2132.33	22.5
2133.29	24
2134.25	23
2135.21	23
2136.17	27.5
2137.13	25.5
2138.09	25
2139.05	21
2140.01	25
2140.96	24
2141.92	23.5
2142.88	24.4826
2143.84	23.9729
2144.8	22.0316
2145.75	23.0805
2146.71	22.1029
2147.67	19.6737
2148.63	23.4138
2149.58	21.8059
2150.54	22.0158
2151.5	23.4466
2152.45	21.7544
2153.41	18.7317
2154.37	23.36
2155.32	23.9242
2156.28	22.2917
2157.23	23.9561
2158.19	25.1295
2159.15	21.4053
2160.1	25.3094
2161.06	22.8279
2162.01	21.1045
2162.97	22.2327
2163.92	23.9443
2164.88	19.5113
2165.83	23.9229
2166.78	23.8462
2167.74	25.8336
2168.69	26.4715
2169.65	23.0674
2170.6	24.162
2171.56	23.5547
2172.51	22.4998
2173.46	22.7112
2174.42	24.1095
2175.37	23
2176.32	22.3797
2177.28	20.7547
2178.23	23.4664
2179.18	20.9829
2180.13	21.5027
2181.08	22.0302
2182.04	23.1184
2182.99	20.1832
2183.94	24.0957
2184.89	20.3201
2185.84	23.2904
2186.8	23.1945
2187.75	23.6547
2188.7	23.9568
2189.65	22.561
2190.6	23.2549
2191.55	21.9849
2192.5	23.2088
2193.45	23.1555
2194.4	23.2279
2195.35	21.8447
2196.3	22.0024
2197.25	22.6775
2198.2	23.6393
2199.15	22.0123
2200.1	21.9671
2201.05	24.2507
2202	21.247
2202.95	22.7513
2203.9	22.2697
2204.85	21.657
2205.79	22.6537
2206.74	19.6008
2207.69	25.0191
2208.64	24.6219
2209.59	22.2371
2210.53	22.9337
2211.48	21.548
2212.43	18.2384
2213.38	23.7145
2214.32	20.784
2215.27	22.8973
2216.22	22.6286
2217.17	21.6353
2218.11	21.048
2219.06	22.4592
2220.01	23.3942
2220.95	24.1356
2221.9	20.4596
2222.84	22.0898
2223.79	24.5525
2224.73	23.2207
2225.68	22.9199
2226.63	21.2884
2227.57	21.4787
2228.52	20.9625
2229.46	24.5339
2230.41	20.2562
2231.35	20.8274
2232.3	22.1819
2233.24	20.4037
2234.18	19.8375
2235.13	23.0687
2236.07	21.0695
2237.02	22.6289
2237.96	22.0035
2238.9	23.0653
2239.85	22.7477
2240.08	22.5
2241.03	21
2241.97	21.5
2242.92	21
2243.87	21
2244.82	21
2245.76	21.5
2246.71	23
2247.66	23
2248.61	23.5
2249.55	23
2250.5	18.5
2251.45	21
2252.39	22.5
2253.34	21.5
2254.29	28
2255.23	20
2256.18	23
2257.12	21.5
2258.07	22
2259.01	24
2259.96	23.5
2260.9	22
2261.85	25
2262.79	25
2263.74	23
2264.68	19
2265.63	24.5
2266.57	25
2267.52	22.5
2268.46	25
2269.41	24
2270.35	22.5
2271.29	26
2272.24	26
2273.18	26
2274.12	24
2275.07	25.5
2276.01	23
2276.95	23
2277.89	22.5
2278.84	22
2279.78	24.5
2280.72	20
2281.66	24.5
2282.6	25
2283.55	20
2284.49	29.5
2285.43	24
2286.37	23.5
2287.31	23
2288.25	21.5
2289.2	20.5
2290.14	21
2291.08	24
2292.02	25.5
2292.96	21.5
2293.9	24
2294.84	26.5
2295.78	22
2296.72	22
2297.66	21.5
2298.6	21
2299.54	22
2300.48	23
2301.42	25.5
2302.35	24.5
2303.29	24
2304.23	22
2305.17	24.5
2306.11	21
2307.05	22
2307.99	23
2308.92	20.5
2309.86	21
2310.8	22.5
2311.74	22
2312.67	27.5
2313.61	22
2314.55	24
2315.49	22
2316.42	23
2317.36	23.5
2318.3	22.5
2319.23	21
2320.17	25
2321.1	25
2322.04	21
2322.98	21
2323.91	21.5
2324.85	18
2325.78	23.5
2326.72	24
2327.66	23
2328.59	24.5
2329.52	20
2330.46	25.5
2331.39	20
2332.33	22.5
2333.26	20
2334.2	28
2335.13	23
2336.07	22
2337	21
2337.93	21.5
2338.87	21.5
2339.8	21.5
2340.73	23.5
2341.67	22.5
2342.6	19
2343.53	24.5
2344.46	25.5
2345.4	23.5
2346.33	21.5
2347.26	24.5
2348.19	25
2349.13	26.5
2350.06	23.5
2350.99	28
2351.92	24.5
2352.85	27
2353.79	25
2354.72	26.5
2355.65	23
2356.58	21.5
2357.51	22
2358.44	25.5
2359.37	22
2360.3	21
2361.23	23
2362.16	24
2363.09	28.5
2364.02	23.5
2364.95	21
2365.88	23
2366.81	24.5
2367.74	27
2368.67	23.5
2369.6	20
2370.53	22.5
2371.45	26.5
2372.38	20
2373.31	22
2374.24	23.5
2375.17	21
2376.1	23.5
2377.02	23
2377.95	22
2378.88	23
2379.81	22
2380.73	21.5
2381.66	20.5
2382.59	20.5
2383.52	23
2384.44	22.5
2385.37	23.5
2386.3	24
2387.22	24.5
2388.15	22.5
2389.07	21
2390	23
2390.93	20
2391.85	21
2392.78	27.5
2393.7	25.5
2394.63	25
2395.55	23
2396.48	23
2397.4	24.5
2398.33	24
2399.25	26
2400.18	26.5
2401.1	22
2402.03	27.5
2402.95	23
2403.87	24
2404.8	26
2405.72	26.5
2406.64	24
2407.57	21.5
2408.49	22.5
2409.41	25
2410.34	20.5
2411.26	25.5
2412.18	21.5
2413.1	27
2414.03	16
2414.95	22
2415.87	26.5
2416.79	22
2417.72	21
2418.64	22
2419.56	23
2420.48	22
2421.4	22
2422.32	25
2423.24	19
2424.16	23.5
2425.09	22.5
2426.01	23
2426.93	22.5
2427.85	26
2428.77	21
2429.69	23
2430.61	21
2431.53	23
2432.45	23
2433.37	19.5
2434.29	26.5
2435.21	22.5
2436.12	24
2437.04	25.5
2437.96	27
2438.88	21.5
2439.8	26
2440.72	24
2441.64	25
2442.55	23.5
2443.47	18
2444.39	20.5
2445.31	25.5
2446.23	21
2447.14	21.5
2448.06	26
2448.98	26
2449.9	23
2450.81	23
2451.73	25
2452.65	21
2453.56	23.5
2454.48	23
2455.39	21.5
2456.31	21.5
2457.23	26
2458.14	24
2459.06	24
2459.97	21
2460.89	22
2461.8	22
2462.72	25.5
2463.64	25
2464.55	22
2465.47	25
2466.38	22.5
2467.29	24
2468.21	27
2469.12	25
2470.04	25
2470.95	25
2471.86	22
2472.78	26
2473.69	20
2474.61	25
2475.52	25
2476.43	24.5
2477.35	24.5
2478.26	28
2479.17	27.5
2480.08	28
2481	23
2481.91	25.5
2482.82	21
2483.73	26.5
2484.64	21.5
2485.56	21.5
2486.47	25.5
2487.38	16
2488.29	24.5
2489.2	23
2490.11	27
2491.03	24
2491.94	21
2492.85	25
2493.76	27.5
2494.67	24
2495.58	23
2496.49	24
2497.4	26
2498.31	23
2499.22	25
2500.13	24
2501.04	26.5
2501.95	26
2502.86	24.5
2503.77	24
2504.67	25
2505.58	25
2506.49	26.5
2507.4	27
2508.31	23
2509.22	22
2510.13	26
2511.03	24
2511.94	26
2512.85	27
2513.76	26.5
2514.66	23
2515.57	21
2516.48	28
2517.39	25.5
2518.29	25
2519.2	22.5
2520.11	22.5
2521.01	25
2521.92	23.5
2522.83	24
2523.73	22
2524.64	26.5
2525.54	20
2526.45	23.5
2527.36	19.5
2528.26	25
2529.17	27
2530.07	27.5
2530.98	22
2531.88	24
2532.79	26
2533.69	26.5
2534.6	19
2535.5	29
2536.41	25.5
2537.31	24.5
2538.21	20
2539.12	23.5
2540.02	25.5
2540.93	21
2541.83	22.5
2542.73	25.5
2543.64	21
2544.54	23.5
2545.44	25
2546.34	22.5
2547.25	21.5
2548.15	25
2549.05	25
2549.96	26
2550.86	24
2551.76	23.5
2552.66	23
2553.56	26
2554.46	23.5
2555.37	23.5
2556.27	20.5
2557.17	25.5
2558.07	23
2558.97	26.5
2559.87	23.5
2560.77	28
2561.67	24.5
2562.57	25
2563.47	21
2564.37	23
2565.27	24
2566.17	21
2567.07	23.5
2567.97	24
2568.87	21
2569.77	25
2570.67	24
2571.57	24
2572.47	25
2573.37	24
2574.27	25
2575.17	23.5
2576.06	25
2576.96	25.5
2577.86	23
2578.76	23
2579.66	24.5
2580.56	23.5
2581.45	22.5
2582.35	27
2583.25	26.5
2584.15	23
2585.04	22.5
2585.94	23
2586.84	26.5
2587.73	23.5
2588.63	24.5
2589.53	23
2590.42	26.5
2591.32	22
2592.22	25.5
2593.11	25
2594.01	25
2594.9	25
2595.8	23
2596.69	26.5
2597.59	23
2598.48	28
2599.38	26
2600.28	24.5
2601.17	20
2602.06	28.5
2602.96	26
2603.85	22.5
2604.75	26.5
2605.64	28
2606.54	28
2607.43	21.5
2608.32	27
2609.22	23.5
2610.11	24.5
2611	23.5
2611.9	23
2612.79	23.5
2613.68	22.5
2614.58	19
2615.47	24.5
2616.36	23.5
2617.25	25
2618.15	25.5
2619.04	23.5
2619.93	22.5
2620.82	23.5
2621.71	24
2622.61	26
2623.5	24.5
2624.39	24.5
2625.28	25.5
2626.17	21.5
2627.06	21.5
2627.95	23.5
2628.84	21
2629.74	28
2630.63	26
2631.52	24
2632.41	22
2633.3	23
2634.19	22.5
2635.08	24.5
2635.97	24
2636.85	25
2637.74	21.5
2638.63	19
2639.52	20
2640.41	21.5
2641.3	24
2642.19	22.5
2643.08	24.5
2643.97	24.5
2644.86	26
2645.74	28
2646.63	21.5
2647.52	25.5
2648.41	24
2649.3	24
2650.18	26
2651.07	25
2651.96	22
2652.85	25.5
2653.73	26
2654.62	26.5
2655.51	24.5
2656.39	22
2657.28	26.5
2658.17	26
2659.05	25.5
2659.94	25.5
2660.83	23
2661.71	26.5
2662.6	25
2663.48	21.5
2664.37	23.5
2665.25	23.5
2666.14	23.5
2667.02	25
2667.91	23
2668.79	22
2669.68	23
2670.56	26
2671.45	25.5
2672.33	25.5
2673.22	25
2674.1	23.5
2674.98	25
2675.87	26.5
2676.75	28
2677.64	22.5
2678.52	28
2679.4	24.5
2680.29	23.5
2681.17	25
2682.05	26
2682.94	24
2683.82	23.5
2684.7	22
2685.58	25
2686.47	21
2687.35	22
2688.23	23
2689.11	22.5
2689.99	24
2690.88	22
2691.76	22
2692.64	26.5
2693.52	22
2694.4	27
2695.28	26
2696.16	24
2697.04	23
2697.92	24
2698.8	25
2699.69	24
2700.57	24
2701.45	25
2702.33	24
2703.21	26.5
2704.09	29
2704.97	27.5
2705.84	28.5
2706.72	24.5
2707.6	22
2708.48	26
2709.36	18
2710.24	26.5
2711.12	22
2712	22
2712.88	25.5
2713.75	27.5
2714.63	24
2715.51	23
2716.39	20
2717.27	25
2718.14	25
2719.02	25
2719.9	25
2720.78	24.5
2721.65	23.5
2722.53	27.5
2723.41	24.5
2724.28	22.5
2725.16	20.5
2726.04	25.5
2726.92	22.5
2727.79	23.5
2728.67	27
2729.54	24.5
2730.42	23
2731.3	24.5
2732.17	25
2733.05	26.5
2733.92	21
2734.8	25
2735.67	25.5
2736.55	23.5
2737.42	25.5
2738.3	25.5
2739.17	20.5
2740.05	22
2740.92	22.5
2741.79	26
2742.67	23.5
2743.54	23
2744.42	20
2745.29	24
2746.16	21
2747.04	25.5
2747.91	25
2748.78	23.5
2749.66	28
2750.53	25
2751.4	22.5
2752.28	23.5
2753.15	28
2754.02	24
2754.89	21.5
2755.77	25
2756.64	23
2757.51	24
2758.38	23.5
2759.25	23.5
2760.13	19.5
2761	23.5
2761.87	27
2762.74	24.5
2763.61	23
2764.48	23
2765.35	27
2766.22	26
2767.09	28
2767.96	22
2768.83	22
2769.71	22.5
2770.57	24
2771.44	22
2772.32	24
2773.18	25.5
2774.05	20
2774.92	27.5
2775.79	24.5
2776.66	28.5
2777.53	26.5
2778.4	28
2779.27	24
2780.14	25
2781.01	27
2781.87	24
2782.74	26
2783.61	28
2784.48	25.5
2785.35	24.5
2786.21	26
2787.08	30
2787.95	26.5
2788.82	29.5
2789.69	25
2790.55	27.5
2791.42	31
2792.29	29
2793.15	27.5
2794.02	28
2794.89	28.5
2795.75	30.5
2796.62	29.5
2797.49	25
2798.35	26
2799.22	27.5
2800.08	27
2800.95	29.25
2801.81	29.5
2802.68	24.5
2803.55	27
2804.41	25
2805.28	27.5
2806.14	28
2807	30
2807.87	24.5
2808.73	23.5
2809.6	27
2810.46	24
2811.33	27
2812.19	26
2813.06	28
2813.92	24
2814.78	27.5
2815.65	26
2816.51	29
2817.37	24.5
2818.24	23
2819.1	31
2819.96	27.5
2820.83	26
2821.69	26
2822.55	28
2823.41	22
2824.28	27.5
2825.14	27
2826	28.5
2826.86	21
2827.72	26.5
2828.58	26
2829.45	27.5
2830.31	28.5
2831.17	31
2832.03	23.5
2832.89	26.5
2833.75	26.5
2834.61	24
2835.47	23.5
2836.33	26.5
2837.2	26
2838.05	27.5
2838.92	28
2839.78	26
2840.64	28
2841.49	26
2842.35	25
2843.21	28
2844.07	29.5
2844.93	26
2845.79	26.5
2846.65	26.5
2847.51	26
2848.37	22.5
2849.23	29.5
2850.09	31
2850.94	22.5
2851.8	25
2852.66	25
2853.52	25
2854.38	28.5
2855.23	24.5
2856.09	21
2856.95	27.5
2857.81	24
2858.67	28
2859.52	29.5
2860.38	27
2861.24	24
2862.09	28
2862.95	28
2863.81	29
2864.66	29.5
2865.52	29
2866.38	28.5
2867.23	27.5
2868.09	31
2868.94	28.5
2869.8	30.5
2870.65	28
2871.51	25
2872.37	30.5
2873.22	31.5
2874.08	27.5
2874.93	30
2875.79	31
2876.64	35
2877.49	37.5
2878.35	31
2879.2	34.5
2880.06	35
2880.91	33.5
2881.77	33
2882.62	35
2883.47	35
2884.33	39
2885.18	40
2886.03	38
2886.89	38
2887.74	38
2888.59	39.5
2889.45	42
2890.3	45
2891.15	42
2892	42
2892.86	48
2893.71	52.5
2894.56	50
2895.41	52.5
2896.27	56
2897.12	60.5
2897.97	62.5
2898.82	65
2899.67	65.5
2900.52	71
2901.37	83
2902.23	71
2903.08	82
2903.93	76.5
2904.78	84
2905.63	82.5
2906.48	84
2907.33	87
2908.18	83.5
2909.03	78
2909.88	78
2910.73	70
2911.58	75
2912.43	69
2913.28	61
2914.13	53
2914.98	53
2915.83	51
2916.67	49
2917.52	50
2918.37	43.5
2919.22	46
2920.07	43.5
2920.92	38
2921.77	41
2922.61	33.5
2923.46	38
2924.31	36
2925.16	35.5
2926	33.5
2926.85	33
2927.7	31.5
2928.55	29.5
2929.39	34
2930.24	29.5
2931.09	32.5
2931.94	32
2932.78	31.5
2933.63	32.5
2934.47	33.5
2935.32	25.5
2936.17	29
2937.01	29.5
2937.86	28
2938.7	28
2939.55	30.5
2940.4	32
2941.24	26.5
2942.09	29.5
2942.93	29
2943.78	31
2944.62	29
2945.47	33
2946.31	29
2947.16	33
2948	33
2948.84	35.5
2949.69	32
2950.53	29.5
2951.38	35
2952.22	30
2953.06	34.5
2953.91	37
2954.75	38.5
2955.59	35
2956.44	35.5
2957.28	38.5
2958.12	38
2958.97	42.5
2959.81	44
2960.65	47
2961.5	44
2962.34	50
2963.18	50
2964.02	49.5
2964.86	49
2965.71	49
2966.55	51
2967.39	45.5
2968.23	43
2969.07	45
2969.91	46.5
2970.75	41
2971.6	42.0121
2972.44	42.9617
2973.28	40.9868
2974.12	37.9616
2974.96	38.9302
2975.8	35.3914
2976.64	34.9581
2977.48	36.7535
2978.32	37.1111
2979.16	32.3631
2980	30.9264
2980.84	33.0051
2981.68	27.0121
2982.52	32.0796
2983.36	28.488
2984.2	27.9217
2985.04	30.2498
2985.88	29.0756
2986.71	27.8792
2987.55	26.8451
2988.39	26.4162
2989.23	29.5543
2990.07	28.7639
2990.91	27.1998
2991.75	24.8348
2992.58	26.097
2993.42	23.9815
2994.26	29.3104
2995.1	26.272
2995.93	23.0249
2996.77	25.1293
2997.61	24.5465
2998.45	26.3811
2999.28	23.7277
3000.12	26.986
3000.96	26.9289
3001.79	26.8895
3002.63	24.682
3003.47	23.4729
3004.3	23.0702
3005.14	25.8728
3005.98	23.2367
3006.81	22.5447
3007.65	23.8906
3008.48	25.6504
3009.32	23.755
3010.15	24.2989
3010.99	22.6891
3011.82	22.3147
3012.66	24.458
3013.5	23.2037
3014.33	22.382
3015.17	24.9306
3016	23.2794
3016.83	25.3016
3017.67	24.4461
3018.5	22.4312
3019.34	23.2003
3020.17	20.5182
3021.01	20.8318
3021.84	22.7359
3022.67	23.7985
3023.51	23.7868
3024.34	26.5558
3025.17	23.1168
3026.01	24.5117
3026.84	25.2689
3027.67	24.1422
3028.51	23.7575
3029.34	23.9116
3030.17	26.1344
3031	23.969
3031.84	22.9585
3032.67	23.5985
3033.5	22.0526
3034.33	22.3325
3035.17	25.3353
3036	23.6657
3036.83	22.2036
3037.66	21.2728
3038.49	22.8027
3039.32	22.2546
3040.15	22.0481
3040.99	22.7437
3041.82	20.7066
3042.65	21.49
3043.48	22.5537
3044.31	23.2743
3045.14	22.442
3045.97	23.2509
3046.8	24.7944
3047.63	23.9442
3048.46	23.5115
3049.29	23.6241
3050.12	24.1155
3050.95	23.7646
3051.78	23.9684
3052.61	22.882
3053.44	21.4228
3054.27	23.3227
3055.1	24.1828
3055.92	22.7718
3056.75	23.0646
3057.27	21.5
3058.11	21
3058.94	21
3059.77	26.5
3060.61	23
3061.44	21.5
3062.27	23.5
3063.11	18
3063.94	21.5
3064.77	23
3065.6	22.5
3066.43	21
3067.27	21.5
3068.1	25
3068.93	22
3069.76	26
3070.59	23
3071.42	23.5
3072.26	22.5
3073.09	19.5
3073.92	24
3074.75	26
3075.58	22.5
3076.41	21
3077.24	23
3078.07	23.5
3078.9	21
3079.73	22.5
3080.56	23
3081.39	22
3082.22	24
3083.05	22.5
3083.88	19.5
3084.71	23
3085.54	22
3086.37	21
3087.2	22
3088.03	25.5
3088.86	21.5
3089.69	25
3090.51	21.5
3091.34	26
3092.17	26
3093	25.5
3093.83	25.5
3094.66	22.5
3095.48	23
3096.31	25
3097.14	22.5
3097.97	22
3098.79	25
3099.62	20
3100.45	21.5
3101.28	22.5
3102.1	19.5
3102.93	26
3103.76	24
3104.58	23.5
3105.41	22
3106.24	24
3107.06	22
3107.89	23
3108.72	23
3109.54	23
3110.37	27
3111.19	26.5
3112.02	23
3112.84	27
3113.67	21
3114.49	26.5
3115.32	21
3116.15	23
3116.97	23.5
3117.8	24.5
3118.62	21
3119.44	24.5
3120.27	22
3121.09	25
3121.92	25.5
3122.74	22
3123.57	24
3124.39	23
3125.21	27
3126.04	20.5
3126.86	24
3127.68	21.5
3128.51	22
3129.33	25.5
3130.15	23
3130.98	21.5
3131.8	22.5
3132.62	24
3133.44	22
3134.27	23.5
3135.09	24
3135.91	23
3136.73	20.5
3137.56	26
3138.38	24.5
3139.2	23.5
3140.02	28
3140.84	25
3141.67	23.5
3142.49	24.5
3143.31	26
3144.13	22.5
3144.95	22.5
3145.77	23.5
3146.59	26.5
3147.41	20.5
3148.23	26.5
3149.05	24.5
3149.87	24.5
3150.69	26.5
3151.51	26
3152.33	24
3153.15	22.5
3153.97	25
3154.79	24
3155.61	22
3156.43	23
3157.25	23.5
3158.07	22
3158.89	24.5
3159.71	25.5
3160.53	25.5
3161.35	24.5
3162.17	25.5
3162.98	25
3163.8	24
3164.62	24.5
3165.44	21
3166.26	26
3167.07	20
3167.89	21
3168.71	20.5
3169.53	23
3170.35	21
3171.16	25
3171.98	24
3172.8	21
3173.61	25.5
3174.43	24
3175.25	18
3176.06	25.5
3176.88	22
3177.7	18.5
3178.51	22.5
3179.33	24.5
3180.15	24
3180.96	24.5
3181.78	27.5
3182.59	25.5
3183.41	29
3184.22	23.5
3185.04	20
3185.85	26.5
3186.67	21.5
3187.49	27.5
3188.3	24.5
3189.12	22.5
3189.93	26.5
3190.74	23.5
3191.56	24
3192.37	23
3193.19	24.5
3194	27.5
3194.82	24.5
3195.63	25.5
3196.44	21
3197.26	22.5
3198.07	23
3198.88	27.5
3199.7	25.5
3200.51	22.5
3201.32	25
3202.14	23
3202.95	26.5
3203.76	22.5
3204.58	22
3205.39	23.5
3206.2	22
3207.01	27
3207.83	25.5
3208.64	21
3209.45	25.5
3210.26	23
3211.07	22.5
3211.88	24
3212.7	23
3213.51	21.5
3214.32	24.5
3215.13	23
3215.94	23.5
3216.75	24.5
3217.56	24
3218.37	21
3219.18	22.5
3220	22
3220.8	22.5
3221.62	22
3222.43	25.5
3223.24	24.5
3224.05	24
3224.86	23
3225.67	24.5
3226.47	26.5
3227.28	24
3228.09	22
3228.9	23
3229.71	24
3230.52	25.5
3231.33	26.5
3232.14	26
3232.95	25
3233.76	23.5
3234.56	22.5
3235.37	26.5
3236.18	22
3236.99	26.5
3237.8	22
3238.61	26
3239.41	27
3240.22	23.5
3241.03	24
3241.84	22
3242.64	22
3243.45	23.5
3244.26	26.5
3245.07	22.5
3245.87	22.5
3246.68	22.5
3247.49	29
3248.29	26
3249.1	21
3249.9	23.5
3250.71	26
3251.52	22.5
3252.32	23
3253.13	22.5
3253.93	23.5
3254.74	24
3255.55	21
3256.35	22
3257.16	25.5
3257.96	24
3258.77	27
3259.57	22
3260.38	23
3261.18	22
3261.99	23
3262.79	25
3263.6	25
3264.4	22
3265.2	28
3266.01	24
3266.81	21.5
3267.62	22
3268.42	24
3269.22	24.5
3270.03	23
3270.83	22.5
3271.63	27.5
3272.44	25
3273.24	23.5
3274.04	24.5
3274.85	24.5
3275.65	25
3276.45	21.5
3277.25	22
3278.06	21.5
3278.86	27.5
3279.66	24
3280.46	26.5
3281.26	22.5
3282.07	28
3282.87	26
3283.67	19
3284.47	21
3285.27	24.5
3286.07	20
3286.87	25
3287.68	21.5
3288.48	23
3289.28	25
3290.08	22
3290.88	24.5
3291.68	23
3292.48	22
3293.28	22
3294.08	23
3294.88	22
3295.68	24.5
3296.48	24
3297.28	23.5
3298.08	22
3298.88	23
3299.68	22
3300.48	24.5
3301.28	24
3302.08	25
3302.88	25
3303.67	28
3304.47	25.5
3305.27	21.5
3306.07	22.5
3306.87	23.5
3307.67	21.5
3308.46	25
3309.26	24
3310.06	21
3310.86	24
3311.66	24
3312.45	26
3313.25	27
3314.05	26.5
3314.85	25
3315.64	25.5
3316.44	25.5
3317.24	24.5
3318.03	22.5
3318.83	25.5
3319.63	21.5
3320.42	25.5
3321.22	21
3322.02	23
3322.81	24.5
3323.61	25
3324.4	23
3325.2	21
3326	20
3326.79	21
3327.59	27.5
3328.38	22
3329.18	26.5
3329.97	20
3330.77	24
3331.56	28
3332.36	22.5
3333.15	24.5
3333.95	27
3334.74	23.5
3335.54	23
3336.33	21
3337.13	22.5
3337.92	21.5
3338.71	23
3339.51	23
3340.3	27
3341.1	27
3341.89	18.5
3342.68	25
3343.48	25
3344.27	22
3345.06	22
3345.85	23
3346.65	27.5
3347.44	22
3348.23	23
3349.03	24.5
3349.82	23.5
3350.61	22.5
3351.4	21.5
3352.19	24
3352.99	24.5
3353.78	23
3354.57	23
3355.36	20
3356.15	25
3356.94	23
3357.74	24
3358.53	24
3359.32	23.5
3360.11	24.5
3360.9	22
3361.69	20.5
3362.48	24
3363.27	28
3364.06	21
3364.85	27
3365.64	23
3366.43	26.5
3367.22	21.5
3368.01	21.5
3368.8	25.5
3369.59	24
3370.38	26.5
3371.17	18
3371.96	22.5
3372.75	21
3373.54	23
3374.33	23
3375.12	28.5
3375.91	22
3376.69	20.5
3377.48	22
3378.27	23
3379.06	27
3379.85	26.5
3380.64	25
3381.42	23.5
3382.21	19.5
3383	25
3383.79	22
3384.58	24.5
3385.36	27
3386.15	24
3386.94	22.5
3387.73	25.5
3388.51	24.5
3389.3	26
3390.09	26.5
3390.87	24
3391.66	25.5
3392.45	20
3393.23	24
3394.02	22
3394.81	26
3395.59	24
3396.38	23
3397.16	25
3397.95	20.5
3398.74	22
3399.52	22.5
3400.31	22
3401.09	21
3401.88	26.5
3402.66	26
3403.45	23
3404.23	23
3405.02	20
3405.8	28
3406.59	21
3407.37	27
3408.15	22
3408.94	23.5
3409.72	22.5
3410.51	26.5
3411.29	24
3412.07	23.5
3412.86	24.5
3413.64	26
3414.42	24.5
3415.21	26
3415.99	23
3416.78	28
3417.56	25.5
3418.34	22.5
3419.12	26.5
3419.91	23
3420.69	22.5
3421.47	25
3422.25	28
3423.04	26.5
3423.82	27.5
3424.6	25
3425.38	23
3426.16	21.5
3426.95	24
3427.73	28
3428.51	24.5
3429.29	23
3430.07	27
3430.85	22
3431.63	22.5
3432.42	22
3433.2	23
3433.98	18.5
3434.76	24
3435.54	23.5
3436.32	22
3437.1	25
3437.88	25.5
3438.66	27.5
3439.44	24
3440.22	19.5
3441	25
3441.78	26
3442.56	25.5
3443.34	21
3444.12	26
3444.9	22
3445.68	23
3446.45	17.5
3447.23	21
3448.01	24.5
3448.79	23
3449.57	24.5
3450.35	25.5
3451.13	23
3451.91	23
3452.68	22.5
3453.46	25
3454.24	24.5
3455.02	26.5
3455.79	22
3456.57	23
3457.35	20.5
3458.13	22.5
3458.91	24.5
3459.68	22.5
3460.46	24.5
3461.24	22
3462.01	25.5
3462.79	23.5
3463.57	25.5
3464.34	20.5
3465.12	22
3465.9	22
3466.67	23
3467.45	23.5
3468.22	22
3469	24
3469.78	23.5
3470.55	22.5
3471.33	27.5
3472.1	24.5
3472.88	24
3473.65	21.5
3474.43	23
3475.2	23
3475.98	23
3476.75	22.5
3477.53	28
3478.3	22.5
3479.08	26
3479.85	25
3480.63	29.5
3481.4	24.5
3482.18	22.5
3482.95	22.5
3483.72	23.5
3484.5	23.5
3485.27	23.5
3486.04	23
3486.82	25.5
3487.59	26
3488.36	27
3489.14	23.5
3489.91	23.5
3490.68	25
3491.46	24.5
3492.23	26
3493	24
3493.77	24
3494.55	26
3495.32	24
3496.09	23.5
3496.86	23.5
3497.64	25.5
3498.41	22.5
3499.18	22
3499.95	24
